timestamp,ecg,reconstructed_time
2025-11-07 15:36:48.417174,35,2025-11-07 15:36:48.417174000
2025-11-07 15:36:48.417174,13824,2025-11-07 15:36:48.424866308
2025-11-07 15:36:48.417174,0,2025-11-07 15:36:48.432558615
2025-11-07 15:36:48.417174,47,2025-11-07 15:36:48.440250923
2025-11-07 15:36:48.417174,9472,2025-11-07 15:36:48.447943231
2025-11-07 15:36:48.417174,0,2025-11-07 15:36:48.455635538
2025-11-07 15:36:48.417174,40,2025-11-07 15:36:48.463327846
2025-11-07 15:36:48.417174,8960,2025-11-07 15:36:48.471020154
2025-11-07 15:36:48.417174,0,2025-11-07 15:36:48.478712462
2025-11-07 15:36:48.417174,14,2025-11-07 15:36:48.486404769
2025-11-07 15:36:48.417174,2304,2025-11-07 15:36:48.494097077
2025-11-07 15:36:48.417174,0,2025-11-07 15:36:48.501789385
2025-11-07 15:36:48.417174,21,2025-11-07 15:36:48.509481692
2025-11-07 15:36:48.417174,4608,2025-11-07 15:36:48.517174000
2025-11-07 15:36:48.417174,0,2025-11-07 15:36:48.524866308
2025-11-07 15:36:48.417174,23,2025-11-07 15:36:48.532558615
2025-11-07 15:36:48.417174,10752,2025-11-07 15:36:48.540250923
2025-11-07 15:36:48.417174,0,2025-11-07 15:36:48.547943231
2025-11-07 15:36:48.417174,28,2025-11-07 15:36:48.555635538
2025-11-07 15:36:48.417174,-15616,2025-11-07 15:36:48.563327846
2025-11-07 15:36:48.417174,-1,2025-11-07 15:36:48.571020154
2025-11-07 15:36:48.417174,-168,2025-11-07 15:36:48.578712462
2025-11-07 15:36:48.417174,-31745,2025-11-07 15:36:48.586404769
2025-11-07 15:36:48.417174,-1,2025-11-07 15:36:48.594097077
2025-11-07 15:36:48.417174,180,2025-11-07 15:36:48.601789385
2025-11-07 15:36:48.417174,-27392,2025-11-07 15:36:48.609481692
2025-11-07 15:36:48.417174,2,2025-11-07 15:36:48.617174000
2025-11-07 15:36:48.417174,875,2025-11-07 15:36:48.624866308
2025-11-07 15:36:48.417174,7168,2025-11-07 15:36:48.632558615
2025-11-07 15:36:48.417174,2,2025-11-07 15:36:48.640250923
2025-11-07 15:36:48.417174,166,2025-11-07 15:36:48.647943231
2025-11-07 15:36:48.417174,21248,2025-11-07 15:36:48.655635538
2025-11-07 15:36:48.417174,0,2025-11-07 15:36:48.663327846
2025-11-07 15:36:48.417174,26,2025-11-07 15:36:48.671020154
2025-11-07 15:36:48.417174,-12032,2025-11-07 15:36:48.678712462
2025-11-07 15:36:48.417174,-1,2025-11-07 15:36:48.686404769
2025-11-07 15:36:48.417174,-33,2025-11-07 15:36:48.694097077
2025-11-07 15:36:48.417174,-4353,2025-11-07 15:36:48.701789385
2025-11-07 15:36:48.417174,-1,2025-11-07 15:36:48.709481692
2025-11-07 15:36:48.417174,-33,2025-11-07 15:36:48.717174000
2025-11-07 15:36:48.417174,-6913,2025-11-07 15:36:48.724866308
2025-11-07 15:36:48.417174,-1,2025-11-07 15:36:48.732558615
2025-11-07 15:36:48.417174,-16,2025-11-07 15:36:48.740250923
2025-11-07 15:36:48.417174,-5121,2025-11-07 15:36:48.747943231
2025-11-07 15:36:48.417174,-1,2025-11-07 15:36:48.755635538
2025-11-07 15:36:48.417174,-16,2025-11-07 15:36:48.763327846
2025-11-07 15:36:48.417174,255,2025-11-07 15:36:48.771020154
2025-11-07 15:36:48.417174,0,2025-11-07 15:36:48.778712462
2025-11-07 15:36:48.417174,4,2025-11-07 15:36:48.786404769
2025-11-07 15:36:48.417174,1024,2025-11-07 15:36:48.794097077
2025-11-07 15:36:48.417174,0,2025-11-07 15:36:48.801789385
2025-11-07 15:36:48.417174,11,2025-11-07 15:36:48.809481692
2025-11-07 15:36:48.417174,5888,2025-11-07 15:36:48.817174000
2025-11-07 15:36:48.417174,0,2025-11-07 15:36:48.824866308
2025-11-07 15:36:48.417174,26,2025-11-07 15:36:48.832558615
2025-11-07 15:36:48.417174,8960,2025-11-07 15:36:48.840250923
2025-11-07 15:36:48.417174,0,2025-11-07 15:36:48.847943231
2025-11-07 15:36:48.417174,49,2025-11-07 15:36:48.855635538
2025-11-07 15:36:48.417174,14336,2025-11-07 15:36:48.863327846
2025-11-07 15:36:48.417174,0,2025-11-07 15:36:48.871020154
2025-11-07 15:36:48.417174,68,2025-11-07 15:36:48.878712462
2025-11-07 15:36:48.417174,21248,2025-11-07 15:36:48.886404769
2025-11-07 15:36:48.417174,0,2025-11-07 15:36:48.894097077
2025-11-07 15:36:48.417174,90,2025-11-07 15:36:48.901789385
2025-11-07 15:36:48.417174,23040,2025-11-07 15:36:48.909481692
2025-11-07 15:36:48.417174,0,2025-11-07 15:36:48.917174000
2025-11-07 15:36:48.417174,92,2025-11-07 15:36:48.924866308
2025-11-07 15:36:48.417174,22272,2025-11-07 15:36:48.932558615
2025-11-07 15:36:48.417174,0,2025-11-07 15:36:48.940250923
2025-11-07 15:36:48.417174,78,2025-11-07 15:36:48.947943230
2025-11-07 15:36:48.417174,16384,2025-11-07 15:36:48.955635538
2025-11-07 15:36:48.417174,0,2025-11-07 15:36:48.963327846
2025-11-07 15:36:48.417174,40,2025-11-07 15:36:48.971020154
2025-11-07 15:36:48.417174,2816,2025-11-07 15:36:48.978712462
2025-11-07 15:36:48.417174,0,2025-11-07 15:36:48.986404769
2025-11-07 15:36:48.417174,-11,2025-11-07 15:36:48.994097077
2025-11-07 15:36:48.417174,-5633,2025-11-07 15:36:49.001789385
2025-11-07 15:36:48.417174,-1,2025-11-07 15:36:49.009481692
2025-11-07 15:36:48.417174,-28,2025-11-07 15:36:49.017174000
2025-11-07 15:36:48.417174,-8705,2025-11-07 15:36:49.024866308
2025-11-07 15:36:48.417174,-1,2025-11-07 15:36:49.032558615
2025-11-07 15:36:48.417174,-37,2025-11-07 15:36:49.040250923
2025-11-07 15:36:48.417174,-9217,2025-11-07 15:36:49.047943231
2025-11-07 15:36:48.417174,-1,2025-11-07 15:36:49.055635538
2025-11-07 15:36:48.417174,-37,2025-11-07 15:36:49.063327846
2025-11-07 15:36:48.417174,-8705,2025-11-07 15:36:49.071020154
2025-11-07 15:36:48.417174,-1,2025-11-07 15:36:49.078712462
2025-11-07 15:36:48.417174,-30,2025-11-07 15:36:49.086404769
2025-11-07 15:36:48.417174,-6913,2025-11-07 15:36:49.094097077
2025-11-07 15:36:48.417174,-1,2025-11-07 15:36:49.101789385
2025-11-07 15:36:48.417174,-30,2025-11-07 15:36:49.109481692
2025-11-07 15:36:48.417174,-7425,2025-11-07 15:36:49.117174000
2025-11-07 15:36:48.417174,-1,2025-11-07 15:36:49.124866308
2025-11-07 15:36:48.417174,-30,2025-11-07 15:36:49.132558615
2025-11-07 15:36:48.417174,-6401,2025-11-07 15:36:49.140250923
2025-11-07 15:36:48.417174,-1,2025-11-07 15:36:49.147943231
2025-11-07 15:36:48.417174,-18,2025-11-07 15:36:49.155635538
2025-11-07 15:36:48.417174,-5633,2025-11-07 15:36:49.163327846
2025-11-07 15:36:48.417174,-1,2025-11-07 15:36:49.171020154
2025-11-07 15:36:48.417174,-26,2025-11-07 15:36:49.178712462
2025-11-07 15:36:48.417174,-5121,2025-11-07 15:36:49.186404769
2025-11-07 15:36:48.417174,-1,2025-11-07 15:36:49.194097077
2025-11-07 15:36:48.417174,-16,2025-11-07 15:36:49.201789385
2025-11-07 15:36:48.417174,-3329,2025-11-07 15:36:49.209481692
2025-11-07 15:36:48.417174,-1,2025-11-07 15:36:49.217174000
2025-11-07 15:36:48.417174,-4,2025-11-07 15:36:49.224866308
2025-11-07 15:36:48.417174,-257,2025-11-07 15:36:49.232558615
2025-11-07 15:36:48.417174,-1,2025-11-07 15:36:49.240250923
2025-11-07 15:36:48.417174,-9,2025-11-07 15:36:49.247943231
2025-11-07 15:36:49.003002,-9,2025-11-07 15:36:49.255635538
2025-11-07 15:36:49.003002,-769,2025-11-07 15:36:49.263327846
2025-11-07 15:36:49.003002,-1,2025-11-07 15:36:49.271020154
2025-11-07 15:36:49.003002,-9,2025-11-07 15:36:49.278712462
2025-11-07 15:36:49.003002,-3329,2025-11-07 15:36:49.286404769
2025-11-07 15:36:49.003002,-1,2025-11-07 15:36:49.294097077
2025-11-07 15:36:49.003002,-14,2025-11-07 15:36:49.301789385
2025-11-07 15:36:49.003002,-3841,2025-11-07 15:36:49.309481692
2025-11-07 15:36:49.003002,-1,2025-11-07 15:36:49.317174000
2025-11-07 15:36:49.003002,-16,2025-11-07 15:36:49.324866308
2025-11-07 15:36:49.003002,-1537,2025-11-07 15:36:49.332558615
2025-11-07 15:36:49.003002,-1,2025-11-07 15:36:49.340250923
2025-11-07 15:36:49.003002,9,2025-11-07 15:36:49.347943231
2025-11-07 15:36:49.003002,2816,2025-11-07 15:36:49.355635538
2025-11-07 15:36:49.003002,0,2025-11-07 15:36:49.363327846
2025-11-07 15:36:49.003002,7,2025-11-07 15:36:49.371020154
2025-11-07 15:36:49.003002,1792,2025-11-07 15:36:49.378712462
2025-11-07 15:36:49.003002,0,2025-11-07 15:36:49.386404769
2025-11-07 15:36:49.003002,9,2025-11-07 15:36:49.394097077
2025-11-07 15:36:49.003002,2816,2025-11-07 15:36:49.401789385
2025-11-07 15:36:49.003002,0,2025-11-07 15:36:49.409481692
2025-11-07 15:36:49.003002,14,2025-11-07 15:36:49.417174000
2025-11-07 15:36:49.003002,4096,2025-11-07 15:36:49.424866308
2025-11-07 15:36:49.003002,0,2025-11-07 15:36:49.432558615
2025-11-07 15:36:49.003002,16,2025-11-07 15:36:49.440250923
2025-11-07 15:36:49.003002,4096,2025-11-07 15:36:49.447943231
2025-11-07 15:36:49.003002,0,2025-11-07 15:36:49.455635538
2025-11-07 15:36:49.003002,21,2025-11-07 15:36:49.463327846
2025-11-07 15:36:49.003002,5376,2025-11-07 15:36:49.471020154
2025-11-07 15:36:49.003002,0,2025-11-07 15:36:49.478712462
2025-11-07 15:36:49.003002,14,2025-11-07 15:36:49.486404769
2025-11-07 15:36:49.003002,3584,2025-11-07 15:36:49.494097077
2025-11-07 15:36:49.003002,0,2025-11-07 15:36:49.501789385
2025-11-07 15:36:49.003002,16,2025-11-07 15:36:49.509481692
2025-11-07 15:36:49.003002,2816,2025-11-07 15:36:49.517174000
2025-11-07 15:36:49.003002,0,2025-11-07 15:36:49.524866308
2025-11-07 15:36:49.003002,11,2025-11-07 15:36:49.532558615
2025-11-07 15:36:49.003002,5888,2025-11-07 15:36:49.540250923
2025-11-07 15:36:49.003002,0,2025-11-07 15:36:49.547943231
2025-11-07 15:36:49.003002,35,2025-11-07 15:36:49.555635538
2025-11-07 15:36:49.003002,12032,2025-11-07 15:36:49.563327846
2025-11-07 15:36:49.003002,0,2025-11-07 15:36:49.571020154
2025-11-07 15:36:49.003002,71,2025-11-07 15:36:49.578712462
2025-11-07 15:36:49.003002,17408,2025-11-07 15:36:49.586404769
2025-11-07 15:36:49.003002,0,2025-11-07 15:36:49.594097077
2025-11-07 15:36:49.003002,40,2025-11-07 15:36:49.601789385
2025-11-07 15:36:49.003002,6656,2025-11-07 15:36:49.609481692
2025-11-07 15:36:49.003002,0,2025-11-07 15:36:49.617174000
2025-11-07 15:36:49.003002,26,2025-11-07 15:36:49.624866308
2025-11-07 15:36:49.003002,2816,2025-11-07 15:36:49.632558615
2025-11-07 15:36:49.003002,0,2025-11-07 15:36:49.640250923
2025-11-07 15:36:49.003002,0,2025-11-07 15:36:49.647943231
2025-11-07 15:36:49.003002,1792,2025-11-07 15:36:49.655635538
2025-11-07 15:36:49.003002,0,2025-11-07 15:36:49.663327846
2025-11-07 15:36:49.003002,11,2025-11-07 15:36:49.671020154
2025-11-07 15:36:49.003002,3584,2025-11-07 15:36:49.678712462
2025-11-07 15:36:49.003002,0,2025-11-07 15:36:49.686404769
2025-11-07 15:36:49.003002,9,2025-11-07 15:36:49.694097077
2025-11-07 15:36:49.003002,-4096,2025-11-07 15:36:49.701789385
2025-11-07 15:36:49.003002,-1,2025-11-07 15:36:49.709481692
2025-11-07 15:36:49.003002,-106,2025-11-07 15:36:49.717174000
2025-11-07 15:36:49.003002,16639,2025-11-07 15:36:49.724866308
2025-11-07 15:36:49.003002,-1,2025-11-07 15:36:49.732558615
2025-11-07 15:36:49.003002,-90,2025-11-07 15:36:49.740250923
2025-11-07 15:36:49.003002,5119,2025-11-07 15:36:49.747943231
2025-11-07 15:36:49.003002,1,2025-11-07 15:36:49.755635538
2025-11-07 15:36:49.003002,749,2025-11-07 15:36:49.763327846
2025-11-07 15:36:49.003002,19968,2025-11-07 15:36:49.771020154
2025-11-07 15:36:49.003002,3,2025-11-07 15:36:49.778712462
2025-11-07 15:36:49.003002,431,2025-11-07 15:36:49.786404769
2025-11-07 15:36:49.003002,25344,2025-11-07 15:36:49.794097077
2025-11-07 15:36:49.003002,0,2025-11-07 15:36:49.801789385
2025-11-07 15:36:49.003002,37,2025-11-07 15:36:49.809481692
2025-11-07 15:36:49.003002,-7680,2025-11-07 15:36:49.817174000
2025-11-07 15:36:49.003002,-1,2025-11-07 15:36:49.824866308
2025-11-07 15:36:49.003002,-85,2025-11-07 15:36:49.832558615
2025-11-07 15:36:49.003002,-14081,2025-11-07 15:36:49.840250923
2025-11-07 15:36:49.003002,-1,2025-11-07 15:36:49.847943231
2025-11-07 15:36:49.003002,-56,2025-11-07 15:36:49.855635538
2025-11-07 15:36:49.003002,-21505,2025-11-07 15:36:49.863327846
2025-11-07 15:36:49.003002,-1,2025-11-07 15:36:49.871020154
2025-11-07 15:36:49.003002,-83,2025-11-07 15:36:49.878712462
2025-11-07 15:36:49.003002,-15361,2025-11-07 15:36:49.886404769
2025-11-07 15:36:49.003002,-1,2025-11-07 15:36:49.894097077
2025-11-07 15:36:49.003002,-59,2025-11-07 15:36:49.901789385
2025-11-07 15:36:49.003002,-15361,2025-11-07 15:36:49.909481692
2025-11-07 15:36:49.003002,-1,2025-11-07 15:36:49.917174000
2025-11-07 15:36:49.003002,-42,2025-11-07 15:36:49.924866308
2025-11-07 15:36:49.003002,-5633,2025-11-07 15:36:49.932558615
2025-11-07 15:36:49.003002,-1,2025-11-07 15:36:49.940250923
2025-11-07 15:36:49.003002,-26,2025-11-07 15:36:49.947943230
2025-11-07 15:36:49.003002,-8705,2025-11-07 15:36:49.955635538
2025-11-07 15:36:49.003002,-1,2025-11-07 15:36:49.963327846
2025-11-07 15:36:49.003002,-23,2025-11-07 15:36:49.971020154
2025-11-07 15:36:49.003002,-1537,2025-11-07 15:36:49.978712462
2025-11-07 15:36:49.003002,-1,2025-11-07 15:36:49.986404769
2025-11-07 15:36:49.003002,-16,2025-11-07 15:36:49.994097077
2025-11-07 15:36:49.003002,-4353,2025-11-07 15:36:50.001789385
2025-11-07 15:36:49.003002,-1,2025-11-07 15:36:50.009481692
2025-11-07 15:36:49.003002,21,2025-11-07 15:36:50.017174000
2025-11-07 15:36:49.003002,10752,2025-11-07 15:36:50.024866308
2025-11-07 15:36:49.003002,0,2025-11-07 15:36:50.032558615
2025-11-07 15:36:49.003002,30,2025-11-07 15:36:50.040250923
2025-11-07 15:36:49.003002,10752,2025-11-07 15:36:50.047943231
2025-11-07 15:36:49.003002,0,2025-11-07 15:36:50.055635538
2025-11-07 15:36:49.003002,61,2025-11-07 15:36:50.063327846
2025-11-07 15:36:49.003002,14336,2025-11-07 15:36:50.071020154
2025-11-07 15:36:49.003002,0,2025-11-07 15:36:50.078712462
2025-11-07 15:36:49.003002,52,2025-11-07 15:36:50.086404769
2025-11-07 15:36:49.587169,56,2025-11-07 15:36:50.094097077
2025-11-07 15:36:49.587169,14336,2025-11-07 15:36:50.101789385
2025-11-07 15:36:49.587169,0,2025-11-07 15:36:50.109481692
2025-11-07 15:36:49.587169,26,2025-11-07 15:36:50.117174000
2025-11-07 15:36:49.587169,-9472,2025-11-07 15:36:50.124866308
2025-11-07 15:36:49.587169,-1,2025-11-07 15:36:50.132558615
2025-11-07 15:36:49.587169,-61,2025-11-07 15:36:50.140250923
2025-11-07 15:36:49.587169,-9985,2025-11-07 15:36:50.147943231
2025-11-07 15:36:49.587169,-1,2025-11-07 15:36:50.155635538
2025-11-07 15:36:49.587169,-54,2025-11-07 15:36:50.163327846
2025-11-07 15:36:49.587169,-19713,2025-11-07 15:36:50.171020154
2025-11-07 15:36:49.587169,-1,2025-11-07 15:36:50.178712462
2025-11-07 15:36:49.587169,-61,2025-11-07 15:36:50.186404769
2025-11-07 15:36:49.587169,-9217,2025-11-07 15:36:50.194097077
2025-11-07 15:36:49.587169,-1,2025-11-07 15:36:50.201789385
2025-11-07 15:36:49.587169,-47,2025-11-07 15:36:50.209481692
2025-11-07 15:36:49.587169,-11777,2025-11-07 15:36:50.217174000
2025-11-07 15:36:49.587169,-1,2025-11-07 15:36:50.224866308
2025-11-07 15:36:49.587169,2,2025-11-07 15:36:50.232558615
2025-11-07 15:36:49.587169,4096,2025-11-07 15:36:50.240250923
2025-11-07 15:36:49.587169,0,2025-11-07 15:36:50.247943231
2025-11-07 15:36:49.587169,-26,2025-11-07 15:36:50.255635538
2025-11-07 15:36:49.587169,-8193,2025-11-07 15:36:50.263327846
2025-11-07 15:36:49.587169,-1,2025-11-07 15:36:50.271020154
2025-11-07 15:36:49.587169,-7,2025-11-07 15:36:50.278712462
2025-11-07 15:36:49.587169,-4353,2025-11-07 15:36:50.286404769
2025-11-07 15:36:49.587169,-1,2025-11-07 15:36:50.294097077
2025-11-07 15:36:49.587169,-14,2025-11-07 15:36:50.301789385
2025-11-07 15:36:49.587169,2047,2025-11-07 15:36:50.309481692
2025-11-07 15:36:49.587169,0,2025-11-07 15:36:50.317174000
2025-11-07 15:36:49.587169,-14,2025-11-07 15:36:50.324866308
2025-11-07 15:36:49.587169,-7425,2025-11-07 15:36:50.332558615
2025-11-07 15:36:49.587169,-1,2025-11-07 15:36:50.340250923
2025-11-07 15:36:49.587169,11,2025-11-07 15:36:50.347943231
2025-11-07 15:36:49.587169,7168,2025-11-07 15:36:50.355635538
2025-11-07 15:36:49.587169,0,2025-11-07 15:36:50.363327846
2025-11-07 15:36:49.587169,11,2025-11-07 15:36:50.371020154
2025-11-07 15:36:49.587169,7168,2025-11-07 15:36:50.378712462
2025-11-07 15:36:49.587169,0,2025-11-07 15:36:50.386404769
2025-11-07 15:36:49.587169,21,2025-11-07 15:36:50.394097077
2025-11-07 15:36:49.587169,-7168,2025-11-07 15:36:50.401789385
2025-11-07 15:36:49.587169,-1,2025-11-07 15:36:50.409481692
2025-11-07 15:36:49.587169,0,2025-11-07 15:36:50.417174000
2025-11-07 15:36:49.587169,13824,2025-11-07 15:36:50.424866308
2025-11-07 15:36:49.587169,0,2025-11-07 15:36:50.432558615
2025-11-07 15:36:49.587169,14,2025-11-07 15:36:50.440250923
2025-11-07 15:36:49.587169,-4608,2025-11-07 15:36:50.447943231
2025-11-07 15:36:49.587169,-1,2025-11-07 15:36:50.455635538
2025-11-07 15:36:49.587169,18,2025-11-07 15:36:50.463327846
2025-11-07 15:36:49.587169,7168,2025-11-07 15:36:50.471020154
2025-11-07 15:36:49.587169,0,2025-11-07 15:36:50.478712462
2025-11-07 15:36:49.587169,0,2025-11-07 15:36:50.486404769
2025-11-07 15:36:49.587169,512,2025-11-07 15:36:50.494097077
2025-11-07 15:36:49.587169,0,2025-11-07 15:36:50.501789385
2025-11-07 15:36:49.587169,21,2025-11-07 15:36:50.509481692
2025-11-07 15:36:49.587169,1024,2025-11-07 15:36:50.517174000
2025-11-07 15:36:49.587169,0,2025-11-07 15:36:50.524866308
2025-11-07 15:36:49.587169,-7,2025-11-07 15:36:50.532558615
2025-11-07 15:36:49.587169,7423,2025-11-07 15:36:50.540250923
2025-11-07 15:36:49.587169,0,2025-11-07 15:36:50.547943231
2025-11-07 15:36:49.587169,37,2025-11-07 15:36:50.555635538
2025-11-07 15:36:49.587169,512,2025-11-07 15:36:50.563327846
2025-11-07 15:36:49.587169,0,2025-11-07 15:36:50.571020154
2025-11-07 15:36:49.587169,-7,2025-11-07 15:36:50.578712462
2025-11-07 15:36:49.587169,3071,2025-11-07 15:36:50.586404769
2025-11-07 15:36:49.587169,0,2025-11-07 15:36:50.594097077
2025-11-07 15:36:49.587169,4,2025-11-07 15:36:50.601789385
2025-11-07 15:36:49.587169,512,2025-11-07 15:36:50.609481692
2025-11-07 15:36:49.587169,0,2025-11-07 15:36:50.617174000
2025-11-07 15:36:49.587169,28,2025-11-07 15:36:50.624866308
2025-11-07 15:36:49.587169,3584,2025-11-07 15:36:50.632558615
2025-11-07 15:36:49.587169,0,2025-11-07 15:36:50.640250923
2025-11-07 15:36:49.587169,-23,2025-11-07 15:36:50.647943231
2025-11-07 15:36:49.587169,255,2025-11-07 15:36:50.655635538
2025-11-07 15:36:49.587169,0,2025-11-07 15:36:50.663327846
2025-11-07 15:36:49.587169,28,2025-11-07 15:36:50.671020154
2025-11-07 15:36:49.587169,2816,2025-11-07 15:36:50.678712462
2025-11-07 15:36:49.587169,0,2025-11-07 15:36:50.686404769
2025-11-07 15:36:49.587169,-18,2025-11-07 15:36:50.694097077
2025-11-07 15:36:49.587169,-3329,2025-11-07 15:36:50.701789385
2025-11-07 15:36:49.587169,-1,2025-11-07 15:36:50.709481692
2025-11-07 15:36:49.587169,23,2025-11-07 15:36:50.717174000
2025-11-07 15:36:49.587169,12032,2025-11-07 15:36:50.724866308
2025-11-07 15:36:49.587169,0,2025-11-07 15:36:50.732558615
2025-11-07 15:36:49.587169,59,2025-11-07 15:36:50.740250923
2025-11-07 15:36:49.587169,15104,2025-11-07 15:36:50.747943231
2025-11-07 15:36:49.587169,0,2025-11-07 15:36:50.755635538
2025-11-07 15:36:49.587169,37,2025-11-07 15:36:50.763327846
2025-11-07 15:36:49.587169,5376,2025-11-07 15:36:50.771020154
2025-11-07 15:36:49.587169,0,2025-11-07 15:36:50.778712462
2025-11-07 15:36:49.587169,16,2025-11-07 15:36:50.786404769
2025-11-07 15:36:49.587169,1024,2025-11-07 15:36:50.794097077
2025-11-07 15:36:49.587169,0,2025-11-07 15:36:50.801789385
2025-11-07 15:36:49.587169,-4,2025-11-07 15:36:50.809481692
2025-11-07 15:36:49.587169,255,2025-11-07 15:36:50.817174000
2025-11-07 15:36:49.587169,0,2025-11-07 15:36:50.824866308
2025-11-07 15:36:49.587169,2,2025-11-07 15:36:50.832558615
2025-11-07 15:36:49.587169,0,2025-11-07 15:36:50.840250923
2025-11-07 15:36:49.587169,0,2025-11-07 15:36:50.847943231
2025-11-07 15:36:49.587169,0,2025-11-07 15:36:50.855635538
2025-11-07 15:36:49.587169,-8960,2025-11-07 15:36:50.863327846
2025-11-07 15:36:49.587169,-1,2025-11-07 15:36:50.871020154
2025-11-07 15:36:49.587169,-137,2025-11-07 15:36:50.878712462
2025-11-07 15:36:49.587169,14335,2025-11-07 15:36:50.886404769
2025-11-07 15:36:49.587169,-1,2025-11-07 15:36:50.894097077
2025-11-07 15:36:49.587169,-61,2025-11-07 15:36:50.901789385
2025-11-07 15:36:49.587169,21503,2025-11-07 15:36:50.909481692
2025-11-07 15:36:49.587169,1,2025-11-07 15:36:50.917174000
2025-11-07 15:36:49.587169,787,2025-11-07 15:36:50.924866308
2025-11-07 15:36:50.082274,789,2025-11-07 15:36:50.932558615
2025-11-07 15:36:50.082274,24832,2025-11-07 15:36:50.940250923
2025-11-07 15:36:50.082274,1,2025-11-07 15:36:50.947943230
2025-11-07 15:36:50.082274,75,2025-11-07 15:36:50.955635538
2025-11-07 15:36:50.082274,5376,2025-11-07 15:36:50.963327846
2025-11-07 15:36:50.082274,0,2025-11-07 15:36:50.971020154
2025-11-07 15:36:50.082274,-59,2025-11-07 15:36:50.978712462
2025-11-07 15:36:50.082274,-23809,2025-11-07 15:36:50.986404769
2025-11-07 15:36:50.082274,-1,2025-11-07 15:36:50.994097077
2025-11-07 15:36:50.082274,-73,2025-11-07 15:36:51.001789385
2025-11-07 15:36:50.082274,-20225,2025-11-07 15:36:51.009481692
2025-11-07 15:36:50.082274,-1,2025-11-07 15:36:51.017174000
2025-11-07 15:36:50.082274,-87,2025-11-07 15:36:51.024866308
2025-11-07 15:36:50.082274,-18433,2025-11-07 15:36:51.032558615
2025-11-07 15:36:50.082274,-1,2025-11-07 15:36:51.040250923
2025-11-07 15:36:50.082274,-66,2025-11-07 15:36:51.047943231
2025-11-07 15:36:50.082274,-17153,2025-11-07 15:36:51.055635538
2025-11-07 15:36:50.082274,-1,2025-11-07 15:36:51.063327846
2025-11-07 15:36:50.082274,-66,2025-11-07 15:36:51.071020154
2025-11-07 15:36:50.082274,-14849,2025-11-07 15:36:51.078712462
2025-11-07 15:36:50.082274,-1,2025-11-07 15:36:51.086404769
2025-11-07 15:36:50.082274,-45,2025-11-07 15:36:51.094097077
2025-11-07 15:36:50.082274,-6913,2025-11-07 15:36:51.101789385
2025-11-07 15:36:50.082274,-1,2025-11-07 15:36:51.109481692
2025-11-07 15:36:50.082274,-30,2025-11-07 15:36:51.117174000
2025-11-07 15:36:50.082274,-6913,2025-11-07 15:36:51.124866308
2025-11-07 15:36:50.082274,-1,2025-11-07 15:36:51.132558615
2025-11-07 15:36:50.082274,-21,2025-11-07 15:36:51.140250923
2025-11-07 15:36:50.082274,-2561,2025-11-07 15:36:51.147943231
2025-11-07 15:36:50.082274,-1,2025-11-07 15:36:51.155635538
2025-11-07 15:36:50.082274,4,2025-11-07 15:36:51.163327846
2025-11-07 15:36:50.082274,4608,2025-11-07 15:36:51.171020154
2025-11-07 15:36:50.082274,0,2025-11-07 15:36:51.178712462
2025-11-07 15:36:50.082274,21,2025-11-07 15:36:51.186404769
2025-11-07 15:36:50.082274,6656,2025-11-07 15:36:51.194097077
2025-11-07 15:36:50.082274,0,2025-11-07 15:36:51.201789385
2025-11-07 15:36:50.082274,37,2025-11-07 15:36:51.209481692
2025-11-07 15:36:50.082274,10752,2025-11-07 15:36:51.217174000
2025-11-07 15:36:50.082274,0,2025-11-07 15:36:51.224866308
2025-11-07 15:36:50.082274,40,2025-11-07 15:36:51.232558615
2025-11-07 15:36:50.082274,11520,2025-11-07 15:36:51.240250923
2025-11-07 15:36:50.082274,0,2025-11-07 15:36:51.247943231
2025-11-07 15:36:50.082274,47,2025-11-07 15:36:51.255635538
2025-11-07 15:36:50.082274,5376,2025-11-07 15:36:51.263327846
2025-11-07 15:36:50.082274,0,2025-11-07 15:36:51.271020154
2025-11-07 15:36:50.082274,-16,2025-11-07 15:36:51.278712462
2025-11-07 15:36:50.082274,-7425,2025-11-07 15:36:51.286404769
2025-11-07 15:36:50.082274,-1,2025-11-07 15:36:51.294097077
2025-11-07 15:36:50.082274,-37,2025-11-07 15:36:51.301789385
2025-11-07 15:36:50.082274,-14081,2025-11-07 15:36:51.309481692
2025-11-07 15:36:50.082274,-1,2025-11-07 15:36:51.317174000
2025-11-07 15:36:50.082274,-61,2025-11-07 15:36:51.324866308
2025-11-07 15:36:50.082274,-14849,2025-11-07 15:36:51.332558615
2025-11-07 15:36:50.082274,-1,2025-11-07 15:36:51.340250923
2025-11-07 15:36:50.082274,-59,2025-11-07 15:36:51.347943231
2025-11-07 15:36:50.082274,-14081,2025-11-07 15:36:51.355635538
2025-11-07 15:36:50.082274,-1,2025-11-07 15:36:51.363327846
2025-11-07 15:36:50.082274,-49,2025-11-07 15:36:51.371020154
2025-11-07 15:36:50.082274,-10497,2025-11-07 15:36:51.378712462
2025-11-07 15:36:50.082274,-1,2025-11-07 15:36:51.386404769
2025-11-07 15:36:50.082274,-42,2025-11-07 15:36:51.394097077
2025-11-07 15:36:50.082274,-10497,2025-11-07 15:36:51.401789385
2025-11-07 15:36:50.082274,-1,2025-11-07 15:36:51.409481692
2025-11-07 15:36:50.082274,-42,2025-11-07 15:36:51.417174000
2025-11-07 15:36:50.082274,-9217,2025-11-07 15:36:51.424866308
2025-11-07 15:36:50.082274,-1,2025-11-07 15:36:51.432558615
2025-11-07 15:36:50.082274,-35,2025-11-07 15:36:51.440250923
2025-11-07 15:36:50.082274,-8705,2025-11-07 15:36:51.447943231
2025-11-07 15:36:50.082274,-1,2025-11-07 15:36:51.455635538
2025-11-07 15:36:50.082274,-37,2025-11-07 15:36:51.463327846
2025-11-07 15:36:50.082274,-8193,2025-11-07 15:36:51.471020154
2025-11-07 15:36:50.082274,-1,2025-11-07 15:36:51.478712462
2025-11-07 15:36:50.082274,-28,2025-11-07 15:36:51.486404769
2025-11-07 15:36:50.082274,-5633,2025-11-07 15:36:51.494097077
2025-11-07 15:36:50.082274,-1,2025-11-07 15:36:51.501789385
2025-11-07 15:36:50.082274,-23,2025-11-07 15:36:51.509481692
2025-11-07 15:36:50.082274,-5633,2025-11-07 15:36:51.517174000
2025-11-07 15:36:50.082274,-1,2025-11-07 15:36:51.524866308
2025-11-07 15:36:50.082274,-23,2025-11-07 15:36:51.532558615
2025-11-07 15:36:50.082274,-5633,2025-11-07 15:36:51.540250923
2025-11-07 15:36:50.082274,-1,2025-11-07 15:36:51.547943231
2025-11-07 15:36:50.082274,-23,2025-11-07 15:36:51.555635538
2025-11-07 15:36:50.082274,-6401,2025-11-07 15:36:51.563327846
2025-11-07 15:36:50.082274,-1,2025-11-07 15:36:51.571020154
2025-11-07 15:36:50.082274,-26,2025-11-07 15:36:51.578712462
2025-11-07 15:36:50.082274,-6401,2025-11-07 15:36:51.586404769
2025-11-07 15:36:50.082274,-1,2025-11-07 15:36:51.594097077
2025-11-07 15:36:50.082274,-28,2025-11-07 15:36:51.601789385
2025-11-07 15:36:50.082274,-6913,2025-11-07 15:36:51.609481692
2025-11-07 15:36:50.082274,-1,2025-11-07 15:36:51.617174000
2025-11-07 15:36:50.082274,-30,2025-11-07 15:36:51.624866308
2025-11-07 15:36:50.082274,-8193,2025-11-07 15:36:51.632558615
2025-11-07 15:36:50.082274,-1,2025-11-07 15:36:51.640250923
2025-11-07 15:36:50.082274,-33,2025-11-07 15:36:51.647943231
2025-11-07 15:36:50.082274,-8705,2025-11-07 15:36:51.655635538
2025-11-07 15:36:50.082274,-1,2025-11-07 15:36:51.663327846
2025-11-07 15:36:50.082274,-37,2025-11-07 15:36:51.671020154
2025-11-07 15:36:50.082274,-7425,2025-11-07 15:36:51.678712462
2025-11-07 15:36:50.082274,-1,2025-11-07 15:36:51.686404769
2025-11-07 15:36:50.082274,-30,2025-11-07 15:36:51.694097077
2025-11-07 15:36:50.082274,-8193,2025-11-07 15:36:51.701789385
2025-11-07 15:36:50.082274,-1,2025-11-07 15:36:51.709481692
2025-11-07 15:36:50.082274,-33,2025-11-07 15:36:51.717174000
2025-11-07 15:36:50.082274,-6913,2025-11-07 15:36:51.724866308
2025-11-07 15:36:50.082274,-1,2025-11-07 15:36:51.732558615
2025-11-07 15:36:50.082274,-26,2025-11-07 15:36:51.740250923
2025-11-07 15:36:50.082274,-6401,2025-11-07 15:36:51.747943231
2025-11-07 15:36:50.082274,-1,2025-11-07 15:36:51.755635538
2025-11-07 15:36:50.082274,-26,2025-11-07 15:36:51.763327846
2025-11-07 15:36:50.622148,-26,2025-11-07 15:36:51.771020154
2025-11-07 15:36:50.622148,-6401,2025-11-07 15:36:51.778712462
2025-11-07 15:36:50.622148,-1,2025-11-07 15:36:51.786404769
2025-11-07 15:36:50.622148,-26,2025-11-07 15:36:51.794097077
2025-11-07 15:36:50.622148,-5633,2025-11-07 15:36:51.801789385
2025-11-07 15:36:50.622148,-1,2025-11-07 15:36:51.809481692
2025-11-07 15:36:50.622148,-21,2025-11-07 15:36:51.817174000
2025-11-07 15:36:50.622148,-1537,2025-11-07 15:36:51.824866308
2025-11-07 15:36:50.622148,-1,2025-11-07 15:36:51.832558615
2025-11-07 15:36:50.622148,26,2025-11-07 15:36:51.840250923
2025-11-07 15:36:50.622148,12032,2025-11-07 15:36:51.847943231
2025-11-07 15:36:50.622148,0,2025-11-07 15:36:51.855635538
2025-11-07 15:36:50.622148,37,2025-11-07 15:36:51.863327846
2025-11-07 15:36:50.622148,6656,2025-11-07 15:36:51.871020154
2025-11-07 15:36:50.622148,0,2025-11-07 15:36:51.878712462
2025-11-07 15:36:50.622148,21,2025-11-07 15:36:51.886404769
2025-11-07 15:36:50.622148,1792,2025-11-07 15:36:51.894097077
2025-11-07 15:36:50.622148,0,2025-11-07 15:36:51.901789385
2025-11-07 15:36:50.622148,-4,2025-11-07 15:36:51.909481692
2025-11-07 15:36:50.622148,-2561,2025-11-07 15:36:51.917174000
2025-11-07 15:36:50.622148,-1,2025-11-07 15:36:51.924866308
2025-11-07 15:36:50.622148,-11,2025-11-07 15:36:51.932558615
2025-11-07 15:36:50.622148,-2049,2025-11-07 15:36:51.940250923
2025-11-07 15:36:50.622148,-1,2025-11-07 15:36:51.947943230
2025-11-07 15:36:50.622148,-9,2025-11-07 15:36:51.955635538
2025-11-07 15:36:50.622148,-2049,2025-11-07 15:36:51.963327846
2025-11-07 15:36:50.622148,-1,2025-11-07 15:36:51.971020154
2025-11-07 15:36:50.622148,-21,2025-11-07 15:36:51.978712462
2025-11-07 15:36:50.622148,-26369,2025-11-07 15:36:51.986404769
2025-11-07 15:36:50.622148,-1,2025-11-07 15:36:51.994097077
2025-11-07 15:36:50.622148,-222,2025-11-07 15:36:52.001789385
2025-11-07 15:36:50.622148,20479,2025-11-07 15:36:52.009481692
2025-11-07 15:36:50.622148,-1,2025-11-07 15:36:52.017174000
2025-11-07 15:36:50.622148,151,2025-11-07 15:36:52.024866308
2025-11-07 15:36:50.622148,-31488,2025-11-07 15:36:52.032558615
2025-11-07 15:36:50.622148,2,2025-11-07 15:36:52.040250923
2025-11-07 15:36:50.622148,830,2025-11-07 15:36:52.047943231
2025-11-07 15:36:50.622148,-12800,2025-11-07 15:36:52.055635538
2025-11-07 15:36:50.622148,1,2025-11-07 15:36:52.063327846
2025-11-07 15:36:50.622148,106,2025-11-07 15:36:52.071020154
2025-11-07 15:36:50.622148,13312,2025-11-07 15:36:52.078712462
2025-11-07 15:36:50.622148,0,2025-11-07 15:36:52.086404769
2025-11-07 15:36:50.622148,-4,2025-11-07 15:36:52.094097077
2025-11-07 15:36:50.622148,-20225,2025-11-07 15:36:52.101789385
2025-11-07 15:36:50.622148,-1,2025-11-07 15:36:52.109481692
2025-11-07 15:36:50.622148,-64,2025-11-07 15:36:52.117174000
2025-11-07 15:36:50.622148,-13057,2025-11-07 15:36:52.124866308
2025-11-07 15:36:50.622148,-1,2025-11-07 15:36:52.132558615
2025-11-07 15:36:50.622148,-68,2025-11-07 15:36:52.140250923
2025-11-07 15:36:50.622148,-15361,2025-11-07 15:36:52.147943231
2025-11-07 15:36:50.622148,-1,2025-11-07 15:36:52.155635538
2025-11-07 15:36:50.622148,-47,2025-11-07 15:36:52.163327846
2025-11-07 15:36:50.622148,-11777,2025-11-07 15:36:52.171020154
2025-11-07 15:36:50.622148,-1,2025-11-07 15:36:52.178712462
2025-11-07 15:36:50.622148,-42,2025-11-07 15:36:52.186404769
2025-11-07 15:36:50.622148,-8705,2025-11-07 15:36:52.194097077
2025-11-07 15:36:50.622148,-1,2025-11-07 15:36:52.201789385
2025-11-07 15:36:50.622148,-30,2025-11-07 15:36:52.209481692
2025-11-07 15:36:50.622148,-5633,2025-11-07 15:36:52.217174000
2025-11-07 15:36:50.622148,-1,2025-11-07 15:36:52.224866308
2025-11-07 15:36:50.622148,-16,2025-11-07 15:36:52.232558615
2025-11-07 15:36:50.622148,-769,2025-11-07 15:36:52.240250923
2025-11-07 15:36:50.622148,-1,2025-11-07 15:36:52.247943231
2025-11-07 15:36:50.622148,4,2025-11-07 15:36:52.255635538
2025-11-07 15:36:50.622148,3584,2025-11-07 15:36:52.263327846
2025-11-07 15:36:50.622148,0,2025-11-07 15:36:52.271020154
2025-11-07 15:36:50.622148,26,2025-11-07 15:36:52.278712462
2025-11-07 15:36:50.622148,8960,2025-11-07 15:36:52.286404769
2025-11-07 15:36:50.622148,0,2025-11-07 15:36:52.294097077
2025-11-07 15:36:50.622148,54,2025-11-07 15:36:52.301789385
2025-11-07 15:36:50.622148,17408,2025-11-07 15:36:52.309481692
2025-11-07 15:36:50.622148,0,2025-11-07 15:36:52.317174000
2025-11-07 15:36:50.622148,78,2025-11-07 15:36:52.324866308
2025-11-07 15:36:50.622148,21760,2025-11-07 15:36:52.332558615
2025-11-07 15:36:50.622148,0,2025-11-07 15:36:52.340250923
2025-11-07 15:36:50.622148,85,2025-11-07 15:36:52.347943231
2025-11-07 15:36:50.622148,20480,2025-11-07 15:36:52.355635538
2025-11-07 15:36:50.622148,0,2025-11-07 15:36:52.363327846
2025-11-07 15:36:50.622148,73,2025-11-07 15:36:52.371020154
2025-11-07 15:36:50.622148,13824,2025-11-07 15:36:52.378712462
2025-11-07 15:36:50.622148,0,2025-11-07 15:36:52.386404769
2025-11-07 15:36:50.622148,26,2025-11-07 15:36:52.394097077
2025-11-07 15:36:50.622148,512,2025-11-07 15:36:52.401789385
2025-11-07 15:36:50.622148,0,2025-11-07 15:36:52.409481692
2025-11-07 15:36:50.622148,-18,2025-11-07 15:36:52.417174000
2025-11-07 15:36:50.622148,-8193,2025-11-07 15:36:52.424866308
2025-11-07 15:36:50.622148,-1,2025-11-07 15:36:52.432558615
2025-11-07 15:36:50.622148,-45,2025-11-07 15:36:52.440250923
2025-11-07 15:36:50.622148,-12289,2025-11-07 15:36:52.447943231
2025-11-07 15:36:50.622148,-1,2025-11-07 15:36:52.455635538
2025-11-07 15:36:50.622148,-47,2025-11-07 15:36:52.463327846
2025-11-07 15:36:50.622148,-10497,2025-11-07 15:36:52.471020154
2025-11-07 15:36:50.622148,-1,2025-11-07 15:36:52.478712462
2025-11-07 15:36:50.622148,-37,2025-11-07 15:36:52.486404769
2025-11-07 15:36:50.622148,-8193,2025-11-07 15:36:52.494097077
2025-11-07 15:36:50.622148,-1,2025-11-07 15:36:52.501789385
2025-11-07 15:36:50.622148,-30,2025-11-07 15:36:52.509481692
2025-11-07 15:36:50.622148,-7425,2025-11-07 15:36:52.517174000
2025-11-07 15:36:50.622148,-1,2025-11-07 15:36:52.524866308
2025-11-07 15:36:50.622148,-30,2025-11-07 15:36:52.532558615
2025-11-07 15:36:50.622148,-6401,2025-11-07 15:36:52.540250923
2025-11-07 15:36:50.622148,-1,2025-11-07 15:36:52.547943231
2025-11-07 15:36:50.622148,-21,2025-11-07 15:36:52.555635538
2025-11-07 15:36:50.622148,-3841,2025-11-07 15:36:52.563327846
2025-11-07 15:36:50.622148,-1,2025-11-07 15:36:52.571020154
2025-11-07 15:36:50.622148,-9,2025-11-07 15:36:52.578712462
2025-11-07 15:36:50.622148,-769,2025-11-07 15:36:52.586404769
2025-11-07 15:36:50.622148,-1,2025-11-07 15:36:52.594097077
2025-11-07 15:36:50.622148,-2,2025-11-07 15:36:52.601789385
2025-11-07 15:36:51.252117,-2,2025-11-07 15:36:52.609481692
2025-11-07 15:36:51.252117,255,2025-11-07 15:36:52.617174000
2025-11-07 15:36:51.252117,0,2025-11-07 15:36:52.624866308
2025-11-07 15:36:51.252117,9,2025-11-07 15:36:52.632558615
2025-11-07 15:36:51.252117,6656,2025-11-07 15:36:52.640250923
2025-11-07 15:36:51.252117,0,2025-11-07 15:36:52.647943231
2025-11-07 15:36:51.252117,33,2025-11-07 15:36:52.655635538
2025-11-07 15:36:51.252117,6656,2025-11-07 15:36:52.663327846
2025-11-07 15:36:51.252117,0,2025-11-07 15:36:52.671020154
2025-11-07 15:36:51.252117,21,2025-11-07 15:36:52.678712462
2025-11-07 15:36:51.252117,7168,2025-11-07 15:36:52.686404769
2025-11-07 15:36:51.252117,0,2025-11-07 15:36:52.694097077
2025-11-07 15:36:51.252117,33,2025-11-07 15:36:52.701789385
2025-11-07 15:36:51.252117,7168,2025-11-07 15:36:52.709481692
2025-11-07 15:36:51.252117,0,2025-11-07 15:36:52.717174000
2025-11-07 15:36:51.252117,30,2025-11-07 15:36:52.724866308
2025-11-07 15:36:51.252117,6656,2025-11-07 15:36:52.732558615
2025-11-07 15:36:51.252117,0,2025-11-07 15:36:52.740250923
2025-11-07 15:36:51.252117,21,2025-11-07 15:36:52.747943231
2025-11-07 15:36:51.252117,5888,2025-11-07 15:36:52.755635538
2025-11-07 15:36:51.252117,0,2025-11-07 15:36:52.763327846
2025-11-07 15:36:51.252117,28,2025-11-07 15:36:52.771020154
2025-11-07 15:36:51.252117,6656,2025-11-07 15:36:52.778712462
2025-11-07 15:36:51.252117,0,2025-11-07 15:36:52.786404769
2025-11-07 15:36:51.252117,23,2025-11-07 15:36:52.794097077
2025-11-07 15:36:51.252117,5888,2025-11-07 15:36:52.801789385
2025-11-07 15:36:51.252117,0,2025-11-07 15:36:52.809481692
2025-11-07 15:36:51.252117,23,2025-11-07 15:36:52.817174000
2025-11-07 15:36:51.252117,5376,2025-11-07 15:36:52.824866308
2025-11-07 15:36:51.252117,0,2025-11-07 15:36:52.832558615
2025-11-07 15:36:51.252117,21,2025-11-07 15:36:52.840250923
2025-11-07 15:36:51.252117,5376,2025-11-07 15:36:52.847943231
2025-11-07 15:36:51.252117,0,2025-11-07 15:36:52.855635538
2025-11-07 15:36:51.252117,23,2025-11-07 15:36:52.863327846
2025-11-07 15:36:51.252117,5376,2025-11-07 15:36:52.871020154
2025-11-07 15:36:51.252117,0,2025-11-07 15:36:52.878712462
2025-11-07 15:36:51.252117,16,2025-11-07 15:36:52.886404769
2025-11-07 15:36:51.252117,6656,2025-11-07 15:36:52.894097077
2025-11-07 15:36:51.252117,0,2025-11-07 15:36:52.901789385
2025-11-07 15:36:51.252117,54,2025-11-07 15:36:52.909481692
2025-11-07 15:36:51.252117,18176,2025-11-07 15:36:52.917174000
2025-11-07 15:36:51.252117,0,2025-11-07 15:36:52.924866308
2025-11-07 15:36:51.252117,61,2025-11-07 15:36:52.932558615
2025-11-07 15:36:51.252117,10752,2025-11-07 15:36:52.940250923
2025-11-07 15:36:51.252117,0,2025-11-07 15:36:52.947943230
2025-11-07 15:36:51.252117,28,2025-11-07 15:36:52.955635538
2025-11-07 15:36:51.252117,4608,2025-11-07 15:36:52.963327846
2025-11-07 15:36:51.252117,0,2025-11-07 15:36:52.971020154
2025-11-07 15:36:51.252117,9,2025-11-07 15:36:52.978712462
2025-11-07 15:36:51.252117,1792,2025-11-07 15:36:52.986404769
2025-11-07 15:36:51.252117,0,2025-11-07 15:36:52.994097077
2025-11-07 15:36:51.252117,14,2025-11-07 15:36:53.001789385
2025-11-07 15:36:51.252117,2816,2025-11-07 15:36:53.009481692
2025-11-07 15:36:51.252117,0,2025-11-07 15:36:53.017174000
2025-11-07 15:36:51.252117,9,2025-11-07 15:36:53.024866308
2025-11-07 15:36:51.252117,2816,2025-11-07 15:36:53.032558615
2025-11-07 15:36:51.252117,0,2025-11-07 15:36:53.040250923
2025-11-07 15:36:51.252117,-18,2025-11-07 15:36:53.047943231
2025-11-07 15:36:51.252117,-32513,2025-11-07 15:36:53.055635538
2025-11-07 15:36:51.252117,-1,2025-11-07 15:36:53.063327846
2025-11-07 15:36:51.252117,-206,2025-11-07 15:36:53.071020154
2025-11-07 15:36:51.252117,-13569,2025-11-07 15:36:53.078712462
2025-11-07 15:36:51.252117,-1,2025-11-07 15:36:53.086404769
2025-11-07 15:36:51.252117,386,2025-11-07 15:36:53.094097077
2025-11-07 15:36:51.252117,29696,2025-11-07 15:36:53.101789385
2025-11-07 15:36:51.252117,3,2025-11-07 15:36:53.109481692
2025-11-07 15:36:51.252117,880,2025-11-07 15:36:53.117174000
2025-11-07 15:36:51.252117,-32768,2025-11-07 15:36:53.124866308
2025-11-07 15:36:51.252117,1,2025-11-07 15:36:53.132558615
2025-11-07 15:36:51.252117,83,2025-11-07 15:36:53.140250923
2025-11-07 15:36:51.252117,11520,2025-11-07 15:36:53.147943231
2025-11-07 15:36:51.252117,0,2025-11-07 15:36:53.155635538
2025-11-07 15:36:51.252117,-35,2025-11-07 15:36:53.163327846
2025-11-07 15:36:51.252117,-20993,2025-11-07 15:36:53.171020154
2025-11-07 15:36:51.252117,-1,2025-11-07 15:36:53.178712462
2025-11-07 15:36:51.252117,-56,2025-11-07 15:36:53.186404769
2025-11-07 15:36:51.252117,-15361,2025-11-07 15:36:53.194097077
2025-11-07 15:36:51.252117,-1,2025-11-07 15:36:53.201789385
2025-11-07 15:36:51.252117,-73,2025-11-07 15:36:53.209481692
2025-11-07 15:36:51.252117,-15361,2025-11-07 15:36:53.217174000
2025-11-07 15:36:51.252117,-1,2025-11-07 15:36:53.224866308
2025-11-07 15:36:51.252117,-52,2025-11-07 15:36:53.232558615
2025-11-07 15:36:51.252117,-12289,2025-11-07 15:36:53.240250923
2025-11-07 15:36:51.252117,-1,2025-11-07 15:36:53.247943231
2025-11-07 15:36:51.252117,-42,2025-11-07 15:36:53.255635538
2025-11-07 15:36:51.252117,-8705,2025-11-07 15:36:53.263327846
2025-11-07 15:36:51.252117,-1,2025-11-07 15:36:53.271020154
2025-11-07 15:36:51.252117,-30,2025-11-07 15:36:53.278712462
2025-11-07 15:36:51.252117,-6913,2025-11-07 15:36:53.286404769
2025-11-07 15:36:51.252117,-1,2025-11-07 15:36:53.294097077
2025-11-07 15:36:51.252117,-21,2025-11-07 15:36:53.301789385
2025-11-07 15:36:51.252117,-3329,2025-11-07 15:36:53.309481692
2025-11-07 15:36:51.252117,-1,2025-11-07 15:36:53.317174000
2025-11-07 15:36:51.252117,-7,2025-11-07 15:36:53.324866308
2025-11-07 15:36:51.252117,255,2025-11-07 15:36:53.332558615
2025-11-07 15:36:51.252117,0,2025-11-07 15:36:53.340250923
2025-11-07 15:36:51.252117,11,2025-11-07 15:36:53.347943231
2025-11-07 15:36:51.252117,5888,2025-11-07 15:36:53.355635538
2025-11-07 15:36:51.252117,0,2025-11-07 15:36:53.363327846
2025-11-07 15:36:51.252117,35,2025-11-07 15:36:53.371020154
2025-11-07 15:36:51.252117,12032,2025-11-07 15:36:53.378712462
2025-11-07 15:36:51.252117,0,2025-11-07 15:36:53.386404769
2025-11-07 15:36:51.252117,56,2025-11-07 15:36:53.394097077
2025-11-07 15:36:51.252117,15104,2025-11-07 15:36:53.401789385
2025-11-07 15:36:51.252117,0,2025-11-07 15:36:53.409481692
2025-11-07 15:36:51.252117,59,2025-11-07 15:36:53.417174000
2025-11-07 15:36:51.252117,13824,2025-11-07 15:36:53.424866308
2025-11-07 15:36:51.252117,0,2025-11-07 15:36:53.432558615
2025-11-07 15:36:51.252117,45,2025-11-07 15:36:53.440250923
2025-11-07 15:36:51.792150,26,2025-11-07 15:36:53.447943231
2025-11-07 15:36:51.792150,1024,2025-11-07 15:36:53.455635538
2025-11-07 15:36:51.792150,0,2025-11-07 15:36:53.463327846
2025-11-07 15:36:51.792150,-14,2025-11-07 15:36:53.471020154
2025-11-07 15:36:51.792150,-8193,2025-11-07 15:36:53.478712462
2025-11-07 15:36:51.792150,-1,2025-11-07 15:36:53.486404769
2025-11-07 15:36:51.792150,-47,2025-11-07 15:36:53.494097077
2025-11-07 15:36:51.792150,-11777,2025-11-07 15:36:53.501789385
2025-11-07 15:36:51.792150,-1,2025-11-07 15:36:53.509481692
2025-11-07 15:36:51.792150,-45,2025-11-07 15:36:53.517174000
2025-11-07 15:36:51.792150,-12289,2025-11-07 15:36:53.524866308
2025-11-07 15:36:51.792150,-1,2025-11-07 15:36:53.532558615
2025-11-07 15:36:51.792150,-49,2025-11-07 15:36:53.540250923
2025-11-07 15:36:51.792150,-9985,2025-11-07 15:36:53.547943231
2025-11-07 15:36:51.792150,-1,2025-11-07 15:36:53.555635538
2025-11-07 15:36:51.792150,-37,2025-11-07 15:36:53.563327846
2025-11-07 15:36:51.792150,-7425,2025-11-07 15:36:53.571020154
2025-11-07 15:36:51.792150,-1,2025-11-07 15:36:53.578712462
2025-11-07 15:36:51.792150,-11,2025-11-07 15:36:53.586404769
2025-11-07 15:36:51.792150,255,2025-11-07 15:36:53.594097077
2025-11-07 15:36:51.792150,0,2025-11-07 15:36:53.601789385
2025-11-07 15:36:51.792150,0,2025-11-07 15:36:53.609481692
2025-11-07 15:36:51.792150,512,2025-11-07 15:36:53.617174000
2025-11-07 15:36:51.792150,0,2025-11-07 15:36:53.624866308
2025-11-07 15:36:51.792150,4,2025-11-07 15:36:53.632558615
2025-11-07 15:36:51.792150,1024,2025-11-07 15:36:53.640250923
2025-11-07 15:36:51.792150,0,2025-11-07 15:36:53.647943231
2025-11-07 15:36:51.792150,7,2025-11-07 15:36:53.655635538
2025-11-07 15:36:51.792150,2816,2025-11-07 15:36:53.663327846
2025-11-07 15:36:51.792150,0,2025-11-07 15:36:53.671020154
2025-11-07 15:36:51.792150,9,2025-11-07 15:36:53.678712462
2025-11-07 15:36:51.792150,1792,2025-11-07 15:36:53.686404769
2025-11-07 15:36:51.792150,0,2025-11-07 15:36:53.694097077
2025-11-07 15:36:51.792150,11,2025-11-07 15:36:53.701789385
2025-11-07 15:36:51.792150,4608,2025-11-07 15:36:53.709481692
2025-11-07 15:36:51.792150,0,2025-11-07 15:36:53.717174000
2025-11-07 15:36:51.792150,18,2025-11-07 15:36:53.724866308
2025-11-07 15:36:51.792150,4608,2025-11-07 15:36:53.732558615
2025-11-07 15:36:51.792150,0,2025-11-07 15:36:53.740250923
2025-11-07 15:36:51.792150,21,2025-11-07 15:36:53.747943231
2025-11-07 15:36:51.792150,5888,2025-11-07 15:36:53.755635538
2025-11-07 15:36:51.792150,0,2025-11-07 15:36:53.763327846
2025-11-07 15:36:51.792150,23,2025-11-07 15:36:53.771020154
2025-11-07 15:36:51.792150,5376,2025-11-07 15:36:53.778712462
2025-11-07 15:36:51.792150,0,2025-11-07 15:36:53.786404769
2025-11-07 15:36:51.792150,21,2025-11-07 15:36:53.794097077
2025-11-07 15:36:51.792150,4608,2025-11-07 15:36:53.801789385
2025-11-07 15:36:51.792150,0,2025-11-07 15:36:53.809481692
2025-11-07 15:36:51.792150,18,2025-11-07 15:36:53.817174000
2025-11-07 15:36:51.792150,4608,2025-11-07 15:36:53.824866308
2025-11-07 15:36:51.792150,0,2025-11-07 15:36:53.832558615
2025-11-07 15:36:51.792150,18,2025-11-07 15:36:53.840250923
2025-11-07 15:36:51.792150,4608,2025-11-07 15:36:53.847943231
2025-11-07 15:36:51.792150,0,2025-11-07 15:36:53.855635538
2025-11-07 15:36:51.792150,18,2025-11-07 15:36:53.863327846
2025-11-07 15:36:51.792150,4608,2025-11-07 15:36:53.871020154
2025-11-07 15:36:51.792150,0,2025-11-07 15:36:53.878712462
2025-11-07 15:36:51.792150,16,2025-11-07 15:36:53.886404769
2025-11-07 15:36:51.792150,3584,2025-11-07 15:36:53.894097077
2025-11-07 15:36:51.792150,0,2025-11-07 15:36:53.901789385
2025-11-07 15:36:51.792150,16,2025-11-07 15:36:53.909481692
2025-11-07 15:36:51.792150,4608,2025-11-07 15:36:53.917174000
2025-11-07 15:36:51.792150,0,2025-11-07 15:36:53.924866308
2025-11-07 15:36:51.792150,14,2025-11-07 15:36:53.932558615
2025-11-07 15:36:51.792150,2304,2025-11-07 15:36:53.940250923
2025-11-07 15:36:51.792150,0,2025-11-07 15:36:53.947943230
2025-11-07 15:36:51.792150,7,2025-11-07 15:36:53.955635538
2025-11-07 15:36:51.792150,1792,2025-11-07 15:36:53.963327846
2025-11-07 15:36:51.792150,0,2025-11-07 15:36:53.971020154
2025-11-07 15:36:51.792150,21,2025-11-07 15:36:53.978712462
2025-11-07 15:36:51.792150,12544,2025-11-07 15:36:53.986404769
2025-11-07 15:36:51.792150,0,2025-11-07 15:36:53.994097077
2025-11-07 15:36:51.792150,66,2025-11-07 15:36:54.001789385
2025-11-07 15:36:51.792150,13824,2025-11-07 15:36:54.009481692
2025-11-07 15:36:51.792150,0,2025-11-07 15:36:54.017174000
2025-11-07 15:36:51.792150,37,2025-11-07 15:36:54.024866308
2025-11-07 15:36:51.792150,6656,2025-11-07 15:36:54.032558615
2025-11-07 15:36:51.792150,0,2025-11-07 15:36:54.040250923
2025-11-07 15:36:51.792150,14,2025-11-07 15:36:54.047943231
2025-11-07 15:36:51.792150,512,2025-11-07 15:36:54.055635538
2025-11-07 15:36:51.792150,0,2025-11-07 15:36:54.063327846
2025-11-07 15:36:51.792150,-7,2025-11-07 15:36:54.071020154
2025-11-07 15:36:51.792150,-257,2025-11-07 15:36:54.078712462
2025-11-07 15:36:51.792150,-1,2025-11-07 15:36:54.086404769
2025-11-07 15:36:51.792150,2,2025-11-07 15:36:54.094097077
2025-11-07 15:36:51.792150,-512,2025-11-07 15:36:54.101789385
2025-11-07 15:36:51.792150,-1,2025-11-07 15:36:54.109481692
2025-11-07 15:36:51.792150,-7,2025-11-07 15:36:54.117174000
2025-11-07 15:36:51.792150,-11265,2025-11-07 15:36:54.124866308
2025-11-07 15:36:51.792150,-1,2025-11-07 15:36:54.132558615
2025-11-07 15:36:51.792150,-156,2025-11-07 15:36:54.140250923
2025-11-07 15:36:51.792150,9471,2025-11-07 15:36:54.147943231
2025-11-07 15:36:51.792150,-1,2025-11-07 15:36:54.155635538
2025-11-07 15:36:51.792150,-47,2025-11-07 15:36:54.163327846
2025-11-07 15:36:51.792150,-25857,2025-11-07 15:36:54.171020154
2025-11-07 15:36:51.792150,1,2025-11-07 15:36:54.178712462
2025-11-07 15:36:51.792150,896,2025-11-07 15:36:54.186404769
2025-11-07 15:36:51.792150,21248,2025-11-07 15:36:54.194097077
2025-11-07 15:36:51.792150,3,2025-11-07 15:36:54.201789385
2025-11-07 15:36:51.792150,346,2025-11-07 15:36:54.209481692
2025-11-07 15:36:51.792150,16896,2025-11-07 15:36:54.217174000
2025-11-07 15:36:51.792150,0,2025-11-07 15:36:54.224866308
2025-11-07 15:36:51.792150,28,2025-11-07 15:36:54.232558615
2025-11-07 15:36:51.792150,-14336,2025-11-07 15:36:54.240250923
2025-11-07 15:36:51.792150,-1,2025-11-07 15:36:54.247943231
2025-11-07 15:36:51.792150,-97,2025-11-07 15:36:54.255635538
2025-11-07 15:36:51.792150,-17153,2025-11-07 15:36:54.263327846
2025-11-07 15:36:51.792150,-1,2025-11-07 15:36:54.271020154
2025-11-07 15:36:51.792150,-75,2025-11-07 15:36:54.278712462
2025-11-07 15:36:52.332117,-85,2025-11-07 15:36:54.286404769
2025-11-07 15:36:52.332117,-17153,2025-11-07 15:36:54.294097077
2025-11-07 15:36:52.332117,-1,2025-11-07 15:36:54.301789385
2025-11-07 15:36:52.332117,-64,2025-11-07 15:36:54.309481692
2025-11-07 15:36:52.332117,-16129,2025-11-07 15:36:54.317174000
2025-11-07 15:36:52.332117,-1,2025-11-07 15:36:54.324866308
2025-11-07 15:36:52.332117,-54,2025-11-07 15:36:54.332558615
2025-11-07 15:36:52.332117,-11777,2025-11-07 15:36:54.340250923
2025-11-07 15:36:52.332117,-1,2025-11-07 15:36:54.347943231
2025-11-07 15:36:52.332117,-42,2025-11-07 15:36:54.355635538
2025-11-07 15:36:52.332117,-9217,2025-11-07 15:36:54.363327846
2025-11-07 15:36:52.332117,-1,2025-11-07 15:36:54.371020154
2025-11-07 15:36:52.332117,-30,2025-11-07 15:36:54.378712462
2025-11-07 15:36:52.332117,-3329,2025-11-07 15:36:54.386404769
2025-11-07 15:36:52.332117,-1,2025-11-07 15:36:54.394097077
2025-11-07 15:36:52.332117,4,2025-11-07 15:36:54.401789385
2025-11-07 15:36:52.332117,2816,2025-11-07 15:36:54.409481692
2025-11-07 15:36:52.332117,0,2025-11-07 15:36:54.417174000
2025-11-07 15:36:52.332117,18,2025-11-07 15:36:54.424866308
2025-11-07 15:36:52.332117,8448,2025-11-07 15:36:54.432558615
2025-11-07 15:36:52.332117,0,2025-11-07 15:36:54.440250923
2025-11-07 15:36:52.332117,45,2025-11-07 15:36:54.447943231
2025-11-07 15:36:52.332117,13312,2025-11-07 15:36:54.455635538
2025-11-07 15:36:52.332117,0,2025-11-07 15:36:54.463327846
2025-11-07 15:36:52.332117,59,2025-11-07 15:36:54.471020154
2025-11-07 15:36:52.332117,16384,2025-11-07 15:36:54.478712462
2025-11-07 15:36:52.332117,0,2025-11-07 15:36:54.486404769
2025-11-07 15:36:52.332117,68,2025-11-07 15:36:54.494097077
2025-11-07 15:36:52.332117,18176,2025-11-07 15:36:54.501789385
2025-11-07 15:36:52.332117,0,2025-11-07 15:36:54.509481692
2025-11-07 15:36:52.332117,66,2025-11-07 15:36:54.517174000
2025-11-07 15:36:52.332117,11520,2025-11-07 15:36:54.524866308
2025-11-07 15:36:52.332117,0,2025-11-07 15:36:54.532558615
2025-11-07 15:36:52.332117,18,2025-11-07 15:36:54.540250923
2025-11-07 15:36:52.332117,0,2025-11-07 15:36:54.547943231
2025-11-07 15:36:52.332117,0,2025-11-07 15:36:54.555635538
2025-11-07 15:36:52.332117,-14,2025-11-07 15:36:54.563327846
2025-11-07 15:36:52.332117,-6401,2025-11-07 15:36:54.571020154
2025-11-07 15:36:52.332117,-1,2025-11-07 15:36:54.578712462
2025-11-07 15:36:52.332117,-30,2025-11-07 15:36:54.586404769
2025-11-07 15:36:52.332117,-7425,2025-11-07 15:36:54.594097077
2025-11-07 15:36:52.332117,-1,2025-11-07 15:36:54.601789385
2025-11-07 15:36:52.332117,-33,2025-11-07 15:36:54.609481692
2025-11-07 15:36:52.332117,-8193,2025-11-07 15:36:54.617174000
2025-11-07 15:36:52.332117,-1,2025-11-07 15:36:54.624866308
2025-11-07 15:36:52.332117,-33,2025-11-07 15:36:54.632558615
2025-11-07 15:36:52.332117,-6401,2025-11-07 15:36:54.640250923
2025-11-07 15:36:52.332117,-1,2025-11-07 15:36:54.647943231
2025-11-07 15:36:52.332117,-23,2025-11-07 15:36:54.655635538
2025-11-07 15:36:52.332117,-5121,2025-11-07 15:36:54.663327846
2025-11-07 15:36:52.332117,-1,2025-11-07 15:36:54.671020154
2025-11-07 15:36:52.332117,-21,2025-11-07 15:36:54.678712462
2025-11-07 15:36:52.332117,-4353,2025-11-07 15:36:54.686404769
2025-11-07 15:36:52.332117,-1,2025-11-07 15:36:54.694097077
2025-11-07 15:36:52.332117,-14,2025-11-07 15:36:54.701789385
2025-11-07 15:36:52.332117,-2049,2025-11-07 15:36:54.709481692
2025-11-07 15:36:52.332117,-1,2025-11-07 15:36:54.717174000
2025-11-07 15:36:52.332117,-9,2025-11-07 15:36:54.724866308
2025-11-07 15:36:52.332117,-2049,2025-11-07 15:36:54.732558615
2025-11-07 15:36:52.332117,-1,2025-11-07 15:36:54.740250923
2025-11-07 15:36:52.332117,-7,2025-11-07 15:36:54.747943231
2025-11-07 15:36:52.332117,-257,2025-11-07 15:36:54.755635538
2025-11-07 15:36:52.332117,-1,2025-11-07 15:36:54.763327846
2025-11-07 15:36:52.332117,-2,2025-11-07 15:36:54.771020154
2025-11-07 15:36:52.332117,-257,2025-11-07 15:36:54.778712462
2025-11-07 15:36:52.332117,-1,2025-11-07 15:36:54.786404769
2025-11-07 15:36:52.332117,2,2025-11-07 15:36:54.794097077
2025-11-07 15:36:52.332117,512,2025-11-07 15:36:54.801789385
2025-11-07 15:36:52.332117,0,2025-11-07 15:36:54.809481692
2025-11-07 15:36:52.332117,2,2025-11-07 15:36:54.817174000
2025-11-07 15:36:52.332117,1024,2025-11-07 15:36:54.824866308
2025-11-07 15:36:52.332117,0,2025-11-07 15:36:54.832558615
2025-11-07 15:36:52.332117,4,2025-11-07 15:36:54.840250923
2025-11-07 15:36:52.332117,1792,2025-11-07 15:36:54.847943231
2025-11-07 15:36:52.332117,0,2025-11-07 15:36:54.855635538
2025-11-07 15:36:52.332117,9,2025-11-07 15:36:54.863327846
2025-11-07 15:36:52.332117,2816,2025-11-07 15:36:54.871020154
2025-11-07 15:36:52.332117,0,2025-11-07 15:36:54.878712462
2025-11-07 15:36:52.332117,9,2025-11-07 15:36:54.886404769
2025-11-07 15:36:52.332117,2816,2025-11-07 15:36:54.894097077
2025-11-07 15:36:52.332117,0,2025-11-07 15:36:54.901789385
2025-11-07 15:36:52.332117,14,2025-11-07 15:36:54.909481692
2025-11-07 15:36:52.332117,4096,2025-11-07 15:36:54.917174000
2025-11-07 15:36:52.332117,0,2025-11-07 15:36:54.924866308
2025-11-07 15:36:52.332117,14,2025-11-07 15:36:54.932558615
2025-11-07 15:36:52.332117,3584,2025-11-07 15:36:54.940250923
2025-11-07 15:36:52.332117,0,2025-11-07 15:36:54.947943230
2025-11-07 15:36:52.332117,14,2025-11-07 15:36:54.955635538
2025-11-07 15:36:52.332117,3584,2025-11-07 15:36:54.963327846
2025-11-07 15:36:52.332117,0,2025-11-07 15:36:54.971020154
2025-11-07 15:36:52.332117,14,2025-11-07 15:36:54.978712462
2025-11-07 15:36:52.332117,3584,2025-11-07 15:36:54.986404769
2025-11-07 15:36:52.332117,0,2025-11-07 15:36:54.994097077
2025-11-07 15:36:52.332117,11,2025-11-07 15:36:55.001789385
2025-11-07 15:36:52.332117,2816,2025-11-07 15:36:55.009481692
2025-11-07 15:36:52.332117,0,2025-11-07 15:36:55.017174000
2025-11-07 15:36:52.332117,14,2025-11-07 15:36:55.024866308
2025-11-07 15:36:52.332117,2304,2025-11-07 15:36:55.032558615
2025-11-07 15:36:52.332117,0,2025-11-07 15:36:55.040250923
2025-11-07 15:36:52.332117,7,2025-11-07 15:36:55.047943231
2025-11-07 15:36:52.332117,4096,2025-11-07 15:36:55.055635538
2025-11-07 15:36:52.332117,0,2025-11-07 15:36:55.063327846
2025-11-07 15:36:52.332117,42,2025-11-07 15:36:55.071020154
2025-11-07 15:36:52.332117,16384,2025-11-07 15:36:55.078712462
2025-11-07 15:36:52.332117,0,2025-11-07 15:36:55.086404769
2025-11-07 15:36:52.332117,59,2025-11-07 15:36:55.094097077
2025-11-07 15:36:52.332117,10752,2025-11-07 15:36:55.101789385
2025-11-07 15:36:52.332117,0,2025-11-07 15:36:55.109481692
2025-11-07 15:36:52.332117,26,2025-11-07 15:36:55.117174000
2025-11-07 15:36:52.917171,16,2025-11-07 15:36:55.124866308
2025-11-07 15:36:52.917171,512,2025-11-07 15:36:55.132558615
2025-11-07 15:36:52.917171,0,2025-11-07 15:36:55.140250923
2025-11-07 15:36:52.917171,-2,2025-11-07 15:36:55.147943231
2025-11-07 15:36:52.917171,767,2025-11-07 15:36:55.155635538
2025-11-07 15:36:52.917171,0,2025-11-07 15:36:55.163327846
2025-11-07 15:36:52.917171,2,2025-11-07 15:36:55.171020154
2025-11-07 15:36:52.917171,0,2025-11-07 15:36:55.178712462
2025-11-07 15:36:52.917171,0,2025-11-07 15:36:55.186404769
2025-11-07 15:36:52.917171,14,2025-11-07 15:36:55.194097077
2025-11-07 15:36:52.917171,512,2025-11-07 15:36:55.201789385
2025-11-07 15:36:52.917171,0,2025-11-07 15:36:55.209481692
2025-11-07 15:36:52.917171,-97,2025-11-07 15:36:55.217174000
2025-11-07 15:36:52.917171,15615,2025-11-07 15:36:55.224866308
2025-11-07 15:36:52.917171,-1,2025-11-07 15:36:55.232558615
2025-11-07 15:36:52.917171,-87,2025-11-07 15:36:55.240250923
2025-11-07 15:36:52.917171,13055,2025-11-07 15:36:55.247943231
2025-11-07 15:36:52.917171,1,2025-11-07 15:36:55.255635538
2025-11-07 15:36:52.917171,825,2025-11-07 15:36:55.263327846
2025-11-07 15:36:52.917171,-22272,2025-11-07 15:36:55.271020154
2025-11-07 15:36:52.917171,3,2025-11-07 15:36:55.278712462
2025-11-07 15:36:52.917171,486,2025-11-07 15:36:55.286404769
2025-11-07 15:36:52.917171,-32768,2025-11-07 15:36:55.294097077
2025-11-07 15:36:52.917171,0,2025-11-07 15:36:55.301789385
2025-11-07 15:36:52.917171,61,2025-11-07 15:36:55.309481692
2025-11-07 15:36:52.917171,-4096,2025-11-07 15:36:55.317174000
2025-11-07 15:36:52.917171,-1,2025-11-07 15:36:55.324866308
2025-11-07 15:36:52.917171,-68,2025-11-07 15:36:55.332558615
2025-11-07 15:36:52.917171,-11265,2025-11-07 15:36:55.340250923
2025-11-07 15:36:52.917171,-1,2025-11-07 15:36:55.347943231
2025-11-07 15:36:52.917171,-49,2025-11-07 15:36:55.355635538
2025-11-07 15:36:52.917171,-16129,2025-11-07 15:36:55.363327846
2025-11-07 15:36:52.917171,-1,2025-11-07 15:36:55.371020154
2025-11-07 15:36:52.917171,-52,2025-11-07 15:36:55.378712462
2025-11-07 15:36:52.917171,-11777,2025-11-07 15:36:55.386404769
2025-11-07 15:36:52.917171,-1,2025-11-07 15:36:55.394097077
2025-11-07 15:36:52.917171,-49,2025-11-07 15:36:55.401789385
2025-11-07 15:36:52.917171,-9217,2025-11-07 15:36:55.409481692
2025-11-07 15:36:52.917171,-1,2025-11-07 15:36:55.417174000
2025-11-07 15:36:52.917171,-30,2025-11-07 15:36:55.424866308
2025-11-07 15:36:52.917171,-6913,2025-11-07 15:36:55.432558615
2025-11-07 15:36:52.917171,-1,2025-11-07 15:36:55.440250923
2025-11-07 15:36:52.917171,-21,2025-11-07 15:36:55.447943231
2025-11-07 15:36:52.917171,-3841,2025-11-07 15:36:55.455635538
2025-11-07 15:36:52.917171,-1,2025-11-07 15:36:55.463327846
2025-11-07 15:36:52.917171,-11,2025-11-07 15:36:55.471020154
2025-11-07 15:36:52.917171,-1537,2025-11-07 15:36:55.478712462
2025-11-07 15:36:52.917171,-1,2025-11-07 15:36:55.486404769
2025-11-07 15:36:52.917171,2,2025-11-07 15:36:55.494097077
2025-11-07 15:36:52.917171,2304,2025-11-07 15:36:55.501789385
2025-11-07 15:36:52.917171,0,2025-11-07 15:36:55.509481692
2025-11-07 15:36:52.917171,18,2025-11-07 15:36:55.517174000
2025-11-07 15:36:52.917171,6656,2025-11-07 15:36:55.524866308
2025-11-07 15:36:52.917171,0,2025-11-07 15:36:55.532558615
2025-11-07 15:36:52.917171,40,2025-11-07 15:36:55.540250923
2025-11-07 15:36:52.917171,13824,2025-11-07 15:36:55.547943231
2025-11-07 15:36:52.917171,0,2025-11-07 15:36:55.555635538
2025-11-07 15:36:52.917171,49,2025-11-07 15:36:55.563327846
2025-11-07 15:36:52.917171,12032,2025-11-07 15:36:55.571020154
2025-11-07 15:36:52.917171,0,2025-11-07 15:36:55.578712462
2025-11-07 15:36:52.917171,49,2025-11-07 15:36:55.586404769
2025-11-07 15:36:52.917171,12032,2025-11-07 15:36:55.594097077
2025-11-07 15:36:52.917171,0,2025-11-07 15:36:55.601789385
2025-11-07 15:36:52.917171,30,2025-11-07 15:36:55.609481692
2025-11-07 15:36:52.917171,1792,2025-11-07 15:36:55.617174000
2025-11-07 15:36:52.917171,0,2025-11-07 15:36:55.624866308
2025-11-07 15:36:52.917171,-14,2025-11-07 15:36:55.632558615
2025-11-07 15:36:52.917171,-6913,2025-11-07 15:36:55.640250923
2025-11-07 15:36:52.917171,-1,2025-11-07 15:36:55.647943231
2025-11-07 15:36:52.917171,-37,2025-11-07 15:36:55.655635538
2025-11-07 15:36:52.917171,-9985,2025-11-07 15:36:55.663327846
2025-11-07 15:36:52.917171,-1,2025-11-07 15:36:55.671020154
2025-11-07 15:36:52.917171,-40,2025-11-07 15:36:55.678712462
2025-11-07 15:36:52.917171,-10497,2025-11-07 15:36:55.686404769
2025-11-07 15:36:52.917171,-1,2025-11-07 15:36:55.694097077
2025-11-07 15:36:52.917171,-42,2025-11-07 15:36:55.701789385
2025-11-07 15:36:52.917171,-8705,2025-11-07 15:36:55.709481692
2025-11-07 15:36:52.917171,-1,2025-11-07 15:36:55.717174000
2025-11-07 15:36:52.917171,-37,2025-11-07 15:36:55.724866308
2025-11-07 15:36:52.917171,-9217,2025-11-07 15:36:55.732558615
2025-11-07 15:36:52.917171,-1,2025-11-07 15:36:55.740250923
2025-11-07 15:36:52.917171,-30,2025-11-07 15:36:55.747943231
2025-11-07 15:36:52.917171,-6401,2025-11-07 15:36:55.755635538
2025-11-07 15:36:52.917171,-1,2025-11-07 15:36:55.763327846
2025-11-07 15:36:52.917171,-28,2025-11-07 15:36:55.771020154
2025-11-07 15:36:52.917171,-6913,2025-11-07 15:36:55.778712462
2025-11-07 15:36:52.917171,-1,2025-11-07 15:36:55.786404769
2025-11-07 15:36:52.917171,-28,2025-11-07 15:36:55.794097077
2025-11-07 15:36:52.917171,-5633,2025-11-07 15:36:55.801789385
2025-11-07 15:36:52.917171,-1,2025-11-07 15:36:55.809481692
2025-11-07 15:36:52.917171,-18,2025-11-07 15:36:55.817174000
2025-11-07 15:36:52.917171,-5121,2025-11-07 15:36:55.824866308
2025-11-07 15:36:52.917171,-1,2025-11-07 15:36:55.832558615
2025-11-07 15:36:52.917171,-21,2025-11-07 15:36:55.840250923
2025-11-07 15:36:52.917171,-5121,2025-11-07 15:36:55.847943231
2025-11-07 15:36:52.917171,-1,2025-11-07 15:36:55.855635538
2025-11-07 15:36:52.917171,-16,2025-11-07 15:36:55.863327846
2025-11-07 15:36:52.917171,-3841,2025-11-07 15:36:55.871020154
2025-11-07 15:36:52.917171,-1,2025-11-07 15:36:55.878712462
2025-11-07 15:36:52.917171,-16,2025-11-07 15:36:55.886404769
2025-11-07 15:36:52.917171,-2049,2025-11-07 15:36:55.894097077
2025-11-07 15:36:52.917171,-1,2025-11-07 15:36:55.901789385
2025-11-07 15:36:52.917171,-9,2025-11-07 15:36:55.909481692
2025-11-07 15:36:52.917171,-3329,2025-11-07 15:36:55.917174000
2025-11-07 15:36:52.917171,-1,2025-11-07 15:36:55.924866308
2025-11-07 15:36:52.917171,-14,2025-11-07 15:36:55.932558615
2025-11-07 15:36:52.917171,-3329,2025-11-07 15:36:55.940250923
2025-11-07 15:36:52.917171,-1,2025-11-07 15:36:55.947943230
2025-11-07 15:36:52.917171,-9,2025-11-07 15:36:55.955635538
2025-11-07 15:36:53.457298,0,2025-11-07 15:36:55.963327846
2025-11-07 15:36:53.457298,-512,2025-11-07 15:36:55.971020154
2025-11-07 15:36:53.457298,-1,2025-11-07 15:36:55.978712462
2025-11-07 15:36:53.457298,-7,2025-11-07 15:36:55.986404769
2025-11-07 15:36:53.457298,-1537,2025-11-07 15:36:55.994097077
2025-11-07 15:36:53.457298,-1,2025-11-07 15:36:56.001789385
2025-11-07 15:36:53.457298,-2,2025-11-07 15:36:56.009481692
2025-11-07 15:36:53.457298,1279,2025-11-07 15:36:56.017174000
2025-11-07 15:36:53.457298,0,2025-11-07 15:36:56.024866308
2025-11-07 15:36:53.457298,9,2025-11-07 15:36:56.032558615
2025-11-07 15:36:53.457298,1792,2025-11-07 15:36:56.040250923
2025-11-07 15:36:53.457298,0,2025-11-07 15:36:56.047943231
2025-11-07 15:36:53.457298,0,2025-11-07 15:36:56.055635538
2025-11-07 15:36:53.457298,1792,2025-11-07 15:36:56.063327846
2025-11-07 15:36:53.457298,0,2025-11-07 15:36:56.071020154
2025-11-07 15:36:53.457298,26,2025-11-07 15:36:56.078712462
2025-11-07 15:36:53.457298,10752,2025-11-07 15:36:56.086404769
2025-11-07 15:36:53.457298,0,2025-11-07 15:36:56.094097077
2025-11-07 15:36:53.457298,59,2025-11-07 15:36:56.101789385
2025-11-07 15:36:53.457298,17408,2025-11-07 15:36:56.109481692
2025-11-07 15:36:53.457298,0,2025-11-07 15:36:56.117174000
2025-11-07 15:36:53.457298,59,2025-11-07 15:36:56.124866308
2025-11-07 15:36:53.457298,10752,2025-11-07 15:36:56.132558615
2025-11-07 15:36:53.457298,0,2025-11-07 15:36:56.140250923
2025-11-07 15:36:53.457298,30,2025-11-07 15:36:56.147943231
2025-11-07 15:36:53.457298,4608,2025-11-07 15:36:56.155635538
2025-11-07 15:36:53.457298,0,2025-11-07 15:36:56.163327846
2025-11-07 15:36:53.457298,2,2025-11-07 15:36:56.171020154
2025-11-07 15:36:53.457298,0,2025-11-07 15:36:56.178712462
2025-11-07 15:36:53.457298,0,2025-11-07 15:36:56.186404769
2025-11-07 15:36:53.457298,9,2025-11-07 15:36:56.194097077
2025-11-07 15:36:53.457298,2816,2025-11-07 15:36:56.201789385
2025-11-07 15:36:53.457298,0,2025-11-07 15:36:56.209481692
2025-11-07 15:36:53.457298,11,2025-11-07 15:36:56.217174000
2025-11-07 15:36:53.457298,1024,2025-11-07 15:36:56.224866308
2025-11-07 15:36:53.457298,0,2025-11-07 15:36:56.232558615
2025-11-07 15:36:53.457298,-45,2025-11-07 15:36:56.240250923
2025-11-07 15:36:53.457298,24575,2025-11-07 15:36:56.247943231
2025-11-07 15:36:53.457298,-1,2025-11-07 15:36:56.255635538
2025-11-07 15:36:53.457298,-220,2025-11-07 15:36:56.263327846
2025-11-07 15:36:53.457298,-11265,2025-11-07 15:36:56.271020154
2025-11-07 15:36:53.457298,-1,2025-11-07 15:36:56.278712462
2025-11-07 15:36:53.457298,403,2025-11-07 15:36:56.286404769
2025-11-07 15:36:53.457298,21248,2025-11-07 15:36:56.294097077
2025-11-07 15:36:53.457298,3,2025-11-07 15:36:56.301789385
2025-11-07 15:36:53.457298,787,2025-11-07 15:36:56.309481692
2025-11-07 15:36:53.457298,12800,2025-11-07 15:36:56.317174000
2025-11-07 15:36:53.457298,1,2025-11-07 15:36:56.324866308
2025-11-07 15:36:53.457298,56,2025-11-07 15:36:56.332558615
2025-11-07 15:36:53.457298,5888,2025-11-07 15:36:56.340250923
2025-11-07 15:36:53.457298,0,2025-11-07 15:36:56.347943231
2025-11-07 15:36:53.457298,-59,2025-11-07 15:36:56.355635538
2025-11-07 15:36:53.457298,-25089,2025-11-07 15:36:56.363327846
2025-11-07 15:36:53.457298,-1,2025-11-07 15:36:56.371020154
2025-11-07 15:36:53.457298,-83,2025-11-07 15:36:56.378712462
2025-11-07 15:36:53.457298,-23297,2025-11-07 15:36:56.386404769
2025-11-07 15:36:53.457298,-1,2025-11-07 15:36:56.394097077
2025-11-07 15:36:53.457298,-94,2025-11-07 15:36:56.401789385
2025-11-07 15:36:53.457298,-20225,2025-11-07 15:36:56.409481692
2025-11-07 15:36:53.457298,-1,2025-11-07 15:36:56.417174000
2025-11-07 15:36:53.457298,-73,2025-11-07 15:36:56.424866308
2025-11-07 15:36:53.457298,-17921,2025-11-07 15:36:56.432558615
2025-11-07 15:36:53.457298,-1,2025-11-07 15:36:56.440250923
2025-11-07 15:36:53.457298,-64,2025-11-07 15:36:56.447943231
2025-11-07 15:36:53.457298,-14849,2025-11-07 15:36:56.455635538
2025-11-07 15:36:53.457298,-1,2025-11-07 15:36:56.463327846
2025-11-07 15:36:53.457298,-56,2025-11-07 15:36:56.471020154
2025-11-07 15:36:53.457298,-12289,2025-11-07 15:36:56.478712462
2025-11-07 15:36:53.457298,-1,2025-11-07 15:36:56.486404769
2025-11-07 15:36:53.457298,-40,2025-11-07 15:36:56.494097077
2025-11-07 15:36:53.457298,-9217,2025-11-07 15:36:56.501789385
2025-11-07 15:36:53.457298,-1,2025-11-07 15:36:56.509481692
2025-11-07 15:36:53.457298,-28,2025-11-07 15:36:56.517174000
2025-11-07 15:36:53.457298,-4353,2025-11-07 15:36:56.524866308
2025-11-07 15:36:53.457298,-1,2025-11-07 15:36:56.532558615
2025-11-07 15:36:53.457298,-11,2025-11-07 15:36:56.540250923
2025-11-07 15:36:53.457298,1279,2025-11-07 15:36:56.547943231
2025-11-07 15:36:53.457298,0,2025-11-07 15:36:56.555635538
2025-11-07 15:36:53.457298,23,2025-11-07 15:36:56.563327846
2025-11-07 15:36:53.457298,8960,2025-11-07 15:36:56.571020154
2025-11-07 15:36:53.457298,0,2025-11-07 15:36:56.578712462
2025-11-07 15:36:53.457298,37,2025-11-07 15:36:56.586404769
2025-11-07 15:36:53.457298,9472,2025-11-07 15:36:56.594097077
2025-11-07 15:36:53.457298,0,2025-11-07 15:36:56.601789385
2025-11-07 15:36:53.457298,40,2025-11-07 15:36:56.609481692
2025-11-07 15:36:53.457298,10240,2025-11-07 15:36:56.617174000
2025-11-07 15:36:53.457298,0,2025-11-07 15:36:56.624866308
2025-11-07 15:36:53.457298,28,2025-11-07 15:36:56.632558615
2025-11-07 15:36:53.457298,1792,2025-11-07 15:36:56.640250923
2025-11-07 15:36:53.457298,0,2025-11-07 15:36:56.647943231
2025-11-07 15:36:53.457298,-18,2025-11-07 15:36:56.655635538
2025-11-07 15:36:53.457298,-9985,2025-11-07 15:36:56.663327846
2025-11-07 15:36:53.457298,-1,2025-11-07 15:36:56.671020154
2025-11-07 15:36:53.457298,-54,2025-11-07 15:36:56.678712462
2025-11-07 15:36:53.457298,-16129,2025-11-07 15:36:56.686404769
2025-11-07 15:36:53.457298,-1,2025-11-07 15:36:56.694097077
2025-11-07 15:36:53.457298,-66,2025-11-07 15:36:56.701789385
2025-11-07 15:36:53.457298,-16129,2025-11-07 15:36:56.709481692
2025-11-07 15:36:53.457298,-1,2025-11-07 15:36:56.717174000
2025-11-07 15:36:53.457298,-61,2025-11-07 15:36:56.724866308
2025-11-07 15:36:53.457298,-14849,2025-11-07 15:36:56.732558615
2025-11-07 15:36:53.457298,-1,2025-11-07 15:36:56.740250923
2025-11-07 15:36:53.457298,-56,2025-11-07 15:36:56.747943231
2025-11-07 15:36:53.457298,-13057,2025-11-07 15:36:56.755635538
2025-11-07 15:36:53.457298,-1,2025-11-07 15:36:56.763327846
2025-11-07 15:36:53.457298,-42,2025-11-07 15:36:56.771020154
2025-11-07 15:36:53.457298,-8193,2025-11-07 15:36:56.778712462
2025-11-07 15:36:53.457298,-1,2025-11-07 15:36:56.786404769
2025-11-07 15:36:53.457298,-30,2025-11-07 15:36:56.794097077
2025-11-07 15:36:53.997198,-33,2025-11-07 15:36:56.801789385
2025-11-07 15:36:53.997198,-6913,2025-11-07 15:36:56.809481692
2025-11-07 15:36:53.997198,-1,2025-11-07 15:36:56.817174000
2025-11-07 15:36:53.997198,-26,2025-11-07 15:36:56.824866308
2025-11-07 15:36:53.997198,-6401,2025-11-07 15:36:56.832558615
2025-11-07 15:36:53.997198,-1,2025-11-07 15:36:56.840250923
2025-11-07 15:36:53.997198,-18,2025-11-07 15:36:56.847943231
2025-11-07 15:36:53.997198,-3841,2025-11-07 15:36:56.855635538
2025-11-07 15:36:53.997198,-1,2025-11-07 15:36:56.863327846
2025-11-07 15:36:53.997198,-14,2025-11-07 15:36:56.871020154
2025-11-07 15:36:53.997198,255,2025-11-07 15:36:56.878712462
2025-11-07 15:36:53.997198,0,2025-11-07 15:36:56.886404769
2025-11-07 15:36:53.997198,7,2025-11-07 15:36:56.894097077
2025-11-07 15:36:53.997198,512,2025-11-07 15:36:56.901789385
2025-11-07 15:36:53.997198,0,2025-11-07 15:36:56.909481692
2025-11-07 15:36:53.997198,7,2025-11-07 15:36:56.917174000
2025-11-07 15:36:53.997198,3584,2025-11-07 15:36:56.924866308
2025-11-07 15:36:53.997198,0,2025-11-07 15:36:56.932558615
2025-11-07 15:36:53.997198,11,2025-11-07 15:36:56.940250923
2025-11-07 15:36:53.997198,1792,2025-11-07 15:36:56.947943230
2025-11-07 15:36:53.997198,0,2025-11-07 15:36:56.955635538
2025-11-07 15:36:53.997198,7,2025-11-07 15:36:56.963327846
2025-11-07 15:36:53.997198,1024,2025-11-07 15:36:56.971020154
2025-11-07 15:36:53.997198,0,2025-11-07 15:36:56.978712462
2025-11-07 15:36:53.997198,2,2025-11-07 15:36:56.986404769
2025-11-07 15:36:53.997198,512,2025-11-07 15:36:56.994097077
2025-11-07 15:36:53.997198,0,2025-11-07 15:36:57.001789385
2025-11-07 15:36:53.997198,0,2025-11-07 15:36:57.009481692
2025-11-07 15:36:53.997198,1024,2025-11-07 15:36:57.017174000
2025-11-07 15:36:53.997198,0,2025-11-07 15:36:57.024866308
2025-11-07 15:36:53.997198,16,2025-11-07 15:36:57.032558615
2025-11-07 15:36:53.997198,10240,2025-11-07 15:36:57.040250923
2025-11-07 15:36:53.997198,0,2025-11-07 15:36:57.047943231
2025-11-07 15:36:53.997198,61,2025-11-07 15:36:57.055635538
2025-11-07 15:36:53.997198,14336,2025-11-07 15:36:57.063327846
2025-11-07 15:36:53.997198,0,2025-11-07 15:36:57.071020154
2025-11-07 15:36:53.997198,37,2025-11-07 15:36:57.078712462
2025-11-07 15:36:53.997198,7168,2025-11-07 15:36:57.086404769
2025-11-07 15:36:53.997198,0,2025-11-07 15:36:57.094097077
2025-11-07 15:36:53.997198,18,2025-11-07 15:36:57.101789385
2025-11-07 15:36:53.997198,1792,2025-11-07 15:36:57.109481692
2025-11-07 15:36:53.997198,0,2025-11-07 15:36:57.117174000
2025-11-07 15:36:53.997198,2,2025-11-07 15:36:57.124866308
2025-11-07 15:36:53.997198,1792,2025-11-07 15:36:57.132558615
2025-11-07 15:36:53.997198,0,2025-11-07 15:36:57.140250923
2025-11-07 15:36:53.997198,9,2025-11-07 15:36:57.147943231
2025-11-07 15:36:53.997198,2304,2025-11-07 15:36:57.155635538
2025-11-07 15:36:53.997198,0,2025-11-07 15:36:57.163327846
2025-11-07 15:36:53.997198,7,2025-11-07 15:36:57.171020154
2025-11-07 15:36:53.997198,-6656,2025-11-07 15:36:57.178712462
2025-11-07 15:36:53.997198,-1,2025-11-07 15:36:57.186404769
2025-11-07 15:36:53.997198,-132,2025-11-07 15:36:57.194097077
2025-11-07 15:36:53.997198,11775,2025-11-07 15:36:57.201789385
2025-11-07 15:36:53.997198,-1,2025-11-07 15:36:57.209481692
2025-11-07 15:36:53.997198,-66,2025-11-07 15:36:57.217174000
2025-11-07 15:36:53.997198,27391,2025-11-07 15:36:57.224866308
2025-11-07 15:36:53.997198,1,2025-11-07 15:36:57.232558615
2025-11-07 15:36:53.997198,858,2025-11-07 15:36:57.240250923
2025-11-07 15:36:53.997198,23808,2025-11-07 15:36:57.247943231
2025-11-07 15:36:53.997198,3,2025-11-07 15:36:57.255635538
2025-11-07 15:36:53.997198,370,2025-11-07 15:36:57.263327846
2025-11-07 15:36:53.997198,21248,2025-11-07 15:36:57.271020154
2025-11-07 15:36:53.997198,0,2025-11-07 15:36:57.278712462
2025-11-07 15:36:53.997198,59,2025-11-07 15:36:57.286404769
2025-11-07 15:36:53.997198,-5888,2025-11-07 15:36:57.294097077
2025-11-07 15:36:53.997198,-1,2025-11-07 15:36:57.301789385
2025-11-07 15:36:53.997198,-75,2025-11-07 15:36:57.309481692
2025-11-07 15:36:53.997198,-13057,2025-11-07 15:36:57.317174000
2025-11-07 15:36:53.997198,-1,2025-11-07 15:36:57.324866308
2025-11-07 15:36:53.997198,-54,2025-11-07 15:36:57.332558615
2025-11-07 15:36:53.997198,-16641,2025-11-07 15:36:57.340250923
2025-11-07 15:36:53.997198,-1,2025-11-07 15:36:57.347943231
2025-11-07 15:36:53.997198,-52,2025-11-07 15:36:57.355635538
2025-11-07 15:36:53.997198,-9985,2025-11-07 15:36:57.363327846
2025-11-07 15:36:53.997198,-1,2025-11-07 15:36:57.371020154
2025-11-07 15:36:53.997198,-42,2025-11-07 15:36:57.378712462
2025-11-07 15:36:53.997198,-9217,2025-11-07 15:36:57.386404769
2025-11-07 15:36:53.997198,-1,2025-11-07 15:36:57.394097077
2025-11-07 15:36:53.997198,-30,2025-11-07 15:36:57.401789385
2025-11-07 15:36:53.997198,-6401,2025-11-07 15:36:57.409481692
2025-11-07 15:36:53.997198,-1,2025-11-07 15:36:57.417174000
2025-11-07 15:36:53.997198,-18,2025-11-07 15:36:57.424866308
2025-11-07 15:36:53.997198,-3841,2025-11-07 15:36:57.432558615
2025-11-07 15:36:53.997198,-1,2025-11-07 15:36:57.440250923
2025-11-07 15:36:53.997198,-7,2025-11-07 15:36:57.447943231
2025-11-07 15:36:53.997198,767,2025-11-07 15:36:57.455635538
2025-11-07 15:36:53.997198,0,2025-11-07 15:36:57.463327846
2025-11-07 15:36:53.997198,9,2025-11-07 15:36:57.471020154
2025-11-07 15:36:53.997198,4096,2025-11-07 15:36:57.478712462
2025-11-07 15:36:53.997198,0,2025-11-07 15:36:57.486404769
2025-11-07 15:36:53.997198,30,2025-11-07 15:36:57.494097077
2025-11-07 15:36:53.997198,12032,2025-11-07 15:36:57.501789385
2025-11-07 15:36:53.997198,0,2025-11-07 15:36:57.509481692
2025-11-07 15:36:53.997198,59,2025-11-07 15:36:57.517174000
2025-11-07 15:36:53.997198,17408,2025-11-07 15:36:57.524866308
2025-11-07 15:36:53.997198,0,2025-11-07 15:36:57.532558615
2025-11-07 15:36:53.997198,75,2025-11-07 15:36:57.540250923
2025-11-07 15:36:53.997198,18688,2025-11-07 15:36:57.547943231
2025-11-07 15:36:53.997198,0,2025-11-07 15:36:57.555635538
2025-11-07 15:36:53.997198,68,2025-11-07 15:36:57.563327846
2025-11-07 15:36:53.997198,15104,2025-11-07 15:36:57.571020154
2025-11-07 15:36:53.997198,0,2025-11-07 15:36:57.578712462
2025-11-07 15:36:53.997198,33,2025-11-07 15:36:57.586404769
2025-11-07 15:36:53.997198,1024,2025-11-07 15:36:57.594097077
2025-11-07 15:36:53.997198,0,2025-11-07 15:36:57.601789385
2025-11-07 15:36:53.997198,-11,2025-11-07 15:36:57.609481692
2025-11-07 15:36:53.997198,-6913,2025-11-07 15:36:57.617174000
2025-11-07 15:36:53.997198,-1,2025-11-07 15:36:57.624866308
2025-11-07 15:36:53.997198,-37,2025-11-07 15:36:57.632558615
2025-11-07 15:36:54.627166,-42,2025-11-07 15:36:57.640250923
2025-11-07 15:36:54.627166,-9217,2025-11-07 15:36:57.647943231
2025-11-07 15:36:54.627166,-1,2025-11-07 15:36:57.655635538
2025-11-07 15:36:54.627166,-37,2025-11-07 15:36:57.663327846
2025-11-07 15:36:54.627166,-8193,2025-11-07 15:36:57.671020154
2025-11-07 15:36:54.627166,-1,2025-11-07 15:36:57.678712462
2025-11-07 15:36:54.627166,-18,2025-11-07 15:36:57.686404769
2025-11-07 15:36:54.627166,-769,2025-11-07 15:36:57.694097077
2025-11-07 15:36:54.627166,-1,2025-11-07 15:36:57.701789385
2025-11-07 15:36:54.627166,-7,2025-11-07 15:36:57.709481692
2025-11-07 15:36:54.627166,-1537,2025-11-07 15:36:57.717174000
2025-11-07 15:36:54.627166,-1,2025-11-07 15:36:57.724866308
2025-11-07 15:36:54.627166,-4,2025-11-07 15:36:57.732558615
2025-11-07 15:36:54.627166,-257,2025-11-07 15:36:57.740250923
2025-11-07 15:36:54.627166,-1,2025-11-07 15:36:57.747943231
2025-11-07 15:36:54.627166,-2,2025-11-07 15:36:57.755635538
2025-11-07 15:36:54.627166,767,2025-11-07 15:36:57.763327846
2025-11-07 15:36:54.627166,0,2025-11-07 15:36:57.771020154
2025-11-07 15:36:54.627166,4,2025-11-07 15:36:57.778712462
2025-11-07 15:36:54.627166,0,2025-11-07 15:36:57.786404769
2025-11-07 15:36:54.627166,0,2025-11-07 15:36:57.794097077
2025-11-07 15:36:54.627166,2,2025-11-07 15:36:57.801789385
2025-11-07 15:36:54.627166,1792,2025-11-07 15:36:57.809481692
2025-11-07 15:36:54.627166,0,2025-11-07 15:36:57.817174000
2025-11-07 15:36:54.627166,7,2025-11-07 15:36:57.824866308
2025-11-07 15:36:54.627166,512,2025-11-07 15:36:57.832558615
2025-11-07 15:36:54.627166,0,2025-11-07 15:36:57.840250923
2025-11-07 15:36:54.627166,0,2025-11-07 15:36:57.847943231
2025-11-07 15:36:54.627166,0,2025-11-07 15:36:57.855635538
2025-11-07 15:36:54.627166,0,2025-11-07 15:36:57.863327846
2025-11-07 15:36:54.627166,2,2025-11-07 15:36:57.871020154
2025-11-07 15:36:54.627166,1792,2025-11-07 15:36:57.878712462
2025-11-07 15:36:54.627166,0,2025-11-07 15:36:57.886404769
2025-11-07 15:36:54.627166,7,2025-11-07 15:36:57.894097077
2025-11-07 15:36:54.627166,512,2025-11-07 15:36:57.901789385
2025-11-07 15:36:54.627166,0,2025-11-07 15:36:57.909481692
2025-11-07 15:36:54.627166,2,2025-11-07 15:36:57.917174000
2025-11-07 15:36:54.627166,512,2025-11-07 15:36:57.924866308
2025-11-07 15:36:54.627166,0,2025-11-07 15:36:57.932558615
2025-11-07 15:36:54.627166,2,2025-11-07 15:36:57.940250923
2025-11-07 15:36:54.627166,512,2025-11-07 15:36:57.947943230
2025-11-07 15:36:54.627166,0,2025-11-07 15:36:57.955635538
2025-11-07 15:36:54.627166,2,2025-11-07 15:36:57.963327846
2025-11-07 15:36:54.627166,-1792,2025-11-07 15:36:57.971020154
2025-11-07 15:36:54.627166,-1,2025-11-07 15:36:57.978712462
2025-11-07 15:36:54.627166,-11,2025-11-07 15:36:57.986404769
2025-11-07 15:36:54.627166,767,2025-11-07 15:36:57.994097077
2025-11-07 15:36:54.627166,0,2025-11-07 15:36:58.001789385
2025-11-07 15:36:54.627166,33,2025-11-07 15:36:58.009481692
2025-11-07 15:36:54.627166,14336,2025-11-07 15:36:58.017174000
2025-11-07 15:36:54.627166,0,2025-11-07 15:36:58.024866308
2025-11-07 15:36:54.627166,54,2025-11-07 15:36:58.032558615
2025-11-07 15:36:54.627166,8448,2025-11-07 15:36:58.040250923
2025-11-07 15:36:54.627166,0,2025-11-07 15:36:58.047943231
2025-11-07 15:36:54.627166,16,2025-11-07 15:36:58.055635538
2025-11-07 15:36:54.627166,512,2025-11-07 15:36:58.063327846
2025-11-07 15:36:54.627166,0,2025-11-07 15:36:58.071020154
2025-11-07 15:36:54.627166,-4,2025-11-07 15:36:58.078712462
2025-11-07 15:36:54.627166,-257,2025-11-07 15:36:58.086404769
2025-11-07 15:36:54.627166,-1,2025-11-07 15:36:58.094097077
2025-11-07 15:36:54.627166,4,2025-11-07 15:36:58.101789385
2025-11-07 15:36:54.627166,1024,2025-11-07 15:36:58.109481692
2025-11-07 15:36:54.627166,0,2025-11-07 15:36:58.117174000
2025-11-07 15:36:54.627166,-2,2025-11-07 15:36:58.124866308
2025-11-07 15:36:54.627166,-2561,2025-11-07 15:36:58.132558615
2025-11-07 15:36:54.627166,-1,2025-11-07 15:36:58.140250923
2025-11-07 15:36:54.627166,-83,2025-11-07 15:36:58.147943231
2025-11-07 15:36:54.627166,17407,2025-11-07 15:36:58.155635538
2025-11-07 15:36:54.627166,-1,2025-11-07 15:36:58.163327846
2025-11-07 15:36:54.627166,-161,2025-11-07 15:36:58.171020154
2025-11-07 15:36:54.627166,-28417,2025-11-07 15:36:58.178712462
2025-11-07 15:36:54.627166,0,2025-11-07 15:36:58.186404769
2025-11-07 15:36:54.627166,683,2025-11-07 15:36:58.194097077
2025-11-07 15:36:54.627166,-8448,2025-11-07 15:36:58.201789385
2025-11-07 15:36:54.627166,3,2025-11-07 15:36:58.209481692
2025-11-07 15:36:54.627166,649,2025-11-07 15:36:58.217174000
2025-11-07 15:36:54.627166,-20736,2025-11-07 15:36:58.224866308
2025-11-07 15:36:54.627166,0,2025-11-07 15:36:58.232558615
2025-11-07 15:36:54.627166,61,2025-11-07 15:36:58.240250923
2025-11-07 15:36:54.627166,5376,2025-11-07 15:36:58.247943231
2025-11-07 15:36:54.627166,0,2025-11-07 15:36:58.255635538
2025-11-07 15:36:54.627166,-68,2025-11-07 15:36:58.263327846
2025-11-07 15:36:54.627166,-16641,2025-11-07 15:36:58.271020154
2025-11-07 15:36:54.627166,-1,2025-11-07 15:36:58.278712462
2025-11-07 15:36:54.627166,-33,2025-11-07 15:36:58.286404769
2025-11-07 15:36:54.627166,-11777,2025-11-07 15:36:58.294097077
2025-11-07 15:36:54.627166,-1,2025-11-07 15:36:58.301789385
2025-11-07 15:36:54.627166,-54,2025-11-07 15:36:58.309481692
2025-11-07 15:36:54.627166,-9985,2025-11-07 15:36:58.317174000
2025-11-07 15:36:54.627166,-1,2025-11-07 15:36:58.324866308
2025-11-07 15:36:54.627166,-35,2025-11-07 15:36:58.332558615
2025-11-07 15:36:54.627166,-9217,2025-11-07 15:36:58.340250923
2025-11-07 15:36:54.627166,-1,2025-11-07 15:36:58.347943231
2025-11-07 15:36:54.627166,-30,2025-11-07 15:36:58.355635538
2025-11-07 15:36:54.627166,-5633,2025-11-07 15:36:58.363327846
2025-11-07 15:36:54.627166,-1,2025-11-07 15:36:58.371020154
2025-11-07 15:36:54.627166,-18,2025-11-07 15:36:58.378712462
2025-11-07 15:36:54.627166,-3841,2025-11-07 15:36:58.386404769
2025-11-07 15:36:54.627166,-1,2025-11-07 15:36:58.394097077
2025-11-07 15:36:54.627166,-9,2025-11-07 15:36:58.401789385
2025-11-07 15:36:54.627166,-257,2025-11-07 15:36:58.409481692
2025-11-07 15:36:54.627166,-1,2025-11-07 15:36:58.417174000
2025-11-07 15:36:54.627166,4,2025-11-07 15:36:58.424866308
2025-11-07 15:36:54.627166,4096,2025-11-07 15:36:58.432558615
2025-11-07 15:36:54.627166,0,2025-11-07 15:36:58.440250923
2025-11-07 15:36:54.627166,28,2025-11-07 15:36:58.447943231
2025-11-07 15:36:54.627166,8960,2025-11-07 15:36:58.455635538
2025-11-07 15:36:54.627166,0,2025-11-07 15:36:58.463327846
2025-11-07 15:36:54.627166,47,2025-11-07 15:36:58.471020154
2025-11-07 15:36:55.167161,56,2025-11-07 15:36:58.478712462
2025-11-07 15:36:55.167161,15616,2025-11-07 15:36:58.486404769
2025-11-07 15:36:55.167161,0,2025-11-07 15:36:58.494097077
2025-11-07 15:36:55.167161,66,2025-11-07 15:36:58.501789385
2025-11-07 15:36:55.167161,16896,2025-11-07 15:36:58.509481692
2025-11-07 15:36:55.167161,0,2025-11-07 15:36:58.517174000
2025-11-07 15:36:55.167161,59,2025-11-07 15:36:58.524866308
2025-11-07 15:36:55.167161,10752,2025-11-07 15:36:58.532558615
2025-11-07 15:36:55.167161,0,2025-11-07 15:36:58.540250923
2025-11-07 15:36:55.167161,23,2025-11-07 15:36:58.547943231
2025-11-07 15:36:55.167161,1024,2025-11-07 15:36:58.555635538
2025-11-07 15:36:55.167161,0,2025-11-07 15:36:58.563327846
2025-11-07 15:36:55.167161,-14,2025-11-07 15:36:58.571020154
2025-11-07 15:36:55.167161,-6401,2025-11-07 15:36:58.578712462
2025-11-07 15:36:55.167161,-1,2025-11-07 15:36:58.586404769
2025-11-07 15:36:55.167161,-33,2025-11-07 15:36:58.594097077
2025-11-07 15:36:55.167161,-8193,2025-11-07 15:36:58.601789385
2025-11-07 15:36:55.167161,-1,2025-11-07 15:36:58.609481692
2025-11-07 15:36:55.167161,-28,2025-11-07 15:36:58.617174000
2025-11-07 15:36:55.167161,-3329,2025-11-07 15:36:58.624866308
2025-11-07 15:36:55.167161,-1,2025-11-07 15:36:58.632558615
2025-11-07 15:36:55.167161,2,2025-11-07 15:36:58.640250923
2025-11-07 15:36:55.167161,0,2025-11-07 15:36:58.647943231
2025-11-07 15:36:55.167161,0,2025-11-07 15:36:58.655635538
2025-11-07 15:36:55.167161,-4,2025-11-07 15:36:58.663327846
2025-11-07 15:36:55.167161,255,2025-11-07 15:36:58.671020154
2025-11-07 15:36:55.167161,0,2025-11-07 15:36:58.678712462
2025-11-07 15:36:55.167161,4,2025-11-07 15:36:58.686404769
2025-11-07 15:36:55.167161,1792,2025-11-07 15:36:58.694097077
2025-11-07 15:36:55.167161,0,2025-11-07 15:36:58.701789385
2025-11-07 15:36:55.167161,11,2025-11-07 15:36:58.709481692
2025-11-07 15:36:55.167161,2304,2025-11-07 15:36:58.717174000
2025-11-07 15:36:55.167161,0,2025-11-07 15:36:58.724866308
2025-11-07 15:36:55.167161,4,2025-11-07 15:36:58.732558615
2025-11-07 15:36:55.167161,1792,2025-11-07 15:36:58.740250923
2025-11-07 15:36:55.167161,0,2025-11-07 15:36:58.747943231
2025-11-07 15:36:55.167161,14,2025-11-07 15:36:58.755635538
2025-11-07 15:36:55.167161,4096,2025-11-07 15:36:58.763327846
2025-11-07 15:36:55.167161,0,2025-11-07 15:36:58.771020154
2025-11-07 15:36:55.167161,16,2025-11-07 15:36:58.778712462
2025-11-07 15:36:55.167161,3584,2025-11-07 15:36:58.786404769
2025-11-07 15:36:55.167161,0,2025-11-07 15:36:58.794097077
2025-11-07 15:36:55.167161,14,2025-11-07 15:36:58.801789385
2025-11-07 15:36:55.167161,3584,2025-11-07 15:36:58.809481692
2025-11-07 15:36:55.167161,0,2025-11-07 15:36:58.817174000
2025-11-07 15:36:55.167161,11,2025-11-07 15:36:58.824866308
2025-11-07 15:36:55.167161,2816,2025-11-07 15:36:58.832558615
2025-11-07 15:36:55.167161,0,2025-11-07 15:36:58.840250923
2025-11-07 15:36:55.167161,11,2025-11-07 15:36:58.847943231
2025-11-07 15:36:55.167161,1792,2025-11-07 15:36:58.855635538
2025-11-07 15:36:55.167161,0,2025-11-07 15:36:58.863327846
2025-11-07 15:36:55.167161,7,2025-11-07 15:36:58.871020154
2025-11-07 15:36:55.167161,2816,2025-11-07 15:36:58.878712462
2025-11-07 15:36:55.167161,0,2025-11-07 15:36:58.886404769
2025-11-07 15:36:55.167161,11,2025-11-07 15:36:58.894097077
2025-11-07 15:36:55.167161,2304,2025-11-07 15:36:58.901789385
2025-11-07 15:36:55.167161,0,2025-11-07 15:36:58.909481692
2025-11-07 15:36:55.167161,11,2025-11-07 15:36:58.917174000
2025-11-07 15:36:55.167161,2816,2025-11-07 15:36:58.924866308
2025-11-07 15:36:55.167161,0,2025-11-07 15:36:58.932558615
2025-11-07 15:36:55.167161,11,2025-11-07 15:36:58.940250923
2025-11-07 15:36:55.167161,2816,2025-11-07 15:36:58.947943230
2025-11-07 15:36:55.167161,0,2025-11-07 15:36:58.955635538
2025-11-07 15:36:55.167161,9,2025-11-07 15:36:58.963327846
2025-11-07 15:36:55.167161,2816,2025-11-07 15:36:58.971020154
2025-11-07 15:36:55.167161,0,2025-11-07 15:36:58.978712462
2025-11-07 15:36:55.167161,7,2025-11-07 15:36:58.986404769
2025-11-07 15:36:55.167161,0,2025-11-07 15:36:58.994097077
2025-11-07 15:36:55.167161,0,2025-11-07 15:36:59.001789385
2025-11-07 15:36:55.167161,14,2025-11-07 15:36:59.009481692
2025-11-07 15:36:55.167161,10752,2025-11-07 15:36:59.017174000
2025-11-07 15:36:55.167161,0,2025-11-07 15:36:59.024866308
2025-11-07 15:36:55.167161,66,2025-11-07 15:36:59.032558615
2025-11-07 15:36:55.167161,16896,2025-11-07 15:36:59.040250923
2025-11-07 15:36:55.167161,0,2025-11-07 15:36:59.047943231
2025-11-07 15:36:55.167161,47,2025-11-07 15:36:59.055635538
2025-11-07 15:36:55.167161,6656,2025-11-07 15:36:59.063327846
2025-11-07 15:36:55.167161,0,2025-11-07 15:36:59.071020154
2025-11-07 15:36:55.167161,11,2025-11-07 15:36:59.078712462
2025-11-07 15:36:55.167161,512,2025-11-07 15:36:59.086404769
2025-11-07 15:36:55.167161,0,2025-11-07 15:36:59.094097077
2025-11-07 15:36:55.167161,4,2025-11-07 15:36:59.101789385
2025-11-07 15:36:55.167161,1792,2025-11-07 15:36:59.109481692
2025-11-07 15:36:55.167161,0,2025-11-07 15:36:59.117174000
2025-11-07 15:36:55.167161,9,2025-11-07 15:36:59.124866308
2025-11-07 15:36:55.167161,2304,2025-11-07 15:36:59.132558615
2025-11-07 15:36:55.167161,0,2025-11-07 15:36:59.140250923
2025-11-07 15:36:55.167161,2,2025-11-07 15:36:59.147943231
2025-11-07 15:36:55.167161,-14336,2025-11-07 15:36:59.155635538
2025-11-07 15:36:55.167161,-1,2025-11-07 15:36:59.163327846
2025-11-07 15:36:55.167161,-170,2025-11-07 15:36:59.171020154
2025-11-07 15:36:55.167161,19711,2025-11-07 15:36:59.178712462
2025-11-07 15:36:55.167161,-1,2025-11-07 15:36:59.186404769
2025-11-07 15:36:55.167161,68,2025-11-07 15:36:59.194097077
2025-11-07 15:36:55.167161,15104,2025-11-07 15:36:59.201789385
2025-11-07 15:36:55.167161,2,2025-11-07 15:36:59.209481692
2025-11-07 15:36:55.167161,958,2025-11-07 15:36:59.217174000
2025-11-07 15:36:55.167161,-8960,2025-11-07 15:36:59.224866308
2025-11-07 15:36:55.167161,2,2025-11-07 15:36:59.232558615
2025-11-07 15:36:55.167161,237,2025-11-07 15:36:59.240250923
2025-11-07 15:36:55.167161,16384,2025-11-07 15:36:59.247943231
2025-11-07 15:36:55.167161,0,2025-11-07 15:36:59.255635538
2025-11-07 15:36:55.167161,30,2025-11-07 15:36:59.263327846
2025-11-07 15:36:55.167161,-13312,2025-11-07 15:36:59.271020154
2025-11-07 15:36:55.167161,-1,2025-11-07 15:36:59.278712462
2025-11-07 15:36:55.167161,-66,2025-11-07 15:36:59.286404769
2025-11-07 15:36:55.167161,-10497,2025-11-07 15:36:59.294097077
2025-11-07 15:36:55.167161,-1,2025-11-07 15:36:59.301789385
2025-11-07 15:36:55.167161,-56,2025-11-07 15:36:59.309481692
2025-11-07 15:36:55.708283,-59,2025-11-07 15:36:59.317174000
2025-11-07 15:36:55.708283,-9985,2025-11-07 15:36:59.324866308
2025-11-07 15:36:55.708283,-1,2025-11-07 15:36:59.332558615
2025-11-07 15:36:55.708283,-35,2025-11-07 15:36:59.340250923
2025-11-07 15:36:55.708283,-9985,2025-11-07 15:36:59.347943231
2025-11-07 15:36:55.708283,-1,2025-11-07 15:36:59.355635538
2025-11-07 15:36:55.708283,-30,2025-11-07 15:36:59.363327846
2025-11-07 15:36:55.708283,-5633,2025-11-07 15:36:59.371020154
2025-11-07 15:36:55.708283,-1,2025-11-07 15:36:59.378712462
2025-11-07 15:36:55.708283,-23,2025-11-07 15:36:59.386404769
2025-11-07 15:36:55.708283,-4353,2025-11-07 15:36:59.394097077
2025-11-07 15:36:55.708283,-1,2025-11-07 15:36:59.401789385
2025-11-07 15:36:55.708283,-14,2025-11-07 15:36:59.409481692
2025-11-07 15:36:55.708283,-1537,2025-11-07 15:36:59.417174000
2025-11-07 15:36:55.708283,-1,2025-11-07 15:36:59.424866308
2025-11-07 15:36:55.708283,9,2025-11-07 15:36:59.432558615
2025-11-07 15:36:55.708283,7680,2025-11-07 15:36:59.440250923
2025-11-07 15:36:55.708283,0,2025-11-07 15:36:59.447943231
2025-11-07 15:36:55.708283,40,2025-11-07 15:36:59.455635538
2025-11-07 15:36:55.708283,10752,2025-11-07 15:36:59.463327846
2025-11-07 15:36:55.708283,0,2025-11-07 15:36:59.471020154
2025-11-07 15:36:55.708283,56,2025-11-07 15:36:59.478712462
2025-11-07 15:36:55.708283,17408,2025-11-07 15:36:59.486404769
2025-11-07 15:36:55.708283,0,2025-11-07 15:36:59.494097077
2025-11-07 15:36:55.708283,71,2025-11-07 15:36:59.501789385
2025-11-07 15:36:55.708283,19200,2025-11-07 15:36:59.509481692
2025-11-07 15:36:55.708283,0,2025-11-07 15:36:59.517174000
2025-11-07 15:36:55.708283,75,2025-11-07 15:36:59.524866308
2025-11-07 15:36:55.708283,17408,2025-11-07 15:36:59.532558615
2025-11-07 15:36:55.708283,0,2025-11-07 15:36:59.540250923
2025-11-07 15:36:55.708283,54,2025-11-07 15:36:59.547943231
2025-11-07 15:36:55.708283,9472,2025-11-07 15:36:59.555635538
2025-11-07 15:36:55.708283,0,2025-11-07 15:36:59.563327846
2025-11-07 15:36:55.708283,21,2025-11-07 15:36:59.571020154
2025-11-07 15:36:55.708283,1024,2025-11-07 15:36:59.578712462
2025-11-07 15:36:55.708283,0,2025-11-07 15:36:59.586404769
2025-11-07 15:36:55.708283,-11,2025-11-07 15:36:59.594097077
2025-11-07 15:36:55.708283,-4353,2025-11-07 15:36:59.601789385
2025-11-07 15:36:55.708283,-1,2025-11-07 15:36:59.609481692
2025-11-07 15:36:55.708283,-23,2025-11-07 15:36:59.617174000
2025-11-07 15:36:55.708283,-6401,2025-11-07 15:36:59.624866308
2025-11-07 15:36:55.708283,-1,2025-11-07 15:36:59.632558615
2025-11-07 15:36:55.708283,-23,2025-11-07 15:36:59.640250923
2025-11-07 15:36:55.708283,-4353,2025-11-07 15:36:59.647943231
2025-11-07 15:36:55.708283,-1,2025-11-07 15:36:59.655635538
2025-11-07 15:36:55.708283,-16,2025-11-07 15:36:59.663327846
2025-11-07 15:36:55.708283,-3841,2025-11-07 15:36:59.671020154
2025-11-07 15:36:55.708283,-1,2025-11-07 15:36:59.678712462
2025-11-07 15:36:55.708283,-14,2025-11-07 15:36:59.686404769
2025-11-07 15:36:55.708283,-2561,2025-11-07 15:36:59.694097077
2025-11-07 15:36:55.708283,-1,2025-11-07 15:36:59.701789385
2025-11-07 15:36:55.708283,-14,2025-11-07 15:36:59.709481692
2025-11-07 15:36:55.708283,-2561,2025-11-07 15:36:59.717174000
2025-11-07 15:36:55.708283,-1,2025-11-07 15:36:59.724866308
2025-11-07 15:36:55.708283,-7,2025-11-07 15:36:59.732558615
2025-11-07 15:36:55.708283,-769,2025-11-07 15:36:59.740250923
2025-11-07 15:36:55.708283,-1,2025-11-07 15:36:59.747943231
2025-11-07 15:36:55.708283,-7,2025-11-07 15:36:59.755635538
2025-11-07 15:36:55.708283,-1537,2025-11-07 15:36:59.763327846
2025-11-07 15:36:55.708283,-1,2025-11-07 15:36:59.771020154
2025-11-07 15:36:55.708283,-2,2025-11-07 15:36:59.778712462
2025-11-07 15:36:55.708283,767,2025-11-07 15:36:59.786404769
2025-11-07 15:36:55.708283,0,2025-11-07 15:36:59.794097077
2025-11-07 15:36:55.708283,4,2025-11-07 15:36:59.801789385
2025-11-07 15:36:55.708283,1024,2025-11-07 15:36:59.809481692
2025-11-07 15:36:55.708283,0,2025-11-07 15:36:59.817174000
2025-11-07 15:36:55.708283,2,2025-11-07 15:36:59.824866308
2025-11-07 15:36:55.708283,512,2025-11-07 15:36:59.832558615
2025-11-07 15:36:55.708283,0,2025-11-07 15:36:59.840250923
2025-11-07 15:36:55.708283,7,2025-11-07 15:36:59.847943231
2025-11-07 15:36:55.708283,1792,2025-11-07 15:36:59.855635538
2025-11-07 15:36:55.708283,0,2025-11-07 15:36:59.863327846
2025-11-07 15:36:55.708283,4,2025-11-07 15:36:59.871020154
2025-11-07 15:36:55.708283,1024,2025-11-07 15:36:59.878712462
2025-11-07 15:36:55.708283,0,2025-11-07 15:36:59.886404769
2025-11-07 15:36:55.708283,7,2025-11-07 15:36:59.894097077
2025-11-07 15:36:55.708283,1792,2025-11-07 15:36:59.901789385
2025-11-07 15:36:55.708283,0,2025-11-07 15:36:59.909481692
2025-11-07 15:36:55.708283,4,2025-11-07 15:36:59.917174000
2025-11-07 15:36:55.708283,1024,2025-11-07 15:36:59.924866308
2025-11-07 15:36:55.708283,0,2025-11-07 15:36:59.932558615
2025-11-07 15:36:55.708283,4,2025-11-07 15:36:59.940250923
2025-11-07 15:36:55.708283,1792,2025-11-07 15:36:59.947943230
2025-11-07 15:36:55.708283,0,2025-11-07 15:36:59.955635538
2025-11-07 15:36:55.708283,7,2025-11-07 15:36:59.963327846
2025-11-07 15:36:55.708283,1792,2025-11-07 15:36:59.971020154
2025-11-07 15:36:55.708283,0,2025-11-07 15:36:59.978712462
2025-11-07 15:36:55.708283,7,2025-11-07 15:36:59.986404769
2025-11-07 15:36:55.708283,1024,2025-11-07 15:36:59.994097077
2025-11-07 15:36:55.708283,0,2025-11-07 15:37:00.001789385
2025-11-07 15:36:55.708283,2,2025-11-07 15:37:00.009481692
2025-11-07 15:36:55.708283,512,2025-11-07 15:37:00.017174000
2025-11-07 15:36:55.708283,0,2025-11-07 15:37:00.024866308
2025-11-07 15:36:55.708283,2,2025-11-07 15:37:00.032558615
2025-11-07 15:36:55.708283,0,2025-11-07 15:37:00.040250923
2025-11-07 15:36:55.708283,0,2025-11-07 15:37:00.047943231
2025-11-07 15:36:55.708283,7,2025-11-07 15:37:00.055635538
2025-11-07 15:36:55.708283,7168,2025-11-07 15:37:00.063327846
2025-11-07 15:36:55.708283,0,2025-11-07 15:37:00.071020154
2025-11-07 15:36:55.708283,54,2025-11-07 15:37:00.078712462
2025-11-07 15:36:55.708283,13312,2025-11-07 15:37:00.086404769
2025-11-07 15:36:55.708283,0,2025-11-07 15:37:00.094097077
2025-11-07 15:36:55.708283,33,2025-11-07 15:37:00.101789385
2025-11-07 15:36:55.708283,5376,2025-11-07 15:37:00.109481692
2025-11-07 15:36:55.708283,0,2025-11-07 15:37:00.117174000
2025-11-07 15:36:55.708283,9,2025-11-07 15:37:00.124866308
2025-11-07 15:36:55.708283,-1792,2025-11-07 15:37:00.132558615
2025-11-07 15:36:55.708283,-1,2025-11-07 15:37:00.140250923
2025-11-07 15:36:55.708283,-14,2025-11-07 15:37:00.147943231
2025-11-07 15:36:56.247145,-7,2025-11-07 15:37:00.155635538
2025-11-07 15:36:56.247145,-1537,2025-11-07 15:37:00.163327846
2025-11-07 15:36:56.247145,-1,2025-11-07 15:37:00.171020154
2025-11-07 15:36:56.247145,-7,2025-11-07 15:37:00.178712462
2025-11-07 15:36:56.247145,-769,2025-11-07 15:37:00.186404769
2025-11-07 15:36:56.247145,-1,2025-11-07 15:37:00.194097077
2025-11-07 15:36:56.247145,-30,2025-11-07 15:37:00.201789385
2025-11-07 15:36:56.247145,32511,2025-11-07 15:37:00.209481692
2025-11-07 15:36:56.247145,-1,2025-11-07 15:37:00.217174000
2025-11-07 15:36:56.247145,-211,2025-11-07 15:37:00.224866308
2025-11-07 15:36:56.247145,-21505,2025-11-07 15:37:00.232558615
2025-11-07 15:36:56.247145,-1,2025-11-07 15:37:00.240250923
2025-11-07 15:36:56.247145,320,2025-11-07 15:37:00.247943231
2025-11-07 15:36:56.247145,17152,2025-11-07 15:37:00.255635538
2025-11-07 15:36:56.247145,3,2025-11-07 15:37:00.263327846
2025-11-07 15:36:56.247145,915,2025-11-07 15:37:00.271020154
2025-11-07 15:36:56.247145,-14592,2025-11-07 15:37:00.278712462
2025-11-07 15:36:56.247145,1,2025-11-07 15:37:00.286404769
2025-11-07 15:36:56.247145,120,2025-11-07 15:37:00.294097077
2025-11-07 15:36:56.247145,17408,2025-11-07 15:37:00.301789385
2025-11-07 15:36:56.247145,0,2025-11-07 15:37:00.309481692
2025-11-07 15:36:56.247145,-4,2025-11-07 15:37:00.317174000
2025-11-07 15:36:56.247145,-14849,2025-11-07 15:37:00.324866308
2025-11-07 15:36:56.247145,-1,2025-11-07 15:37:00.332558615
2025-11-07 15:36:56.247145,-37,2025-11-07 15:37:00.340250923
2025-11-07 15:36:56.247145,-8705,2025-11-07 15:37:00.347943231
2025-11-07 15:36:56.247145,-1,2025-11-07 15:37:00.355635538
2025-11-07 15:36:56.247145,-47,2025-11-07 15:37:00.363327846
2025-11-07 15:36:56.247145,-8705,2025-11-07 15:37:00.371020154
2025-11-07 15:36:56.247145,-1,2025-11-07 15:37:00.378712462
2025-11-07 15:36:56.247145,-26,2025-11-07 15:37:00.386404769
2025-11-07 15:36:56.247145,-8193,2025-11-07 15:37:00.394097077
2025-11-07 15:36:56.247145,-1,2025-11-07 15:37:00.401789385
2025-11-07 15:36:56.247145,-26,2025-11-07 15:37:00.409481692
2025-11-07 15:36:56.247145,-4353,2025-11-07 15:37:00.417174000
2025-11-07 15:36:56.247145,-1,2025-11-07 15:37:00.424866308
2025-11-07 15:36:56.247145,-16,2025-11-07 15:37:00.432558615
2025-11-07 15:36:56.247145,-2561,2025-11-07 15:37:00.440250923
2025-11-07 15:36:56.247145,-1,2025-11-07 15:37:00.447943231
2025-11-07 15:36:56.247145,-4,2025-11-07 15:37:00.455635538
2025-11-07 15:36:56.247145,767,2025-11-07 15:37:00.463327846
2025-11-07 15:36:56.247145,0,2025-11-07 15:37:00.471020154
2025-11-07 15:36:56.247145,7,2025-11-07 15:37:00.478712462
2025-11-07 15:36:56.247145,3584,2025-11-07 15:37:00.486404769
2025-11-07 15:36:56.247145,0,2025-11-07 15:37:00.494097077
2025-11-07 15:36:56.247145,26,2025-11-07 15:37:00.501789385
2025-11-07 15:36:56.247145,8448,2025-11-07 15:37:00.509481692
2025-11-07 15:36:56.247145,0,2025-11-07 15:37:00.517174000
2025-11-07 15:36:56.247145,42,2025-11-07 15:37:00.524866308
2025-11-07 15:36:56.247145,13312,2025-11-07 15:37:00.532558615
2025-11-07 15:36:56.247145,0,2025-11-07 15:37:00.540250923
2025-11-07 15:36:56.247145,61,2025-11-07 15:37:00.547943231
2025-11-07 15:36:56.247145,16896,2025-11-07 15:37:00.555635538
2025-11-07 15:36:56.247145,0,2025-11-07 15:37:00.563327846
2025-11-07 15:36:56.247145,66,2025-11-07 15:37:00.571020154
2025-11-07 15:36:56.247145,16896,2025-11-07 15:37:00.578712462
2025-11-07 15:36:56.247145,0,2025-11-07 15:37:00.586404769
2025-11-07 15:36:56.247145,64,2025-11-07 15:37:00.594097077
2025-11-07 15:36:56.247145,12544,2025-11-07 15:37:00.601789385
2025-11-07 15:36:56.247145,0,2025-11-07 15:37:00.609481692
2025-11-07 15:36:56.247145,30,2025-11-07 15:37:00.617174000
2025-11-07 15:36:56.247145,2304,2025-11-07 15:37:00.624866308
2025-11-07 15:36:56.247145,0,2025-11-07 15:37:00.632558615
2025-11-07 15:36:56.247145,-2,2025-11-07 15:37:00.640250923
2025-11-07 15:36:56.247145,-2049,2025-11-07 15:37:00.647943231
2025-11-07 15:36:56.247145,-1,2025-11-07 15:37:00.655635538
2025-11-07 15:36:56.247145,-18,2025-11-07 15:37:00.663327846
2025-11-07 15:36:56.247145,-4353,2025-11-07 15:37:00.671020154
2025-11-07 15:36:56.247145,-1,2025-11-07 15:37:00.678712462
2025-11-07 15:36:56.247145,-18,2025-11-07 15:37:00.686404769
2025-11-07 15:36:56.247145,-3841,2025-11-07 15:37:00.694097077
2025-11-07 15:36:56.247145,-1,2025-11-07 15:37:00.701789385
2025-11-07 15:36:56.247145,-14,2025-11-07 15:37:00.709481692
2025-11-07 15:36:56.247145,-2049,2025-11-07 15:37:00.717174000
2025-11-07 15:36:56.247145,-1,2025-11-07 15:37:00.724866308
2025-11-07 15:36:56.247145,-9,2025-11-07 15:37:00.732558615
2025-11-07 15:36:56.247145,-2049,2025-11-07 15:37:00.740250923
2025-11-07 15:36:56.247145,-1,2025-11-07 15:37:00.747943231
2025-11-07 15:36:56.247145,-7,2025-11-07 15:37:00.755635538
2025-11-07 15:36:56.247145,-769,2025-11-07 15:37:00.763327846
2025-11-07 15:36:56.247145,-1,2025-11-07 15:37:00.771020154
2025-11-07 15:36:56.247145,-2,2025-11-07 15:37:00.778712462
2025-11-07 15:36:56.247145,255,2025-11-07 15:37:00.786404769
2025-11-07 15:36:56.247145,0,2025-11-07 15:37:00.794097077
2025-11-07 15:36:56.247145,-2,2025-11-07 15:37:00.801789385
2025-11-07 15:36:56.247145,-257,2025-11-07 15:37:00.809481692
2025-11-07 15:36:56.247145,-1,2025-11-07 15:37:00.817174000
2025-11-07 15:36:56.247145,2,2025-11-07 15:37:00.824866308
2025-11-07 15:36:56.247145,1024,2025-11-07 15:37:00.832558615
2025-11-07 15:36:56.247145,0,2025-11-07 15:37:00.840250923
2025-11-07 15:36:56.247145,2,2025-11-07 15:37:00.847943231
2025-11-07 15:36:56.247145,1024,2025-11-07 15:37:00.855635538
2025-11-07 15:36:56.247145,0,2025-11-07 15:37:00.863327846
2025-11-07 15:36:56.247145,4,2025-11-07 15:37:00.871020154
2025-11-07 15:36:56.247145,1024,2025-11-07 15:37:00.878712462
2025-11-07 15:36:56.247145,0,2025-11-07 15:37:00.886404769
2025-11-07 15:36:56.247145,7,2025-11-07 15:37:00.894097077
2025-11-07 15:36:56.247145,1792,2025-11-07 15:37:00.901789385
2025-11-07 15:36:56.247145,0,2025-11-07 15:37:00.909481692
2025-11-07 15:36:56.247145,7,2025-11-07 15:37:00.917174000
2025-11-07 15:36:56.247145,1792,2025-11-07 15:37:00.924866308
2025-11-07 15:36:56.247145,0,2025-11-07 15:37:00.932558615
2025-11-07 15:36:56.247145,4,2025-11-07 15:37:00.940250923
2025-11-07 15:36:56.247145,1792,2025-11-07 15:37:00.947943230
2025-11-07 15:36:56.247145,0,2025-11-07 15:37:00.955635538
2025-11-07 15:36:56.247145,7,2025-11-07 15:37:00.963327846
2025-11-07 15:36:56.247145,2816,2025-11-07 15:37:00.971020154
2025-11-07 15:36:56.247145,0,2025-11-07 15:37:00.978712462
2025-11-07 15:36:56.247145,11,2025-11-07 15:37:00.986404769
2025-11-07 15:36:56.873744,7,2025-11-07 15:37:00.994097077
2025-11-07 15:36:56.873744,1792,2025-11-07 15:37:01.001789385
2025-11-07 15:36:56.873744,0,2025-11-07 15:37:01.009481692
2025-11-07 15:36:56.873744,4,2025-11-07 15:37:01.017174000
2025-11-07 15:36:56.873744,512,2025-11-07 15:37:01.024866308
2025-11-07 15:36:56.873744,0,2025-11-07 15:37:01.032558615
2025-11-07 15:36:56.873744,23,2025-11-07 15:37:01.040250923
2025-11-07 15:36:56.873744,17408,2025-11-07 15:37:01.047943231
2025-11-07 15:36:56.873744,0,2025-11-07 15:37:01.055635538
2025-11-07 15:36:56.873744,94,2025-11-07 15:37:01.063327846
2025-11-07 15:36:56.873744,19968,2025-11-07 15:37:01.071020154
2025-11-07 15:36:56.873744,0,2025-11-07 15:37:01.078712462
2025-11-07 15:36:56.873744,54,2025-11-07 15:37:01.086404769
2025-11-07 15:36:56.873744,11520,2025-11-07 15:37:01.094097077
2025-11-07 15:36:56.873744,0,2025-11-07 15:37:01.101789385
2025-11-07 15:36:56.873744,28,2025-11-07 15:37:01.109481692
2025-11-07 15:36:56.873744,2816,2025-11-07 15:37:01.117174000
2025-11-07 15:36:56.873744,0,2025-11-07 15:37:01.124866308
2025-11-07 15:36:56.873744,9,2025-11-07 15:37:01.132558615
2025-11-07 15:36:56.873744,3584,2025-11-07 15:37:01.140250923
2025-11-07 15:36:56.873744,0,2025-11-07 15:37:01.147943231
2025-11-07 15:36:56.873744,14,2025-11-07 15:37:01.155635538
2025-11-07 15:36:56.873744,2816,2025-11-07 15:37:01.163327846
2025-11-07 15:36:56.873744,0,2025-11-07 15:37:01.171020154
2025-11-07 15:36:56.873744,9,2025-11-07 15:37:01.178712462
2025-11-07 15:36:56.873744,-10240,2025-11-07 15:37:01.186404769
2025-11-07 15:36:56.873744,-1,2025-11-07 15:37:01.194097077
2025-11-07 15:36:56.873744,-158,2025-11-07 15:37:01.201789385
2025-11-07 15:36:56.873744,18431,2025-11-07 15:37:01.209481692
2025-11-07 15:36:56.873744,-1,2025-11-07 15:37:01.217174000
2025-11-07 15:36:56.873744,45,2025-11-07 15:37:01.224866308
2025-11-07 15:36:56.873744,4352,2025-11-07 15:37:01.232558615
2025-11-07 15:36:56.873744,2,2025-11-07 15:37:01.240250923
2025-11-07 15:36:56.873744,920,2025-11-07 15:37:01.247943231
2025-11-07 15:36:56.873744,-10240,2025-11-07 15:37:01.255635538
2025-11-07 15:36:56.873744,2,2025-11-07 15:37:01.263327846
2025-11-07 15:36:56.873744,251,2025-11-07 15:37:01.271020154
2025-11-07 15:36:56.873744,18688,2025-11-07 15:37:01.278712462
2025-11-07 15:36:56.873744,0,2025-11-07 15:37:01.286404769
2025-11-07 15:36:56.873744,35,2025-11-07 15:37:01.294097077
2025-11-07 15:36:56.873744,-12032,2025-11-07 15:37:01.301789385
2025-11-07 15:36:56.873744,-1,2025-11-07 15:37:01.309481692
2025-11-07 15:36:56.873744,-56,2025-11-07 15:37:01.317174000
2025-11-07 15:36:56.873744,-7425,2025-11-07 15:37:01.324866308
2025-11-07 15:36:56.873744,-1,2025-11-07 15:37:01.332558615
2025-11-07 15:36:56.873744,-40,2025-11-07 15:37:01.340250923
2025-11-07 15:36:56.873744,-11265,2025-11-07 15:37:01.347943231
2025-11-07 15:36:56.873744,-1,2025-11-07 15:37:01.355635538
2025-11-07 15:36:56.873744,-33,2025-11-07 15:37:01.363327846
2025-11-07 15:36:56.873744,-6401,2025-11-07 15:37:01.371020154
2025-11-07 15:36:56.873744,-1,2025-11-07 15:37:01.378712462
2025-11-07 15:36:56.873744,-11,2025-11-07 15:37:01.386404769
2025-11-07 15:36:56.873744,-769,2025-11-07 15:37:01.394097077
2025-11-07 15:36:56.873744,-1,2025-11-07 15:37:01.401789385
2025-11-07 15:36:56.873744,-16,2025-11-07 15:37:01.409481692
2025-11-07 15:36:56.873744,-3329,2025-11-07 15:37:01.417174000
2025-11-07 15:36:56.873744,-1,2025-11-07 15:37:01.424866308
2025-11-07 15:36:56.873744,4,2025-11-07 15:37:01.432558615
2025-11-07 15:36:56.873744,2304,2025-11-07 15:37:01.440250923
2025-11-07 15:36:56.873744,0,2025-11-07 15:37:01.447943231
2025-11-07 15:36:56.873744,4,2025-11-07 15:37:01.455635538
2025-11-07 15:36:56.873744,3584,2025-11-07 15:37:01.463327846
2025-11-07 15:36:56.873744,0,2025-11-07 15:37:01.471020154
2025-11-07 15:36:56.873744,33,2025-11-07 15:37:01.478712462
2025-11-07 15:36:56.873744,10752,2025-11-07 15:37:01.486404769
2025-11-07 15:36:56.873744,0,2025-11-07 15:37:01.494097077
2025-11-07 15:36:56.873744,45,2025-11-07 15:37:01.501789385
2025-11-07 15:36:56.873744,14336,2025-11-07 15:37:01.509481692
2025-11-07 15:36:56.873744,0,2025-11-07 15:37:01.517174000
2025-11-07 15:36:56.873744,73,2025-11-07 15:37:01.524866308
2025-11-07 15:36:56.873744,19200,2025-11-07 15:37:01.532558615
2025-11-07 15:36:56.873744,0,2025-11-07 15:37:01.540250923
2025-11-07 15:36:56.873744,71,2025-11-07 15:37:01.547943231
2025-11-07 15:36:56.873744,15616,2025-11-07 15:37:01.555635538
2025-11-07 15:36:56.873744,0,2025-11-07 15:37:01.563327846
2025-11-07 15:36:56.873744,54,2025-11-07 15:37:01.571020154
2025-11-07 15:36:56.873744,12544,2025-11-07 15:37:01.578712462
2025-11-07 15:36:56.873744,0,2025-11-07 15:37:01.586404769
2025-11-07 15:36:56.873744,33,2025-11-07 15:37:01.594097077
2025-11-07 15:36:56.873744,3584,2025-11-07 15:37:01.601789385
2025-11-07 15:36:56.873744,0,2025-11-07 15:37:01.609481692
2025-11-07 15:36:56.873744,-4,2025-11-07 15:37:01.617174000
2025-11-07 15:36:56.873744,-3841,2025-11-07 15:37:01.624866308
2025-11-07 15:36:56.873744,-1,2025-11-07 15:37:01.632558615
2025-11-07 15:36:56.873744,-21,2025-11-07 15:37:01.640250923
2025-11-07 15:36:56.873744,-6401,2025-11-07 15:37:01.647943231
2025-11-07 15:36:56.873744,-1,2025-11-07 15:37:01.655635538
2025-11-07 15:36:56.873744,-28,2025-11-07 15:37:01.663327846
2025-11-07 15:36:56.873744,-7425,2025-11-07 15:37:01.671020154
2025-11-07 15:36:56.873744,-1,2025-11-07 15:37:01.678712462
2025-11-07 15:36:56.873744,-33,2025-11-07 15:37:01.686404769
2025-11-07 15:36:56.873744,-7425,2025-11-07 15:37:01.694097077
2025-11-07 15:36:56.873744,-1,2025-11-07 15:37:01.701789385
2025-11-07 15:36:56.873744,-28,2025-11-07 15:37:01.709481692
2025-11-07 15:36:56.873744,-3841,2025-11-07 15:37:01.717174000
2025-11-07 15:36:56.873744,-1,2025-11-07 15:37:01.724866308
2025-11-07 15:36:56.873744,-9,2025-11-07 15:37:01.732558615
2025-11-07 15:36:56.873744,-4353,2025-11-07 15:37:01.740250923
2025-11-07 15:36:56.873744,-1,2025-11-07 15:37:01.747943231
2025-11-07 15:36:56.873744,-16,2025-11-07 15:37:01.755635538
2025-11-07 15:36:56.873744,-257,2025-11-07 15:37:01.763327846
2025-11-07 15:36:56.873744,-1,2025-11-07 15:37:01.771020154
2025-11-07 15:36:56.873744,-2,2025-11-07 15:37:01.778712462
2025-11-07 15:36:56.873744,-2049,2025-11-07 15:37:01.786404769
2025-11-07 15:36:56.873744,-1,2025-11-07 15:37:01.794097077
2025-11-07 15:36:56.873744,-9,2025-11-07 15:37:01.801789385
2025-11-07 15:36:56.873744,-1537,2025-11-07 15:37:01.809481692
2025-11-07 15:36:56.873744,-1,2025-11-07 15:37:01.817174000
2025-11-07 15:36:56.873744,-9,2025-11-07 15:37:01.824866308
2025-11-07 15:36:57.372138,-11,2025-11-07 15:37:01.832558615
2025-11-07 15:36:57.372138,-2561,2025-11-07 15:37:01.840250923
2025-11-07 15:36:57.372138,-1,2025-11-07 15:37:01.847943231
2025-11-07 15:36:57.372138,-11,2025-11-07 15:37:01.855635538
2025-11-07 15:36:57.372138,-257,2025-11-07 15:37:01.863327846
2025-11-07 15:36:57.372138,-1,2025-11-07 15:37:01.871020154
2025-11-07 15:36:57.372138,4,2025-11-07 15:37:01.878712462
2025-11-07 15:36:57.372138,0,2025-11-07 15:37:01.886404769
2025-11-07 15:36:57.372138,0,2025-11-07 15:37:01.894097077
2025-11-07 15:36:57.372138,-4,2025-11-07 15:37:01.901789385
2025-11-07 15:36:57.372138,767,2025-11-07 15:37:01.909481692
2025-11-07 15:36:57.372138,0,2025-11-07 15:37:01.917174000
2025-11-07 15:36:57.372138,11,2025-11-07 15:37:01.924866308
2025-11-07 15:36:57.372138,2816,2025-11-07 15:37:01.932558615
2025-11-07 15:36:57.372138,0,2025-11-07 15:37:01.940250923
2025-11-07 15:36:57.372138,9,2025-11-07 15:37:01.947943230
2025-11-07 15:36:57.372138,1792,2025-11-07 15:37:01.955635538
2025-11-07 15:36:57.372138,0,2025-11-07 15:37:01.963327846
2025-11-07 15:36:57.372138,4,2025-11-07 15:37:01.971020154
2025-11-07 15:36:57.372138,2304,2025-11-07 15:37:01.978712462
2025-11-07 15:36:57.372138,0,2025-11-07 15:37:01.986404769
2025-11-07 15:36:57.372138,16,2025-11-07 15:37:01.994097077
2025-11-07 15:36:57.372138,4096,2025-11-07 15:37:02.001789385
2025-11-07 15:36:57.372138,0,2025-11-07 15:37:02.009481692
2025-11-07 15:36:57.372138,9,2025-11-07 15:37:02.017174000
2025-11-07 15:36:57.372138,3584,2025-11-07 15:37:02.024866308
2025-11-07 15:36:57.372138,0,2025-11-07 15:37:02.032558615
2025-11-07 15:36:57.372138,37,2025-11-07 15:37:02.040250923
2025-11-07 15:36:57.372138,17408,2025-11-07 15:37:02.047943231
2025-11-07 15:36:57.372138,0,2025-11-07 15:37:02.055635538
2025-11-07 15:36:57.372138,75,2025-11-07 15:37:02.063327846
2025-11-07 15:36:57.372138,13824,2025-11-07 15:37:02.071020154
2025-11-07 15:36:57.372138,0,2025-11-07 15:37:02.078712462
2025-11-07 15:36:57.372138,35,2025-11-07 15:37:02.086404769
2025-11-07 15:36:57.372138,7680,2025-11-07 15:37:02.094097077
2025-11-07 15:36:57.372138,0,2025-11-07 15:37:02.101789385
2025-11-07 15:36:57.372138,21,2025-11-07 15:37:02.109481692
2025-11-07 15:36:57.372138,1792,2025-11-07 15:37:02.117174000
2025-11-07 15:36:57.372138,0,2025-11-07 15:37:02.124866308
2025-11-07 15:36:57.372138,4,2025-11-07 15:37:02.132558615
2025-11-07 15:36:57.372138,1024,2025-11-07 15:37:02.140250923
2025-11-07 15:36:57.372138,0,2025-11-07 15:37:02.147943231
2025-11-07 15:36:57.372138,4,2025-11-07 15:37:02.155635538
2025-11-07 15:36:57.372138,1792,2025-11-07 15:37:02.163327846
2025-11-07 15:36:57.372138,0,2025-11-07 15:37:02.171020154
2025-11-07 15:36:57.372138,-16,2025-11-07 15:37:02.178712462
2025-11-07 15:36:57.372138,-28673,2025-11-07 15:37:02.186404769
2025-11-07 15:36:57.372138,-1,2025-11-07 15:37:02.194097077
2025-11-07 15:36:57.372138,-199,2025-11-07 15:37:02.201789385
2025-11-07 15:36:57.372138,-23809,2025-11-07 15:37:02.209481692
2025-11-07 15:36:57.372138,-1,2025-11-07 15:37:02.217174000
2025-11-07 15:36:57.372138,277,2025-11-07 15:37:02.224866308
2025-11-07 15:36:57.372138,2560,2025-11-07 15:37:02.232558615
2025-11-07 15:36:57.372138,3,2025-11-07 15:37:02.240250923
2025-11-07 15:36:57.372138,872,2025-11-07 15:37:02.247943231
2025-11-07 15:36:57.372138,-19968,2025-11-07 15:37:02.255635538
2025-11-07 15:36:57.372138,1,2025-11-07 15:37:02.263327846
2025-11-07 15:36:57.372138,104,2025-11-07 15:37:02.271020154
2025-11-07 15:36:57.372138,13824,2025-11-07 15:37:02.278712462
2025-11-07 15:36:57.372138,0,2025-11-07 15:37:02.286404769
2025-11-07 15:36:57.372138,-18,2025-11-07 15:37:02.294097077
2025-11-07 15:36:57.372138,-18945,2025-11-07 15:37:02.301789385
2025-11-07 15:36:57.372138,-1,2025-11-07 15:37:02.309481692
2025-11-07 15:36:57.372138,-49,2025-11-07 15:37:02.317174000
2025-11-07 15:36:57.372138,-9985,2025-11-07 15:37:02.324866308
2025-11-07 15:36:57.372138,-1,2025-11-07 15:37:02.332558615
2025-11-07 15:36:57.372138,-59,2025-11-07 15:37:02.340250923
2025-11-07 15:36:57.372138,-14081,2025-11-07 15:37:02.347943231
2025-11-07 15:36:57.372138,-1,2025-11-07 15:37:02.355635538
2025-11-07 15:36:57.372138,-47,2025-11-07 15:37:02.363327846
2025-11-07 15:36:57.372138,-11265,2025-11-07 15:37:02.371020154
2025-11-07 15:36:57.372138,-1,2025-11-07 15:37:02.378712462
2025-11-07 15:36:57.372138,-35,2025-11-07 15:37:02.386404769
2025-11-07 15:36:57.372138,-5633,2025-11-07 15:37:02.394097077
2025-11-07 15:36:57.372138,-1,2025-11-07 15:37:02.401789385
2025-11-07 15:36:57.372138,-21,2025-11-07 15:37:02.409481692
2025-11-07 15:36:57.372138,-3841,2025-11-07 15:37:02.417174000
2025-11-07 15:36:57.372138,-1,2025-11-07 15:37:02.424866308
2025-11-07 15:36:57.372138,-9,2025-11-07 15:37:02.432558615
2025-11-07 15:36:57.372138,-2561,2025-11-07 15:37:02.440250923
2025-11-07 15:36:57.372138,-1,2025-11-07 15:37:02.447943231
2025-11-07 15:36:57.372138,-9,2025-11-07 15:37:02.455635538
2025-11-07 15:36:57.372138,3839,2025-11-07 15:37:02.463327846
2025-11-07 15:36:57.372138,0,2025-11-07 15:37:02.471020154
2025-11-07 15:36:57.372138,30,2025-11-07 15:37:02.478712462
2025-11-07 15:36:57.372138,7680,2025-11-07 15:37:02.486404769
2025-11-07 15:36:57.372138,0,2025-11-07 15:37:02.494097077
2025-11-07 15:36:57.372138,42,2025-11-07 15:37:02.501789385
2025-11-07 15:36:57.372138,14336,2025-11-07 15:37:02.509481692
2025-11-07 15:36:57.372138,0,2025-11-07 15:37:02.517174000
2025-11-07 15:36:57.372138,59,2025-11-07 15:37:02.524866308
2025-11-07 15:36:57.372138,15104,2025-11-07 15:37:02.532558615
2025-11-07 15:36:57.372138,0,2025-11-07 15:37:02.540250923
2025-11-07 15:36:57.372138,61,2025-11-07 15:37:02.547943231
2025-11-07 15:36:57.372138,14336,2025-11-07 15:37:02.555635538
2025-11-07 15:36:57.372138,0,2025-11-07 15:37:02.563327846
2025-11-07 15:36:57.372138,45,2025-11-07 15:37:02.571020154
2025-11-07 15:36:57.372138,7168,2025-11-07 15:37:02.578712462
2025-11-07 15:36:57.372138,0,2025-11-07 15:37:02.586404769
2025-11-07 15:36:57.372138,9,2025-11-07 15:37:02.594097077
2025-11-07 15:36:57.372138,-3584,2025-11-07 15:37:02.601789385
2025-11-07 15:36:57.372138,-1,2025-11-07 15:37:02.609481692
2025-11-07 15:36:57.372138,-40,2025-11-07 15:37:02.617174000
2025-11-07 15:36:57.372138,-13569,2025-11-07 15:37:02.624866308
2025-11-07 15:36:57.372138,-1,2025-11-07 15:37:02.632558615
2025-11-07 15:36:57.372138,-56,2025-11-07 15:37:02.640250923
2025-11-07 15:36:57.372138,-14849,2025-11-07 15:37:02.647943231
2025-11-07 15:36:57.372138,-1,2025-11-07 15:37:02.655635538
2025-11-07 15:36:57.372138,-59,2025-11-07 15:37:02.663327846
2025-11-07 15:36:57.957291,-54,2025-11-07 15:37:02.671020154
2025-11-07 15:36:57.957291,-13569,2025-11-07 15:37:02.678712462
2025-11-07 15:36:57.957291,-1,2025-11-07 15:37:02.686404769
2025-11-07 15:36:57.957291,-52,2025-11-07 15:37:02.694097077
2025-11-07 15:36:57.957291,-11265,2025-11-07 15:37:02.701789385
2025-11-07 15:36:57.957291,-1,2025-11-07 15:37:02.709481692
2025-11-07 15:36:57.957291,-47,2025-11-07 15:37:02.717174000
2025-11-07 15:36:57.957291,-8705,2025-11-07 15:37:02.724866308
2025-11-07 15:36:57.957291,-1,2025-11-07 15:37:02.732558615
2025-11-07 15:36:57.957291,-7,2025-11-07 15:37:02.740250923
2025-11-07 15:36:57.957291,-1537,2025-11-07 15:37:02.747943231
2025-11-07 15:36:57.957291,-1,2025-11-07 15:37:02.755635538
2025-11-07 15:36:57.957291,-16,2025-11-07 15:37:02.763327846
2025-11-07 15:36:57.957291,-1537,2025-11-07 15:37:02.771020154
2025-11-07 15:36:57.957291,-1,2025-11-07 15:37:02.778712462
2025-11-07 15:36:57.957291,-11,2025-11-07 15:37:02.786404769
2025-11-07 15:36:57.957291,-5633,2025-11-07 15:37:02.794097077
2025-11-07 15:36:57.957291,-1,2025-11-07 15:37:02.801789385
2025-11-07 15:36:57.957291,-7,2025-11-07 15:37:02.809481692
2025-11-07 15:36:57.957291,3839,2025-11-07 15:37:02.817174000
2025-11-07 15:36:57.957291,0,2025-11-07 15:37:02.824866308
2025-11-07 15:36:57.957291,4,2025-11-07 15:37:02.832558615
2025-11-07 15:36:57.957291,-2816,2025-11-07 15:37:02.840250923
2025-11-07 15:36:57.957291,-1,2025-11-07 15:37:02.847943231
2025-11-07 15:36:57.957291,-11,2025-11-07 15:37:02.855635538
2025-11-07 15:36:57.957291,-3329,2025-11-07 15:37:02.863327846
2025-11-07 15:36:57.957291,-1,2025-11-07 15:37:02.871020154
2025-11-07 15:36:57.957291,-16,2025-11-07 15:37:02.878712462
2025-11-07 15:36:57.957291,-769,2025-11-07 15:37:02.886404769
2025-11-07 15:36:57.957291,-1,2025-11-07 15:37:02.894097077
2025-11-07 15:36:57.957291,-4,2025-11-07 15:37:02.901789385
2025-11-07 15:36:57.957291,-3841,2025-11-07 15:37:02.909481692
2025-11-07 15:36:57.957291,-1,2025-11-07 15:37:02.917174000
2025-11-07 15:36:57.957291,-21,2025-11-07 15:37:02.924866308
2025-11-07 15:36:57.957291,-4353,2025-11-07 15:37:02.932558615
2025-11-07 15:36:57.957291,-1,2025-11-07 15:37:02.940250923
2025-11-07 15:36:57.957291,-9,2025-11-07 15:37:02.947943230
2025-11-07 15:36:57.957291,3071,2025-11-07 15:37:02.955635538
2025-11-07 15:36:57.957291,0,2025-11-07 15:37:02.963327846
2025-11-07 15:36:57.957291,26,2025-11-07 15:37:02.971020154
2025-11-07 15:36:57.957291,6656,2025-11-07 15:37:02.978712462
2025-11-07 15:36:57.957291,0,2025-11-07 15:37:02.986404769
2025-11-07 15:36:57.957291,23,2025-11-07 15:37:02.994097077
2025-11-07 15:36:57.957291,2816,2025-11-07 15:37:03.001789385
2025-11-07 15:36:57.957291,0,2025-11-07 15:37:03.009481692
2025-11-07 15:36:57.957291,-7,2025-11-07 15:37:03.017174000
2025-11-07 15:36:57.957291,-6913,2025-11-07 15:37:03.024866308
2025-11-07 15:36:57.957291,-1,2025-11-07 15:37:03.032558615
2025-11-07 15:36:57.957291,-35,2025-11-07 15:37:03.040250923
2025-11-07 15:36:57.957291,-6401,2025-11-07 15:37:03.047943231
2025-11-07 15:36:57.957291,-1,2025-11-07 15:37:03.055635538
2025-11-07 15:36:57.957291,-16,2025-11-07 15:37:03.063327846
2025-11-07 15:36:57.957291,-4353,2025-11-07 15:37:03.071020154
2025-11-07 15:36:57.957291,-1,2025-11-07 15:37:03.078712462
2025-11-07 15:36:57.957291,-23,2025-11-07 15:37:03.086404769
2025-11-07 15:36:57.957291,-10497,2025-11-07 15:37:03.094097077
2025-11-07 15:36:57.957291,-1,2025-11-07 15:37:03.101789385
2025-11-07 15:36:57.957291,-118,2025-11-07 15:37:03.109481692
2025-11-07 15:36:57.957291,6911,2025-11-07 15:37:03.117174000
2025-11-07 15:36:57.957291,-1,2025-11-07 15:37:03.124866308
2025-11-07 15:36:57.957291,-175,2025-11-07 15:37:03.132558615
2025-11-07 15:36:57.957291,-20993,2025-11-07 15:37:03.140250923
2025-11-07 15:36:57.957291,0,2025-11-07 15:37:03.147943231
2025-11-07 15:36:57.957291,661,2025-11-07 15:37:03.155635538
2025-11-07 15:36:57.957291,9216,2025-11-07 15:37:03.163327846
2025-11-07 15:36:57.957291,3,2025-11-07 15:37:03.171020154
2025-11-07 15:36:57.957291,410,2025-11-07 15:37:03.178712462
2025-11-07 15:36:57.957291,20480,2025-11-07 15:37:03.186404769
2025-11-07 15:36:57.957291,0,2025-11-07 15:37:03.194097077
2025-11-07 15:36:57.957291,52,2025-11-07 15:37:03.201789385
2025-11-07 15:36:57.957291,-2304,2025-11-07 15:37:03.209481692
2025-11-07 15:36:57.957291,-1,2025-11-07 15:37:03.217174000
2025-11-07 15:36:57.957291,-80,2025-11-07 15:37:03.224866308
2025-11-07 15:36:57.957291,-16129,2025-11-07 15:37:03.232558615
2025-11-07 15:36:57.957291,-1,2025-11-07 15:37:03.240250923
2025-11-07 15:36:57.957291,-56,2025-11-07 15:37:03.247943231
2025-11-07 15:36:57.957291,-17153,2025-11-07 15:37:03.255635538
2025-11-07 15:36:57.957291,-1,2025-11-07 15:37:03.263327846
2025-11-07 15:36:57.957291,-54,2025-11-07 15:37:03.271020154
2025-11-07 15:36:57.957291,-10497,2025-11-07 15:37:03.278712462
2025-11-07 15:36:57.957291,-1,2025-11-07 15:37:03.286404769
2025-11-07 15:36:57.957291,-42,2025-11-07 15:37:03.294097077
2025-11-07 15:36:57.957291,-8705,2025-11-07 15:37:03.301789385
2025-11-07 15:36:57.957291,-1,2025-11-07 15:37:03.309481692
2025-11-07 15:36:57.957291,-26,2025-11-07 15:37:03.317174000
2025-11-07 15:36:57.957291,-5121,2025-11-07 15:37:03.324866308
2025-11-07 15:36:57.957291,-1,2025-11-07 15:37:03.332558615
2025-11-07 15:36:57.957291,-14,2025-11-07 15:37:03.340250923
2025-11-07 15:36:57.957291,-769,2025-11-07 15:37:03.347943231
2025-11-07 15:36:57.957291,-1,2025-11-07 15:37:03.355635538
2025-11-07 15:36:57.957291,2,2025-11-07 15:37:03.363327846
2025-11-07 15:36:57.957291,2816,2025-11-07 15:37:03.371020154
2025-11-07 15:36:57.957291,0,2025-11-07 15:37:03.378712462
2025-11-07 15:36:57.957291,26,2025-11-07 15:37:03.386404769
2025-11-07 15:36:57.957291,9472,2025-11-07 15:37:03.394097077
2025-11-07 15:36:57.957291,0,2025-11-07 15:37:03.401789385
2025-11-07 15:36:57.957291,54,2025-11-07 15:37:03.409481692
2025-11-07 15:36:57.957291,17408,2025-11-07 15:37:03.417174000
2025-11-07 15:36:57.957291,0,2025-11-07 15:37:03.424866308
2025-11-07 15:36:57.957291,75,2025-11-07 15:37:03.432558615
2025-11-07 15:36:57.957291,21760,2025-11-07 15:37:03.440250923
2025-11-07 15:36:57.957291,0,2025-11-07 15:37:03.447943231
2025-11-07 15:36:57.957291,92,2025-11-07 15:37:03.455635538
2025-11-07 15:36:57.957291,23552,2025-11-07 15:37:03.463327846
2025-11-07 15:36:57.957291,0,2025-11-07 15:37:03.471020154
2025-11-07 15:36:57.957291,87,2025-11-07 15:37:03.478712462
2025-11-07 15:36:57.957291,19968,2025-11-07 15:37:03.486404769
2025-11-07 15:36:57.957291,0,2025-11-07 15:37:03.494097077
2025-11-07 15:36:57.957291,52,2025-11-07 15:37:03.501789385
2025-11-07 15:36:58.542139,18,2025-11-07 15:37:03.509481692
2025-11-07 15:36:58.542139,-2304,2025-11-07 15:37:03.517174000
2025-11-07 15:36:58.542139,-1,2025-11-07 15:37:03.524866308
2025-11-07 15:36:58.542139,-30,2025-11-07 15:37:03.532558615
2025-11-07 15:36:58.542139,-9985,2025-11-07 15:37:03.540250923
2025-11-07 15:36:58.542139,-1,2025-11-07 15:37:03.547943231
2025-11-07 15:36:58.542139,-45,2025-11-07 15:37:03.555635538
2025-11-07 15:36:58.542139,-10497,2025-11-07 15:37:03.563327846
2025-11-07 15:36:58.542139,-1,2025-11-07 15:37:03.571020154
2025-11-07 15:36:58.542139,-33,2025-11-07 15:37:03.578712462
2025-11-07 15:36:58.542139,-8193,2025-11-07 15:37:03.586404769
