timestamp,ecg
14:36:08.222654,-88
14:36:08.222654,-19969
14:36:08.222654,-1
14:36:08.222654,-71
14:36:08.222654,-16129
14:36:08.222654,-1
14:36:08.222654,-59
14:36:08.222654,-13825
14:36:08.222654,-1
14:36:08.222654,-55
14:36:08.222654,-16129
14:36:08.222654,-1
14:36:08.222654,-67
14:36:08.222654,-16129
14:36:08.222654,-1
14:36:08.222654,-64
14:36:08.222654,-16897
14:36:08.222654,-1
14:36:08.222654,-67
14:36:08.222654,-16129
14:36:08.222654,-1
14:36:08.222654,-62
14:36:08.222654,-14849
14:36:08.222654,-1
14:36:08.222654,-57
14:36:08.222654,-13825
14:36:08.222654,-1
14:36:08.222654,-52
14:36:08.222654,-13825
14:36:08.222654,-1
14:36:08.222654,-52
14:36:08.222654,-11777
14:36:08.222654,-1
14:36:08.222654,-50
14:36:08.222654,-11777
14:36:08.222654,-1
14:36:08.222654,-45
14:36:08.222654,-10753
14:36:08.222654,-1
14:36:08.222654,-43
14:36:08.222654,-9985
14:36:08.222654,-1
14:36:08.222654,-40
14:36:08.222654,-9473
14:36:08.222654,-1
14:36:08.222654,-38
14:36:08.222654,-9473
14:36:08.222654,-1
14:36:08.222654,-35
14:36:08.222654,-8193
14:36:08.222654,-1
14:36:08.222654,-33
14:36:08.222654,-8705
14:36:08.222654,-1
14:36:08.222654,-35
14:36:08.222654,-9985
14:36:08.222654,-1
14:36:08.222654,-43
14:36:08.222654,-9985
14:36:08.222654,-1
14:36:08.222654,-38
14:36:08.222654,-9985
14:36:08.222654,-1
14:36:08.222654,-31
14:36:08.222654,-3841
14:36:08.222654,-1
14:36:08.222654,-4
14:36:08.222654,-769
14:36:08.222654,-1
14:36:08.222654,-16
14:36:08.222654,-5121
14:36:08.222654,-1
14:36:08.222654,-19
14:36:08.222654,-3841
14:36:08.222654,-1
14:36:08.222654,-21
14:36:08.222654,-5121
14:36:08.222654,-1
14:36:08.222654,-21
14:36:08.222654,-9985
14:36:08.222654,-1
14:36:08.222654,-98
14:36:08.222654,31487
14:36:08.222654,-1
14:36:08.222654,7
14:36:08.222654,-19456
14:36:08.222654,1
14:36:08.222654,884
14:36:08.222654,31488
14:36:08.222654,3
14:36:08.222654,520
14:36:08.222654,-18944
14:36:08.222654,0
14:36:08.222654,4
14:36:08.222654,-22016
14:36:08.222654,-1
14:36:08.222654,-124
14:36:08.222654,29695
14:36:08.222654,-1
14:36:08.222654,-146
14:36:08.222654,28415
14:36:08.222654,-1
14:36:08.222654,-143
14:36:08.222654,30975
14:36:08.222654,-1
14:36:08.222654,-129
14:36:08.222654,-32257
14:36:08.222654,-1
14:36:08.222654,-127
14:36:08.759013,-122
14:36:08.759013,-29697
14:36:08.759013,-1
14:36:08.759013,-115
14:36:08.759013,-28417
14:36:08.759013,-1
14:36:08.759013,-112
14:36:08.759013,-28417
14:36:08.759013,-1
14:36:08.759013,-112
14:36:08.759013,-27905
14:36:08.759013,-1
14:36:08.759013,-107
14:36:08.759013,-25345
14:36:08.759013,-1
14:36:08.759013,-86
14:36:08.759013,-18689
14:36:08.759013,-1
14:36:08.759013,-71
14:36:08.759013,-17409
14:36:08.759013,-1
14:36:08.759013,-57
14:36:08.759013,-12545
14:36:08.759013,-1
14:36:08.759013,-50
14:36:08.759013,-12545
14:36:08.759013,-1
14:36:08.759013,-55
14:36:08.759013,-14849
14:36:08.759013,-1
14:36:08.759013,-64
14:36:08.759013,-16897
14:36:08.759013,-1
14:36:08.759013,-67
14:36:08.759013,-16129
14:36:08.759013,-1
14:36:08.759013,-64
14:36:08.759013,-15617
14:36:08.759013,-1
14:36:08.759013,-57
14:36:08.759013,-13057
14:36:08.759013,-1
14:36:08.759013,-52
14:36:08.759013,-13057
14:36:08.759013,-1
14:36:08.759013,-52
14:36:08.759013,-13057
14:36:08.759013,-1
14:36:08.759013,-50
14:36:08.759013,-12545
14:36:08.759013,-1
14:36:08.759013,-47
14:36:08.759013,-11265
14:36:08.759013,-1
14:36:08.759013,-45
14:36:08.759013,-11265
14:36:08.759013,-1
14:36:08.759013,-43
14:36:08.759013,-9473
14:36:08.759013,-1
14:36:08.759013,-40
14:36:08.759013,-10753
14:36:08.759013,-1
14:36:08.759013,-40
14:36:08.759013,-9473
14:36:08.759013,-1
14:36:08.759013,-38
14:36:08.759013,-9473
14:36:08.759013,-1
14:36:08.759013,-38
14:36:08.759013,-8705
14:36:08.759013,-1
14:36:08.759013,-38
14:36:08.759013,-9985
14:36:08.759013,-1
14:36:08.759013,-40
14:36:08.759013,-10753
14:36:08.759013,-1
14:36:08.759013,-43
14:36:08.759013,-9473
14:36:08.759013,-1
14:36:08.759013,-33
14:36:08.759013,-5121
14:36:08.759013,-1
14:36:08.759013,-11
14:36:08.759013,-2049
14:36:08.759013,-1
14:36:08.759013,-16
14:36:08.759013,-5633
14:36:08.759013,-1
14:36:08.759013,-23
14:36:08.759013,-4609
14:36:08.759013,-1
14:36:08.759013,-19
14:36:08.759013,-5121
14:36:08.759013,-1
14:36:08.759013,-23
14:36:08.759013,-9473
14:36:08.759013,-1
14:36:08.759013,-86
14:36:08.759013,30207
14:36:08.759013,-1
14:36:08.759013,-59
14:36:08.759013,11263
14:36:08.759013,1
14:36:08.759013,778
14:36:08.759013,-30464
14:36:08.759013,3
14:36:08.759013,591
14:36:09.365344,234
14:36:09.365344,7936
14:36:09.365344,0
14:36:09.365344,-74
14:36:09.365344,-30209
14:36:09.365344,-1
14:36:09.365344,-131
14:36:09.365344,29695
14:36:09.365344,-1
14:36:09.365344,-143
14:36:09.365344,32767
14:36:09.365344,-1
14:36:09.365344,-112
14:36:09.365344,-27905
14:36:09.365344,-1
14:36:09.365344,-112
14:36:09.365344,-27137
14:36:09.365344,-1
14:36:09.365344,-103
14:36:09.365344,-26625
14:36:09.365344,-1
14:36:09.365344,-103
14:36:09.365344,-25345
14:36:09.365344,-1
14:36:09.365344,-98
14:36:09.365344,-24065
14:36:09.365344,-1
14:36:09.365344,-93
14:36:09.365344,-22273
14:36:09.365344,-1
14:36:09.365344,-88
14:36:09.365344,-23041
14:36:09.365344,-1
14:36:09.365344,-88
14:36:09.365344,-21761
14:36:09.365344,-1
14:36:09.365344,-81
14:36:09.365344,-18689
14:36:09.365344,-1
14:36:09.365344,-67
14:36:09.365344,-15617
14:36:09.365344,-1
14:36:09.365344,-57
14:36:09.365344,-14337
14:36:09.365344,-1
14:36:09.365344,-64
14:36:09.365344,-17409
14:36:09.365344,-1
14:36:09.365344,-71
14:36:09.365344,-18689
14:36:09.365344,-1
14:36:09.365344,-76
14:36:09.365344,-18689
14:36:09.365344,-1
14:36:09.365344,-69
14:36:09.365344,-17409
14:36:09.365344,-1
14:36:09.365344,-69
14:36:09.365344,-16897
14:36:09.365344,-1
14:36:09.365344,-62
14:36:09.365344,-14337
14:36:09.365344,-1
14:36:09.365344,-52
14:36:09.365344,-12545
14:36:09.365344,-1
14:36:09.365344,-50
14:36:09.365344,-13057
14:36:09.365344,-1
14:36:09.365344,-50
14:36:09.365344,-11265
14:36:09.365344,-1
14:36:09.365344,-45
14:36:09.365344,-11265
14:36:09.365344,-1
14:36:09.365344,-40
14:36:09.365344,-9473
14:36:09.365344,-1
14:36:09.365344,-40
14:36:09.365344,-9985
14:36:09.365344,-1
14:36:09.365344,-38
14:36:09.365344,-8705
14:36:09.365344,-1
14:36:09.365344,-35
14:36:09.365344,-8705
14:36:09.365344,-1
14:36:09.365344,-35
14:36:09.365344,-8705
14:36:09.365344,-1
14:36:09.365344,-35
14:36:09.365344,-9473
14:36:09.365344,-1
14:36:09.365344,-40
14:36:09.365344,-11777
14:36:09.365344,-1
14:36:09.365344,-52
14:36:09.365344,-13057
14:36:09.365344,-1
14:36:09.365344,-47
14:36:09.365344,-10753
14:36:09.365344,-1
14:36:09.365344,-33
14:36:09.365344,-5121
14:36:09.365344,-1
14:36:09.365344,-16
14:36:09.365344,-5121
14:36:09.365344,-1
14:36:09.365344,-33
14:36:09.861208,-31
14:36:09.861208,-6401
14:36:09.861208,-1
14:36:09.861208,-28
14:36:09.861208,-8193
14:36:09.861208,-1
14:36:09.861208,-33
14:36:09.861208,-8705
14:36:09.861208,-1
14:36:09.861208,-67
14:36:09.861208,-30977
14:36:09.861208,-1
14:36:09.861208,-127
14:36:09.861208,22271
14:36:09.861208,0
14:36:09.861208,556
14:36:09.861208,-31488
14:36:09.861208,3
14:36:09.861208,774
14:36:09.861208,-28672
14:36:09.861208,1
14:36:09.861208,119
14:36:09.861208,-6656
14:36:09.861208,-1
14:36:09.861208,-91
14:36:09.861208,-29185
14:36:09.861208,-1
14:36:09.861208,-127
14:36:09.861208,32255
14:36:09.861208,-1
14:36:09.861208,-131
14:36:09.861208,32767
14:36:09.861208,-1
14:36:09.861208,-127
14:36:09.861208,-30977
14:36:09.861208,-1
14:36:09.861208,-117
14:36:09.861208,-29185
14:36:09.861208,-1
14:36:09.861208,-115
14:36:09.861208,-29185
14:36:09.861208,-1
14:36:09.861208,-110
14:36:09.861208,-27137
14:36:09.861208,-1
14:36:09.861208,-103
14:36:09.861208,-25345
14:36:09.861208,-1
14:36:09.861208,-98
14:36:09.861208,-23041
14:36:09.861208,-1
14:36:09.861208,-86
14:36:09.861208,-20993
14:36:09.861208,-1
14:36:09.861208,-79
14:36:09.861208,-19201
14:36:09.861208,-1
14:36:09.861208,-74
14:36:09.861208,-17409
14:36:09.861208,-1
14:36:09.861208,-57
14:36:09.861208,-12545
14:36:09.861208,-1
14:36:09.861208,-47
14:36:09.861208,-13825
14:36:09.861208,-1
14:36:09.861208,-62
14:36:09.861208,-16897
14:36:09.861208,-1
14:36:09.861208,-71
14:36:09.861208,-17921
14:36:09.861208,-1
14:36:09.861208,-69
14:36:09.861208,-16897
14:36:09.861208,-1
14:36:09.861208,-64
14:36:09.861208,-16129
14:36:09.861208,-1
14:36:09.861208,-64
14:36:09.861208,-15617
14:36:09.861208,-1
14:36:09.861208,-62
14:36:09.861208,-14849
14:36:09.861208,-1
14:36:09.861208,-57
14:36:09.861208,-14337
14:36:09.861208,-1
14:36:09.861208,-57
14:36:09.861208,-13825
14:36:09.861208,-1
14:36:09.861208,-55
14:36:09.861208,-13057
14:36:09.861208,-1
14:36:09.861208,-50
14:36:09.861208,-12545
14:36:09.861208,-1
14:36:09.861208,-50
14:36:09.861208,-11777
14:36:09.861208,-1
14:36:09.861208,-45
14:36:09.861208,-10753
14:36:09.861208,-1
14:36:09.861208,-43
14:36:09.861208,-10753
14:36:09.861208,-1
14:36:09.861208,-47
14:36:09.861208,-11265
14:36:09.861208,-1
14:36:09.861208,-43
14:36:10.433702,-43
14:36:10.433702,-9985
14:36:10.433702,-1
14:36:10.433702,-40
14:36:10.433702,-11265
14:36:10.433702,-1
14:36:10.433702,-50
14:36:10.433702,-11777
14:36:10.433702,-1
14:36:10.433702,-38
14:36:10.433702,-7681
14:36:10.433702,-1
14:36:10.433702,-33
14:36:10.433702,-6913
14:36:10.433702,-1
14:36:10.433702,-14
14:36:10.433702,-769
14:36:10.433702,-1
14:36:10.433702,-2
14:36:10.433702,-2561
14:36:10.433702,-1
14:36:10.433702,-21
14:36:10.433702,-5633
14:36:10.433702,-1
14:36:10.433702,-21
14:36:10.433702,-5633
14:36:10.433702,-1
14:36:10.433702,-26
14:36:10.433702,-6401
14:36:10.433702,-1
14:36:10.433702,-38
14:36:10.433702,-18689
14:36:10.433702,-1
14:36:10.433702,-134
14:36:10.433702,-27905
14:36:10.433702,-1
14:36:10.433702,162
14:36:10.433702,-30464
14:36:10.433702,2
14:36:10.433702,905
14:36:10.433702,-24320
14:36:10.433702,2
14:36:10.433702,301
14:36:10.433702,19456
14:36:10.433702,0
14:36:10.433702,-52
14:36:10.433702,-30209
14:36:10.433702,-1
14:36:10.433702,-134
14:36:10.433702,30975
14:36:10.433702,-1
14:36:10.433702,-141
14:36:10.433702,29695
14:36:10.433702,-1
14:36:10.433702,-139
14:36:10.433702,31487
14:36:10.433702,-1
14:36:10.433702,-129
14:36:10.433702,-32257
14:36:10.433702,-1
14:36:10.433702,-124
14:36:10.433702,-30209
14:36:10.433702,-1
14:36:10.433702,-117
14:36:10.433702,-29697
14:36:10.433702,-1
14:36:10.433702,-115
14:36:10.433702,-27905
14:36:10.433702,-1
14:36:10.433702,-110
14:36:10.433702,-27137
14:36:10.433702,-1
14:36:10.433702,-105
14:36:10.433702,-26625
14:36:10.433702,-1
14:36:10.433702,-103
14:36:10.433702,-24833
14:36:10.433702,-1
14:36:10.433702,-88
14:36:10.433702,-19201
14:36:10.433702,-1
14:36:10.433702,-71
14:36:10.433702,-16897
14:36:10.433702,-1
14:36:10.433702,-59
14:36:10.433702,-14337
14:36:10.433702,-1
14:36:10.433702,-64
14:36:10.433702,-18689
14:36:10.433702,-1
14:36:10.433702,-79
14:36:10.433702,-20481
14:36:10.433702,-1
14:36:10.433702,-81
14:36:10.433702,-20993
14:36:10.433702,-1
14:36:10.433702,-79
14:36:10.433702,-18689
14:36:10.433702,-1
14:36:10.433702,-71
14:36:10.433702,-17921
14:36:10.433702,-1
14:36:10.433702,-69
14:36:10.433702,-16897
14:36:10.433702,-1
14:36:10.433702,-67
14:36:10.433702,-16897
14:36:10.433702,-1
14:36:10.433702,-64
14:36:10.975861,-64
14:36:10.975861,-15617
14:36:10.975861,-1
14:36:10.975861,-59
14:36:10.975861,-13825
14:36:10.975861,-1
14:36:10.975861,-52
14:36:10.975861,-13057
14:36:10.975861,-1
14:36:10.975861,-47
14:36:10.975861,-8705
14:36:10.975861,-1
14:36:10.975861,-23
14:36:10.975861,-6913
14:36:10.975861,-1
14:36:10.975861,-28
14:36:10.975861,-6401
14:36:10.975861,-1
14:36:10.975861,-28
14:36:10.975861,-7681
14:36:10.975861,-1
14:36:10.975861,-31
14:36:10.975861,-7681
14:36:10.975861,-1
14:36:10.975861,-31
14:36:10.975861,-7681
14:36:10.975861,-1
14:36:10.975861,-31
14:36:10.975861,-7681
14:36:10.975861,-1
14:36:10.975861,-35
14:36:10.975861,-9985
14:36:10.975861,-1
14:36:10.975861,-43
14:36:10.975861,-10753
14:36:10.975861,-1
14:36:10.975861,-38
14:36:10.975861,-8705
14:36:10.975861,-1
14:36:10.975861,-26
14:36:10.975861,-3329
14:36:10.975861,-1
14:36:10.975861,-4
14:36:10.975861,-2049
14:36:10.975861,-1
14:36:10.975861,-21
14:36:10.975861,-6401
14:36:10.975861,-1
14:36:10.975861,-23
14:36:10.975861,-6401
14:36:10.975861,-1
14:36:10.975861,-26
14:36:10.975861,-6401
14:36:10.975861,-1
14:36:10.975861,-31
14:36:10.975861,-13825
14:36:10.975861,-1
14:36:10.975861,-110
14:36:10.975861,29695
14:36:10.975861,-1
14:36:10.975861,11
14:36:10.975861,-17664
14:36:10.975861,1
14:36:10.975861,855
14:36:10.975861,11264
14:36:10.975861,3
14:36:10.975861,443
14:36:10.975861,-27136
14:36:10.975861,0
14:36:10.975861,-7
14:36:10.975861,-25345
14:36:10.975861,-1
14:36:10.975861,-131
14:36:10.975861,29695
14:36:10.975861,-1
14:36:10.975861,-146
14:36:10.975861,28415
14:36:10.975861,-1
14:36:10.975861,-143
14:36:10.975861,29695
14:36:10.975861,-1
14:36:10.975861,-134
14:36:10.975861,-32257
14:36:10.975861,-1
14:36:10.975861,-124
14:36:10.975861,-30209
14:36:10.975861,-1
14:36:10.975861,-119
14:36:10.975861,-29697
14:36:10.975861,-1
14:36:10.975861,-112
14:36:10.975861,-27905
14:36:10.975861,-1
14:36:10.975861,-110
14:36:10.975861,-27905
14:36:10.975861,-1
14:36:10.975861,-105
14:36:10.975861,-26113
14:36:10.975861,-1
14:36:10.975861,-100
14:36:10.975861,-24065
14:36:10.975861,-1
14:36:10.975861,-91
14:36:10.975861,-20481
14:36:10.975861,-1
14:36:10.975861,-71
14:36:10.975861,-16129
14:36:10.975861,-1
14:36:10.975861,-57
14:36:11.584790,-52
14:36:11.584790,-14337
14:36:11.584790,-1
14:36:11.584790,-67
14:36:11.584790,-17409
14:36:11.584790,-1
14:36:11.584790,-62
14:36:11.584790,-13825
14:36:11.584790,-1
14:36:11.584790,-55
14:36:11.584790,-14337
14:36:11.584790,-1
14:36:11.584790,-52
14:36:11.584790,-12545
14:36:11.584790,-1
14:36:11.584790,-50
14:36:11.584790,-11777
14:36:11.584790,-1
14:36:11.584790,-40
14:36:11.584790,-9985
14:36:11.584790,-1
14:36:11.584790,-40
14:36:11.584790,-8705
14:36:11.584790,-1
14:36:11.584790,-33
14:36:11.584790,-8705
14:36:11.584790,-1
14:36:11.584790,-35
14:36:11.584790,-8705
14:36:11.584790,-1
14:36:11.584790,-33
14:36:11.584790,-7681
14:36:11.584790,-1
14:36:11.584790,-28
14:36:11.584790,-7681
14:36:11.584790,-1
14:36:11.584790,-28
14:36:11.584790,-6913
14:36:11.584790,-1
14:36:11.584790,-28
14:36:11.584790,-6401
14:36:11.584790,-1
14:36:11.584790,-26
14:36:11.584790,-6913
14:36:11.584790,-1
14:36:11.584790,-31
14:36:11.584790,-6913
14:36:11.584790,-1
14:36:11.584790,-31
14:36:11.584790,-8193
14:36:11.584790,-1
14:36:11.584790,-33
14:36:11.584790,-8193
14:36:11.584790,-1
14:36:11.584790,-33
14:36:11.584790,-7681
14:36:11.584790,-1
14:36:11.584790,-33
14:36:11.584790,-8705
14:36:11.584790,-1
14:36:11.584790,-38
14:36:11.584790,-10753
14:36:11.584790,-1
14:36:11.584790,-47
14:36:11.584790,-11777
14:36:11.584790,-1
14:36:11.584790,-43
14:36:11.584790,-8705
14:36:11.584790,-1
14:36:11.584790,-23
14:36:11.584790,-2561
14:36:11.584790,-1
14:36:11.584790,-7
14:36:11.584790,-2561
14:36:11.584790,-1
14:36:11.584790,-21
14:36:11.584790,-5633
14:36:11.584790,-1
14:36:11.584790,-21
14:36:11.584790,-6401
14:36:11.584790,-1
14:36:11.584790,-26
14:36:11.584790,-6401
14:36:11.584790,-1
14:36:11.584790,-33
14:36:11.584790,-16129
14:36:11.584790,-1
14:36:11.584790,-124
14:36:11.584790,-31489
14:36:11.584790,-1
14:36:11.584790,110
14:36:11.584790,20224
14:36:11.584790,2
14:36:11.584790,913
14:36:11.584790,-8448
14:36:11.584790,2
14:36:11.584790,349
14:36:11.584790,25088
14:36:11.584790,0
14:36:11.584790,-35
14:36:11.584790,-27905
14:36:11.584790,-1
14:36:11.584790,-134
14:36:11.584790,30207
14:36:11.584790,-1
14:36:11.584790,-146
14:36:11.584790,29183
14:36:11.584790,-1
14:36:11.584790,-141
14:36:12.155532,-139
14:36:12.155532,31487
14:36:12.155532,-1
14:36:12.155532,-127
14:36:12.155532,-32257
14:36:12.155532,-1
14:36:12.155532,-122
14:36:12.155532,-29185
14:36:12.155532,-1
14:36:12.155532,-107
14:36:12.155532,-27137
14:36:12.155532,-1
14:36:12.155532,-105
14:36:12.155532,-24065
14:36:12.155532,-1
14:36:12.155532,-79
14:36:12.155532,-19201
14:36:12.155532,-1
14:36:12.155532,-79
14:36:12.155532,-17409
14:36:12.155532,-1
14:36:12.155532,-62
14:36:12.155532,-15617
14:36:12.155532,-1
14:36:12.155532,-57
14:36:12.155532,-11777
14:36:12.155532,-1
14:36:12.155532,-40
14:36:12.155532,-8705
14:36:12.155532,-1
14:36:12.155532,-35
14:36:12.155532,-10753
14:36:12.155532,-1
14:36:12.155532,-50
14:36:12.155532,-14337
14:36:12.155532,-1
14:36:12.155532,-62
14:36:12.155532,-16129
14:36:12.155532,-1
14:36:12.155532,-62
14:36:12.155532,-14849
14:36:12.155532,-1
14:36:12.155532,-62
14:36:12.155532,-15617
14:36:12.155532,-1
14:36:12.155532,-59
14:36:12.155532,-14849
14:36:12.155532,-1
14:36:12.155532,-57
14:36:12.155532,-13825
14:36:12.155532,-1
14:36:12.155532,-57
14:36:12.155532,-14337
14:36:12.155532,-1
14:36:12.155532,-57
14:36:12.155532,-13825
14:36:12.155532,-1
14:36:12.155532,-50
14:36:12.155532,-11777
14:36:12.155532,-1
14:36:12.155532,-47
14:36:12.155532,-10753
14:36:12.155532,-1
14:36:12.155532,-43
14:36:12.155532,-11265
14:36:12.155532,-1
14:36:12.155532,-40
14:36:12.155532,-9473
14:36:12.155532,-1
14:36:12.155532,-40
14:36:12.155532,-10753
14:36:12.155532,-1
14:36:12.155532,-40
14:36:12.155532,-8705
14:36:12.155532,-1
14:36:12.155532,-38
14:36:12.155532,-9985
14:36:12.155532,-1
14:36:12.155532,-40
14:36:12.155532,-9473
14:36:12.155532,-1
14:36:12.155532,-40
14:36:12.155532,-10753
14:36:12.155532,-1
14:36:12.155532,-40
14:36:12.155532,-9473
14:36:12.155532,-1
14:36:12.155532,-43
14:36:12.155532,-10753
14:36:12.155532,-1
14:36:12.155532,-43
14:36:12.155532,-11265
14:36:12.155532,-1
14:36:12.155532,-50
14:36:12.155532,-13825
14:36:12.155532,-1
14:36:12.155532,-57
14:36:12.155532,-14337
14:36:12.155532,-1
14:36:12.155532,-52
14:36:12.155532,-10753
14:36:12.155532,-1
14:36:12.155532,-31
14:36:12.155532,-5121
14:36:12.155532,-1
14:36:12.155532,-14
14:36:12.155532,-3841
14:36:12.155532,-1
14:36:12.155532,-23
14:36:12.694506,-23
14:36:12.694506,-5121
14:36:12.694506,-1
14:36:12.694506,-23
14:36:12.694506,-6401
14:36:12.694506,-1
14:36:12.694506,-31
14:36:12.694506,-9473
14:36:12.694506,-1
14:36:12.694506,-74
14:36:12.694506,31487
14:36:12.694506,-1
14:36:12.694506,-105
14:36:12.694506,-17665
14:36:12.694506,0
14:36:12.694506,687
14:36:12.694506,-23040
14:36:12.694506,3
14:36:12.694506,673
14:36:12.694506,8448
14:36:12.694506,1
14:36:12.694506,79
14:36:12.694506,-10240
14:36:12.694506,-1
14:36:12.694506,-110
14:36:12.694506,-31489
14:36:12.694506,-1
14:36:12.694506,-129
14:36:12.694506,30207
14:36:12.694506,-1
14:36:12.694506,-139
14:36:12.694506,32255
14:36:12.694506,-1
14:36:12.694506,-127
14:36:12.694506,-31489
14:36:12.694506,-1
14:36:12.694506,-122
14:36:12.694506,-29185
14:36:12.694506,-1
14:36:12.694506,-115
14:36:12.694506,-28417
14:36:12.694506,-1
14:36:12.694506,-107
14:36:12.694506,-26113
14:36:12.694506,-1
14:36:12.694506,-98
14:36:12.694506,-23553
14:36:12.694506,-1
14:36:12.694506,-95
14:36:12.694506,-24833
14:36:12.694506,-1
14:36:12.694506,-95
14:36:12.694506,-22273
14:36:12.694506,-1
14:36:12.694506,-83
14:36:12.694506,-20481
14:36:12.694506,-1
14:36:12.694506,-74
14:36:12.694506,-16897
14:36:12.694506,-1
14:36:12.694506,-59
14:36:12.694506,-14337
14:36:12.694506,-1
14:36:12.694506,-59
14:36:12.694506,-16129
14:36:12.694506,-1
14:36:12.694506,-76
14:36:12.694506,-20993
14:36:12.694506,-1
14:36:12.694506,-83
14:36:12.694506,-21761
14:36:12.694506,-1
14:36:12.694506,-88
14:36:12.694506,-20993
14:36:12.694506,-1
14:36:12.694506,-76
14:36:12.694506,-18689
14:36:12.694506,-1
14:36:12.694506,-76
14:36:12.694506,-18689
14:36:12.694506,-1
14:36:12.694506,-71
14:36:12.694506,-17409
14:36:12.694506,-1
14:36:12.694506,-71
14:36:12.694506,-17921
14:36:12.694506,-1
14:36:12.694506,-67
14:36:12.694506,-16129
14:36:12.694506,-1
14:36:12.694506,-64
14:36:12.694506,-13825
14:36:12.694506,-1
14:36:12.694506,-52
14:36:12.694506,-13057
14:36:12.694506,-1
14:36:12.694506,-47
14:36:12.694506,-9473
14:36:12.694506,-1
14:36:12.694506,-38
14:36:12.694506,-10753
14:36:12.694506,-1
14:36:12.694506,-40
14:36:12.694506,-10753
14:36:12.694506,-1
14:36:12.694506,-45
14:36:12.694506,-9985
14:36:12.694506,-1
14:36:12.694506,-40
14:36:13.234997,-40
14:36:13.234997,-9985
14:36:13.234997,-1
14:36:13.234997,-40
14:36:13.234997,-9985
14:36:13.234997,-1
14:36:13.234997,-38
14:36:13.234997,-9473
14:36:13.234997,-1
14:36:13.234997,-38
14:36:13.234997,-9985
14:36:13.234997,-1
14:36:13.234997,-31
14:36:13.234997,-5121
14:36:13.234997,-1
14:36:13.234997,-26
14:36:13.234997,-8705
14:36:13.234997,-1
14:36:13.234997,-33
14:36:13.234997,-8193
14:36:13.234997,-1
14:36:13.234997,-31
14:36:13.234997,-3841
14:36:13.234997,-1
14:36:13.234997,-2
14:36:13.234997,255
14:36:13.234997,0
14:36:13.234997,-2
14:36:13.234997,-2561
14:36:13.234997,-1
14:36:13.234997,-19
14:36:13.234997,-3841
14:36:13.234997,-1
14:36:13.234997,-16
14:36:13.234997,-4609
14:36:13.234997,-1
14:36:13.234997,-21
14:36:13.234997,-5633
14:36:13.234997,-1
14:36:13.234997,-40
14:36:13.234997,-23553
14:36:13.234997,-1
14:36:13.234997,-139
14:36:13.234997,-4609
14:36:13.234997,-1
14:36:13.234997,383
14:36:13.234997,7680
14:36:13.234997,3
14:36:13.234997,757
14:36:13.234997,-26880
14:36:13.234997,1
14:36:13.234997,194
14:36:13.234997,19456
14:36:13.234997,0
14:36:13.234997,-57
14:36:13.234997,-28417
14:36:13.234997,-1
14:36:13.234997,-117
14:36:13.234997,30975
14:36:13.234997,-1
14:36:13.234997,-153
14:36:13.234997,26111
14:36:13.234997,-1
14:36:13.234997,-139
14:36:13.234997,-26625
14:36:13.234997,-1
14:36:13.234997,-88
14:36:13.234997,-24065
14:36:13.234997,-1
14:36:13.234997,-91
14:36:13.234997,-19969
14:36:13.234997,-1
14:36:13.234997,-79
14:36:13.234997,-23041
14:36:13.234997,-1
14:36:13.234997,-100
14:36:13.234997,-29697
14:36:13.234997,-1
14:36:13.234997,-127
14:36:13.234997,-27137
14:36:13.234997,-1
14:36:13.234997,-81
14:36:13.234997,-21761
14:36:13.234997,-1
14:36:13.234997,-86
14:36:13.234997,-6913
14:36:13.234997,-1
14:36:13.234997,9
14:36:13.234997,-4096
14:36:13.234997,-1
14:36:13.234997,-26
14:36:13.234997,-5121
14:36:13.234997,-1
14:36:13.234997,-31
14:36:13.234997,-8705
14:36:13.234997,-1
14:36:13.234997,-64
14:36:13.234997,-27905
14:36:13.234997,-1
14:36:13.234997,-93
14:36:13.234997,-15617
14:36:13.234997,-1
14:36:13.234997,-93
14:36:13.234997,-27905
14:36:13.234997,-1
14:36:13.234997,-81
14:36:13.234997,-22273
14:36:13.234997,-1
14:36:13.234997,-103
14:36:13.804569,-67
14:36:13.804569,-14337
14:36:13.804569,-1
14:36:13.804569,-100
14:36:13.804569,-26625
14:36:13.804569,-1
14:36:13.804569,-76
14:36:13.804569,-15617
14:36:13.804569,-1
14:36:13.804569,-64
14:36:13.804569,-16129
14:36:13.804569,-1
14:36:13.804569,-55
14:36:13.804569,-12545
14:36:13.804569,-1
14:36:13.804569,-62
14:36:13.804569,-15617
14:36:13.804569,-1
14:36:13.804569,-38
14:36:13.804569,-8193
14:36:13.804569,-1
14:36:13.804569,-62
14:36:13.804569,-15617
14:36:13.804569,-1
14:36:13.804569,-33
14:36:13.804569,-7681
14:36:13.804569,-1
14:36:13.804569,-31
14:36:13.804569,-8193
14:36:13.804569,-1
14:36:13.804569,-55
14:36:13.804569,-13825
14:36:13.804569,-1
14:36:13.804569,-47
14:36:13.804569,-18689
14:36:13.804569,-1
14:36:13.804569,-62
14:36:13.804569,-769
14:36:13.804569,-1
14:36:13.804569,-16
14:36:13.804569,-11777
14:36:13.804569,-1
14:36:13.804569,-33
14:36:13.804569,-11777
14:36:13.804569,-1
14:36:13.804569,-74
14:36:13.804569,-16129
14:36:13.804569,-1
14:36:13.804569,-57
14:36:13.804569,-16897
14:36:13.804569,-1
14:36:13.804569,-45
14:36:13.804569,2047
14:36:13.804569,0
14:36:13.804569,11
14:36:13.804569,-8960
14:36:13.804569,-1
14:36:13.804569,-31
14:36:13.804569,1279
14:36:13.804569,0
14:36:13.804569,-19
14:36:13.804569,-16129
14:36:13.804569,-1
14:36:13.804569,-88
14:36:13.804569,-16897
14:36:13.804569,-1
14:36:13.804569,4
14:36:13.804569,-1024
14:36:13.804569,-1
14:36:13.804569,-119
14:36:13.804569,22271
14:36:13.804569,-1
14:36:13.804569,-7
14:36:13.804569,-13057
14:36:13.804569,1
14:36:13.804569,932
14:36:13.804569,-28416
14:36:13.804569,3
14:36:13.804569,539
14:36:13.804569,-10496
14:36:13.804569,0
14:36:13.804569,-26
14:36:13.804569,-30977
14:36:13.804569,-1
14:36:13.804569,-93
14:36:13.804569,-29697
14:36:13.804569,-1
14:36:13.804569,-158
14:36:13.804569,29695
14:36:13.804569,-1
14:36:13.804569,-141
14:36:13.804569,20479
14:36:13.804569,-1
14:36:13.804569,-184
14:36:13.804569,-30977
14:36:13.804569,-1
14:36:13.804569,-107
14:36:13.804569,21759
14:36:13.804569,-1
14:36:13.804569,-146
14:36:13.804569,-21761
14:36:13.804569,-1
14:36:13.804569,-136
14:36:13.804569,23551
14:36:13.804569,-1
14:36:13.804569,-136
14:36:13.804569,26111
14:36:13.804569,-1
14:36:13.804569,-146
14:36:14.345352,-98
14:36:14.345352,-27905
14:36:14.345352,-1
14:36:14.345352,-122
14:36:14.345352,-30209
14:36:14.345352,-1
14:36:14.345352,-136
14:36:14.345352,-27137
14:36:14.345352,-1
14:36:14.345352,-55
14:36:14.345352,-13057
14:36:14.345352,-1
14:36:14.345352,-57
14:36:14.345352,-7681
14:36:14.345352,-1
14:36:14.345352,-57
14:36:14.345352,-29185
14:36:14.345352,-1
14:36:14.345352,-103
14:36:14.345352,-12545
14:36:14.345352,-1
14:36:14.345352,-40
14:36:14.345352,-21761
14:36:14.345352,-1
14:36:14.345352,-112
14:36:14.345352,-17921
14:36:14.345352,-1
14:36:14.345352,-43
14:36:14.345352,-11777
14:36:14.345352,-1
14:36:14.345352,-55
14:36:14.345352,-20481
14:36:14.345352,-1
14:36:14.345352,-93
14:36:14.345352,-17921
14:36:14.345352,-1
14:36:14.345352,-93
14:36:14.345352,-26625
14:36:14.345352,-1
14:36:14.345352,-50
14:36:14.345352,-8193
14:36:14.345352,-1
14:36:14.345352,-57
14:36:14.345352,-13825
14:36:14.345352,-1
14:36:14.345352,-47
14:36:14.345352,-16129
14:36:14.345352,-1
14:36:14.345352,-81
14:36:14.345352,-20481
14:36:14.345352,-1
14:36:14.345352,-67
14:36:14.345352,-14849
14:36:14.345352,-1
14:36:14.345352,-57
14:36:14.345352,-14849
14:36:14.345352,-1
14:36:14.345352,-59
14:36:14.345352,-11265
14:36:14.345352,-1
14:36:14.345352,-57
14:36:14.345352,-24065
14:36:14.345352,-1
14:36:14.345352,-88
14:36:14.345352,-14849
14:36:14.345352,-1
14:36:14.345352,-88
14:36:14.345352,-23041
14:36:14.345352,-1
14:36:14.345352,-26
14:36:14.345352,-6401
14:36:14.345352,-1
14:36:14.345352,-86
14:36:14.345352,-23041
14:36:14.345352,-1
14:36:14.345352,-45
14:36:14.345352,-3329
14:36:14.345352,-1
14:36:14.345352,-45
14:36:14.345352,-13825
14:36:14.345352,-1
14:36:14.345352,-11
14:36:14.345352,-6913
14:36:14.345352,-1
14:36:14.345352,-69
14:36:14.345352,-9473
14:36:14.345352,-1
14:36:14.345352,-21
14:36:14.345352,-13057
14:36:14.345352,-1
14:36:14.345352,-67
14:36:14.345352,-16897
14:36:14.345352,-1
14:36:14.345352,-100
14:36:14.345352,21247
14:36:14.345352,-1
14:36:14.345352,-153
14:36:14.345352,-14593
14:36:14.345352,0
14:36:14.345352,798
14:36:14.345352,14336
14:36:14.345352,4
14:36:14.345352,802
14:36:14.345352,32000
14:36:14.345352,1
14:36:14.345352,86
14:36:14.345352,-23296
14:36:14.345352,-1
14:36:14.345352,-146
14:36:14.944540,-141
14:36:14.944540,21759
14:36:14.944540,-1
14:36:14.944540,-203
14:36:14.944540,25343
14:36:14.944540,-1
14:36:14.944540,-95
14:36:14.944540,-30977
14:36:14.944540,-1
14:36:14.944540,-148
14:36:14.944540,-27137
14:36:14.944540,-1
14:36:14.944540,-100
14:36:14.944540,32255
14:36:14.944540,-1
14:36:14.944540,-124
14:36:14.944540,-28417
14:36:14.944540,-1
14:36:14.944540,-134
14:36:14.944540,29695
14:36:14.944540,-1
14:36:14.944540,-100
14:36:14.944540,-19201
14:36:14.944540,-1
14:36:14.944540,-100
14:36:14.944540,-29185
14:36:14.944540,-1
14:36:14.944540,-105
14:36:14.944540,-26625
14:36:14.944540,-1
14:36:14.944540,-105
14:36:14.944540,-24833
14:36:14.944540,-1
14:36:14.944540,-95
14:36:14.944540,-20993
14:36:14.944540,-1
14:36:14.944540,-55
14:36:14.944540,-8193
14:36:14.944540,-1
14:36:14.944540,-47
14:36:14.944540,-16897
14:36:14.944540,-1
14:36:14.944540,-64
14:36:14.944540,-16897
14:36:14.944540,-1
14:36:14.944540,-74
14:36:14.944540,-17921
14:36:14.944540,-1
14:36:14.944540,-67
14:36:14.944540,-17409
14:36:14.944540,-1
14:36:14.944540,-69
14:36:14.944540,-14337
14:36:14.944540,-1
14:36:14.944540,-43
14:36:14.944540,-12545
14:36:14.944540,-1
14:36:14.944540,-55
14:36:14.944540,-11265
14:36:14.944540,-1
14:36:14.944540,-43
14:36:14.944540,-13057
14:36:14.944540,-1
14:36:14.944540,-59
14:36:14.944540,-16129
14:36:14.944540,-1
14:36:14.944540,-55
14:36:14.944540,-8193
14:36:14.944540,-1
14:36:14.944540,-28
14:36:14.944540,-8705
14:36:14.944540,-1
14:36:14.944540,-31
14:36:14.944540,-8193
14:36:14.944540,-1
14:36:14.944540,-43
14:36:14.944540,-9985
14:36:14.944540,-1
14:36:14.944540,-40
14:36:14.944540,-11777
14:36:14.944540,-1
14:36:14.944540,-52
14:36:14.944540,-12545
14:36:14.944540,-1
14:36:14.944540,-38
14:36:14.944540,-5633
14:36:14.944540,-1
14:36:14.944540,-14
14:36:14.944540,-3841
14:36:14.944540,-1
14:36:14.944540,-26
14:36:14.944540,-6913
14:36:14.944540,-1
14:36:14.944540,-33
14:36:14.944540,-9473
14:36:14.944540,-1
14:36:14.944540,-35
14:36:14.944540,-7681
14:36:14.944540,-1
14:36:14.944540,-19
14:36:14.944540,-1537
14:36:14.944540,-1
14:36:14.944540,0
14:36:14.944540,512
14:36:14.944540,0
14:36:14.944540,4
14:36:14.944540,-1024
14:36:14.944540,-1
14:36:14.944540,-16
14:36:15.514551,-16
14:36:15.514551,-3841
14:36:15.514551,-1
14:36:15.514551,-21
14:36:15.514551,-5633
14:36:15.514551,-1
14:36:15.514551,-23
14:36:15.514551,-8705
14:36:15.514551,-1
14:36:15.514551,-91
14:36:15.514551,29695
14:36:15.514551,-1
14:36:15.514551,19
14:36:15.514551,4352
14:36:15.514551,2
14:36:15.514551,1037
14:36:15.514551,-6400
14:36:15.514551,3
14:36:15.514551,575
14:36:15.514551,-7936
14:36:15.514551,0
14:36:15.514551,21
14:36:15.514551,-20224
14:36:15.514551,-1
14:36:15.514551,-86
14:36:15.514551,-25345
14:36:15.514551,-1
14:36:15.514551,-134
14:36:15.514551,32255
14:36:15.514551,-1
14:36:15.514551,-119
14:36:15.514551,-31489
14:36:15.514551,-1
14:36:15.514551,-127
14:36:15.514551,-30209
14:36:15.514551,-1
14:36:15.514551,-112
14:36:15.514551,-29697
14:36:15.514551,-1
14:36:15.514551,-131
14:36:15.514551,30975
14:36:15.514551,-1
14:36:15.514551,-103
14:36:15.514551,-17921
14:36:15.514551,-1
14:36:15.514551,-86
14:36:15.514551,-26113
14:36:15.514551,-1
14:36:15.514551,-98
14:36:15.514551,-24833
14:36:15.514551,-1
14:36:15.514551,-103
14:36:15.514551,-24833
14:36:15.514551,-1
14:36:15.514551,-93
14:36:15.514551,-24065
14:36:15.514551,-1
14:36:15.514551,-88
14:36:15.514551,-16897
14:36:15.514551,-1
14:36:15.514551,-50
14:36:15.514551,-11777
14:36:15.514551,-1
14:36:15.514551,-52
14:36:15.514551,-14849
14:36:15.514551,-1
14:36:15.514551,-64
14:36:15.514551,-16897
14:36:15.514551,-1
14:36:15.514551,-71
14:36:15.514551,-16129
14:36:15.514551,-1
14:36:15.514551,-62
14:36:15.514551,-16129
14:36:15.514551,-1
14:36:15.514551,-57
14:36:15.514551,-11777
14:36:15.514551,-1
14:36:15.514551,-50
14:36:15.514551,-14849
14:36:15.514551,-1
14:36:15.514551,-50
14:36:15.514551,-9985
14:36:15.514551,-1
14:36:15.514551,-52
14:36:15.514551,-14337
14:36:15.514551,-1
14:36:15.514551,-47
14:36:15.514551,-11777
14:36:15.514551,-1
14:36:15.514551,-55
14:36:15.514551,-9473
14:36:15.514551,-1
14:36:15.514551,-33
14:36:15.514551,-11265
14:36:15.514551,-1
14:36:15.514551,-45
14:36:15.514551,-9985
14:36:15.514551,-1
14:36:15.514551,-50
14:36:15.514551,-13057
14:36:15.514551,-1
14:36:15.514551,-35
14:36:15.514551,-6913
14:36:15.514551,-1
14:36:15.514551,-35
14:36:15.514551,-9473
14:36:15.514551,-1
14:36:15.514551,-35
14:36:16.054541,-40
14:36:16.054541,-10753
14:36:16.054541,-1
14:36:16.054541,-40
14:36:16.054541,-10753
14:36:16.054541,-1
14:36:16.054541,-50
14:36:16.054541,-14337
14:36:16.054541,-1
14:36:16.054541,-52
14:36:16.054541,-11777
14:36:16.054541,-1
14:36:16.054541,-50
14:36:16.054541,-9473
14:36:16.054541,-1
14:36:16.054541,-7
14:36:16.054541,767
14:36:16.054541,0
14:36:16.054541,-4
14:36:16.054541,767
14:36:16.054541,0
14:36:16.054541,7
14:36:16.054541,-2304
14:36:16.054541,-1
14:36:16.054541,-23
14:36:16.054541,-4609
14:36:16.054541,-1
14:36:16.054541,-16
14:36:16.054541,-4609
14:36:16.054541,-1
14:36:16.054541,-14
14:36:16.054541,-1537
14:36:16.054541,-1
14:36:16.054541,-31
14:36:16.054541,-24065
14:36:16.054541,-1
14:36:16.054541,-131
14:36:16.054541,8703
14:36:16.054541,0
14:36:16.054541,520
14:36:16.054541,-11264
14:36:16.054541,3
14:36:16.054541,922
14:36:16.054541,-512
14:36:16.054541,1
14:36:16.054541,177
14:36:16.054541,-3584
14:36:16.054541,-1
14:36:16.054541,-115
14:36:16.054541,29695
14:36:16.054541,-1
14:36:16.054541,-148
14:36:16.054541,26623
14:36:16.054541,-1
14:36:16.054541,-153
14:36:16.054541,27391
14:36:16.054541,-1
14:36:16.054541,-146
14:36:16.054541,29695
14:36:16.054541,-1
14:36:16.054541,-136
14:36:16.054541,30975
14:36:16.054541,-1
14:36:16.054541,-141
14:36:16.054541,30975
14:36:16.054541,-1
14:36:16.054541,-127
14:36:16.054541,-30977
14:36:16.054541,-1
14:36:16.054541,-119
14:36:16.054541,-30209
14:36:16.054541,-1
14:36:16.054541,-122
14:36:16.054541,-29697
14:36:16.054541,-1
14:36:16.054541,-110
14:36:16.054541,-29185
14:36:16.054541,-1
14:36:16.054541,-117
14:36:16.054541,-28417
14:36:16.054541,-1
14:36:16.054541,-110
14:36:16.054541,-24833
14:36:16.054541,-1
14:36:16.054541,-79
14:36:16.054541,-18689
14:36:16.054541,-1
14:36:16.054541,-74
14:36:16.054541,-17409
14:36:16.054541,-1
14:36:16.054541,-76
14:36:16.054541,-20993
14:36:16.054541,-1
14:36:16.054541,-83
14:36:16.054541,-20993
14:36:16.054541,-1
14:36:16.054541,-83
14:36:16.054541,-21761
14:36:16.054541,-1
14:36:16.054541,-88
14:36:16.054541,-19969
14:36:16.054541,-1
14:36:16.054541,-64
14:36:16.054541,-16129
14:36:16.054541,-1
14:36:16.054541,-76
14:36:16.054541,-19201
14:36:16.054541,-1
14:36:16.054541,-64
14:36:16.624536,-62
14:36:16.624536,-15617
14:36:16.624536,-1
14:36:16.624536,-59
14:36:16.624536,-14849
14:36:16.624536,-1
14:36:16.624536,-62
14:36:16.624536,-15617
14:36:16.624536,-1
14:36:16.624536,-62
14:36:16.624536,-11265
14:36:16.624536,-1
14:36:16.624536,-23
14:36:16.624536,-6401
14:36:16.624536,-1
14:36:16.624536,-33
14:36:16.624536,-5121
14:36:16.624536,-1
14:36:16.624536,-16
14:36:16.624536,-6913
14:36:16.624536,-1
14:36:16.624536,-26
14:36:16.624536,-5121
14:36:16.624536,-1
14:36:16.624536,-26
14:36:16.624536,-7681
14:36:16.624536,-1
14:36:16.624536,-31
14:36:16.624536,-10753
14:36:16.624536,-1
14:36:16.624536,-43
14:36:16.624536,-4609
14:36:16.624536,-1
14:36:16.624536,-19
14:36:16.624536,-10753
14:36:16.624536,-1
14:36:16.624536,-40
14:36:16.624536,-7681
14:36:16.624536,-1
14:36:16.624536,-43
14:36:16.624536,-11777
14:36:16.624536,-1
14:36:16.624536,-43
14:36:16.624536,-9985
14:36:16.624536,-1
14:36:16.624536,-31
14:36:16.624536,-2049
14:36:16.624536,-1
14:36:16.624536,-7
14:36:16.624536,-5121
14:36:16.624536,-1
14:36:16.624536,-33
14:36:16.624536,-8705
14:36:16.624536,-1
14:36:16.624536,-35
14:36:16.624536,-8705
14:36:16.624536,-1
14:36:16.624536,-35
14:36:16.624536,-9985
14:36:16.624536,-1
14:36:16.624536,-52
14:36:16.624536,-23553
14:36:16.624536,-1
14:36:16.624536,-148
14:36:16.624536,32767
14:36:16.624536,-1
14:36:16.624536,112
14:36:16.624536,27136
14:36:16.624536,2
14:36:16.624536,989
14:36:16.624536,13056
14:36:16.624536,3
14:36:16.624536,405
14:36:16.624536,29952
14:36:16.624536,0
14:36:16.624536,-52
14:36:16.624536,31487
14:36:16.624536,-1
14:36:16.624536,-150
14:36:16.624536,24831
14:36:16.624536,-1
14:36:16.624536,-174
14:36:16.624536,21759
14:36:16.624536,-1
14:36:16.624536,-160
14:36:16.624536,28415
14:36:16.624536,-1
14:36:16.624536,-136
14:36:16.624536,29695
14:36:16.624536,-1
14:36:16.624536,-141
14:36:16.624536,32767
14:36:16.624536,-1
14:36:16.624536,-129
14:36:16.624536,30975
14:36:16.624536,-1
14:36:16.624536,-131
14:36:16.624536,-32257
14:36:16.624536,-1
14:36:16.624536,-122
14:36:16.624536,-30977
14:36:16.624536,-1
14:36:16.624536,-124
14:36:16.624536,-30209
14:36:16.624536,-1
14:36:16.624536,-117
14:36:16.624536,-27137
14:36:16.624536,-1
14:36:16.624536,-93
14:36:17.164537,-93
14:36:17.164537,-23553
14:36:17.164537,-1
14:36:17.164537,-81
14:36:17.164537,-19201
14:36:17.164537,-1
14:36:17.164537,-74
14:36:17.164537,-18689
14:36:17.164537,-1
14:36:17.164537,-74
14:36:17.164537,-17409
14:36:17.164537,-1
14:36:17.164537,-59
14:36:17.164537,-13057
14:36:17.164537,-1
14:36:17.164537,-52
14:36:17.164537,-13825
14:36:17.164537,-1
14:36:17.164537,-55
14:36:17.164537,-13825
14:36:17.164537,-1
14:36:17.164537,-52
14:36:17.164537,-14337
14:36:17.164537,-1
14:36:17.164537,-57
14:36:17.164537,-14337
14:36:17.164537,-1
14:36:17.164537,-67
14:36:17.164537,-14337
14:36:17.164537,-1
14:36:17.164537,-38
14:36:17.164537,-11777
14:36:17.164537,-1
14:36:17.164537,-59
14:36:17.164537,-11265
14:36:17.164537,-1
14:36:17.164537,-43
14:36:17.164537,-13057
14:36:17.164537,-1
14:36:17.164537,-57
14:36:17.164537,-12545
14:36:17.164537,-1
14:36:17.164537,-38
14:36:17.164537,-10753
14:36:17.164537,-1
14:36:17.164537,-50
14:36:17.164537,-12545
14:36:17.164537,-1
14:36:17.164537,-47
14:36:17.164537,-11777
14:36:17.164537,-1
14:36:17.164537,-50
14:36:17.164537,-12545
14:36:17.164537,-1
14:36:17.164537,-50
14:36:17.164537,-11265
14:36:17.164537,-1
14:36:17.164537,-50
14:36:17.164537,-14337
14:36:17.164537,-1
14:36:17.164537,-52
14:36:17.164537,-12545
14:36:17.164537,-1
14:36:17.164537,-57
14:36:17.164537,-16129
14:36:17.164537,-1
14:36:17.164537,-67
14:36:17.164537,-16129
14:36:17.164537,-1
14:36:17.164537,-55
14:36:17.164537,-11265
14:36:17.164537,-1
14:36:17.164537,-35
14:36:17.164537,-6913
14:36:17.164537,-1
14:36:17.164537,-28
14:36:17.164537,-8705
14:36:17.164537,-1
14:36:17.164537,-47
14:36:17.164537,-13057
14:36:17.164537,-1
14:36:17.164537,-45
14:36:17.164537,-9985
14:36:17.164537,-1
14:36:17.164537,-52
14:36:17.164537,-13057
14:36:17.164537,-1
14:36:17.164537,-43
14:36:17.164537,-20993
14:36:17.164537,-1
14:36:17.164537,-155
14:36:17.164537,-31489
14:36:17.164537,-1
14:36:17.164537,208
14:36:17.164537,2560
14:36:17.164537,3
14:36:17.164537,997
14:36:17.164537,-28672
14:36:17.164537,2
14:36:17.164537,285
14:36:17.164537,24320
14:36:17.164537,0
14:36:17.164537,-52
14:36:17.164537,30975
14:36:17.164537,-1
14:36:17.164537,-148
14:36:17.164537,26623
14:36:17.164537,-1
14:36:17.164537,-162
14:36:17.704541,-155
14:36:17.704541,27903
14:36:17.704541,-1
14:36:17.704541,-148
14:36:17.704541,28415
14:36:17.704541,-1
14:36:17.704541,-136
14:36:17.704541,-27905
14:36:17.704541,-1
14:36:17.704541,-93
14:36:17.704541,-24065
14:36:17.704541,-1
14:36:17.704541,-100
14:36:17.704541,-23041
14:36:17.704541,-1
14:36:17.704541,-88
14:36:17.704541,-24065
14:36:17.704541,-1
14:36:17.704541,-95
14:36:17.704541,-23553
14:36:17.704541,-1
14:36:17.704541,-95
14:36:17.704541,-23041
14:36:17.704541,-1
14:36:17.704541,-81
14:36:17.704541,-20481
14:36:17.704541,-1
14:36:17.704541,-74
14:36:17.704541,-15617
14:36:17.704541,-1
14:36:17.704541,-59
14:36:17.704541,-14337
14:36:17.704541,-1
14:36:17.704541,-47
14:36:17.704541,-11265
14:36:17.704541,-1
14:36:17.704541,-57
14:36:17.704541,-16129
14:36:17.704541,-1
14:36:17.704541,-57
14:36:17.704541,-14337
14:36:17.704541,-1
14:36:17.704541,-62
14:36:17.704541,-13825
14:36:17.704541,-1
14:36:17.704541,-47
14:36:17.704541,-13057
14:36:17.704541,-1
14:36:17.704541,-62
14:36:17.704541,-14849
14:36:17.704541,-1
14:36:17.704541,-50
14:36:17.704541,-13057
14:36:17.704541,-1
14:36:17.704541,-55
14:36:17.704541,-11265
14:36:17.704541,-1
14:36:17.704541,-38
14:36:17.704541,-9985
14:36:17.704541,-1
14:36:17.704541,-40
14:36:17.704541,-9985
14:36:17.704541,-1
14:36:17.704541,-40
14:36:17.704541,-8193
14:36:17.704541,-1
14:36:17.704541,-31
14:36:17.704541,-8193
14:36:17.704541,-1
14:36:17.704541,-33
14:36:17.704541,-6913
14:36:17.704541,-1
14:36:17.704541,-28
14:36:17.704541,-8705
14:36:17.704541,-1
14:36:17.704541,-33
14:36:17.704541,-5633
14:36:17.704541,-1
14:36:17.704541,-26
14:36:17.704541,-8705
14:36:17.704541,-1
14:36:17.704541,-35
14:36:17.704541,-9985
14:36:17.704541,-1
14:36:17.704541,-40
14:36:17.704541,-6913
14:36:17.704541,-1
14:36:17.704541,-23
14:36:17.704541,-5121
14:36:17.704541,-1
14:36:17.704541,-9
14:36:17.704541,-769
14:36:17.704541,-1
14:36:17.704541,-9
14:36:17.704541,-4609
14:36:17.704541,-1
14:36:17.704541,-19
14:36:17.704541,-2561
14:36:17.704541,-1
14:36:17.704541,-9
14:36:17.704541,-3329
14:36:17.704541,-1
14:36:17.704541,-19
14:36:17.704541,-6401
14:36:17.704541,-1
14:36:17.704541,-55
14:36:17.704541,-29697
14:36:17.704541,-1
14:36:17.704541,-136
14:36:18.304497,103
14:36:18.304497,-23808
14:36:18.304497,2
14:36:18.304497,1085
14:36:18.304497,-31488
14:36:18.304497,3
14:36:18.304497,469
14:36:18.304497,-19712
14:36:18.304497,0
14:36:18.304497,4
14:36:18.304497,-25088
14:36:18.304497,-1
14:36:18.304497,-127
14:36:18.304497,29695
14:36:18.304497,-1
14:36:18.304497,-143
14:36:18.304497,30975
14:36:18.304497,-1
14:36:18.304497,-141
14:36:18.304497,28415
14:36:18.304497,-1
14:36:18.304497,-131
14:36:18.304497,-30209
14:36:18.304497,-1
14:36:18.304497,-129
14:36:18.304497,30975
14:36:18.304497,-1
14:36:18.304497,-127
14:36:18.304497,-30977
14:36:18.304497,-1
14:36:18.304497,-124
14:36:18.304497,-31489
14:36:18.304497,-1
14:36:18.304497,-127
14:36:18.304497,32255
14:36:18.304497,-1
14:36:18.304497,-119
14:36:18.304497,-27137
14:36:18.304497,-1
14:36:18.304497,-117
14:36:18.304497,-30977
14:36:18.304497,-1
14:36:18.304497,-112
14:36:18.304497,-27137
14:36:18.304497,-1
14:36:18.304497,-100
14:36:18.304497,-22273
14:36:18.304497,-1
14:36:18.304497,-79
14:36:18.304497,-19201
14:36:18.304497,-1
14:36:18.304497,-67
14:36:18.304497,-14849
14:36:18.304497,-1
14:36:18.304497,-69
14:36:18.304497,-17921
14:36:18.304497,-1
14:36:18.304497,-59
14:36:18.304497,-12545
14:36:18.304497,-1
14:36:18.304497,-52
14:36:18.304497,-13825
14:36:18.304497,-1
14:36:18.304497,-57
14:36:18.304497,-13057
14:36:18.304497,-1
14:36:18.304497,-47
14:36:18.304497,-13057
14:36:18.304497,-1
14:36:18.304497,-52
14:36:18.304497,-10753
14:36:18.304497,-1
14:36:18.304497,-47
14:36:18.304497,-13057
14:36:18.304497,-1
14:36:18.304497,-45
14:36:18.304497,-10753
14:36:18.304497,-1
14:36:18.304497,-45
14:36:18.304497,-10753
14:36:18.304497,-1
14:36:18.304497,-35
14:36:18.304497,-9473
14:36:18.304497,-1
14:36:18.304497,-40
14:36:18.304497,-8705
14:36:18.304497,-1
14:36:18.304497,-31
14:36:18.304497,-6913
14:36:18.304497,-1
14:36:18.304497,-33
14:36:18.304497,-9985
14:36:18.304497,-1
14:36:18.304497,-40
14:36:18.304497,-9473
14:36:18.304497,-1
14:36:18.304497,-43
14:36:18.304497,-9473
14:36:18.304497,-1
14:36:18.304497,-28
14:36:18.304497,-5121
14:36:18.304497,-1
14:36:18.304497,-11
14:36:18.304497,-769
14:36:18.304497,-1
14:36:18.304497,-9
14:36:18.304497,-5121
14:36:18.304497,-1
14:36:18.304497,-23
14:36:18.905285,-23
14:36:18.905285,-6913
14:36:18.905285,-1
14:36:18.905285,-28
14:36:18.905285,-8193
14:36:18.905285,-1
14:36:18.905285,-40
14:36:18.905285,-17409
14:36:18.905285,-1
14:36:18.905285,-136
14:36:18.905285,28415
14:36:18.905285,-1
14:36:18.905285,134
14:36:18.905285,-12032
14:36:18.905285,2
14:36:18.905285,1080
14:36:18.905285,17408
14:36:18.905285,3
14:36:18.905285,400
14:36:18.905285,-32000
14:36:18.905285,0
14:36:18.905285,-26
14:36:18.905285,-28417
14:36:18.905285,-1
14:36:18.905285,-139
14:36:18.905285,27903
14:36:18.905285,-1
14:36:18.905285,-153
14:36:18.905285,26623
14:36:18.905285,-1
14:36:18.905285,-150
14:36:18.905285,29183
14:36:18.905285,-1
14:36:18.905285,-148
14:36:18.905285,27903
14:36:18.905285,-1
14:36:18.905285,-146
14:36:18.905285,27903
14:36:18.905285,-1
14:36:18.905285,-146
14:36:18.905285,-32257
14:36:18.905285,-1
14:36:18.905285,-119
14:36:18.905285,31487
14:36:18.905285,-1
14:36:18.905285,-131
14:36:18.905285,-29697
14:36:18.905285,-1
14:36:18.905285,-129
14:36:18.905285,29695
14:36:18.905285,-1
14:36:18.905285,-131
14:36:18.905285,-30977
14:36:18.905285,-1
14:36:18.905285,-124
14:36:18.905285,-27905
14:36:18.905285,-1
14:36:18.905285,-93
14:36:18.905285,-23553
14:36:18.905285,-1
14:36:18.905285,-81
14:36:18.905285,-16129
14:36:18.905285,-1
14:36:18.905285,-71
14:36:18.905285,-19969
14:36:18.905285,-1
14:36:18.905285,-74
14:36:18.905285,-17921
14:36:18.905285,-1
14:36:18.905285,-71
14:36:18.905285,-17921
14:36:18.905285,-1
14:36:18.905285,-64
14:36:18.905285,-14849
14:36:18.905285,-1
14:36:18.905285,-57
14:36:18.905285,-13825
14:36:18.905285,-1
14:36:18.905285,-50
14:36:18.905285,-13825
14:36:18.905285,-1
14:36:18.905285,-59
14:36:18.905285,-13825
14:36:18.905285,-1
14:36:18.905285,-47
14:36:18.905285,-11265
14:36:18.905285,-1
14:36:18.905285,-47
14:36:18.905285,-11777
14:36:18.905285,-1
14:36:18.905285,-43
14:36:18.905285,-10753
14:36:18.905285,-1
14:36:18.905285,-47
14:36:18.905285,-10753
14:36:18.905285,-1
14:36:18.905285,-45
14:36:18.905285,-13057
14:36:18.905285,-1
14:36:18.905285,-47
14:36:18.905285,-8705
14:36:18.905285,-1
14:36:18.905285,-35
14:36:18.905285,-9985
14:36:18.905285,-1
14:36:18.905285,-47
14:36:18.905285,-13825
14:36:18.905285,-1
14:36:18.905285,-57
14:36:19.414556,-59
14:36:19.414556,-13057
14:36:19.414556,-1
14:36:19.414556,-45
14:36:19.414556,-11777
14:36:19.414556,-1
14:36:19.414556,-38
14:36:19.414556,-769
14:36:19.414556,-1
14:36:19.414556,-4
14:36:19.414556,-9985
14:36:19.414556,-1
14:36:19.414556,-40
14:36:19.414556,-6401
14:36:19.414556,-1
14:36:19.414556,-35
14:36:19.414556,-9985
14:36:19.414556,-1
14:36:19.414556,-33
14:36:19.414556,-7681
14:36:19.414556,-1
14:36:19.414556,-55
14:36:19.414556,-30977
14:36:19.414556,-1
14:36:19.414556,-146
14:36:19.414556,18431
14:36:19.414556,0
14:36:19.414556,608
14:36:19.414556,4608
14:36:19.414556,4
14:36:19.414556,908
14:36:19.414556,-12288
14:36:19.414556,1
14:36:19.414556,148
14:36:19.414556,-5888
14:36:19.414556,-1
14:36:19.414556,-117
14:36:19.414556,27903
14:36:19.414556,-1
14:36:19.414556,-165
14:36:19.414556,23551
14:36:19.414556,-1
14:36:19.414556,-158
14:36:19.414556,26623
14:36:19.414556,-1
14:36:19.414556,-155
14:36:19.414556,26111
14:36:19.414556,-1
14:36:19.414556,-150
14:36:19.414556,28415
14:36:19.414556,-1
14:36:19.414556,-148
14:36:19.414556,26623
14:36:19.414556,-1
14:36:19.414556,-146
14:36:19.414556,32255
14:36:19.414556,-1
14:36:19.414556,-134
14:36:19.414556,28415
14:36:19.414556,-1
14:36:19.414556,-141
14:36:19.414556,30975
14:36:19.414556,-1
14:36:19.414556,-139
14:36:19.414556,30975
14:36:19.414556,-1
14:36:19.414556,-127
14:36:19.414556,-32257
14:36:19.414556,-1
14:36:19.414556,-124
14:36:19.414556,-29697
14:36:19.414556,-1
14:36:19.414556,-107
14:36:19.414556,-22273
14:36:19.414556,-1
14:36:19.414556,-83
14:36:19.414556,-23041
14:36:19.414556,-1
14:36:19.414556,-91
14:36:19.414556,-21761
14:36:19.414556,-1
14:36:19.414556,-86
14:36:19.414556,-22273
14:36:19.414556,-1
14:36:19.414556,-79
14:36:19.414556,-19201
14:36:19.414556,-1
14:36:19.414556,-81
14:36:19.414556,-20481
14:36:19.414556,-1
14:36:19.414556,-83
14:36:19.414556,-19969
14:36:19.414556,-1
14:36:19.414556,-59
14:36:19.414556,-16129
14:36:19.414556,-1
14:36:19.414556,-81
14:36:19.414556,-19201
14:36:19.414556,-1
14:36:19.414556,-71
14:36:19.414556,-17921
14:36:19.414556,-1
14:36:19.414556,-69
14:36:19.414556,-17409
14:36:19.414556,-1
14:36:19.414556,-71
14:36:19.414556,-18689
14:36:19.414556,-1
14:36:19.414556,-71
14:36:19.984535,-57
14:36:19.984535,-13057
14:36:19.984535,-1
14:36:19.984535,-64
14:36:19.984535,-16897
14:36:19.984535,-1
14:36:19.984535,-57
14:36:19.984535,-14849
14:36:19.984535,-1
14:36:19.984535,-59
14:36:19.984535,-13825
14:36:19.984535,-1
14:36:19.984535,-55
14:36:19.984535,-13825
14:36:19.984535,-1
14:36:19.984535,-47
14:36:19.984535,-11265
14:36:19.984535,-1
14:36:19.984535,-43
14:36:19.984535,-7681
14:36:19.984535,-1
14:36:19.984535,-21
14:36:19.984535,-2561
14:36:19.984535,-1
14:36:19.984535,-16
14:36:19.984535,-8705
14:36:19.984535,-1
14:36:19.984535,-43
14:36:19.984535,-9473
14:36:19.984535,-1
14:36:19.984535,-38
14:36:19.984535,-8705
14:36:19.984535,-1
14:36:19.984535,-31
14:36:19.984535,-9473
14:36:19.984535,-1
14:36:19.984535,-55
14:36:19.984535,-27905
14:36:19.984535,-1
14:36:19.984535,-167
14:36:19.984535,-11777
14:36:19.984535,-1
14:36:19.984535,407
14:36:19.984535,-27392
14:36:19.984535,3
14:36:19.984535,920
14:36:19.984535,1280
14:36:19.984535,2
14:36:19.984535,206
14:36:19.984535,6656
14:36:19.984535,0
14:36:19.984535,-107
14:36:19.984535,29183
14:36:19.984535,-1
14:36:19.984535,-146
14:36:19.984535,23551
14:36:19.984535,-1
14:36:19.984535,-170
14:36:19.984535,25343
14:36:19.984535,-1
14:36:19.984535,-162
14:36:19.984535,24319
14:36:19.984535,-1
14:36:19.984535,-150
14:36:19.984535,29695
14:36:19.984535,-1
14:36:19.984535,-141
14:36:19.984535,29183
14:36:19.984535,-1
14:36:19.984535,-136
14:36:19.984535,31487
14:36:19.984535,-1
14:36:19.984535,-139
14:36:19.984535,31487
14:36:19.984535,-1
14:36:19.984535,-129
14:36:19.984535,31487
14:36:19.984535,-1
14:36:19.984535,-141
14:36:19.984535,32767
14:36:19.984535,-1
14:36:19.984535,-115
14:36:19.984535,-30977
14:36:19.984535,-1
14:36:19.984535,-119
14:36:19.984535,-24065
14:36:19.984535,-1
14:36:19.984535,-86
14:36:19.984535,-21761
14:36:19.984535,-1
14:36:19.984535,-76
14:36:19.984535,-17921
14:36:19.984535,-1
14:36:19.984535,-76
14:36:19.984535,-19969
14:36:19.984535,-1
14:36:19.984535,-81
14:36:19.984535,-19969
14:36:19.984535,-1
14:36:19.984535,-74
14:36:19.984535,-19201
14:36:19.984535,-1
14:36:19.984535,-79
14:36:19.984535,-16897
14:36:19.984535,-1
14:36:19.984535,-59
14:36:19.984535,-14849
14:36:19.984535,-1
14:36:19.984535,-55
14:36:20.524895,-50
14:36:20.524895,-11777
14:36:20.524895,-1
14:36:20.524895,-47
14:36:20.524895,-12545
14:36:20.524895,-1
14:36:20.524895,-50
14:36:20.524895,-11777
14:36:20.524895,-1
14:36:20.524895,-40
14:36:20.524895,-8705
14:36:20.524895,-1
14:36:20.524895,-28
14:36:20.524895,-3841
14:36:20.524895,-1
14:36:20.524895,-9
14:36:20.524895,-1537
14:36:20.524895,-1
14:36:20.524895,-4
14:36:20.524895,-2049
14:36:20.524895,-1
14:36:20.524895,-19
14:36:20.524895,-4609
14:36:20.524895,-1
14:36:20.524895,-9
14:36:20.524895,-2049
14:36:20.524895,-1
14:36:20.524895,-16
14:36:20.524895,-3841
14:36:20.524895,-1
14:36:20.524895,-23
14:36:20.524895,-8193
14:36:20.524895,-1
14:36:20.524895,-33
14:36:20.524895,-3329
14:36:20.524895,-1
14:36:20.524895,14
14:36:20.524895,1792
14:36:20.524895,0
14:36:20.524895,-4
14:36:20.524895,3071
14:36:20.524895,0
14:36:20.524895,11
14:36:20.524895,-1792
14:36:20.524895,-1
14:36:20.524895,-4
14:36:20.524895,255
14:36:20.524895,0
14:36:20.524895,-14
14:36:20.524895,-2561
14:36:20.524895,-1
14:36:20.524895,2
14:36:20.524895,-5888
14:36:20.524895,-1
14:36:20.524895,-91
14:36:20.524895,-30209
14:36:20.524895,-1
14:36:20.524895,88
14:36:20.524895,26368
14:36:20.524895,2
14:36:20.524895,1032
14:36:20.524895,-32256
14:36:20.524895,3
14:36:20.524895,460
14:36:20.524895,-29952
14:36:20.524895,0
14:36:20.524895,-9
14:36:20.524895,-20481
14:36:20.524895,-1
14:36:20.524895,-124
14:36:20.524895,29695
14:36:20.524895,-1
14:36:20.524895,-139
14:36:20.524895,27903
14:36:20.524895,-1
14:36:20.524895,-150
14:36:20.524895,32255
14:36:20.524895,-1
14:36:20.524895,-127
14:36:20.524895,30207
14:36:20.524895,-1
14:36:20.524895,-146
14:36:20.524895,30975
14:36:20.524895,-1
14:36:20.524895,-117
14:36:20.524895,-29185
14:36:20.524895,-1
14:36:20.524895,-124
14:36:20.524895,-29185
14:36:20.524895,-1
14:36:20.524895,-105
14:36:20.524895,-32257
14:36:20.524895,-1
14:36:20.524895,-143
14:36:20.524895,-31489
14:36:20.524895,-1
14:36:20.524895,-103
14:36:20.524895,-24833
14:36:20.524895,-1
14:36:20.524895,-100
14:36:20.524895,-24065
14:36:20.524895,-1
14:36:20.524895,-83
14:36:20.524895,-17921
14:36:20.524895,-1
14:36:20.524895,-69
14:36:20.524895,-16129
14:36:20.524895,-1
14:36:20.524895,-55
14:36:21.094483,-52
14:36:21.094483,-16129
14:36:21.094483,-1
14:36:21.094483,-74
14:36:21.094483,-13825
14:36:21.094483,-1
14:36:21.094483,-31
14:36:21.094483,-7681
14:36:21.094483,-1
14:36:21.094483,-31
14:36:21.094483,-5633
14:36:21.094483,-1
14:36:21.094483,-21
14:36:21.094483,-2561
14:36:21.094483,-1
14:36:21.094483,-14
14:36:21.094483,-7681
14:36:21.094483,-1
14:36:21.094483,-33
14:36:21.094483,-7681
14:36:21.094483,-1
14:36:21.094483,-28
14:36:21.094483,-4609
14:36:21.094483,-1
14:36:21.094483,-11
14:36:21.094483,-1537
14:36:21.094483,-1
14:36:21.094483,-4
14:36:21.094483,-1537
14:36:21.094483,-1
14:36:21.094483,-11
14:36:21.094483,-3841
14:36:21.094483,-1
14:36:21.094483,-19
14:36:21.094483,-1537
14:36:21.094483,-1
14:36:21.094483,7
14:36:21.094483,512
14:36:21.094483,0
14:36:21.094483,-2
14:36:21.094483,1279
14:36:21.094483,0
14:36:21.094483,-4
14:36:21.094483,-257
14:36:21.094483,-1
14:36:21.094483,16
14:36:21.094483,-2816
14:36:21.094483,-1
14:36:21.094483,-45
14:36:21.094483,-9473
14:36:21.094483,-1
14:36:21.094483,-26
14:36:21.094483,-6401
14:36:21.094483,-1
14:36:21.094483,-26
14:36:21.094483,-8193
14:36:21.094483,-1
14:36:21.094483,-33
14:36:21.094483,-1537
14:36:21.094483,-1
14:36:21.094483,14
14:36:21.094483,1792
14:36:21.094483,0
14:36:21.094483,-11
14:36:21.094483,-3841
14:36:21.094483,-1
14:36:21.094483,4
14:36:21.094483,1024
14:36:21.094483,0
14:36:21.094483,-26
14:36:21.094483,-10753
14:36:21.094483,-1
14:36:21.094483,-47
14:36:21.094483,-23553
14:36:21.094483,-1
14:36:21.094483,-153
14:36:21.094483,-29697
14:36:21.094483,-1
14:36:21.094483,143
14:36:21.094483,32000
14:36:21.094483,2
14:36:21.094483,975
14:36:21.094483,7680
14:36:21.094483,3
14:36:21.094483,373
14:36:21.094483,18944
14:36:21.094483,0
14:36:21.094483,-74
14:36:21.094483,-29697
14:36:21.094483,-1
14:36:21.094483,-124
14:36:21.094483,26111
14:36:21.094483,-1
14:36:21.094483,-172
14:36:21.094483,25343
14:36:21.094483,-1
14:36:21.094483,-155
14:36:21.094483,21759
14:36:21.094483,-1
14:36:21.094483,-170
14:36:21.094483,28415
14:36:21.094483,-1
14:36:21.094483,-134
14:36:21.094483,29183
14:36:21.094483,-1
14:36:21.094483,-160
14:36:21.094483,25343
14:36:21.094483,-1
14:36:21.094483,-122
14:36:21.694503,-112
14:36:21.694503,29183
14:36:21.694503,-1
14:36:21.694503,-146
14:36:21.694503,-29697
14:36:21.694503,-1
14:36:21.694503,-122
14:36:21.694503,26623
14:36:21.694503,-1
14:36:21.694503,-146
14:36:21.694503,-24833
14:36:21.694503,-1
14:36:21.694503,-67
14:36:21.694503,-27905
14:36:21.694503,-1
14:36:21.694503,-124
14:36:21.694503,-15617
14:36:21.694503,-1
14:36:21.694503,-35
14:36:21.694503,-12545
14:36:21.694503,-1
14:36:21.694503,-45
14:36:21.694503,-12545
14:36:21.694503,-1
14:36:21.694503,-71
14:36:21.694503,-21761
14:36:21.694503,-1
14:36:21.694503,-86
14:36:21.694503,-19201
14:36:21.694503,-1
14:36:21.694503,-69
14:36:21.694503,-13057
14:36:21.694503,-1
14:36:21.694503,-31
14:36:21.694503,-9985
14:36:21.694503,-1
14:36:21.694503,-67
14:36:21.694503,-16897
14:36:21.694503,-1
14:36:21.694503,-52
14:36:21.694503,-17409
14:36:21.694503,-1
14:36:21.694503,-103
14:36:21.694503,-21761
14:36:21.694503,-1
14:36:21.694503,-26
14:36:21.694503,-6401
14:36:21.694503,-1
14:36:21.694503,-52
14:36:21.694503,-3841
14:36:21.694503,-1
14:36:21.694503,-2
14:36:21.694503,-11265
14:36:21.694503,-1
14:36:21.694503,-50
14:36:21.694503,-8193
14:36:21.694503,-1
14:36:21.694503,-45
14:36:21.694503,-16129
14:36:21.694503,-1
14:36:21.694503,-62
14:36:21.694503,-6401
14:36:21.694503,-1
14:36:21.694503,-14
14:36:21.694503,-13057
14:36:21.694503,-1
14:36:21.694503,-47
14:36:21.694503,-2561
14:36:21.694503,-1
14:36:21.694503,-31
14:36:21.694503,-13825
14:36:21.694503,-1
14:36:21.694503,-52
14:36:21.694503,-14849
14:36:21.694503,-1
14:36:21.694503,-52
14:36:21.694503,-12545
14:36:21.694503,-1
14:36:21.694503,-62
14:36:21.694503,-12545
14:36:21.694503,-1
14:36:21.694503,-28
14:36:21.694503,-5121
14:36:21.694503,-1
14:36:21.694503,-4
14:36:21.694503,-769
14:36:21.694503,-1
14:36:21.694503,-40
14:36:21.694503,-9985
14:36:21.694503,-1
14:36:21.694503,-19
14:36:21.694503,-8193
14:36:21.694503,-1
14:36:21.694503,-38
14:36:21.694503,-3841
14:36:21.694503,-1
14:36:21.694503,-26
14:36:21.694503,-16897
14:36:21.694503,-1
14:36:21.694503,-124
14:36:21.694503,24319
14:36:21.694503,-1
14:36:21.694503,-26
14:36:21.694503,-32257
14:36:21.694503,1
14:36:21.694503,826
14:36:21.694503,20480
14:36:21.694503,3
14:36:21.694503,484
14:36:22.235526,170
14:36:22.235526,2816
14:36:22.235526,0
14:36:22.235526,-95
14:36:22.235526,27903
14:36:22.235526,-1
14:36:22.235526,-153
14:36:22.235526,26111
14:36:22.235526,-1
14:36:22.235526,-162
14:36:22.235526,19967
14:36:22.235526,-1
14:36:22.235526,-170
14:36:22.235526,32767
14:36:22.235526,-1
14:36:22.235526,-107
14:36:22.235526,-29697
14:36:22.235526,-1
14:36:22.235526,-112
14:36:22.235526,-25345
14:36:22.235526,-1
14:36:22.235526,-107
14:36:22.235526,-27905
14:36:22.235526,-1
14:36:22.235526,-115
14:36:22.235526,30207
14:36:22.235526,-1
14:36:22.235526,-129
14:36:22.235526,-19201
14:36:22.235526,-1
14:36:22.235526,-74
14:36:22.235526,-27905
14:36:22.235526,-1
14:36:22.235526,-107
14:36:22.235526,-21761
14:36:22.235526,-1
14:36:22.235526,-76
14:36:22.235526,-19201
14:36:22.235526,-1
14:36:22.235526,-76
14:36:22.235526,-17409
14:36:22.235526,-1
14:36:22.235526,-64
14:36:22.235526,-19201
14:36:22.235526,-1
14:36:22.235526,-95
14:36:22.235526,-26113
14:36:22.235526,-1
14:36:22.235526,-79
14:36:22.235526,-12545
14:36:22.235526,-1
14:36:22.235526,-69
14:36:22.235526,-19969
14:36:22.235526,-1
14:36:22.235526,-50
14:36:22.235526,-11777
14:36:22.235526,-1
14:36:22.235526,-74
14:36:22.235526,-17921
14:36:22.235526,-1
14:36:22.235526,-62
14:36:22.235526,-16129
14:36:22.235526,-1
14:36:22.235526,-69
14:36:22.235526,-20993
14:36:22.235526,-1
14:36:22.235526,-67
14:36:22.235526,-3841
14:36:22.235526,-1
14:36:22.235526,-23
14:36:22.235526,-14849
14:36:22.235526,-1
14:36:22.235526,-33
14:36:22.235526,-3329
14:36:22.235526,-1
14:36:22.235526,-45
14:36:22.235526,-14849
14:36:22.235526,-1
14:36:22.235526,-52
14:36:22.235526,-16129
14:36:22.235526,-1
14:36:22.235526,-64
14:36:22.235526,-10753
14:36:22.235526,-1
14:36:22.235526,-43
14:36:22.235526,-13825
14:36:22.235526,-1
14:36:22.235526,-43
14:36:22.235526,-11265
14:36:22.235526,-1
14:36:22.235526,-67
14:36:22.235526,-16897
14:36:22.235526,-1
14:36:22.235526,-55
14:36:22.235526,-14337
14:36:22.235526,-1
14:36:22.235526,-67
14:36:22.235526,-14337
14:36:22.235526,-1
14:36:22.235526,-55
14:36:22.235526,-13825
14:36:22.235526,-1
14:36:22.235526,-35
14:36:22.235526,-10753
14:36:22.235526,-1
14:36:22.235526,-62
14:36:22.235526,-10753
14:36:22.235526,-1
14:36:22.235526,-14
14:36:22.774553,-16
14:36:22.774553,-7681
14:36:22.774553,-1
14:36:22.774553,-31
14:36:22.774553,-3329
14:36:22.774553,-1
14:36:22.774553,-7
14:36:22.774553,-6401
14:36:22.774553,-1
14:36:22.774553,-28
14:36:22.774553,-3841
14:36:22.774553,-1
14:36:22.774553,-21
14:36:22.774553,-6913
14:36:22.774553,-1
14:36:22.774553,-69
14:36:22.774553,-32257
14:36:22.774553,-1
14:36:22.774553,-23
14:36:22.774553,26623
14:36:22.774553,1
14:36:22.774553,778
14:36:22.774553,12544
14:36:22.774553,3
14:36:22.774553,505
14:36:22.774553,-13568
14:36:22.774553,0
14:36:22.774553,16
14:36:22.774553,-19456
14:36:22.774553,-1
14:36:22.774553,-105
14:36:22.774553,29695
14:36:22.774553,-1
14:36:22.774553,-153
14:36:22.774553,32767
14:36:22.774553,-1
14:36:22.774553,-122
14:36:22.774553,28415
14:36:22.774553,-1
14:36:22.774553,-153
14:36:22.774553,-31489
14:36:22.774553,-1
14:36:22.774553,-103
14:36:22.774553,-32257
14:36:22.774553,-1
14:36:22.774553,-124
14:36:22.774553,-23041
14:36:22.774553,-1
14:36:22.774553,-100
14:36:22.774553,-30209
14:36:22.774553,-1
14:36:22.774553,-107
14:36:22.774553,-29185
14:36:22.774553,-1
14:36:22.774553,-131
14:36:22.774553,-25345
14:36:22.774553,-1
14:36:22.774553,-83
14:36:22.774553,-27905
14:36:22.774553,-1
14:36:22.774553,-103
14:36:22.774553,-20481
14:36:22.774553,-1
14:36:22.774553,-83
14:36:22.774553,-15617
14:36:22.774553,-1
14:36:22.774553,-57
14:36:22.774553,-14849
14:36:22.774553,-1
14:36:22.774553,-47
14:36:22.774553,-16129
14:36:22.774553,-1
14:36:22.774553,-86
14:36:22.774553,-19201
14:36:22.774553,-1
14:36:22.774553,-71
14:36:22.774553,-18689
14:36:22.774553,-1
14:36:22.774553,-74
14:36:22.774553,-20481
14:36:22.774553,-1
14:36:22.774553,-86
14:36:22.774553,-18689
14:36:22.774553,-1
14:36:22.774553,-67
14:36:22.774553,-17921
14:36:22.774553,-1
14:36:22.774553,-59
14:36:22.774553,-13057
14:36:22.774553,-1
14:36:22.774553,-67
14:36:22.774553,-17409
14:36:22.774553,-1
14:36:22.774553,-64
14:36:22.774553,-20481
14:36:22.774553,-1
14:36:22.774553,-69
14:36:22.774553,-5633
14:36:22.774553,-1
14:36:22.774553,-19
14:36:22.774553,-11777
14:36:22.774553,-1
14:36:22.774553,-55
14:36:22.774553,-10753
14:36:22.774553,-1
14:36:22.774553,-45
14:36:22.774553,-14337
14:36:22.774553,-1
14:36:22.774553,-50
14:36:23.344539,-40
14:36:23.344539,-12545
14:36:23.344539,-1
14:36:23.344539,-64
14:36:23.344539,-11265
14:36:23.344539,-1
14:36:23.344539,-33
14:36:23.344539,-11777
14:36:23.344539,-1
14:36:23.344539,-40
14:36:23.344539,-5633
14:36:23.344539,-1
14:36:23.344539,-40
14:36:23.344539,-15617
14:36:23.344539,-1
14:36:23.344539,-47
14:36:23.344539,-7681
14:36:23.344539,-1
14:36:23.344539,-38
14:36:23.344539,-10753
14:36:23.344539,-1
14:36:23.344539,-23
14:36:23.344539,-3329
14:36:23.344539,-1
14:36:23.344539,-26
14:36:23.344539,-7681
14:36:23.344539,-1
14:36:23.344539,-35
14:36:23.344539,-9473
14:36:23.344539,-1
14:36:23.344539,-28
14:36:23.344539,-5121
14:36:23.344539,-1
14:36:23.344539,-26
14:36:23.344539,-8705
14:36:23.344539,-1
14:36:23.344539,-64
14:36:23.344539,-32257
14:36:23.344539,-1
14:36:23.344539,-155
14:36:23.344539,-8705
14:36:23.344539,-1
14:36:23.344539,337
14:36:23.344539,8192
14:36:23.344539,3
14:36:23.344539,857
14:36:23.344539,-8448
14:36:23.344539,1
14:36:23.344539,148
14:36:23.344539,5376
14:36:23.344539,0
14:36:23.344539,-71
14:36:23.344539,23551
14:36:23.344539,-1
14:36:23.344539,-196
14:36:23.344539,23551
14:36:23.344539,-1
14:36:23.344539,-131
14:36:23.344539,28415
14:36:23.344539,-1
14:36:23.344539,-160
14:36:23.344539,27391
14:36:23.344539,-1
14:36:23.344539,-141
14:36:23.344539,-31489
14:36:23.344539,-1
14:36:23.344539,-110
14:36:23.344539,32767
14:36:23.344539,-1
14:36:23.344539,-146
14:36:23.344539,29695
14:36:23.344539,-1
14:36:23.344539,-122
14:36:23.344539,-30209
14:36:23.344539,-1
14:36:23.344539,-153
14:36:23.344539,27903
14:36:23.344539,-1
14:36:23.344539,-103
14:36:23.344539,-23041
14:36:23.344539,-1
14:36:23.344539,-110
14:36:23.344539,-30209
14:36:23.344539,-1
14:36:23.344539,-112
14:36:23.344539,-21761
14:36:23.344539,-1
14:36:23.344539,-59
14:36:23.344539,-17409
14:36:23.344539,-1
14:36:23.344539,-95
14:36:23.344539,-20481
14:36:23.344539,-1
14:36:23.344539,-67
14:36:23.344539,-19969
14:36:23.344539,-1
14:36:23.344539,-88
14:36:23.344539,-20993
14:36:23.344539,-1
14:36:23.344539,-83
14:36:23.344539,-19201
14:36:23.344539,-1
14:36:23.344539,-55
14:36:23.344539,-14337
14:36:23.344539,-1
14:36:23.344539,-93
14:36:23.344539,30975
14:36:23.344539,-1
14:36:23.344539,-112
14:36:23.884540,-26
14:36:23.884540,-9473
14:36:23.884540,-1
14:36:23.884540,-127
14:36:23.884540,-24065
14:36:23.884540,-1
14:36:23.884540,-7
14:36:23.884540,-5121
14:36:23.884540,-1
14:36:23.884540,-67
14:36:23.884540,-16129
14:36:23.884540,-1
14:36:23.884540,-52
14:36:23.884540,-14849
14:36:23.884540,-1
14:36:23.884540,-45
14:36:23.884540,-8193
14:36:23.884540,-1
14:36:23.884540,-74
14:36:23.884540,-7681
14:36:23.884540,-1
14:36:23.884540,62
14:36:23.884540,1024
14:36:23.884540,0
14:36:23.884540,-74
14:36:23.884540,-12545
14:36:23.884540,-1
14:36:23.884540,-40
14:36:23.884540,-17409
14:36:23.884540,-1
14:36:23.884540,-64
14:36:23.884540,-5121
14:36:23.884540,-1
14:36:23.884540,-11
14:36:23.884540,-8705
14:36:23.884540,-1
14:36:23.884540,-31
14:36:23.884540,-5121
14:36:23.884540,-1
14:36:23.884540,-23
14:36:23.884540,-4609
14:36:23.884540,-1
14:36:23.884540,-31
14:36:23.884540,-14337
14:36:23.884540,-1
14:36:23.884540,-28
14:36:23.884540,-1537
14:36:23.884540,-1
14:36:23.884540,-50
14:36:23.884540,-18689
14:36:23.884540,-1
14:36:23.884540,-88
14:36:23.884540,27903
14:36:23.884540,-1
14:36:23.884540,-88
14:36:23.884540,14335
14:36:23.884540,1
14:36:23.884540,822
14:36:23.884540,22272
14:36:23.884540,3
14:36:23.884540,484
14:36:23.884540,-5632
14:36:23.884540,0
14:36:23.884540,98
14:36:23.884540,-11520
14:36:23.884540,-1
14:36:23.884540,-98
14:36:23.884540,28415
14:36:23.884540,-1
14:36:23.884540,-206
14:36:23.884540,25343
14:36:23.884540,-1
14:36:23.884540,-115
14:36:23.884540,16127
14:36:23.884540,-1
14:36:23.884540,-182
14:36:23.884540,-21761
14:36:23.884540,-1
14:36:23.884540,-115
14:36:23.884540,23551
14:36:23.884540,-1
14:36:23.884540,-122
14:36:23.884540,-24833
14:36:23.884540,-1
14:36:23.884540,-134
14:36:23.884540,27903
14:36:23.884540,-1
14:36:23.884540,-110
14:36:23.884540,32767
14:36:23.884540,-1
14:36:23.884540,-177
14:36:23.884540,-27137
14:36:23.884540,-1
14:36:23.884540,-69
14:36:23.884540,29183
14:36:23.884540,-1
14:36:23.884540,-131
14:36:23.884540,-16129
14:36:23.884540,-1
14:36:23.884540,-98
14:36:23.884540,-28417
14:36:23.884540,-1
14:36:23.884540,-31
14:36:23.884540,-2561
14:36:23.884540,-1
14:36:23.884540,-88
14:36:23.884540,-23041
14:36:23.884540,-1
14:36:23.884540,-45
14:36:24.455245,-95
14:36:24.455245,-31489
14:36:24.455245,-1
14:36:24.455245,-40
14:36:24.455245,-10753
14:36:24.455245,-1
14:36:24.455245,-131
14:36:24.455245,-23553
14:36:24.455245,-1
14:36:24.455245,14
14:36:24.455245,-2816
14:36:24.455245,-1
14:36:24.455245,-74
14:36:24.455245,-13057
14:36:24.455245,-1
14:36:24.455245,-40
14:36:24.455245,-11777
14:36:24.455245,-1
14:36:24.455245,-35
14:36:24.455245,-13057
14:36:24.455245,-1
14:36:24.455245,-59
14:36:24.455245,-4609
14:36:24.455245,-1
14:36:24.455245,-23
14:36:24.455245,-23041
14:36:24.455245,-1
14:36:24.455245,-76
14:36:24.455245,-1537
14:36:24.455245,-1
14:36:24.455245,-21
14:36:24.455245,-11777
14:36:24.455245,-1
14:36:24.455245,-19
14:36:24.455245,-5121
14:36:24.455245,-1
14:36:24.455245,-52
14:36:24.455245,-15617
14:36:24.455245,-1
14:36:24.455245,-79
14:36:24.455245,-18689
14:36:24.455245,-1
14:36:24.455245,-4
14:36:24.455245,-5633
14:36:24.455245,-1
14:36:24.455245,-103
14:36:24.455245,-3329
14:36:24.455245,-1
14:36:24.455245,76
14:36:24.455245,-5888
14:36:24.455245,-1
14:36:24.455245,-95
14:36:24.455245,-13825
14:36:24.455245,-1
14:36:24.455245,-21
14:36:24.455245,-3841
14:36:24.455245,-1
14:36:24.455245,-52
14:36:24.455245,-18689
14:36:24.455245,-1
14:36:24.455245,-59
14:36:24.455245,-32257
14:36:24.455245,-1
14:36:24.455245,-136
14:36:24.455245,-9473
14:36:24.455245,0
14:36:24.455245,769
14:36:24.455245,-15616
14:36:24.455245,3
14:36:24.455245,661
14:36:24.455245,5632
14:36:24.455245,1
14:36:24.455245,76
14:36:24.455245,-1792
14:36:24.455245,-1
14:36:24.455245,-79
14:36:24.455245,19199
14:36:24.455245,-1
14:36:24.455245,-222
14:36:24.455245,-30977
14:36:24.455245,-1
14:36:24.455245,-59
14:36:24.455245,26111
14:36:24.455245,-1
14:36:24.455245,-196
14:36:24.455245,26623
14:36:24.455245,-1
14:36:24.455245,-194
14:36:24.455245,16895
14:36:24.455245,-1
14:36:24.455245,-67
14:36:24.455245,-10753
14:36:24.455245,-1
14:36:24.455245,-139
14:36:24.455245,26623
14:36:24.455245,-1
14:36:24.455245,-115
14:36:24.455245,32767
14:36:24.455245,-1
14:36:24.455245,-153
14:36:24.455245,30975
14:36:24.455245,-1
14:36:24.455245,-105
14:36:24.455245,-32257
14:36:24.455245,-1
14:36:24.455245,-155
14:36:24.455245,-26113
14:36:24.455245,-1
14:36:24.455245,-52
14:36:25.054531,-62
14:36:25.054531,-23041
14:36:25.054531,-1
14:36:25.054531,-98
14:36:25.054531,-16897
14:36:25.054531,-1
14:36:25.054531,-55
14:36:25.054531,-27137
14:36:25.054531,-1
14:36:25.054531,-112
14:36:25.054531,255
14:36:25.054531,0
14:36:25.054531,50
14:36:25.054531,-8448
14:36:25.054531,-1
14:36:25.054531,-62
14:36:25.054531,-5633
14:36:25.054531,-1
14:36:25.054531,-33
14:36:25.054531,-15617
14:36:25.054531,-1
14:36:25.054531,-91
14:36:25.054531,-24065
14:36:25.054531,-1
14:36:25.054531,-11
14:36:25.054531,11775
14:36:25.054531,0
14:36:25.054531,-2
14:36:25.054531,-9985
14:36:25.054531,-1
14:36:25.054531,-26
14:36:25.054531,-3841
14:36:25.054531,-1
14:36:25.054531,-23
14:36:25.054531,-9473
14:36:25.054531,-1
14:36:25.054531,-71
14:36:25.054531,-13825
14:36:25.054531,-1
14:36:25.054531,19
14:36:25.054531,4864
14:36:25.054531,0
14:36:25.054531,-14
14:36:25.054531,-3841
14:36:25.054531,-1
14:36:25.054531,-23
14:36:25.054531,-4609
14:36:25.054531,-1
14:36:25.054531,-14
14:36:25.054531,-6401
14:36:25.054531,-1
14:36:25.054531,-26
14:36:25.054531,-6401
14:36:25.054531,-1
14:36:25.054531,-2
14:36:25.054531,14335
14:36:25.054531,0
14:36:25.054531,40
14:36:25.054531,512
14:36:25.054531,0
14:36:25.054531,31
14:36:25.054531,9728
14:36:25.054531,0
14:36:25.054531,-2
14:36:25.054531,-5121
14:36:25.054531,-1
14:36:25.054531,-23
14:36:25.054531,-11265
14:36:25.054531,-1
14:36:25.054531,-115
14:36:25.054531,28415
14:36:25.054531,-1
14:36:25.054531,100
14:36:25.054531,-31744
14:36:25.054531,2
14:36:25.054531,1018
14:36:25.054531,29696
14:36:25.054531,3
14:36:25.054531,488
14:36:25.054531,-24064
14:36:25.054531,0
14:36:25.054531,-33
14:36:25.054531,30207
14:36:25.054531,-1
14:36:25.054531,-134
14:36:25.054531,-19201
14:36:25.054531,-1
14:36:25.054531,-122
14:36:25.054531,18687
14:36:25.054531,-1
14:36:25.054531,-139
14:36:25.054531,-29697
14:36:25.054531,-1
14:36:25.054531,-170
14:36:25.054531,23039
14:36:25.054531,-1
14:36:25.054531,-91
14:36:25.054531,-19969
14:36:25.054531,-1
14:36:25.054531,-150
14:36:25.054531,23039
14:36:25.054531,-1
14:36:25.054531,-119
14:36:25.054531,-30977
14:36:25.054531,-1
14:36:25.054531,-174
14:36:25.054531,31487
14:36:25.054531,-1
14:36:25.054531,-64
14:36:25.624530,-127
14:36:25.624530,23551
14:36:25.624530,-1
14:36:25.624530,-95
14:36:25.624530,-21761
14:36:25.624530,-1
14:36:25.624530,-131
14:36:25.624530,-27137
14:36:25.624530,-1
14:36:25.624530,-74
14:36:25.624530,-29697
14:36:25.624530,-1
14:36:25.624530,-119
14:36:25.624530,-5121
14:36:25.624530,-1
14:36:25.624530,7
14:36:25.624530,-15872
14:36:25.624530,-1
14:36:25.624530,-71
14:36:25.624530,-9473
14:36:25.624530,-1
14:36:25.624530,-50
14:36:25.624530,-24833
14:36:25.624530,-1
14:36:25.624530,-69
14:36:25.624530,2047
14:36:25.624530,0
14:36:25.624530,-35
14:36:25.624530,-21761
14:36:25.624530,-1
14:36:25.624530,-2
14:36:25.624530,4351
14:36:25.624530,0
14:36:25.624530,-47
14:36:25.624530,-8705
14:36:25.624530,-1
14:36:25.624530,-11
14:36:25.624530,-9473
14:36:25.624530,-1
14:36:25.624530,-40
14:36:25.624530,-14337
14:36:25.624530,-1
14:36:25.624530,-83
14:36:25.624530,-1537
14:36:25.624530,-1
14:36:25.624530,43
14:36:25.624530,-7936
14:36:25.624530,-1
14:36:25.624530,-33
14:36:25.624530,8191
14:36:25.624530,0
14:36:25.624530,-2
14:36:25.624530,-11265
14:36:25.624530,-1
14:36:25.624530,-33
14:36:25.624530,-9473
14:36:25.624530,-1
14:36:25.624530,-86
14:36:25.624530,-28417
14:36:25.624530,-1
14:36:25.624530,-14
14:36:25.624530,22271
14:36:25.624530,0
14:36:25.624530,23
14:36:25.624530,-5376
14:36:25.624530,-1
14:36:25.624530,26
14:36:25.624530,1024
14:36:25.624530,0
14:36:25.624530,-38
14:36:25.624530,-5121
14:36:25.624530,-1
14:36:25.624530,-11
14:36:25.624530,-5633
14:36:25.624530,-1
14:36:25.624530,-14
14:36:25.624530,-8193
14:36:25.624530,-1
14:36:25.624530,-105
14:36:25.624530,26111
14:36:25.624530,-1
14:36:25.624530,-28
14:36:25.624530,-20481
14:36:25.624530,1
14:36:25.624530,956
14:36:25.624530,-15616
14:36:25.624530,3
14:36:25.624530,544
14:36:25.624530,-15872
14:36:25.624530,0
14:36:25.624530,-7
14:36:25.624530,-29185
14:36:25.624530,-1
14:36:25.624530,-124
14:36:25.624530,31487
14:36:25.624530,-1
14:36:25.624530,-189
14:36:25.624530,10751
14:36:25.624530,-1
14:36:25.624530,-170
14:36:25.624530,26623
14:36:25.624530,-1
14:36:25.624530,-186
14:36:25.624530,32767
14:36:25.624530,-1
14:36:25.624530,-83
14:36:25.624530,29183
14:36:25.624530,-1
14:36:25.624530,-153
14:36:26.165356,-122
14:36:26.165356,29695
14:36:26.165356,-1
14:36:26.165356,-150
14:36:26.165356,29183
14:36:26.165356,-1
14:36:26.165356,-162
14:36:26.165356,16895
14:36:26.165356,-1
14:36:26.165356,-158
14:36:26.165356,-22273
14:36:26.165356,-1
14:36:26.165356,-105
14:36:26.165356,30207
14:36:26.165356,-1
14:36:26.165356,-117
14:36:26.165356,-27905
14:36:26.165356,-1
14:36:26.165356,-100
14:36:26.165356,-17921
14:36:26.165356,-1
14:36:26.165356,-88
14:36:26.165356,-25345
14:36:26.165356,-1
14:36:26.165356,-64
14:36:26.165356,-16897
14:36:26.165356,-1
14:36:26.165356,-95
14:36:26.165356,-20993
14:36:26.165356,-1
14:36:26.165356,-43
14:36:26.165356,-10753
14:36:26.165356,-1
14:36:26.165356,-71
14:36:26.165356,-14849
14:36:26.165356,-1
14:36:26.165356,-43
14:36:26.165356,-16897
14:36:26.165356,-1
14:36:26.165356,-76
14:36:26.165356,-10753
14:36:26.165356,-1
14:36:26.165356,-26
14:36:26.165356,-14849
14:36:26.165356,-1
14:36:26.165356,-71
14:36:26.165356,-14337
14:36:26.165356,-1
14:36:26.165356,-64
14:36:26.165356,-13825
14:36:26.165356,-1
14:36:26.165356,-28
14:36:26.165356,-11265
14:36:26.165356,-1
14:36:26.165356,-67
14:36:26.165356,-10753
14:36:26.165356,-1
14:36:26.165356,-19
14:36:26.165356,-11265
14:36:26.165356,-1
14:36:26.165356,-81
14:36:26.165356,-16897
14:36:26.165356,-1
14:36:26.165356,-23
14:36:26.165356,-2049
14:36:26.165356,-1
14:36:26.165356,-26
14:36:26.165356,-11265
14:36:26.165356,-1
14:36:26.165356,-71
14:36:26.165356,-14337
14:36:26.165356,-1
14:36:26.165356,-21
14:36:26.165356,-11265
14:36:26.165356,-1
14:36:26.165356,-69
14:36:26.165356,-3329
14:36:26.165356,-1
14:36:26.165356,14
14:36:26.165356,-11520
14:36:26.165356,-1
14:36:26.165356,-62
14:36:26.165356,-1537
14:36:26.165356,-1
14:36:26.165356,-2
14:36:26.165356,-13057
14:36:26.165356,-1
14:36:26.165356,-81
14:36:26.165356,-13057
14:36:26.165356,-1
14:36:26.165356,-26
14:36:26.165356,-28417
14:36:26.165356,-1
14:36:26.165356,-201
14:36:26.165356,-2561
14:36:26.165356,-1
14:36:26.165356,512
14:36:26.165356,-16896
14:36:26.165356,3
14:36:26.165356,884
14:36:26.165356,-6144
14:36:26.165356,1
14:36:26.165356,170
14:36:26.165356,-8960
14:36:26.165356,-1
14:36:26.165356,-160
14:36:26.165356,17407
14:36:26.165356,-1
14:36:26.165356,-160
14:36:26.734528,-129
14:36:26.734528,27903
14:36:26.734528,-1
14:36:26.734528,-189
14:36:26.734528,20479
14:36:26.734528,-1
14:36:26.734528,-139
14:36:26.734528,28415
14:36:26.734528,-1
14:36:26.734528,-189
14:36:26.734528,12031
14:36:26.734528,-1
14:36:26.734528,-167
14:36:26.734528,-26625
14:36:26.734528,-1
14:36:26.734528,-115
14:36:26.734528,26111
14:36:26.734528,-1
14:36:26.734528,-139
14:36:26.734528,-24065
14:36:26.734528,-1
14:36:26.734528,-103
14:36:26.734528,29695
14:36:26.734528,-1
14:36:26.734528,-143
14:36:26.734528,-30977
14:36:26.734528,-1
14:36:26.734528,-117
14:36:26.734528,-28417
14:36:26.734528,-1
14:36:26.734528,-107
14:36:26.734528,-23553
14:36:26.734528,-1
14:36:26.734528,-93
14:36:26.734528,-30977
14:36:26.734528,-1
14:36:26.734528,-100
14:36:26.734528,-13825
14:36:26.734528,-1
14:36:26.734528,-95
14:36:26.734528,30975
14:36:26.734528,-1
14:36:26.734528,-117
14:36:26.734528,-32257
14:36:26.734528,-1
14:36:26.734528,-131
14:36:26.734528,-18689
14:36:26.734528,-1
14:36:26.734528,-47
14:36:26.734528,-21761
14:36:26.734528,-1
14:36:26.734528,-100
14:36:26.734528,-20481
14:36:26.734528,-1
14:36:26.734528,-88
14:36:26.734528,-30209
14:36:26.734528,-1
14:36:26.734528,-98
14:36:26.734528,-13057
14:36:26.734528,-1
14:36:26.734528,-83
14:36:26.734528,-32257
14:36:26.734528,-1
14:36:26.734528,-103
14:36:26.734528,-14849
14:36:26.734528,-1
14:36:26.734528,-69
14:36:26.734528,-30977
14:36:26.734528,-1
14:36:26.734528,-112
14:36:26.734528,-15617
14:36:26.734528,-1
14:36:26.734528,-69
14:36:26.734528,-23553
14:36:26.734528,-1
14:36:26.734528,-100
14:36:26.734528,-26113
14:36:26.734528,-1
14:36:26.734528,-50
14:36:26.734528,-12545
14:36:26.734528,-1
14:36:26.734528,-131
14:36:26.734528,-28417
14:36:26.734528,-1
14:36:26.734528,-31
14:36:26.734528,-19969
14:36:26.734528,-1
14:36:26.734528,-153
14:36:26.734528,-27137
14:36:26.734528,-1
14:36:26.734528,-45
14:36:26.734528,-11265
14:36:26.734528,-1
14:36:26.734528,-40
14:36:26.734528,-2561
14:36:26.734528,-1
14:36:26.734528,-28
14:36:26.734528,-19969
14:36:26.734528,-1
14:36:26.734528,-95
14:36:26.734528,-20993
14:36:26.734528,-1
14:36:26.734528,-64
14:36:26.734528,-10753
14:36:26.734528,-1
14:36:26.734528,-45
14:36:26.734528,-23553
14:36:26.734528,-1
14:36:26.734528,-141
14:36:27.244539,-139
14:36:27.244539,-16129
14:36:27.244539,-1
14:36:27.244539,273
14:36:27.244539,3840
14:36:27.244539,3
14:36:27.244539,874
14:36:27.244539,-2304
14:36:27.244539,1
14:36:27.244539,203
14:36:27.244539,8960
14:36:27.244539,0
14:36:27.244539,-103
14:36:27.244539,24831
14:36:27.244539,-1
14:36:27.244539,-172
14:36:27.244539,21247
14:36:27.244539,-1
14:36:27.244539,-182
14:36:27.244539,16127
14:36:27.244539,-1
14:36:27.244539,-194
14:36:27.244539,19199
14:36:27.244539,-1
14:36:27.244539,-150
14:36:27.244539,32255
14:36:27.244539,-1
14:36:27.244539,-155
14:36:27.244539,21759
14:36:27.244539,-1
14:36:27.244539,-160
14:36:27.244539,24831
14:36:27.244539,-1
14:36:27.244539,-177
14:36:27.244539,19967
14:36:27.244539,-1
14:36:27.244539,-165
14:36:27.244539,26623
14:36:27.244539,-1
14:36:27.244539,-160
14:36:27.244539,23039
14:36:27.244539,-1
14:36:27.244539,-162
14:36:27.244539,26111
14:36:27.244539,-1
14:36:27.244539,-148
14:36:27.244539,29183
14:36:27.244539,-1
14:36:27.244539,-136
14:36:27.244539,32767
14:36:27.244539,-1
14:36:27.244539,-117
14:36:27.244539,-27137
14:36:27.244539,-1
14:36:27.244539,-110
14:36:27.244539,-27137
14:36:27.244539,-1
14:36:27.244539,-105
14:36:27.244539,-27905
14:36:27.244539,-1
14:36:27.244539,-117
14:36:27.244539,-27137
14:36:27.244539,-1
14:36:27.244539,-74
14:36:27.244539,-15617
14:36:27.244539,-1
14:36:27.244539,-76
14:36:27.244539,-21761
14:36:27.244539,-1
14:36:27.244539,-81
14:36:27.244539,-20993
14:36:27.244539,-1
14:36:27.244539,-86
14:36:27.244539,-19969
14:36:27.244539,-1
14:36:27.244539,-71
14:36:27.244539,-18689
14:36:27.244539,-1
14:36:27.244539,-79
14:36:27.244539,-18689
14:36:27.244539,-1
14:36:27.244539,-71
14:36:27.244539,-16129
14:36:27.244539,-1
14:36:27.244539,-52
14:36:27.244539,-13825
14:36:27.244539,-1
14:36:27.244539,-59
14:36:27.244539,-14849
14:36:27.244539,-1
14:36:27.244539,-67
14:36:27.244539,-16897
14:36:27.244539,-1
14:36:27.244539,-57
14:36:27.244539,-13825
14:36:27.244539,-1
14:36:27.244539,-59
14:36:27.244539,-16897
14:36:27.244539,-1
14:36:27.244539,-59
14:36:27.244539,-11265
14:36:27.244539,-1
14:36:27.244539,-47
14:36:27.244539,-15617
14:36:27.244539,-1
14:36:27.244539,-57
14:36:27.244539,-9985
14:36:27.244539,-1
14:36:27.244539,-26
14:36:27.814537,-14
14:36:27.814537,-3329
14:36:27.814537,-1
14:36:27.814537,-26
14:36:27.814537,-6913
14:36:27.814537,-1
14:36:27.814537,-14
14:36:27.814537,-2049
14:36:27.814537,-1
14:36:27.814537,-19
14:36:27.814537,-3841
14:36:27.814537,-1
14:36:27.814537,-9
14:36:27.814537,-8705
14:36:27.814537,-1
14:36:27.814537,-100
14:36:27.814537,27903
14:36:27.814537,-1
14:36:27.814537,11
14:36:27.814537,0
14:36:27.814537,2
14:36:27.814537,975
14:36:27.814537,29696
14:36:27.814537,3
14:36:27.814537,484
14:36:27.814537,-7424
14:36:27.814537,0
14:36:27.814537,62
14:36:27.814537,-18176
14:36:27.814537,-1
14:36:27.814537,-115
14:36:27.814537,-29697
14:36:27.814537,-1
14:36:27.814537,-122
14:36:27.814537,-29697
14:36:27.814537,-1
14:36:27.814537,-115
14:36:27.814537,-29697
14:36:27.814537,-1
14:36:27.814537,-112
14:36:27.814537,-27137
14:36:27.814537,-1
14:36:27.814537,-110
14:36:27.814537,-28417
14:36:27.814537,-1
14:36:27.814537,-103
14:36:27.814537,-22273
14:36:27.814537,-1
14:36:27.814537,-91
14:36:27.814537,-25345
14:36:27.814537,-1
14:36:27.814537,-98
14:36:27.814537,-22273
14:36:27.814537,-1
14:36:27.814537,-88
14:36:27.814537,-23041
14:36:27.814537,-1
14:36:27.814537,-83
14:36:27.814537,-19201
14:36:27.814537,-1
14:36:27.814537,-74
14:36:27.814537,-16897
14:36:27.814537,-1
14:36:27.814537,-55
14:36:27.814537,-10753
14:36:27.814537,-1
14:36:27.814537,-31
14:36:27.814537,-6401
14:36:27.814537,-1
14:36:27.814537,-26
14:36:27.814537,-6401
14:36:27.814537,-1
14:36:27.814537,-21
14:36:27.814537,-3841
14:36:27.814537,-1
14:36:27.814537,-19
14:36:27.814537,-5121
14:36:27.814537,-1
14:36:27.814537,-19
14:36:27.814537,-5121
14:36:27.814537,-1
14:36:27.814537,-21
14:36:27.814537,-3329
14:36:27.814537,-1
14:36:27.814537,-14
14:36:27.814537,-3841
14:36:27.814537,-1
14:36:27.814537,-14
14:36:27.814537,-2561
14:36:27.814537,-1
14:36:27.814537,-9
14:36:27.814537,-1537
14:36:27.814537,-1
14:36:27.814537,-2
14:36:27.814537,255
14:36:27.814537,0
14:36:27.814537,-2
14:36:27.814537,767
14:36:27.814537,0
14:36:27.814537,9
14:36:27.814537,1024
14:36:27.814537,0
14:36:27.814537,0
14:36:27.814537,2304
14:36:27.814537,0
14:36:27.814537,9
14:36:27.814537,1024
14:36:27.814537,0
14:36:27.814537,4
14:36:28.415347,7
14:36:28.415347,512
14:36:28.415347,0
14:36:28.415347,-4
14:36:28.415347,-257
14:36:28.415347,-1
14:36:28.415347,7
14:36:28.415347,5888
14:36:28.415347,0
14:36:28.415347,43
14:36:28.415347,11008
14:36:28.415347,0
14:36:28.415347,35
14:36:28.415347,7168
14:36:28.415347,0
14:36:28.415347,28
14:36:28.415347,7168
14:36:28.415347,0
14:36:28.415347,19
14:36:28.415347,4096
14:36:28.415347,0
14:36:28.415347,14
14:36:28.415347,1024
14:36:28.415347,0
14:36:28.415347,-28
14:36:28.415347,-24065
14:36:28.415347,-1
14:36:28.415347,-136
14:36:28.415347,14847
14:36:28.415347,0
14:36:28.415347,591
14:36:28.415347,-3328
14:36:28.415347,3
14:36:28.415347,838
14:36:28.415347,-20224
14:36:28.415347,1
14:36:28.415347,203
14:36:28.415347,6656
14:36:28.415347,0
14:36:28.415347,-103
14:36:28.415347,-30977
14:36:28.415347,-1
14:36:28.415347,-131
14:36:28.415347,25343
14:36:28.415347,-1
14:36:28.415347,-158
14:36:28.415347,27391
14:36:28.415347,-1
14:36:28.415347,-150
14:36:28.415347,27391
14:36:28.415347,-1
14:36:28.415347,-148
14:36:28.415347,28415
14:36:28.415347,-1
14:36:28.415347,-143
14:36:28.415347,30207
14:36:28.415347,-1
14:36:28.415347,-136
14:36:28.415347,28415
14:36:28.415347,-1
14:36:28.415347,-143
14:36:28.415347,32255
14:36:28.415347,-1
14:36:28.415347,-134
14:36:28.415347,29183
14:36:28.415347,-1
14:36:28.415347,-141
14:36:28.415347,31487
14:36:28.415347,-1
14:36:28.415347,-134
14:36:28.415347,30975
14:36:28.415347,-1
14:36:28.415347,-124
14:36:28.415347,-26625
14:36:28.415347,-1
14:36:28.415347,-93
14:36:28.415347,-21761
14:36:28.415347,-1
14:36:28.415347,-79
14:36:28.415347,-17921
14:36:28.415347,-1
14:36:28.415347,-71
14:36:28.415347,-20481
14:36:28.415347,-1
14:36:28.415347,-79
14:36:28.415347,-17921
14:36:28.415347,-1
14:36:28.415347,-69
14:36:28.415347,-13825
14:36:28.415347,-1
14:36:28.415347,-52
14:36:28.415347,-16897
14:36:28.415347,-1
14:36:28.415347,-64
14:36:28.415347,-14337
14:36:28.415347,-1
14:36:28.415347,-62
14:36:28.415347,-15617
14:36:28.415347,-1
14:36:28.415347,-55
14:36:28.415347,-13057
14:36:28.415347,-1
14:36:28.415347,-55
14:36:28.415347,-13825
14:36:28.415347,-1
14:36:28.415347,-45
14:36:28.415347,-8705
14:36:28.415347,-1
14:36:28.415347,-43
14:36:28.954535,-47
14:36:28.954535,-10753
14:36:28.954535,-1
14:36:28.954535,-40
14:36:28.954535,-10753
14:36:28.954535,-1
14:36:28.954535,-40
14:36:28.954535,-8193
14:36:28.954535,-1
14:36:28.954535,-35
14:36:28.954535,-13825
14:36:28.954535,-1
14:36:28.954535,-59
14:36:28.954535,-9473
14:36:28.954535,-1
14:36:28.954535,-11
14:36:28.954535,2047
14:36:28.954535,0
14:36:28.954535,14
14:36:28.954535,3584
14:36:28.954535,0
14:36:28.954535,9
14:36:28.954535,512
14:36:28.954535,0
14:36:28.954535,-7
14:36:28.954535,-2049
14:36:28.954535,-1
14:36:28.954535,-9
14:36:28.954535,-2049
14:36:28.954535,-1
14:36:28.954535,-9
14:36:28.954535,-4609
14:36:28.954535,-1
14:36:28.954535,-47
14:36:28.954535,-26113
14:36:28.954535,-1
14:36:28.954535,-143
14:36:28.954535,8703
14:36:28.954535,0
14:36:28.954535,579
14:36:28.954535,10240
14:36:28.954535,4
14:36:28.954535,953
14:36:28.954535,-1024
14:36:28.954535,1
14:36:28.954535,194
14:36:28.954535,2304
14:36:28.954535,0
14:36:28.954535,-105
14:36:28.954535,30207
14:36:28.954535,-1
14:36:28.954535,-148
14:36:28.954535,26111
14:36:28.954535,-1
14:36:28.954535,-150
14:36:28.954535,29183
14:36:28.954535,-1
14:36:28.954535,-143
14:36:28.954535,28415
14:36:28.954535,-1
14:36:28.954535,-148
14:36:28.954535,27903
14:36:28.954535,-1
14:36:28.954535,-143
14:36:28.954535,29695
14:36:28.954535,-1
14:36:28.954535,-143
14:36:28.954535,29695
14:36:28.954535,-1
14:36:28.954535,-141
14:36:28.954535,28415
14:36:28.954535,-1
14:36:28.954535,-153
14:36:28.954535,27903
14:36:28.954535,-1
14:36:28.954535,-134
14:36:28.954535,31487
14:36:28.954535,-1
14:36:28.954535,-139
14:36:28.954535,-31489
14:36:28.954535,-1
14:36:28.954535,-117
14:36:28.954535,-29697
14:36:28.954535,-1
14:36:28.954535,-105
14:36:28.954535,-21761
14:36:28.954535,-1
14:36:28.954535,-79
14:36:28.954535,-18689
14:36:28.954535,-1
14:36:28.954535,-69
14:36:28.954535,-16897
14:36:28.954535,-1
14:36:28.954535,-69
14:36:28.954535,-16129
14:36:28.954535,-1
14:36:28.954535,-57
14:36:28.954535,-13825
14:36:28.954535,-1
14:36:28.954535,-57
14:36:28.954535,-13825
14:36:28.954535,-1
14:36:28.954535,-50
14:36:28.954535,-11777
14:36:28.954535,-1
14:36:28.954535,-57
14:36:28.954535,-15617
14:36:28.954535,-1
14:36:28.954535,-59
14:36:29.554524,-57
14:36:29.554524,-13825
14:36:29.554524,-1
14:36:29.554524,-57
14:36:29.554524,-13825
14:36:29.554524,-1
14:36:29.554524,-45
14:36:29.554524,-11265
14:36:29.554524,-1
14:36:29.554524,-52
14:36:29.554524,-9985
14:36:29.554524,-1
14:36:29.554524,-23
14:36:29.554524,-4609
14:36:29.554524,-1
14:36:29.554524,-26
14:36:29.554524,-6913
14:36:29.554524,-1
14:36:29.554524,-31
14:36:29.554524,-7681
14:36:29.554524,-1
14:36:29.554524,-33
14:36:29.554524,-8193
14:36:29.554524,-1
14:36:29.554524,-26
14:36:29.554524,-5121
14:36:29.554524,-1
14:36:29.554524,-14
14:36:29.554524,-257
14:36:29.554524,-1
14:36:29.554524,4
14:36:29.554524,0
14:36:29.554524,0
14:36:29.554524,-11
14:36:29.554524,-4609
14:36:29.554524,-1
14:36:29.554524,-16
14:36:29.554524,-3329
14:36:29.554524,-1
14:36:29.554524,-19
14:36:29.554524,-5121
14:36:29.554524,-1
14:36:29.554524,-23
14:36:29.554524,-13057
14:36:29.554524,-1
14:36:29.554524,-117
14:36:29.554524,27391
14:36:29.554524,-1
14:36:29.554524,35
14:36:29.554524,14336
14:36:29.554524,2
14:36:29.554524,1042
14:36:29.554524,-19968
14:36:29.554524,3
14:36:29.554524,503
14:36:29.554524,-22784
14:36:29.554524,0
14:36:29.554524,-21
14:36:29.554524,32767
14:36:29.554524,-1
14:36:29.554524,-153
14:36:29.554524,26623
14:36:29.554524,-1
14:36:29.554524,-170
14:36:29.554524,21247
14:36:29.554524,-1
14:36:29.554524,-160
14:36:29.554524,26623
14:36:29.554524,-1
14:36:29.554524,-155
14:36:29.554524,27391
14:36:29.554524,-1
14:36:29.554524,-148
14:36:29.554524,26111
14:36:29.554524,-1
14:36:29.554524,-153
14:36:29.554524,29695
14:36:29.554524,-1
14:36:29.554524,-141
14:36:29.554524,27391
14:36:29.554524,-1
14:36:29.554524,-148
14:36:29.554524,29695
14:36:29.554524,-1
14:36:29.554524,-143
14:36:29.554524,29183
14:36:29.554524,-1
14:36:29.554524,-139
14:36:29.554524,30207
14:36:29.554524,-1
14:36:29.554524,-136
14:36:29.554524,32767
14:36:29.554524,-1
14:36:29.554524,-122
14:36:29.554524,-28417
14:36:29.554524,-1
14:36:29.554524,-103
14:36:29.554524,-23553
14:36:29.554524,-1
14:36:29.554524,-83
14:36:29.554524,-18689
14:36:29.554524,-1
14:36:29.554524,-74
14:36:29.554524,-19201
14:36:29.554524,-1
14:36:29.554524,-74
14:36:29.554524,-17409
14:36:29.554524,-1
14:36:29.554524,-69
14:36:30.064536,-64
14:36:30.064536,-15617
14:36:30.064536,-1
14:36:30.064536,-62
14:36:30.064536,-15617
14:36:30.064536,-1
14:36:30.064536,-62
14:36:30.064536,-14849
14:36:30.064536,-1
14:36:30.064536,-57
14:36:30.064536,-13825
14:36:30.064536,-1
14:36:30.064536,-52
14:36:30.064536,-12545
14:36:30.064536,-1
14:36:30.064536,-52
14:36:30.064536,-12545
14:36:30.064536,-1
14:36:30.064536,-33
14:36:30.064536,-5633
14:36:30.064536,-1
14:36:30.064536,-26
14:36:30.064536,-6913
14:36:30.064536,-1
14:36:30.064536,-26
14:36:30.064536,-6401
14:36:30.064536,-1
14:36:30.064536,-26
14:36:30.064536,-6401
14:36:30.064536,-1
14:36:30.064536,-26
14:36:30.064536,-7681
14:36:30.064536,-1
14:36:30.064536,-35
14:36:30.064536,-8193
14:36:30.064536,-1
14:36:30.064536,-21
14:36:30.064536,-3329
14:36:30.064536,-1
14:36:30.064536,-9
14:36:30.064536,-257
14:36:30.064536,-1
14:36:30.064536,2
14:36:30.064536,-512
14:36:30.064536,-1
14:36:30.064536,-16
14:36:30.064536,-5121
14:36:30.064536,-1
14:36:30.064536,-19
14:36:30.064536,-5121
14:36:30.064536,-1
14:36:30.064536,-21
14:36:30.064536,-4609
14:36:30.064536,-1
14:36:30.064536,-26
14:36:30.064536,-17409
14:36:30.064536,-1
14:36:30.064536,-136
14:36:30.064536,-27137
14:36:30.064536,-1
14:36:30.064536,237
14:36:30.064536,13824
14:36:30.064536,3
14:36:30.064536,1085
14:36:30.064536,2048
14:36:30.064536,3
14:36:30.064536,342
14:36:30.064536,18944
14:36:30.064536,0
14:36:30.064536,-74
14:36:30.064536,30207
14:36:30.064536,-1
14:36:30.064536,-146
14:36:30.064536,26623
14:36:30.064536,-1
14:36:30.064536,-167
14:36:30.064536,24319
14:36:30.064536,-1
14:36:30.064536,-153
14:36:30.064536,24831
14:36:30.064536,-1
14:36:30.064536,-160
14:36:30.064536,26623
14:36:30.064536,-1
14:36:30.064536,-150
14:36:30.064536,26623
14:36:30.064536,-1
14:36:30.064536,-150
14:36:30.064536,27391
14:36:30.064536,-1
14:36:30.064536,-150
14:36:30.064536,27903
14:36:30.064536,-1
14:36:30.064536,-139
14:36:30.064536,31487
14:36:30.064536,-1
14:36:30.064536,-146
14:36:30.064536,27391
14:36:30.064536,-1
14:36:30.064536,-143
14:36:30.064536,30207
14:36:30.064536,-1
14:36:30.064536,-136
14:36:30.064536,32255
14:36:30.064536,-1
14:36:30.064536,-122
14:36:30.064536,-27137
14:36:30.064536,-1
14:36:30.064536,-93
14:36:30.634532,-88
14:36:30.634532,-22273
14:36:30.634532,-1
14:36:30.634532,-86
14:36:30.634532,-19969
14:36:30.634532,-1
14:36:30.634532,-74
14:36:30.634532,-18689
14:36:30.634532,-1
14:36:30.634532,-57
14:36:30.634532,-8705
14:36:30.634532,-1
14:36:30.634532,-40
14:36:30.634532,-12545
14:36:30.634532,-1
14:36:30.634532,-43
14:36:30.634532,-8705
14:36:30.634532,-1
14:36:30.634532,-45
14:36:30.634532,-11265
14:36:30.634532,-1
14:36:30.634532,-38
14:36:30.634532,-10753
14:36:30.634532,-1
14:36:30.634532,-47
14:36:30.634532,-10753
14:36:30.634532,-1
14:36:30.634532,-38
14:36:30.634532,-9473
14:36:30.634532,-1
14:36:30.634532,-40
14:36:30.634532,-8705
14:36:30.634532,-1
14:36:30.634532,-33
14:36:30.634532,-9473
14:36:30.634532,-1
14:36:30.634532,-40
14:36:30.634532,-9985
14:36:30.634532,-1
14:36:30.634532,-38
14:36:30.634532,-9473
14:36:30.634532,-1
14:36:30.634532,-40
14:36:30.634532,-9473
14:36:30.634532,-1
14:36:30.634532,-35
14:36:30.634532,-9473
14:36:30.634532,-1
14:36:30.634532,-38
14:36:30.634532,-8193
14:36:30.634532,-1
14:36:30.634532,-28
14:36:30.634532,-5633
14:36:30.634532,-1
14:36:30.634532,-16
14:36:30.634532,-2049
14:36:30.634532,-1
14:36:30.634532,-7
14:36:30.634532,-2049
14:36:30.634532,-1
14:36:30.634532,-21
14:36:30.634532,-5633
14:36:30.634532,-1
14:36:30.634532,-21
14:36:30.634532,-5633
14:36:30.634532,-1
14:36:30.634532,-28
14:36:30.634532,-6913
14:36:30.634532,-1
14:36:30.634532,-35
14:36:30.634532,-18689
14:36:30.634532,-1
14:36:30.634532,-139
14:36:30.634532,-27905
14:36:30.634532,-1
14:36:30.634532,227
14:36:30.634532,8704
14:36:30.634532,3
14:36:30.634532,1056
14:36:30.634532,-4096
14:36:30.634532,2
14:36:30.634532,321
14:36:30.634532,14080
14:36:30.634532,0
14:36:30.634532,-83
14:36:30.634532,29695
14:36:30.634532,-1
14:36:30.634532,-158
14:36:30.634532,22271
14:36:30.634532,-1
14:36:30.634532,-174
14:36:30.634532,21759
14:36:30.634532,-1
14:36:30.634532,-167
14:36:30.634532,23551
14:36:30.634532,-1
14:36:30.634532,-167
14:36:30.634532,24319
14:36:30.634532,-1
14:36:30.634532,-155
14:36:30.634532,26111
14:36:30.634532,-1
14:36:30.634532,-160
14:36:30.634532,25343
14:36:30.634532,-1
14:36:30.634532,-158
14:36:30.634532,24831
14:36:30.634532,-1
14:36:30.634532,-160
14:36:31.175544,-155
14:36:31.175544,26111
14:36:31.175544,-1
14:36:31.175544,-158
14:36:31.175544,27903
14:36:31.175544,-1
14:36:31.175544,-141
14:36:31.175544,29695
14:36:31.175544,-1
14:36:31.175544,-136
14:36:31.175544,-30209
14:36:31.175544,-1
14:36:31.175544,-100
14:36:31.175544,-22273
14:36:31.175544,-1
14:36:31.175544,-83
14:36:31.175544,-20481
14:36:31.175544,-1
14:36:31.175544,-79
14:36:31.175544,-19201
14:36:31.175544,-1
14:36:31.175544,-74
14:36:31.175544,-18689
14:36:31.175544,-1
14:36:31.175544,-74
14:36:31.175544,-17409
14:36:31.175544,-1
14:36:31.175544,-69
14:36:31.175544,-17409
14:36:31.175544,-1
14:36:31.175544,-52
14:36:31.175544,-11265
14:36:31.175544,-1
14:36:31.175544,-57
14:36:31.175544,-11265
14:36:31.175544,-1
14:36:31.175544,-33
14:36:31.175544,-13825
14:36:31.175544,-1
14:36:31.175544,-55
14:36:31.175544,-8705
14:36:31.175544,-1
14:36:31.175544,-38
14:36:31.175544,-9985
14:36:31.175544,-1
14:36:31.175544,-31
14:36:31.175544,-6401
14:36:31.175544,-1
14:36:31.175544,-21
14:36:31.175544,-5121
14:36:31.175544,-1
14:36:31.175544,-35
14:36:31.175544,-9985
14:36:31.175544,-1
14:36:31.175544,-40
14:36:31.175544,-8705
14:36:31.175544,-1
14:36:31.175544,-28
14:36:31.175544,-7681
14:36:31.175544,-1
14:36:31.175544,-35
14:36:31.175544,-7681
14:36:31.175544,-1
14:36:31.175544,-26
14:36:31.175544,-6401
14:36:31.175544,-1
14:36:31.175544,-23
14:36:31.175544,-7681
14:36:31.175544,-1
14:36:31.175544,-26
14:36:31.175544,-2049
14:36:31.175544,-1
14:36:31.175544,-4
14:36:31.175544,-257
14:36:31.175544,-1
14:36:31.175544,-2
14:36:31.175544,-3329
14:36:31.175544,-1
14:36:31.175544,-19
14:36:31.175544,-2561
14:36:31.175544,-1
14:36:31.175544,-16
14:36:31.175544,-5633
14:36:31.175544,-1
14:36:31.175544,-23
14:36:31.175544,-6401
14:36:31.175544,-1
14:36:31.175544,-67
14:36:31.175544,30207
14:36:31.175544,-1
14:36:31.175544,-93
14:36:31.175544,3839
14:36:31.175544,1
14:36:31.175544,829
14:36:31.175544,-5120
14:36:31.175544,3
14:36:31.175544,666
14:36:31.175544,12800
14:36:31.175544,1
14:36:31.175544,95
14:36:31.175544,-14592
14:36:31.175544,-1
14:36:31.175544,-124
14:36:31.175544,31487
14:36:31.175544,-1
14:36:31.175544,-153
14:36:31.175544,24319
14:36:31.175544,-1
14:36:31.175544,-148
14:36:31.774535,-139
14:36:31.774535,29695
14:36:31.774535,-1
14:36:31.774535,-136
14:36:31.774535,32767
14:36:31.774535,-1
14:36:31.774535,-129
14:36:31.774535,-29697
14:36:31.774535,-1
14:36:31.774535,-105
14:36:31.774535,-27905
14:36:31.774535,-1
14:36:31.774535,-112
14:36:31.774535,-27905
14:36:31.774535,-1
14:36:31.774535,-110
14:36:31.774535,-29185
14:36:31.774535,-1
14:36:31.774535,-119
14:36:31.774535,-30209
14:36:31.774535,-1
14:36:31.774535,-110
14:36:31.774535,-25345
14:36:31.774535,-1
14:36:31.774535,-100
14:36:31.774535,-24065
14:36:31.774535,-1
14:36:31.774535,-74
14:36:31.774535,-15617
14:36:31.774535,-1
14:36:31.774535,-62
14:36:31.774535,-14849
14:36:31.774535,-1
14:36:31.774535,-59
14:36:31.774535,-16129
14:36:31.774535,-1
14:36:31.774535,-64
14:36:31.774535,-14849
14:36:31.774535,-1
14:36:31.774535,-57
14:36:31.774535,-13825
14:36:31.774535,-1
14:36:31.774535,-52
14:36:31.774535,-13057
14:36:31.774535,-1
14:36:31.774535,-57
14:36:31.774535,-14337
14:36:31.774535,-1
14:36:31.774535,-50
14:36:31.774535,-11777
14:36:31.774535,-1
14:36:31.774535,-52
14:36:31.774535,-13057
14:36:31.774535,-1
14:36:31.774535,-50
14:36:31.774535,-11777
14:36:31.774535,-1
14:36:31.774535,-45
14:36:31.774535,-9473
14:36:31.774535,-1
14:36:31.774535,-35
14:36:31.774535,-9985
14:36:31.774535,-1
14:36:31.774535,-43
14:36:31.774535,-9985
14:36:31.774535,-1
14:36:31.774535,-38
14:36:31.774535,-8193
14:36:31.774535,-1
14:36:31.774535,-33
14:36:31.774535,-8193
14:36:31.774535,-1
14:36:31.774535,-26
14:36:31.774535,-6401
14:36:31.774535,-1
14:36:31.774535,-33
14:36:31.774535,-9473
14:36:31.774535,-1
14:36:31.774535,-38
14:36:31.774535,-11265
14:36:31.774535,-1
14:36:31.774535,-43
14:36:31.774535,-8705
14:36:31.774535,-1
14:36:31.774535,-28
14:36:31.774535,-5121
14:36:31.774535,-1
14:36:31.774535,-11
14:36:31.774535,-769
14:36:31.774535,-1
14:36:31.774535,-11
14:36:31.774535,-5633
14:36:31.774535,-1
14:36:31.774535,-23
14:36:31.774535,-4609
14:36:31.774535,-1
14:36:31.774535,-23
14:36:31.774535,-6913
14:36:31.774535,-1
14:36:31.774535,-28
14:36:31.774535,-11777
14:36:31.774535,-1
14:36:31.774535,-103
14:36:31.774535,23551
14:36:31.774535,-1
14:36:31.774535,-59
14:36:31.774535,-29697
14:36:31.774535,1
14:36:31.774535,939
14:36:32.314532,994
14:36:32.314532,20992
14:36:32.314532,2
14:36:32.314532,232
14:36:32.314532,7168
14:36:32.314532,0
14:36:32.314532,-103
14:36:32.314532,26111
14:36:32.314532,-1
14:36:32.314532,-165
14:36:32.314532,24319
14:36:32.314532,-1
14:36:32.314532,-158
14:36:32.314532,26623
14:36:32.314532,-1
14:36:32.314532,-141
14:36:32.314532,31487
14:36:32.314532,-1
14:36:32.314532,-139
14:36:32.314532,30975
14:36:32.314532,-1
14:36:32.314532,-131
14:36:32.314532,32255
14:36:32.314532,-1
14:36:32.314532,-129
14:36:32.314532,-32257
14:36:32.314532,-1
14:36:32.314532,-131
14:36:32.314532,30975
14:36:32.314532,-1
14:36:32.314532,-139
14:36:32.314532,30975
14:36:32.314532,-1
14:36:32.314532,-136
14:36:32.314532,30975
14:36:32.314532,-1
14:36:32.314532,-136
14:36:32.314532,32255
14:36:32.314532,-1
14:36:32.314532,-124
14:36:32.314532,-30209
14:36:32.314532,-1
14:36:32.314532,-112
14:36:32.314532,-24833
14:36:32.314532,-1
14:36:32.314532,-86
14:36:32.314532,-21761
14:36:32.314532,-1
14:36:32.314532,-88
14:36:32.314532,-20993
14:36:32.314532,-1
14:36:32.314532,-79
14:36:32.314532,-20481
14:36:32.314532,-1
14:36:32.314532,-79
14:36:32.314532,-19969
14:36:32.314532,-1
14:36:32.314532,-76
14:36:32.314532,-16897
14:36:32.314532,-1
14:36:32.314532,-62
14:36:32.314532,-16897
14:36:32.314532,-1
14:36:32.314532,-69
14:36:32.314532,-16129
14:36:32.314532,-1
14:36:32.314532,-59
14:36:32.314532,-14849
14:36:32.314532,-1
14:36:32.314532,-57
14:36:32.314532,-13825
14:36:32.314532,-1
14:36:32.314532,-52
14:36:32.314532,-13057
14:36:32.314532,-1
14:36:32.314532,-52
14:36:32.314532,-11777
14:36:32.314532,-1
14:36:32.314532,-38
14:36:32.314532,-9473
14:36:32.314532,-1
14:36:32.314532,-40
14:36:32.314532,-8705
14:36:32.314532,-1
14:36:32.314532,-33
14:36:32.314532,-8193
14:36:32.314532,-1
14:36:32.314532,-38
14:36:32.314532,-8705
14:36:32.314532,-1
14:36:32.314532,-31
14:36:32.314532,-8193
14:36:32.314532,-1
14:36:32.314532,-40
14:36:32.314532,-11265
14:36:32.314532,-1
14:36:32.314532,-38
14:36:32.314532,-8193
14:36:32.314532,-1
14:36:32.314532,-26
14:36:32.314532,-3841
14:36:32.314532,-1
14:36:32.314532,-9
14:36:32.314532,-3329
14:36:32.314532,-1
14:36:32.314532,-28
14:36:32.314532,-8193
14:36:32.314532,-1
14:36:32.314532,-23
14:36:32.884529,-9
14:36:32.884529,-2049
14:36:32.884529,-1
14:36:32.884529,-19
14:36:32.884529,-6913
14:36:32.884529,-1
14:36:32.884529,-59
14:36:32.884529,32255
14:36:32.884529,-1
14:36:32.884529,-139
14:36:32.884529,-30977
14:36:32.884529,0
14:36:32.884529,699
14:36:32.884529,-1024
14:36:32.884529,3
14:36:32.884529,778
14:36:32.884529,-29440
14:36:32.884529,1
14:36:32.884529,174
14:36:32.884529,0
14:36:32.884529,0
14:36:32.884529,-103
14:36:32.884529,-30209
14:36:32.884529,-1
14:36:32.884529,-129
14:36:32.884529,29183
14:36:32.884529,-1
14:36:32.884529,-146
14:36:32.884529,29695
14:36:32.884529,-1
14:36:32.884529,-136
14:36:32.884529,31487
14:36:32.884529,-1
14:36:32.884529,-134
14:36:32.884529,32255
14:36:32.884529,-1
14:36:32.884529,-129
14:36:32.884529,32255
14:36:32.884529,-1
14:36:32.884529,-131
14:36:32.884529,-32257
14:36:32.884529,-1
14:36:32.884529,-127
14:36:32.884529,32255
14:36:32.884529,-1
14:36:32.884529,-129
14:36:32.884529,-31489
14:36:32.884529,-1
14:36:32.884529,-124
14:36:32.884529,-30977
14:36:32.884529,-1
14:36:32.884529,-119
14:36:32.884529,-29185
14:36:32.884529,-1
14:36:32.884529,-105
14:36:32.884529,-22273
14:36:32.884529,-1
14:36:32.884529,-74
14:36:32.884529,-17409
14:36:32.884529,-1
14:36:32.884529,-69
14:36:32.884529,-16897
14:36:32.884529,-1
14:36:32.884529,-67
14:36:32.884529,-17409
14:36:32.884529,-1
14:36:32.884529,-69
14:36:32.884529,-17921
14:36:32.884529,-1
14:36:32.884529,-71
14:36:32.884529,-16129
14:36:32.884529,-1
14:36:32.884529,-55
14:36:32.884529,-14849
14:36:32.884529,-1
14:36:32.884529,-64
14:36:32.884529,-15617
14:36:32.884529,-1
14:36:32.884529,-59
14:36:32.884529,-14337
14:36:32.884529,-1
14:36:32.884529,-59
14:36:32.884529,-14849
14:36:32.884529,-1
14:36:32.884529,-52
14:36:32.884529,-12545
14:36:32.884529,-1
14:36:32.884529,-50
14:36:32.884529,-11265
14:36:32.884529,-1
14:36:32.884529,-45
14:36:32.884529,-9985
14:36:32.884529,-1
14:36:32.884529,-31
14:36:32.884529,-8193
14:36:32.884529,-1
14:36:32.884529,-40
14:36:32.884529,-8193
14:36:32.884529,-1
14:36:32.884529,-26
14:36:32.884529,-6401
14:36:32.884529,-1
14:36:32.884529,-31
14:36:32.884529,-6913
14:36:32.884529,-1
14:36:32.884529,-23
14:36:32.884529,-6401
14:36:32.884529,-1
14:36:32.884529,-31
14:36:33.425556,-31
14:36:33.425556,-9473
14:36:33.425556,-1
14:36:33.425556,-45
14:36:33.425556,-10753
14:36:33.425556,-1
14:36:33.425556,-35
14:36:33.425556,-6401
14:36:33.425556,-1
14:36:33.425556,-16
14:36:33.425556,-2049
14:36:33.425556,-1
14:36:33.425556,2
14:36:33.425556,2304
14:36:33.425556,0
14:36:33.425556,0
14:36:33.425556,-512
14:36:33.425556,-1
14:36:33.425556,4
14:36:33.425556,-512
14:36:33.425556,-1
14:36:33.425556,-14
14:36:33.425556,-3329
14:36:33.425556,-1
14:36:33.425556,-38
14:36:33.425556,-26625
14:36:33.425556,-1
14:36:33.425556,-146
14:36:33.425556,10495
14:36:33.425556,0
14:36:33.425556,572
14:36:33.425556,4096
14:36:33.425556,4
14:36:33.425556,937
14:36:33.425556,-3584
14:36:33.425556,1
14:36:33.425556,184
14:36:33.425556,2816
14:36:33.425556,0
14:36:33.425556,-100
14:36:33.425556,29695
14:36:33.425556,-1
14:36:33.425556,-150
14:36:33.425556,25343
14:36:33.425556,-1
14:36:33.425556,-162
14:36:33.425556,24831
14:36:33.425556,-1
14:36:33.425556,-155
14:36:33.425556,27391
14:36:33.425556,-1
14:36:33.425556,-148
14:36:33.425556,27391
14:36:33.425556,-1
14:36:33.425556,-148
14:36:33.425556,30207
14:36:33.425556,-1
14:36:33.425556,-134
14:36:33.425556,30207
14:36:33.425556,-1
14:36:33.425556,-139
14:36:33.425556,30207
14:36:33.425556,-1
14:36:33.425556,-141
14:36:33.425556,29183
14:36:33.425556,-1
14:36:33.425556,-146
14:36:33.425556,29183
14:36:33.425556,-1
14:36:33.425556,-131
14:36:33.425556,-31489
14:36:33.425556,-1
14:36:33.425556,-119
14:36:33.425556,-27905
14:36:33.425556,-1
14:36:33.425556,-95
14:36:33.425556,-20993
14:36:33.425556,-1
14:36:33.425556,-76
14:36:33.425556,-19201
14:36:33.425556,-1
14:36:33.425556,-74
14:36:33.425556,-19201
14:36:33.425556,-1
14:36:33.425556,-79
14:36:33.425556,-18689
14:36:33.425556,-1
14:36:33.425556,-62
14:36:33.425556,-14337
14:36:33.425556,-1
14:36:33.425556,-59
14:36:33.425556,-14849
14:36:33.425556,-1
14:36:33.425556,-50
14:36:33.425556,-11265
14:36:33.425556,-1
14:36:33.425556,-52
14:36:33.425556,-14337
14:36:33.425556,-1
14:36:33.425556,-45
14:36:33.425556,-9985
14:36:33.425556,-1
14:36:33.425556,-43
14:36:33.425556,-9985
14:36:33.425556,-1
14:36:33.425556,-33
14:36:33.425556,-8193
14:36:33.425556,-1
14:36:33.425556,-33
14:36:33.994526,-31
14:36:33.994526,-6913
14:36:33.994526,-1
14:36:33.994526,-28
14:36:33.994526,-6401
14:36:33.994526,-1
14:36:33.994526,-14
14:36:33.994526,-1537
14:36:33.994526,-1
14:36:33.994526,-2
14:36:33.994526,255
14:36:33.994526,0
14:36:33.994526,-4
14:36:33.994526,-257
14:36:33.994526,-1
14:36:33.994526,-4
14:36:33.994526,-1537
14:36:33.994526,-1
14:36:33.994526,-9
14:36:33.994526,-2561
14:36:33.994526,-1
14:36:33.994526,-19
14:36:33.994526,-5121
14:36:33.994526,-1
14:36:33.994526,-16
14:36:33.994526,-3329
14:36:33.994526,-1
14:36:33.994526,-7
14:36:33.994526,767
14:36:33.994526,0
14:36:33.994526,7
14:36:33.994526,2304
14:36:33.994526,0
14:36:33.994526,2
14:36:33.994526,-1792
14:36:33.994526,-1
14:36:33.994526,-9
14:36:33.994526,-1537
14:36:33.994526,-1
14:36:33.994526,-7
14:36:33.994526,-2049
14:36:33.994526,-1
14:36:33.994526,-14
14:36:33.994526,-8705
14:36:33.994526,-1
14:36:33.994526,-95
14:36:33.994526,26623
14:36:33.994526,-1
14:36:33.994526,-28
14:36:33.994526,-15105
14:36:33.994526,1
14:36:33.994526,985
14:36:33.994526,-5888
14:36:33.994526,3
14:36:33.994526,579
14:36:33.994526,-8704
14:36:33.994526,0
14:36:33.994526,23
14:36:33.994526,-25088
14:36:33.994526,-1
14:36:33.994526,-143
14:36:33.994526,26111
14:36:33.994526,-1
14:36:33.994526,-165
14:36:33.994526,23551
14:36:33.994526,-1
14:36:33.994526,-160
14:36:33.994526,24831
14:36:33.994526,-1
14:36:33.994526,-155
14:36:33.994526,27391
14:36:33.994526,-1
14:36:33.994526,-153
14:36:33.994526,26623
14:36:33.994526,-1
14:36:33.994526,-146
14:36:33.994526,29695
14:36:33.994526,-1
14:36:33.994526,-141
14:36:33.994526,29695
14:36:33.994526,-1
14:36:33.994526,-141
14:36:33.994526,30975
14:36:33.994526,-1
14:36:33.994526,-136
14:36:33.994526,30207
14:36:33.994526,-1
14:36:33.994526,-134
14:36:33.994526,32767
14:36:33.994526,-1
14:36:33.994526,-127
14:36:33.994526,-29697
14:36:33.994526,-1
14:36:33.994526,-110
14:36:33.994526,-26113
14:36:33.994526,-1
14:36:33.994526,-83
14:36:33.994526,-18689
14:36:33.994526,-1
14:36:33.994526,-76
14:36:33.994526,-19201
14:36:33.994526,-1
14:36:33.994526,-71
14:36:33.994526,-17921
14:36:33.994526,-1
14:36:33.994526,-71
14:36:33.994526,-17409
14:36:33.994526,-1
14:36:33.994526,-64
14:36:34.534526,-62
14:36:34.534526,-16129
14:36:34.534526,-1
14:36:34.534526,-62
14:36:34.534526,-13057
14:36:34.534526,-1
14:36:34.534526,-50
14:36:34.534526,-13057
14:36:34.534526,-1
14:36:34.534526,-45
14:36:34.534526,-6913
14:36:34.534526,-1
14:36:34.534526,-21
14:36:34.534526,-5633
14:36:34.534526,-1
14:36:34.534526,-28
14:36:34.534526,-6401
14:36:34.534526,-1
14:36:34.534526,-23
14:36:34.534526,-5633
14:36:34.534526,-1
14:36:34.534526,-23
14:36:34.534526,-5121
14:36:34.534526,-1
14:36:34.534526,-21
14:36:34.534526,-6401
14:36:34.534526,-1
14:36:34.534526,-23
14:36:34.534526,-4609
14:36:34.534526,-1
14:36:34.534526,-21
14:36:34.534526,-5633
14:36:34.534526,-1
14:36:34.534526,-21
14:36:34.534526,-5121
14:36:34.534526,-1
14:36:34.534526,-26
14:36:34.534526,-6913
14:36:34.534526,-1
14:36:34.534526,-31
14:36:34.534526,-8705
14:36:34.534526,-1
14:36:34.534526,-40
14:36:34.534526,-10753
14:36:34.534526,-1
14:36:34.534526,-43
14:36:34.534526,-9473
14:36:34.534526,-1
14:36:34.534526,-33
14:36:34.534526,-6913
14:36:34.534526,-1
14:36:34.534526,-19
14:36:34.534526,-2049
14:36:34.534526,-1
14:36:34.534526,-11
14:36:34.534526,-5633
14:36:34.534526,-1
14:36:34.534526,-26
14:36:34.534526,-4609
14:36:34.534526,-1
14:36:34.534526,-23
14:36:34.534526,-7681
14:36:34.534526,-1
14:36:34.534526,-31
14:36:34.534526,-7681
14:36:34.534526,-1
14:36:34.534526,-55
14:36:34.534526,-30209
14:36:34.534526,-1
14:36:34.534526,-148
14:36:34.534526,16639
14:36:34.534526,0
14:36:34.534526,596
14:36:34.534526,-2816
14:36:34.534526,3
14:36:34.534526,857
14:36:34.534526,-23296
14:36:34.534526,1
14:36:34.534526,155
14:36:34.534526,512
14:36:34.534526,0
14:36:34.534526,-115
14:36:34.534526,26623
14:36:34.534526,-1
14:36:34.534526,-158
14:36:34.534526,23551
14:36:34.534526,-1
14:36:34.534526,-162
14:36:34.534526,24831
14:36:34.534526,-1
14:36:34.534526,-162
14:36:34.534526,24319
14:36:34.534526,-1
14:36:34.534526,-160
14:36:34.534526,24831
14:36:34.534526,-1
14:36:34.534526,-155
14:36:34.534526,26111
14:36:34.534526,-1
14:36:34.534526,-150
14:36:34.534526,32255
14:36:34.534526,-1
14:36:34.534526,-124
14:36:34.534526,31487
14:36:34.534526,-1
14:36:34.534526,-134
14:36:34.534526,32767
14:36:34.534526,-1
14:36:34.534526,-131
14:36:35.135570,-129
14:36:35.135570,-30209
14:36:35.135570,-1
14:36:35.135570,-115
14:36:35.135570,-26625
14:36:35.135570,-1
14:36:35.135570,-76
14:36:35.135570,-12545
14:36:35.135570,-1
14:36:35.135570,-50
14:36:35.135570,-13825
14:36:35.135570,-1
14:36:35.135570,-47
14:36:35.135570,-13057
14:36:35.135570,-1
14:36:35.135570,-62
14:36:35.135570,-14849
14:36:35.135570,-1
14:36:35.135570,-57
14:36:35.135570,-14849
14:36:35.135570,-1
14:36:35.135570,-52
14:36:35.135570,-11265
14:36:35.135570,-1
14:36:35.135570,-50
14:36:35.135570,-12545
14:36:35.135570,-1
14:36:35.135570,-47
14:36:35.135570,-11777
14:36:35.135570,-1
14:36:35.135570,-40
14:36:35.135570,-8705
14:36:35.135570,-1
14:36:35.135570,-43
14:36:35.135570,-11265
14:36:35.135570,-1
14:36:35.135570,-43
14:36:35.135570,-10753
14:36:35.135570,-1
14:36:35.135570,-38
14:36:35.135570,-6913
14:36:35.135570,-1
14:36:35.135570,-26
14:36:35.135570,-8193
14:36:35.135570,-1
14:36:35.135570,-33
14:36:35.135570,-6913
14:36:35.135570,-1
14:36:35.135570,-26
14:36:35.135570,-6401
14:36:35.135570,-1
14:36:35.135570,-31
14:36:35.135570,-6913
14:36:35.135570,-1
14:36:35.135570,-23
14:36:35.135570,-5633
14:36:35.135570,-1
14:36:35.135570,-21
14:36:35.135570,-5121
14:36:35.135570,-1
14:36:35.135570,-28
14:36:35.135570,-8193
14:36:35.135570,-1
14:36:35.135570,-35
14:36:35.135570,-9473
14:36:35.135570,-1
14:36:35.135570,-38
14:36:35.135570,-8193
14:36:35.135570,-1
14:36:35.135570,-23
14:36:35.135570,-3841
14:36:35.135570,-1
14:36:35.135570,-11
14:36:35.135570,-2561
14:36:35.135570,-1
14:36:35.135570,-21
14:36:35.135570,-6913
14:36:35.135570,-1
14:36:35.135570,-23
14:36:35.135570,-4609
14:36:35.135570,-1
14:36:35.135570,-19
14:36:35.135570,-6913
14:36:35.135570,-1
14:36:35.135570,-35
14:36:35.135570,-15617
14:36:35.135570,-1
14:36:35.135570,-124
14:36:35.135570,25343
14:36:35.135570,-1
14:36:35.135570,43
14:36:35.135570,20224
14:36:35.135570,2
14:36:35.135570,1044
14:36:35.135570,-29696
14:36:35.135570,3
14:36:35.135570,462
14:36:35.135570,-25856
14:36:35.135570,0
14:36:35.135570,-16
14:36:35.135570,-31489
14:36:35.135570,-1
14:36:35.135570,-158
14:36:35.135570,23039
14:36:35.135570,-1
14:36:35.135570,-177
14:36:35.135570,21247
14:36:35.135570,-1
14:36:35.135570,-170
14:36:35.704535,-174
14:36:35.704535,21759
14:36:35.704535,-1
14:36:35.704535,-160
14:36:35.704535,26111
14:36:35.704535,-1
14:36:35.704535,-155
14:36:35.704535,26111
14:36:35.704535,-1
14:36:35.704535,-153
14:36:35.704535,27903
14:36:35.704535,-1
14:36:35.704535,-150
14:36:35.704535,29183
14:36:35.704535,-1
14:36:35.704535,-127
14:36:35.704535,-30977
14:36:35.704535,-1
14:36:35.704535,-127
14:36:35.704535,-30977
14:36:35.704535,-1
14:36:35.704535,-119
14:36:35.704535,-30977
14:36:35.704535,-1
14:36:35.704535,-112
14:36:35.704535,-24065
14:36:35.704535,-1
14:36:35.704535,-86
14:36:35.704535,-20481
14:36:35.704535,-1
14:36:35.704535,-71
14:36:35.704535,-16897
14:36:35.704535,-1
14:36:35.704535,-69
14:36:35.704535,-15617
14:36:35.704535,-1
14:36:35.704535,-57
14:36:35.704535,-13825
14:36:35.704535,-1
14:36:35.704535,-57
14:36:35.704535,-14337
14:36:35.704535,-1
14:36:35.704535,-45
14:36:35.704535,-10753
14:36:35.704535,-1
14:36:35.704535,-45
14:36:35.704535,-9473
14:36:35.704535,-1
14:36:35.704535,-35
14:36:35.704535,-10753
14:36:35.704535,-1
14:36:35.704535,-43
14:36:35.704535,-9985
14:36:35.704535,-1
14:36:35.704535,-40
14:36:35.704535,-10753
14:36:35.704535,-1
14:36:35.704535,-40
14:36:35.704535,-10753
14:36:35.704535,-1
14:36:35.704535,-45
14:36:35.704535,-9985
14:36:35.704535,-1
14:36:35.704535,-33
14:36:35.704535,-6401
14:36:35.704535,-1
14:36:35.704535,-23
14:36:35.704535,-6401
14:36:35.704535,-1
14:36:35.704535,-33
14:36:35.704535,-8705
14:36:35.704535,-1
14:36:35.704535,-31
14:36:35.704535,-6913
14:36:35.704535,-1
14:36:35.704535,-31
14:36:35.704535,-9985
14:36:35.704535,-1
14:36:35.704535,-43
14:36:35.704535,-8705
14:36:35.704535,-1
14:36:35.704535,-40
14:36:35.704535,-11265
14:36:35.704535,-1
14:36:35.704535,-23
14:36:35.704535,-769
14:36:35.704535,-1
14:36:35.704535,-7
14:36:35.704535,-2561
14:36:35.704535,-1
14:36:35.704535,-14
14:36:35.704535,-5121
14:36:35.704535,-1
14:36:35.704535,-21
14:36:35.704535,-5633
14:36:35.704535,-1
14:36:35.704535,-26
14:36:35.704535,-6913
14:36:35.704535,-1
14:36:35.704535,-28
14:36:35.704535,-12545
14:36:35.704535,-1
14:36:35.704535,-117
14:36:35.704535,22271
14:36:35.704535,-1
14:36:35.704535,-21
14:36:35.704535,-9985
14:36:35.704535,1
14:36:35.704535,956
14:36:36.244536,896
14:36:36.244536,-4096
14:36:36.244536,1
14:36:36.244536,222
14:36:36.244536,11520
14:36:36.244536,0
14:36:36.244536,-100
14:36:36.244536,29695
14:36:36.244536,-1
14:36:36.244536,-146
14:36:36.244536,23551
14:36:36.244536,-1
14:36:36.244536,-165
14:36:36.244536,26623
14:36:36.244536,-1
14:36:36.244536,-136
14:36:36.244536,-30209
14:36:36.244536,-1
14:36:36.244536,-117
14:36:36.244536,-29185
14:36:36.244536,-1
14:36:36.244536,-107
14:36:36.244536,-27905
14:36:36.244536,-1
14:36:36.244536,-115
14:36:36.244536,-28417
14:36:36.244536,-1
14:36:36.244536,-110
14:36:36.244536,-27905
14:36:36.244536,-1
14:36:36.244536,-112
14:36:36.244536,-29185
14:36:36.244536,-1
14:36:36.244536,-107
14:36:36.244536,-25345
14:36:36.244536,-1
14:36:36.244536,-100
14:36:36.244536,-23553
14:36:36.244536,-1
14:36:36.244536,-86
14:36:36.244536,-19969
14:36:36.244536,-1
14:36:36.244536,-71
14:36:36.244536,-15617
14:36:36.244536,-1
14:36:36.244536,-52
14:36:36.244536,-14337
14:36:36.244536,-1
14:36:36.244536,-62
14:36:36.244536,-14849
14:36:36.244536,-1
14:36:36.244536,-55
14:36:36.244536,-13057
14:36:36.244536,-1
14:36:36.244536,-47
14:36:36.244536,-11777
14:36:36.244536,-1
14:36:36.244536,-45
14:36:36.244536,-9473
14:36:36.244536,-1
14:36:36.244536,-38
14:36:36.244536,-10753
14:36:36.244536,-1
14:36:36.244536,-43
14:36:36.244536,-10753
14:36:36.244536,-1
14:36:36.244536,-43
14:36:36.244536,-8705
14:36:36.244536,-1
14:36:36.244536,-33
14:36:36.244536,-9473
14:36:36.244536,-1
14:36:36.244536,-38
14:36:36.244536,-6913
14:36:36.244536,-1
14:36:36.244536,-26
14:36:36.244536,-6913
14:36:36.244536,-1
14:36:36.244536,-28
14:36:36.244536,-6913
14:36:36.244536,-1
14:36:36.244536,-28
14:36:36.244536,-6913
14:36:36.244536,-1
14:36:36.244536,-31
14:36:36.244536,-7681
14:36:36.244536,-1
14:36:36.244536,-28
14:36:36.244536,-6913
14:36:36.244536,-1
14:36:36.244536,-31
14:36:36.244536,-8705
14:36:36.244536,-1
14:36:36.244536,-43
14:36:36.244536,-11265
14:36:36.244536,-1
14:36:36.244536,-33
14:36:36.244536,-6401
14:36:36.244536,-1
14:36:36.244536,-21
14:36:36.244536,-3329
14:36:36.244536,-1
14:36:36.244536,-7
14:36:36.244536,-1537
14:36:36.244536,-1
14:36:36.244536,-19
14:36:36.244536,-5121
14:36:36.244536,-1
14:36:36.244536,-16
14:36:36.784532,-16
14:36:36.784532,-5121
14:36:36.784532,-1
14:36:36.784532,-23
14:36:36.784532,-6913
14:36:36.784532,-1
14:36:36.784532,-59
14:36:36.784532,-31489
14:36:36.784532,-1
14:36:36.784532,-139
14:36:36.784532,-32257
14:36:36.784532,0
14:36:36.784532,718
14:36:36.784532,16384
14:36:36.784532,4
14:36:36.784532,853
14:36:36.784532,-21504
14:36:36.784532,1
14:36:36.784532,165
14:36:36.784532,-4096
14:36:36.784532,-1
14:36:36.784532,-117
14:36:36.784532,32767
14:36:36.784532,-1
14:36:36.784532,-141
14:36:36.784532,26111
14:36:36.784532,-1
14:36:36.784532,-148
14:36:36.784532,28415
14:36:36.784532,-1
14:36:36.784532,-148
14:36:36.784532,29695
14:36:36.784532,-1
14:36:36.784532,-141
14:36:36.784532,28415
14:36:36.784532,-1
14:36:36.784532,-134
14:36:36.784532,32767
14:36:36.784532,-1
14:36:36.784532,-136
14:36:36.784532,30207
14:36:36.784532,-1
14:36:36.784532,-134
14:36:36.784532,30975
14:36:36.784532,-1
14:36:36.784532,-136
14:36:36.784532,30975
14:36:36.784532,-1
14:36:36.784532,-136
14:36:36.784532,30975
14:36:36.784532,-1
14:36:36.784532,-129
14:36:36.784532,-30209
14:36:36.784532,-1
14:36:36.784532,-112
14:36:36.784532,-26625
14:36:36.784532,-1
14:36:36.784532,-93
14:36:36.784532,-20993
14:36:36.784532,-1
14:36:36.784532,-79
14:36:36.784532,-19201
14:36:36.784532,-1
14:36:36.784532,-69
14:36:36.784532,-16129
14:36:36.784532,-1
14:36:36.784532,-67
14:36:36.784532,-16897
14:36:36.784532,-1
14:36:36.784532,-55
14:36:36.784532,-11777
14:36:36.784532,-1
14:36:36.784532,-47
14:36:36.784532,-12545
14:36:36.784532,-1
14:36:36.784532,-45
14:36:36.784532,-10753
14:36:36.784532,-1
14:36:36.784532,-50
14:36:36.784532,-12545
14:36:36.784532,-1
14:36:36.784532,-45
14:36:36.784532,-9473
14:36:36.784532,-1
14:36:36.784532,-38
14:36:36.784532,-11265
14:36:36.784532,-1
14:36:36.784532,-47
14:36:36.784532,-9473
14:36:36.784532,-1
14:36:36.784532,-31
14:36:36.784532,-9473
14:36:36.784532,-1
14:36:36.784532,-38
14:36:36.784532,-7681
14:36:36.784532,-1
14:36:36.784532,-28
14:36:36.784532,-6913
14:36:36.784532,-1
14:36:36.784532,-28
14:36:36.784532,-7681
14:36:36.784532,-1
14:36:36.784532,-35
14:36:36.784532,-8705
14:36:36.784532,-1
14:36:36.784532,-40
14:36:36.784532,-11777
14:36:36.784532,-1
14:36:36.784532,-47
14:36:37.354525,-38
14:36:37.354525,-6401
14:36:37.354525,-1
14:36:37.354525,-21
14:36:37.354525,-3841
14:36:37.354525,-1
14:36:37.354525,-4
14:36:37.354525,2047
14:36:37.354525,0
14:36:37.354525,0
14:36:37.354525,-2304
14:36:37.354525,-1
14:36:37.354525,0
14:36:37.354525,1024
14:36:37.354525,0
14:36:37.354525,-7
14:36:37.354525,-3329
14:36:37.354525,-1
14:36:37.354525,-26
14:36:37.354525,-20993
14:36:37.354525,-1
14:36:37.354525,-148
14:36:37.354525,-13825
14:36:37.354525,-1
14:36:37.354525,373
14:36:37.354525,-24832
14:36:37.354525,3
14:36:37.354525,1020
14:36:37.354525,30208
14:36:37.354525,2
14:36:37.354525,258
14:36:37.354525,12800
14:36:37.354525,0
14:36:37.354525,-83
14:36:37.354525,30207
14:36:37.354525,-1
14:36:37.354525,-153
14:36:37.354525,23039
14:36:37.354525,-1
14:36:37.354525,-167
14:36:37.354525,24319
14:36:37.354525,-1
14:36:37.354525,-165
14:36:37.354525,24831
14:36:37.354525,-1
14:36:37.354525,-155
14:36:37.354525,26111
14:36:37.354525,-1
14:36:37.354525,-153
14:36:37.354525,26111
14:36:37.354525,-1
14:36:37.354525,-158
14:36:37.354525,27903
14:36:37.354525,-1
14:36:37.354525,-143
14:36:37.354525,26623
14:36:37.354525,-1
14:36:37.354525,-150
14:36:37.354525,30207
14:36:37.354525,-1
14:36:37.354525,-143
14:36:37.354525,27903
14:36:37.354525,-1
14:36:37.354525,-141
14:36:37.354525,32255
14:36:37.354525,-1
14:36:37.354525,-124
14:36:37.354525,-30209
14:36:37.354525,-1
14:36:37.354525,-112
14:36:37.354525,-26625
14:36:37.354525,-1
14:36:37.354525,-95
14:36:37.354525,-21761
14:36:37.354525,-1
14:36:37.354525,-81
14:36:37.354525,-20481
14:36:37.354525,-1
14:36:37.354525,-81
14:36:37.354525,-19201
14:36:37.354525,-1
14:36:37.354525,-69
14:36:37.354525,-15617
14:36:37.354525,-1
14:36:37.354525,-62
14:36:37.354525,-14849
14:36:37.354525,-1
14:36:37.354525,-52
14:36:37.354525,-13057
14:36:37.354525,-1
14:36:37.354525,-55
14:36:37.354525,-11777
14:36:37.354525,-1
14:36:37.354525,-40
14:36:37.354525,-10753
14:36:37.354525,-1
14:36:37.354525,-45
14:36:37.354525,-9985
14:36:37.354525,-1
14:36:37.354525,-38
14:36:37.354525,-9473
14:36:37.354525,-1
14:36:37.354525,-38
14:36:37.354525,-8705
14:36:37.354525,-1
14:36:37.354525,-28
14:36:37.354525,-6401
14:36:37.354525,-1
14:36:37.354525,-28
14:36:37.894519,-28
14:36:37.894519,-5633
14:36:37.894519,-1
14:36:37.894519,-19
14:36:37.894519,-5121
14:36:37.894519,-1
14:36:37.894519,-26
14:36:37.894519,-6401
14:36:37.894519,-1
14:36:37.894519,-19
14:36:37.894519,-1537
14:36:37.894519,-1
14:36:37.894519,-7
14:36:37.894519,-2049
14:36:37.894519,-1
14:36:37.894519,4
14:36:37.894519,4096
14:36:37.894519,0
14:36:37.894519,16
14:36:37.894519,3584
14:36:37.894519,0
14:36:37.894519,4
14:36:37.894519,0
14:36:37.894519,0
14:36:37.894519,0
14:36:37.894519,-512
14:36:37.894519,-1
14:36:37.894519,-9
14:36:37.894519,-2561
14:36:37.894519,-1
14:36:37.894519,-16
14:36:37.894519,-11777
14:36:37.894519,-1
14:36:37.894519,-115
14:36:37.894519,-32257
14:36:37.894519,-1
14:36:37.894519,150
14:36:37.894519,-9728
14:36:37.894519,2
14:36:37.894519,1061
14:36:37.894519,9984
14:36:37.894519,3
14:36:37.894519,395
14:36:37.894519,-29952
14:36:37.894519,0
14:36:37.894519,-35
14:36:37.894519,32767
14:36:37.894519,-1
14:36:37.894519,-146
14:36:37.894519,25343
14:36:37.894519,-1
14:36:37.894519,-165
14:36:37.894519,24319
14:36:37.894519,-1
14:36:37.894519,-160
14:36:37.894519,26111
14:36:37.894519,-1
14:36:37.894519,-148
14:36:37.894519,26623
14:36:37.894519,-1
14:36:37.894519,-153
14:36:37.894519,27903
14:36:37.894519,-1
14:36:37.894519,-148
14:36:37.894519,27391
14:36:37.894519,-1
14:36:37.894519,-148
14:36:37.894519,27903
14:36:37.894519,-1
14:36:37.894519,-148
14:36:37.894519,27903
14:36:37.894519,-1
14:36:37.894519,-148
14:36:37.894519,28415
