timestamp,ecg,reconstructed_time
2025-11-07 22:49:49.987867,-9,2025-11-07 22:49:49.987867000
2025-11-07 22:49:49.987867,3583,2025-11-07 22:49:49.995559308
2025-11-07 22:49:49.987867,-3,2025-11-07 22:49:50.003251615
2025-11-07 22:49:49.987867,-1261,2025-11-07 22:49:50.010943923
2025-11-07 22:49:49.987867,-25601,2025-11-07 22:49:50.018636231
2025-11-07 22:49:49.987867,-4,2025-11-07 22:49:50.026328538
2025-11-07 22:49:49.987867,-251,2025-11-07 22:49:50.034020846
2025-11-07 22:49:49.987867,-4609,2025-11-07 22:49:50.041713154
2025-11-07 22:49:49.987867,-1,2025-11-07 22:49:50.049405462
2025-11-07 22:49:49.987867,102,2025-11-07 22:49:50.057097769
2025-11-07 22:49:49.987867,-11520,2025-11-07 22:49:50.064790077
2025-11-07 22:49:49.987867,0,2025-11-07 22:49:50.072482385
2025-11-07 22:49:49.987867,213,2025-11-07 22:49:50.080174692
2025-11-07 22:49:49.987867,-15872,2025-11-07 22:49:50.087867000
2025-11-07 22:49:49.987867,0,2025-11-07 22:49:50.095559308
2025-11-07 22:49:49.987867,206,2025-11-07 22:49:50.103251615
2025-11-07 22:49:49.987867,-14592,2025-11-07 22:49:50.110943923
2025-11-07 22:49:49.987867,0,2025-11-07 22:49:50.118636231
2025-11-07 22:49:49.987867,178,2025-11-07 22:49:50.126328538
2025-11-07 22:49:49.987867,-23040,2025-11-07 22:49:50.134020846
2025-11-07 22:49:49.987867,0,2025-11-07 22:49:50.141713154
2025-11-07 22:49:49.987867,163,2025-11-07 22:49:50.149405462
2025-11-07 22:49:49.987867,-24832,2025-11-07 22:49:50.157097769
2025-11-07 22:49:49.987867,0,2025-11-07 22:49:50.164790077
2025-11-07 22:49:49.987867,154,2025-11-07 22:49:50.172482385
2025-11-07 22:49:49.987867,-27392,2025-11-07 22:49:50.180174692
2025-11-07 22:49:49.987867,0,2025-11-07 22:49:50.187867000
2025-11-07 22:49:49.987867,140,2025-11-07 22:49:50.195559308
2025-11-07 22:49:49.987867,-32256,2025-11-07 22:49:50.203251615
2025-11-07 22:49:49.987867,0,2025-11-07 22:49:50.210943923
2025-11-07 22:49:49.987867,118,2025-11-07 22:49:50.218636231
2025-11-07 22:49:49.987867,26624,2025-11-07 22:49:50.226328538
2025-11-07 22:49:49.987867,0,2025-11-07 22:49:50.234020846
2025-11-07 22:49:49.987867,85,2025-11-07 22:49:50.241713154
2025-11-07 22:49:49.987867,15104,2025-11-07 22:49:50.249405462
2025-11-07 22:49:49.987867,0,2025-11-07 22:49:50.257097769
2025-11-07 22:49:49.987867,35,2025-11-07 22:49:50.264790077
2025-11-07 22:49:49.987867,4864,2025-11-07 22:49:50.272482385
2025-11-07 22:49:49.987867,0,2025-11-07 22:49:50.280174692
2025-11-07 22:49:49.987867,9,2025-11-07 22:49:50.287867000
2025-11-07 22:49:49.987867,2816,2025-11-07 22:49:50.295559308
2025-11-07 22:49:49.987867,0,2025-11-07 22:49:50.303251615
2025-11-07 22:49:49.987867,21,2025-11-07 22:49:50.310943923
2025-11-07 22:49:49.987867,9728,2025-11-07 22:49:50.318636231
2025-11-07 22:49:49.987867,0,2025-11-07 22:49:50.326328538
2025-11-07 22:49:49.987867,59,2025-11-07 22:49:50.334020846
2025-11-07 22:49:49.987867,21248,2025-11-07 22:49:50.341713154
2025-11-07 22:49:49.987867,0,2025-11-07 22:49:50.349405462
2025-11-07 22:49:49.987867,109,2025-11-07 22:49:50.357097769
2025-11-07 22:49:49.987867,32000,2025-11-07 22:49:50.364790077
2025-11-07 22:49:49.987867,0,2025-11-07 22:49:50.372482385
2025-11-07 22:49:49.987867,137,2025-11-07 22:49:50.380174692
2025-11-07 22:49:49.987867,-29184,2025-11-07 22:49:50.387867000
2025-11-07 22:49:49.987867,0,2025-11-07 22:49:50.395559308
2025-11-07 22:49:49.987867,142,2025-11-07 22:49:50.403251615
2025-11-07 22:49:49.987867,-30976,2025-11-07 22:49:50.410943923
2025-11-07 22:49:49.987867,0,2025-11-07 22:49:50.418636231
2025-11-07 22:49:49.987867,128,2025-11-07 22:49:50.426328538
2025-11-07 22:49:49.987867,-32256,2025-11-07 22:49:50.434020846
2025-11-07 22:49:49.987867,0,2025-11-07 22:49:50.441713154
2025-11-07 22:49:49.987867,133,2025-11-07 22:49:50.449405462
2025-11-07 22:49:49.987867,32000,2025-11-07 22:49:50.457097769
2025-11-07 22:49:49.987867,0,2025-11-07 22:49:50.464790077
2025-11-07 22:49:49.987867,118,2025-11-07 22:49:50.472482385
2025-11-07 22:49:49.987867,29184,2025-11-07 22:49:50.480174692
2025-11-07 22:49:49.987867,0,2025-11-07 22:49:50.487867000
2025-11-07 22:49:49.987867,104,2025-11-07 22:49:50.495559308
2025-11-07 22:49:49.987867,25344,2025-11-07 22:49:50.503251615
2025-11-07 22:49:49.987867,0,2025-11-07 22:49:50.510943923
2025-11-07 22:49:49.987867,102,2025-11-07 22:49:50.518636230
2025-11-07 22:49:49.987867,24832,2025-11-07 22:49:50.526328538
2025-11-07 22:49:49.987867,0,2025-11-07 22:49:50.534020846
2025-11-07 22:49:49.987867,85,2025-11-07 22:49:50.541713154
2025-11-07 22:49:49.987867,22272,2025-11-07 22:49:50.549405462
2025-11-07 22:49:49.987867,0,2025-11-07 22:49:50.557097769
2025-11-07 22:49:49.987867,95,2025-11-07 22:49:50.564790077
2025-11-07 22:49:49.987867,26112,2025-11-07 22:49:50.572482385
2025-11-07 22:49:49.987867,0,2025-11-07 22:49:50.580174692
2025-11-07 22:49:49.987867,116,2025-11-07 22:49:50.587867000
2025-11-07 22:49:49.987867,-32256,2025-11-07 22:49:50.595559308
2025-11-07 22:49:49.987867,0,2025-11-07 22:49:50.603251615
2025-11-07 22:49:49.987867,128,2025-11-07 22:49:50.610943923
2025-11-07 22:49:49.987867,28416,2025-11-07 22:49:50.618636231
2025-11-07 22:49:49.987867,0,2025-11-07 22:49:50.626328538
2025-11-07 22:49:49.987867,87,2025-11-07 22:49:50.634020846
2025-11-07 22:49:49.987867,17408,2025-11-07 22:49:50.641713154
2025-11-07 22:49:49.987867,0,2025-11-07 22:49:50.649405462
2025-11-07 22:49:49.987867,54,2025-11-07 22:49:50.657097769
2025-11-07 22:49:49.987867,10240,2025-11-07 22:49:50.664790077
2025-11-07 22:49:49.987867,0,2025-11-07 22:49:50.672482385
2025-11-07 22:49:49.987867,40,2025-11-07 22:49:50.680174692
2025-11-07 22:49:49.987867,15616,2025-11-07 22:49:50.687867000
2025-11-07 22:49:49.987867,0,2025-11-07 22:49:50.695559308
2025-11-07 22:49:49.987867,64,2025-11-07 22:49:50.703251615
2025-11-07 22:49:49.987867,12544,2025-11-07 22:49:50.710943923
2025-11-07 22:49:49.987867,0,2025-11-07 22:49:50.718636231
2025-11-07 22:49:49.987867,49,2025-11-07 22:49:50.726328538
2025-11-07 22:49:49.987867,12544,2025-11-07 22:49:50.734020846
2025-11-07 22:49:49.987867,0,2025-11-07 22:49:50.741713154
2025-11-07 22:49:49.987867,45,2025-11-07 22:49:50.749405462
2025-11-07 22:49:49.987867,13312,2025-11-07 22:49:50.757097769
2025-11-07 22:49:49.987867,0,2025-11-07 22:49:50.764790077
2025-11-07 22:49:49.987867,64,2025-11-07 22:49:50.772482385
2025-11-07 22:49:49.987867,27136,2025-11-07 22:49:50.780174692
2025-11-07 22:49:49.987867,0,2025-11-07 22:49:50.787867000
2025-11-07 22:49:49.987867,216,2025-11-07 22:49:50.795559308
2025-11-07 22:49:49.987867,11520,2025-11-07 22:49:50.803251615
2025-11-07 22:49:49.987867,1,2025-11-07 22:49:50.810943923
2025-11-07 22:49:49.987867,152,2025-11-07 22:49:50.818636231
2025-11-07 22:49:50.591293,-458,2025-11-07 22:49:50.826328538
2025-11-07 22:49:50.591293,-28161,2025-11-07 22:49:50.834020846
2025-11-07 22:49:50.591293,-5,2025-11-07 22:49:50.841713154
2025-11-07 22:49:50.591293,-1036,2025-11-07 22:49:50.849405462
2025-11-07 22:49:50.591293,23295,2025-11-07 22:49:50.857097769
2025-11-07 22:49:50.591293,-2,2025-11-07 22:49:50.864790077
2025-11-07 22:49:50.591293,-90,2025-11-07 22:49:50.872482385
2025-11-07 22:49:50.591293,10495,2025-11-07 22:49:50.880174692
2025-11-07 22:49:50.591293,0,2025-11-07 22:49:50.887867000
2025-11-07 22:49:50.591293,166,2025-11-07 22:49:50.895559308
2025-11-07 22:49:50.591293,-15872,2025-11-07 22:49:50.903251615
2025-11-07 22:49:50.591293,0,2025-11-07 22:49:50.910943923
2025-11-07 22:49:50.591293,175,2025-11-07 22:49:50.918636231
2025-11-07 22:49:50.591293,-17664,2025-11-07 22:49:50.926328538
2025-11-07 22:49:50.591293,0,2025-11-07 22:49:50.934020846
2025-11-07 22:49:50.591293,190,2025-11-07 22:49:50.941713154
2025-11-07 22:49:50.591293,-22528,2025-11-07 22:49:50.949405462
2025-11-07 22:49:50.591293,0,2025-11-07 22:49:50.957097769
2025-11-07 22:49:50.591293,163,2025-11-07 22:49:50.964790077
2025-11-07 22:49:50.591293,-24320,2025-11-07 22:49:50.972482385
2025-11-07 22:49:50.591293,0,2025-11-07 22:49:50.980174692
2025-11-07 22:49:50.591293,159,2025-11-07 22:49:50.987867000
2025-11-07 22:49:50.591293,-24832,2025-11-07 22:49:50.995559308
2025-11-07 22:49:50.591293,0,2025-11-07 22:49:51.003251615
2025-11-07 22:49:50.591293,154,2025-11-07 22:49:51.010943923
2025-11-07 22:49:50.591293,-28672,2025-11-07 22:49:51.018636231
2025-11-07 22:49:50.591293,0,2025-11-07 22:49:51.026328538
2025-11-07 22:49:50.591293,135,2025-11-07 22:49:51.034020846
2025-11-07 22:49:50.591293,32000,2025-11-07 22:49:51.041713154
2025-11-07 22:49:50.591293,0,2025-11-07 22:49:51.049405462
2025-11-07 22:49:50.591293,118,2025-11-07 22:49:51.057097769
2025-11-07 22:49:50.591293,29184,2025-11-07 22:49:51.064790077
2025-11-07 22:49:50.591293,0,2025-11-07 22:49:51.072482385
2025-11-07 22:49:50.591293,92,2025-11-07 22:49:51.080174692
2025-11-07 22:49:50.591293,14592,2025-11-07 22:49:51.087867000
2025-11-07 22:49:50.591293,0,2025-11-07 22:49:51.095559308
2025-11-07 22:49:50.591293,35,2025-11-07 22:49:51.103251615
2025-11-07 22:49:50.591293,8448,2025-11-07 22:49:51.110943923
2025-11-07 22:49:50.591293,0,2025-11-07 22:49:51.118636231
2025-11-07 22:49:50.591293,30,2025-11-07 22:49:51.126328538
2025-11-07 22:49:50.591293,7680,2025-11-07 22:49:51.134020846
2025-11-07 22:49:50.591293,0,2025-11-07 22:49:51.141713154
2025-11-07 22:49:50.591293,42,2025-11-07 22:49:51.149405462
2025-11-07 22:49:50.591293,16384,2025-11-07 22:49:51.157097769
2025-11-07 22:49:50.591293,0,2025-11-07 22:49:51.164790077
2025-11-07 22:49:50.591293,90,2025-11-07 22:49:51.172482385
2025-11-07 22:49:50.591293,29184,2025-11-07 22:49:51.180174692
2025-11-07 22:49:50.591293,0,2025-11-07 22:49:51.187867000
2025-11-07 22:49:50.591293,130,2025-11-07 22:49:51.195559308
2025-11-07 22:49:50.591293,-29184,2025-11-07 22:49:51.203251615
2025-11-07 22:49:50.591293,0,2025-11-07 22:49:51.210943923
2025-11-07 22:49:50.591293,147,2025-11-07 22:49:51.218636231
2025-11-07 22:49:50.591293,-27392,2025-11-07 22:49:51.226328538
2025-11-07 22:49:50.591293,0,2025-11-07 22:49:51.234020846
2025-11-07 22:49:50.591293,149,2025-11-07 22:49:51.241713154
2025-11-07 22:49:50.591293,-28672,2025-11-07 22:49:51.249405462
2025-11-07 22:49:50.591293,0,2025-11-07 22:49:51.257097769
2025-11-07 22:49:50.591293,137,2025-11-07 22:49:51.264790077
2025-11-07 22:49:50.591293,-32256,2025-11-07 22:49:51.272482385
2025-11-07 22:49:50.591293,0,2025-11-07 22:49:51.280174692
2025-11-07 22:49:50.591293,123,2025-11-07 22:49:51.287867000
2025-11-07 22:49:50.591293,30976,2025-11-07 22:49:51.295559308
2025-11-07 22:49:50.591293,0,2025-11-07 22:49:51.303251615
2025-11-07 22:49:50.591293,118,2025-11-07 22:49:51.310943923
2025-11-07 22:49:50.591293,28416,2025-11-07 22:49:51.318636231
2025-11-07 22:49:50.591293,0,2025-11-07 22:49:51.326328538
2025-11-07 22:49:50.591293,104,2025-11-07 22:49:51.334020846
2025-11-07 22:49:50.591293,27136,2025-11-07 22:49:51.341713154
2025-11-07 22:49:50.591293,0,2025-11-07 22:49:51.349405462
2025-11-07 22:49:50.591293,106,2025-11-07 22:49:51.357097769
2025-11-07 22:49:50.591293,27136,2025-11-07 22:49:51.364790077
2025-11-07 22:49:50.591293,0,2025-11-07 22:49:51.372482385
2025-11-07 22:49:50.591293,118,2025-11-07 22:49:51.380174692
2025-11-07 22:49:50.591293,-30976,2025-11-07 22:49:51.387867000
2025-11-07 22:49:50.591293,0,2025-11-07 22:49:51.395559308
2025-11-07 22:49:50.591293,140,2025-11-07 22:49:51.403251615
2025-11-07 22:49:50.591293,-32256,2025-11-07 22:49:51.410943923
2025-11-07 22:49:50.591293,0,2025-11-07 22:49:51.418636231
2025-11-07 22:49:50.591293,106,2025-11-07 22:49:51.426328538
2025-11-07 22:49:50.591293,20480,2025-11-07 22:49:51.434020846
2025-11-07 22:49:50.591293,0,2025-11-07 22:49:51.441713154
2025-11-07 22:49:50.591293,66,2025-11-07 22:49:51.449405462
2025-11-07 22:49:50.591293,14592,2025-11-07 22:49:51.457097769
2025-11-07 22:49:50.591293,0,2025-11-07 22:49:51.464790077
2025-11-07 22:49:50.591293,49,2025-11-07 22:49:51.472482385
2025-11-07 22:49:50.591293,15616,2025-11-07 22:49:51.480174692
2025-11-07 22:49:50.591293,0,2025-11-07 22:49:51.487867000
2025-11-07 22:49:50.591293,76,2025-11-07 22:49:51.495559308
2025-11-07 22:49:50.591293,15616,2025-11-07 22:49:51.503251615
2025-11-07 22:49:50.591293,0,2025-11-07 22:49:51.510943923
2025-11-07 22:49:50.591293,47,2025-11-07 22:49:51.518636230
2025-11-07 22:49:50.591293,13312,2025-11-07 22:49:51.526328538
2025-11-07 22:49:50.591293,0,2025-11-07 22:49:51.534020846
2025-11-07 22:49:50.591293,54,2025-11-07 22:49:51.541713154
2025-11-07 22:49:50.591293,14592,2025-11-07 22:49:51.549405462
2025-11-07 22:49:50.591293,0,2025-11-07 22:49:51.557097769
2025-11-07 22:49:50.591293,59,2025-11-07 22:49:51.564790077
2025-11-07 22:49:50.591293,20480,2025-11-07 22:49:51.572482385
2025-11-07 22:49:50.591293,0,2025-11-07 22:49:51.580174692
2025-11-07 22:49:50.591293,166,2025-11-07 22:49:51.587867000
2025-11-07 22:49:50.591293,5632,2025-11-07 22:49:51.595559308
2025-11-07 22:49:50.591293,1,2025-11-07 22:49:51.603251615
2025-11-07 22:49:50.591293,266,2025-11-07 22:49:51.610943923
2025-11-07 22:49:50.591293,-32000,2025-11-07 22:49:51.618636231
2025-11-07 22:49:50.591293,-1,2025-11-07 22:49:51.626328538
2025-11-07 22:49:50.591293,-857,2025-11-07 22:49:51.634020846
2025-11-07 22:49:50.591293,-25857,2025-11-07 22:49:51.641713154
2025-11-07 22:49:50.591293,-5,2025-11-07 22:49:51.649405462
2025-11-07 22:49:50.591293,-632,2025-11-07 22:49:51.657097769
2025-11-07 22:49:51.040690,-163,2025-11-07 22:49:51.664790077
2025-11-07 22:49:51.040690,-769,2025-11-07 22:49:51.672482385
2025-11-07 22:49:51.040690,-1,2025-11-07 22:49:51.680174692
2025-11-07 22:49:51.040690,125,2025-11-07 22:49:51.687867000
2025-11-07 22:49:51.040690,-15104,2025-11-07 22:49:51.695559308
2025-11-07 22:49:51.040690,0,2025-11-07 22:49:51.703251615
2025-11-07 22:49:51.040690,180,2025-11-07 22:49:51.710943923
2025-11-07 22:49:51.040690,-21760,2025-11-07 22:49:51.718636231
2025-11-07 22:49:51.040690,0,2025-11-07 22:49:51.726328538
2025-11-07 22:49:51.040690,180,2025-11-07 22:49:51.734020846
2025-11-07 22:49:51.040690,-21248,2025-11-07 22:49:51.741713154
2025-11-07 22:49:51.040690,0,2025-11-07 22:49:51.749405462
2025-11-07 22:49:51.040690,161,2025-11-07 22:49:51.757097769
2025-11-07 22:49:51.040690,-26112,2025-11-07 22:49:51.764790077
2025-11-07 22:49:51.040690,0,2025-11-07 22:49:51.772482385
2025-11-07 22:49:51.040690,147,2025-11-07 22:49:51.780174692
2025-11-07 22:49:51.040690,-29696,2025-11-07 22:49:51.787867000
2025-11-07 22:49:51.040690,0,2025-11-07 22:49:51.795559308
2025-11-07 22:49:51.040690,135,2025-11-07 22:49:51.803251615
2025-11-07 22:49:51.040690,-32256,2025-11-07 22:49:51.810943923
2025-11-07 22:49:51.040690,0,2025-11-07 22:49:51.818636231
2025-11-07 22:49:51.040690,128,2025-11-07 22:49:51.826328538
2025-11-07 22:49:51.040690,30208,2025-11-07 22:49:51.834020846
2025-11-07 22:49:51.040690,0,2025-11-07 22:49:51.841713154
2025-11-07 22:49:51.040690,99,2025-11-07 22:49:51.849405462
2025-11-07 22:49:51.040690,20480,2025-11-07 22:49:51.857097769
2025-11-07 22:49:51.040690,0,2025-11-07 22:49:51.864790077
2025-11-07 22:49:51.040690,61,2025-11-07 22:49:51.872482385
2025-11-07 22:49:51.040690,9728,2025-11-07 22:49:51.880174692
2025-11-07 22:49:51.040690,0,2025-11-07 22:49:51.887867000
2025-11-07 22:49:51.040690,16,2025-11-07 22:49:51.895559308
2025-11-07 22:49:51.040690,0,2025-11-07 22:49:51.903251615
2025-11-07 22:49:51.040690,0,2025-11-07 22:49:51.910943923
2025-11-07 22:49:51.040690,-7,2025-11-07 22:49:51.918636231
2025-11-07 22:49:51.040690,-769,2025-11-07 22:49:51.926328538
2025-11-07 22:49:51.040690,-1,2025-11-07 22:49:51.934020846
2025-11-07 22:49:51.040690,4,2025-11-07 22:49:51.941713154
2025-11-07 22:49:51.040690,6656,2025-11-07 22:49:51.949405462
2025-11-07 22:49:51.040690,0,2025-11-07 22:49:51.957097769
2025-11-07 22:49:51.040690,66,2025-11-07 22:49:51.964790077
2025-11-07 22:49:51.040690,27904,2025-11-07 22:49:51.972482385
2025-11-07 22:49:51.040690,0,2025-11-07 22:49:51.980174692
2025-11-07 22:49:51.040690,128,2025-11-07 22:49:51.987867000
2025-11-07 22:49:51.040690,-30464,2025-11-07 22:49:51.995559308
2025-11-07 22:49:51.040690,0,2025-11-07 22:49:52.003251615
2025-11-07 22:49:51.040690,152,2025-11-07 22:49:52.010943923
2025-11-07 22:49:51.040690,-26112,2025-11-07 22:49:52.018636231
2025-11-07 22:49:51.040690,0,2025-11-07 22:49:52.026328538
2025-11-07 22:49:51.040690,152,2025-11-07 22:49:52.034020846
2025-11-07 22:49:51.040690,-26624,2025-11-07 22:49:52.041713154
2025-11-07 22:49:51.040690,0,2025-11-07 22:49:52.049405462
2025-11-07 22:49:51.040690,147,2025-11-07 22:49:52.057097769
2025-11-07 22:49:51.040690,-30976,2025-11-07 22:49:52.064790077
2025-11-07 22:49:51.040690,0,2025-11-07 22:49:52.072482385
2025-11-07 22:49:51.040690,125,2025-11-07 22:49:52.080174692
2025-11-07 22:49:51.040690,30976,2025-11-07 22:49:52.087867000
2025-11-07 22:49:51.040690,0,2025-11-07 22:49:52.095559308
2025-11-07 22:49:51.040690,118,2025-11-07 22:49:52.103251615
2025-11-07 22:49:51.040690,28416,2025-11-07 22:49:52.110943923
2025-11-07 22:49:51.040690,0,2025-11-07 22:49:52.118636231
2025-11-07 22:49:51.040690,109,2025-11-07 22:49:52.126328538
2025-11-07 22:49:51.040690,28416,2025-11-07 22:49:52.134020846
2025-11-07 22:49:51.040690,0,2025-11-07 22:49:52.141713154
2025-11-07 22:49:51.040690,123,2025-11-07 22:49:52.149405462
2025-11-07 22:49:51.040690,-30464,2025-11-07 22:49:52.157097769
2025-11-07 22:49:51.040690,0,2025-11-07 22:49:52.164790077
2025-11-07 22:49:51.040690,137,2025-11-07 22:49:52.172482385
2025-11-07 22:49:51.040690,31488,2025-11-07 22:49:52.180174692
2025-11-07 22:49:51.040690,0,2025-11-07 22:49:52.187867000
2025-11-07 22:49:51.040690,104,2025-11-07 22:49:52.195559308
2025-11-07 22:49:51.040690,21248,2025-11-07 22:49:52.203251615
2025-11-07 22:49:51.040690,0,2025-11-07 22:49:52.210943923
2025-11-07 22:49:51.040690,64,2025-11-07 22:49:52.218636231
2025-11-07 22:49:51.040690,13824,2025-11-07 22:49:52.226328538
2025-11-07 22:49:51.040690,0,2025-11-07 22:49:52.234020846
2025-11-07 22:49:51.040690,45,2025-11-07 22:49:52.241713154
2025-11-07 22:49:51.040690,14592,2025-11-07 22:49:52.249405462
2025-11-07 22:49:51.040690,0,2025-11-07 22:49:52.257097769
2025-11-07 22:49:51.040690,71,2025-11-07 22:49:52.264790077
2025-11-07 22:49:51.040690,13824,2025-11-07 22:49:52.272482385
2025-11-07 22:49:51.040690,0,2025-11-07 22:49:52.280174692
2025-11-07 22:49:51.040690,47,2025-11-07 22:49:52.287867000
2025-11-07 22:49:51.040690,14592,2025-11-07 22:49:52.295559308
2025-11-07 22:49:51.040690,0,2025-11-07 22:49:52.303251615
2025-11-07 22:49:51.040690,57,2025-11-07 22:49:52.310943923
2025-11-07 22:49:51.040690,13824,2025-11-07 22:49:52.318636231
2025-11-07 22:49:51.040690,0,2025-11-07 22:49:52.326328538
2025-11-07 22:49:51.040690,64,2025-11-07 22:49:52.334020846
2025-11-07 22:49:51.040690,24320,2025-11-07 22:49:52.341713154
2025-11-07 22:49:51.040690,0,2025-11-07 22:49:52.349405462
2025-11-07 22:49:51.040690,180,2025-11-07 22:49:52.357097769
2025-11-07 22:49:51.040690,7936,2025-11-07 22:49:52.364790077
2025-11-07 22:49:51.040690,1,2025-11-07 22:49:52.372482385
2025-11-07 22:49:51.040690,261,2025-11-07 22:49:52.380174692
2025-11-07 22:49:51.040690,27392,2025-11-07 22:49:52.387867000
2025-11-07 22:49:51.040690,-1,2025-11-07 22:49:52.395559308
2025-11-07 22:49:51.040690,-848,2025-11-07 22:49:52.403251615
2025-11-07 22:49:51.040690,-3841,2025-11-07 22:49:52.410943923
2025-11-07 22:49:51.040690,-5,2025-11-07 22:49:52.418636231
2025-11-07 22:49:51.040690,-539,2025-11-07 22:49:52.426328538
2025-11-07 22:49:51.040690,-32513,2025-11-07 22:49:52.434020846
2025-11-07 22:49:51.040690,-1,2025-11-07 22:49:52.441713154
2025-11-07 22:49:51.040690,4,2025-11-07 22:49:52.449405462
2025-11-07 22:49:51.040690,-31488,2025-11-07 22:49:52.457097769
2025-11-07 22:49:51.040690,0,2025-11-07 22:49:52.464790077
2025-11-07 22:49:51.040690,199,2025-11-07 22:49:52.472482385
2025-11-07 22:49:51.040690,-19456,2025-11-07 22:49:52.480174692
2025-11-07 22:49:51.040690,0,2025-11-07 22:49:52.487867000
2025-11-07 22:49:51.040690,175,2025-11-07 22:49:52.495559308
2025-11-07 22:49:51.591579,187,2025-11-07 22:49:52.503251615
2025-11-07 22:49:51.591579,-21248,2025-11-07 22:49:52.510943923
2025-11-07 22:49:51.591579,0,2025-11-07 22:49:52.518636230
2025-11-07 22:49:51.591579,159,2025-11-07 22:49:52.526328538
2025-11-07 22:49:51.591579,-26112,2025-11-07 22:49:52.534020846
2025-11-07 22:49:51.591579,0,2025-11-07 22:49:52.541713154
2025-11-07 22:49:51.591579,142,2025-11-07 22:49:52.549405462
2025-11-07 22:49:51.591579,-30976,2025-11-07 22:49:52.557097769
2025-11-07 22:49:51.591579,0,2025-11-07 22:49:52.564790077
2025-11-07 22:49:51.591579,137,2025-11-07 22:49:52.572482385
2025-11-07 22:49:51.591579,-30976,2025-11-07 22:49:52.580174692
2025-11-07 22:49:51.591579,0,2025-11-07 22:49:52.587867000
2025-11-07 22:49:51.591579,125,2025-11-07 22:49:52.595559308
2025-11-07 22:49:51.591579,27904,2025-11-07 22:49:52.603251615
2025-11-07 22:49:51.591579,0,2025-11-07 22:49:52.610943923
2025-11-07 22:49:51.591579,90,2025-11-07 22:49:52.618636231
2025-11-07 22:49:51.591579,20480,2025-11-07 22:49:52.626328538
2025-11-07 22:49:51.591579,0,2025-11-07 22:49:52.634020846
2025-11-07 22:49:51.591579,78,2025-11-07 22:49:52.641713154
2025-11-07 22:49:51.591579,15104,2025-11-07 22:49:52.649405462
2025-11-07 22:49:51.591579,0,2025-11-07 22:49:52.657097769
2025-11-07 22:49:51.591579,30,2025-11-07 22:49:52.664790077
2025-11-07 22:49:51.591579,4096,2025-11-07 22:49:52.672482385
2025-11-07 22:49:51.591579,0,2025-11-07 22:49:52.680174692
2025-11-07 22:49:51.591579,9,2025-11-07 22:49:52.687867000
2025-11-07 22:49:51.591579,2304,2025-11-07 22:49:52.695559308
2025-11-07 22:49:51.591579,0,2025-11-07 22:49:52.703251615
2025-11-07 22:49:51.591579,23,2025-11-07 22:49:52.710943923
2025-11-07 22:49:51.591579,11520,2025-11-07 22:49:52.718636231
2025-11-07 22:49:51.591579,0,2025-11-07 22:49:52.726328538
2025-11-07 22:49:51.591579,73,2025-11-07 22:49:52.734020846
2025-11-07 22:49:51.591579,27136,2025-11-07 22:49:52.741713154
2025-11-07 22:49:51.591579,0,2025-11-07 22:49:52.749405462
2025-11-07 22:49:51.591579,128,2025-11-07 22:49:52.757097769
2025-11-07 22:49:51.591579,-29184,2025-11-07 22:49:52.764790077
2025-11-07 22:49:51.591579,0,2025-11-07 22:49:52.772482385
2025-11-07 22:49:51.591579,156,2025-11-07 22:49:52.780174692
2025-11-07 22:49:51.591579,-24832,2025-11-07 22:49:52.787867000
2025-11-07 22:49:51.591579,0,2025-11-07 22:49:52.795559308
2025-11-07 22:49:51.591579,154,2025-11-07 22:49:52.803251615
2025-11-07 22:49:51.591579,-27392,2025-11-07 22:49:52.810943923
2025-11-07 22:49:51.591579,0,2025-11-07 22:49:52.818636231
2025-11-07 22:49:51.591579,142,2025-11-07 22:49:52.826328538
2025-11-07 22:49:51.591579,-30976,2025-11-07 22:49:52.834020846
2025-11-07 22:49:51.591579,0,2025-11-07 22:49:52.841713154
2025-11-07 22:49:51.591579,135,2025-11-07 22:49:52.849405462
2025-11-07 22:49:51.591579,-32768,2025-11-07 22:49:52.857097769
2025-11-07 22:49:51.591579,0,2025-11-07 22:49:52.864790077
2025-11-07 22:49:51.591579,118,2025-11-07 22:49:52.872482385
2025-11-07 22:49:51.591579,29696,2025-11-07 22:49:52.880174692
2025-11-07 22:49:51.591579,0,2025-11-07 22:49:52.887867000
2025-11-07 22:49:51.591579,128,2025-11-07 22:49:52.895559308
2025-11-07 22:49:51.591579,-30464,2025-11-07 22:49:52.903251615
2025-11-07 22:49:51.591579,0,2025-11-07 22:49:52.910943923
2025-11-07 22:49:51.591579,137,2025-11-07 22:49:52.918636231
2025-11-07 22:49:51.591579,32000,2025-11-07 22:49:52.926328538
2025-11-07 22:49:51.591579,0,2025-11-07 22:49:52.934020846
2025-11-07 22:49:51.591579,109,2025-11-07 22:49:52.941713154
2025-11-07 22:49:51.591579,21760,2025-11-07 22:49:52.949405462
2025-11-07 22:49:51.591579,0,2025-11-07 22:49:52.957097769
2025-11-07 22:49:51.591579,64,2025-11-07 22:49:52.964790077
2025-11-07 22:49:51.591579,13312,2025-11-07 22:49:52.972482385
2025-11-07 22:49:51.591579,0,2025-11-07 22:49:52.980174692
2025-11-07 22:49:51.591579,42,2025-11-07 22:49:52.987867000
2025-11-07 22:49:51.591579,13312,2025-11-07 22:49:52.995559308
2025-11-07 22:49:51.591579,0,2025-11-07 22:49:53.003251615
2025-11-07 22:49:51.591579,68,2025-11-07 22:49:53.010943923
2025-11-07 22:49:51.591579,15616,2025-11-07 22:49:53.018636231
2025-11-07 22:49:51.591579,0,2025-11-07 22:49:53.026328538
2025-11-07 22:49:51.591579,45,2025-11-07 22:49:53.034020846
2025-11-07 22:49:51.591579,12032,2025-11-07 22:49:53.041713154
2025-11-07 22:49:51.591579,0,2025-11-07 22:49:53.049405462
2025-11-07 22:49:51.591579,47,2025-11-07 22:49:53.057097769
2025-11-07 22:49:51.591579,12032,2025-11-07 22:49:53.064790077
2025-11-07 22:49:51.591579,0,2025-11-07 22:49:53.072482385
2025-11-07 22:49:51.591579,52,2025-11-07 22:49:53.080174692
2025-11-07 22:49:51.591579,18176,2025-11-07 22:49:53.087867000
2025-11-07 22:49:51.591579,0,2025-11-07 22:49:53.095559308
2025-11-07 22:49:51.591579,144,2025-11-07 22:49:53.103251615
2025-11-07 22:49:51.591579,768,2025-11-07 22:49:53.110943923
2025-11-07 22:49:51.591579,1,2025-11-07 22:49:53.118636231
2025-11-07 22:49:51.591579,278,2025-11-07 22:49:53.126328538
2025-11-07 22:49:51.591579,-10240,2025-11-07 22:49:53.134020846
2025-11-07 22:49:51.591579,-1,2025-11-07 22:49:53.141713154
2025-11-07 22:49:51.591579,-729,2025-11-07 22:49:53.149405462
2025-11-07 22:49:51.591579,-16129,2025-11-07 22:49:53.157097769
2025-11-07 22:49:51.591579,-5,2025-11-07 22:49:53.164790077
2025-11-07 22:49:51.591579,-670,2025-11-07 22:49:53.172482385
2025-11-07 22:49:51.591579,20223,2025-11-07 22:49:53.180174692
2025-11-07 22:49:51.591579,-1,2025-11-07 22:49:53.187867000
2025-11-07 22:49:51.591579,-14,2025-11-07 22:49:53.195559308
2025-11-07 22:49:51.591579,25599,2025-11-07 22:49:53.203251615
2025-11-07 22:49:51.591579,0,2025-11-07 22:49:53.210943923
2025-11-07 22:49:51.591579,182,2025-11-07 22:49:53.218636231
2025-11-07 22:49:51.591579,-20736,2025-11-07 22:49:53.226328538
2025-11-07 22:49:51.591579,0,2025-11-07 22:49:53.234020846
2025-11-07 22:49:51.591579,163,2025-11-07 22:49:53.241713154
2025-11-07 22:49:51.591579,-19968,2025-11-07 22:49:53.249405462
2025-11-07 22:49:51.591579,0,2025-11-07 22:49:53.257097769
2025-11-07 22:49:51.591579,171,2025-11-07 22:49:53.264790077
2025-11-07 22:49:51.591579,-26112,2025-11-07 22:49:53.272482385
2025-11-07 22:49:51.591579,0,2025-11-07 22:49:53.280174692
2025-11-07 22:49:51.591579,144,2025-11-07 22:49:53.287867000
2025-11-07 22:49:51.591579,-30464,2025-11-07 22:49:53.295559308
2025-11-07 22:49:51.591579,0,2025-11-07 22:49:53.303251615
2025-11-07 22:49:51.591579,130,2025-11-07 22:49:53.310943923
2025-11-07 22:49:51.591579,-32256,2025-11-07 22:49:53.318636231
2025-11-07 22:49:51.591579,0,2025-11-07 22:49:53.326328538
2025-11-07 22:49:51.591579,135,2025-11-07 22:49:53.334020846
2025-11-07 22:49:52.141404,128,2025-11-07 22:49:53.341713154
2025-11-07 22:49:52.141404,29696,2025-11-07 22:49:53.349405462
2025-11-07 22:49:52.141404,0,2025-11-07 22:49:53.357097769
2025-11-07 22:49:52.141404,104,2025-11-07 22:49:53.364790077
2025-11-07 22:49:52.141404,21760,2025-11-07 22:49:53.372482385
2025-11-07 22:49:52.141404,0,2025-11-07 22:49:53.380174692
2025-11-07 22:49:52.141404,59,2025-11-07 22:49:53.387867000
2025-11-07 22:49:52.141404,9728,2025-11-07 22:49:53.395559308
2025-11-07 22:49:52.141404,0,2025-11-07 22:49:53.403251615
2025-11-07 22:49:52.141404,16,2025-11-07 22:49:53.410943923
2025-11-07 22:49:52.141404,-512,2025-11-07 22:49:53.418636231
2025-11-07 22:49:52.141404,-1,2025-11-07 22:49:53.426328538
2025-11-07 22:49:52.141404,-11,2025-11-07 22:49:53.434020846
2025-11-07 22:49:52.141404,-1537,2025-11-07 22:49:53.441713154
2025-11-07 22:49:52.141404,-1,2025-11-07 22:49:53.449405462
2025-11-07 22:49:52.141404,14,2025-11-07 22:49:53.457097769
2025-11-07 22:49:52.141404,13312,2025-11-07 22:49:53.464790077
2025-11-07 22:49:52.141404,0,2025-11-07 22:49:53.472482385
2025-11-07 22:49:52.141404,80,2025-11-07 22:49:53.480174692
2025-11-07 22:49:52.141404,26112,2025-11-07 22:49:53.487867000
2025-11-07 22:49:52.141404,0,2025-11-07 22:49:53.495559308
2025-11-07 22:49:52.141404,130,2025-11-07 22:49:53.503251615
2025-11-07 22:49:52.141404,-26112,2025-11-07 22:49:53.510943923
2025-11-07 22:49:52.141404,0,2025-11-07 22:49:53.518636230
2025-11-07 22:49:52.141404,161,2025-11-07 22:49:53.526328538
2025-11-07 22:49:52.141404,-24320,2025-11-07 22:49:53.534020846
2025-11-07 22:49:52.141404,0,2025-11-07 22:49:53.541713154
2025-11-07 22:49:52.141404,156,2025-11-07 22:49:53.549405462
2025-11-07 22:49:52.141404,-27392,2025-11-07 22:49:53.557097769
2025-11-07 22:49:52.141404,0,2025-11-07 22:49:53.564790077
2025-11-07 22:49:52.141404,144,2025-11-07 22:49:53.572482385
2025-11-07 22:49:52.141404,-30464,2025-11-07 22:49:53.580174692
2025-11-07 22:49:52.141404,0,2025-11-07 22:49:53.587867000
2025-11-07 22:49:52.141404,128,2025-11-07 22:49:53.595559308
2025-11-07 22:49:52.141404,31488,2025-11-07 22:49:53.603251615
2025-11-07 22:49:52.141404,0,2025-11-07 22:49:53.610943923
2025-11-07 22:49:52.141404,123,2025-11-07 22:49:53.618636231
2025-11-07 22:49:52.141404,29696,2025-11-07 22:49:53.626328538
2025-11-07 22:49:52.141404,0,2025-11-07 22:49:53.634020846
2025-11-07 22:49:52.141404,121,2025-11-07 22:49:53.641713154
2025-11-07 22:49:52.141404,-30464,2025-11-07 22:49:53.649405462
2025-11-07 22:49:52.141404,0,2025-11-07 22:49:53.657097769
2025-11-07 22:49:52.141404,140,2025-11-07 22:49:53.664790077
2025-11-07 22:49:52.141404,-32768,2025-11-07 22:49:53.672482385
2025-11-07 22:49:52.141404,0,2025-11-07 22:49:53.680174692
2025-11-07 22:49:52.141404,109,2025-11-07 22:49:53.687867000
2025-11-07 22:49:52.141404,21248,2025-11-07 22:49:53.695559308
2025-11-07 22:49:52.141404,0,2025-11-07 22:49:53.703251615
2025-11-07 22:49:52.141404,59,2025-11-07 22:49:53.710943923
2025-11-07 22:49:52.141404,12544,2025-11-07 22:49:53.718636231
2025-11-07 22:49:52.141404,0,2025-11-07 22:49:53.726328538
2025-11-07 22:49:52.141404,40,2025-11-07 22:49:53.734020846
2025-11-07 22:49:52.141404,11520,2025-11-07 22:49:53.741713154
2025-11-07 22:49:52.141404,0,2025-11-07 22:49:53.749405462
2025-11-07 22:49:52.141404,61,2025-11-07 22:49:53.757097769
2025-11-07 22:49:52.141404,14592,2025-11-07 22:49:53.764790077
2025-11-07 22:49:52.141404,0,2025-11-07 22:49:53.772482385
2025-11-07 22:49:52.141404,42,2025-11-07 22:49:53.780174692
2025-11-07 22:49:52.141404,10752,2025-11-07 22:49:53.787867000
2025-11-07 22:49:52.141404,0,2025-11-07 22:49:53.795559308
2025-11-07 22:49:52.141404,42,2025-11-07 22:49:53.803251615
2025-11-07 22:49:52.141404,10240,2025-11-07 22:49:53.810943923
2025-11-07 22:49:52.141404,0,2025-11-07 22:49:53.818636231
2025-11-07 22:49:52.141404,42,2025-11-07 22:49:53.826328538
2025-11-07 22:49:52.141404,16384,2025-11-07 22:49:53.834020846
2025-11-07 22:49:52.141404,0,2025-11-07 22:49:53.841713154
2025-11-07 22:49:52.141404,137,2025-11-07 22:49:53.849405462
2025-11-07 22:49:52.141404,-1280,2025-11-07 22:49:53.857097769
2025-11-07 22:49:52.141404,0,2025-11-07 22:49:53.864790077
2025-11-07 22:49:52.141404,273,2025-11-07 22:49:53.872482385
2025-11-07 22:49:52.141404,-5888,2025-11-07 22:49:53.880174692
2025-11-07 22:49:52.141404,-1,2025-11-07 22:49:53.887867000
2025-11-07 22:49:52.141404,-708,2025-11-07 22:49:53.895559308
2025-11-07 22:49:52.141404,-17921,2025-11-07 22:49:53.903251615
2025-11-07 22:49:52.141404,-5,2025-11-07 22:49:53.910943923
2025-11-07 22:49:52.141404,-703,2025-11-07 22:49:53.918636231
2025-11-07 22:49:52.141404,12287,2025-11-07 22:49:53.926328538
2025-11-07 22:49:52.141404,-1,2025-11-07 22:49:53.934020846
2025-11-07 22:49:52.141404,-38,2025-11-07 22:49:53.941713154
2025-11-07 22:49:52.141404,20223,2025-11-07 22:49:53.949405462
2025-11-07 22:49:52.141404,0,2025-11-07 22:49:53.957097769
2025-11-07 22:49:52.141404,168,2025-11-07 22:49:53.964790077
2025-11-07 22:49:52.141404,-24320,2025-11-07 22:49:53.972482385
2025-11-07 22:49:52.141404,0,2025-11-07 22:49:53.980174692
2025-11-07 22:49:52.141404,149,2025-11-07 22:49:53.987867000
2025-11-07 22:49:52.141404,-25600,2025-11-07 22:49:53.995559308
2025-11-07 22:49:52.141404,0,2025-11-07 22:49:54.003251615
2025-11-07 22:49:52.141404,152,2025-11-07 22:49:54.010943923
2025-11-07 22:49:52.141404,-29696,2025-11-07 22:49:54.018636231
2025-11-07 22:49:52.141404,0,2025-11-07 22:49:54.026328538
2025-11-07 22:49:52.141404,133,2025-11-07 22:49:54.034020846
2025-11-07 22:49:52.141404,31488,2025-11-07 22:49:54.041713154
2025-11-07 22:49:52.141404,0,2025-11-07 22:49:54.049405462
2025-11-07 22:49:52.141404,116,2025-11-07 22:49:54.057097769
2025-11-07 22:49:52.141404,29184,2025-11-07 22:49:54.064790077
2025-11-07 22:49:52.141404,0,2025-11-07 22:49:54.072482385
2025-11-07 22:49:52.141404,114,2025-11-07 22:49:54.080174692
2025-11-07 22:49:52.141404,27904,2025-11-07 22:49:54.087867000
2025-11-07 22:49:52.141404,0,2025-11-07 22:49:54.095559308
2025-11-07 22:49:52.141404,99,2025-11-07 22:49:54.103251615
2025-11-07 22:49:52.141404,21248,2025-11-07 22:49:54.110943923
2025-11-07 22:49:52.141404,0,2025-11-07 22:49:54.118636231
2025-11-07 22:49:52.141404,64,2025-11-07 22:49:54.126328538
2025-11-07 22:49:52.141404,11520,2025-11-07 22:49:54.134020846
2025-11-07 22:49:52.141404,0,2025-11-07 22:49:54.141713154
2025-11-07 22:49:52.141404,23,2025-11-07 22:49:54.149405462
2025-11-07 22:49:52.141404,512,2025-11-07 22:49:54.157097769
2025-11-07 22:49:52.141404,0,2025-11-07 22:49:54.164790077
2025-11-07 22:49:52.141404,-11,2025-11-07 22:49:54.172482385
2025-11-07 22:49:52.690511,-21,2025-11-07 22:49:54.180174692
2025-11-07 22:49:52.690511,-5121,2025-11-07 22:49:54.187867000
2025-11-07 22:49:52.690511,-1,2025-11-07 22:49:54.195559308
2025-11-07 22:49:52.690511,-11,2025-11-07 22:49:54.203251615
2025-11-07 22:49:52.690511,3071,2025-11-07 22:49:54.210943923
2025-11-07 22:49:52.690511,0,2025-11-07 22:49:54.218636231
2025-11-07 22:49:52.690511,42,2025-11-07 22:49:54.226328538
2025-11-07 22:49:52.690511,18688,2025-11-07 22:49:54.234020846
2025-11-07 22:49:52.690511,0,2025-11-07 22:49:54.241713154
2025-11-07 22:49:52.690511,99,2025-11-07 22:49:54.249405462
2025-11-07 22:49:52.690511,29696,2025-11-07 22:49:54.257097769
2025-11-07 22:49:52.690511,0,2025-11-07 22:49:54.264790077
2025-11-07 22:49:52.690511,130,2025-11-07 22:49:54.272482385
2025-11-07 22:49:52.690511,-27392,2025-11-07 22:49:54.280174692
2025-11-07 22:49:52.690511,0,2025-11-07 22:49:54.287867000
2025-11-07 22:49:52.690511,159,2025-11-07 22:49:54.295559308
2025-11-07 22:49:52.690511,-27392,2025-11-07 22:49:54.303251615
2025-11-07 22:49:52.690511,0,2025-11-07 22:49:54.310943923
2025-11-07 22:49:52.690511,142,2025-11-07 22:49:54.318636231
2025-11-07 22:49:52.690511,-29696,2025-11-07 22:49:54.326328538
2025-11-07 22:49:52.690511,0,2025-11-07 22:49:54.334020846
2025-11-07 22:49:52.690511,128,2025-11-07 22:49:54.341713154
2025-11-07 22:49:52.690511,31488,2025-11-07 22:49:54.349405462
2025-11-07 22:49:52.690511,0,2025-11-07 22:49:54.357097769
2025-11-07 22:49:52.690511,123,2025-11-07 22:49:54.364790077
2025-11-07 22:49:52.690511,30208,2025-11-07 22:49:54.372482385
2025-11-07 22:49:52.690511,0,2025-11-07 22:49:54.380174692
2025-11-07 22:49:52.690511,118,2025-11-07 22:49:54.387867000
2025-11-07 22:49:52.690511,-32256,2025-11-07 22:49:54.395559308
2025-11-07 22:49:52.690511,0,2025-11-07 22:49:54.403251615
2025-11-07 22:49:52.690511,137,2025-11-07 22:49:54.410943923
2025-11-07 22:49:52.690511,-31488,2025-11-07 22:49:54.418636231
2025-11-07 22:49:52.690511,0,2025-11-07 22:49:54.426328538
2025-11-07 22:49:52.690511,125,2025-11-07 22:49:54.434020846
2025-11-07 22:49:52.690511,25344,2025-11-07 22:49:54.441713154
2025-11-07 22:49:52.690511,0,2025-11-07 22:49:54.449405462
2025-11-07 22:49:52.690511,68,2025-11-07 22:49:54.457097769
2025-11-07 22:49:52.690511,15104,2025-11-07 22:49:54.464790077
2025-11-07 22:49:52.690511,0,2025-11-07 22:49:54.472482385
2025-11-07 22:49:52.690511,47,2025-11-07 22:49:54.480174692
2025-11-07 22:49:52.690511,10240,2025-11-07 22:49:54.487867000
2025-11-07 22:49:52.690511,0,2025-11-07 22:49:54.495559308
2025-11-07 22:49:52.690511,64,2025-11-07 22:49:54.503251615
2025-11-07 22:49:52.690511,18176,2025-11-07 22:49:54.510943923
2025-11-07 22:49:52.690511,0,2025-11-07 22:49:54.518636230
2025-11-07 22:49:52.690511,49,2025-11-07 22:49:54.526328538
2025-11-07 22:49:52.690511,10752,2025-11-07 22:49:54.534020846
2025-11-07 22:49:52.690511,0,2025-11-07 22:49:54.541713154
2025-11-07 22:49:52.690511,47,2025-11-07 22:49:54.549405462
2025-11-07 22:49:52.690511,11520,2025-11-07 22:49:54.557097769
2025-11-07 22:49:52.690511,0,2025-11-07 22:49:54.564790077
2025-11-07 22:49:52.690511,49,2025-11-07 22:49:54.572482385
2025-11-07 22:49:52.690511,15616,2025-11-07 22:49:54.580174692
2025-11-07 22:49:52.690511,0,2025-11-07 22:49:54.587867000
2025-11-07 22:49:52.690511,116,2025-11-07 22:49:54.595559308
2025-11-07 22:49:52.690511,-6656,2025-11-07 22:49:54.603251615
2025-11-07 22:49:52.690511,0,2025-11-07 22:49:54.610943923
2025-11-07 22:49:52.690511,299,2025-11-07 22:49:54.618636231
2025-11-07 22:49:52.690511,26624,2025-11-07 22:49:54.626328538
2025-11-07 22:49:52.690511,0,2025-11-07 22:49:54.634020846
2025-11-07 22:49:52.690511,-525,2025-11-07 22:49:54.641713154
2025-11-07 22:49:52.690511,-17409,2025-11-07 22:49:54.649405462
2025-11-07 22:49:52.690511,-5,2025-11-07 22:49:54.657097769
2025-11-07 22:49:52.690511,-869,2025-11-07 22:49:54.664790077
2025-11-07 22:49:52.690511,-12545,2025-11-07 22:49:54.672482385
2025-11-07 22:49:52.690511,-2,2025-11-07 22:49:54.680174692
2025-11-07 22:49:52.690511,-57,2025-11-07 22:49:54.687867000
2025-11-07 22:49:52.690511,13567,2025-11-07 22:49:54.695559308
2025-11-07 22:49:52.690511,0,2025-11-07 22:49:54.703251615
2025-11-07 22:49:52.690511,159,2025-11-07 22:49:54.710943923
2025-11-07 22:49:52.690511,-20736,2025-11-07 22:49:54.718636231
2025-11-07 22:49:52.690511,0,2025-11-07 22:49:54.726328538
2025-11-07 22:49:52.690511,159,2025-11-07 22:49:54.734020846
2025-11-07 22:49:52.690511,-22528,2025-11-07 22:49:54.741713154
2025-11-07 22:49:52.690511,0,2025-11-07 22:49:54.749405462
2025-11-07 22:49:52.690511,163,2025-11-07 22:49:54.757097769
2025-11-07 22:49:52.690511,-27392,2025-11-07 22:49:54.764790077
2025-11-07 22:49:52.690511,0,2025-11-07 22:49:54.772482385
2025-11-07 22:49:52.690511,142,2025-11-07 22:49:54.780174692
2025-11-07 22:49:52.690511,-31488,2025-11-07 22:49:54.787867000
2025-11-07 22:49:52.690511,0,2025-11-07 22:49:54.795559308
2025-11-07 22:49:52.690511,125,2025-11-07 22:49:54.803251615
2025-11-07 22:49:52.690511,-32768,2025-11-07 22:49:54.810943923
2025-11-07 22:49:52.690511,0,2025-11-07 22:49:54.818636231
2025-11-07 22:49:52.690511,123,2025-11-07 22:49:54.826328538
2025-11-07 22:49:52.690511,29696,2025-11-07 22:49:54.834020846
2025-11-07 22:49:52.690511,0,2025-11-07 22:49:54.841713154
2025-11-07 22:49:52.690511,109,2025-11-07 22:49:54.849405462
2025-11-07 22:49:52.690511,24832,2025-11-07 22:49:54.857097769
2025-11-07 22:49:52.690511,0,2025-11-07 22:49:54.864790077
2025-11-07 22:49:52.690511,80,2025-11-07 22:49:54.872482385
2025-11-07 22:49:52.690511,14592,2025-11-07 22:49:54.880174692
2025-11-07 22:49:52.690511,0,2025-11-07 22:49:54.887867000
2025-11-07 22:49:52.690511,28,2025-11-07 22:49:54.895559308
2025-11-07 22:49:52.690511,2304,2025-11-07 22:49:54.903251615
2025-11-07 22:49:52.690511,0,2025-11-07 22:49:54.910943923
2025-11-07 22:49:52.690511,-2,2025-11-07 22:49:54.918636231
2025-11-07 22:49:52.690511,-3329,2025-11-07 22:49:54.926328538
2025-11-07 22:49:52.690511,-1,2025-11-07 22:49:54.934020846
2025-11-07 22:49:52.690511,-21,2025-11-07 22:49:54.941713154
2025-11-07 22:49:52.690511,-2561,2025-11-07 22:49:54.949405462
2025-11-07 22:49:52.690511,-1,2025-11-07 22:49:54.957097769
2025-11-07 22:49:52.690511,11,2025-11-07 22:49:54.964790077
2025-11-07 22:49:52.690511,10752,2025-11-07 22:49:54.972482385
2025-11-07 22:49:52.690511,0,2025-11-07 22:49:54.980174692
2025-11-07 22:49:52.690511,71,2025-11-07 22:49:54.987867000
2025-11-07 22:49:52.690511,23040,2025-11-07 22:49:54.995559308
2025-11-07 22:49:52.690511,0,2025-11-07 22:49:55.003251615
2025-11-07 22:49:52.690511,106,2025-11-07 22:49:55.010943923
2025-11-07 22:49:53.291163,128,2025-11-07 22:49:55.018636231
2025-11-07 22:49:53.291163,-30464,2025-11-07 22:49:55.026328538
2025-11-07 22:49:53.291163,0,2025-11-07 22:49:55.034020846
2025-11-07 22:49:53.291163,133,2025-11-07 22:49:55.041713154
2025-11-07 22:49:53.291163,-32256,2025-11-07 22:49:55.049405462
2025-11-07 22:49:53.291163,0,2025-11-07 22:49:55.057097769
2025-11-07 22:49:53.291163,128,2025-11-07 22:49:55.064790077
2025-11-07 22:49:53.291163,30208,2025-11-07 22:49:55.072482385
2025-11-07 22:49:53.291163,0,2025-11-07 22:49:55.080174692
2025-11-07 22:49:53.291163,106,2025-11-07 22:49:55.087867000
2025-11-07 22:49:53.291163,27904,2025-11-07 22:49:55.095559308
2025-11-07 22:49:53.291163,0,2025-11-07 22:49:55.103251615
2025-11-07 22:49:53.291163,123,2025-11-07 22:49:55.110943923
2025-11-07 22:49:53.291163,30976,2025-11-07 22:49:55.118636231
2025-11-07 22:49:53.291163,0,2025-11-07 22:49:55.126328538
2025-11-07 22:49:53.291163,109,2025-11-07 22:49:55.134020846
2025-11-07 22:49:53.291163,26624,2025-11-07 22:49:55.141713154
2025-11-07 22:49:53.291163,0,2025-11-07 22:49:55.149405462
2025-11-07 22:49:53.291163,114,2025-11-07 22:49:55.157097769
2025-11-07 22:49:53.291163,31488,2025-11-07 22:49:55.164790077
2025-11-07 22:49:53.291163,0,2025-11-07 22:49:55.172482385
2025-11-07 22:49:53.291163,130,2025-11-07 22:49:55.180174692
2025-11-07 22:49:53.291163,-32256,2025-11-07 22:49:55.187867000
2025-11-07 22:49:53.291163,0,2025-11-07 22:49:55.195559308
2025-11-07 22:49:53.291163,114,2025-11-07 22:49:55.203251615
2025-11-07 22:49:53.291163,21760,2025-11-07 22:49:55.210943923
2025-11-07 22:49:53.291163,0,2025-11-07 22:49:55.218636231
2025-11-07 22:49:53.291163,64,2025-11-07 22:49:55.226328538
2025-11-07 22:49:53.291163,13824,2025-11-07 22:49:55.234020846
2025-11-07 22:49:53.291163,0,2025-11-07 22:49:55.241713154
2025-11-07 22:49:53.291163,47,2025-11-07 22:49:55.249405462
2025-11-07 22:49:53.291163,15104,2025-11-07 22:49:55.257097769
2025-11-07 22:49:53.291163,0,2025-11-07 22:49:55.264790077
2025-11-07 22:49:53.291163,73,2025-11-07 22:49:55.272482385
2025-11-07 22:49:53.291163,16384,2025-11-07 22:49:55.280174692
2025-11-07 22:49:53.291163,0,2025-11-07 22:49:55.287867000
2025-11-07 22:49:53.291163,47,2025-11-07 22:49:55.295559308
2025-11-07 22:49:53.291163,12032,2025-11-07 22:49:55.303251615
2025-11-07 22:49:53.291163,0,2025-11-07 22:49:55.310943923
2025-11-07 22:49:53.291163,54,2025-11-07 22:49:55.318636231
2025-11-07 22:49:53.291163,14592,2025-11-07 22:49:55.326328538
2025-11-07 22:49:53.291163,0,2025-11-07 22:49:55.334020846
2025-11-07 22:49:53.291163,59,2025-11-07 22:49:55.341713154
2025-11-07 22:49:53.291163,22272,2025-11-07 22:49:55.349405462
2025-11-07 22:49:53.291163,0,2025-11-07 22:49:55.357097769
2025-11-07 22:49:53.291163,178,2025-11-07 22:49:55.364790077
2025-11-07 22:49:53.291163,6656,2025-11-07 22:49:55.372482385
2025-11-07 22:49:53.291163,1,2025-11-07 22:49:55.380174692
2025-11-07 22:49:53.291163,251,2025-11-07 22:49:55.387867000
2025-11-07 22:49:53.291163,24832,2025-11-07 22:49:55.395559308
2025-11-07 22:49:53.291163,-1,2025-11-07 22:49:55.403251615
2025-11-07 22:49:53.291163,-853,2025-11-07 22:49:55.410943923
2025-11-07 22:49:53.291163,-3841,2025-11-07 22:49:55.418636231
2025-11-07 22:49:53.291163,-5,2025-11-07 22:49:55.426328538
2025-11-07 22:49:53.291163,-548,2025-11-07 22:49:55.434020846
2025-11-07 22:49:53.291163,25855,2025-11-07 22:49:55.441713154
2025-11-07 22:49:53.291163,-1,2025-11-07 22:49:55.449405462
2025-11-07 22:49:53.291163,-23,2025-11-07 22:49:55.457097769
2025-11-07 22:49:53.291163,30463,2025-11-07 22:49:55.464790077
2025-11-07 22:49:53.291163,0,2025-11-07 22:49:55.472482385
2025-11-07 22:49:53.291163,187,2025-11-07 22:49:55.480174692
2025-11-07 22:49:53.291163,-24320,2025-11-07 22:49:55.487867000
2025-11-07 22:49:53.291163,0,2025-11-07 22:49:55.495559308
2025-11-07 22:49:53.291163,154,2025-11-07 22:49:55.503251615
2025-11-07 22:49:53.291163,-23808,2025-11-07 22:49:55.510943923
2025-11-07 22:49:53.291163,0,2025-11-07 22:49:55.518636230
2025-11-07 22:49:53.291163,154,2025-11-07 22:49:55.526328538
2025-11-07 22:49:53.291163,-29696,2025-11-07 22:49:55.534020846
2025-11-07 22:49:53.291163,0,2025-11-07 22:49:55.541713154
2025-11-07 22:49:53.291163,133,2025-11-07 22:49:55.549405462
2025-11-07 22:49:53.291163,-32768,2025-11-07 22:49:55.557097769
2025-11-07 22:49:53.291163,0,2025-11-07 22:49:55.564790077
2025-11-07 22:49:53.291163,123,2025-11-07 22:49:55.572482385
2025-11-07 22:49:53.291163,30208,2025-11-07 22:49:55.580174692
2025-11-07 22:49:53.291163,0,2025-11-07 22:49:55.587867000
2025-11-07 22:49:53.291163,118,2025-11-07 22:49:55.595559308
2025-11-07 22:49:53.291163,28416,2025-11-07 22:49:55.603251615
2025-11-07 22:49:53.291163,0,2025-11-07 22:49:55.610943923
2025-11-07 22:49:53.291163,97,2025-11-07 22:49:55.618636231
2025-11-07 22:49:53.291163,19968,2025-11-07 22:49:55.626328538
2025-11-07 22:49:53.291163,0,2025-11-07 22:49:55.634020846
2025-11-07 22:49:53.291163,57,2025-11-07 22:49:55.641713154
2025-11-07 22:49:53.291163,7168,2025-11-07 22:49:55.649405462
2025-11-07 22:49:53.291163,0,2025-11-07 22:49:55.657097769
2025-11-07 22:49:53.291163,7,2025-11-07 22:49:55.664790077
2025-11-07 22:49:53.291163,-2816,2025-11-07 22:49:55.672482385
2025-11-07 22:49:53.291163,-1,2025-11-07 22:49:55.680174692
2025-11-07 22:49:53.291163,-26,2025-11-07 22:49:55.687867000
2025-11-07 22:49:53.291163,-7425,2025-11-07 22:49:55.695559308
2025-11-07 22:49:53.291163,-1,2025-11-07 22:49:55.703251615
2025-11-07 22:49:53.291163,-26,2025-11-07 22:49:55.710943923
2025-11-07 22:49:53.291163,-2049,2025-11-07 22:49:55.718636231
2025-11-07 22:49:53.291163,-1,2025-11-07 22:49:55.726328538
2025-11-07 22:49:53.291163,21,2025-11-07 22:49:55.734020846
2025-11-07 22:49:53.291163,12544,2025-11-07 22:49:55.741713154
2025-11-07 22:49:53.291163,0,2025-11-07 22:49:55.749405462
2025-11-07 22:49:53.291163,68,2025-11-07 22:49:55.757097769
2025-11-07 22:49:53.291163,23040,2025-11-07 22:49:55.764790077
2025-11-07 22:49:53.291163,0,2025-11-07 22:49:55.772482385
2025-11-07 22:49:53.291163,111,2025-11-07 22:49:55.780174692
2025-11-07 22:49:53.291163,30976,2025-11-07 22:49:55.787867000
2025-11-07 22:49:53.291163,0,2025-11-07 22:49:55.795559308
2025-11-07 22:49:53.291163,118,2025-11-07 22:49:55.803251615
2025-11-07 22:49:53.291163,30208,2025-11-07 22:49:55.810943923
2025-11-07 22:49:53.291163,0,2025-11-07 22:49:55.818636231
2025-11-07 22:49:53.291163,118,2025-11-07 22:49:55.826328538
2025-11-07 22:49:53.291163,29184,2025-11-07 22:49:55.834020846
2025-11-07 22:49:53.291163,0,2025-11-07 22:49:55.841713154
2025-11-07 22:49:53.291163,106,2025-11-07 22:49:55.849405462
2025-11-07 22:49:53.890907,99,2025-11-07 22:49:55.857097769
2025-11-07 22:49:53.890907,23040,2025-11-07 22:49:55.864790077
2025-11-07 22:49:53.890907,0,2025-11-07 22:49:55.872482385
2025-11-07 22:49:53.890907,85,2025-11-07 22:49:55.880174692
2025-11-07 22:49:53.890907,21760,2025-11-07 22:49:55.887867000
2025-11-07 22:49:53.890907,0,2025-11-07 22:49:55.895559308
2025-11-07 22:49:53.890907,76,2025-11-07 22:49:55.903251615
2025-11-07 22:49:53.890907,16896,2025-11-07 22:49:55.910943923
2025-11-07 22:49:53.890907,0,2025-11-07 22:49:55.918636231
2025-11-07 22:49:53.890907,64,2025-11-07 22:49:55.926328538
2025-11-07 22:49:53.890907,16384,2025-11-07 22:49:55.934020846
2025-11-07 22:49:53.890907,0,2025-11-07 22:49:55.941713154
2025-11-07 22:49:53.890907,59,2025-11-07 22:49:55.949405462
2025-11-07 22:49:53.890907,16384,2025-11-07 22:49:55.957097769
2025-11-07 22:49:53.890907,0,2025-11-07 22:49:55.964790077
2025-11-07 22:49:53.890907,76,2025-11-07 22:49:55.972482385
2025-11-07 22:49:53.890907,23040,2025-11-07 22:49:55.980174692
2025-11-07 22:49:53.890907,0,2025-11-07 22:49:55.987867000
2025-11-07 22:49:53.890907,104,2025-11-07 22:49:55.995559308
2025-11-07 22:49:53.890907,29184,2025-11-07 22:49:56.003251615
2025-11-07 22:49:53.890907,0,2025-11-07 22:49:56.010943923
2025-11-07 22:49:53.890907,99,2025-11-07 22:49:56.018636231
2025-11-07 22:49:53.890907,18688,2025-11-07 22:49:56.026328538
2025-11-07 22:49:53.890907,0,2025-11-07 22:49:56.034020846
2025-11-07 22:49:53.890907,54,2025-11-07 22:49:56.041713154
2025-11-07 22:49:53.890907,10752,2025-11-07 22:49:56.049405462
2025-11-07 22:49:53.890907,0,2025-11-07 22:49:56.057097769
2025-11-07 22:49:53.890907,33,2025-11-07 22:49:56.064790077
2025-11-07 22:49:53.890907,13312,2025-11-07 22:49:56.072482385
2025-11-07 22:49:53.890907,0,2025-11-07 22:49:56.080174692
2025-11-07 22:49:53.890907,68,2025-11-07 22:49:56.087867000
2025-11-07 22:49:53.890907,13312,2025-11-07 22:49:56.095559308
2025-11-07 22:49:53.890907,0,2025-11-07 22:49:56.103251615
2025-11-07 22:49:53.890907,42,2025-11-07 22:49:56.110943923
2025-11-07 22:49:53.890907,12544,2025-11-07 22:49:56.118636231
2025-11-07 22:49:53.890907,0,2025-11-07 22:49:56.126328538
2025-11-07 22:49:53.890907,52,2025-11-07 22:49:56.134020846
2025-11-07 22:49:53.890907,13312,2025-11-07 22:49:56.141713154
2025-11-07 22:49:53.890907,0,2025-11-07 22:49:56.149405462
2025-11-07 22:49:53.890907,59,2025-11-07 22:49:56.157097769
2025-11-07 22:49:53.890907,24320,2025-11-07 22:49:56.164790077
2025-11-07 22:49:53.890907,0,2025-11-07 22:49:56.172482385
2025-11-07 22:49:53.890907,197,2025-11-07 22:49:56.180174692
2025-11-07 22:49:53.890907,11008,2025-11-07 22:49:56.187867000
2025-11-07 22:49:53.890907,1,2025-11-07 22:49:56.195559308
2025-11-07 22:49:53.890907,218,2025-11-07 22:49:56.203251615
2025-11-07 22:49:53.890907,-3072,2025-11-07 22:49:56.210943923
2025-11-07 22:49:53.890907,-2,2025-11-07 22:49:56.218636231
2025-11-07 22:49:53.890907,-900,2025-11-07 22:49:56.226328538
2025-11-07 22:49:53.890907,30207,2025-11-07 22:49:56.234020846
2025-11-07 22:49:53.890907,-4,2025-11-07 22:49:56.241713154
2025-11-07 22:49:53.890907,-437,2025-11-07 22:49:56.249405462
2025-11-07 22:49:53.890907,14847,2025-11-07 22:49:56.257097769
2025-11-07 22:49:53.890907,-1,2025-11-07 22:49:56.264790077
2025-11-07 22:49:53.890907,-59,2025-11-07 22:49:56.272482385
2025-11-07 22:49:53.890907,-30721,2025-11-07 22:49:56.280174692
2025-11-07 22:49:53.890907,0,2025-11-07 22:49:56.287867000
2025-11-07 22:49:53.890907,173,2025-11-07 22:49:56.295559308
2025-11-07 22:49:53.890907,-29696,2025-11-07 22:49:56.303251615
2025-11-07 22:49:53.890907,0,2025-11-07 22:49:56.310943923
2025-11-07 22:49:53.890907,161,2025-11-07 22:49:56.318636231
2025-11-07 22:49:53.890907,-24320,2025-11-07 22:49:56.326328538
2025-11-07 22:49:53.890907,0,2025-11-07 22:49:56.334020846
2025-11-07 22:49:53.890907,140,2025-11-07 22:49:56.341713154
2025-11-07 22:49:53.890907,-28672,2025-11-07 22:49:56.349405462
2025-11-07 22:49:53.890907,0,2025-11-07 22:49:56.357097769
2025-11-07 22:49:53.890907,147,2025-11-07 22:49:56.364790077
2025-11-07 22:49:53.890907,-30976,2025-11-07 22:49:56.372482385
2025-11-07 22:49:53.890907,0,2025-11-07 22:49:56.380174692
2025-11-07 22:49:53.890907,125,2025-11-07 22:49:56.387867000
2025-11-07 22:49:53.890907,30976,2025-11-07 22:49:56.395559308
2025-11-07 22:49:53.890907,0,2025-11-07 22:49:56.403251615
2025-11-07 22:49:53.890907,114,2025-11-07 22:49:56.410943923
2025-11-07 22:49:53.890907,27904,2025-11-07 22:49:56.418636231
2025-11-07 22:49:53.890907,0,2025-11-07 22:49:56.426328538
2025-11-07 22:49:53.890907,95,2025-11-07 22:49:56.434020846
2025-11-07 22:49:53.890907,19968,2025-11-07 22:49:56.441713154
2025-11-07 22:49:53.890907,0,2025-11-07 22:49:56.449405462
2025-11-07 22:49:53.890907,61,2025-11-07 22:49:56.457097769
2025-11-07 22:49:53.890907,9728,2025-11-07 22:49:56.464790077
2025-11-07 22:49:53.890907,0,2025-11-07 22:49:56.472482385
2025-11-07 22:49:53.890907,16,2025-11-07 22:49:56.480174692
2025-11-07 22:49:53.890907,512,2025-11-07 22:49:56.487867000
2025-11-07 22:49:53.890907,0,2025-11-07 22:49:56.495559308
2025-11-07 22:49:53.890907,-14,2025-11-07 22:49:56.503251615
2025-11-07 22:49:53.890907,-5121,2025-11-07 22:49:56.510943923
2025-11-07 22:49:53.890907,-1,2025-11-07 22:49:56.518636230
2025-11-07 22:49:53.890907,-14,2025-11-07 22:49:56.526328538
2025-11-07 22:49:53.890907,767,2025-11-07 22:49:56.534020846
2025-11-07 22:49:53.890907,0,2025-11-07 22:49:56.541713154
2025-11-07 22:49:53.890907,16,2025-11-07 22:49:56.549405462
2025-11-07 22:49:53.890907,9728,2025-11-07 22:49:56.557097769
2025-11-07 22:49:53.890907,0,2025-11-07 22:49:56.564790077
2025-11-07 22:49:53.890907,66,2025-11-07 22:49:56.572482385
2025-11-07 22:49:53.890907,21760,2025-11-07 22:49:56.580174692
2025-11-07 22:49:53.890907,0,2025-11-07 22:49:56.587867000
2025-11-07 22:49:53.890907,104,2025-11-07 22:49:56.595559308
2025-11-07 22:49:53.890907,29696,2025-11-07 22:49:56.603251615
2025-11-07 22:49:53.890907,0,2025-11-07 22:49:56.610943923
2025-11-07 22:49:53.890907,123,2025-11-07 22:49:56.618636231
2025-11-07 22:49:53.890907,32000,2025-11-07 22:49:56.626328538
2025-11-07 22:49:53.890907,0,2025-11-07 22:49:56.634020846
2025-11-07 22:49:53.890907,125,2025-11-07 22:49:56.641713154
2025-11-07 22:49:53.890907,31488,2025-11-07 22:49:56.649405462
2025-11-07 22:49:53.890907,0,2025-11-07 22:49:56.657097769
2025-11-07 22:49:53.890907,114,2025-11-07 22:49:56.664790077
2025-11-07 22:49:53.890907,26112,2025-11-07 22:49:56.672482385
2025-11-07 22:49:53.890907,0,2025-11-07 22:49:56.680174692
2025-11-07 22:49:53.890907,87,2025-11-07 22:49:56.687867000
2025-11-07 22:49:54.390688,83,2025-11-07 22:49:56.695559308
2025-11-07 22:49:54.390688,21760,2025-11-07 22:49:56.703251615
2025-11-07 22:49:54.390688,0,2025-11-07 22:49:56.710943923
2025-11-07 22:49:54.390688,80,2025-11-07 22:49:56.718636231
2025-11-07 22:49:54.390688,18688,2025-11-07 22:49:56.726328538
2025-11-07 22:49:54.390688,0,2025-11-07 22:49:56.734020846
2025-11-07 22:49:54.390688,68,2025-11-07 22:49:56.741713154
2025-11-07 22:49:54.390688,15616,2025-11-07 22:49:56.749405462
2025-11-07 22:49:54.390688,0,2025-11-07 22:49:56.757097769
2025-11-07 22:49:54.390688,64,2025-11-07 22:49:56.764790077
2025-11-07 22:49:54.390688,19456,2025-11-07 22:49:56.772482385
2025-11-07 22:49:54.390688,0,2025-11-07 22:49:56.780174692
2025-11-07 22:49:54.390688,83,2025-11-07 22:49:56.787867000
2025-11-07 22:49:54.390688,23040,2025-11-07 22:49:56.795559308
2025-11-07 22:49:54.390688,0,2025-11-07 22:49:56.803251615
2025-11-07 22:49:54.390688,104,2025-11-07 22:49:56.810943923
2025-11-07 22:49:54.390688,26112,2025-11-07 22:49:56.818636231
2025-11-07 22:49:54.390688,0,2025-11-07 22:49:56.826328538
2025-11-07 22:49:54.390688,76,2025-11-07 22:49:56.834020846
2025-11-07 22:49:54.390688,13824,2025-11-07 22:49:56.841713154
2025-11-07 22:49:54.390688,0,2025-11-07 22:49:56.849405462
2025-11-07 22:49:54.390688,45,2025-11-07 22:49:56.857097769
2025-11-07 22:49:54.390688,6656,2025-11-07 22:49:56.864790077
2025-11-07 22:49:54.390688,0,2025-11-07 22:49:56.872482385
2025-11-07 22:49:54.390688,11,2025-11-07 22:49:56.880174692
2025-11-07 22:49:54.390688,10752,2025-11-07 22:49:56.887867000
2025-11-07 22:49:54.390688,0,2025-11-07 22:49:56.895559308
2025-11-07 22:49:54.390688,76,2025-11-07 22:49:56.903251615
2025-11-07 22:49:54.390688,16384,2025-11-07 22:49:56.910943923
2025-11-07 22:49:54.390688,0,2025-11-07 22:49:56.918636231
2025-11-07 22:49:54.390688,49,2025-11-07 22:49:56.926328538
2025-11-07 22:49:54.390688,13824,2025-11-07 22:49:56.934020846
2025-11-07 22:49:54.390688,0,2025-11-07 22:49:56.941713154
2025-11-07 22:49:54.390688,52,2025-11-07 22:49:56.949405462
2025-11-07 22:49:54.390688,13312,2025-11-07 22:49:56.957097769
2025-11-07 22:49:54.390688,0,2025-11-07 22:49:56.964790077
2025-11-07 22:49:54.390688,64,2025-11-07 22:49:56.972482385
2025-11-07 22:49:54.390688,25344,2025-11-07 22:49:56.980174692
2025-11-07 22:49:54.390688,0,2025-11-07 22:49:56.987867000
2025-11-07 22:49:54.390688,204,2025-11-07 22:49:56.995559308
2025-11-07 22:49:54.390688,17152,2025-11-07 22:49:57.003251615
2025-11-07 22:49:54.390688,1,2025-11-07 22:49:57.010943923
2025-11-07 22:49:54.390688,259,2025-11-07 22:49:57.018636231
2025-11-07 22:49:54.390688,9728,2025-11-07 22:49:57.026328538
2025-11-07 22:49:54.390688,-1,2025-11-07 22:49:57.034020846
2025-11-07 22:49:54.390688,-864,2025-11-07 22:49:57.041713154
2025-11-07 22:49:54.390688,29439,2025-11-07 22:49:57.049405462
2025-11-07 22:49:54.390688,-4,2025-11-07 22:49:57.057097769
2025-11-07 22:49:54.390688,-458,2025-11-07 22:49:57.064790077
2025-11-07 22:49:54.390688,11263,2025-11-07 22:49:57.072482385
2025-11-07 22:49:54.390688,-1,2025-11-07 22:49:57.080174692
2025-11-07 22:49:54.390688,-61,2025-11-07 22:49:57.087867000
2025-11-07 22:49:54.390688,-27649,2025-11-07 22:49:57.095559308
2025-11-07 22:49:54.390688,0,2025-11-07 22:49:57.103251615
2025-11-07 22:49:54.390688,190,2025-11-07 22:49:57.110943923
2025-11-07 22:49:54.390688,-25600,2025-11-07 22:49:57.118636231
2025-11-07 22:49:54.390688,0,2025-11-07 22:49:57.126328538
2025-11-07 22:49:54.390688,178,2025-11-07 22:49:57.134020846
2025-11-07 22:49:54.390688,-18176,2025-11-07 22:49:57.141713154
2025-11-07 22:49:54.390688,0,2025-11-07 22:49:57.149405462
2025-11-07 22:49:54.390688,161,2025-11-07 22:49:57.157097769
2025-11-07 22:49:54.390688,-27392,2025-11-07 22:49:57.164790077
2025-11-07 22:49:54.390688,0,2025-11-07 22:49:57.172482385
2025-11-07 22:49:54.390688,149,2025-11-07 22:49:57.180174692
2025-11-07 22:49:54.390688,-27392,2025-11-07 22:49:57.187867000
2025-11-07 22:49:54.390688,0,2025-11-07 22:49:57.195559308
2025-11-07 22:49:54.390688,147,2025-11-07 22:49:57.203251615
2025-11-07 22:49:54.390688,-30976,2025-11-07 22:49:57.210943923
2025-11-07 22:49:54.390688,0,2025-11-07 22:49:57.218636231
2025-11-07 22:49:54.390688,125,2025-11-07 22:49:57.226328538
2025-11-07 22:49:54.390688,30976,2025-11-07 22:49:57.234020846
2025-11-07 22:49:54.390688,0,2025-11-07 22:49:57.241713154
2025-11-07 22:49:54.390688,114,2025-11-07 22:49:57.249405462
2025-11-07 22:49:54.390688,23552,2025-11-07 22:49:57.257097769
2025-11-07 22:49:54.390688,0,2025-11-07 22:49:57.264790077
2025-11-07 22:49:54.390688,76,2025-11-07 22:49:57.272482385
2025-11-07 22:49:54.390688,15104,2025-11-07 22:49:57.280174692
2025-11-07 22:49:54.390688,0,2025-11-07 22:49:57.287867000
2025-11-07 22:49:54.390688,28,2025-11-07 22:49:57.295559308
2025-11-07 22:49:54.390688,512,2025-11-07 22:49:57.303251615
2025-11-07 22:49:54.390688,0,2025-11-07 22:49:57.310943923
2025-11-07 22:49:54.390688,-7,2025-11-07 22:49:57.318636231
2025-11-07 22:49:54.390688,-1537,2025-11-07 22:49:57.326328538
2025-11-07 22:49:54.390688,-1,2025-11-07 22:49:57.334020846
2025-11-07 22:49:54.390688,-4,2025-11-07 22:49:57.341713154
2025-11-07 22:49:54.390688,255,2025-11-07 22:49:57.349405462
2025-11-07 22:49:54.390688,0,2025-11-07 22:49:57.357097769
2025-11-07 22:49:54.390688,19,2025-11-07 22:49:57.364790077
2025-11-07 22:49:54.390688,13312,2025-11-07 22:49:57.372482385
2025-11-07 22:49:54.390688,0,2025-11-07 22:49:57.380174692
2025-11-07 22:49:54.390688,76,2025-11-07 22:49:57.387867000
2025-11-07 22:49:54.390688,22272,2025-11-07 22:49:57.395559308
2025-11-07 22:49:54.390688,0,2025-11-07 22:49:57.403251615
2025-11-07 22:49:54.390688,97,2025-11-07 22:49:57.410943923
2025-11-07 22:49:54.390688,28416,2025-11-07 22:49:57.418636231
2025-11-07 22:49:54.390688,0,2025-11-07 22:49:57.426328538
2025-11-07 22:49:54.390688,123,2025-11-07 22:49:57.434020846
2025-11-07 22:49:54.390688,32000,2025-11-07 22:49:57.441713154
2025-11-07 22:49:54.390688,0,2025-11-07 22:49:57.449405462
2025-11-07 22:49:54.390688,123,2025-11-07 22:49:57.457097769
2025-11-07 22:49:54.390688,30976,2025-11-07 22:49:57.464790077
2025-11-07 22:49:54.390688,0,2025-11-07 22:49:57.472482385
2025-11-07 22:49:54.390688,114,2025-11-07 22:49:57.480174692
2025-11-07 22:49:54.390688,26624,2025-11-07 22:49:57.487867000
2025-11-07 22:49:54.390688,0,2025-11-07 22:49:57.495559308
2025-11-07 22:49:54.390688,99,2025-11-07 22:49:57.503251615
2025-11-07 22:49:54.390688,24832,2025-11-07 22:49:57.510943923
2025-11-07 22:49:54.390688,0,2025-11-07 22:49:57.518636230
2025-11-07 22:49:54.390688,92,2025-11-07 22:49:57.526328538
2025-11-07 22:49:54.991428,85,2025-11-07 22:49:57.534020846
2025-11-07 22:49:54.991428,19456,2025-11-07 22:49:57.541713154
2025-11-07 22:49:54.991428,0,2025-11-07 22:49:57.549405462
2025-11-07 22:49:54.991428,76,2025-11-07 22:49:57.557097769
2025-11-07 22:49:54.991428,20480,2025-11-07 22:49:57.564790077
2025-11-07 22:49:54.991428,0,2025-11-07 22:49:57.572482385
2025-11-07 22:49:54.991428,76,2025-11-07 22:49:57.580174692
2025-11-07 22:49:54.991428,17408,2025-11-07 22:49:57.587867000
2025-11-07 22:49:54.991428,0,2025-11-07 22:49:57.595559308
2025-11-07 22:49:54.991428,66,2025-11-07 22:49:57.603251615
2025-11-07 22:49:54.991428,16896,2025-11-07 22:49:57.610943923
2025-11-07 22:49:54.991428,0,2025-11-07 22:49:57.618636231
2025-11-07 22:49:54.991428,66,2025-11-07 22:49:57.626328538
2025-11-07 22:49:54.991428,17408,2025-11-07 22:49:57.634020846
2025-11-07 22:49:54.991428,0,2025-11-07 22:49:57.641713154
2025-11-07 22:49:54.991428,95,2025-11-07 22:49:57.649405462
2025-11-07 22:49:54.991428,31488,2025-11-07 22:49:57.657097769
2025-11-07 22:49:54.991428,0,2025-11-07 22:49:57.664790077
2025-11-07 22:49:54.991428,128,2025-11-07 22:49:57.672482385
2025-11-07 22:49:54.991428,29184,2025-11-07 22:49:57.680174692
2025-11-07 22:49:54.991428,0,2025-11-07 22:49:57.687867000
2025-11-07 22:49:54.991428,97,2025-11-07 22:49:57.695559308
2025-11-07 22:49:54.991428,19968,2025-11-07 22:49:57.703251615
2025-11-07 22:49:54.991428,0,2025-11-07 22:49:57.710943923
2025-11-07 22:49:54.991428,61,2025-11-07 22:49:57.718636231
2025-11-07 22:49:54.991428,12544,2025-11-07 22:49:57.726328538
2025-11-07 22:49:54.991428,0,2025-11-07 22:49:57.734020846
2025-11-07 22:49:54.991428,38,2025-11-07 22:49:57.741713154
2025-11-07 22:49:54.991428,13312,2025-11-07 22:49:57.749405462
2025-11-07 22:49:54.991428,0,2025-11-07 22:49:57.757097769
2025-11-07 22:49:54.991428,64,2025-11-07 22:49:57.764790077
2025-11-07 22:49:54.991428,12544,2025-11-07 22:49:57.772482385
2025-11-07 22:49:54.991428,0,2025-11-07 22:49:57.780174692
2025-11-07 22:49:54.991428,40,2025-11-07 22:49:57.787867000
2025-11-07 22:49:54.991428,12032,2025-11-07 22:49:57.795559308
2025-11-07 22:49:54.991428,0,2025-11-07 22:49:57.803251615
2025-11-07 22:49:54.991428,52,2025-11-07 22:49:57.810943923
2025-11-07 22:49:54.991428,12544,2025-11-07 22:49:57.818636231
2025-11-07 22:49:54.991428,0,2025-11-07 22:49:57.826328538
2025-11-07 22:49:54.991428,52,2025-11-07 22:49:57.834020846
2025-11-07 22:49:54.991428,21248,2025-11-07 22:49:57.841713154
2025-11-07 22:49:54.991428,0,2025-11-07 22:49:57.849405462
2025-11-07 22:49:54.991428,175,2025-11-07 22:49:57.857097769
2025-11-07 22:49:54.991428,12800,2025-11-07 22:49:57.864790077
2025-11-07 22:49:54.991428,1,2025-11-07 22:49:57.872482385
2025-11-07 22:49:54.991428,318,2025-11-07 22:49:57.880174692
2025-11-07 22:49:54.991428,-15104,2025-11-07 22:49:57.887867000
2025-11-07 22:49:54.991428,-1,2025-11-07 22:49:57.895559308
2025-11-07 22:49:54.991428,-819,2025-11-07 22:49:57.903251615
2025-11-07 22:49:54.991428,29951,2025-11-07 22:49:57.910943923
2025-11-07 22:49:54.991428,-5,2025-11-07 22:49:57.918636231
2025-11-07 22:49:54.991428,-717,2025-11-07 22:49:57.926328538
2025-11-07 22:49:54.991428,-1537,2025-11-07 22:49:57.934020846
2025-11-07 22:49:54.991428,-2,2025-11-07 22:49:57.941713154
2025-11-07 22:49:54.991428,-85,2025-11-07 22:49:57.949405462
2025-11-07 22:49:54.991428,26879,2025-11-07 22:49:57.957097769
2025-11-07 22:49:54.991428,0,2025-11-07 22:49:57.964790077
2025-11-07 22:49:54.991428,204,2025-11-07 22:49:57.972482385
2025-11-07 22:49:54.991428,-20736,2025-11-07 22:49:57.980174692
2025-11-07 22:49:54.991428,0,2025-11-07 22:49:57.987867000
2025-11-07 22:49:54.991428,178,2025-11-07 22:49:57.995559308
2025-11-07 22:49:54.991428,-15104,2025-11-07 22:49:58.003251615
2025-11-07 22:49:54.991428,0,2025-11-07 22:49:58.010943923
2025-11-07 22:49:54.991428,182,2025-11-07 22:49:58.018636231
2025-11-07 22:49:54.991428,-22528,2025-11-07 22:49:58.026328538
2025-11-07 22:49:54.991428,0,2025-11-07 22:49:58.034020846
2025-11-07 22:49:54.991428,168,2025-11-07 22:49:58.041713154
2025-11-07 22:49:54.991428,-24320,2025-11-07 22:49:58.049405462
2025-11-07 22:49:54.991428,0,2025-11-07 22:49:58.057097769
2025-11-07 22:49:54.991428,152,2025-11-07 22:49:58.064790077
2025-11-07 22:49:54.991428,-27392,2025-11-07 22:49:58.072482385
2025-11-07 22:49:54.991428,0,2025-11-07 22:49:58.080174692
2025-11-07 22:49:54.991428,147,2025-11-07 22:49:58.087867000
2025-11-07 22:49:54.991428,-29696,2025-11-07 22:49:58.095559308
2025-11-07 22:49:54.991428,0,2025-11-07 22:49:58.103251615
2025-11-07 22:49:54.991428,133,2025-11-07 22:49:58.110943923
2025-11-07 22:49:54.991428,30976,2025-11-07 22:49:58.118636231
2025-11-07 22:49:54.991428,0,2025-11-07 22:49:58.126328538
2025-11-07 22:49:54.991428,104,2025-11-07 22:49:58.134020846
2025-11-07 22:49:54.991428,21760,2025-11-07 22:49:58.141713154
2025-11-07 22:49:54.991428,0,2025-11-07 22:49:58.149405462
2025-11-07 22:49:54.991428,61,2025-11-07 22:49:58.157097769
2025-11-07 22:49:54.991428,9728,2025-11-07 22:49:58.164790077
2025-11-07 22:49:54.991428,0,2025-11-07 22:49:58.172482385
2025-11-07 22:49:54.991428,19,2025-11-07 22:49:58.180174692
2025-11-07 22:49:54.991428,1792,2025-11-07 22:49:58.187867000
2025-11-07 22:49:54.991428,0,2025-11-07 22:49:58.195559308
2025-11-07 22:49:54.991428,2,2025-11-07 22:49:58.203251615
2025-11-07 22:49:54.991428,1024,2025-11-07 22:49:58.210943923
2025-11-07 22:49:54.991428,0,2025-11-07 22:49:58.218636231
2025-11-07 22:49:54.991428,19,2025-11-07 22:49:58.226328538
2025-11-07 22:49:54.991428,11520,2025-11-07 22:49:58.234020846
2025-11-07 22:49:54.991428,0,2025-11-07 22:49:58.241713154
2025-11-07 22:49:54.991428,66,2025-11-07 22:49:58.249405462
2025-11-07 22:49:54.991428,21248,2025-11-07 22:49:58.257097769
2025-11-07 22:49:54.991428,0,2025-11-07 22:49:58.264790077
2025-11-07 22:49:54.991428,97,2025-11-07 22:49:58.272482385
2025-11-07 22:49:54.991428,27904,2025-11-07 22:49:58.280174692
2025-11-07 22:49:54.991428,0,2025-11-07 22:49:58.287867000
2025-11-07 22:49:54.991428,118,2025-11-07 22:49:58.295559308
2025-11-07 22:49:54.991428,30976,2025-11-07 22:49:58.303251615
2025-11-07 22:49:54.991428,0,2025-11-07 22:49:58.310943923
2025-11-07 22:49:54.991428,123,2025-11-07 22:49:58.318636231
2025-11-07 22:49:54.991428,30208,2025-11-07 22:49:58.326328538
2025-11-07 22:49:54.991428,0,2025-11-07 22:49:58.334020846
2025-11-07 22:49:54.991428,116,2025-11-07 22:49:58.341713154
2025-11-07 22:49:54.991428,28416,2025-11-07 22:49:58.349405462
2025-11-07 22:49:54.991428,0,2025-11-07 22:49:58.357097769
2025-11-07 22:49:54.991428,109,2025-11-07 22:49:58.364790077
2025-11-07 22:49:55.491674,104,2025-11-07 22:49:58.372482385
2025-11-07 22:49:55.491674,24832,2025-11-07 22:49:58.380174692
2025-11-07 22:49:55.491674,0,2025-11-07 22:49:58.387867000
2025-11-07 22:49:55.491674,87,2025-11-07 22:49:58.395559308
2025-11-07 22:49:55.491674,20480,2025-11-07 22:49:58.403251615
2025-11-07 22:49:55.491674,0,2025-11-07 22:49:58.410943923
2025-11-07 22:49:55.491674,76,2025-11-07 22:49:58.418636231
2025-11-07 22:49:55.491674,19456,2025-11-07 22:49:58.426328538
2025-11-07 22:49:55.491674,0,2025-11-07 22:49:58.434020846
2025-11-07 22:49:55.491674,73,2025-11-07 22:49:58.441713154
2025-11-07 22:49:55.491674,17408,2025-11-07 22:49:58.449405462
2025-11-07 22:49:55.491674,0,2025-11-07 22:49:58.457097769
2025-11-07 22:49:55.491674,68,2025-11-07 22:49:58.464790077
2025-11-07 22:49:55.491674,17408,2025-11-07 22:49:58.472482385
2025-11-07 22:49:55.491674,0,2025-11-07 22:49:58.480174692
2025-11-07 22:49:55.491674,66,2025-11-07 22:49:58.487867000
2025-11-07 22:49:55.491674,17408,2025-11-07 22:49:58.495559308
2025-11-07 22:49:55.491674,0,2025-11-07 22:49:58.503251615
2025-11-07 22:49:55.491674,68,2025-11-07 22:49:58.510943923
2025-11-07 22:49:55.491674,17408,2025-11-07 22:49:58.518636230
2025-11-07 22:49:55.491674,0,2025-11-07 22:49:58.526328538
2025-11-07 22:49:55.491674,71,2025-11-07 22:49:58.534020846
2025-11-07 22:49:55.491674,21248,2025-11-07 22:49:58.541713154
2025-11-07 22:49:55.491674,0,2025-11-07 22:49:58.549405462
2025-11-07 22:49:55.491674,92,2025-11-07 22:49:58.557097769
2025-11-07 22:49:55.491674,23552,2025-11-07 22:49:58.564790077
2025-11-07 22:49:55.491674,0,2025-11-07 22:49:58.572482385
2025-11-07 22:49:55.491674,85,2025-11-07 22:49:58.580174692
2025-11-07 22:49:55.491674,21248,2025-11-07 22:49:58.587867000
2025-11-07 22:49:55.491674,0,2025-11-07 22:49:58.595559308
2025-11-07 22:49:55.491674,83,2025-11-07 22:49:58.603251615
2025-11-07 22:49:55.491674,23040,2025-11-07 22:49:58.610943923
2025-11-07 22:49:55.491674,0,2025-11-07 22:49:58.618636231
2025-11-07 22:49:55.491674,97,2025-11-07 22:49:58.626328538
2025-11-07 22:49:55.491674,27136,2025-11-07 22:49:58.634020846
2025-11-07 22:49:55.491674,0,2025-11-07 22:49:58.641713154
2025-11-07 22:49:55.491674,121,2025-11-07 22:49:58.649405462
2025-11-07 22:49:55.491674,-30976,2025-11-07 22:49:58.657097769
2025-11-07 22:49:55.491674,0,2025-11-07 22:49:58.664790077
2025-11-07 22:49:55.491674,130,2025-11-07 22:49:58.672482385
2025-11-07 22:49:55.491674,26624,2025-11-07 22:49:58.680174692
2025-11-07 22:49:55.491674,0,2025-11-07 22:49:58.687867000
2025-11-07 22:49:55.491674,78,2025-11-07 22:49:58.695559308
2025-11-07 22:49:55.491674,16896,2025-11-07 22:49:58.703251615
2025-11-07 22:49:55.491674,0,2025-11-07 22:49:58.710943923
2025-11-07 22:49:55.491674,59,2025-11-07 22:49:58.718636231
2025-11-07 22:49:55.491674,10240,2025-11-07 22:49:58.726328538
2025-11-07 22:49:55.491674,0,2025-11-07 22:49:58.734020846
2025-11-07 22:49:55.491674,33,2025-11-07 22:49:58.741713154
2025-11-07 22:49:55.491674,15104,2025-11-07 22:49:58.749405462
2025-11-07 22:49:55.491674,0,2025-11-07 22:49:58.757097769
2025-11-07 22:49:55.491674,66,2025-11-07 22:49:58.764790077
2025-11-07 22:49:55.491674,13312,2025-11-07 22:49:58.772482385
2025-11-07 22:49:55.491674,0,2025-11-07 22:49:58.780174692
2025-11-07 22:49:55.491674,49,2025-11-07 22:49:58.787867000
2025-11-07 22:49:55.491674,13312,2025-11-07 22:49:58.795559308
2025-11-07 22:49:55.491674,0,2025-11-07 22:49:58.803251615
2025-11-07 22:49:55.491674,47,2025-11-07 22:49:58.810943923
2025-11-07 22:49:55.491674,11520,2025-11-07 22:49:58.818636231
2025-11-07 22:49:55.491674,0,2025-11-07 22:49:58.826328538
2025-11-07 22:49:55.491674,54,2025-11-07 22:49:58.834020846
2025-11-07 22:49:55.491674,23552,2025-11-07 22:49:58.841713154
2025-11-07 22:49:55.491674,0,2025-11-07 22:49:58.849405462
2025-11-07 22:49:55.491674,194,2025-11-07 22:49:58.857097769
2025-11-07 22:49:55.491674,17152,2025-11-07 22:49:58.864790077
2025-11-07 22:49:55.491674,1,2025-11-07 22:49:58.872482385
2025-11-07 22:49:55.491674,254,2025-11-07 22:49:58.880174692
2025-11-07 22:49:55.491674,-31744,2025-11-07 22:49:58.887867000
2025-11-07 22:49:55.491674,-2,2025-11-07 22:49:58.895559308
2025-11-07 22:49:55.491674,-1352,2025-11-07 22:49:58.903251615
2025-11-07 22:49:55.491674,-3073,2025-11-07 22:49:58.910943923
2025-11-07 22:49:55.491674,-7,2025-11-07 22:49:58.918636231
2025-11-07 22:49:55.491674,-791,2025-11-07 22:49:58.926328538
2025-11-07 22:49:55.491674,26879,2025-11-07 22:49:58.934020846
2025-11-07 22:49:55.491674,-1,2025-11-07 22:49:58.941713154
2025-11-07 22:49:55.491674,40,2025-11-07 22:49:58.949405462
2025-11-07 22:49:55.491674,-25600,2025-11-07 22:49:58.957097769
2025-11-07 22:49:55.491674,0,2025-11-07 22:49:58.964790077
2025-11-07 22:49:55.491674,232,2025-11-07 22:49:58.972482385
2025-11-07 22:49:55.491674,-9216,2025-11-07 22:49:58.980174692
2025-11-07 22:49:55.491674,0,2025-11-07 22:49:58.987867000
2025-11-07 22:49:55.491674,213,2025-11-07 22:49:58.995559308
2025-11-07 22:49:55.491674,-7936,2025-11-07 22:49:59.003251615
2025-11-07 22:49:55.491674,0,2025-11-07 22:49:59.010943923
2025-11-07 22:49:55.491674,209,2025-11-07 22:49:59.018636231
2025-11-07 22:49:55.491674,-15872,2025-11-07 22:49:59.026328538
2025-11-07 22:49:55.491674,0,2025-11-07 22:49:59.034020846
2025-11-07 22:49:55.491674,204,2025-11-07 22:49:59.041713154
2025-11-07 22:49:55.491674,-12800,2025-11-07 22:49:59.049405462
2025-11-07 22:49:55.491674,0,2025-11-07 22:49:59.057097769
2025-11-07 22:49:55.491674,194,2025-11-07 22:49:59.064790077
2025-11-07 22:49:55.491674,-16896,2025-11-07 22:49:59.072482385
2025-11-07 22:49:55.491674,0,2025-11-07 22:49:59.080174692
2025-11-07 22:49:55.491674,190,2025-11-07 22:49:59.087867000
2025-11-07 22:49:55.491674,-16896,2025-11-07 22:49:59.095559308
2025-11-07 22:49:55.491674,0,2025-11-07 22:49:59.103251615
2025-11-07 22:49:55.491674,182,2025-11-07 22:49:59.110943923
2025-11-07 22:49:55.491674,-21760,2025-11-07 22:49:59.118636231
2025-11-07 22:49:55.491674,0,2025-11-07 22:49:59.126328538
2025-11-07 22:49:55.491674,156,2025-11-07 22:49:59.134020846
2025-11-07 22:49:55.491674,-29184,2025-11-07 22:49:59.141713154
2025-11-07 22:49:55.491674,0,2025-11-07 22:49:59.149405462
2025-11-07 22:49:55.491674,125,2025-11-07 22:49:59.157097769
2025-11-07 22:49:55.491674,26112,2025-11-07 22:49:59.164790077
2025-11-07 22:49:55.491674,0,2025-11-07 22:49:59.172482385
2025-11-07 22:49:55.491674,85,2025-11-07 22:49:59.180174692
2025-11-07 22:49:55.491674,19968,2025-11-07 22:49:59.187867000
2025-11-07 22:49:55.491674,0,2025-11-07 22:49:59.195559308
2025-11-07 22:49:55.491674,73,2025-11-07 22:49:59.203251615
2025-11-07 22:49:56.091007,73,2025-11-07 22:49:59.210943923
2025-11-07 22:49:56.091007,22272,2025-11-07 22:49:59.218636231
2025-11-07 22:49:56.091007,0,2025-11-07 22:49:59.226328538
2025-11-07 22:49:56.091007,102,2025-11-07 22:49:59.234020846
2025-11-07 22:49:56.091007,28416,2025-11-07 22:49:59.241713154
2025-11-07 22:49:56.091007,0,2025-11-07 22:49:59.249405462
2025-11-07 22:49:56.091007,123,2025-11-07 22:49:59.257097769
2025-11-07 22:49:56.091007,-31488,2025-11-07 22:49:59.264790077
2025-11-07 22:49:56.091007,0,2025-11-07 22:49:59.272482385
2025-11-07 22:49:56.091007,135,2025-11-07 22:49:59.280174692
2025-11-07 22:49:56.091007,-28672,2025-11-07 22:49:59.287867000
2025-11-07 22:49:56.091007,0,2025-11-07 22:49:59.295559308
2025-11-07 22:49:56.091007,152,2025-11-07 22:49:59.303251615
2025-11-07 22:49:56.091007,-28672,2025-11-07 22:49:59.310943923
2025-11-07 22:49:56.091007,0,2025-11-07 22:49:59.318636231
2025-11-07 22:49:56.091007,135,2025-11-07 22:49:59.326328538
2025-11-07 22:49:56.091007,-32256,2025-11-07 22:49:59.334020846
2025-11-07 22:49:56.091007,0,2025-11-07 22:49:59.341713154
2025-11-07 22:49:56.091007,130,2025-11-07 22:49:59.349405462
2025-11-07 22:49:56.091007,-32256,2025-11-07 22:49:59.357097769
2025-11-07 22:49:56.091007,0,2025-11-07 22:49:59.364790077
2025-11-07 22:49:56.091007,128,2025-11-07 22:49:59.372482385
2025-11-07 22:49:56.091007,32000,2025-11-07 22:49:59.380174692
2025-11-07 22:49:56.091007,0,2025-11-07 22:49:59.387867000
2025-11-07 22:49:56.091007,125,2025-11-07 22:49:59.395559308
2025-11-07 22:49:56.091007,30976,2025-11-07 22:49:59.403251615
2025-11-07 22:49:56.091007,0,2025-11-07 22:49:59.410943923
2025-11-07 22:49:56.091007,109,2025-11-07 22:49:59.418636231
2025-11-07 22:49:56.091007,26624,2025-11-07 22:49:59.426328538
2025-11-07 22:49:56.091007,0,2025-11-07 22:49:59.434020846
2025-11-07 22:49:56.091007,102,2025-11-07 22:49:59.441713154
2025-11-07 22:49:56.091007,24320,2025-11-07 22:49:59.449405462
2025-11-07 22:49:56.091007,0,2025-11-07 22:49:59.457097769
2025-11-07 22:49:56.091007,87,2025-11-07 22:49:59.464790077
2025-11-07 22:49:56.091007,21248,2025-11-07 22:49:59.472482385
2025-11-07 22:49:56.091007,0,2025-11-07 22:49:59.480174692
2025-11-07 22:49:56.091007,78,2025-11-07 22:49:59.487867000
2025-11-07 22:49:56.091007,18688,2025-11-07 22:49:59.495559308
2025-11-07 22:49:56.091007,0,2025-11-07 22:49:59.503251615
2025-11-07 22:49:56.091007,71,2025-11-07 22:49:59.510943923
2025-11-07 22:49:56.091007,18688,2025-11-07 22:49:59.518636230
2025-11-07 22:49:56.091007,0,2025-11-07 22:49:59.526328538
2025-11-07 22:49:56.091007,76,2025-11-07 22:49:59.534020846
2025-11-07 22:49:56.091007,19456,2025-11-07 22:49:59.541713154
2025-11-07 22:49:56.091007,0,2025-11-07 22:49:59.549405462
2025-11-07 22:49:56.091007,68,2025-11-07 22:49:59.557097769
2025-11-07 22:49:56.091007,16896,2025-11-07 22:49:59.564790077
2025-11-07 22:49:56.091007,0,2025-11-07 22:49:59.572482385
2025-11-07 22:49:56.091007,68,2025-11-07 22:49:59.580174692
2025-11-07 22:49:56.091007,17408,2025-11-07 22:49:59.587867000
2025-11-07 22:49:56.091007,0,2025-11-07 22:49:59.595559308
2025-11-07 22:49:56.091007,66,2025-11-07 22:49:59.603251615
2025-11-07 22:49:56.091007,15616,2025-11-07 22:49:59.610943923
2025-11-07 22:49:56.091007,0,2025-11-07 22:49:59.618636231
2025-11-07 22:49:56.091007,57,2025-11-07 22:49:59.626328538
2025-11-07 22:49:56.091007,14592,2025-11-07 22:49:59.634020846
2025-11-07 22:49:56.091007,0,2025-11-07 22:49:59.641713154
2025-11-07 22:49:56.091007,59,2025-11-07 22:49:59.649405462
2025-11-07 22:49:56.091007,15104,2025-11-07 22:49:59.657097769
2025-11-07 22:49:56.091007,0,2025-11-07 22:49:59.664790077
2025-11-07 22:49:56.091007,61,2025-11-07 22:49:59.672482385
2025-11-07 22:49:56.091007,15104,2025-11-07 22:49:59.680174692
2025-11-07 22:49:56.091007,0,2025-11-07 22:49:59.687867000
2025-11-07 22:49:56.091007,54,2025-11-07 22:49:59.695559308
2025-11-07 22:49:56.091007,13312,2025-11-07 22:49:59.703251615
2025-11-07 22:49:56.091007,0,2025-11-07 22:49:59.710943923
2025-11-07 22:49:56.091007,54,2025-11-07 22:49:59.718636231
2025-11-07 22:49:56.091007,15616,2025-11-07 22:49:59.726328538
2025-11-07 22:49:56.091007,0,2025-11-07 22:49:59.734020846
2025-11-07 22:49:56.091007,78,2025-11-07 22:49:59.741713154
2025-11-07 22:49:56.091007,23040,2025-11-07 22:49:59.749405462
2025-11-07 22:49:56.091007,0,2025-11-07 22:49:59.757097769
2025-11-07 22:49:56.091007,95,2025-11-07 22:49:59.764790077
2025-11-07 22:49:56.091007,22272,2025-11-07 22:49:59.772482385
2025-11-07 22:49:56.091007,0,2025-11-07 22:49:59.780174692
2025-11-07 22:49:56.091007,68,2025-11-07 22:49:59.787867000
2025-11-07 22:49:56.091007,12544,2025-11-07 22:49:59.795559308
2025-11-07 22:49:56.091007,0,2025-11-07 22:49:59.803251615
2025-11-07 22:49:56.091007,40,2025-11-07 22:49:59.810943923
2025-11-07 22:49:56.091007,7680,2025-11-07 22:49:59.818636231
2025-11-07 22:49:56.091007,0,2025-11-07 22:49:59.826328538
2025-11-07 22:49:56.091007,16,2025-11-07 22:49:59.834020846
2025-11-07 22:49:56.091007,4864,2025-11-07 22:49:59.841713154
2025-11-07 22:49:56.091007,0,2025-11-07 22:49:59.849405462
2025-11-07 22:49:56.091007,33,2025-11-07 22:49:59.857097769
2025-11-07 22:49:56.091007,8960,2025-11-07 22:49:59.864790077
2025-11-07 22:49:56.091007,0,2025-11-07 22:49:59.872482385
2025-11-07 22:49:56.091007,28,2025-11-07 22:49:59.880174692
2025-11-07 22:49:56.091007,8448,2025-11-07 22:49:59.887867000
2025-11-07 22:49:56.091007,0,2025-11-07 22:49:59.895559308
2025-11-07 22:49:56.091007,35,2025-11-07 22:49:59.903251615
2025-11-07 22:49:56.091007,7680,2025-11-07 22:49:59.910943923
2025-11-07 22:49:56.091007,0,2025-11-07 22:49:59.918636231
2025-11-07 22:49:56.091007,33,2025-11-07 22:49:59.926328538
2025-11-07 22:49:56.091007,10752,2025-11-07 22:49:59.934020846
2025-11-07 22:49:56.091007,0,2025-11-07 22:49:59.941713154
2025-11-07 22:49:56.091007,64,2025-11-07 22:49:59.949405462
2025-11-07 22:49:56.091007,-28672,2025-11-07 22:49:59.957097769
2025-11-07 22:49:56.091007,0,2025-11-07 22:49:59.964790077
2025-11-07 22:49:56.091007,275,2025-11-07 22:49:59.972482385
2025-11-07 22:49:56.091007,10496,2025-11-07 22:49:59.980174692
2025-11-07 22:49:56.091007,1,2025-11-07 22:49:59.987867000
2025-11-07 22:49:56.091007,-109,2025-11-07 22:49:59.995559308
2025-11-07 22:49:56.091007,2815,2025-11-07 22:50:00.003251615
2025-11-07 22:49:56.091007,-4,2025-11-07 22:50:00.010943923
2025-11-07 22:49:56.091007,-1525,2025-11-07 22:50:00.018636231
2025-11-07 22:49:56.091007,6399,2025-11-07 22:50:00.026328538
2025-11-07 22:49:56.091007,-4,2025-11-07 22:50:00.034020846
2025-11-07 22:49:56.091007,-275,2025-11-07 22:50:00.041713154
2025-11-07 22:49:56.641097,-7,2025-11-07 22:50:00.049405462
2025-11-07 22:49:56.641097,29439,2025-11-07 22:50:00.057097769
2025-11-07 22:49:56.641097,0,2025-11-07 22:50:00.064790077
2025-11-07 22:49:56.641097,220,2025-11-07 22:50:00.072482385
2025-11-07 22:49:56.641097,-7936,2025-11-07 22:50:00.080174692
2025-11-07 22:49:56.641097,0,2025-11-07 22:50:00.087867000
2025-11-07 22:49:56.641097,211,2025-11-07 22:50:00.095559308
2025-11-07 22:49:56.641097,-8448,2025-11-07 22:50:00.103251615
2025-11-07 22:49:56.641097,0,2025-11-07 22:50:00.110943923
2025-11-07 22:49:56.641097,220,2025-11-07 22:50:00.118636231
2025-11-07 22:49:56.641097,-12032,2025-11-07 22:50:00.126328538
2025-11-07 22:49:56.641097,0,2025-11-07 22:50:00.134020846
2025-11-07 22:49:56.641097,206,2025-11-07 22:50:00.141713154
2025-11-07 22:49:56.641097,-14080,2025-11-07 22:50:00.149405462
2025-11-07 22:49:56.641097,0,2025-11-07 22:50:00.157097769
2025-11-07 22:49:56.641097,190,2025-11-07 22:50:00.164790077
2025-11-07 22:49:56.641097,-16896,2025-11-07 22:50:00.172482385
2025-11-07 22:49:56.641097,0,2025-11-07 22:50:00.180174692
2025-11-07 22:49:56.641097,201,2025-11-07 22:50:00.187867000
2025-11-07 22:49:56.641097,-12800,2025-11-07 22:50:00.195559308
2025-11-07 22:49:56.641097,0,2025-11-07 22:50:00.203251615
2025-11-07 22:49:56.641097,194,2025-11-07 22:50:00.210943923
2025-11-07 22:49:56.641097,-18176,2025-11-07 22:50:00.218636231
2025-11-07 22:49:56.641097,0,2025-11-07 22:50:00.226328538
2025-11-07 22:49:56.641097,173,2025-11-07 22:50:00.234020846
2025-11-07 22:49:56.641097,-26112,2025-11-07 22:50:00.241713154
2025-11-07 22:49:56.641097,0,2025-11-07 22:50:00.249405462
2025-11-07 22:49:56.641097,130,2025-11-07 22:50:00.257097769
2025-11-07 22:49:56.641097,27136,2025-11-07 22:50:00.264790077
2025-11-07 22:49:56.641097,0,2025-11-07 22:50:00.272482385
2025-11-07 22:49:56.641097,87,2025-11-07 22:50:00.280174692
2025-11-07 22:49:56.641097,18176,2025-11-07 22:50:00.287867000
2025-11-07 22:49:56.641097,0,2025-11-07 22:50:00.295559308
2025-11-07 22:49:56.641097,64,2025-11-07 22:50:00.303251615
2025-11-07 22:49:56.641097,15616,2025-11-07 22:50:00.310943923
2025-11-07 22:49:56.641097,0,2025-11-07 22:50:00.318636231
2025-11-07 22:49:56.641097,66,2025-11-07 22:50:00.326328538
2025-11-07 22:49:56.641097,20480,2025-11-07 22:50:00.334020846
2025-11-07 22:49:56.641097,0,2025-11-07 22:50:00.341713154
2025-11-07 22:49:56.641097,97,2025-11-07 22:50:00.349405462
2025-11-07 22:49:56.641097,27904,2025-11-07 22:50:00.357097769
2025-11-07 22:49:56.641097,0,2025-11-07 22:50:00.364790077
2025-11-07 22:49:56.641097,114,2025-11-07 22:50:00.372482385
2025-11-07 22:49:56.641097,30208,2025-11-07 22:50:00.380174692
2025-11-07 22:49:56.641097,0,2025-11-07 22:50:00.387867000
2025-11-07 22:49:56.641097,125,2025-11-07 22:50:00.395559308
2025-11-07 22:49:56.641097,32000,2025-11-07 22:50:00.403251615
2025-11-07 22:49:56.641097,0,2025-11-07 22:50:00.410943923
2025-11-07 22:49:56.641097,121,2025-11-07 22:50:00.418636231
2025-11-07 22:49:56.641097,29696,2025-11-07 22:50:00.426328538
2025-11-07 22:49:56.641097,0,2025-11-07 22:50:00.434020846
2025-11-07 22:49:56.641097,106,2025-11-07 22:50:00.441713154
2025-11-07 22:49:56.641097,26112,2025-11-07 22:50:00.449405462
2025-11-07 22:49:56.641097,0,2025-11-07 22:50:00.457097769
2025-11-07 22:49:56.641097,99,2025-11-07 22:50:00.464790077
2025-11-07 22:49:56.641097,24320,2025-11-07 22:50:00.472482385
2025-11-07 22:49:56.641097,0,2025-11-07 22:50:00.480174692
2025-11-07 22:49:56.641097,92,2025-11-07 22:50:00.487867000
2025-11-07 22:49:56.641097,24320,2025-11-07 22:50:00.495559308
2025-11-07 22:49:56.641097,0,2025-11-07 22:50:00.503251615
2025-11-07 22:49:56.641097,92,2025-11-07 22:50:00.510943923
2025-11-07 22:49:56.641097,21760,2025-11-07 22:50:00.518636230
2025-11-07 22:49:56.641097,0,2025-11-07 22:50:00.526328538
2025-11-07 22:49:56.641097,78,2025-11-07 22:50:00.534020846
2025-11-07 22:49:56.641097,18688,2025-11-07 22:50:00.541713154
2025-11-07 22:49:56.641097,0,2025-11-07 22:50:00.549405462
2025-11-07 22:49:56.641097,73,2025-11-07 22:50:00.557097769
2025-11-07 22:49:56.641097,18688,2025-11-07 22:50:00.564790077
2025-11-07 22:49:56.641097,0,2025-11-07 22:50:00.572482385
2025-11-07 22:49:56.641097,64,2025-11-07 22:50:00.580174692
2025-11-07 22:49:56.641097,14592,2025-11-07 22:50:00.587867000
2025-11-07 22:49:56.641097,0,2025-11-07 22:50:00.595559308
2025-11-07 22:49:56.641097,57,2025-11-07 22:50:00.603251615
2025-11-07 22:49:56.641097,14592,2025-11-07 22:50:00.610943923
2025-11-07 22:49:56.641097,0,2025-11-07 22:50:00.618636231
2025-11-07 22:49:56.641097,54,2025-11-07 22:50:00.626328538
2025-11-07 22:49:56.641097,13824,2025-11-07 22:50:00.634020846
2025-11-07 22:49:56.641097,0,2025-11-07 22:50:00.641713154
2025-11-07 22:49:56.641097,54,2025-11-07 22:50:00.649405462
2025-11-07 22:49:56.641097,13312,2025-11-07 22:50:00.657097769
2025-11-07 22:49:56.641097,0,2025-11-07 22:50:00.664790077
2025-11-07 22:49:56.641097,49,2025-11-07 22:50:00.672482385
2025-11-07 22:49:56.641097,12032,2025-11-07 22:50:00.680174692
2025-11-07 22:49:56.641097,0,2025-11-07 22:50:00.687867000
2025-11-07 22:49:56.641097,47,2025-11-07 22:50:00.695559308
2025-11-07 22:49:56.641097,12544,2025-11-07 22:50:00.703251615
2025-11-07 22:49:56.641097,0,2025-11-07 22:50:00.710943923
2025-11-07 22:49:56.641097,49,2025-11-07 22:50:00.718636231
2025-11-07 22:49:56.641097,13312,2025-11-07 22:50:00.726328538
2025-11-07 22:49:56.641097,0,2025-11-07 22:50:00.734020846
2025-11-07 22:49:56.641097,57,2025-11-07 22:50:00.741713154
2025-11-07 22:49:56.641097,13824,2025-11-07 22:50:00.749405462
2025-11-07 22:49:56.641097,0,2025-11-07 22:50:00.757097769
2025-11-07 22:49:56.641097,49,2025-11-07 22:50:00.764790077
2025-11-07 22:49:56.641097,13312,2025-11-07 22:50:00.772482385
2025-11-07 22:49:56.641097,0,2025-11-07 22:50:00.780174692
2025-11-07 22:49:56.641097,52,2025-11-07 22:50:00.787867000
2025-11-07 22:49:56.641097,12544,2025-11-07 22:50:00.795559308
2025-11-07 22:49:56.641097,0,2025-11-07 22:50:00.803251615
2025-11-07 22:49:56.641097,49,2025-11-07 22:50:00.810943923
2025-11-07 22:49:56.641097,13312,2025-11-07 22:50:00.818636231
2025-11-07 22:49:56.641097,0,2025-11-07 22:50:00.826328538
2025-11-07 22:49:56.641097,52,2025-11-07 22:50:00.834020846
2025-11-07 22:49:56.641097,12544,2025-11-07 22:50:00.841713154
2025-11-07 22:49:56.641097,0,2025-11-07 22:50:00.849405462
2025-11-07 22:49:56.641097,59,2025-11-07 22:50:00.857097769
2025-11-07 22:49:56.641097,19968,2025-11-07 22:50:00.864790077
2025-11-07 22:49:56.641097,0,2025-11-07 22:50:00.872482385
2025-11-07 22:49:56.641097,87,2025-11-07 22:50:00.880174692
2025-11-07 22:49:57.191127,97,2025-11-07 22:50:00.887867000
2025-11-07 22:49:57.191127,24832,2025-11-07 22:50:00.895559308
2025-11-07 22:49:57.191127,0,2025-11-07 22:50:00.903251615
2025-11-07 22:49:57.191127,78,2025-11-07 22:50:00.910943923
2025-11-07 22:49:57.191127,12544,2025-11-07 22:50:00.918636231
2025-11-07 22:49:57.191127,0,2025-11-07 22:50:00.926328538
2025-11-07 22:49:57.191127,38,2025-11-07 22:50:00.934020846
2025-11-07 22:49:57.191127,8448,2025-11-07 22:50:00.941713154
2025-11-07 22:49:57.191127,0,2025-11-07 22:50:00.949405462
2025-11-07 22:49:57.191127,19,2025-11-07 22:50:00.957097769
2025-11-07 22:49:57.191127,2816,2025-11-07 22:50:00.964790077
2025-11-07 22:49:57.191127,0,2025-11-07 22:50:00.972482385
2025-11-07 22:49:57.191127,28,2025-11-07 22:50:00.980174692
2025-11-07 22:49:57.191127,11520,2025-11-07 22:50:00.987867000
2025-11-07 22:49:57.191127,0,2025-11-07 22:50:00.995559308
2025-11-07 22:49:57.191127,40,2025-11-07 22:50:01.003251615
2025-11-07 22:49:57.191127,12032,2025-11-07 22:50:01.010943923
2025-11-07 22:49:57.191127,0,2025-11-07 22:50:01.018636231
2025-11-07 22:49:57.191127,57,2025-11-07 22:50:01.026328538
2025-11-07 22:49:57.191127,12032,2025-11-07 22:50:01.034020846
2025-11-07 22:49:57.191127,0,2025-11-07 22:50:01.041713154
2025-11-07 22:49:57.191127,42,2025-11-07 22:50:01.049405462
2025-11-07 22:49:57.191127,12544,2025-11-07 22:50:01.057097769
2025-11-07 22:49:57.191127,0,2025-11-07 22:50:01.064790077
2025-11-07 22:49:57.191127,57,2025-11-07 22:50:01.072482385
2025-11-07 22:49:57.191127,26112,2025-11-07 22:50:01.080174692
2025-11-07 22:49:57.191127,0,2025-11-07 22:50:01.087867000
2025-11-07 22:49:57.191127,216,2025-11-07 22:50:01.095559308
2025-11-07 22:49:57.191127,14080,2025-11-07 22:50:01.103251615
2025-11-07 22:49:57.191127,1,2025-11-07 22:50:01.110943923
2025-11-07 22:49:57.191127,178,2025-11-07 22:50:01.118636231
2025-11-07 22:49:57.191127,8960,2025-11-07 22:50:01.126328538
2025-11-07 22:49:57.191127,-2,2025-11-07 22:50:01.134020846
2025-11-07 22:49:57.191127,-1309,2025-11-07 22:50:01.141713154
2025-11-07 22:49:57.191127,-6401,2025-11-07 22:50:01.149405462
2025-11-07 22:49:57.191127,-6,2025-11-07 22:50:01.157097769
2025-11-07 22:49:57.191127,-584,2025-11-07 22:50:01.164790077
2025-11-07 22:49:57.191127,-27649,2025-11-07 22:50:01.172482385
2025-11-07 22:49:57.191127,-1,2025-11-07 22:50:01.180174692
2025-11-07 22:49:57.191127,38,2025-11-07 22:50:01.187867000
2025-11-07 22:49:57.191127,-24320,2025-11-07 22:50:01.195559308
2025-11-07 22:49:57.191127,0,2025-11-07 22:50:01.203251615
2025-11-07 22:49:57.191127,216,2025-11-07 22:50:01.210943923
2025-11-07 22:49:57.191127,-15872,2025-11-07 22:50:01.218636231
2025-11-07 22:49:57.191127,0,2025-11-07 22:50:01.226328538
2025-11-07 22:49:57.191127,197,2025-11-07 22:50:01.234020846
2025-11-07 22:49:57.191127,-12800,2025-11-07 22:50:01.241713154
2025-11-07 22:49:57.191127,0,2025-11-07 22:50:01.249405462
2025-11-07 22:49:57.191127,194,2025-11-07 22:50:01.257097769
2025-11-07 22:49:57.191127,-19968,2025-11-07 22:50:01.264790077
2025-11-07 22:49:57.191127,0,2025-11-07 22:50:01.272482385
2025-11-07 22:49:57.191127,173,2025-11-07 22:50:01.280174692
2025-11-07 22:49:57.191127,-21760,2025-11-07 22:50:01.287867000
2025-11-07 22:49:57.191127,0,2025-11-07 22:50:01.295559308
2025-11-07 22:49:57.191127,168,2025-11-07 22:50:01.303251615
2025-11-07 22:49:57.191127,-22528,2025-11-07 22:50:01.310943923
2025-11-07 22:49:57.191127,0,2025-11-07 22:50:01.318636231
2025-11-07 22:49:57.191127,159,2025-11-07 22:50:01.326328538
2025-11-07 22:49:57.191127,-27904,2025-11-07 22:50:01.334020846
2025-11-07 22:49:57.191127,0,2025-11-07 22:50:01.341713154
2025-11-07 22:49:57.191127,142,2025-11-07 22:50:01.349405462
2025-11-07 22:49:57.191127,-30976,2025-11-07 22:50:01.357097769
2025-11-07 22:49:57.191127,0,2025-11-07 22:50:01.364790077
2025-11-07 22:49:57.191127,114,2025-11-07 22:50:01.372482385
2025-11-07 22:49:57.191127,24832,2025-11-07 22:50:01.380174692
2025-11-07 22:49:57.191127,0,2025-11-07 22:50:01.387867000
2025-11-07 22:49:57.191127,78,2025-11-07 22:50:01.395559308
2025-11-07 22:49:57.191127,13312,2025-11-07 22:50:01.403251615
2025-11-07 22:49:57.191127,0,2025-11-07 22:50:01.410943923
2025-11-07 22:49:57.191127,33,2025-11-07 22:50:01.418636231
2025-11-07 22:49:57.191127,7168,2025-11-07 22:50:01.426328538
2025-11-07 22:49:57.191127,0,2025-11-07 22:50:01.434020846
2025-11-07 22:49:57.191127,26,2025-11-07 22:50:01.441713154
2025-11-07 22:49:57.191127,7680,2025-11-07 22:50:01.449405462
2025-11-07 22:49:57.191127,0,2025-11-07 22:50:01.457097769
2025-11-07 22:49:57.191127,40,2025-11-07 22:50:01.464790077
2025-11-07 22:49:57.191127,13824,2025-11-07 22:50:01.472482385
2025-11-07 22:49:57.191127,0,2025-11-07 22:50:01.480174692
2025-11-07 22:49:57.191127,76,2025-11-07 22:50:01.487867000
2025-11-07 22:49:57.191127,24320,2025-11-07 22:50:01.495559308
2025-11-07 22:49:57.191127,0,2025-11-07 22:50:01.503251615
2025-11-07 22:49:57.191127,102,2025-11-07 22:50:01.510943923
2025-11-07 22:49:57.191127,27136,2025-11-07 22:50:01.518636230
2025-11-07 22:49:57.191127,0,2025-11-07 22:50:01.526328538
2025-11-07 22:49:57.191127,118,2025-11-07 22:50:01.534020846
2025-11-07 22:49:57.191127,32000,2025-11-07 22:50:01.541713154
2025-11-07 22:49:57.191127,0,2025-11-07 22:50:01.549405462
2025-11-07 22:49:57.191127,118,2025-11-07 22:50:01.557097769
2025-11-07 22:49:57.191127,27904,2025-11-07 22:50:01.564790077
2025-11-07 22:49:57.191127,0,2025-11-07 22:50:01.572482385
2025-11-07 22:49:57.191127,109,2025-11-07 22:50:01.580174692
2025-11-07 22:49:57.191127,26624,2025-11-07 22:50:01.587867000
2025-11-07 22:49:57.191127,0,2025-11-07 22:50:01.595559308
2025-11-07 22:49:57.191127,102,2025-11-07 22:50:01.603251615
2025-11-07 22:49:57.191127,26112,2025-11-07 22:50:01.610943923
2025-11-07 22:49:57.191127,0,2025-11-07 22:50:01.618636231
2025-11-07 22:49:57.191127,102,2025-11-07 22:50:01.626328538
2025-11-07 22:49:57.191127,24320,2025-11-07 22:50:01.634020846
2025-11-07 22:49:57.191127,0,2025-11-07 22:50:01.641713154
2025-11-07 22:49:57.191127,87,2025-11-07 22:50:01.649405462
2025-11-07 22:49:57.191127,20480,2025-11-07 22:50:01.657097769
2025-11-07 22:49:57.191127,0,2025-11-07 22:50:01.664790077
2025-11-07 22:49:57.191127,80,2025-11-07 22:50:01.672482385
2025-11-07 22:49:57.191127,19968,2025-11-07 22:50:01.680174692
2025-11-07 22:49:57.191127,0,2025-11-07 22:50:01.687867000
2025-11-07 22:49:57.191127,71,2025-11-07 22:50:01.695559308
2025-11-07 22:49:57.191127,16896,2025-11-07 22:50:01.703251615
2025-11-07 22:49:57.191127,0,2025-11-07 22:50:01.710943923
2025-11-07 22:49:57.191127,61,2025-11-07 22:50:01.718636231
2025-11-07 22:49:57.740718,59,2025-11-07 22:50:01.726328538
2025-11-07 22:49:57.740718,14592,2025-11-07 22:50:01.734020846
2025-11-07 22:49:57.740718,0,2025-11-07 22:50:01.741713154
2025-11-07 22:49:57.740718,54,2025-11-07 22:50:01.749405462
2025-11-07 22:49:57.740718,14592,2025-11-07 22:50:01.757097769
2025-11-07 22:49:57.740718,0,2025-11-07 22:50:01.764790077
2025-11-07 22:49:57.740718,54,2025-11-07 22:50:01.772482385
2025-11-07 22:49:57.740718,13312,2025-11-07 22:50:01.780174692
2025-11-07 22:49:57.740718,0,2025-11-07 22:50:01.787867000
2025-11-07 22:49:57.740718,54,2025-11-07 22:50:01.795559308
2025-11-07 22:49:57.740718,13824,2025-11-07 22:50:01.803251615
2025-11-07 22:49:57.740718,0,2025-11-07 22:50:01.810943923
2025-11-07 22:49:57.740718,49,2025-11-07 22:50:01.818636231
2025-11-07 22:49:57.740718,15104,2025-11-07 22:50:01.826328538
2025-11-07 22:49:57.740718,0,2025-11-07 22:50:01.834020846
2025-11-07 22:49:57.740718,73,2025-11-07 22:50:01.841713154
2025-11-07 22:49:57.740718,18688,2025-11-07 22:50:01.849405462
2025-11-07 22:49:57.740718,0,2025-11-07 22:50:01.857097769
2025-11-07 22:49:57.740718,66,2025-11-07 22:50:01.864790077
2025-11-07 22:49:57.740718,16896,2025-11-07 22:50:01.872482385
2025-11-07 22:49:57.740718,0,2025-11-07 22:50:01.880174692
2025-11-07 22:49:57.740718,66,2025-11-07 22:50:01.887867000
2025-11-07 22:49:57.740718,15616,2025-11-07 22:50:01.895559308
2025-11-07 22:49:57.740718,0,2025-11-07 22:50:01.903251615
2025-11-07 22:49:57.740718,64,2025-11-07 22:50:01.910943923
2025-11-07 22:49:57.740718,16384,2025-11-07 22:50:01.918636231
2025-11-07 22:49:57.740718,0,2025-11-07 22:50:01.926328538
2025-11-07 22:49:57.740718,57,2025-11-07 22:50:01.934020846
2025-11-07 22:49:57.740718,14592,2025-11-07 22:50:01.941713154
2025-11-07 22:49:57.740718,0,2025-11-07 22:50:01.949405462
2025-11-07 22:49:57.740718,59,2025-11-07 22:50:01.957097769
2025-11-07 22:49:57.740718,17408,2025-11-07 22:50:01.964790077
2025-11-07 22:49:57.740718,0,2025-11-07 22:50:01.972482385
2025-11-07 22:49:57.740718,87,2025-11-07 22:50:01.980174692
2025-11-07 22:49:57.740718,25344,2025-11-07 22:50:01.987867000
2025-11-07 22:49:57.740718,0,2025-11-07 22:50:01.995559308
2025-11-07 22:49:57.740718,97,2025-11-07 22:50:02.003251615
2025-11-07 22:49:57.740718,21248,2025-11-07 22:50:02.010943923
2025-11-07 22:49:57.740718,0,2025-11-07 22:50:02.018636231
2025-11-07 22:49:57.740718,59,2025-11-07 22:50:02.026328538
2025-11-07 22:49:57.740718,9728,2025-11-07 22:50:02.034020846
2025-11-07 22:49:57.740718,0,2025-11-07 22:50:02.041713154
2025-11-07 22:49:57.740718,33,2025-11-07 22:50:02.049405462
2025-11-07 22:49:57.740718,6656,2025-11-07 22:50:02.057097769
2025-11-07 22:49:57.740718,0,2025-11-07 22:50:02.064790077
2025-11-07 22:49:57.740718,11,2025-11-07 22:50:02.072482385
2025-11-07 22:49:57.740718,5376,2025-11-07 22:50:02.080174692
2025-11-07 22:49:57.740718,0,2025-11-07 22:50:02.087867000
2025-11-07 22:49:57.740718,42,2025-11-07 22:50:02.095559308
2025-11-07 22:49:57.740718,9728,2025-11-07 22:50:02.103251615
2025-11-07 22:49:57.740718,0,2025-11-07 22:50:02.110943923
2025-11-07 22:49:57.740718,21,2025-11-07 22:50:02.118636231
2025-11-07 22:49:57.740718,6656,2025-11-07 22:50:02.126328538
2025-11-07 22:49:57.740718,0,2025-11-07 22:50:02.134020846
2025-11-07 22:49:57.740718,33,2025-11-07 22:50:02.141713154
2025-11-07 22:49:57.740718,7168,2025-11-07 22:50:02.149405462
2025-11-07 22:49:57.740718,0,2025-11-07 22:50:02.157097769
2025-11-07 22:49:57.740718,28,2025-11-07 22:50:02.164790077
2025-11-07 22:49:57.740718,10240,2025-11-07 22:50:02.172482385
2025-11-07 22:49:57.740718,0,2025-11-07 22:50:02.180174692
2025-11-07 22:49:57.740718,97,2025-11-07 22:50:02.187867000
2025-11-07 22:49:57.740718,-11520,2025-11-07 22:50:02.195559308
2025-11-07 22:49:57.740718,0,2025-11-07 22:50:02.203251615
2025-11-07 22:49:57.740718,294,2025-11-07 22:50:02.210943923
2025-11-07 22:49:57.740718,31488,2025-11-07 22:50:02.218636231
2025-11-07 22:49:57.740718,0,2025-11-07 22:50:02.226328538
2025-11-07 22:49:57.740718,-553,2025-11-07 22:50:02.234020846
2025-11-07 22:49:57.740718,-5377,2025-11-07 22:50:02.241713154
2025-11-07 22:49:57.740718,-6,2025-11-07 22:50:02.249405462
2025-11-07 22:49:57.740718,-1190,2025-11-07 22:50:02.257097769
2025-11-07 22:49:57.740718,4351,2025-11-07 22:50:02.264790077
2025-11-07 22:49:57.740718,-2,2025-11-07 22:50:02.272482385
2025-11-07 22:49:57.740718,-109,2025-11-07 22:50:02.280174692
2025-11-07 22:49:57.740718,6911,2025-11-07 22:50:02.287867000
2025-11-07 22:49:57.740718,0,2025-11-07 22:50:02.295559308
2025-11-07 22:49:57.740718,161,2025-11-07 22:50:02.303251615
2025-11-07 22:49:57.740718,-12800,2025-11-07 22:50:02.310943923
2025-11-07 22:49:57.740718,0,2025-11-07 22:50:02.318636231
2025-11-07 22:49:57.740718,182,2025-11-07 22:50:02.326328538
2025-11-07 22:49:57.740718,-17664,2025-11-07 22:50:02.334020846
2025-11-07 22:49:57.740718,0,2025-11-07 22:50:02.341713154
2025-11-07 22:49:57.740718,199,2025-11-07 22:50:02.349405462
2025-11-07 22:49:57.740718,-17664,2025-11-07 22:50:02.357097769
2025-11-07 22:49:57.740718,0,2025-11-07 22:50:02.364790077
2025-11-07 22:49:57.740718,180,2025-11-07 22:50:02.372482385
2025-11-07 22:49:57.740718,-19968,2025-11-07 22:50:02.380174692
2025-11-07 22:49:57.740718,0,2025-11-07 22:50:02.387867000
2025-11-07 22:49:57.740718,168,2025-11-07 22:50:02.395559308
2025-11-07 22:49:57.740718,-25600,2025-11-07 22:50:02.403251615
2025-11-07 22:49:57.740718,0,2025-11-07 22:50:02.410943923
2025-11-07 22:49:57.740718,156,2025-11-07 22:50:02.418636231
2025-11-07 22:49:57.740718,-25600,2025-11-07 22:50:02.426328538
2025-11-07 22:49:57.740718,0,2025-11-07 22:50:02.434020846
2025-11-07 22:49:57.740718,144,2025-11-07 22:50:02.441713154
2025-11-07 22:49:57.740718,-32256,2025-11-07 22:50:02.449405462
2025-11-07 22:49:57.740718,0,2025-11-07 22:50:02.457097769
2025-11-07 22:49:57.740718,121,2025-11-07 22:50:02.464790077
2025-11-07 22:49:57.740718,26624,2025-11-07 22:50:02.472482385
2025-11-07 22:49:57.740718,0,2025-11-07 22:50:02.480174692
2025-11-07 22:49:57.740718,80,2025-11-07 22:50:02.487867000
2025-11-07 22:49:57.740718,14592,2025-11-07 22:50:02.495559308
2025-11-07 22:49:57.740718,0,2025-11-07 22:50:02.503251615
2025-11-07 22:49:57.740718,35,2025-11-07 22:50:02.510943923
2025-11-07 22:49:57.740718,5376,2025-11-07 22:50:02.518636230
2025-11-07 22:49:57.740718,0,2025-11-07 22:50:02.526328538
2025-11-07 22:49:57.740718,14,2025-11-07 22:50:02.534020846
2025-11-07 22:49:57.740718,2304,2025-11-07 22:50:02.541713154
2025-11-07 22:49:57.740718,0,2025-11-07 22:50:02.549405462
2025-11-07 22:49:57.740718,9,2025-11-07 22:50:02.557097769
2025-11-07 22:49:58.291190,23,2025-11-07 22:50:02.564790077
2025-11-07 22:49:58.291190,13312,2025-11-07 22:50:02.572482385
2025-11-07 22:49:58.291190,0,2025-11-07 22:50:02.580174692
2025-11-07 22:49:58.291190,73,2025-11-07 22:50:02.587867000
2025-11-07 22:49:58.291190,21248,2025-11-07 22:50:02.595559308
2025-11-07 22:49:58.291190,0,2025-11-07 22:50:02.603251615
2025-11-07 22:49:58.291190,92,2025-11-07 22:50:02.610943923
2025-11-07 22:49:58.291190,26624,2025-11-07 22:50:02.618636231
2025-11-07 22:49:58.291190,0,2025-11-07 22:50:02.626328538
2025-11-07 22:49:58.291190,114,2025-11-07 22:50:02.634020846
2025-11-07 22:49:58.291190,30208,2025-11-07 22:50:02.641713154
2025-11-07 22:49:58.291190,0,2025-11-07 22:50:02.649405462
2025-11-07 22:49:58.291190,130,2025-11-07 22:50:02.657097769
2025-11-07 22:49:58.291190,-30464,2025-11-07 22:50:02.664790077
2025-11-07 22:49:58.291190,0,2025-11-07 22:50:02.672482385
2025-11-07 22:49:58.291190,130,2025-11-07 22:50:02.680174692
2025-11-07 22:49:58.291190,30976,2025-11-07 22:50:02.687867000
2025-11-07 22:49:58.291190,0,2025-11-07 22:50:02.695559308
2025-11-07 22:49:58.291190,116,2025-11-07 22:50:02.703251615
2025-11-07 22:49:58.291190,29184,2025-11-07 22:50:02.710943923
2025-11-07 22:49:58.291190,0,2025-11-07 22:50:02.718636231
2025-11-07 22:49:58.291190,114,2025-11-07 22:50:02.726328538
2025-11-07 22:49:58.291190,27904,2025-11-07 22:50:02.734020846
2025-11-07 22:49:58.291190,0,2025-11-07 22:50:02.741713154
2025-11-07 22:49:58.291190,99,2025-11-07 22:50:02.749405462
2025-11-07 22:49:58.291190,22272,2025-11-07 22:50:02.757097769
2025-11-07 22:49:58.291190,0,2025-11-07 22:50:02.764790077
2025-11-07 22:49:58.291190,80,2025-11-07 22:50:02.772482385
2025-11-07 22:49:58.291190,18688,2025-11-07 22:50:02.780174692
2025-11-07 22:49:58.291190,0,2025-11-07 22:50:02.787867000
2025-11-07 22:49:58.291190,68,2025-11-07 22:50:02.795559308
2025-11-07 22:49:58.291190,18176,2025-11-07 22:50:02.803251615
2025-11-07 22:49:58.291190,0,2025-11-07 22:50:02.810943923
2025-11-07 22:49:58.291190,66,2025-11-07 22:50:02.818636231
2025-11-07 22:49:58.291190,15104,2025-11-07 22:50:02.826328538
2025-11-07 22:49:58.291190,0,2025-11-07 22:50:02.834020846
2025-11-07 22:49:58.291190,57,2025-11-07 22:50:02.841713154
2025-11-07 22:49:58.291190,13312,2025-11-07 22:50:02.849405462
2025-11-07 22:49:58.291190,0,2025-11-07 22:50:02.857097769
2025-11-07 22:49:58.291190,54,2025-11-07 22:50:02.864790077
2025-11-07 22:49:58.291190,15104,2025-11-07 22:50:02.872482385
2025-11-07 22:49:58.291190,0,2025-11-07 22:50:02.880174692
2025-11-07 22:49:58.291190,54,2025-11-07 22:50:02.887867000
2025-11-07 22:49:58.291190,12032,2025-11-07 22:50:02.895559308
2025-11-07 22:49:58.291190,0,2025-11-07 22:50:02.903251615
2025-11-07 22:49:58.291190,45,2025-11-07 22:50:02.910943923
2025-11-07 22:49:58.291190,12544,2025-11-07 22:50:02.918636231
2025-11-07 22:49:58.291190,0,2025-11-07 22:50:02.926328538
2025-11-07 22:49:58.291190,52,2025-11-07 22:50:02.934020846
2025-11-07 22:49:58.291190,13312,2025-11-07 22:50:02.941713154
2025-11-07 22:49:58.291190,0,2025-11-07 22:50:02.949405462
2025-11-07 22:49:58.291190,49,2025-11-07 22:50:02.957097769
2025-11-07 22:49:58.291190,11520,2025-11-07 22:50:02.964790077
2025-11-07 22:49:58.291190,0,2025-11-07 22:50:02.972482385
2025-11-07 22:49:58.291190,40,2025-11-07 22:50:02.980174692
2025-11-07 22:49:58.291190,10752,2025-11-07 22:50:02.987867000
2025-11-07 22:49:58.291190,0,2025-11-07 22:50:02.995559308
2025-11-07 22:49:58.291190,45,2025-11-07 22:50:03.003251615
2025-11-07 22:49:58.291190,11520,2025-11-07 22:50:03.010943923
2025-11-07 22:49:58.291190,0,2025-11-07 22:50:03.018636231
2025-11-07 22:49:58.291190,47,2025-11-07 22:50:03.026328538
2025-11-07 22:49:58.291190,15616,2025-11-07 22:50:03.034020846
2025-11-07 22:49:58.291190,0,2025-11-07 22:50:03.041713154
2025-11-07 22:49:58.291190,73,2025-11-07 22:50:03.049405462
2025-11-07 22:49:58.291190,21248,2025-11-07 22:50:03.057097769
2025-11-07 22:49:58.291190,0,2025-11-07 22:50:03.064790077
2025-11-07 22:49:58.291190,80,2025-11-07 22:50:03.072482385
2025-11-07 22:49:58.291190,15616,2025-11-07 22:50:03.080174692
2025-11-07 22:49:58.291190,0,2025-11-07 22:50:03.087867000
2025-11-07 22:49:58.291190,38,2025-11-07 22:50:03.095559308
2025-11-07 22:49:58.291190,8448,2025-11-07 22:50:03.103251615
2025-11-07 22:49:58.291190,0,2025-11-07 22:50:03.110943923
2025-11-07 22:49:58.291190,35,2025-11-07 22:50:03.118636231
2025-11-07 22:49:58.291190,6656,2025-11-07 22:50:03.126328538
2025-11-07 22:49:58.291190,0,2025-11-07 22:50:03.134020846
2025-11-07 22:49:58.291190,16,2025-11-07 22:50:03.141713154
2025-11-07 22:49:58.291190,8448,2025-11-07 22:50:03.149405462
2025-11-07 22:49:58.291190,0,2025-11-07 22:50:03.157097769
2025-11-07 22:49:58.291190,47,2025-11-07 22:50:03.164790077
2025-11-07 22:49:58.291190,8960,2025-11-07 22:50:03.172482385
2025-11-07 22:49:58.291190,0,2025-11-07 22:50:03.180174692
2025-11-07 22:49:58.291190,26,2025-11-07 22:50:03.187867000
2025-11-07 22:49:58.291190,8448,2025-11-07 22:50:03.195559308
2025-11-07 22:49:58.291190,0,2025-11-07 22:50:03.203251615
2025-11-07 22:49:58.291190,33,2025-11-07 22:50:03.210943923
2025-11-07 22:49:58.291190,7680,2025-11-07 22:50:03.218636231
2025-11-07 22:49:58.291190,0,2025-11-07 22:50:03.226328538
2025-11-07 22:49:58.291190,38,2025-11-07 22:50:03.234020846
2025-11-07 22:49:58.291190,20480,2025-11-07 22:50:03.241713154
2025-11-07 22:49:58.291190,0,2025-11-07 22:50:03.249405462
2025-11-07 22:49:58.291190,190,2025-11-07 22:50:03.257097769
2025-11-07 22:49:58.291190,9728,2025-11-07 22:50:03.264790077
2025-11-07 22:49:58.291190,1,2025-11-07 22:50:03.272482385
2025-11-07 22:49:58.291190,190,2025-11-07 22:50:03.280174692
2025-11-07 22:49:58.291190,-28672,2025-11-07 22:50:03.287867000
2025-11-07 22:49:58.291190,-2,2025-11-07 22:50:03.295559308
2025-11-07 22:49:58.291190,-1066,2025-11-07 22:50:03.303251615
2025-11-07 22:49:58.291190,-3841,2025-11-07 22:50:03.310943923
2025-11-07 22:49:58.291190,-5,2025-11-07 22:50:03.318636231
2025-11-07 22:49:58.291190,-475,2025-11-07 22:50:03.326328538
2025-11-07 22:49:58.291190,17919,2025-11-07 22:50:03.334020846
2025-11-07 22:49:58.291190,-1,2025-11-07 22:50:03.341713154
2025-11-07 22:49:58.291190,-57,2025-11-07 22:50:03.349405462
2025-11-07 22:49:58.291190,-30209,2025-11-07 22:50:03.357097769
2025-11-07 22:49:58.291190,0,2025-11-07 22:50:03.364790077
2025-11-07 22:49:58.291190,187,2025-11-07 22:50:03.372482385
2025-11-07 22:49:58.291190,-27904,2025-11-07 22:50:03.380174692
2025-11-07 22:49:58.291190,0,2025-11-07 22:50:03.387867000
2025-11-07 22:49:58.291190,159,2025-11-07 22:50:03.395559308
2025-11-07 22:49:58.841390,171,2025-11-07 22:50:03.403251615
2025-11-07 22:49:58.841390,-27392,2025-11-07 22:50:03.410943923
2025-11-07 22:49:58.841390,0,2025-11-07 22:50:03.418636231
2025-11-07 22:49:58.841390,140,2025-11-07 22:50:03.426328538
2025-11-07 22:49:58.841390,-30464,2025-11-07 22:50:03.434020846
2025-11-07 22:49:58.841390,0,2025-11-07 22:50:03.441713154
2025-11-07 22:49:58.841390,135,2025-11-07 22:50:03.449405462
2025-11-07 22:49:58.841390,-31488,2025-11-07 22:50:03.457097769
2025-11-07 22:49:58.841390,0,2025-11-07 22:50:03.464790077
2025-11-07 22:49:58.841390,137,2025-11-07 22:50:03.472482385
2025-11-07 22:49:58.841390,-29184,2025-11-07 22:50:03.480174692
2025-11-07 22:49:58.841390,0,2025-11-07 22:50:03.487867000
2025-11-07 22:49:58.841390,135,2025-11-07 22:50:03.495559308
2025-11-07 22:49:58.841390,31488,2025-11-07 22:50:03.503251615
2025-11-07 22:49:58.841390,0,2025-11-07 22:50:03.510943923
2025-11-07 22:49:58.841390,111,2025-11-07 22:50:03.518636230
2025-11-07 22:49:58.841390,23040,2025-11-07 22:50:03.526328538
2025-11-07 22:49:58.841390,0,2025-11-07 22:50:03.534020846
2025-11-07 22:49:58.841390,64,2025-11-07 22:50:03.541713154
2025-11-07 22:49:58.841390,11520,2025-11-07 22:50:03.549405462
2025-11-07 22:49:58.841390,0,2025-11-07 22:50:03.557097769
2025-11-07 22:49:58.841390,23,2025-11-07 22:50:03.564790077
2025-11-07 22:49:58.841390,512,2025-11-07 22:50:03.572482385
2025-11-07 22:49:58.841390,0,2025-11-07 22:50:03.580174692
2025-11-07 22:49:58.841390,-7,2025-11-07 22:50:03.587867000
2025-11-07 22:49:58.841390,-769,2025-11-07 22:50:03.595559308
2025-11-07 22:49:58.841390,-1,2025-11-07 22:50:03.603251615
2025-11-07 22:49:58.841390,2,2025-11-07 22:50:03.610943923
2025-11-07 22:49:58.841390,4096,2025-11-07 22:50:03.618636231
2025-11-07 22:49:58.841390,0,2025-11-07 22:50:03.626328538
2025-11-07 22:49:58.841390,40,2025-11-07 22:50:03.634020846
2025-11-07 22:49:58.841390,16384,2025-11-07 22:50:03.641713154
2025-11-07 22:49:58.841390,0,2025-11-07 22:50:03.649405462
2025-11-07 22:49:58.841390,83,2025-11-07 22:50:03.657097769
2025-11-07 22:49:58.841390,24320,2025-11-07 22:50:03.664790077
2025-11-07 22:49:58.841390,0,2025-11-07 22:50:03.672482385
2025-11-07 22:49:58.841390,102,2025-11-07 22:50:03.680174692
2025-11-07 22:49:58.841390,27904,2025-11-07 22:50:03.687867000
2025-11-07 22:49:58.841390,0,2025-11-07 22:50:03.695559308
2025-11-07 22:49:58.841390,118,2025-11-07 22:50:03.703251615
2025-11-07 22:49:58.841390,30208,2025-11-07 22:50:03.710943923
2025-11-07 22:49:58.841390,0,2025-11-07 22:50:03.718636231
2025-11-07 22:49:58.841390,111,2025-11-07 22:50:03.726328538
2025-11-07 22:49:58.841390,29184,2025-11-07 22:50:03.734020846
2025-11-07 22:49:58.841390,0,2025-11-07 22:50:03.741713154
2025-11-07 22:49:58.841390,116,2025-11-07 22:50:03.749405462
2025-11-07 22:49:58.841390,27136,2025-11-07 22:50:03.757097769
2025-11-07 22:49:58.841390,0,2025-11-07 22:50:03.764790077
2025-11-07 22:49:58.841390,97,2025-11-07 22:50:03.772482385
2025-11-07 22:49:58.841390,24320,2025-11-07 22:50:03.780174692
2025-11-07 22:49:58.841390,0,2025-11-07 22:50:03.787867000
2025-11-07 22:49:58.841390,92,2025-11-07 22:50:03.795559308
2025-11-07 22:49:58.841390,21760,2025-11-07 22:50:03.803251615
2025-11-07 22:49:58.841390,0,2025-11-07 22:50:03.810943923
2025-11-07 22:49:58.841390,78,2025-11-07 22:50:03.818636231
2025-11-07 22:49:58.841390,18176,2025-11-07 22:50:03.826328538
2025-11-07 22:49:58.841390,0,2025-11-07 22:50:03.834020846
2025-11-07 22:49:58.841390,68,2025-11-07 22:50:03.841713154
2025-11-07 22:49:58.841390,18176,2025-11-07 22:50:03.849405462
2025-11-07 22:49:58.841390,0,2025-11-07 22:50:03.857097769
2025-11-07 22:49:58.841390,68,2025-11-07 22:50:03.864790077
2025-11-07 22:49:58.841390,16384,2025-11-07 22:50:03.872482385
2025-11-07 22:49:58.841390,0,2025-11-07 22:50:03.880174692
2025-11-07 22:49:58.841390,66,2025-11-07 22:50:03.887867000
2025-11-07 22:49:58.841390,16896,2025-11-07 22:50:03.895559308
2025-11-07 22:49:58.841390,0,2025-11-07 22:50:03.903251615
2025-11-07 22:49:58.841390,61,2025-11-07 22:50:03.910943923
2025-11-07 22:49:58.841390,15616,2025-11-07 22:50:03.918636231
2025-11-07 22:49:58.841390,0,2025-11-07 22:50:03.926328538
2025-11-07 22:49:58.841390,64,2025-11-07 22:50:03.934020846
2025-11-07 22:49:58.841390,15104,2025-11-07 22:50:03.941713154
2025-11-07 22:49:58.841390,0,2025-11-07 22:50:03.949405462
2025-11-07 22:49:58.841390,57,2025-11-07 22:50:03.957097769
2025-11-07 22:49:58.841390,15616,2025-11-07 22:50:03.964790077
2025-11-07 22:49:58.841390,0,2025-11-07 22:50:03.972482385
2025-11-07 22:49:58.841390,61,2025-11-07 22:50:03.980174692
2025-11-07 22:49:58.841390,14592,2025-11-07 22:50:03.987867000
2025-11-07 22:49:58.841390,0,2025-11-07 22:50:03.995559308
2025-11-07 22:49:58.841390,59,2025-11-07 22:50:04.003251615
2025-11-07 22:49:58.841390,16896,2025-11-07 22:50:04.010943923
2025-11-07 22:49:58.841390,0,2025-11-07 22:50:04.018636231
2025-11-07 22:49:58.841390,76,2025-11-07 22:50:04.026328538
2025-11-07 22:49:58.841390,23040,2025-11-07 22:50:04.034020846
2025-11-07 22:49:58.841390,0,2025-11-07 22:50:04.041713154
2025-11-07 22:49:58.841390,99,2025-11-07 22:50:04.049405462
2025-11-07 22:49:58.841390,24320,2025-11-07 22:50:04.057097769
2025-11-07 22:49:58.841390,0,2025-11-07 22:50:04.064790077
2025-11-07 22:49:58.841390,76,2025-11-07 22:50:04.072482385
2025-11-07 22:49:58.841390,14592,2025-11-07 22:50:04.080174692
2025-11-07 22:49:58.841390,0,2025-11-07 22:50:04.087867000
2025-11-07 22:49:58.841390,49,2025-11-07 22:50:04.095559308
2025-11-07 22:49:58.841390,10240,2025-11-07 22:50:04.103251615
2025-11-07 22:49:58.841390,0,2025-11-07 22:50:04.110943923
2025-11-07 22:49:58.841390,19,2025-11-07 22:50:04.118636231
2025-11-07 22:49:58.841390,3584,2025-11-07 22:50:04.126328538
2025-11-07 22:49:58.841390,0,2025-11-07 22:50:04.134020846
2025-11-07 22:49:58.841390,33,2025-11-07 22:50:04.141713154
2025-11-07 22:49:58.841390,10240,2025-11-07 22:50:04.149405462
2025-11-07 22:49:58.841390,0,2025-11-07 22:50:04.157097769
2025-11-07 22:49:58.841390,30,2025-11-07 22:50:04.164790077
2025-11-07 22:49:58.841390,7680,2025-11-07 22:50:04.172482385
2025-11-07 22:49:58.841390,0,2025-11-07 22:50:04.180174692
2025-11-07 22:49:58.841390,33,2025-11-07 22:50:04.187867000
2025-11-07 22:49:58.841390,7680,2025-11-07 22:50:04.195559308
2025-11-07 22:49:58.841390,0,2025-11-07 22:50:04.203251615
2025-11-07 22:49:58.841390,30,2025-11-07 22:50:04.210943923
2025-11-07 22:49:58.841390,11520,2025-11-07 22:50:04.218636231
2025-11-07 22:49:58.841390,0,2025-11-07 22:50:04.226328538
2025-11-07 22:49:58.841390,97,2025-11-07 22:50:04.234020846
2025-11-07 22:49:59.391548,213,2025-11-07 22:50:04.241713154
2025-11-07 22:49:59.391548,13312,2025-11-07 22:50:04.249405462
2025-11-07 22:49:59.391548,1,2025-11-07 22:50:04.257097769
2025-11-07 22:49:59.391548,163,2025-11-07 22:50:04.264790077
2025-11-07 22:49:59.391548,17408,2025-11-07 22:50:04.272482385
2025-11-07 22:49:59.391548,-2,2025-11-07 22:50:04.280174692
2025-11-07 22:49:59.391548,-1088,2025-11-07 22:50:04.287867000
2025-11-07 22:49:59.391548,16127,2025-11-07 22:50:04.295559308
2025-11-07 22:49:59.391548,-4,2025-11-07 22:50:04.303251615
2025-11-07 22:49:59.391548,-408,2025-11-07 22:50:04.310943923
2025-11-07 22:49:59.391548,25087,2025-11-07 22:50:04.318636231
2025-11-07 22:49:59.391548,-1,2025-11-07 22:50:04.326328538
2025-11-07 22:49:59.391548,-9,2025-11-07 22:50:04.334020846
2025-11-07 22:49:59.391548,-20993,2025-11-07 22:50:04.341713154
2025-11-07 22:49:59.391548,0,2025-11-07 22:50:04.349405462
2025-11-07 22:49:59.391548,199,2025-11-07 22:50:04.357097769
2025-11-07 22:49:59.391548,-21760,2025-11-07 22:50:04.364790077
2025-11-07 22:49:59.391548,0,2025-11-07 22:50:04.372482385
2025-11-07 22:49:59.391548,190,2025-11-07 22:50:04.380174692
2025-11-07 22:49:59.391548,-16896,2025-11-07 22:50:04.387867000
2025-11-07 22:49:59.391548,0,2025-11-07 22:50:04.395559308
2025-11-07 22:49:59.391548,166,2025-11-07 22:50:04.403251615
2025-11-07 22:49:59.391548,-24832,2025-11-07 22:50:04.410943923
2025-11-07 22:49:59.391548,0,2025-11-07 22:50:04.418636231
2025-11-07 22:49:59.391548,154,2025-11-07 22:50:04.426328538
2025-11-07 22:49:59.391548,-28672,2025-11-07 22:50:04.434020846
2025-11-07 22:49:59.391548,0,2025-11-07 22:50:04.441713154
2025-11-07 22:49:59.391548,137,2025-11-07 22:50:04.449405462
2025-11-07 22:49:59.391548,-31488,2025-11-07 22:50:04.457097769
2025-11-07 22:49:59.391548,0,2025-11-07 22:50:04.464790077
2025-11-07 22:49:59.391548,125,2025-11-07 22:50:04.472482385
2025-11-07 22:49:59.391548,30208,2025-11-07 22:50:04.480174692
2025-11-07 22:49:59.391548,0,2025-11-07 22:50:04.487867000
2025-11-07 22:49:59.391548,109,2025-11-07 22:50:04.495559308
2025-11-07 22:49:59.391548,23552,2025-11-07 22:50:04.503251615
2025-11-07 22:49:59.391548,0,2025-11-07 22:50:04.510943923
2025-11-07 22:49:59.391548,76,2025-11-07 22:50:04.518636230
2025-11-07 22:49:59.391548,13824,2025-11-07 22:50:04.526328538
2025-11-07 22:49:59.391548,0,2025-11-07 22:50:04.534020846
2025-11-07 22:49:59.391548,28,2025-11-07 22:50:04.541713154
2025-11-07 22:49:59.391548,2304,2025-11-07 22:50:04.549405462
2025-11-07 22:49:59.391548,0,2025-11-07 22:50:04.557097769
2025-11-07 22:49:59.391548,0,2025-11-07 22:50:04.564790077
2025-11-07 22:49:59.391548,-2304,2025-11-07 22:50:04.572482385
2025-11-07 22:49:59.391548,-1,2025-11-07 22:50:04.580174692
2025-11-07 22:49:59.391548,-14,2025-11-07 22:50:04.587867000
2025-11-07 22:49:59.391548,-257,2025-11-07 22:50:04.595559308
2025-11-07 22:49:59.391548,-1,2025-11-07 22:50:04.603251615
2025-11-07 22:49:59.391548,19,2025-11-07 22:50:04.610943923
2025-11-07 22:49:59.391548,10752,2025-11-07 22:50:04.618636231
2025-11-07 22:49:59.391548,0,2025-11-07 22:50:04.626328538
2025-11-07 22:49:59.391548,71,2025-11-07 22:50:04.634020846
2025-11-07 22:49:59.391548,23040,2025-11-07 22:50:04.641713154
2025-11-07 22:49:59.391548,0,2025-11-07 22:50:04.649405462
2025-11-07 22:49:59.391548,102,2025-11-07 22:50:04.657097769
2025-11-07 22:49:59.391548,29184,2025-11-07 22:50:04.664790077
2025-11-07 22:49:59.391548,0,2025-11-07 22:50:04.672482385
2025-11-07 22:49:59.391548,123,2025-11-07 22:50:04.680174692
2025-11-07 22:49:59.391548,31488,2025-11-07 22:50:04.687867000
2025-11-07 22:49:59.391548,0,2025-11-07 22:50:04.695559308
2025-11-07 22:49:59.391548,123,2025-11-07 22:50:04.703251615
2025-11-07 22:49:59.391548,31488,2025-11-07 22:50:04.710943923
2025-11-07 22:49:59.391548,0,2025-11-07 22:50:04.718636231
2025-11-07 22:49:59.391548,121,2025-11-07 22:50:04.726328538
2025-11-07 22:49:59.391548,29184,2025-11-07 22:50:04.734020846
2025-11-07 22:49:59.391548,0,2025-11-07 22:50:04.741713154
2025-11-07 22:49:59.391548,111,2025-11-07 22:50:04.749405462
2025-11-07 22:49:59.391548,27904,2025-11-07 22:50:04.757097769
2025-11-07 22:49:59.391548,0,2025-11-07 22:50:04.764790077
2025-11-07 22:49:59.391548,99,2025-11-07 22:50:04.772482385
2025-11-07 22:49:59.391548,23040,2025-11-07 22:50:04.780174692
2025-11-07 22:49:59.391548,0,2025-11-07 22:50:04.787867000
2025-11-07 22:49:59.391548,87,2025-11-07 22:50:04.795559308
2025-11-07 22:49:59.391548,21760,2025-11-07 22:50:04.803251615
2025-11-07 22:49:59.391548,0,2025-11-07 22:50:04.810943923
2025-11-07 22:49:59.391548,80,2025-11-07 22:50:04.818636231
2025-11-07 22:49:59.391548,19456,2025-11-07 22:50:04.826328538
2025-11-07 22:49:59.391548,0,2025-11-07 22:50:04.834020846
2025-11-07 22:49:59.391548,73,2025-11-07 22:50:04.841713154
2025-11-07 22:49:59.391548,17408,2025-11-07 22:50:04.849405462
2025-11-07 22:49:59.391548,0,2025-11-07 22:50:04.857097769
2025-11-07 22:49:59.391548,61,2025-11-07 22:50:04.864790077
2025-11-07 22:49:59.391548,15616,2025-11-07 22:50:04.872482385
2025-11-07 22:49:59.391548,0,2025-11-07 22:50:04.880174692
2025-11-07 22:49:59.391548,61,2025-11-07 22:50:04.887867000
2025-11-07 22:49:59.391548,15616,2025-11-07 22:50:04.895559308
2025-11-07 22:49:59.391548,0,2025-11-07 22:50:04.903251615
2025-11-07 22:49:59.391548,61,2025-11-07 22:50:04.910943923
2025-11-07 22:49:59.391548,15616,2025-11-07 22:50:04.918636231
2025-11-07 22:49:59.391548,0,2025-11-07 22:50:04.926328538
2025-11-07 22:49:59.391548,61,2025-11-07 22:50:04.934020846
2025-11-07 22:49:59.391548,15104,2025-11-07 22:50:04.941713154
2025-11-07 22:49:59.391548,0,2025-11-07 22:50:04.949405462
2025-11-07 22:49:59.391548,61,2025-11-07 22:50:04.957097769
2025-11-07 22:49:59.391548,16384,2025-11-07 22:50:04.964790077
2025-11-07 22:49:59.391548,0,2025-11-07 22:50:04.972482385
2025-11-07 22:49:59.391548,68,2025-11-07 22:50:04.980174692
2025-11-07 22:49:59.391548,22272,2025-11-07 22:50:04.987867000
2025-11-07 22:49:59.391548,0,2025-11-07 22:50:04.995559308
2025-11-07 22:49:59.391548,111,2025-11-07 22:50:05.003251615
2025-11-07 22:49:59.391548,30208,2025-11-07 22:50:05.010943923
2025-11-07 22:49:59.391548,0,2025-11-07 22:50:05.018636231
2025-11-07 22:49:59.391548,102,2025-11-07 22:50:05.026328538
2025-11-07 22:49:59.391548,18688,2025-11-07 22:50:05.034020846
2025-11-07 22:49:59.391548,0,2025-11-07 22:50:05.041713154
2025-11-07 22:49:59.391548,54,2025-11-07 22:50:05.049405462
2025-11-07 22:49:59.391548,12032,2025-11-07 22:50:05.057097769
2025-11-07 22:49:59.391548,0,2025-11-07 22:50:05.064790077
2025-11-07 22:49:59.391548,33,2025-11-07 22:50:05.072482385
2025-11-07 22:50:00.041243,21,2025-11-07 22:50:05.080174692
2025-11-07 22:50:00.041243,8960,2025-11-07 22:50:05.087867000
2025-11-07 22:50:00.041243,0,2025-11-07 22:50:05.095559308
2025-11-07 22:50:00.041243,54,2025-11-07 22:50:05.103251615
2025-11-07 22:50:00.041243,13312,2025-11-07 22:50:05.110943923
2025-11-07 22:50:00.041243,0,2025-11-07 22:50:05.118636231
2025-11-07 22:50:00.041243,54,2025-11-07 22:50:05.126328538
