timestamp,ecg,reconstructed_time
2025-11-07 15:08:27.651395,66,2025-11-07 15:08:27.651395000
2025-11-07 15:08:27.651395,15104,2025-11-07 15:08:27.659087308
2025-11-07 15:08:27.651395,0,2025-11-07 15:08:27.666779615
2025-11-07 15:08:27.651395,38,2025-11-07 15:08:27.674471923
2025-11-07 15:08:27.651395,4096,2025-11-07 15:08:27.682164231
2025-11-07 15:08:27.651395,0,2025-11-07 15:08:27.689856538
2025-11-07 15:08:27.651395,4,2025-11-07 15:08:27.697548846
2025-11-07 15:08:27.651395,0,2025-11-07 15:08:27.705241154
2025-11-07 15:08:27.651395,0,2025-11-07 15:08:27.712933462
2025-11-07 15:08:27.651395,-2,2025-11-07 15:08:27.720625769
2025-11-07 15:08:27.651395,3071,2025-11-07 15:08:27.728318077
2025-11-07 15:08:27.651395,0,2025-11-07 15:08:27.736010385
2025-11-07 15:08:27.651395,50,2025-11-07 15:08:27.743702692
2025-11-07 15:08:27.651395,17664,2025-11-07 15:08:27.751395000
2025-11-07 15:08:27.651395,0,2025-11-07 15:08:27.759087308
2025-11-07 15:08:27.651395,59,2025-11-07 15:08:27.766779615
2025-11-07 15:08:27.651395,13312,2025-11-07 15:08:27.774471923
2025-11-07 15:08:27.651395,0,2025-11-07 15:08:27.782164231
2025-11-07 15:08:27.651395,61,2025-11-07 15:08:27.789856538
2025-11-07 15:08:27.651395,17664,2025-11-07 15:08:27.797548846
2025-11-07 15:08:27.651395,0,2025-11-07 15:08:27.805241154
2025-11-07 15:08:27.651395,69,2025-11-07 15:08:27.812933462
2025-11-07 15:08:27.651395,16896,2025-11-07 15:08:27.820625769
2025-11-07 15:08:27.651395,0,2025-11-07 15:08:27.828318077
2025-11-07 15:08:27.651395,69,2025-11-07 15:08:27.836010385
2025-11-07 15:08:27.651395,24320,2025-11-07 15:08:27.843702692
2025-11-07 15:08:27.651395,0,2025-11-07 15:08:27.851395000
2025-11-07 15:08:27.651395,131,2025-11-07 15:08:27.859087308
2025-11-07 15:08:27.651395,18688,2025-11-07 15:08:27.866779615
2025-11-07 15:08:27.651395,0,2025-11-07 15:08:27.874471923
2025-11-07 15:08:27.651395,-245,2025-11-07 15:08:27.882164231
2025-11-07 15:08:27.651395,16895,2025-11-07 15:08:27.889856538
2025-11-07 15:08:27.651395,-3,2025-11-07 15:08:27.897548846
2025-11-07 15:08:27.651395,-734,2025-11-07 15:08:27.905241154
2025-11-07 15:08:27.651395,1791,2025-11-07 15:08:27.912933462
2025-11-07 15:08:27.651395,-1,2025-11-07 15:08:27.920625769
2025-11-07 15:08:27.651395,92,2025-11-07 15:08:27.928318077
2025-11-07 15:08:27.651395,27392,2025-11-07 15:08:27.936010385
2025-11-07 15:08:27.651395,0,2025-11-07 15:08:27.943702692
2025-11-07 15:08:27.651395,126,2025-11-07 15:08:27.951395000
2025-11-07 15:08:27.651395,-20992,2025-11-07 15:08:27.959087308
2025-11-07 15:08:27.651395,0,2025-11-07 15:08:27.966779615
2025-11-07 15:08:27.651395,159,2025-11-07 15:08:27.974471923
2025-11-07 15:08:27.651395,-29696,2025-11-07 15:08:27.982164231
2025-11-07 15:08:27.651395,0,2025-11-07 15:08:27.989856538
2025-11-07 15:08:27.651395,143,2025-11-07 15:08:27.997548846
2025-11-07 15:08:27.651395,-30208,2025-11-07 15:08:28.005241154
2025-11-07 15:08:27.651395,0,2025-11-07 15:08:28.012933462
2025-11-07 15:08:27.651395,126,2025-11-07 15:08:28.020625769
2025-11-07 15:08:27.651395,30464,2025-11-07 15:08:28.028318077
2025-11-07 15:08:27.651395,0,2025-11-07 15:08:28.036010385
2025-11-07 15:08:27.651395,123,2025-11-07 15:08:28.043702692
2025-11-07 15:08:27.651395,30464,2025-11-07 15:08:28.051395000
2025-11-07 15:08:27.651395,0,2025-11-07 15:08:28.059087308
2025-11-07 15:08:27.651395,112,2025-11-07 15:08:28.066779615
2025-11-07 15:08:27.651395,30464,2025-11-07 15:08:28.074471923
2025-11-07 15:08:27.651395,0,2025-11-07 15:08:28.082164231
2025-11-07 15:08:27.651395,119,2025-11-07 15:08:28.089856538
2025-11-07 15:08:27.651395,28672,2025-11-07 15:08:28.097548846
2025-11-07 15:08:27.651395,0,2025-11-07 15:08:28.105241154
2025-11-07 15:08:27.651395,109,2025-11-07 15:08:28.112933462
2025-11-07 15:08:27.651395,29696,2025-11-07 15:08:28.120625769
2025-11-07 15:08:27.651395,0,2025-11-07 15:08:28.128318077
2025-11-07 15:08:27.651395,119,2025-11-07 15:08:28.136010385
2025-11-07 15:08:27.651395,29696,2025-11-07 15:08:28.143702692
2025-11-07 15:08:27.651395,0,2025-11-07 15:08:28.151395000
2025-11-07 15:08:27.651395,116,2025-11-07 15:08:28.159087308
2025-11-07 15:08:27.651395,30976,2025-11-07 15:08:28.166779615
2025-11-07 15:08:27.651395,0,2025-11-07 15:08:28.174471923
2025-11-07 15:08:27.651395,116,2025-11-07 15:08:28.182164230
2025-11-07 15:08:27.651395,25600,2025-11-07 15:08:28.189856538
2025-11-07 15:08:27.651395,0,2025-11-07 15:08:28.197548846
2025-11-07 15:08:27.651395,83,2025-11-07 15:08:28.205241154
2025-11-07 15:08:27.651395,18176,2025-11-07 15:08:28.212933462
2025-11-07 15:08:27.651395,0,2025-11-07 15:08:28.220625769
2025-11-07 15:08:27.651395,59,2025-11-07 15:08:28.228318077
2025-11-07 15:08:27.651395,12032,2025-11-07 15:08:28.236010385
2025-11-07 15:08:27.651395,0,2025-11-07 15:08:28.243702692
2025-11-07 15:08:27.651395,40,2025-11-07 15:08:28.251395000
2025-11-07 15:08:27.651395,10240,2025-11-07 15:08:28.259087308
2025-11-07 15:08:27.651395,0,2025-11-07 15:08:28.266779615
2025-11-07 15:08:27.651395,30,2025-11-07 15:08:28.274471923
2025-11-07 15:08:27.651395,5888,2025-11-07 15:08:28.282164231
2025-11-07 15:08:27.651395,0,2025-11-07 15:08:28.289856538
2025-11-07 15:08:27.651395,33,2025-11-07 15:08:28.297548846
2025-11-07 15:08:27.651395,8960,2025-11-07 15:08:28.305241154
2025-11-07 15:08:27.651395,0,2025-11-07 15:08:28.312933462
2025-11-07 15:08:27.651395,19,2025-11-07 15:08:28.320625769
2025-11-07 15:08:27.651395,4864,2025-11-07 15:08:28.328318077
2025-11-07 15:08:27.651395,0,2025-11-07 15:08:28.336010385
2025-11-07 15:08:27.651395,33,2025-11-07 15:08:28.343702692
2025-11-07 15:08:27.651395,7680,2025-11-07 15:08:28.351395000
2025-11-07 15:08:27.651395,0,2025-11-07 15:08:28.359087308
2025-11-07 15:08:27.651395,23,2025-11-07 15:08:28.366779615
2025-11-07 15:08:27.651395,7680,2025-11-07 15:08:28.374471923
2025-11-07 15:08:27.651395,0,2025-11-07 15:08:28.382164231
2025-11-07 15:08:27.651395,33,2025-11-07 15:08:28.389856538
2025-11-07 15:08:27.651395,5888,2025-11-07 15:08:28.397548846
2025-11-07 15:08:27.651395,0,2025-11-07 15:08:28.405241154
2025-11-07 15:08:27.651395,21,2025-11-07 15:08:28.412933462
2025-11-07 15:08:27.651395,7168,2025-11-07 15:08:28.420625769
2025-11-07 15:08:27.651395,0,2025-11-07 15:08:28.428318077
2025-11-07 15:08:27.651395,33,2025-11-07 15:08:28.436010385
2025-11-07 15:08:27.651395,7680,2025-11-07 15:08:28.443702692
2025-11-07 15:08:27.651395,0,2025-11-07 15:08:28.451395000
2025-11-07 15:08:27.651395,28,2025-11-07 15:08:28.459087308
2025-11-07 15:08:27.651395,8960,2025-11-07 15:08:28.466779615
2025-11-07 15:08:27.651395,0,2025-11-07 15:08:28.474471923
2025-11-07 15:08:27.651395,47,2025-11-07 15:08:28.482164231
2025-11-07 15:08:28.191993,45,2025-11-07 15:08:28.489856538
2025-11-07 15:08:28.191993,4096,2025-11-07 15:08:28.497548846
2025-11-07 15:08:28.191993,0,2025-11-07 15:08:28.505241154
2025-11-07 15:08:28.191993,-7,2025-11-07 15:08:28.512933462
2025-11-07 15:08:28.191993,-2049,2025-11-07 15:08:28.520625769
2025-11-07 15:08:28.191993,-1,2025-11-07 15:08:28.528318077
2025-11-07 15:08:28.191993,-16,2025-11-07 15:08:28.536010385
2025-11-07 15:08:28.191993,-3329,2025-11-07 15:08:28.543702692
2025-11-07 15:08:28.191993,-1,2025-11-07 15:08:28.551395000
2025-11-07 15:08:28.191993,7,2025-11-07 15:08:28.559087308
2025-11-07 15:08:28.191993,7168,2025-11-07 15:08:28.566779615
2025-11-07 15:08:28.191993,0,2025-11-07 15:08:28.574471923
2025-11-07 15:08:28.191993,26,2025-11-07 15:08:28.582164231
2025-11-07 15:08:28.191993,5888,2025-11-07 15:08:28.589856538
2025-11-07 15:08:28.191993,0,2025-11-07 15:08:28.597548846
2025-11-07 15:08:28.191993,33,2025-11-07 15:08:28.605241154
2025-11-07 15:08:28.191993,12032,2025-11-07 15:08:28.612933462
2025-11-07 15:08:28.191993,0,2025-11-07 15:08:28.620625769
2025-11-07 15:08:28.191993,54,2025-11-07 15:08:28.628318077
2025-11-07 15:08:28.191993,12800,2025-11-07 15:08:28.636010385
2025-11-07 15:08:28.191993,0,2025-11-07 15:08:28.643702692
2025-11-07 15:08:28.191993,45,2025-11-07 15:08:28.651395000
2025-11-07 15:08:28.191993,13312,2025-11-07 15:08:28.659087308
2025-11-07 15:08:28.191993,0,2025-11-07 15:08:28.666779615
2025-11-07 15:08:28.191993,83,2025-11-07 15:08:28.674471923
2025-11-07 15:08:28.191993,29184,2025-11-07 15:08:28.682164231
2025-11-07 15:08:28.191993,0,2025-11-07 15:08:28.689856538
2025-11-07 15:08:28.191993,45,2025-11-07 15:08:28.697548846
2025-11-07 15:08:28.191993,-13056,2025-11-07 15:08:28.705241154
2025-11-07 15:08:28.191993,-2,2025-11-07 15:08:28.712933462
2025-11-07 15:08:28.191993,-777,2025-11-07 15:08:28.720625769
2025-11-07 15:08:28.191993,4095,2025-11-07 15:08:28.728318077
2025-11-07 15:08:28.191993,-3,2025-11-07 15:08:28.736010385
2025-11-07 15:08:28.191993,-226,2025-11-07 15:08:28.743702692
2025-11-07 15:08:28.191993,27647,2025-11-07 15:08:28.751395000
2025-11-07 15:08:28.191993,0,2025-11-07 15:08:28.759087308
2025-11-07 15:08:28.191993,112,2025-11-07 15:08:28.766779615
2025-11-07 15:08:28.191993,31488,2025-11-07 15:08:28.774471923
2025-11-07 15:08:28.191993,0,2025-11-07 15:08:28.782164231
2025-11-07 15:08:28.191993,159,2025-11-07 15:08:28.789856538
2025-11-07 15:08:28.191993,-29696,2025-11-07 15:08:28.797548846
2025-11-07 15:08:28.191993,0,2025-11-07 15:08:28.805241154
2025-11-07 15:08:28.191993,126,2025-11-07 15:08:28.812933462
2025-11-07 15:08:28.191993,-31488,2025-11-07 15:08:28.820625769
2025-11-07 15:08:28.191993,0,2025-11-07 15:08:28.828318077
2025-11-07 15:08:28.191993,131,2025-11-07 15:08:28.836010385
2025-11-07 15:08:28.191993,-32768,2025-11-07 15:08:28.843702692
2025-11-07 15:08:28.191993,0,2025-11-07 15:08:28.851395000
2025-11-07 15:08:28.191993,121,2025-11-07 15:08:28.859087308
2025-11-07 15:08:28.191993,28672,2025-11-07 15:08:28.866779615
2025-11-07 15:08:28.191993,0,2025-11-07 15:08:28.874471923
2025-11-07 15:08:28.191993,112,2025-11-07 15:08:28.882164231
2025-11-07 15:08:28.191993,28672,2025-11-07 15:08:28.889856538
2025-11-07 15:08:28.191993,0,2025-11-07 15:08:28.897548846
2025-11-07 15:08:28.191993,107,2025-11-07 15:08:28.905241154
2025-11-07 15:08:28.191993,29184,2025-11-07 15:08:28.912933462
2025-11-07 15:08:28.191993,0,2025-11-07 15:08:28.920625769
2025-11-07 15:08:28.191993,121,2025-11-07 15:08:28.928318077
2025-11-07 15:08:28.191993,29184,2025-11-07 15:08:28.936010385
2025-11-07 15:08:28.191993,0,2025-11-07 15:08:28.943702692
2025-11-07 15:08:28.191993,114,2025-11-07 15:08:28.951395000
2025-11-07 15:08:28.191993,30976,2025-11-07 15:08:28.959087308
2025-11-07 15:08:28.191993,0,2025-11-07 15:08:28.966779615
2025-11-07 15:08:28.191993,121,2025-11-07 15:08:28.974471923
2025-11-07 15:08:28.191993,30976,2025-11-07 15:08:28.982164231
2025-11-07 15:08:28.191993,0,2025-11-07 15:08:28.989856538
2025-11-07 15:08:28.191993,121,2025-11-07 15:08:28.997548846
2025-11-07 15:08:28.191993,29696,2025-11-07 15:08:29.005241154
2025-11-07 15:08:28.191993,0,2025-11-07 15:08:29.012933462
2025-11-07 15:08:28.191993,104,2025-11-07 15:08:29.020625769
2025-11-07 15:08:28.191993,22528,2025-11-07 15:08:29.028318077
2025-11-07 15:08:28.191993,0,2025-11-07 15:08:29.036010385
2025-11-07 15:08:28.191993,69,2025-11-07 15:08:29.043702692
2025-11-07 15:08:28.191993,14592,2025-11-07 15:08:29.051395000
2025-11-07 15:08:28.191993,0,2025-11-07 15:08:29.059087308
2025-11-07 15:08:28.191993,50,2025-11-07 15:08:29.066779615
2025-11-07 15:08:28.191993,11520,2025-11-07 15:08:29.074471923
2025-11-07 15:08:28.191993,0,2025-11-07 15:08:29.082164231
2025-11-07 15:08:28.191993,35,2025-11-07 15:08:29.089856538
2025-11-07 15:08:28.191993,8960,2025-11-07 15:08:29.097548846
2025-11-07 15:08:28.191993,0,2025-11-07 15:08:29.105241154
2025-11-07 15:08:28.191993,42,2025-11-07 15:08:29.112933462
2025-11-07 15:08:28.191993,10240,2025-11-07 15:08:29.120625769
2025-11-07 15:08:28.191993,0,2025-11-07 15:08:29.128318077
2025-11-07 15:08:28.191993,26,2025-11-07 15:08:29.136010385
2025-11-07 15:08:28.191993,5888,2025-11-07 15:08:29.143702692
2025-11-07 15:08:28.191993,0,2025-11-07 15:08:29.151395000
2025-11-07 15:08:28.191993,28,2025-11-07 15:08:29.159087308
2025-11-07 15:08:28.191993,8448,2025-11-07 15:08:29.166779615
2025-11-07 15:08:28.191993,0,2025-11-07 15:08:29.174471923
2025-11-07 15:08:28.191993,33,2025-11-07 15:08:29.182164230
2025-11-07 15:08:28.191993,7680,2025-11-07 15:08:29.189856538
2025-11-07 15:08:28.191993,0,2025-11-07 15:08:29.197548846
2025-11-07 15:08:28.191993,28,2025-11-07 15:08:29.205241154
2025-11-07 15:08:28.191993,7168,2025-11-07 15:08:29.212933462
2025-11-07 15:08:28.191993,0,2025-11-07 15:08:29.220625769
2025-11-07 15:08:28.191993,30,2025-11-07 15:08:29.228318077
2025-11-07 15:08:28.191993,10240,2025-11-07 15:08:29.236010385
2025-11-07 15:08:28.191993,0,2025-11-07 15:08:29.243702692
2025-11-07 15:08:28.191993,45,2025-11-07 15:08:29.251395000
2025-11-07 15:08:28.191993,10752,2025-11-07 15:08:29.259087308
2025-11-07 15:08:28.191993,0,2025-11-07 15:08:29.266779615
2025-11-07 15:08:28.191993,42,2025-11-07 15:08:29.274471923
2025-11-07 15:08:28.191993,14592,2025-11-07 15:08:29.282164231
2025-11-07 15:08:28.191993,0,2025-11-07 15:08:29.289856538
2025-11-07 15:08:28.191993,61,2025-11-07 15:08:29.297548846
2025-11-07 15:08:28.191993,9728,2025-11-07 15:08:29.305241154
2025-11-07 15:08:28.191993,0,2025-11-07 15:08:29.312933462
2025-11-07 15:08:28.191993,7,2025-11-07 15:08:29.320625769
2025-11-07 15:08:28.733173,-4,2025-11-07 15:08:29.328318077
2025-11-07 15:08:28.733173,-2049,2025-11-07 15:08:29.336010385
2025-11-07 15:08:28.733173,-1,2025-11-07 15:08:29.343702692
2025-11-07 15:08:28.733173,-11,2025-11-07 15:08:29.351395000
2025-11-07 15:08:28.733173,2047,2025-11-07 15:08:29.359087308
2025-11-07 15:08:28.733173,0,2025-11-07 15:08:29.366779615
2025-11-07 15:08:28.733173,35,2025-11-07 15:08:29.374471923
2025-11-07 15:08:28.733173,10240,2025-11-07 15:08:29.382164231
2025-11-07 15:08:28.733173,0,2025-11-07 15:08:29.389856538
2025-11-07 15:08:28.733173,35,2025-11-07 15:08:29.397548846
2025-11-07 15:08:28.733173,9728,2025-11-07 15:08:29.405241154
2025-11-07 15:08:28.733173,0,2025-11-07 15:08:29.412933462
2025-11-07 15:08:28.733173,45,2025-11-07 15:08:29.420625769
2025-11-07 15:08:28.733173,15616,2025-11-07 15:08:29.428318077
2025-11-07 15:08:28.733173,0,2025-11-07 15:08:29.436010385
2025-11-07 15:08:28.733173,73,2025-11-07 15:08:29.443702692
2025-11-07 15:08:28.733173,17664,2025-11-07 15:08:29.451395000
2025-11-07 15:08:28.733173,0,2025-11-07 15:08:29.459087308
2025-11-07 15:08:28.733173,69,2025-11-07 15:08:29.466779615
2025-11-07 15:08:28.733173,25600,2025-11-07 15:08:29.474471923
2025-11-07 15:08:28.733173,0,2025-11-07 15:08:29.482164231
2025-11-07 15:08:28.733173,131,2025-11-07 15:08:29.489856538
2025-11-07 15:08:28.733173,18688,2025-11-07 15:08:29.497548846
2025-11-07 15:08:28.733173,0,2025-11-07 15:08:29.505241154
2025-11-07 15:08:28.733173,-233,2025-11-07 15:08:29.512933462
2025-11-07 15:08:28.733173,18687,2025-11-07 15:08:29.520625769
2025-11-07 15:08:28.733173,-3,2025-11-07 15:08:29.528318077
2025-11-07 15:08:28.733173,-739,2025-11-07 15:08:29.536010385
2025-11-07 15:08:28.733173,2559,2025-11-07 15:08:29.543702692
2025-11-07 15:08:28.733173,-1,2025-11-07 15:08:29.551395000
2025-11-07 15:08:28.733173,112,2025-11-07 15:08:29.559087308
2025-11-07 15:08:28.733173,32256,2025-11-07 15:08:29.566779615
2025-11-07 15:08:28.733173,0,2025-11-07 15:08:29.574471923
2025-11-07 15:08:28.733173,131,2025-11-07 15:08:29.582164231
2025-11-07 15:08:28.733173,-20992,2025-11-07 15:08:29.589856538
2025-11-07 15:08:28.733173,0,2025-11-07 15:08:29.597548846
2025-11-07 15:08:28.733173,154,2025-11-07 15:08:29.605241154
2025-11-07 15:08:28.733173,-29696,2025-11-07 15:08:29.612933462
2025-11-07 15:08:28.733173,0,2025-11-07 15:08:29.620625769
2025-11-07 15:08:28.733173,152,2025-11-07 15:08:29.628318077
2025-11-07 15:08:28.733173,-28928,2025-11-07 15:08:29.636010385
2025-11-07 15:08:28.733173,0,2025-11-07 15:08:29.643702692
2025-11-07 15:08:28.733173,131,2025-11-07 15:08:29.651395000
2025-11-07 15:08:28.733173,-31488,2025-11-07 15:08:29.659087308
2025-11-07 15:08:28.733173,0,2025-11-07 15:08:29.666779615
2025-11-07 15:08:28.733173,123,2025-11-07 15:08:29.674471923
2025-11-07 15:08:28.733173,29184,2025-11-07 15:08:29.682164231
2025-11-07 15:08:28.733173,0,2025-11-07 15:08:29.689856538
2025-11-07 15:08:28.733173,123,2025-11-07 15:08:29.697548846
2025-11-07 15:08:28.733173,-32000,2025-11-07 15:08:29.705241154
2025-11-07 15:08:28.733173,0,2025-11-07 15:08:29.712933462
2025-11-07 15:08:28.733173,121,2025-11-07 15:08:29.720625769
2025-11-07 15:08:28.733173,30464,2025-11-07 15:08:29.728318077
2025-11-07 15:08:28.733173,0,2025-11-07 15:08:29.736010385
2025-11-07 15:08:28.733173,126,2025-11-07 15:08:29.743702692
2025-11-07 15:08:28.733173,31488,2025-11-07 15:08:29.751395000
2025-11-07 15:08:28.733173,0,2025-11-07 15:08:29.759087308
2025-11-07 15:08:28.733173,121,2025-11-07 15:08:29.766779615
2025-11-07 15:08:28.733173,-32768,2025-11-07 15:08:29.774471923
2025-11-07 15:08:28.733173,0,2025-11-07 15:08:29.782164231
2025-11-07 15:08:28.733173,133,2025-11-07 15:08:29.789856538
2025-11-07 15:08:28.733173,31488,2025-11-07 15:08:29.797548846
2025-11-07 15:08:28.733173,0,2025-11-07 15:08:29.805241154
2025-11-07 15:08:28.733173,116,2025-11-07 15:08:29.812933462
2025-11-07 15:08:28.733173,30464,2025-11-07 15:08:29.820625769
2025-11-07 15:08:28.733173,0,2025-11-07 15:08:29.828318077
2025-11-07 15:08:28.733173,114,2025-11-07 15:08:29.836010385
2025-11-07 15:08:28.733173,23552,2025-11-07 15:08:29.843702692
2025-11-07 15:08:28.733173,0,2025-11-07 15:08:29.851395000
2025-11-07 15:08:28.733173,78,2025-11-07 15:08:29.859087308
2025-11-07 15:08:28.733173,18176,2025-11-07 15:08:29.866779615
2025-11-07 15:08:28.733173,0,2025-11-07 15:08:29.874471923
2025-11-07 15:08:28.733173,61,2025-11-07 15:08:29.882164231
2025-11-07 15:08:28.733173,13312,2025-11-07 15:08:29.889856538
2025-11-07 15:08:28.733173,0,2025-11-07 15:08:29.897548846
2025-11-07 15:08:28.733173,47,2025-11-07 15:08:29.905241154
2025-11-07 15:08:28.733173,12800,2025-11-07 15:08:29.912933462
2025-11-07 15:08:28.733173,0,2025-11-07 15:08:29.920625769
2025-11-07 15:08:28.733173,45,2025-11-07 15:08:29.928318077
2025-11-07 15:08:28.733173,9728,2025-11-07 15:08:29.936010385
2025-11-07 15:08:28.733173,0,2025-11-07 15:08:29.943702692
2025-11-07 15:08:28.733173,38,2025-11-07 15:08:29.951395000
2025-11-07 15:08:28.733173,10240,2025-11-07 15:08:29.959087308
2025-11-07 15:08:28.733173,0,2025-11-07 15:08:29.966779615
2025-11-07 15:08:28.733173,45,2025-11-07 15:08:29.974471923
2025-11-07 15:08:28.733173,12032,2025-11-07 15:08:29.982164231
2025-11-07 15:08:28.733173,0,2025-11-07 15:08:29.989856538
2025-11-07 15:08:28.733173,40,2025-11-07 15:08:29.997548846
2025-11-07 15:08:28.733173,8960,2025-11-07 15:08:30.005241154
2025-11-07 15:08:28.733173,0,2025-11-07 15:08:30.012933462
2025-11-07 15:08:28.733173,40,2025-11-07 15:08:30.020625769
2025-11-07 15:08:28.733173,12032,2025-11-07 15:08:30.028318077
2025-11-07 15:08:28.733173,0,2025-11-07 15:08:30.036010385
2025-11-07 15:08:28.733173,52,2025-11-07 15:08:30.043702692
2025-11-07 15:08:28.733173,13824,2025-11-07 15:08:30.051395000
2025-11-07 15:08:28.733173,0,2025-11-07 15:08:30.059087308
2025-11-07 15:08:28.733173,57,2025-11-07 15:08:30.066779615
2025-11-07 15:08:28.733173,14592,2025-11-07 15:08:30.074471923
2025-11-07 15:08:28.733173,0,2025-11-07 15:08:30.082164231
2025-11-07 15:08:28.733173,47,2025-11-07 15:08:30.089856538
2025-11-07 15:08:28.733173,6656,2025-11-07 15:08:30.097548846
2025-11-07 15:08:28.733173,0,2025-11-07 15:08:30.105241154
2025-11-07 15:08:28.733173,-2,2025-11-07 15:08:30.112933462
2025-11-07 15:08:28.733173,-2049,2025-11-07 15:08:30.120625769
2025-11-07 15:08:28.733173,-1,2025-11-07 15:08:30.128318077
2025-11-07 15:08:28.733173,-4,2025-11-07 15:08:30.136010385
2025-11-07 15:08:28.733173,-769,2025-11-07 15:08:30.143702692
2025-11-07 15:08:28.733173,-1,2025-11-07 15:08:30.151395000
2025-11-07 15:08:28.733173,7,2025-11-07 15:08:30.159087308
2025-11-07 15:08:29.317637,28,2025-11-07 15:08:30.166779615
2025-11-07 15:08:29.317637,9728,2025-11-07 15:08:30.174471923
2025-11-07 15:08:29.317637,0,2025-11-07 15:08:30.182164230
2025-11-07 15:08:29.317637,33,2025-11-07 15:08:30.189856538
2025-11-07 15:08:29.317637,8448,2025-11-07 15:08:30.197548846
2025-11-07 15:08:29.317637,0,2025-11-07 15:08:30.205241154
2025-11-07 15:08:29.317637,38,2025-11-07 15:08:30.212933462
2025-11-07 15:08:29.317637,10240,2025-11-07 15:08:30.220625769
2025-11-07 15:08:29.317637,0,2025-11-07 15:08:30.228318077
2025-11-07 15:08:29.317637,57,2025-11-07 15:08:30.236010385
2025-11-07 15:08:29.317637,18176,2025-11-07 15:08:30.243702692
2025-11-07 15:08:29.317637,0,2025-11-07 15:08:30.251395000
2025-11-07 15:08:29.317637,71,2025-11-07 15:08:30.259087308
2025-11-07 15:08:29.317637,23552,2025-11-07 15:08:30.266779615
2025-11-07 15:08:29.317637,0,2025-11-07 15:08:30.274471923
2025-11-07 15:08:29.317637,133,2025-11-07 15:08:30.282164231
2025-11-07 15:08:29.317637,16384,2025-11-07 15:08:30.289856538
2025-11-07 15:08:29.317637,0,2025-11-07 15:08:30.297548846
2025-11-07 15:08:29.317637,-278,2025-11-07 15:08:30.305241154
2025-11-07 15:08:29.317637,10751,2025-11-07 15:08:30.312933462
2025-11-07 15:08:29.317637,-3,2025-11-07 15:08:30.320625769
2025-11-07 15:08:29.317637,-698,2025-11-07 15:08:30.328318077
2025-11-07 15:08:29.317637,15871,2025-11-07 15:08:30.336010385
2025-11-07 15:08:29.317637,-1,2025-11-07 15:08:30.343702692
2025-11-07 15:08:29.317637,102,2025-11-07 15:08:30.351395000
2025-11-07 15:08:29.317637,24832,2025-11-07 15:08:30.359087308
2025-11-07 15:08:29.317637,0,2025-11-07 15:08:30.366779615
2025-11-07 15:08:29.317637,126,2025-11-07 15:08:30.374471923
2025-11-07 15:08:29.317637,-23552,2025-11-07 15:08:30.382164231
2025-11-07 15:08:29.317637,0,2025-11-07 15:08:30.389856538
2025-11-07 15:08:29.317637,138,2025-11-07 15:08:30.397548846
2025-11-07 15:08:29.317637,30976,2025-11-07 15:08:30.405241154
2025-11-07 15:08:29.317637,0,2025-11-07 15:08:30.412933462
2025-11-07 15:08:29.317637,133,2025-11-07 15:08:30.420625769
2025-11-07 15:08:29.317637,-30976,2025-11-07 15:08:30.428318077
2025-11-07 15:08:29.317637,0,2025-11-07 15:08:30.436010385
2025-11-07 15:08:29.317637,123,2025-11-07 15:08:30.443702692
2025-11-07 15:08:29.317637,29184,2025-11-07 15:08:30.451395000
2025-11-07 15:08:29.317637,0,2025-11-07 15:08:30.459087308
2025-11-07 15:08:29.317637,119,2025-11-07 15:08:30.466779615
2025-11-07 15:08:29.317637,30464,2025-11-07 15:08:30.474471923
2025-11-07 15:08:29.317637,0,2025-11-07 15:08:30.482164231
2025-11-07 15:08:29.317637,109,2025-11-07 15:08:30.489856538
2025-11-07 15:08:29.317637,26624,2025-11-07 15:08:30.497548846
2025-11-07 15:08:29.317637,0,2025-11-07 15:08:30.505241154
2025-11-07 15:08:29.317637,107,2025-11-07 15:08:30.512933462
2025-11-07 15:08:29.317637,28672,2025-11-07 15:08:30.520625769
2025-11-07 15:08:29.317637,0,2025-11-07 15:08:30.528318077
2025-11-07 15:08:29.317637,109,2025-11-07 15:08:30.536010385
2025-11-07 15:08:29.317637,29696,2025-11-07 15:08:30.543702692
2025-11-07 15:08:29.317637,0,2025-11-07 15:08:30.551395000
2025-11-07 15:08:29.317637,128,2025-11-07 15:08:30.559087308
2025-11-07 15:08:29.317637,-32768,2025-11-07 15:08:30.566779615
2025-11-07 15:08:29.317637,0,2025-11-07 15:08:30.574471923
2025-11-07 15:08:29.317637,119,2025-11-07 15:08:30.582164231
2025-11-07 15:08:29.317637,27904,2025-11-07 15:08:30.589856538
2025-11-07 15:08:29.317637,0,2025-11-07 15:08:30.597548846
2025-11-07 15:08:29.317637,102,2025-11-07 15:08:30.605241154
2025-11-07 15:08:29.317637,23552,2025-11-07 15:08:30.612933462
2025-11-07 15:08:29.317637,0,2025-11-07 15:08:30.620625769
2025-11-07 15:08:29.317637,83,2025-11-07 15:08:30.628318077
2025-11-07 15:08:29.317637,18176,2025-11-07 15:08:30.636010385
2025-11-07 15:08:29.317637,0,2025-11-07 15:08:30.643702692
2025-11-07 15:08:29.317637,59,2025-11-07 15:08:30.651395000
2025-11-07 15:08:29.317637,12800,2025-11-07 15:08:30.659087308
2025-11-07 15:08:29.317637,0,2025-11-07 15:08:30.666779615
2025-11-07 15:08:29.317637,40,2025-11-07 15:08:30.674471923
2025-11-07 15:08:29.317637,7168,2025-11-07 15:08:30.682164231
2025-11-07 15:08:29.317637,0,2025-11-07 15:08:30.689856538
2025-11-07 15:08:29.317637,33,2025-11-07 15:08:30.697548846
2025-11-07 15:08:29.317637,10752,2025-11-07 15:08:30.705241154
2025-11-07 15:08:29.317637,0,2025-11-07 15:08:30.712933462
2025-11-07 15:08:29.317637,35,2025-11-07 15:08:30.720625769
2025-11-07 15:08:29.317637,7168,2025-11-07 15:08:30.728318077
2025-11-07 15:08:29.317637,0,2025-11-07 15:08:30.736010385
2025-11-07 15:08:29.317637,33,2025-11-07 15:08:30.743702692
2025-11-07 15:08:29.317637,9728,2025-11-07 15:08:30.751395000
2025-11-07 15:08:29.317637,0,2025-11-07 15:08:30.759087308
2025-11-07 15:08:29.317637,35,2025-11-07 15:08:30.766779615
2025-11-07 15:08:29.317637,8448,2025-11-07 15:08:30.774471923
2025-11-07 15:08:29.317637,0,2025-11-07 15:08:30.782164231
2025-11-07 15:08:29.317637,40,2025-11-07 15:08:30.789856538
2025-11-07 15:08:29.317637,12032,2025-11-07 15:08:30.797548846
2025-11-07 15:08:29.317637,0,2025-11-07 15:08:30.805241154
2025-11-07 15:08:29.317637,45,2025-11-07 15:08:30.812933462
2025-11-07 15:08:29.317637,9728,2025-11-07 15:08:30.820625769
2025-11-07 15:08:29.317637,0,2025-11-07 15:08:30.828318077
2025-11-07 15:08:29.317637,47,2025-11-07 15:08:30.836010385
2025-11-07 15:08:29.317637,15104,2025-11-07 15:08:30.843702692
2025-11-07 15:08:29.317637,0,2025-11-07 15:08:30.851395000
2025-11-07 15:08:29.317637,59,2025-11-07 15:08:30.859087308
2025-11-07 15:08:29.317637,15616,2025-11-07 15:08:30.866779615
2025-11-07 15:08:29.317637,0,2025-11-07 15:08:30.874471923
2025-11-07 15:08:29.317637,50,2025-11-07 15:08:30.882164231
2025-11-07 15:08:29.317637,4096,2025-11-07 15:08:30.889856538
2025-11-07 15:08:29.317637,0,2025-11-07 15:08:30.897548846
2025-11-07 15:08:29.317637,-4,2025-11-07 15:08:30.905241154
2025-11-07 15:08:29.317637,-769,2025-11-07 15:08:30.912933462
2025-11-07 15:08:29.317637,-1,2025-11-07 15:08:30.920625769
2025-11-07 15:08:29.317637,-4,2025-11-07 15:08:30.928318077
2025-11-07 15:08:29.317637,-257,2025-11-07 15:08:30.936010385
2025-11-07 15:08:29.317637,-1,2025-11-07 15:08:30.943702692
2025-11-07 15:08:29.317637,14,2025-11-07 15:08:30.951395000
2025-11-07 15:08:29.317637,8448,2025-11-07 15:08:30.959087308
2025-11-07 15:08:29.317637,0,2025-11-07 15:08:30.966779615
2025-11-07 15:08:29.317637,33,2025-11-07 15:08:30.974471923
2025-11-07 15:08:29.317637,7168,2025-11-07 15:08:30.982164231
2025-11-07 15:08:29.317637,0,2025-11-07 15:08:30.989856538
2025-11-07 15:08:29.317637,35,2025-11-07 15:08:30.997548846
2025-11-07 15:08:29.859286,40,2025-11-07 15:08:31.005241154
2025-11-07 15:08:29.859286,8448,2025-11-07 15:08:31.012933462
2025-11-07 15:08:29.859286,0,2025-11-07 15:08:31.020625769
2025-11-07 15:08:29.859286,30,2025-11-07 15:08:31.028318077
2025-11-07 15:08:29.859286,10752,2025-11-07 15:08:31.036010385
2025-11-07 15:08:29.859286,0,2025-11-07 15:08:31.043702692
2025-11-07 15:08:29.859286,54,2025-11-07 15:08:31.051395000
2025-11-07 15:08:29.859286,21760,2025-11-07 15:08:31.059087308
2025-11-07 15:08:29.859286,0,2025-11-07 15:08:31.066779615
2025-11-07 15:08:29.859286,112,2025-11-07 15:08:31.074471923
2025-11-07 15:08:29.859286,-8448,2025-11-07 15:08:31.082164231
2025-11-07 15:08:29.859286,-1,2025-11-07 15:08:31.089856538
2025-11-07 15:08:29.859286,-488,2025-11-07 15:08:31.097548846
2025-11-07 15:08:29.859286,-25089,2025-11-07 15:08:31.105241154
2025-11-07 15:08:29.859286,-4,2025-11-07 15:08:31.112933462
2025-11-07 15:08:29.859286,-603,2025-11-07 15:08:31.120625769
2025-11-07 15:08:29.859286,-10497,2025-11-07 15:08:31.128318077
2025-11-07 15:08:29.859286,-1,2025-11-07 15:08:31.136010385
2025-11-07 15:08:29.859286,143,2025-11-07 15:08:31.143702692
2025-11-07 15:08:29.859286,28672,2025-11-07 15:08:31.151395000
2025-11-07 15:08:29.859286,0,2025-11-07 15:08:31.159087308
2025-11-07 15:08:29.859286,154,2025-11-07 15:08:31.166779615
2025-11-07 15:08:29.859286,-20992,2025-11-07 15:08:31.174471923
2025-11-07 15:08:29.859286,0,2025-11-07 15:08:31.182164230
2025-11-07 15:08:29.859286,147,2025-11-07 15:08:31.189856538
2025-11-07 15:08:29.859286,-28416,2025-11-07 15:08:31.197548846
2025-11-07 15:08:29.859286,0,2025-11-07 15:08:31.205241154
2025-11-07 15:08:29.859286,145,2025-11-07 15:08:31.212933462
2025-11-07 15:08:29.859286,-31488,2025-11-07 15:08:31.220625769
2025-11-07 15:08:29.859286,0,2025-11-07 15:08:31.228318077
2025-11-07 15:08:29.859286,133,2025-11-07 15:08:31.236010385
2025-11-07 15:08:29.859286,-31488,2025-11-07 15:08:31.243702692
2025-11-07 15:08:29.859286,0,2025-11-07 15:08:31.251395000
2025-11-07 15:08:29.859286,121,2025-11-07 15:08:31.259087308
2025-11-07 15:08:29.859286,29696,2025-11-07 15:08:31.266779615
2025-11-07 15:08:29.859286,0,2025-11-07 15:08:31.274471923
2025-11-07 15:08:29.859286,123,2025-11-07 15:08:31.282164231
2025-11-07 15:08:29.859286,-32768,2025-11-07 15:08:31.289856538
2025-11-07 15:08:29.859286,0,2025-11-07 15:08:31.297548846
2025-11-07 15:08:29.859286,123,2025-11-07 15:08:31.305241154
2025-11-07 15:08:29.859286,30976,2025-11-07 15:08:31.312933462
2025-11-07 15:08:29.859286,0,2025-11-07 15:08:31.320625769
2025-11-07 15:08:29.859286,123,2025-11-07 15:08:31.328318077
2025-11-07 15:08:29.859286,31488,2025-11-07 15:08:31.336010385
2025-11-07 15:08:29.859286,0,2025-11-07 15:08:31.343702692
2025-11-07 15:08:29.859286,128,2025-11-07 15:08:31.351395000
2025-11-07 15:08:29.859286,-30976,2025-11-07 15:08:31.359087308
2025-11-07 15:08:29.859286,0,2025-11-07 15:08:31.366779615
2025-11-07 15:08:29.859286,131,2025-11-07 15:08:31.374471923
2025-11-07 15:08:29.859286,31488,2025-11-07 15:08:31.382164231
2025-11-07 15:08:29.859286,0,2025-11-07 15:08:31.389856538
2025-11-07 15:08:29.859286,119,2025-11-07 15:08:31.397548846
2025-11-07 15:08:29.859286,26112,2025-11-07 15:08:31.405241154
2025-11-07 15:08:29.859286,0,2025-11-07 15:08:31.412933462
2025-11-07 15:08:29.859286,76,2025-11-07 15:08:31.420625769
2025-11-07 15:08:29.859286,15616,2025-11-07 15:08:31.428318077
2025-11-07 15:08:29.859286,0,2025-11-07 15:08:31.436010385
2025-11-07 15:08:29.859286,50,2025-11-07 15:08:31.443702692
2025-11-07 15:08:29.859286,8960,2025-11-07 15:08:31.451395000
2025-11-07 15:08:29.859286,0,2025-11-07 15:08:31.459087308
2025-11-07 15:08:29.859286,28,2025-11-07 15:08:31.466779615
2025-11-07 15:08:29.859286,6656,2025-11-07 15:08:31.474471923
2025-11-07 15:08:29.859286,0,2025-11-07 15:08:31.482164231
2025-11-07 15:08:29.859286,23,2025-11-07 15:08:31.489856538
2025-11-07 15:08:29.859286,5376,2025-11-07 15:08:31.497548846
2025-11-07 15:08:29.859286,0,2025-11-07 15:08:31.505241154
2025-11-07 15:08:29.859286,23,2025-11-07 15:08:31.512933462
2025-11-07 15:08:29.859286,6656,2025-11-07 15:08:31.520625769
2025-11-07 15:08:29.859286,0,2025-11-07 15:08:31.528318077
2025-11-07 15:08:29.859286,23,2025-11-07 15:08:31.536010385
2025-11-07 15:08:29.859286,6656,2025-11-07 15:08:31.543702692
2025-11-07 15:08:29.859286,0,2025-11-07 15:08:31.551395000
2025-11-07 15:08:29.859286,33,2025-11-07 15:08:31.559087308
2025-11-07 15:08:29.859286,9728,2025-11-07 15:08:31.566779615
2025-11-07 15:08:29.859286,0,2025-11-07 15:08:31.574471923
2025-11-07 15:08:29.859286,40,2025-11-07 15:08:31.582164231
2025-11-07 15:08:29.859286,10240,2025-11-07 15:08:31.589856538
2025-11-07 15:08:29.859286,0,2025-11-07 15:08:31.597548846
2025-11-07 15:08:29.859286,40,2025-11-07 15:08:31.605241154
2025-11-07 15:08:29.859286,12032,2025-11-07 15:08:31.612933462
2025-11-07 15:08:29.859286,0,2025-11-07 15:08:31.620625769
2025-11-07 15:08:29.859286,52,2025-11-07 15:08:31.628318077
2025-11-07 15:08:29.859286,13312,2025-11-07 15:08:31.636010385
2025-11-07 15:08:29.859286,0,2025-11-07 15:08:31.643702692
2025-11-07 15:08:29.859286,57,2025-11-07 15:08:31.651395000
2025-11-07 15:08:29.859286,13824,2025-11-07 15:08:31.659087308
2025-11-07 15:08:29.859286,0,2025-11-07 15:08:31.666779615
2025-11-07 15:08:29.859286,21,2025-11-07 15:08:31.674471923
2025-11-07 15:08:29.859286,-1024,2025-11-07 15:08:31.682164231
2025-11-07 15:08:29.859286,-1,2025-11-07 15:08:31.689856538
2025-11-07 15:08:29.859286,-7,2025-11-07 15:08:31.697548846
2025-11-07 15:08:29.859286,-1537,2025-11-07 15:08:31.705241154
2025-11-07 15:08:29.859286,-1,2025-11-07 15:08:31.712933462
2025-11-07 15:08:29.859286,-9,2025-11-07 15:08:31.720625769
2025-11-07 15:08:29.859286,767,2025-11-07 15:08:31.728318077
2025-11-07 15:08:29.859286,0,2025-11-07 15:08:31.736010385
2025-11-07 15:08:29.859286,23,2025-11-07 15:08:31.743702692
2025-11-07 15:08:29.859286,8448,2025-11-07 15:08:31.751395000
2025-11-07 15:08:29.859286,0,2025-11-07 15:08:31.759087308
2025-11-07 15:08:29.859286,28,2025-11-07 15:08:31.766779615
2025-11-07 15:08:29.859286,7168,2025-11-07 15:08:31.774471923
2025-11-07 15:08:29.859286,0,2025-11-07 15:08:31.782164231
2025-11-07 15:08:29.859286,30,2025-11-07 15:08:31.789856538
2025-11-07 15:08:29.859286,7168,2025-11-07 15:08:31.797548846
2025-11-07 15:08:29.859286,0,2025-11-07 15:08:31.805241154
2025-11-07 15:08:29.859286,26,2025-11-07 15:08:31.812933462
2025-11-07 15:08:29.859286,7680,2025-11-07 15:08:31.820625769
2025-11-07 15:08:29.859286,0,2025-11-07 15:08:31.828318077
2025-11-07 15:08:29.859286,45,2025-11-07 15:08:31.836010385
2025-11-07 15:08:30.443858,83,2025-11-07 15:08:31.843702692
2025-11-07 15:08:30.443858,29184,2025-11-07 15:08:31.851395000
2025-11-07 15:08:30.443858,0,2025-11-07 15:08:31.859087308
2025-11-07 15:08:30.443858,-14,2025-11-07 15:08:31.866779615
2025-11-07 15:08:30.443858,11263,2025-11-07 15:08:31.874471923
2025-11-07 15:08:30.443858,-2,2025-11-07 15:08:31.882164231
2025-11-07 15:08:30.443858,-903,2025-11-07 15:08:31.889856538
2025-11-07 15:08:30.443858,21759,2025-11-07 15:08:31.897548846
2025-11-07 15:08:30.443858,-3,2025-11-07 15:08:31.905241154
2025-11-07 15:08:30.443858,-85,2025-11-07 15:08:31.912933462
2025-11-07 15:08:30.443858,-24577,2025-11-07 15:08:31.920625769
2025-11-07 15:08:30.443858,0,2025-11-07 15:08:31.928318077
2025-11-07 15:08:30.443858,126,2025-11-07 15:08:31.936010385
2025-11-07 15:08:30.443858,-28416,2025-11-07 15:08:31.943702692
2025-11-07 15:08:30.443858,0,2025-11-07 15:08:31.951395000
2025-11-07 15:08:30.443858,171,2025-11-07 15:08:31.959087308
2025-11-07 15:08:30.443858,-26624,2025-11-07 15:08:31.966779615
2025-11-07 15:08:30.443858,0,2025-11-07 15:08:31.974471923
2025-11-07 15:08:30.443858,147,2025-11-07 15:08:31.982164231
2025-11-07 15:08:30.443858,-27904,2025-11-07 15:08:31.989856538
2025-11-07 15:08:30.443858,0,2025-11-07 15:08:31.997548846
2025-11-07 15:08:30.443858,135,2025-11-07 15:08:32.005241154
2025-11-07 15:08:30.443858,-30976,2025-11-07 15:08:32.012933462
2025-11-07 15:08:30.443858,0,2025-11-07 15:08:32.020625769
2025-11-07 15:08:30.443858,133,2025-11-07 15:08:32.028318077
2025-11-07 15:08:30.443858,-32768,2025-11-07 15:08:32.036010385
2025-11-07 15:08:30.443858,0,2025-11-07 15:08:32.043702692
2025-11-07 15:08:30.443858,123,2025-11-07 15:08:32.051395000
2025-11-07 15:08:30.443858,30464,2025-11-07 15:08:32.059087308
2025-11-07 15:08:30.443858,0,2025-11-07 15:08:32.066779615
2025-11-07 15:08:30.443858,123,2025-11-07 15:08:32.074471923
2025-11-07 15:08:30.443858,32256,2025-11-07 15:08:32.082164231
2025-11-07 15:08:30.443858,0,2025-11-07 15:08:32.089856538
2025-11-07 15:08:30.443858,116,2025-11-07 15:08:32.097548846
2025-11-07 15:08:30.443858,29696,2025-11-07 15:08:32.105241154
2025-11-07 15:08:30.443858,0,2025-11-07 15:08:32.112933462
2025-11-07 15:08:30.443858,133,2025-11-07 15:08:32.120625769
2025-11-07 15:08:30.443858,-31488,2025-11-07 15:08:32.128318077
2025-11-07 15:08:30.443858,0,2025-11-07 15:08:32.136010385
2025-11-07 15:08:30.443858,126,2025-11-07 15:08:32.143702692
2025-11-07 15:08:30.443858,-32768,2025-11-07 15:08:32.151395000
2025-11-07 15:08:30.443858,0,2025-11-07 15:08:32.159087308
2025-11-07 15:08:30.443858,128,2025-11-07 15:08:32.166779615
2025-11-07 15:08:30.443858,28672,2025-11-07 15:08:32.174471923
2025-11-07 15:08:30.443858,0,2025-11-07 15:08:32.182164230
2025-11-07 15:08:30.443858,97,2025-11-07 15:08:32.189856538
2025-11-07 15:08:30.443858,20736,2025-11-07 15:08:32.197548846
2025-11-07 15:08:30.443858,0,2025-11-07 15:08:32.205241154
2025-11-07 15:08:30.443858,64,2025-11-07 15:08:32.212933462
2025-11-07 15:08:30.443858,11520,2025-11-07 15:08:32.220625769
2025-11-07 15:08:30.443858,0,2025-11-07 15:08:32.228318077
2025-11-07 15:08:30.443858,30,2025-11-07 15:08:32.236010385
2025-11-07 15:08:30.443858,4864,2025-11-07 15:08:32.243702692
2025-11-07 15:08:30.443858,0,2025-11-07 15:08:32.251395000
2025-11-07 15:08:30.443858,14,2025-11-07 15:08:32.259087308
2025-11-07 15:08:30.443858,3584,2025-11-07 15:08:32.266779615
2025-11-07 15:08:30.443858,0,2025-11-07 15:08:32.274471923
2025-11-07 15:08:30.443858,14,2025-11-07 15:08:32.282164231
2025-11-07 15:08:30.443858,4096,2025-11-07 15:08:32.289856538
2025-11-07 15:08:30.443858,0,2025-11-07 15:08:32.297548846
2025-11-07 15:08:30.443858,19,2025-11-07 15:08:32.305241154
2025-11-07 15:08:30.443858,5888,2025-11-07 15:08:32.312933462
2025-11-07 15:08:30.443858,0,2025-11-07 15:08:32.320625769
2025-11-07 15:08:30.443858,23,2025-11-07 15:08:32.328318077
2025-11-07 15:08:30.443858,4096,2025-11-07 15:08:32.336010385
2025-11-07 15:08:30.443858,0,2025-11-07 15:08:32.343702692
2025-11-07 15:08:30.443858,11,2025-11-07 15:08:32.351395000
2025-11-07 15:08:30.443858,3584,2025-11-07 15:08:32.359087308
2025-11-07 15:08:30.443858,0,2025-11-07 15:08:32.366779615
2025-11-07 15:08:30.443858,21,2025-11-07 15:08:32.374471923
2025-11-07 15:08:30.443858,7168,2025-11-07 15:08:32.382164231
2025-11-07 15:08:30.443858,0,2025-11-07 15:08:32.389856538
2025-11-07 15:08:30.443858,40,2025-11-07 15:08:32.397548846
2025-11-07 15:08:30.443858,11520,2025-11-07 15:08:32.405241154
2025-11-07 15:08:30.443858,0,2025-11-07 15:08:32.412933462
2025-11-07 15:08:30.443858,45,2025-11-07 15:08:32.420625769
2025-11-07 15:08:30.443858,11520,2025-11-07 15:08:32.428318077
2025-11-07 15:08:30.443858,0,2025-11-07 15:08:32.436010385
2025-11-07 15:08:30.443858,28,2025-11-07 15:08:32.443702692
2025-11-07 15:08:30.443858,-512,2025-11-07 15:08:32.451395000
2025-11-07 15:08:30.443858,-1,2025-11-07 15:08:32.459087308
2025-11-07 15:08:30.443858,-16,2025-11-07 15:08:32.466779615
2025-11-07 15:08:30.443858,-5121,2025-11-07 15:08:32.474471923
2025-11-07 15:08:30.443858,-1,2025-11-07 15:08:32.482164231
2025-11-07 15:08:30.443858,-23,2025-11-07 15:08:32.489856538
2025-11-07 15:08:30.443858,-3329,2025-11-07 15:08:32.497548846
2025-11-07 15:08:30.443858,-1,2025-11-07 15:08:32.505241154
2025-11-07 15:08:30.443858,9,2025-11-07 15:08:32.512933462
2025-11-07 15:08:30.443858,7168,2025-11-07 15:08:32.520625769
2025-11-07 15:08:30.443858,0,2025-11-07 15:08:32.528318077
2025-11-07 15:08:30.443858,33,2025-11-07 15:08:32.536010385
2025-11-07 15:08:30.443858,7680,2025-11-07 15:08:32.543702692
2025-11-07 15:08:30.443858,0,2025-11-07 15:08:32.551395000
2025-11-07 15:08:30.443858,28,2025-11-07 15:08:32.559087308
2025-11-07 15:08:30.443858,7680,2025-11-07 15:08:32.566779615
2025-11-07 15:08:30.443858,0,2025-11-07 15:08:32.574471923
2025-11-07 15:08:30.443858,40,2025-11-07 15:08:32.582164231
2025-11-07 15:08:30.443858,9728,2025-11-07 15:08:32.589856538
2025-11-07 15:08:30.443858,0,2025-11-07 15:08:32.597548846
2025-11-07 15:08:30.443858,33,2025-11-07 15:08:32.605241154
2025-11-07 15:08:30.443858,13824,2025-11-07 15:08:32.612933462
2025-11-07 15:08:30.443858,0,2025-11-07 15:08:32.620625769
2025-11-07 15:08:30.443858,97,2025-11-07 15:08:32.628318077
2025-11-07 15:08:30.443858,21760,2025-11-07 15:08:32.636010385
2025-11-07 15:08:30.443858,0,2025-11-07 15:08:32.643702692
2025-11-07 15:08:30.443858,-183,2025-11-07 15:08:32.651395000
2025-11-07 15:08:30.443858,17407,2025-11-07 15:08:32.659087308
2025-11-07 15:08:30.443858,-3,2025-11-07 15:08:32.666779615
2025-11-07 15:08:30.443858,-884,2025-11-07 15:08:32.674471923
2025-11-07 15:08:30.980897,-410,2025-11-07 15:08:32.682164231
2025-11-07 15:08:30.980897,17919,2025-11-07 15:08:32.689856538
2025-11-07 15:08:30.980897,0,2025-11-07 15:08:32.697548846
2025-11-07 15:08:30.980897,126,2025-11-07 15:08:32.705241154
2025-11-07 15:08:30.980897,27392,2025-11-07 15:08:32.712933462
2025-11-07 15:08:30.980897,0,2025-11-07 15:08:32.720625769
2025-11-07 15:08:30.980897,157,2025-11-07 15:08:32.728318077
2025-11-07 15:08:30.980897,-28416,2025-11-07 15:08:32.736010385
2025-11-07 15:08:30.980897,0,2025-11-07 15:08:32.743702692
2025-11-07 15:08:30.980897,123,2025-11-07 15:08:32.751395000
2025-11-07 15:08:30.980897,-30208,2025-11-07 15:08:32.759087308
2025-11-07 15:08:30.980897,0,2025-11-07 15:08:32.766779615
2025-11-07 15:08:30.980897,138,2025-11-07 15:08:32.774471923
2025-11-07 15:08:30.980897,-31488,2025-11-07 15:08:32.782164231
2025-11-07 15:08:30.980897,0,2025-11-07 15:08:32.789856538
2025-11-07 15:08:30.980897,147,2025-11-07 15:08:32.797548846
2025-11-07 15:08:30.980897,-27136,2025-11-07 15:08:32.805241154
2025-11-07 15:08:30.980897,0,2025-11-07 15:08:32.812933462
2025-11-07 15:08:30.980897,135,2025-11-07 15:08:32.820625769
2025-11-07 15:08:30.980897,-31488,2025-11-07 15:08:32.828318077
2025-11-07 15:08:30.980897,0,2025-11-07 15:08:32.836010385
2025-11-07 15:08:30.980897,138,2025-11-07 15:08:32.843702692
2025-11-07 15:08:30.980897,-30976,2025-11-07 15:08:32.851395000
2025-11-07 15:08:30.980897,0,2025-11-07 15:08:32.859087308
2025-11-07 15:08:30.980897,138,2025-11-07 15:08:32.866779615
2025-11-07 15:08:30.980897,-29696,2025-11-07 15:08:32.874471923
2025-11-07 15:08:30.980897,0,2025-11-07 15:08:32.882164231
2025-11-07 15:08:30.980897,140,2025-11-07 15:08:32.889856538
2025-11-07 15:08:30.980897,-29696,2025-11-07 15:08:32.897548846
2025-11-07 15:08:30.980897,0,2025-11-07 15:08:32.905241154
2025-11-07 15:08:30.980897,143,2025-11-07 15:08:32.912933462
2025-11-07 15:08:30.980897,-28928,2025-11-07 15:08:32.920625769
2025-11-07 15:08:30.980897,0,2025-11-07 15:08:32.928318077
2025-11-07 15:08:30.980897,138,2025-11-07 15:08:32.936010385
2025-11-07 15:08:30.980897,-32000,2025-11-07 15:08:32.943702692
2025-11-07 15:08:30.980897,0,2025-11-07 15:08:32.951395000
2025-11-07 15:08:30.980897,114,2025-11-07 15:08:32.959087308
2025-11-07 15:08:30.980897,24320,2025-11-07 15:08:32.966779615
2025-11-07 15:08:30.980897,0,2025-11-07 15:08:32.974471923
2025-11-07 15:08:30.980897,83,2025-11-07 15:08:32.982164231
2025-11-07 15:08:30.980897,18176,2025-11-07 15:08:32.989856538
2025-11-07 15:08:30.980897,0,2025-11-07 15:08:32.997548846
2025-11-07 15:08:30.980897,54,2025-11-07 15:08:33.005241154
2025-11-07 15:08:30.980897,12032,2025-11-07 15:08:33.012933462
2025-11-07 15:08:30.980897,0,2025-11-07 15:08:33.020625769
2025-11-07 15:08:30.980897,40,2025-11-07 15:08:33.028318077
2025-11-07 15:08:30.980897,8448,2025-11-07 15:08:33.036010385
2025-11-07 15:08:30.980897,0,2025-11-07 15:08:33.043702692
2025-11-07 15:08:30.980897,33,2025-11-07 15:08:33.051395000
2025-11-07 15:08:30.980897,7680,2025-11-07 15:08:33.059087308
2025-11-07 15:08:30.980897,0,2025-11-07 15:08:33.066779615
2025-11-07 15:08:30.980897,35,2025-11-07 15:08:33.074471923
2025-11-07 15:08:30.980897,9728,2025-11-07 15:08:33.082164231
2025-11-07 15:08:30.980897,0,2025-11-07 15:08:33.089856538
2025-11-07 15:08:30.980897,40,2025-11-07 15:08:33.097548846
2025-11-07 15:08:30.980897,10240,2025-11-07 15:08:33.105241154
2025-11-07 15:08:30.980897,0,2025-11-07 15:08:33.112933462
2025-11-07 15:08:30.980897,42,2025-11-07 15:08:33.120625769
2025-11-07 15:08:30.980897,11520,2025-11-07 15:08:33.128318077
2025-11-07 15:08:30.980897,0,2025-11-07 15:08:33.136010385
2025-11-07 15:08:30.980897,42,2025-11-07 15:08:33.143702692
2025-11-07 15:08:30.980897,9728,2025-11-07 15:08:33.151395000
2025-11-07 15:08:30.980897,0,2025-11-07 15:08:33.159087308
2025-11-07 15:08:30.980897,40,2025-11-07 15:08:33.166779615
2025-11-07 15:08:30.980897,12032,2025-11-07 15:08:33.174471923
2025-11-07 15:08:30.980897,0,2025-11-07 15:08:33.182164230
2025-11-07 15:08:30.980897,50,2025-11-07 15:08:33.189856538
2025-11-07 15:08:30.980897,12800,2025-11-07 15:08:33.197548846
2025-11-07 15:08:30.980897,0,2025-11-07 15:08:33.205241154
2025-11-07 15:08:30.980897,57,2025-11-07 15:08:33.212933462
2025-11-07 15:08:30.980897,15616,2025-11-07 15:08:33.220625769
2025-11-07 15:08:30.980897,0,2025-11-07 15:08:33.228318077
2025-11-07 15:08:30.980897,50,2025-11-07 15:08:33.236010385
2025-11-07 15:08:30.980897,5888,2025-11-07 15:08:33.243702692
2025-11-07 15:08:30.980897,0,2025-11-07 15:08:33.251395000
2025-11-07 15:08:30.980897,11,2025-11-07 15:08:33.259087308
2025-11-07 15:08:30.980897,1024,2025-11-07 15:08:33.266779615
2025-11-07 15:08:30.980897,0,2025-11-07 15:08:33.274471923
2025-11-07 15:08:30.980897,-4,2025-11-07 15:08:33.282164231
2025-11-07 15:08:30.980897,-769,2025-11-07 15:08:33.289856538
2025-11-07 15:08:30.980897,-1,2025-11-07 15:08:33.297548846
2025-11-07 15:08:30.980897,16,2025-11-07 15:08:33.305241154
2025-11-07 15:08:30.980897,9728,2025-11-07 15:08:33.312933462
2025-11-07 15:08:30.980897,0,2025-11-07 15:08:33.320625769
2025-11-07 15:08:30.980897,42,2025-11-07 15:08:33.328318077
2025-11-07 15:08:30.980897,10752,2025-11-07 15:08:33.336010385
2025-11-07 15:08:30.980897,0,2025-11-07 15:08:33.343702692
2025-11-07 15:08:30.980897,52,2025-11-07 15:08:33.351395000
2025-11-07 15:08:30.980897,13312,2025-11-07 15:08:33.359087308
2025-11-07 15:08:30.980897,0,2025-11-07 15:08:33.366779615
2025-11-07 15:08:30.980897,50,2025-11-07 15:08:33.374471923
2025-11-07 15:08:30.980897,13824,2025-11-07 15:08:33.382164231
2025-11-07 15:08:30.980897,0,2025-11-07 15:08:33.389856538
2025-11-07 15:08:30.980897,59,2025-11-07 15:08:33.397548846
2025-11-07 15:08:30.980897,15616,2025-11-07 15:08:33.405241154
2025-11-07 15:08:30.980897,0,2025-11-07 15:08:33.412933462
2025-11-07 15:08:30.980897,95,2025-11-07 15:08:33.420625769
2025-11-07 15:08:30.980897,-31488,2025-11-07 15:08:33.428318077
2025-11-07 15:08:30.980897,0,2025-11-07 15:08:33.436010385
2025-11-07 15:08:30.980897,38,2025-11-07 15:08:33.443702692
2025-11-07 15:08:30.980897,-25344,2025-11-07 15:08:33.451395000
2025-11-07 15:08:30.980897,-2,2025-11-07 15:08:33.459087308
2025-11-07 15:08:30.980897,-815,2025-11-07 15:08:33.466779615
2025-11-07 15:08:30.980897,12543,2025-11-07 15:08:33.474471923
2025-11-07 15:08:30.980897,-3,2025-11-07 15:08:33.482164231
2025-11-07 15:08:30.980897,-150,2025-11-07 15:08:33.489856538
2025-11-07 15:08:30.980897,-24577,2025-11-07 15:08:33.497548846
2025-11-07 15:08:30.980897,0,2025-11-07 15:08:33.505241154
2025-11-07 15:08:30.980897,140,2025-11-07 15:08:33.512933462
2025-11-07 15:08:31.610567,154,2025-11-07 15:08:33.520625769
2025-11-07 15:08:31.610567,-16896,2025-11-07 15:08:33.528318077
2025-11-07 15:08:31.610567,0,2025-11-07 15:08:33.536010385
2025-11-07 15:08:31.610567,166,2025-11-07 15:08:33.543702692
2025-11-07 15:08:31.610567,-26112,2025-11-07 15:08:33.551395000
2025-11-07 15:08:31.610567,0,2025-11-07 15:08:33.559087308
2025-11-07 15:08:31.610567,169,2025-11-07 15:08:33.566779615
2025-11-07 15:08:31.610567,-25344,2025-11-07 15:08:33.574471923
2025-11-07 15:08:31.610567,0,2025-11-07 15:08:33.582164231
2025-11-07 15:08:31.610567,150,2025-11-07 15:08:33.589856538
2025-11-07 15:08:31.610567,-22272,2025-11-07 15:08:33.597548846
2025-11-07 15:08:31.610567,0,2025-11-07 15:08:33.605241154
2025-11-07 15:08:31.610567,176,2025-11-07 15:08:33.612933462
2025-11-07 15:08:31.610567,-23040,2025-11-07 15:08:33.620625769
2025-11-07 15:08:31.610567,0,2025-11-07 15:08:33.628318077
2025-11-07 15:08:31.610567,162,2025-11-07 15:08:33.636010385
2025-11-07 15:08:31.610567,-24064,2025-11-07 15:08:33.643702692
2025-11-07 15:08:31.610567,0,2025-11-07 15:08:33.651395000
2025-11-07 15:08:31.610567,154,2025-11-07 15:08:33.659087308
2025-11-07 15:08:31.610567,-25344,2025-11-07 15:08:33.666779615
2025-11-07 15:08:31.610567,0,2025-11-07 15:08:33.674471923
2025-11-07 15:08:31.610567,162,2025-11-07 15:08:33.682164231
2025-11-07 15:08:31.610567,-24832,2025-11-07 15:08:33.689856538
2025-11-07 15:08:31.610567,0,2025-11-07 15:08:33.697548846
2025-11-07 15:08:31.610567,157,2025-11-07 15:08:33.705241154
2025-11-07 15:08:31.610567,-24064,2025-11-07 15:08:33.712933462
2025-11-07 15:08:31.610567,0,2025-11-07 15:08:33.720625769
2025-11-07 15:08:31.610567,162,2025-11-07 15:08:33.728318077
2025-11-07 15:08:31.610567,-26112,2025-11-07 15:08:33.736010385
2025-11-07 15:08:31.610567,0,2025-11-07 15:08:33.743702692
2025-11-07 15:08:31.610567,147,2025-11-07 15:08:33.751395000
2025-11-07 15:08:31.610567,-30208,2025-11-07 15:08:33.759087308
2025-11-07 15:08:31.610567,0,2025-11-07 15:08:33.766779615
2025-11-07 15:08:31.610567,121,2025-11-07 15:08:33.774471923
2025-11-07 15:08:31.610567,25600,2025-11-07 15:08:33.782164231
2025-11-07 15:08:31.610567,0,2025-11-07 15:08:33.789856538
2025-11-07 15:08:31.610567,88,2025-11-07 15:08:33.797548846
2025-11-07 15:08:31.610567,19968,2025-11-07 15:08:33.805241154
2025-11-07 15:08:31.610567,0,2025-11-07 15:08:33.812933462
2025-11-07 15:08:31.610567,66,2025-11-07 15:08:33.820625769
2025-11-07 15:08:31.610567,16384,2025-11-07 15:08:33.828318077
2025-11-07 15:08:31.610567,0,2025-11-07 15:08:33.836010385
2025-11-07 15:08:31.610567,64,2025-11-07 15:08:33.843702692
2025-11-07 15:08:31.610567,15616,2025-11-07 15:08:33.851395000
2025-11-07 15:08:31.610567,0,2025-11-07 15:08:33.859087308
2025-11-07 15:08:31.610567,64,2025-11-07 15:08:33.866779615
2025-11-07 15:08:31.610567,16384,2025-11-07 15:08:33.874471923
2025-11-07 15:08:31.610567,0,2025-11-07 15:08:33.882164231
2025-11-07 15:08:31.610567,59,2025-11-07 15:08:33.889856538
2025-11-07 15:08:31.610567,14592,2025-11-07 15:08:33.897548846
2025-11-07 15:08:31.610567,0,2025-11-07 15:08:33.905241154
2025-11-07 15:08:31.610567,57,2025-11-07 15:08:33.912933462
2025-11-07 15:08:31.610567,15104,2025-11-07 15:08:33.920625769
2025-11-07 15:08:31.610567,0,2025-11-07 15:08:33.928318077
2025-11-07 15:08:31.610567,61,2025-11-07 15:08:33.936010385
2025-11-07 15:08:31.610567,16384,2025-11-07 15:08:33.943702692
2025-11-07 15:08:31.610567,0,2025-11-07 15:08:33.951395000
2025-11-07 15:08:31.610567,61,2025-11-07 15:08:33.959087308
2025-11-07 15:08:31.610567,14592,2025-11-07 15:08:33.966779615
2025-11-07 15:08:31.610567,0,2025-11-07 15:08:33.974471923
2025-11-07 15:08:31.610567,59,2025-11-07 15:08:33.982164231
2025-11-07 15:08:31.610567,15616,2025-11-07 15:08:33.989856538
2025-11-07 15:08:31.610567,0,2025-11-07 15:08:33.997548846
2025-11-07 15:08:31.610567,57,2025-11-07 15:08:34.005241154
2025-11-07 15:08:31.610567,14592,2025-11-07 15:08:34.012933462
2025-11-07 15:08:31.610567,0,2025-11-07 15:08:34.020625769
2025-11-07 15:08:31.610567,57,2025-11-07 15:08:34.028318077
2025-11-07 15:08:31.610567,14592,2025-11-07 15:08:34.036010385
2025-11-07 15:08:31.610567,0,2025-11-07 15:08:34.043702692
2025-11-07 15:08:31.610567,54,2025-11-07 15:08:34.051395000
2025-11-07 15:08:31.610567,12800,2025-11-07 15:08:34.059087308
2025-11-07 15:08:31.610567,0,2025-11-07 15:08:34.066779615
2025-11-07 15:08:31.610567,54,2025-11-07 15:08:34.074471923
2025-11-07 15:08:31.610567,18688,2025-11-07 15:08:34.082164231
2025-11-07 15:08:31.610567,0,2025-11-07 15:08:34.089856538
2025-11-07 15:08:31.610567,76,2025-11-07 15:08:34.097548846
2025-11-07 15:08:31.610567,12800,2025-11-07 15:08:34.105241154
2025-11-07 15:08:31.610567,0,2025-11-07 15:08:34.112933462
2025-11-07 15:08:31.610567,26,2025-11-07 15:08:34.120625769
2025-11-07 15:08:31.610567,4864,2025-11-07 15:08:34.128318077
2025-11-07 15:08:31.610567,0,2025-11-07 15:08:34.136010385
2025-11-07 15:08:31.610567,11,2025-11-07 15:08:34.143702692
2025-11-07 15:08:31.610567,1792,2025-11-07 15:08:34.151395000
2025-11-07 15:08:31.610567,0,2025-11-07 15:08:34.159087308
2025-11-07 15:08:31.610567,19,2025-11-07 15:08:34.166779615
2025-11-07 15:08:31.610567,10752,2025-11-07 15:08:34.174471923
2025-11-07 15:08:31.610567,0,2025-11-07 15:08:34.182164230
2025-11-07 15:08:31.610567,52,2025-11-07 15:08:34.189856538
2025-11-07 15:08:31.610567,13312,2025-11-07 15:08:34.197548846
2025-11-07 15:08:31.610567,0,2025-11-07 15:08:34.205241154
2025-11-07 15:08:31.610567,54,2025-11-07 15:08:34.212933462
2025-11-07 15:08:31.610567,15104,2025-11-07 15:08:34.220625769
2025-11-07 15:08:31.610567,0,2025-11-07 15:08:34.228318077
2025-11-07 15:08:31.610567,59,2025-11-07 15:08:34.236010385
2025-11-07 15:08:31.610567,14592,2025-11-07 15:08:34.243702692
2025-11-07 15:08:31.610567,0,2025-11-07 15:08:34.251395000
2025-11-07 15:08:31.610567,66,2025-11-07 15:08:34.259087308
2025-11-07 15:08:31.610567,18176,2025-11-07 15:08:34.266779615
2025-11-07 15:08:31.610567,0,2025-11-07 15:08:34.274471923
2025-11-07 15:08:31.610567,85,2025-11-07 15:08:34.282164231
2025-11-07 15:08:31.610567,-32768,2025-11-07 15:08:34.289856538
2025-11-07 15:08:31.610567,0,2025-11-07 15:08:34.297548846
2025-11-07 15:08:31.610567,140,2025-11-07 15:08:34.305241154
2025-11-07 15:08:31.610567,-16384,2025-11-07 15:08:34.312933462
2025-11-07 15:08:31.610567,-1,2025-11-07 15:08:34.320625769
2025-11-07 15:08:31.610567,-553,2025-11-07 15:08:34.328318077
2025-11-07 15:08:31.610567,-20225,2025-11-07 15:08:34.336010385
2025-11-07 15:08:31.610567,-4,2025-11-07 15:08:34.343702692
2025-11-07 15:08:31.610567,-495,2025-11-07 15:08:34.351395000
2025-11-07 15:08:32.108803,23,2025-11-07 15:08:34.359087308
2025-11-07 15:08:32.108803,-24832,2025-11-07 15:08:34.366779615
2025-11-07 15:08:32.108803,0,2025-11-07 15:08:34.374471923
2025-11-07 15:08:32.108803,140,2025-11-07 15:08:34.382164231
2025-11-07 15:08:32.108803,-17408,2025-11-07 15:08:34.389856538
2025-11-07 15:08:32.108803,0,2025-11-07 15:08:34.397548846
2025-11-07 15:08:32.108803,200,2025-11-07 15:08:34.405241154
2025-11-07 15:08:32.108803,-21760,2025-11-07 15:08:34.412933462
2025-11-07 15:08:32.108803,0,2025-11-07 15:08:34.420625769
2025-11-07 15:08:32.108803,171,2025-11-07 15:08:34.428318077
2025-11-07 15:08:32.108803,-20992,2025-11-07 15:08:34.436010385
2025-11-07 15:08:32.108803,0,2025-11-07 15:08:34.443702692
2025-11-07 15:08:32.108803,159,2025-11-07 15:08:34.451395000
2025-11-07 15:08:32.108803,-24064,2025-11-07 15:08:34.459087308
2025-11-07 15:08:32.108803,0,2025-11-07 15:08:34.466779615
2025-11-07 15:08:32.108803,164,2025-11-07 15:08:34.474471923
2025-11-07 15:08:32.108803,-26112,2025-11-07 15:08:34.482164231
2025-11-07 15:08:32.108803,0,2025-11-07 15:08:34.489856538
2025-11-07 15:08:32.108803,150,2025-11-07 15:08:34.497548846
2025-11-07 15:08:32.108803,-27136,2025-11-07 15:08:34.505241154
2025-11-07 15:08:32.108803,0,2025-11-07 15:08:34.512933462
2025-11-07 15:08:32.108803,150,2025-11-07 15:08:34.520625769
2025-11-07 15:08:32.108803,-24832,2025-11-07 15:08:34.528318077
2025-11-07 15:08:32.108803,0,2025-11-07 15:08:34.536010385
2025-11-07 15:08:32.108803,176,2025-11-07 15:08:34.543702692
2025-11-07 15:08:32.108803,-19200,2025-11-07 15:08:34.551395000
2025-11-07 15:08:32.108803,0,2025-11-07 15:08:34.559087308
2025-11-07 15:08:32.108803,174,2025-11-07 15:08:34.566779615
2025-11-07 15:08:32.108803,-19968,2025-11-07 15:08:34.574471923
2025-11-07 15:08:32.108803,0,2025-11-07 15:08:34.582164231
2025-11-07 15:08:32.108803,185,2025-11-07 15:08:34.589856538
2025-11-07 15:08:32.108803,-18176,2025-11-07 15:08:34.597548846
2025-11-07 15:08:32.108803,0,2025-11-07 15:08:34.605241154
2025-11-07 15:08:32.108803,181,2025-11-07 15:08:34.612933462
2025-11-07 15:08:32.108803,-21760,2025-11-07 15:08:34.620625769
2025-11-07 15:08:32.108803,0,2025-11-07 15:08:34.628318077
2025-11-07 15:08:32.108803,157,2025-11-07 15:08:34.636010385
2025-11-07 15:08:32.108803,-30976,2025-11-07 15:08:34.643702692
2025-11-07 15:08:32.108803,0,2025-11-07 15:08:34.651395000
2025-11-07 15:08:32.108803,114,2025-11-07 15:08:34.659087308
2025-11-07 15:08:32.108803,27392,2025-11-07 15:08:34.666779615
2025-11-07 15:08:32.108803,0,2025-11-07 15:08:34.674471923
2025-11-07 15:08:32.108803,95,2025-11-07 15:08:34.682164231
2025-11-07 15:08:32.108803,20736,2025-11-07 15:08:34.689856538
2025-11-07 15:08:32.108803,0,2025-11-07 15:08:34.697548846
2025-11-07 15:08:32.108803,78,2025-11-07 15:08:34.705241154
2025-11-07 15:08:32.108803,19968,2025-11-07 15:08:34.712933462
2025-11-07 15:08:32.108803,0,2025-11-07 15:08:34.720625769
2025-11-07 15:08:32.108803,73,2025-11-07 15:08:34.728318077
2025-11-07 15:08:32.108803,18176,2025-11-07 15:08:34.736010385
2025-11-07 15:08:32.108803,0,2025-11-07 15:08:34.743702692
2025-11-07 15:08:32.108803,69,2025-11-07 15:08:34.751395000
2025-11-07 15:08:32.108803,16896,2025-11-07 15:08:34.759087308
2025-11-07 15:08:32.108803,0,2025-11-07 15:08:34.766779615
2025-11-07 15:08:32.108803,66,2025-11-07 15:08:34.774471923
2025-11-07 15:08:32.108803,16384,2025-11-07 15:08:34.782164231
2025-11-07 15:08:32.108803,0,2025-11-07 15:08:34.789856538
2025-11-07 15:08:32.108803,69,2025-11-07 15:08:34.797548846
2025-11-07 15:08:32.108803,19456,2025-11-07 15:08:34.805241154
2025-11-07 15:08:32.108803,0,2025-11-07 15:08:34.812933462
2025-11-07 15:08:32.108803,78,2025-11-07 15:08:34.820625769
2025-11-07 15:08:32.108803,18688,2025-11-07 15:08:34.828318077
2025-11-07 15:08:32.108803,0,2025-11-07 15:08:34.836010385
2025-11-07 15:08:32.108803,69,2025-11-07 15:08:34.843702692
2025-11-07 15:08:32.108803,18176,2025-11-07 15:08:34.851395000
2025-11-07 15:08:32.108803,0,2025-11-07 15:08:34.859087308
2025-11-07 15:08:32.108803,71,2025-11-07 15:08:34.866779615
2025-11-07 15:08:32.108803,16384,2025-11-07 15:08:34.874471923
2025-11-07 15:08:32.108803,0,2025-11-07 15:08:34.882164231
2025-11-07 15:08:32.108803,66,2025-11-07 15:08:34.889856538
2025-11-07 15:08:32.108803,16896,2025-11-07 15:08:34.897548846
2025-11-07 15:08:32.108803,0,2025-11-07 15:08:34.905241154
2025-11-07 15:08:32.108803,61,2025-11-07 15:08:34.912933462
2025-11-07 15:08:32.108803,14592,2025-11-07 15:08:34.920625769
2025-11-07 15:08:32.108803,0,2025-11-07 15:08:34.928318077
2025-11-07 15:08:32.108803,57,2025-11-07 15:08:34.936010385
2025-11-07 15:08:32.108803,15616,2025-11-07 15:08:34.943702692
2025-11-07 15:08:32.108803,0,2025-11-07 15:08:34.951395000
2025-11-07 15:08:32.108803,61,2025-11-07 15:08:34.959087308
2025-11-07 15:08:32.108803,17664,2025-11-07 15:08:34.966779615
2025-11-07 15:08:32.108803,0,2025-11-07 15:08:34.974471923
2025-11-07 15:08:32.108803,73,2025-11-07 15:08:34.982164231
2025-11-07 15:08:32.108803,18176,2025-11-07 15:08:34.989856538
2025-11-07 15:08:32.108803,0,2025-11-07 15:08:34.997548846
2025-11-07 15:08:32.108803,85,2025-11-07 15:08:35.005241154
2025-11-07 15:08:32.108803,23040,2025-11-07 15:08:35.012933462
2025-11-07 15:08:32.108803,0,2025-11-07 15:08:35.020625769
2025-11-07 15:08:32.108803,64,2025-11-07 15:08:35.028318077
2025-11-07 15:08:32.108803,10240,2025-11-07 15:08:35.036010385
2025-11-07 15:08:32.108803,0,2025-11-07 15:08:35.043702692
2025-11-07 15:08:32.108803,33,2025-11-07 15:08:35.051395000
2025-11-07 15:08:32.108803,5888,2025-11-07 15:08:35.059087308
2025-11-07 15:08:32.108803,0,2025-11-07 15:08:35.066779615
2025-11-07 15:08:32.108803,19,2025-11-07 15:08:35.074471923
2025-11-07 15:08:32.108803,9728,2025-11-07 15:08:35.082164231
2025-11-07 15:08:32.108803,0,2025-11-07 15:08:35.089856538
2025-11-07 15:08:32.108803,61,2025-11-07 15:08:35.097548846
2025-11-07 15:08:32.108803,16384,2025-11-07 15:08:35.105241154
2025-11-07 15:08:32.108803,0,2025-11-07 15:08:35.112933462
2025-11-07 15:08:32.108803,57,2025-11-07 15:08:35.120625769
2025-11-07 15:08:32.108803,15104,2025-11-07 15:08:35.128318077
2025-11-07 15:08:32.108803,0,2025-11-07 15:08:35.136010385
2025-11-07 15:08:32.108803,69,2025-11-07 15:08:35.143702692
2025-11-07 15:08:32.108803,18688,2025-11-07 15:08:35.151395000
2025-11-07 15:08:32.108803,0,2025-11-07 15:08:35.159087308
2025-11-07 15:08:32.108803,73,2025-11-07 15:08:35.166779615
2025-11-07 15:08:32.108803,19968,2025-11-07 15:08:35.174471923
2025-11-07 15:08:32.108803,0,2025-11-07 15:08:35.182164230
2025-11-07 15:08:32.108803,85,2025-11-07 15:08:35.189856538
2025-11-07 15:08:32.691402,102,2025-11-07 15:08:35.197548846
2025-11-07 15:08:32.691402,-28416,2025-11-07 15:08:35.205241154
2025-11-07 15:08:32.691402,0,2025-11-07 15:08:35.212933462
2025-11-07 15:08:32.691402,128,2025-11-07 15:08:35.220625769
2025-11-07 15:08:32.691402,29696,2025-11-07 15:08:35.228318077
2025-11-07 15:08:32.691402,-1,2025-11-07 15:08:35.236010385
2025-11-07 15:08:32.691402,-641,2025-11-07 15:08:35.243702692
2025-11-07 15:08:32.691402,-11777,2025-11-07 15:08:35.251395000
2025-11-07 15:08:32.691402,-4,2025-11-07 15:08:35.259087308
2025-11-07 15:08:32.691402,-360,2025-11-07 15:08:35.266779615
2025-11-07 15:08:32.691402,28159,2025-11-07 15:08:35.274471923
2025-11-07 15:08:32.691402,0,2025-11-07 15:08:35.282164231
2025-11-07 15:08:32.691402,183,2025-11-07 15:08:35.289856538
2025-11-07 15:08:32.691402,-21760,2025-11-07 15:08:35.297548846
2025-11-07 15:08:32.691402,0,2025-11-07 15:08:35.305241154
2025-11-07 15:08:32.691402,216,2025-11-07 15:08:35.312933462
2025-11-07 15:08:32.691402,-11264,2025-11-07 15:08:35.320625769
2025-11-07 15:08:32.691402,0,2025-11-07 15:08:35.328318077
2025-11-07 15:08:32.691402,195,2025-11-07 15:08:35.336010385
2025-11-07 15:08:32.691402,-12544,2025-11-07 15:08:35.343702692
2025-11-07 15:08:32.691402,0,2025-11-07 15:08:35.351395000
2025-11-07 15:08:32.691402,205,2025-11-07 15:08:35.359087308
2025-11-07 15:08:32.691402,-18688,2025-11-07 15:08:35.366779615
2025-11-07 15:08:32.691402,0,2025-11-07 15:08:35.374471923
2025-11-07 15:08:32.691402,176,2025-11-07 15:08:35.382164231
2025-11-07 15:08:32.691402,-18688,2025-11-07 15:08:35.389856538
2025-11-07 15:08:32.691402,0,2025-11-07 15:08:35.397548846
2025-11-07 15:08:32.691402,176,2025-11-07 15:08:35.405241154
2025-11-07 15:08:32.691402,-24064,2025-11-07 15:08:35.412933462
2025-11-07 15:08:32.691402,0,2025-11-07 15:08:35.420625769
2025-11-07 15:08:32.691402,164,2025-11-07 15:08:35.428318077
2025-11-07 15:08:32.691402,-23552,2025-11-07 15:08:35.436010385
2025-11-07 15:08:32.691402,0,2025-11-07 15:08:35.443702692
2025-11-07 15:08:32.691402,159,2025-11-07 15:08:35.451395000
2025-11-07 15:08:32.691402,-24064,2025-11-07 15:08:35.459087308
2025-11-07 15:08:32.691402,0,2025-11-07 15:08:35.466779615
2025-11-07 15:08:32.691402,169,2025-11-07 15:08:35.474471923
2025-11-07 15:08:32.691402,-21760,2025-11-07 15:08:35.482164231
2025-11-07 15:08:32.691402,0,2025-11-07 15:08:35.489856538
2025-11-07 15:08:32.691402,164,2025-11-07 15:08:35.497548846
2025-11-07 15:08:32.691402,-24064,2025-11-07 15:08:35.505241154
2025-11-07 15:08:32.691402,0,2025-11-07 15:08:35.512933462
2025-11-07 15:08:32.691402,169,2025-11-07 15:08:35.520625769
2025-11-07 15:08:32.691402,-24064,2025-11-07 15:08:35.528318077
2025-11-07 15:08:32.691402,0,2025-11-07 15:08:35.536010385
2025-11-07 15:08:32.691402,145,2025-11-07 15:08:35.543702692
2025-11-07 15:08:32.691402,-29696,2025-11-07 15:08:35.551395000
2025-11-07 15:08:32.691402,0,2025-11-07 15:08:35.559087308
2025-11-07 15:08:32.691402,133,2025-11-07 15:08:35.566779615
2025-11-07 15:08:32.691402,26624,2025-11-07 15:08:35.574471923
2025-11-07 15:08:32.691402,0,2025-11-07 15:08:35.582164231
2025-11-07 15:08:32.691402,83,2025-11-07 15:08:35.589856538
2025-11-07 15:08:32.691402,20736,2025-11-07 15:08:35.597548846
2025-11-07 15:08:32.691402,0,2025-11-07 15:08:35.605241154
2025-11-07 15:08:32.691402,76,2025-11-07 15:08:35.612933462
2025-11-07 15:08:32.691402,18176,2025-11-07 15:08:35.620625769
2025-11-07 15:08:32.691402,0,2025-11-07 15:08:35.628318077
2025-11-07 15:08:32.691402,66,2025-11-07 15:08:35.636010385
2025-11-07 15:08:32.691402,15104,2025-11-07 15:08:35.643702692
2025-11-07 15:08:32.691402,0,2025-11-07 15:08:35.651395000
2025-11-07 15:08:32.691402,59,2025-11-07 15:08:35.659087308
2025-11-07 15:08:32.691402,16384,2025-11-07 15:08:35.666779615
2025-11-07 15:08:32.691402,0,2025-11-07 15:08:35.674471923
2025-11-07 15:08:32.691402,69,2025-11-07 15:08:35.682164231
2025-11-07 15:08:32.691402,16896,2025-11-07 15:08:35.689856538
2025-11-07 15:08:32.691402,0,2025-11-07 15:08:35.697548846
2025-11-07 15:08:32.691402,64,2025-11-07 15:08:35.705241154
2025-11-07 15:08:32.691402,16896,2025-11-07 15:08:35.712933462
2025-11-07 15:08:32.691402,0,2025-11-07 15:08:35.720625769
2025-11-07 15:08:32.691402,71,2025-11-07 15:08:35.728318077
2025-11-07 15:08:32.691402,16896,2025-11-07 15:08:35.736010385
2025-11-07 15:08:32.691402,0,2025-11-07 15:08:35.743702692
2025-11-07 15:08:32.691402,64,2025-11-07 15:08:35.751395000
2025-11-07 15:08:32.691402,18176,2025-11-07 15:08:35.759087308
2025-11-07 15:08:32.691402,0,2025-11-07 15:08:35.766779615
2025-11-07 15:08:32.691402,71,2025-11-07 15:08:35.774471923
2025-11-07 15:08:32.691402,15616,2025-11-07 15:08:35.782164231
2025-11-07 15:08:32.691402,0,2025-11-07 15:08:35.789856538
2025-11-07 15:08:32.691402,61,2025-11-07 15:08:35.797548846
2025-11-07 15:08:32.691402,16384,2025-11-07 15:08:35.805241154
2025-11-07 15:08:32.691402,0,2025-11-07 15:08:35.812933462
2025-11-07 15:08:32.691402,64,2025-11-07 15:08:35.820625769
2025-11-07 15:08:32.691402,15616,2025-11-07 15:08:35.828318077
2025-11-07 15:08:32.691402,0,2025-11-07 15:08:35.836010385
2025-11-07 15:08:32.691402,57,2025-11-07 15:08:35.843702692
2025-11-07 15:08:32.691402,13824,2025-11-07 15:08:35.851395000
2025-11-07 15:08:32.691402,0,2025-11-07 15:08:35.859087308
2025-11-07 15:08:32.691402,57,2025-11-07 15:08:35.866779615
2025-11-07 15:08:32.691402,15616,2025-11-07 15:08:35.874471923
2025-11-07 15:08:32.691402,0,2025-11-07 15:08:35.882164231
2025-11-07 15:08:32.691402,59,2025-11-07 15:08:35.889856538
2025-11-07 15:08:32.691402,15616,2025-11-07 15:08:35.897548846
2025-11-07 15:08:32.691402,0,2025-11-07 15:08:35.905241154
2025-11-07 15:08:32.691402,61,2025-11-07 15:08:35.912933462
2025-11-07 15:08:32.691402,15616,2025-11-07 15:08:35.920625769
2025-11-07 15:08:32.691402,0,2025-11-07 15:08:35.928318077
2025-11-07 15:08:32.691402,64,2025-11-07 15:08:35.936010385
2025-11-07 15:08:32.691402,18176,2025-11-07 15:08:35.943702692
2025-11-07 15:08:32.691402,0,2025-11-07 15:08:35.951395000
2025-11-07 15:08:32.691402,81,2025-11-07 15:08:35.959087308
2025-11-07 15:08:32.691402,19456,2025-11-07 15:08:35.966779615
2025-11-07 15:08:32.691402,0,2025-11-07 15:08:35.974471923
2025-11-07 15:08:32.691402,54,2025-11-07 15:08:35.982164231
2025-11-07 15:08:32.691402,8448,2025-11-07 15:08:35.989856538
2025-11-07 15:08:32.691402,0,2025-11-07 15:08:35.997548846
2025-11-07 15:08:32.691402,23,2025-11-07 15:08:36.005241154
2025-11-07 15:08:32.691402,5888,2025-11-07 15:08:36.012933462
2025-11-07 15:08:32.691402,0,2025-11-07 15:08:36.020625769
2025-11-07 15:08:32.691402,26,2025-11-07 15:08:36.028318077
2025-11-07 15:08:33.230225,42,2025-11-07 15:08:36.036010385
2025-11-07 15:08:33.230225,16384,2025-11-07 15:08:36.043702692
2025-11-07 15:08:33.230225,0,2025-11-07 15:08:36.051395000
2025-11-07 15:08:33.230225,73,2025-11-07 15:08:36.059087308
2025-11-07 15:08:33.230225,18176,2025-11-07 15:08:36.066779615
2025-11-07 15:08:33.230225,0,2025-11-07 15:08:36.074471923
2025-11-07 15:08:33.230225,76,2025-11-07 15:08:36.082164231
2025-11-07 15:08:33.230225,21248,2025-11-07 15:08:36.089856538
2025-11-07 15:08:33.230225,0,2025-11-07 15:08:36.097548846
2025-11-07 15:08:33.230225,81,2025-11-07 15:08:36.105241154
2025-11-07 15:08:33.230225,21248,2025-11-07 15:08:36.112933462
2025-11-07 15:08:33.230225,0,2025-11-07 15:08:36.120625769
2025-11-07 15:08:33.230225,88,2025-11-07 15:08:36.128318077
2025-11-07 15:08:33.230225,24320,2025-11-07 15:08:36.136010385
2025-11-07 15:08:33.230225,0,2025-11-07 15:08:36.143702692
2025-11-07 15:08:33.230225,128,2025-11-07 15:08:36.151395000
2025-11-07 15:08:33.230225,-20480,2025-11-07 15:08:36.159087308
2025-11-07 15:08:33.230225,0,2025-11-07 15:08:36.166779615
2025-11-07 15:08:33.230225,112,2025-11-07 15:08:36.174471923
2025-11-07 15:08:33.230225,6400,2025-11-07 15:08:36.182164230
2025-11-07 15:08:33.230225,-1,2025-11-07 15:08:36.189856538
2025-11-07 15:08:33.230225,-672,2025-11-07 15:08:36.197548846
2025-11-07 15:08:33.230225,29695,2025-11-07 15:08:36.205241154
2025-11-07 15:08:33.230225,-3,2025-11-07 15:08:36.212933462
2025-11-07 15:08:33.230225,-174,2025-11-07 15:08:36.220625769
2025-11-07 15:08:33.230225,31743,2025-11-07 15:08:36.228318077
2025-11-07 15:08:33.230225,0,2025-11-07 15:08:36.236010385
2025-11-07 15:08:33.230225,135,2025-11-07 15:08:36.243702692
2025-11-07 15:08:33.230225,-20992,2025-11-07 15:08:36.251395000
2025-11-07 15:08:33.230225,0,2025-11-07 15:08:36.259087308
2025-11-07 15:08:33.230225,214,2025-11-07 15:08:36.266779615
2025-11-07 15:08:33.230225,-18176,2025-11-07 15:08:36.274471923
2025-11-07 15:08:33.230225,0,2025-11-07 15:08:36.282164231
2025-11-07 15:08:33.230225,178,2025-11-07 15:08:36.289856538
2025-11-07 15:08:33.230225,-17408,2025-11-07 15:08:36.297548846
2025-11-07 15:08:33.230225,0,2025-11-07 15:08:36.305241154
2025-11-07 15:08:33.230225,178,2025-11-07 15:08:36.312933462
2025-11-07 15:08:33.230225,-22272,2025-11-07 15:08:36.320625769
2025-11-07 15:08:33.230225,0,2025-11-07 15:08:36.328318077
2025-11-07 15:08:33.230225,162,2025-11-07 15:08:36.336010385
2025-11-07 15:08:33.230225,-26624,2025-11-07 15:08:36.343702692
2025-11-07 15:08:33.230225,0,2025-11-07 15:08:36.351395000
2025-11-07 15:08:33.230225,150,2025-11-07 15:08:36.359087308
2025-11-07 15:08:33.230225,-28416,2025-11-07 15:08:36.366779615
2025-11-07 15:08:33.230225,0,2025-11-07 15:08:36.374471923
2025-11-07 15:08:33.230225,138,2025-11-07 15:08:36.382164231
2025-11-07 15:08:33.230225,-30976,2025-11-07 15:08:36.389856538
2025-11-07 15:08:33.230225,0,2025-11-07 15:08:36.397548846
2025-11-07 15:08:33.230225,143,2025-11-07 15:08:36.405241154
2025-11-07 15:08:33.230225,-28416,2025-11-07 15:08:36.412933462
2025-11-07 15:08:33.230225,0,2025-11-07 15:08:36.420625769
2025-11-07 15:08:33.230225,143,2025-11-07 15:08:36.428318077
2025-11-07 15:08:33.230225,-27136,2025-11-07 15:08:36.436010385
2025-11-07 15:08:33.230225,0,2025-11-07 15:08:36.443702692
2025-11-07 15:08:33.230225,152,2025-11-07 15:08:36.451395000
2025-11-07 15:08:33.230225,-28416,2025-11-07 15:08:36.459087308
2025-11-07 15:08:33.230225,0,2025-11-07 15:08:36.466779615
2025-11-07 15:08:33.230225,138,2025-11-07 15:08:36.474471923
2025-11-07 15:08:33.230225,-30208,2025-11-07 15:08:36.482164231
2025-11-07 15:08:33.230225,0,2025-11-07 15:08:36.489856538
2025-11-07 15:08:33.230225,133,2025-11-07 15:08:36.497548846
2025-11-07 15:08:33.230225,30464,2025-11-07 15:08:36.505241154
2025-11-07 15:08:33.230225,0,2025-11-07 15:08:36.512933462
2025-11-07 15:08:33.230225,100,2025-11-07 15:08:36.520625769
2025-11-07 15:08:33.230225,21760,2025-11-07 15:08:36.528318077
2025-11-07 15:08:33.230225,0,2025-11-07 15:08:36.536010385
2025-11-07 15:08:33.230225,76,2025-11-07 15:08:36.543702692
2025-11-07 15:08:33.230225,18176,2025-11-07 15:08:36.551395000
2025-11-07 15:08:33.230225,0,2025-11-07 15:08:36.559087308
2025-11-07 15:08:33.230225,66,2025-11-07 15:08:36.566779615
2025-11-07 15:08:33.230225,15616,2025-11-07 15:08:36.574471923
2025-11-07 15:08:33.230225,0,2025-11-07 15:08:36.582164231
2025-11-07 15:08:33.230225,59,2025-11-07 15:08:36.589856538
2025-11-07 15:08:33.230225,14592,2025-11-07 15:08:36.597548846
2025-11-07 15:08:33.230225,0,2025-11-07 15:08:36.605241154
2025-11-07 15:08:33.230225,54,2025-11-07 15:08:36.612933462
2025-11-07 15:08:33.230225,14592,2025-11-07 15:08:36.620625769
2025-11-07 15:08:33.230225,0,2025-11-07 15:08:36.628318077
2025-11-07 15:08:33.230225,57,2025-11-07 15:08:36.636010385
2025-11-07 15:08:33.230225,14592,2025-11-07 15:08:36.643702692
2025-11-07 15:08:33.230225,0,2025-11-07 15:08:36.651395000
2025-11-07 15:08:33.230225,61,2025-11-07 15:08:36.659087308
2025-11-07 15:08:33.230225,14592,2025-11-07 15:08:36.666779615
2025-11-07 15:08:33.230225,0,2025-11-07 15:08:36.674471923
2025-11-07 15:08:33.230225,52,2025-11-07 15:08:36.682164231
2025-11-07 15:08:33.230225,14592,2025-11-07 15:08:36.689856538
2025-11-07 15:08:33.230225,0,2025-11-07 15:08:36.697548846
2025-11-07 15:08:33.230225,57,2025-11-07 15:08:36.705241154
2025-11-07 15:08:33.230225,13824,2025-11-07 15:08:36.712933462
2025-11-07 15:08:33.230225,0,2025-11-07 15:08:36.720625769
2025-11-07 15:08:33.230225,45,2025-11-07 15:08:36.728318077
2025-11-07 15:08:33.230225,12032,2025-11-07 15:08:36.736010385
2025-11-07 15:08:33.230225,0,2025-11-07 15:08:36.743702692
2025-11-07 15:08:33.230225,54,2025-11-07 15:08:36.751395000
2025-11-07 15:08:33.230225,13312,2025-11-07 15:08:36.759087308
2025-11-07 15:08:33.230225,0,2025-11-07 15:08:36.766779615
2025-11-07 15:08:33.230225,45,2025-11-07 15:08:36.774471923
2025-11-07 15:08:33.230225,12800,2025-11-07 15:08:36.782164231
2025-11-07 15:08:33.230225,0,2025-11-07 15:08:36.789856538
2025-11-07 15:08:33.230225,54,2025-11-07 15:08:36.797548846
2025-11-07 15:08:33.230225,13824,2025-11-07 15:08:36.805241154
2025-11-07 15:08:33.230225,0,2025-11-07 15:08:36.812933462
2025-11-07 15:08:33.230225,57,2025-11-07 15:08:36.820625769
2025-11-07 15:08:33.230225,13824,2025-11-07 15:08:36.828318077
2025-11-07 15:08:33.230225,0,2025-11-07 15:08:36.836010385
2025-11-07 15:08:33.230225,54,2025-11-07 15:08:36.843702692
2025-11-07 15:08:33.230225,17664,2025-11-07 15:08:36.851395000
2025-11-07 15:08:33.230225,0,2025-11-07 15:08:36.859087308
2025-11-07 15:08:33.230225,78,2025-11-07 15:08:36.866779615
2025-11-07 15:08:33.819995,78,2025-11-07 15:08:36.874471923
2025-11-07 15:08:33.819995,19456,2025-11-07 15:08:36.882164231
2025-11-07 15:08:33.819995,0,2025-11-07 15:08:36.889856538
2025-11-07 15:08:33.819995,59,2025-11-07 15:08:36.897548846
2025-11-07 15:08:33.819995,8448,2025-11-07 15:08:36.905241154
2025-11-07 15:08:33.819995,0,2025-11-07 15:08:36.912933462
2025-11-07 15:08:33.819995,19,2025-11-07 15:08:36.920625769
2025-11-07 15:08:33.819995,2816,2025-11-07 15:08:36.928318077
2025-11-07 15:08:33.819995,0,2025-11-07 15:08:36.936010385
2025-11-07 15:08:33.819995,11,2025-11-07 15:08:36.943702692
2025-11-07 15:08:33.819995,6656,2025-11-07 15:08:36.951395000
2025-11-07 15:08:33.819995,0,2025-11-07 15:08:36.959087308
2025-11-07 15:08:33.819995,64,2025-11-07 15:08:36.966779615
2025-11-07 15:08:33.819995,20736,2025-11-07 15:08:36.974471923
2025-11-07 15:08:33.819995,0,2025-11-07 15:08:36.982164231
2025-11-07 15:08:33.819995,66,2025-11-07 15:08:36.989856538
2025-11-07 15:08:33.819995,16896,2025-11-07 15:08:36.997548846
2025-11-07 15:08:33.819995,0,2025-11-07 15:08:37.005241154
2025-11-07 15:08:33.819995,76,2025-11-07 15:08:37.012933462
2025-11-07 15:08:33.819995,18688,2025-11-07 15:08:37.020625769
2025-11-07 15:08:33.819995,0,2025-11-07 15:08:37.028318077
2025-11-07 15:08:33.819995,73,2025-11-07 15:08:37.036010385
2025-11-07 15:08:33.819995,19456,2025-11-07 15:08:37.043702692
2025-11-07 15:08:33.819995,0,2025-11-07 15:08:37.051395000
2025-11-07 15:08:33.819995,76,2025-11-07 15:08:37.059087308
2025-11-07 15:08:33.819995,23552,2025-11-07 15:08:37.066779615
2025-11-07 15:08:33.819995,0,2025-11-07 15:08:37.074471923
2025-11-07 15:08:33.819995,131,2025-11-07 15:08:37.082164231
2025-11-07 15:08:33.819995,30976,2025-11-07 15:08:37.089856538
2025-11-07 15:08:33.819995,0,2025-11-07 15:08:37.097548846
2025-11-07 15:08:33.819995,-119,2025-11-07 15:08:37.105241154
2025-11-07 15:08:33.819995,-19201,2025-11-07 15:08:37.112933462
2025-11-07 15:08:33.819995,-3,2025-11-07 15:08:37.120625769
2025-11-07 15:08:33.819995,-765,2025-11-07 15:08:37.128318077
2025-11-07 15:08:33.819995,-26369,2025-11-07 15:08:37.136010385
2025-11-07 15:08:33.819995,-2,2025-11-07 15:08:37.143702692
2025-11-07 15:08:33.819995,45,2025-11-07 15:08:37.151395000
2025-11-07 15:08:33.819995,27392,2025-11-07 15:08:37.159087308
2025-11-07 15:08:33.819995,0,2025-11-07 15:08:37.166779615
2025-11-07 15:08:33.819995,121,2025-11-07 15:08:37.174471923
2025-11-07 15:08:33.819995,-20480,2025-11-07 15:08:37.182164230
2025-11-07 15:08:33.819995,0,2025-11-07 15:08:37.189856538
2025-11-07 15:08:33.819995,166,2025-11-07 15:08:37.197548846
2025-11-07 15:08:33.819995,-27904,2025-11-07 15:08:37.205241154
2025-11-07 15:08:33.819995,0,2025-11-07 15:08:37.212933462
2025-11-07 15:08:33.819995,152,2025-11-07 15:08:37.220625769
2025-11-07 15:08:33.819995,-28416,2025-11-07 15:08:37.228318077
2025-11-07 15:08:33.819995,0,2025-11-07 15:08:37.236010385
2025-11-07 15:08:33.819995,138,2025-11-07 15:08:37.243702692
2025-11-07 15:08:33.819995,-30208,2025-11-07 15:08:37.251395000
2025-11-07 15:08:33.819995,0,2025-11-07 15:08:37.259087308
2025-11-07 15:08:33.819995,131,2025-11-07 15:08:37.266779615
2025-11-07 15:08:33.819995,30464,2025-11-07 15:08:37.274471923
2025-11-07 15:08:33.819995,0,2025-11-07 15:08:37.282164231
2025-11-07 15:08:33.819995,119,2025-11-07 15:08:37.289856538
2025-11-07 15:08:33.819995,32256,2025-11-07 15:08:37.297548846
2025-11-07 15:08:33.819995,0,2025-11-07 15:08:37.305241154
2025-11-07 15:08:33.819995,128,2025-11-07 15:08:37.312933462
2025-11-07 15:08:33.819995,30976,2025-11-07 15:08:37.320625769
2025-11-07 15:08:33.819995,0,2025-11-07 15:08:37.328318077
2025-11-07 15:08:33.819995,116,2025-11-07 15:08:37.336010385
2025-11-07 15:08:33.819995,29696,2025-11-07 15:08:37.343702692
2025-11-07 15:08:33.819995,0,2025-11-07 15:08:37.351395000
2025-11-07 15:08:33.819995,116,2025-11-07 15:08:37.359087308
2025-11-07 15:08:33.819995,30464,2025-11-07 15:08:37.366779615
2025-11-07 15:08:33.819995,0,2025-11-07 15:08:37.374471923
2025-11-07 15:08:33.819995,128,2025-11-07 15:08:37.382164231
2025-11-07 15:08:33.819995,32256,2025-11-07 15:08:37.389856538
2025-11-07 15:08:33.819995,0,2025-11-07 15:08:37.397548846
2025-11-07 15:08:33.819995,109,2025-11-07 15:08:37.405241154
2025-11-07 15:08:33.819995,25600,2025-11-07 15:08:37.412933462
2025-11-07 15:08:33.819995,0,2025-11-07 15:08:37.420625769
2025-11-07 15:08:33.819995,95,2025-11-07 15:08:37.428318077
2025-11-07 15:08:33.819995,21248,2025-11-07 15:08:37.436010385
2025-11-07 15:08:33.819995,0,2025-11-07 15:08:37.443702692
2025-11-07 15:08:33.819995,71,2025-11-07 15:08:37.451395000
2025-11-07 15:08:33.819995,15616,2025-11-07 15:08:37.459087308
2025-11-07 15:08:33.819995,0,2025-11-07 15:08:37.466779615
2025-11-07 15:08:33.819995,54,2025-11-07 15:08:37.474471923
2025-11-07 15:08:33.819995,13312,2025-11-07 15:08:37.482164231
2025-11-07 15:08:33.819995,0,2025-11-07 15:08:37.489856538
2025-11-07 15:08:33.819995,45,2025-11-07 15:08:37.497548846
2025-11-07 15:08:33.819995,8960,2025-11-07 15:08:37.505241154
2025-11-07 15:08:33.819995,0,2025-11-07 15:08:37.512933462
2025-11-07 15:08:33.819995,38,2025-11-07 15:08:37.520625769
2025-11-07 15:08:33.819995,10752,2025-11-07 15:08:37.528318077
2025-11-07 15:08:33.819995,0,2025-11-07 15:08:37.536010385
2025-11-07 15:08:33.819995,40,2025-11-07 15:08:37.543702692
2025-11-07 15:08:33.819995,8960,2025-11-07 15:08:37.551395000
2025-11-07 15:08:33.819995,0,2025-11-07 15:08:37.559087308
2025-11-07 15:08:33.819995,35,2025-11-07 15:08:37.566779615
2025-11-07 15:08:33.819995,9728,2025-11-07 15:08:37.574471923
2025-11-07 15:08:33.819995,0,2025-11-07 15:08:37.582164231
2025-11-07 15:08:33.819995,40,2025-11-07 15:08:37.589856538
2025-11-07 15:08:33.819995,12800,2025-11-07 15:08:37.597548846
2025-11-07 15:08:33.819995,0,2025-11-07 15:08:37.605241154
2025-11-07 15:08:33.819995,54,2025-11-07 15:08:37.612933462
2025-11-07 15:08:33.819995,12800,2025-11-07 15:08:37.620625769
2025-11-07 15:08:33.819995,0,2025-11-07 15:08:37.628318077
2025-11-07 15:08:33.819995,42,2025-11-07 15:08:37.636010385
2025-11-07 15:08:33.819995,9728,2025-11-07 15:08:37.643702692
2025-11-07 15:08:33.819995,0,2025-11-07 15:08:37.651395000
2025-11-07 15:08:33.819995,40,2025-11-07 15:08:37.659087308
2025-11-07 15:08:33.819995,11520,2025-11-07 15:08:37.666779615
2025-11-07 15:08:33.819995,0,2025-11-07 15:08:37.674471923
2025-11-07 15:08:33.819995,40,2025-11-07 15:08:37.682164231
2025-11-07 15:08:33.819995,8960,2025-11-07 15:08:37.689856538
2025-11-07 15:08:33.819995,0,2025-11-07 15:08:37.697548846
2025-11-07 15:08:33.819995,42,2025-11-07 15:08:37.705241154
2025-11-07 15:08:34.400596,42,2025-11-07 15:08:37.712933462
2025-11-07 15:08:34.400596,8448,2025-11-07 15:08:37.720625769
2025-11-07 15:08:34.400596,0,2025-11-07 15:08:37.728318077
2025-11-07 15:08:34.400596,38,2025-11-07 15:08:37.736010385
2025-11-07 15:08:34.400596,12032,2025-11-07 15:08:37.743702692
2025-11-07 15:08:34.400596,0,2025-11-07 15:08:37.751395000
2025-11-07 15:08:34.400596,52,2025-11-07 15:08:37.759087308
2025-11-07 15:08:34.400596,14592,2025-11-07 15:08:37.766779615
2025-11-07 15:08:34.400596,0,2025-11-07 15:08:37.774471923
2025-11-07 15:08:34.400596,42,2025-11-07 15:08:37.782164231
2025-11-07 15:08:34.400596,1024,2025-11-07 15:08:37.789856538
2025-11-07 15:08:34.400596,0,2025-11-07 15:08:37.797548846
2025-11-07 15:08:34.400596,-14,2025-11-07 15:08:37.805241154
2025-11-07 15:08:34.400596,-769,2025-11-07 15:08:37.812933462
2025-11-07 15:08:34.400596,-1,2025-11-07 15:08:37.820625769
2025-11-07 15:08:34.400596,-2,2025-11-07 15:08:37.828318077
2025-11-07 15:08:34.400596,3071,2025-11-07 15:08:37.836010385
2025-11-07 15:08:34.400596,0,2025-11-07 15:08:37.843702692
2025-11-07 15:08:34.400596,47,2025-11-07 15:08:37.851395000
2025-11-07 15:08:34.400596,14592,2025-11-07 15:08:37.859087308
2025-11-07 15:08:34.400596,0,2025-11-07 15:08:37.866779615
2025-11-07 15:08:34.400596,42,2025-11-07 15:08:37.874471923
2025-11-07 15:08:34.400596,10240,2025-11-07 15:08:37.882164231
2025-11-07 15:08:34.400596,0,2025-11-07 15:08:37.889856538
2025-11-07 15:08:34.400596,50,2025-11-07 15:08:37.897548846
2025-11-07 15:08:34.400596,12800,2025-11-07 15:08:37.905241154
2025-11-07 15:08:34.400596,0,2025-11-07 15:08:37.912933462
2025-11-07 15:08:34.400596,52,2025-11-07 15:08:37.920625769
2025-11-07 15:08:34.400596,14592,2025-11-07 15:08:37.928318077
2025-11-07 15:08:34.400596,0,2025-11-07 15:08:37.936010385
2025-11-07 15:08:34.400596,59,2025-11-07 15:08:37.943702692
2025-11-07 15:08:34.400596,18176,2025-11-07 15:08:37.951395000
2025-11-07 15:08:34.400596,0,2025-11-07 15:08:37.959087308
2025-11-07 15:08:34.400596,114,2025-11-07 15:08:37.966779615
2025-11-07 15:08:34.400596,32256,2025-11-07 15:08:37.974471923
2025-11-07 15:08:34.400596,0,2025-11-07 15:08:37.982164231
2025-11-07 15:08:34.400596,-73,2025-11-07 15:08:37.989856538
2025-11-07 15:08:34.400596,-10753,2025-11-07 15:08:37.997548846
2025-11-07 15:08:34.400596,-3,2025-11-07 15:08:38.005241154
2025-11-07 15:08:34.400596,-839,2025-11-07 15:08:38.012933462
2025-11-07 15:08:34.400596,6911,2025-11-07 15:08:38.020625769
2025-11-07 15:08:34.400596,-2,2025-11-07 15:08:38.028318077
2025-11-07 15:08:34.400596,-7,2025-11-07 15:08:38.036010385
2025-11-07 15:08:34.400596,28927,2025-11-07 15:08:38.043702692
2025-11-07 15:08:34.400596,0,2025-11-07 15:08:38.051395000
2025-11-07 15:08:34.400596,119,2025-11-07 15:08:38.059087308
2025-11-07 15:08:34.400596,-23040,2025-11-07 15:08:38.066779615
2025-11-07 15:08:34.400596,0,2025-11-07 15:08:38.074471923
2025-11-07 15:08:34.400596,159,2025-11-07 15:08:38.082164231
2025-11-07 15:08:34.400596,-28928,2025-11-07 15:08:38.089856538
2025-11-07 15:08:34.400596,0,2025-11-07 15:08:38.097548846
2025-11-07 15:08:34.400596,150,2025-11-07 15:08:38.105241154
2025-11-07 15:08:34.400596,-28928,2025-11-07 15:08:38.112933462
2025-11-07 15:08:34.400596,0,2025-11-07 15:08:38.120625769
2025-11-07 15:08:34.400596,128,2025-11-07 15:08:38.128318077
2025-11-07 15:08:34.400596,-32768,2025-11-07 15:08:38.136010385
2025-11-07 15:08:34.400596,0,2025-11-07 15:08:38.143702692
2025-11-07 15:08:34.400596,126,2025-11-07 15:08:38.151395000
2025-11-07 15:08:34.400596,29696,2025-11-07 15:08:38.159087308
2025-11-07 15:08:34.400596,0,2025-11-07 15:08:38.166779615
2025-11-07 15:08:34.400596,109,2025-11-07 15:08:38.174471923
2025-11-07 15:08:34.400596,26624,2025-11-07 15:08:38.182164230
2025-11-07 15:08:34.400596,0,2025-11-07 15:08:38.189856538
2025-11-07 15:08:34.400596,107,2025-11-07 15:08:38.197548846
2025-11-07 15:08:34.400596,30976,2025-11-07 15:08:38.205241154
2025-11-07 15:08:34.400596,0,2025-11-07 15:08:38.212933462
2025-11-07 15:08:34.400596,131,2025-11-07 15:08:38.220625769
2025-11-07 15:08:34.400596,32256,2025-11-07 15:08:38.228318077
2025-11-07 15:08:34.400596,0,2025-11-07 15:08:38.236010385
2025-11-07 15:08:34.400596,128,2025-11-07 15:08:38.243702692
2025-11-07 15:08:34.400596,-30208,2025-11-07 15:08:38.251395000
2025-11-07 15:08:34.400596,0,2025-11-07 15:08:38.259087308
2025-11-07 15:08:34.400596,138,2025-11-07 15:08:38.266779615
2025-11-07 15:08:34.400596,-30208,2025-11-07 15:08:38.274471923
2025-11-07 15:08:34.400596,0,2025-11-07 15:08:38.282164231
2025-11-07 15:08:34.400596,138,2025-11-07 15:08:38.289856538
2025-11-07 15:08:34.400596,30976,2025-11-07 15:08:38.297548846
2025-11-07 15:08:34.400596,0,2025-11-07 15:08:38.305241154
2025-11-07 15:08:34.400596,100,2025-11-07 15:08:38.312933462
2025-11-07 15:08:34.400596,23040,2025-11-07 15:08:38.320625769
2025-11-07 15:08:34.400596,0,2025-11-07 15:08:38.328318077
2025-11-07 15:08:34.400596,85,2025-11-07 15:08:38.336010385
2025-11-07 15:08:34.400596,19968,2025-11-07 15:08:38.343702692
2025-11-07 15:08:34.400596,0,2025-11-07 15:08:38.351395000
2025-11-07 15:08:34.400596,71,2025-11-07 15:08:38.359087308
2025-11-07 15:08:34.400596,16384,2025-11-07 15:08:38.366779615
2025-11-07 15:08:34.400596,0,2025-11-07 15:08:38.374471923
2025-11-07 15:08:34.400596,59,2025-11-07 15:08:38.382164231
2025-11-07 15:08:34.400596,14592,2025-11-07 15:08:38.389856538
2025-11-07 15:08:34.400596,0,2025-11-07 15:08:38.397548846
2025-11-07 15:08:34.400596,57,2025-11-07 15:08:38.405241154
2025-11-07 15:08:34.400596,13824,2025-11-07 15:08:38.412933462
2025-11-07 15:08:34.400596,0,2025-11-07 15:08:38.420625769
2025-11-07 15:08:34.400596,52,2025-11-07 15:08:38.428318077
2025-11-07 15:08:34.400596,12800,2025-11-07 15:08:38.436010385
2025-11-07 15:08:34.400596,0,2025-11-07 15:08:38.443702692
2025-11-07 15:08:34.400596,50,2025-11-07 15:08:38.451395000
2025-11-07 15:08:34.400596,12800,2025-11-07 15:08:38.459087308
2025-11-07 15:08:34.400596,0,2025-11-07 15:08:38.466779615
2025-11-07 15:08:34.400596,52,2025-11-07 15:08:38.474471923
2025-11-07 15:08:34.400596,12800,2025-11-07 15:08:38.482164231
2025-11-07 15:08:34.400596,0,2025-11-07 15:08:38.489856538
2025-11-07 15:08:34.400596,42,2025-11-07 15:08:38.497548846
2025-11-07 15:08:34.400596,11520,2025-11-07 15:08:38.505241154
2025-11-07 15:08:34.400596,0,2025-11-07 15:08:38.512933462
2025-11-07 15:08:34.400596,54,2025-11-07 15:08:38.520625769
2025-11-07 15:08:34.400596,14592,2025-11-07 15:08:38.528318077
2025-11-07 15:08:34.400596,0,2025-11-07 15:08:38.536010385
2025-11-07 15:08:34.400596,50,2025-11-07 15:08:38.543702692
2025-11-07 15:08:34.944640,45,2025-11-07 15:08:38.551395000
2025-11-07 15:08:34.944640,10752,2025-11-07 15:08:38.559087308
2025-11-07 15:08:34.944640,0,2025-11-07 15:08:38.566779615
2025-11-07 15:08:34.944640,40,2025-11-07 15:08:38.574471923
2025-11-07 15:08:34.944640,10240,2025-11-07 15:08:38.582164231
2025-11-07 15:08:34.944640,0,2025-11-07 15:08:38.589856538
2025-11-07 15:08:34.944640,38,2025-11-07 15:08:38.597548846
2025-11-07 15:08:34.944640,9728,2025-11-07 15:08:38.605241154
2025-11-07 15:08:34.944640,0,2025-11-07 15:08:38.612933462
2025-11-07 15:08:34.944640,47,2025-11-07 15:08:38.620625769
2025-11-07 15:08:34.944640,13824,2025-11-07 15:08:38.628318077
2025-11-07 15:08:34.944640,0,2025-11-07 15:08:38.636010385
2025-11-07 15:08:34.944640,50,2025-11-07 15:08:38.643702692
2025-11-07 15:08:34.944640,7680,2025-11-07 15:08:38.651395000
2025-11-07 15:08:34.944640,0,2025-11-07 15:08:38.659087308
2025-11-07 15:08:34.944640,7,2025-11-07 15:08:38.666779615
2025-11-07 15:08:34.944640,-1024,2025-11-07 15:08:38.674471923
2025-11-07 15:08:34.944640,-1,2025-11-07 15:08:38.682164231
2025-11-07 15:08:34.944640,-7,2025-11-07 15:08:38.689856538
2025-11-07 15:08:34.944640,-257,2025-11-07 15:08:38.697548846
2025-11-07 15:08:34.944640,-1,2025-11-07 15:08:38.705241154
2025-11-07 15:08:34.944640,23,2025-11-07 15:08:38.712933462
2025-11-07 15:08:34.944640,12800,2025-11-07 15:08:38.720625769
2025-11-07 15:08:34.944640,0,2025-11-07 15:08:38.728318077
2025-11-07 15:08:34.944640,47,2025-11-07 15:08:38.736010385
2025-11-07 15:08:34.944640,10752,2025-11-07 15:08:38.743702692
2025-11-07 15:08:34.944640,0,2025-11-07 15:08:38.751395000
2025-11-07 15:08:34.944640,47,2025-11-07 15:08:38.759087308
2025-11-07 15:08:34.944640,12032,2025-11-07 15:08:38.766779615
2025-11-07 15:08:34.944640,0,2025-11-07 15:08:38.774471923
2025-11-07 15:08:34.944640,47,2025-11-07 15:08:38.782164231
2025-11-07 15:08:34.944640,11520,2025-11-07 15:08:38.789856538
2025-11-07 15:08:34.944640,0,2025-11-07 15:08:38.797548846
2025-11-07 15:08:34.944640,42,2025-11-07 15:08:38.805241154
2025-11-07 15:08:34.944640,12800,2025-11-07 15:08:38.812933462
2025-11-07 15:08:34.944640,0,2025-11-07 15:08:38.820625769
2025-11-07 15:08:34.944640,76,2025-11-07 15:08:38.828318077
2025-11-07 15:08:34.944640,29184,2025-11-07 15:08:38.836010385
2025-11-07 15:08:34.944640,0,2025-11-07 15:08:38.843702692
2025-11-07 15:08:34.944640,107,2025-11-07 15:08:38.851395000
2025-11-07 15:08:34.944640,32000,2025-11-07 15:08:38.859087308
2025-11-07 15:08:34.944640,-1,2025-11-07 15:08:38.866779615
2025-11-07 15:08:34.944640,-646,2025-11-07 15:08:38.874471923
2025-11-07 15:08:34.944640,32511,2025-11-07 15:08:38.882164231
2025-11-07 15:08:34.944640,-4,2025-11-07 15:08:38.889856538
2025-11-07 15:08:34.944640,-472,2025-11-07 15:08:38.897548846
2025-11-07 15:08:34.944640,9215,2025-11-07 15:08:38.905241154
2025-11-07 15:08:34.944640,0,2025-11-07 15:08:38.912933462
2025-11-07 15:08:34.944640,128,2025-11-07 15:08:38.920625769
2025-11-07 15:08:34.944640,30464,2025-11-07 15:08:38.928318077
2025-11-07 15:08:34.944640,0,2025-11-07 15:08:38.936010385
2025-11-07 15:08:34.944640,171,2025-11-07 15:08:38.943702692
2025-11-07 15:08:34.944640,-22272,2025-11-07 15:08:38.951395000
2025-11-07 15:08:34.944640,0,2025-11-07 15:08:38.959087308
2025-11-07 15:08:34.944640,140,2025-11-07 15:08:38.966779615
2025-11-07 15:08:34.944640,-28928,2025-11-07 15:08:38.974471923
2025-11-07 15:08:34.944640,0,2025-11-07 15:08:38.982164231
2025-11-07 15:08:34.944640,143,2025-11-07 15:08:38.989856538
2025-11-07 15:08:34.944640,-32000,2025-11-07 15:08:38.997548846
2025-11-07 15:08:34.944640,0,2025-11-07 15:08:39.005241154
2025-11-07 15:08:34.944640,128,2025-11-07 15:08:39.012933462
2025-11-07 15:08:34.944640,-32000,2025-11-07 15:08:39.020625769
2025-11-07 15:08:34.944640,0,2025-11-07 15:08:39.028318077
2025-11-07 15:08:34.944640,133,2025-11-07 15:08:39.036010385
2025-11-07 15:08:34.944640,-30208,2025-11-07 15:08:39.043702692
2025-11-07 15:08:34.944640,0,2025-11-07 15:08:39.051395000
2025-11-07 15:08:34.944640,135,2025-11-07 15:08:39.059087308
2025-11-07 15:08:34.944640,-32000,2025-11-07 15:08:39.066779615
2025-11-07 15:08:34.944640,0,2025-11-07 15:08:39.074471923
2025-11-07 15:08:34.944640,131,2025-11-07 15:08:39.082164231
2025-11-07 15:08:34.944640,-30976,2025-11-07 15:08:39.089856538
2025-11-07 15:08:34.944640,0,2025-11-07 15:08:39.097548846
2025-11-07 15:08:34.944640,138,2025-11-07 15:08:39.105241154
2025-11-07 15:08:34.944640,-29696,2025-11-07 15:08:39.112933462
2025-11-07 15:08:34.944640,0,2025-11-07 15:08:39.120625769
2025-11-07 15:08:34.944640,150,2025-11-07 15:08:39.128318077
2025-11-07 15:08:34.944640,-26112,2025-11-07 15:08:39.136010385
2025-11-07 15:08:34.944640,0,2025-11-07 15:08:39.143702692
2025-11-07 15:08:34.944640,152,2025-11-07 15:08:39.151395000
2025-11-07 15:08:34.944640,-28416,2025-11-07 15:08:39.159087308
2025-11-07 15:08:34.944640,0,2025-11-07 15:08:39.166779615
2025-11-07 15:08:34.944640,135,2025-11-07 15:08:39.174471923
2025-11-07 15:08:34.944640,30976,2025-11-07 15:08:39.182164230
2025-11-07 15:08:34.944640,0,2025-11-07 15:08:39.189856538
2025-11-07 15:08:34.944640,100,2025-11-07 15:08:39.197548846
2025-11-07 15:08:34.944640,21248,2025-11-07 15:08:39.205241154
2025-11-07 15:08:34.944640,0,2025-11-07 15:08:39.212933462
2025-11-07 15:08:34.944640,76,2025-11-07 15:08:39.220625769
2025-11-07 15:08:34.944640,16896,2025-11-07 15:08:39.228318077
2025-11-07 15:08:34.944640,0,2025-11-07 15:08:39.236010385
2025-11-07 15:08:34.944640,54,2025-11-07 15:08:39.243702692
2025-11-07 15:08:34.944640,12032,2025-11-07 15:08:39.251395000
2025-11-07 15:08:34.944640,0,2025-11-07 15:08:39.259087308
2025-11-07 15:08:34.944640,45,2025-11-07 15:08:39.266779615
2025-11-07 15:08:34.944640,9728,2025-11-07 15:08:39.274471923
2025-11-07 15:08:34.944640,0,2025-11-07 15:08:39.282164231
2025-11-07 15:08:34.944640,33,2025-11-07 15:08:39.289856538
2025-11-07 15:08:34.944640,8960,2025-11-07 15:08:39.297548846
2025-11-07 15:08:34.944640,0,2025-11-07 15:08:39.305241154
2025-11-07 15:08:34.944640,35,2025-11-07 15:08:39.312933462
2025-11-07 15:08:34.944640,10752,2025-11-07 15:08:39.320625769
2025-11-07 15:08:34.944640,0,2025-11-07 15:08:39.328318077
2025-11-07 15:08:34.944640,47,2025-11-07 15:08:39.336010385
2025-11-07 15:08:34.944640,10752,2025-11-07 15:08:39.343702692
2025-11-07 15:08:34.944640,0,2025-11-07 15:08:39.351395000
2025-11-07 15:08:34.944640,35,2025-11-07 15:08:39.359087308
2025-11-07 15:08:34.944640,8960,2025-11-07 15:08:39.366779615
2025-11-07 15:08:34.944640,0,2025-11-07 15:08:39.374471923
2025-11-07 15:08:34.944640,42,2025-11-07 15:08:39.382164231
2025-11-07 15:08:35.479997,45,2025-11-07 15:08:39.389856538
2025-11-07 15:08:35.479997,10752,2025-11-07 15:08:39.397548846
2025-11-07 15:08:35.479997,0,2025-11-07 15:08:39.405241154
2025-11-07 15:08:35.479997,38,2025-11-07 15:08:39.412933462
2025-11-07 15:08:35.479997,8960,2025-11-07 15:08:39.420625769
2025-11-07 15:08:35.479997,0,2025-11-07 15:08:39.428318077
2025-11-07 15:08:35.479997,33,2025-11-07 15:08:39.436010385
2025-11-07 15:08:35.479997,8960,2025-11-07 15:08:39.443702692
2025-11-07 15:08:35.479997,0,2025-11-07 15:08:39.451395000
2025-11-07 15:08:35.479997,33,2025-11-07 15:08:39.459087308
2025-11-07 15:08:35.479997,6656,2025-11-07 15:08:39.466779615
2025-11-07 15:08:35.479997,0,2025-11-07 15:08:39.474471923
2025-11-07 15:08:35.479997,28,2025-11-07 15:08:39.482164231
2025-11-07 15:08:35.479997,9728,2025-11-07 15:08:39.489856538
2025-11-07 15:08:35.479997,0,2025-11-07 15:08:39.497548846
2025-11-07 15:08:35.479997,40,2025-11-07 15:08:39.505241154
2025-11-07 15:08:35.479997,13312,2025-11-07 15:08:39.512933462
2025-11-07 15:08:35.479997,0,2025-11-07 15:08:39.520625769
2025-11-07 15:08:35.479997,69,2025-11-07 15:08:39.528318077
2025-11-07 15:08:35.479997,16384,2025-11-07 15:08:39.536010385
2025-11-07 15:08:35.479997,0,2025-11-07 15:08:39.543702692
2025-11-07 15:08:35.479997,33,2025-11-07 15:08:39.551395000
2025-11-07 15:08:35.479997,2816,2025-11-07 15:08:39.559087308
2025-11-07 15:08:35.479997,0,2025-11-07 15:08:39.566779615
2025-11-07 15:08:35.479997,9,2025-11-07 15:08:39.574471923
2025-11-07 15:08:35.479997,512,2025-11-07 15:08:39.582164231
2025-11-07 15:08:35.479997,0,2025-11-07 15:08:39.589856538
2025-11-07 15:08:35.479997,0,2025-11-07 15:08:39.597548846
2025-11-07 15:08:35.479997,4864,2025-11-07 15:08:39.605241154
2025-11-07 15:08:35.479997,0,2025-11-07 15:08:39.612933462
2025-11-07 15:08:35.479997,38,2025-11-07 15:08:39.620625769
2025-11-07 15:08:35.479997,8448,2025-11-07 15:08:39.628318077
2025-11-07 15:08:35.479997,0,2025-11-07 15:08:39.636010385
2025-11-07 15:08:35.479997,26,2025-11-07 15:08:39.643702692
2025-11-07 15:08:35.479997,8960,2025-11-07 15:08:39.651395000
2025-11-07 15:08:35.479997,0,2025-11-07 15:08:39.659087308
2025-11-07 15:08:35.479997,40,2025-11-07 15:08:39.666779615
2025-11-07 15:08:35.479997,9728,2025-11-07 15:08:39.674471923
2025-11-07 15:08:35.479997,0,2025-11-07 15:08:39.682164231
2025-11-07 15:08:35.479997,38,2025-11-07 15:08:39.689856538
2025-11-07 15:08:35.479997,9728,2025-11-07 15:08:39.697548846
2025-11-07 15:08:35.479997,0,2025-11-07 15:08:39.705241154
2025-11-07 15:08:35.479997,42,2025-11-07 15:08:39.712933462
2025-11-07 15:08:35.479997,18688,2025-11-07 15:08:39.720625769
2025-11-07 15:08:35.479997,0,2025-11-07 15:08:39.728318077
2025-11-07 15:08:35.479997,116,2025-11-07 15:08:39.736010385
2025-11-07 15:08:35.479997,16384,2025-11-07 15:08:39.743702692
2025-11-07 15:08:35.479997,0,2025-11-07 15:08:39.751395000
2025-11-07 15:08:35.479997,-302,2025-11-07 15:08:39.759087308
2025-11-07 15:08:35.479997,-22785,2025-11-07 15:08:39.766779615
2025-11-07 15:08:35.479997,-4,2025-11-07 15:08:39.774471923
2025-11-07 15:08:35.479997,-882,2025-11-07 15:08:39.782164231
2025-11-07 15:08:35.479997,-4865,2025-11-07 15:08:39.789856538
2025-11-07 15:08:35.479997,-2,2025-11-07 15:08:39.797548846
2025-11-07 15:08:35.479997,128,2025-11-07 15:08:39.805241154
2025-11-07 15:08:35.479997,30976,2025-11-07 15:08:39.812933462
2025-11-07 15:08:35.479997,0,2025-11-07 15:08:39.820625769
2025-11-07 15:08:35.479997,131,2025-11-07 15:08:39.828318077
2025-11-07 15:08:35.479997,-19200,2025-11-07 15:08:39.836010385
2025-11-07 15:08:35.479997,0,2025-11-07 15:08:39.843702692
2025-11-07 15:08:35.479997,159,2025-11-07 15:08:39.851395000
2025-11-07 15:08:35.479997,-27136,2025-11-07 15:08:39.859087308
2025-11-07 15:08:35.479997,0,2025-11-07 15:08:39.866779615
2025-11-07 15:08:35.479997,171,2025-11-07 15:08:39.874471923
2025-11-07 15:08:35.479997,-24832,2025-11-07 15:08:39.882164231
2025-11-07 15:08:35.479997,0,2025-11-07 15:08:39.889856538
2025-11-07 15:08:35.479997,140,2025-11-07 15:08:39.897548846
2025-11-07 15:08:35.479997,-29696,2025-11-07 15:08:39.905241154
2025-11-07 15:08:35.479997,0,2025-11-07 15:08:39.912933462
2025-11-07 15:08:35.479997,140,2025-11-07 15:08:39.920625769
2025-11-07 15:08:35.479997,-29696,2025-11-07 15:08:39.928318077
2025-11-07 15:08:35.479997,0,2025-11-07 15:08:39.936010385
2025-11-07 15:08:35.479997,145,2025-11-07 15:08:39.943702692
2025-11-07 15:08:35.479997,-27904,2025-11-07 15:08:39.951395000
2025-11-07 15:08:35.479997,0,2025-11-07 15:08:39.959087308
2025-11-07 15:08:35.479997,150,2025-11-07 15:08:39.966779615
2025-11-07 15:08:35.479997,-26624,2025-11-07 15:08:39.974471923
2025-11-07 15:08:35.479997,0,2025-11-07 15:08:39.982164231
2025-11-07 15:08:35.479997,154,2025-11-07 15:08:39.989856538
2025-11-07 15:08:35.479997,-25344,2025-11-07 15:08:39.997548846
2025-11-07 15:08:35.479997,0,2025-11-07 15:08:40.005241154
2025-11-07 15:08:35.479997,164,2025-11-07 15:08:40.012933462
2025-11-07 15:08:35.479997,-22272,2025-11-07 15:08:40.020625769
2025-11-07 15:08:35.479997,0,2025-11-07 15:08:40.028318077
2025-11-07 15:08:35.479997,162,2025-11-07 15:08:40.036010385
2025-11-07 15:08:35.479997,-25344,2025-11-07 15:08:40.043702692
2025-11-07 15:08:35.479997,0,2025-11-07 15:08:40.051395000
2025-11-07 15:08:35.479997,159,2025-11-07 15:08:40.059087308
2025-11-07 15:08:35.479997,-26624,2025-11-07 15:08:40.066779615
2025-11-07 15:08:35.479997,0,2025-11-07 15:08:40.074471923
2025-11-07 15:08:35.479997,131,2025-11-07 15:08:40.082164231
2025-11-07 15:08:35.479997,26624,2025-11-07 15:08:40.089856538
2025-11-07 15:08:35.479997,0,2025-11-07 15:08:40.097548846
2025-11-07 15:08:35.479997,85,2025-11-07 15:08:40.105241154
2025-11-07 15:08:35.479997,18176,2025-11-07 15:08:40.112933462
2025-11-07 15:08:35.479997,0,2025-11-07 15:08:40.120625769
2025-11-07 15:08:35.479997,57,2025-11-07 15:08:40.128318077
2025-11-07 15:08:35.479997,11520,2025-11-07 15:08:40.136010385
2025-11-07 15:08:35.479997,0,2025-11-07 15:08:40.143702692
2025-11-07 15:08:35.479997,35,2025-11-07 15:08:40.151395000
2025-11-07 15:08:35.479997,8960,2025-11-07 15:08:40.159087308
2025-11-07 15:08:35.479997,0,2025-11-07 15:08:40.166779615
2025-11-07 15:08:35.479997,35,2025-11-07 15:08:40.174471923
2025-11-07 15:08:35.479997,8960,2025-11-07 15:08:40.182164230
2025-11-07 15:08:35.479997,0,2025-11-07 15:08:40.189856538
2025-11-07 15:08:35.479997,28,2025-11-07 15:08:40.197548846
2025-11-07 15:08:35.479997,8448,2025-11-07 15:08:40.205241154
2025-11-07 15:08:35.479997,0,2025-11-07 15:08:40.212933462
2025-11-07 15:08:35.479997,38,2025-11-07 15:08:40.220625769
2025-11-07 15:08:36.020664,30,2025-11-07 15:08:40.228318077
2025-11-07 15:08:36.020664,6656,2025-11-07 15:08:40.236010385
2025-11-07 15:08:36.020664,0,2025-11-07 15:08:40.243702692
2025-11-07 15:08:36.020664,38,2025-11-07 15:08:40.251395000
2025-11-07 15:08:36.020664,10752,2025-11-07 15:08:40.259087308
2025-11-07 15:08:36.020664,0,2025-11-07 15:08:40.266779615
2025-11-07 15:08:36.020664,38,2025-11-07 15:08:40.274471923
2025-11-07 15:08:36.020664,8448,2025-11-07 15:08:40.282164231
2025-11-07 15:08:36.020664,0,2025-11-07 15:08:40.289856538
2025-11-07 15:08:36.020664,30,2025-11-07 15:08:40.297548846
2025-11-07 15:08:36.020664,6656,2025-11-07 15:08:40.305241154
2025-11-07 15:08:36.020664,0,2025-11-07 15:08:40.312933462
2025-11-07 15:08:36.020664,28,2025-11-07 15:08:40.320625769
2025-11-07 15:08:36.020664,11520,2025-11-07 15:08:40.328318077
2025-11-07 15:08:36.020664,0,2025-11-07 15:08:40.336010385
2025-11-07 15:08:36.020664,54,2025-11-07 15:08:40.343702692
2025-11-07 15:08:36.020664,12800,2025-11-07 15:08:40.351395000
2025-11-07 15:08:36.020664,0,2025-11-07 15:08:40.359087308
2025-11-07 15:08:36.020664,42,2025-11-07 15:08:40.366779615
2025-11-07 15:08:36.020664,9728,2025-11-07 15:08:40.374471923
2025-11-07 15:08:36.020664,0,2025-11-07 15:08:40.382164231
2025-11-07 15:08:36.020664,40,2025-11-07 15:08:40.389856538
2025-11-07 15:08:36.020664,9728,2025-11-07 15:08:40.397548846
2025-11-07 15:08:36.020664,0,2025-11-07 15:08:40.405241154
2025-11-07 15:08:36.020664,35,2025-11-07 15:08:40.412933462
2025-11-07 15:08:36.020664,10240,2025-11-07 15:08:40.420625769
2025-11-07 15:08:36.020664,0,2025-11-07 15:08:40.428318077
2025-11-07 15:08:36.020664,42,2025-11-07 15:08:40.436010385
2025-11-07 15:08:36.020664,11520,2025-11-07 15:08:40.443702692
2025-11-07 15:08:36.020664,0,2025-11-07 15:08:40.451395000
2025-11-07 15:08:36.020664,50,2025-11-07 15:08:40.459087308
2025-11-07 15:08:36.020664,13312,2025-11-07 15:08:40.466779615
2025-11-07 15:08:36.020664,0,2025-11-07 15:08:40.474471923
2025-11-07 15:08:36.020664,35,2025-11-07 15:08:40.482164231
2025-11-07 15:08:36.020664,2816,2025-11-07 15:08:40.489856538
2025-11-07 15:08:36.020664,0,2025-11-07 15:08:40.497548846
2025-11-07 15:08:36.020664,0,2025-11-07 15:08:40.505241154
2025-11-07 15:08:36.020664,512,2025-11-07 15:08:40.512933462
2025-11-07 15:08:36.020664,0,2025-11-07 15:08:40.520625769
2025-11-07 15:08:36.020664,-2,2025-11-07 15:08:40.528318077
2025-11-07 15:08:36.020664,767,2025-11-07 15:08:40.536010385
2025-11-07 15:08:36.020664,0,2025-11-07 15:08:40.543702692
2025-11-07 15:08:36.020664,28,2025-11-07 15:08:40.551395000
2025-11-07 15:08:36.020664,9728,2025-11-07 15:08:40.559087308
2025-11-07 15:08:36.020664,0,2025-11-07 15:08:40.566779615
2025-11-07 15:08:36.020664,28,2025-11-07 15:08:40.574471923
2025-11-07 15:08:36.020664,8448,2025-11-07 15:08:40.582164231
2025-11-07 15:08:36.020664,0,2025-11-07 15:08:40.589856538
2025-11-07 15:08:36.020664,45,2025-11-07 15:08:40.597548846
2025-11-07 15:08:36.020664,11520,2025-11-07 15:08:40.605241154
2025-11-07 15:08:36.020664,0,2025-11-07 15:08:40.612933462
2025-11-07 15:08:36.020664,45,2025-11-07 15:08:40.620625769
2025-11-07 15:08:36.020664,13312,2025-11-07 15:08:40.628318077
2025-11-07 15:08:36.020664,0,2025-11-07 15:08:40.636010385
2025-11-07 15:08:36.020664,59,2025-11-07 15:08:40.643702692
2025-11-07 15:08:36.020664,21760,2025-11-07 15:08:40.651395000
2025-11-07 15:08:36.020664,0,2025-11-07 15:08:40.659087308
2025-11-07 15:08:36.020664,128,2025-11-07 15:08:40.666779615
2025-11-07 15:08:36.020664,27392,2025-11-07 15:08:40.674471923
2025-11-07 15:08:36.020664,0,2025-11-07 15:08:40.682164231
2025-11-07 15:08:36.020664,-174,2025-11-07 15:08:40.689856538
2025-11-07 15:08:36.020664,11519,2025-11-07 15:08:40.697548846
2025-11-07 15:08:36.020664,-3,2025-11-07 15:08:40.705241154
2025-11-07 15:08:36.020664,-932,2025-11-07 15:08:40.712933462
2025-11-07 15:08:36.020664,22271,2025-11-07 15:08:40.720625769
2025-11-07 15:08:36.020664,-2,2025-11-07 15:08:40.728318077
2025-11-07 15:08:36.020664,90,2025-11-07 15:08:40.736010385
2025-11-07 15:08:36.020664,-26112,2025-11-07 15:08:40.743702692
2025-11-07 15:08:36.020664,0,2025-11-07 15:08:40.751395000
2025-11-07 15:08:36.020664,135,2025-11-07 15:08:40.759087308
2025-11-07 15:08:36.020664,-16128,2025-11-07 15:08:40.766779615
2025-11-07 15:08:36.020664,0,2025-11-07 15:08:40.774471923
2025-11-07 15:08:36.020664,183,2025-11-07 15:08:40.782164231
2025-11-07 15:08:36.020664,-25344,2025-11-07 15:08:40.789856538
2025-11-07 15:08:36.020664,0,2025-11-07 15:08:40.797548846
2025-11-07 15:08:36.020664,174,2025-11-07 15:08:40.805241154
2025-11-07 15:08:36.020664,-20992,2025-11-07 15:08:40.812933462
2025-11-07 15:08:36.020664,0,2025-11-07 15:08:40.820625769
2025-11-07 15:08:36.020664,162,2025-11-07 15:08:40.828318077
2025-11-07 15:08:36.020664,-24064,2025-11-07 15:08:40.836010385
2025-11-07 15:08:36.020664,0,2025-11-07 15:08:40.843702692
2025-11-07 15:08:36.020664,159,2025-11-07 15:08:40.851395000
2025-11-07 15:08:36.020664,-24832,2025-11-07 15:08:40.859087308
2025-11-07 15:08:36.020664,0,2025-11-07 15:08:40.866779615
2025-11-07 15:08:36.020664,159,2025-11-07 15:08:40.874471923
2025-11-07 15:08:36.020664,-26624,2025-11-07 15:08:40.882164231
2025-11-07 15:08:36.020664,0,2025-11-07 15:08:40.889856538
2025-11-07 15:08:36.020664,150,2025-11-07 15:08:40.897548846
2025-11-07 15:08:36.020664,-26112,2025-11-07 15:08:40.905241154
2025-11-07 15:08:36.020664,0,2025-11-07 15:08:40.912933462
2025-11-07 15:08:36.020664,154,2025-11-07 15:08:40.920625769
2025-11-07 15:08:36.020664,-26112,2025-11-07 15:08:40.928318077
2025-11-07 15:08:36.020664,0,2025-11-07 15:08:40.936010385
2025-11-07 15:08:36.020664,162,2025-11-07 15:08:40.943702692
2025-11-07 15:08:36.020664,-22272,2025-11-07 15:08:40.951395000
2025-11-07 15:08:36.020664,0,2025-11-07 15:08:40.959087308
2025-11-07 15:08:36.020664,169,2025-11-07 15:08:40.966779615
2025-11-07 15:08:36.020664,-23040,2025-11-07 15:08:40.974471923
2025-11-07 15:08:36.020664,0,2025-11-07 15:08:40.982164231
2025-11-07 15:08:36.020664,164,2025-11-07 15:08:40.989856538
2025-11-07 15:08:36.020664,-26112,2025-11-07 15:08:40.997548846
2025-11-07 15:08:36.020664,0,2025-11-07 15:08:41.005241154
2025-11-07 15:08:36.020664,138,2025-11-07 15:08:41.012933462
2025-11-07 15:08:36.020664,30464,2025-11-07 15:08:41.020625769
2025-11-07 15:08:36.020664,0,2025-11-07 15:08:41.028318077
2025-11-07 15:08:36.020664,95,2025-11-07 15:08:41.036010385
2025-11-07 15:08:36.020664,18688,2025-11-07 15:08:41.043702692
2025-11-07 15:08:36.020664,0,2025-11-07 15:08:41.051395000
2025-11-07 15:08:36.020664,57,2025-11-07 15:08:41.059087308
2025-11-07 15:08:36.563953,50,2025-11-07 15:08:41.066779615
2025-11-07 15:08:36.563953,10240,2025-11-07 15:08:41.074471923
2025-11-07 15:08:36.563953,0,2025-11-07 15:08:41.082164231
2025-11-07 15:08:36.563953,35,2025-11-07 15:08:41.089856538
2025-11-07 15:08:36.563953,8960,2025-11-07 15:08:41.097548846
2025-11-07 15:08:36.563953,0,2025-11-07 15:08:41.105241154
2025-11-07 15:08:36.563953,33,2025-11-07 15:08:41.112933462
2025-11-07 15:08:36.563953,8448,2025-11-07 15:08:41.120625769
2025-11-07 15:08:36.563953,0,2025-11-07 15:08:41.128318077
2025-11-07 15:08:36.563953,47,2025-11-07 15:08:41.136010385
2025-11-07 15:08:36.563953,15616,2025-11-07 15:08:41.143702692
2025-11-07 15:08:36.563953,0,2025-11-07 15:08:41.151395000
2025-11-07 15:08:36.563953,59,2025-11-07 15:08:41.159087308
2025-11-07 15:08:36.563953,13824,2025-11-07 15:08:41.166779615
2025-11-07 15:08:36.563953,0,2025-11-07 15:08:41.174471923
2025-11-07 15:08:36.563953,54,2025-11-07 15:08:41.182164230
2025-11-07 15:08:36.563953,13312,2025-11-07 15:08:41.189856538
2025-11-07 15:08:36.563953,0,2025-11-07 15:08:41.197548846
2025-11-07 15:08:36.563953,50,2025-11-07 15:08:41.205241154
2025-11-07 15:08:36.563953,14592,2025-11-07 15:08:41.212933462
2025-11-07 15:08:36.563953,0,2025-11-07 15:08:41.220625769
2025-11-07 15:08:36.563953,54,2025-11-07 15:08:41.228318077
2025-11-07 15:08:36.563953,12032,2025-11-07 15:08:41.236010385
2025-11-07 15:08:36.563953,0,2025-11-07 15:08:41.243702692
2025-11-07 15:08:36.563953,50,2025-11-07 15:08:41.251395000
2025-11-07 15:08:36.563953,12800,2025-11-07 15:08:41.259087308
2025-11-07 15:08:36.563953,0,2025-11-07 15:08:41.266779615
2025-11-07 15:08:36.563953,42,2025-11-07 15:08:41.274471923
2025-11-07 15:08:36.563953,10240,2025-11-07 15:08:41.282164231
2025-11-07 15:08:36.563953,0,2025-11-07 15:08:41.289856538
2025-11-07 15:08:36.563953,40,2025-11-07 15:08:41.297548846
2025-11-07 15:08:36.563953,9728,2025-11-07 15:08:41.305241154
2025-11-07 15:08:36.563953,0,2025-11-07 15:08:41.312933462
2025-11-07 15:08:36.563953,38,2025-11-07 15:08:41.320625769
2025-11-07 15:08:36.563953,8960,2025-11-07 15:08:41.328318077
2025-11-07 15:08:36.563953,0,2025-11-07 15:08:41.336010385
2025-11-07 15:08:36.563953,28,2025-11-07 15:08:41.343702692
2025-11-07 15:08:36.563953,7680,2025-11-07 15:08:41.351395000
2025-11-07 15:08:36.563953,0,2025-11-07 15:08:41.359087308
2025-11-07 15:08:36.563953,40,2025-11-07 15:08:41.366779615
2025-11-07 15:08:36.563953,9728,2025-11-07 15:08:41.374471923
2025-11-07 15:08:36.563953,0,2025-11-07 15:08:41.382164231
2025-11-07 15:08:36.563953,28,2025-11-07 15:08:41.389856538
2025-11-07 15:08:36.563953,8960,2025-11-07 15:08:41.397548846
2025-11-07 15:08:36.563953,0,2025-11-07 15:08:41.405241154
2025-11-07 15:08:36.563953,52,2025-11-07 15:08:41.412933462
2025-11-07 15:08:36.563953,14592,2025-11-07 15:08:41.420625769
2025-11-07 15:08:36.563953,0,2025-11-07 15:08:41.428318077
2025-11-07 15:08:36.563953,50,2025-11-07 15:08:41.436010385
2025-11-07 15:08:36.563953,10752,2025-11-07 15:08:41.443702692
2025-11-07 15:08:36.563953,0,2025-11-07 15:08:41.451395000
2025-11-07 15:08:36.563953,28,2025-11-07 15:08:41.459087308
2025-11-07 15:08:36.563953,2816,2025-11-07 15:08:41.466779615
2025-11-07 15:08:36.563953,0,2025-11-07 15:08:41.474471923
2025-11-07 15:08:36.563953,2,2025-11-07 15:08:41.482164231
2025-11-07 15:08:36.563953,-1024,2025-11-07 15:08:41.489856538
2025-11-07 15:08:36.563953,-1,2025-11-07 15:08:41.497548846
2025-11-07 15:08:36.563953,-9,2025-11-07 15:08:41.505241154
2025-11-07 15:08:36.563953,255,2025-11-07 15:08:41.512933462
2025-11-07 15:08:36.563953,0,2025-11-07 15:08:41.520625769
2025-11-07 15:08:36.563953,26,2025-11-07 15:08:41.528318077
2025-11-07 15:08:36.563953,8960,2025-11-07 15:08:41.536010385
2025-11-07 15:08:36.563953,0,2025-11-07 15:08:41.543702692
2025-11-07 15:08:36.563953,30,2025-11-07 15:08:41.551395000
2025-11-07 15:08:36.563953,7680,2025-11-07 15:08:41.559087308
2025-11-07 15:08:36.563953,0,2025-11-07 15:08:41.566779615
2025-11-07 15:08:36.563953,35,2025-11-07 15:08:41.574471923
2025-11-07 15:08:36.563953,10752,2025-11-07 15:08:41.582164231
2025-11-07 15:08:36.563953,0,2025-11-07 15:08:41.589856538
2025-11-07 15:08:36.563953,45,2025-11-07 15:08:41.597548846
2025-11-07 15:08:36.563953,12032,2025-11-07 15:08:41.605241154
2025-11-07 15:08:36.563953,0,2025-11-07 15:08:41.612933462
2025-11-07 15:08:36.563953,59,2025-11-07 15:08:41.620625769
2025-11-07 15:08:36.563953,21248,2025-11-07 15:08:41.628318077
2025-11-07 15:08:36.563953,0,2025-11-07 15:08:41.636010385
2025-11-07 15:08:36.563953,121,2025-11-07 15:08:41.643702692
2025-11-07 15:08:36.563953,19968,2025-11-07 15:08:41.651395000
2025-11-07 15:08:36.563953,0,2025-11-07 15:08:41.659087308
2025-11-07 15:08:36.563953,-240,2025-11-07 15:08:41.666779615
2025-11-07 15:08:36.563953,-769,2025-11-07 15:08:41.674471923
2025-11-07 15:08:36.563953,-4,2025-11-07 15:08:41.682164231
2025-11-07 15:08:36.563953,-877,2025-11-07 15:08:41.689856538
2025-11-07 15:08:36.563953,-21249,2025-11-07 15:08:41.697548846
2025-11-07 15:08:36.563953,-2,2025-11-07 15:08:41.705241154
2025-11-07 15:08:36.563953,100,2025-11-07 15:08:41.712933462
2025-11-07 15:08:36.563953,32256,2025-11-07 15:08:41.720625769
2025-11-07 15:08:36.563953,0,2025-11-07 15:08:41.728318077
2025-11-07 15:08:36.563953,128,2025-11-07 15:08:41.736010385
2025-11-07 15:08:36.563953,-19200,2025-11-07 15:08:41.743702692
2025-11-07 15:08:36.563953,0,2025-11-07 15:08:41.751395000
2025-11-07 15:08:36.563953,162,2025-11-07 15:08:41.759087308
2025-11-07 15:08:36.563953,-28928,2025-11-07 15:08:41.766779615
2025-11-07 15:08:36.563953,0,2025-11-07 15:08:41.774471923
2025-11-07 15:08:36.563953,154,2025-11-07 15:08:41.782164231
2025-11-07 15:08:36.563953,-27136,2025-11-07 15:08:41.789856538
2025-11-07 15:08:36.563953,0,2025-11-07 15:08:41.797548846
2025-11-07 15:08:36.563953,135,2025-11-07 15:08:41.805241154
2025-11-07 15:08:36.563953,-30976,2025-11-07 15:08:41.812933462
2025-11-07 15:08:36.563953,0,2025-11-07 15:08:41.820625769
2025-11-07 15:08:36.563953,133,2025-11-07 15:08:41.828318077
2025-11-07 15:08:36.563953,-32768,2025-11-07 15:08:41.836010385
2025-11-07 15:08:36.563953,0,2025-11-07 15:08:41.843702692
2025-11-07 15:08:36.563953,128,2025-11-07 15:08:41.851395000
2025-11-07 15:08:36.563953,-32000,2025-11-07 15:08:41.859087308
2025-11-07 15:08:36.563953,0,2025-11-07 15:08:41.866779615
2025-11-07 15:08:36.563953,128,2025-11-07 15:08:41.874471923
2025-11-07 15:08:36.563953,-32768,2025-11-07 15:08:41.882164231
2025-11-07 15:08:36.563953,0,2025-11-07 15:08:41.889856538
2025-11-07 15:08:36.563953,131,2025-11-07 15:08:41.897548846
2025-11-07 15:08:37.235641,135,2025-11-07 15:08:41.905241154
2025-11-07 15:08:37.235641,-30208,2025-11-07 15:08:41.912933462
2025-11-07 15:08:37.235641,0,2025-11-07 15:08:41.920625769
2025-11-07 15:08:37.235641,143,2025-11-07 15:08:41.928318077
2025-11-07 15:08:37.235641,-24832,2025-11-07 15:08:41.936010385
2025-11-07 15:08:37.235641,0,2025-11-07 15:08:41.943702692
2025-11-07 15:08:37.235641,176,2025-11-07 15:08:41.951395000
2025-11-07 15:08:37.235641,-22272,2025-11-07 15:08:41.959087308
2025-11-07 15:08:37.235641,0,2025-11-07 15:08:41.966779615
2025-11-07 15:08:37.235641,154,2025-11-07 15:08:41.974471923
2025-11-07 15:08:37.235641,-30208,2025-11-07 15:08:41.982164231
2025-11-07 15:08:37.235641,0,2025-11-07 15:08:41.989856538
2025-11-07 15:08:37.235641,116,2025-11-07 15:08:41.997548846
2025-11-07 15:08:37.235641,25600,2025-11-07 15:08:42.005241154
2025-11-07 15:08:37.235641,0,2025-11-07 15:08:42.012933462
2025-11-07 15:08:37.235641,83,2025-11-07 15:08:42.020625769
2025-11-07 15:08:37.235641,16384,2025-11-07 15:08:42.028318077
2025-11-07 15:08:37.235641,0,2025-11-07 15:08:42.036010385
2025-11-07 15:08:37.235641,54,2025-11-07 15:08:42.043702692
2025-11-07 15:08:37.235641,12032,2025-11-07 15:08:42.051395000
2025-11-07 15:08:37.235641,0,2025-11-07 15:08:42.059087308
2025-11-07 15:08:37.235641,40,2025-11-07 15:08:42.066779615
2025-11-07 15:08:37.235641,9728,2025-11-07 15:08:42.074471923
2025-11-07 15:08:37.235641,0,2025-11-07 15:08:42.082164231
2025-11-07 15:08:37.235641,40,2025-11-07 15:08:42.089856538
2025-11-07 15:08:37.235641,8960,2025-11-07 15:08:42.097548846
2025-11-07 15:08:37.235641,0,2025-11-07 15:08:42.105241154
2025-11-07 15:08:37.235641,38,2025-11-07 15:08:42.112933462
2025-11-07 15:08:37.235641,11520,2025-11-07 15:08:42.120625769
2025-11-07 15:08:37.235641,0,2025-11-07 15:08:42.128318077
2025-11-07 15:08:37.235641,47,2025-11-07 15:08:42.136010385
2025-11-07 15:08:37.235641,12032,2025-11-07 15:08:42.143702692
2025-11-07 15:08:37.235641,0,2025-11-07 15:08:42.151395000
2025-11-07 15:08:37.235641,47,2025-11-07 15:08:42.159087308
2025-11-07 15:08:37.235641,10752,2025-11-07 15:08:42.166779615
2025-11-07 15:08:37.235641,0,2025-11-07 15:08:42.174471923
2025-11-07 15:08:37.235641,38,2025-11-07 15:08:42.182164230
2025-11-07 15:08:37.235641,9728,2025-11-07 15:08:42.189856538
2025-11-07 15:08:37.235641,0,2025-11-07 15:08:42.197548846
2025-11-07 15:08:37.235641,40,2025-11-07 15:08:42.205241154
2025-11-07 15:08:37.235641,10240,2025-11-07 15:08:42.212933462
2025-11-07 15:08:37.235641,0,2025-11-07 15:08:42.220625769
2025-11-07 15:08:37.235641,33,2025-11-07 15:08:42.228318077
2025-11-07 15:08:37.235641,8448,2025-11-07 15:08:42.236010385
2025-11-07 15:08:37.235641,0,2025-11-07 15:08:42.243702692
2025-11-07 15:08:37.235641,33,2025-11-07 15:08:42.251395000
2025-11-07 15:08:37.235641,7680,2025-11-07 15:08:42.259087308
2025-11-07 15:08:37.235641,0,2025-11-07 15:08:42.266779615
2025-11-07 15:08:37.235641,28,2025-11-07 15:08:42.274471923
2025-11-07 15:08:37.235641,7680,2025-11-07 15:08:42.282164231
2025-11-07 15:08:37.235641,0,2025-11-07 15:08:42.289856538
2025-11-07 15:08:37.235641,28,2025-11-07 15:08:42.297548846
2025-11-07 15:08:37.235641,5376,2025-11-07 15:08:42.305241154
2025-11-07 15:08:37.235641,0,2025-11-07 15:08:42.312933462
2025-11-07 15:08:37.235641,26,2025-11-07 15:08:42.320625769
2025-11-07 15:08:37.235641,7168,2025-11-07 15:08:42.328318077
2025-11-07 15:08:37.235641,0,2025-11-07 15:08:42.336010385
2025-11-07 15:08:37.235641,26,2025-11-07 15:08:42.343702692
2025-11-07 15:08:37.235641,6656,2025-11-07 15:08:42.351395000
2025-11-07 15:08:37.235641,0,2025-11-07 15:08:42.359087308
2025-11-07 15:08:37.235641,26,2025-11-07 15:08:42.366779615
2025-11-07 15:08:37.235641,5888,2025-11-07 15:08:42.374471923
2025-11-07 15:08:37.235641,0,2025-11-07 15:08:42.382164231
2025-11-07 15:08:37.235641,38,2025-11-07 15:08:42.389856538
2025-11-07 15:08:37.235641,12800,2025-11-07 15:08:42.397548846
2025-11-07 15:08:37.235641,0,2025-11-07 15:08:42.405241154
2025-11-07 15:08:37.235641,45,2025-11-07 15:08:42.412933462
2025-11-07 15:08:37.235641,8448,2025-11-07 15:08:42.420625769
2025-11-07 15:08:37.235641,0,2025-11-07 15:08:42.428318077
2025-11-07 15:08:37.235641,14,2025-11-07 15:08:42.436010385
2025-11-07 15:08:37.235641,0,2025-11-07 15:08:42.443702692
2025-11-07 15:08:37.235641,0,2025-11-07 15:08:42.451395000
2025-11-07 15:08:37.235641,-2,2025-11-07 15:08:42.459087308
2025-11-07 15:08:37.235641,-2561,2025-11-07 15:08:42.466779615
2025-11-07 15:08:37.235641,-1,2025-11-07 15:08:42.474471923
2025-11-07 15:08:37.235641,-11,2025-11-07 15:08:42.482164231
2025-11-07 15:08:37.235641,3839,2025-11-07 15:08:42.489856538
2025-11-07 15:08:37.235641,0,2025-11-07 15:08:42.497548846
2025-11-07 15:08:37.235641,38,2025-11-07 15:08:42.505241154
2025-11-07 15:08:37.235641,8960,2025-11-07 15:08:42.512933462
2025-11-07 15:08:37.235641,0,2025-11-07 15:08:42.520625769
2025-11-07 15:08:37.235641,30,2025-11-07 15:08:42.528318077
2025-11-07 15:08:37.235641,9728,2025-11-07 15:08:42.536010385
2025-11-07 15:08:37.235641,0,2025-11-07 15:08:42.543702692
2025-11-07 15:08:37.235641,45,2025-11-07 15:08:42.551395000
2025-11-07 15:08:37.235641,12032,2025-11-07 15:08:42.559087308
2025-11-07 15:08:37.235641,0,2025-11-07 15:08:42.566779615
2025-11-07 15:08:37.235641,54,2025-11-07 15:08:42.574471923
2025-11-07 15:08:37.235641,12800,2025-11-07 15:08:42.582164231
2025-11-07 15:08:37.235641,0,2025-11-07 15:08:42.589856538
2025-11-07 15:08:37.235641,54,2025-11-07 15:08:42.597548846
2025-11-07 15:08:37.235641,23552,2025-11-07 15:08:42.605241154
2025-11-07 15:08:37.235641,0,2025-11-07 15:08:42.612933462
2025-11-07 15:08:37.235641,128,2025-11-07 15:08:42.620625769
2025-11-07 15:08:37.235641,7680,2025-11-07 15:08:42.628318077
2025-11-07 15:08:37.235641,0,2025-11-07 15:08:42.636010385
2025-11-07 15:08:37.235641,-367,2025-11-07 15:08:42.643702692
2025-11-07 15:08:37.235641,-19201,2025-11-07 15:08:42.651395000
2025-11-07 15:08:37.235641,-4,2025-11-07 15:08:42.659087308
2025-11-07 15:08:37.235641,-753,2025-11-07 15:08:42.666779615
2025-11-07 15:08:37.235641,19455,2025-11-07 15:08:42.674471923
2025-11-07 15:08:37.235641,-1,2025-11-07 15:08:42.682164231
2025-11-07 15:08:37.235641,131,2025-11-07 15:08:42.689856538
2025-11-07 15:08:37.235641,30976,2025-11-07 15:08:42.697548846
2025-11-07 15:08:37.235641,0,2025-11-07 15:08:42.705241154
2025-11-07 15:08:37.235641,147,2025-11-07 15:08:42.712933462
2025-11-07 15:08:37.235641,-18176,2025-11-07 15:08:42.720625769
2025-11-07 15:08:37.235641,0,2025-11-07 15:08:42.728318077
2025-11-07 15:08:37.235641,154,2025-11-07 15:08:42.736010385
2025-11-07 15:08:37.734136,145,2025-11-07 15:08:42.743702692
2025-11-07 15:08:37.734136,-24832,2025-11-07 15:08:42.751395000
2025-11-07 15:08:37.734136,0,2025-11-07 15:08:42.759087308
2025-11-07 15:08:37.734136,150,2025-11-07 15:08:42.766779615
2025-11-07 15:08:37.734136,-30976,2025-11-07 15:08:42.774471923
2025-11-07 15:08:37.734136,0,2025-11-07 15:08:42.782164231
2025-11-07 15:08:37.734136,133,2025-11-07 15:08:42.789856538
2025-11-07 15:08:37.734136,-30976,2025-11-07 15:08:42.797548846
2025-11-07 15:08:37.734136,0,2025-11-07 15:08:42.805241154
