timestamp,ecg,reconstructed_time
2025-11-07 12:01:01.609712,-2,2025-11-07 12:01:01.609712000
2025-11-07 12:01:01.609712,-2049,2025-11-07 12:01:01.617404308
2025-11-07 12:01:01.609712,-1,2025-11-07 12:01:01.625096615
2025-11-07 12:01:01.609712,-12,2025-11-07 12:01:01.632788923
2025-11-07 12:01:01.609712,-1537,2025-11-07 12:01:01.640481231
2025-11-07 12:01:01.609712,-1,2025-11-07 12:01:01.648173538
2025-11-07 12:01:01.609712,0,2025-11-07 12:01:01.655865846
2025-11-07 12:01:01.609712,3584,2025-11-07 12:01:01.663558154
2025-11-07 12:01:01.609712,0,2025-11-07 12:01:01.671250462
2025-11-07 12:01:01.609712,29,2025-11-07 12:01:01.678942769
2025-11-07 12:01:01.609712,6144,2025-11-07 12:01:01.686635077
2025-11-07 12:01:01.609712,0,2025-11-07 12:01:01.694327385
2025-11-07 12:01:01.609712,33,2025-11-07 12:01:01.702019692
2025-11-07 12:01:01.609712,11520,2025-11-07 12:01:01.709712000
2025-11-07 12:01:01.609712,0,2025-11-07 12:01:01.717404308
2025-11-07 12:01:01.609712,36,2025-11-07 12:01:01.725096615
2025-11-07 12:01:01.609712,3584,2025-11-07 12:01:01.732788923
2025-11-07 12:01:01.609712,0,2025-11-07 12:01:01.740481231
2025-11-07 12:01:01.609712,7,2025-11-07 12:01:01.748173538
2025-11-07 12:01:01.609712,1792,2025-11-07 12:01:01.755865846
2025-11-07 12:01:01.609712,0,2025-11-07 12:01:01.763558154
2025-11-07 12:01:01.609712,7,2025-11-07 12:01:01.771250462
2025-11-07 12:01:01.609712,1792,2025-11-07 12:01:01.778942769
2025-11-07 12:01:01.609712,0,2025-11-07 12:01:01.786635077
2025-11-07 12:01:01.609712,4,2025-11-07 12:01:01.794327385
2025-11-07 12:01:01.609712,1792,2025-11-07 12:01:01.802019692
2025-11-07 12:01:01.609712,0,2025-11-07 12:01:01.809712000
2025-11-07 12:01:01.609712,2,2025-11-07 12:01:01.817404308
2025-11-07 12:01:01.609712,-12288,2025-11-07 12:01:01.825096615
2025-11-07 12:01:01.609712,-1,2025-11-07 12:01:01.832788923
2025-11-07 12:01:01.609712,-130,2025-11-07 12:01:01.840481231
2025-11-07 12:01:01.609712,-25601,2025-11-07 12:01:01.848173538
2025-11-07 12:01:01.609712,-1,2025-11-07 12:01:01.855865846
2025-11-07 12:01:01.609712,195,2025-11-07 12:01:01.863558154
2025-11-07 12:01:01.609712,31488,2025-11-07 12:01:01.871250462
2025-11-07 12:01:01.609712,2,2025-11-07 12:01:01.878942769
2025-11-07 12:01:01.609712,775,2025-11-07 12:01:01.886635077
2025-11-07 12:01:01.609712,-9984,2025-11-07 12:01:01.894327385
2025-11-07 12:01:01.609712,1,2025-11-07 12:01:01.902019692
2025-11-07 12:01:01.609712,84,2025-11-07 12:01:01.909712000
2025-11-07 12:01:01.609712,-15360,2025-11-07 12:01:01.917404308
2025-11-07 12:01:01.609712,-1,2025-11-07 12:01:01.925096615
2025-11-07 12:01:01.609712,-58,2025-11-07 12:01:01.932788923
2025-11-07 12:01:01.609712,-19457,2025-11-07 12:01:01.940481231
2025-11-07 12:01:01.609712,-1,2025-11-07 12:01:01.948173538
2025-11-07 12:01:01.609712,-91,2025-11-07 12:01:01.955865846
2025-11-07 12:01:01.609712,-18689,2025-11-07 12:01:01.963558154
2025-11-07 12:01:01.609712,-1,2025-11-07 12:01:01.971250462
2025-11-07 12:01:01.609712,-72,2025-11-07 12:01:01.978942769
2025-11-07 12:01:01.609712,-18177,2025-11-07 12:01:01.986635077
2025-11-07 12:01:01.609712,-1,2025-11-07 12:01:01.994327385
2025-11-07 12:01:01.609712,-65,2025-11-07 12:01:02.002019692
2025-11-07 12:01:01.609712,-16385,2025-11-07 12:01:02.009712000
2025-11-07 12:01:01.609712,-1,2025-11-07 12:01:02.017404308
2025-11-07 12:01:01.609712,-67,2025-11-07 12:01:02.025096615
2025-11-07 12:01:01.609712,-17665,2025-11-07 12:01:02.032788923
2025-11-07 12:01:01.609712,-1,2025-11-07 12:01:02.040481231
2025-11-07 12:01:01.609712,-65,2025-11-07 12:01:02.048173538
2025-11-07 12:01:01.609712,-14593,2025-11-07 12:01:02.055865846
2025-11-07 12:01:01.609712,-1,2025-11-07 12:01:02.063558154
2025-11-07 12:01:01.609712,-48,2025-11-07 12:01:02.071250462
2025-11-07 12:01:01.609712,-11265,2025-11-07 12:01:02.078942769
2025-11-07 12:01:01.609712,-1,2025-11-07 12:01:02.086635077
2025-11-07 12:01:01.609712,-50,2025-11-07 12:01:02.094327385
2025-11-07 12:01:01.609712,-12033,2025-11-07 12:01:02.102019692
2025-11-07 12:01:01.609712,-1,2025-11-07 12:01:02.109712000
2025-11-07 12:01:01.609712,-41,2025-11-07 12:01:02.117404308
2025-11-07 12:01:01.609712,-10753,2025-11-07 12:01:02.125096615
2025-11-07 12:01:01.609712,-1,2025-11-07 12:01:02.132788923
2025-11-07 12:01:01.609712,-43,2025-11-07 12:01:02.140481230
2025-11-07 12:01:01.609712,-9473,2025-11-07 12:01:02.148173538
2025-11-07 12:01:01.609712,-1,2025-11-07 12:01:02.155865846
2025-11-07 12:01:01.609712,-33,2025-11-07 12:01:02.163558154
2025-11-07 12:01:01.609712,-5889,2025-11-07 12:01:02.171250462
2025-11-07 12:01:01.609712,-1,2025-11-07 12:01:02.178942769
2025-11-07 12:01:01.609712,-4,2025-11-07 12:01:02.186635077
2025-11-07 12:01:01.609712,2047,2025-11-07 12:01:02.194327385
2025-11-07 12:01:01.609712,0,2025-11-07 12:01:02.202019692
2025-11-07 12:01:01.609712,2,2025-11-07 12:01:02.209712000
2025-11-07 12:01:01.609712,1792,2025-11-07 12:01:02.217404308
2025-11-07 12:01:01.609712,0,2025-11-07 12:01:02.225096615
2025-11-07 12:01:01.609712,24,2025-11-07 12:01:02.232788923
2025-11-07 12:01:01.609712,7424,2025-11-07 12:01:02.240481231
2025-11-07 12:01:01.609712,0,2025-11-07 12:01:02.248173538
2025-11-07 12:01:01.609712,26,2025-11-07 12:01:02.255865846
2025-11-07 12:01:01.609712,4864,2025-11-07 12:01:02.263558154
2025-11-07 12:01:01.609712,0,2025-11-07 12:01:02.271250462
2025-11-07 12:01:01.609712,7,2025-11-07 12:01:02.278942769
2025-11-07 12:01:01.609712,0,2025-11-07 12:01:02.286635077
2025-11-07 12:01:01.609712,0,2025-11-07 12:01:02.294327385
2025-11-07 12:01:01.609712,-7,2025-11-07 12:01:02.302019692
2025-11-07 12:01:01.609712,-2817,2025-11-07 12:01:02.309712000
2025-11-07 12:01:01.609712,-1,2025-11-07 12:01:02.317404308
2025-11-07 12:01:01.609712,-7,2025-11-07 12:01:02.325096615
2025-11-07 12:01:01.609712,-2049,2025-11-07 12:01:02.332788923
2025-11-07 12:01:01.609712,-1,2025-11-07 12:01:02.340481231
2025-11-07 12:01:01.609712,-7,2025-11-07 12:01:02.348173538
2025-11-07 12:01:01.609712,-1537,2025-11-07 12:01:02.355865846
2025-11-07 12:01:01.609712,-1,2025-11-07 12:01:02.363558154
2025-11-07 12:01:01.609712,-9,2025-11-07 12:01:02.371250462
2025-11-07 12:01:01.609712,-1537,2025-11-07 12:01:02.378942769
2025-11-07 12:01:01.609712,-1,2025-11-07 12:01:02.386635077
2025-11-07 12:01:01.609712,-4,2025-11-07 12:01:02.394327385
2025-11-07 12:01:01.609712,-769,2025-11-07 12:01:02.402019692
2025-11-07 12:01:01.609712,-1,2025-11-07 12:01:02.409712000
2025-11-07 12:01:01.609712,-7,2025-11-07 12:01:02.417404308
2025-11-07 12:01:01.609712,-2049,2025-11-07 12:01:02.425096615
2025-11-07 12:01:01.609712,-1,2025-11-07 12:01:02.432788923
2025-11-07 12:01:01.609712,-9,2025-11-07 12:01:02.440481231
2025-11-07 12:01:02.148934,-14,2025-11-07 12:01:02.448173538
2025-11-07 12:01:02.148934,-3329,2025-11-07 12:01:02.455865846
2025-11-07 12:01:02.148934,-1,2025-11-07 12:01:02.463558154
2025-11-07 12:01:02.148934,-9,2025-11-07 12:01:02.471250462
2025-11-07 12:01:02.148934,-2817,2025-11-07 12:01:02.478942769
2025-11-07 12:01:02.148934,-1,2025-11-07 12:01:02.486635077
2025-11-07 12:01:02.148934,-16,2025-11-07 12:01:02.494327385
2025-11-07 12:01:02.148934,-3841,2025-11-07 12:01:02.502019692
2025-11-07 12:01:02.148934,-1,2025-11-07 12:01:02.509712000
2025-11-07 12:01:02.148934,-14,2025-11-07 12:01:02.517404308
2025-11-07 12:01:02.148934,-2817,2025-11-07 12:01:02.525096615
2025-11-07 12:01:02.148934,-1,2025-11-07 12:01:02.532788923
2025-11-07 12:01:02.148934,-7,2025-11-07 12:01:02.540481231
2025-11-07 12:01:02.148934,1279,2025-11-07 12:01:02.548173538
2025-11-07 12:01:02.148934,0,2025-11-07 12:01:02.555865846
2025-11-07 12:01:02.148934,21,2025-11-07 12:01:02.563558154
2025-11-07 12:01:02.148934,6656,2025-11-07 12:01:02.571250462
2025-11-07 12:01:02.148934,0,2025-11-07 12:01:02.578942769
2025-11-07 12:01:02.148934,19,2025-11-07 12:01:02.586635077
2025-11-07 12:01:02.148934,4864,2025-11-07 12:01:02.594327385
2025-11-07 12:01:02.148934,0,2025-11-07 12:01:02.602019692
2025-11-07 12:01:02.148934,24,2025-11-07 12:01:02.609712000
2025-11-07 12:01:02.148934,5376,2025-11-07 12:01:02.617404308
2025-11-07 12:01:02.148934,0,2025-11-07 12:01:02.625096615
2025-11-07 12:01:02.148934,21,2025-11-07 12:01:02.632788923
2025-11-07 12:01:02.148934,6144,2025-11-07 12:01:02.640481231
2025-11-07 12:01:02.148934,0,2025-11-07 12:01:02.648173538
2025-11-07 12:01:02.148934,14,2025-11-07 12:01:02.655865846
2025-11-07 12:01:02.148934,2304,2025-11-07 12:01:02.663558154
2025-11-07 12:01:02.148934,0,2025-11-07 12:01:02.671250462
2025-11-07 12:01:02.148934,19,2025-11-07 12:01:02.678942769
2025-11-07 12:01:02.148934,5376,2025-11-07 12:01:02.686635077
2025-11-07 12:01:02.148934,0,2025-11-07 12:01:02.694327385
2025-11-07 12:01:02.148934,14,2025-11-07 12:01:02.702019692
2025-11-07 12:01:02.148934,4864,2025-11-07 12:01:02.709712000
2025-11-07 12:01:02.148934,0,2025-11-07 12:01:02.717404308
2025-11-07 12:01:02.148934,14,2025-11-07 12:01:02.725096615
2025-11-07 12:01:02.148934,1024,2025-11-07 12:01:02.732788923
2025-11-07 12:01:02.148934,0,2025-11-07 12:01:02.740481231
2025-11-07 12:01:02.148934,12,2025-11-07 12:01:02.748173538
2025-11-07 12:01:02.148934,7424,2025-11-07 12:01:02.755865846
2025-11-07 12:01:02.148934,0,2025-11-07 12:01:02.763558154
2025-11-07 12:01:02.148934,36,2025-11-07 12:01:02.771250462
2025-11-07 12:01:02.148934,11008,2025-11-07 12:01:02.778942769
2025-11-07 12:01:02.148934,0,2025-11-07 12:01:02.786635077
2025-11-07 12:01:02.148934,45,2025-11-07 12:01:02.794327385
2025-11-07 12:01:02.148934,6144,2025-11-07 12:01:02.802019692
2025-11-07 12:01:02.148934,0,2025-11-07 12:01:02.809712000
2025-11-07 12:01:02.148934,2,2025-11-07 12:01:02.817404308
2025-11-07 12:01:02.148934,2304,2025-11-07 12:01:02.825096615
2025-11-07 12:01:02.148934,0,2025-11-07 12:01:02.832788923
2025-11-07 12:01:02.148934,16,2025-11-07 12:01:02.840481231
2025-11-07 12:01:02.148934,1792,2025-11-07 12:01:02.848173538
2025-11-07 12:01:02.148934,0,2025-11-07 12:01:02.855865846
2025-11-07 12:01:02.148934,4,2025-11-07 12:01:02.863558154
2025-11-07 12:01:02.148934,3072,2025-11-07 12:01:02.871250462
2025-11-07 12:01:02.148934,0,2025-11-07 12:01:02.878942769
2025-11-07 12:01:02.148934,14,2025-11-07 12:01:02.886635077
2025-11-07 12:01:02.148934,-7424,2025-11-07 12:01:02.894327385
2025-11-07 12:01:02.148934,-1,2025-11-07 12:01:02.902019692
2025-11-07 12:01:02.148934,-120,2025-11-07 12:01:02.909712000
2025-11-07 12:01:02.148934,31231,2025-11-07 12:01:02.917404308
2025-11-07 12:01:02.148934,-1,2025-11-07 12:01:02.925096615
2025-11-07 12:01:02.148934,87,2025-11-07 12:01:02.932788923
2025-11-07 12:01:02.148934,3584,2025-11-07 12:01:02.940481231
2025-11-07 12:01:02.148934,2,2025-11-07 12:01:02.948173538
2025-11-07 12:01:02.148934,800,2025-11-07 12:01:02.955865846
2025-11-07 12:01:02.148934,25856,2025-11-07 12:01:02.963558154
2025-11-07 12:01:02.148934,2,2025-11-07 12:01:02.971250462
2025-11-07 12:01:02.148934,193,2025-11-07 12:01:02.978942769
2025-11-07 12:01:02.148934,-11520,2025-11-07 12:01:02.986635077
2025-11-07 12:01:02.148934,-1,2025-11-07 12:01:02.994327385
2025-11-07 12:01:02.148934,-60,2025-11-07 12:01:03.002019692
2025-11-07 12:01:02.148934,-16385,2025-11-07 12:01:03.009712000
2025-11-07 12:01:02.148934,-1,2025-11-07 12:01:03.017404308
2025-11-07 12:01:02.148934,-94,2025-11-07 12:01:03.025096615
2025-11-07 12:01:02.148934,-21249,2025-11-07 12:01:03.032788923
2025-11-07 12:01:02.148934,-1,2025-11-07 12:01:03.040481231
2025-11-07 12:01:02.148934,-70,2025-11-07 12:01:03.048173538
2025-11-07 12:01:02.148934,-17665,2025-11-07 12:01:03.055865846
2025-11-07 12:01:02.148934,-1,2025-11-07 12:01:03.063558154
2025-11-07 12:01:02.148934,-67,2025-11-07 12:01:03.071250462
2025-11-07 12:01:02.148934,-17665,2025-11-07 12:01:03.078942769
2025-11-07 12:01:02.148934,-1,2025-11-07 12:01:03.086635077
2025-11-07 12:01:02.148934,-70,2025-11-07 12:01:03.094327385
2025-11-07 12:01:02.148934,-13825,2025-11-07 12:01:03.102019692
2025-11-07 12:01:02.148934,-1,2025-11-07 12:01:03.109712000
2025-11-07 12:01:02.148934,-53,2025-11-07 12:01:03.117404308
2025-11-07 12:01:02.148934,-13313,2025-11-07 12:01:03.125096615
2025-11-07 12:01:02.148934,-1,2025-11-07 12:01:03.132788923
2025-11-07 12:01:02.148934,-48,2025-11-07 12:01:03.140481230
2025-11-07 12:01:02.148934,-11265,2025-11-07 12:01:03.148173538
2025-11-07 12:01:02.148934,-1,2025-11-07 12:01:03.155865846
2025-11-07 12:01:02.148934,-43,2025-11-07 12:01:03.163558154
2025-11-07 12:01:02.148934,-10241,2025-11-07 12:01:03.171250462
2025-11-07 12:01:02.148934,-1,2025-11-07 12:01:03.178942769
2025-11-07 12:01:02.148934,-41,2025-11-07 12:01:03.186635077
2025-11-07 12:01:02.148934,-10241,2025-11-07 12:01:03.194327385
2025-11-07 12:01:02.148934,-1,2025-11-07 12:01:03.202019692
2025-11-07 12:01:02.148934,-41,2025-11-07 12:01:03.209712000
2025-11-07 12:01:02.148934,-8193,2025-11-07 12:01:03.217404308
2025-11-07 12:01:02.148934,-1,2025-11-07 12:01:03.225096615
2025-11-07 12:01:02.148934,-24,2025-11-07 12:01:03.232788923
2025-11-07 12:01:02.148934,-4609,2025-11-07 12:01:03.240481231
2025-11-07 12:01:02.148934,-1,2025-11-07 12:01:03.248173538
2025-11-07 12:01:02.148934,-16,2025-11-07 12:01:03.255865846
2025-11-07 12:01:02.148934,-2817,2025-11-07 12:01:03.263558154
2025-11-07 12:01:02.148934,-1,2025-11-07 12:01:03.271250462
2025-11-07 12:01:02.148934,2,2025-11-07 12:01:03.278942769
2025-11-07 12:01:02.748912,14,2025-11-07 12:01:03.286635077
2025-11-07 12:01:02.748912,5376,2025-11-07 12:01:03.294327385
2025-11-07 12:01:02.748912,0,2025-11-07 12:01:03.302019692
2025-11-07 12:01:02.748912,26,2025-11-07 12:01:03.309712000
2025-11-07 12:01:02.748912,8448,2025-11-07 12:01:03.317404308
2025-11-07 12:01:02.748912,0,2025-11-07 12:01:03.325096615
2025-11-07 12:01:02.748912,29,2025-11-07 12:01:03.332788923
2025-11-07 12:01:02.748912,3584,2025-11-07 12:01:03.340481231
2025-11-07 12:01:02.748912,0,2025-11-07 12:01:03.348173538
2025-11-07 12:01:02.748912,12,2025-11-07 12:01:03.355865846
2025-11-07 12:01:02.748912,6656,2025-11-07 12:01:03.363558154
2025-11-07 12:01:02.748912,0,2025-11-07 12:01:03.371250462
2025-11-07 12:01:02.748912,33,2025-11-07 12:01:03.378942769
2025-11-07 12:01:02.748912,5376,2025-11-07 12:01:03.386635077
2025-11-07 12:01:02.748912,0,2025-11-07 12:01:03.394327385
2025-11-07 12:01:02.748912,16,2025-11-07 12:01:03.402019692
2025-11-07 12:01:02.748912,5376,2025-11-07 12:01:03.409712000
2025-11-07 12:01:02.748912,0,2025-11-07 12:01:03.417404308
2025-11-07 12:01:02.748912,24,2025-11-07 12:01:03.425096615
2025-11-07 12:01:02.748912,6144,2025-11-07 12:01:03.432788923
2025-11-07 12:01:02.748912,0,2025-11-07 12:01:03.440481231
2025-11-07 12:01:02.748912,26,2025-11-07 12:01:03.448173538
2025-11-07 12:01:02.748912,6656,2025-11-07 12:01:03.455865846
2025-11-07 12:01:02.748912,0,2025-11-07 12:01:03.463558154
2025-11-07 12:01:02.748912,16,2025-11-07 12:01:03.471250462
2025-11-07 12:01:02.748912,3072,2025-11-07 12:01:03.478942769
2025-11-07 12:01:02.748912,0,2025-11-07 12:01:03.486635077
2025-11-07 12:01:02.748912,19,2025-11-07 12:01:03.494327385
2025-11-07 12:01:02.748912,5376,2025-11-07 12:01:03.502019692
2025-11-07 12:01:02.748912,0,2025-11-07 12:01:03.509712000
2025-11-07 12:01:02.748912,12,2025-11-07 12:01:03.517404308
2025-11-07 12:01:02.748912,512,2025-11-07 12:01:03.525096615
2025-11-07 12:01:02.748912,0,2025-11-07 12:01:03.532788923
2025-11-07 12:01:02.748912,4,2025-11-07 12:01:03.540481231
2025-11-07 12:01:02.748912,1792,2025-11-07 12:01:03.548173538
2025-11-07 12:01:02.748912,0,2025-11-07 12:01:03.555865846
2025-11-07 12:01:02.748912,2,2025-11-07 12:01:03.563558154
2025-11-07 12:01:02.748912,0,2025-11-07 12:01:03.571250462
2025-11-07 12:01:02.748912,0,2025-11-07 12:01:03.578942769
2025-11-07 12:01:02.748912,0,2025-11-07 12:01:03.586635077
2025-11-07 12:01:02.748912,0,2025-11-07 12:01:03.594327385
2025-11-07 12:01:02.748912,0,2025-11-07 12:01:03.602019692
2025-11-07 12:01:02.748912,0,2025-11-07 12:01:03.609712000
2025-11-07 12:01:02.748912,-512,2025-11-07 12:01:03.617404308
2025-11-07 12:01:02.748912,-1,2025-11-07 12:01:03.625096615
2025-11-07 12:01:02.748912,0,2025-11-07 12:01:03.632788923
2025-11-07 12:01:02.748912,1024,2025-11-07 12:01:03.640481231
2025-11-07 12:01:02.748912,0,2025-11-07 12:01:03.648173538
2025-11-07 12:01:02.748912,2,2025-11-07 12:01:03.655865846
2025-11-07 12:01:02.748912,1024,2025-11-07 12:01:03.663558154
2025-11-07 12:01:02.748912,0,2025-11-07 12:01:03.671250462
2025-11-07 12:01:02.748912,12,2025-11-07 12:01:03.678942769
2025-11-07 12:01:02.748912,512,2025-11-07 12:01:03.686635077
2025-11-07 12:01:02.748912,0,2025-11-07 12:01:03.694327385
2025-11-07 12:01:02.748912,-4,2025-11-07 12:01:03.702019692
2025-11-07 12:01:02.748912,255,2025-11-07 12:01:03.709712000
2025-11-07 12:01:02.748912,0,2025-11-07 12:01:03.717404308
2025-11-07 12:01:02.748912,2,2025-11-07 12:01:03.725096615
2025-11-07 12:01:02.748912,0,2025-11-07 12:01:03.732788923
2025-11-07 12:01:02.748912,0,2025-11-07 12:01:03.740481231
2025-11-07 12:01:02.748912,4,2025-11-07 12:01:03.748173538
2025-11-07 12:01:02.748912,1792,2025-11-07 12:01:03.755865846
2025-11-07 12:01:02.748912,0,2025-11-07 12:01:03.763558154
2025-11-07 12:01:02.748912,2,2025-11-07 12:01:03.771250462
2025-11-07 12:01:02.748912,-1792,2025-11-07 12:01:03.778942769
2025-11-07 12:01:02.748912,-1,2025-11-07 12:01:03.786635077
2025-11-07 12:01:02.748912,-12,2025-11-07 12:01:03.794327385
2025-11-07 12:01:02.748912,-769,2025-11-07 12:01:03.802019692
2025-11-07 12:01:02.748912,-1,2025-11-07 12:01:03.809712000
2025-11-07 12:01:02.748912,12,2025-11-07 12:01:03.817404308
2025-11-07 12:01:02.748912,3584,2025-11-07 12:01:03.825096615
2025-11-07 12:01:02.748912,0,2025-11-07 12:01:03.832788923
2025-11-07 12:01:02.748912,12,2025-11-07 12:01:03.840481231
2025-11-07 12:01:02.748912,6144,2025-11-07 12:01:03.848173538
2025-11-07 12:01:02.748912,0,2025-11-07 12:01:03.855865846
2025-11-07 12:01:02.748912,24,2025-11-07 12:01:03.863558154
2025-11-07 12:01:02.748912,2304,2025-11-07 12:01:03.871250462
2025-11-07 12:01:02.748912,0,2025-11-07 12:01:03.878942769
2025-11-07 12:01:02.748912,-4,2025-11-07 12:01:03.886635077
2025-11-07 12:01:02.748912,-257,2025-11-07 12:01:03.894327385
2025-11-07 12:01:02.748912,-1,2025-11-07 12:01:03.902019692
2025-11-07 12:01:02.748912,2,2025-11-07 12:01:03.909712000
2025-11-07 12:01:02.748912,0,2025-11-07 12:01:03.917404308
2025-11-07 12:01:02.748912,0,2025-11-07 12:01:03.925096615
2025-11-07 12:01:02.748912,-7,2025-11-07 12:01:03.932788923
2025-11-07 12:01:02.748912,-2817,2025-11-07 12:01:03.940481231
2025-11-07 12:01:02.748912,-1,2025-11-07 12:01:03.948173538
2025-11-07 12:01:02.748912,-16,2025-11-07 12:01:03.955865846
2025-11-07 12:01:02.748912,-18177,2025-11-07 12:01:03.963558154
2025-11-07 12:01:02.748912,-1,2025-11-07 12:01:03.971250462
2025-11-07 12:01:02.748912,-157,2025-11-07 12:01:03.978942769
2025-11-07 12:01:02.748912,-23041,2025-11-07 12:01:03.986635077
2025-11-07 12:01:02.748912,-1,2025-11-07 12:01:03.994327385
2025-11-07 12:01:02.748912,277,2025-11-07 12:01:04.002019692
2025-11-07 12:01:02.748912,-17920,2025-11-07 12:01:04.009712000
2025-11-07 12:01:02.748912,2,2025-11-07 12:01:04.017404308
2025-11-07 12:01:02.748912,710,2025-11-07 12:01:04.025096615
2025-11-07 12:01:02.748912,20224,2025-11-07 12:01:04.032788923
2025-11-07 12:01:02.748912,1,2025-11-07 12:01:04.040481231
2025-11-07 12:01:02.748912,31,2025-11-07 12:01:04.048173538
2025-11-07 12:01:02.748912,-8448,2025-11-07 12:01:04.055865846
2025-11-07 12:01:02.748912,-1,2025-11-07 12:01:04.063558154
2025-11-07 12:01:02.748912,-50,2025-11-07 12:01:04.071250462
2025-11-07 12:01:02.748912,-23041,2025-11-07 12:01:04.078942769
2025-11-07 12:01:02.748912,-1,2025-11-07 12:01:04.086635077
2025-11-07 12:01:02.748912,-87,2025-11-07 12:01:04.094327385
2025-11-07 12:01:02.748912,-16897,2025-11-07 12:01:04.102019692
2025-11-07 12:01:02.748912,-1,2025-11-07 12:01:04.109712000
2025-11-07 12:01:02.748912,-77,2025-11-07 12:01:04.117404308
2025-11-07 12:01:03.259030,-79,2025-11-07 12:01:04.125096615
2025-11-07 12:01:03.259030,-15617,2025-11-07 12:01:04.132788923
2025-11-07 12:01:03.259030,-1,2025-11-07 12:01:04.140481230
2025-11-07 12:01:03.259030,-58,2025-11-07 12:01:04.148173538
2025-11-07 12:01:03.259030,-15105,2025-11-07 12:01:04.155865846
2025-11-07 12:01:03.259030,-1,2025-11-07 12:01:04.163558154
2025-11-07 12:01:03.259030,-55,2025-11-07 12:01:04.171250462
2025-11-07 12:01:03.259030,-12545,2025-11-07 12:01:04.178942769
2025-11-07 12:01:03.259030,-1,2025-11-07 12:01:04.186635077
2025-11-07 12:01:03.259030,-45,2025-11-07 12:01:04.194327385
2025-11-07 12:01:03.259030,-10753,2025-11-07 12:01:04.202019692
2025-11-07 12:01:03.259030,-1,2025-11-07 12:01:04.209712000
2025-11-07 12:01:03.259030,-38,2025-11-07 12:01:04.217404308
2025-11-07 12:01:03.259030,-8193,2025-11-07 12:01:04.225096615
2025-11-07 12:01:03.259030,-1,2025-11-07 12:01:04.232788923
2025-11-07 12:01:03.259030,-33,2025-11-07 12:01:04.240481231
2025-11-07 12:01:03.259030,-6401,2025-11-07 12:01:04.248173538
2025-11-07 12:01:03.259030,-1,2025-11-07 12:01:04.255865846
2025-11-07 12:01:03.259030,0,2025-11-07 12:01:04.263558154
2025-11-07 12:01:03.259030,2304,2025-11-07 12:01:04.271250462
2025-11-07 12:01:03.259030,0,2025-11-07 12:01:04.278942769
2025-11-07 12:01:03.259030,2,2025-11-07 12:01:04.286635077
2025-11-07 12:01:03.259030,3072,2025-11-07 12:01:04.294327385
2025-11-07 12:01:03.259030,0,2025-11-07 12:01:04.302019692
2025-11-07 12:01:03.259030,26,2025-11-07 12:01:04.309712000
2025-11-07 12:01:03.259030,8448,2025-11-07 12:01:04.317404308
2025-11-07 12:01:03.259030,0,2025-11-07 12:01:04.325096615
2025-11-07 12:01:03.259030,43,2025-11-07 12:01:04.332788923
2025-11-07 12:01:03.259030,13568,2025-11-07 12:01:04.340481231
2025-11-07 12:01:03.259030,0,2025-11-07 12:01:04.348173538
2025-11-07 12:01:03.259030,65,2025-11-07 12:01:04.355865846
2025-11-07 12:01:03.259030,17920,2025-11-07 12:01:04.363558154
2025-11-07 12:01:03.259030,0,2025-11-07 12:01:04.371250462
2025-11-07 12:01:03.259030,72,2025-11-07 12:01:04.378942769
2025-11-07 12:01:03.259030,17152,2025-11-07 12:01:04.386635077
2025-11-07 12:01:03.259030,0,2025-11-07 12:01:04.394327385
2025-11-07 12:01:03.259030,58,2025-11-07 12:01:04.402019692
2025-11-07 12:01:03.259030,9728,2025-11-07 12:01:04.409712000
2025-11-07 12:01:03.259030,0,2025-11-07 12:01:04.417404308
2025-11-07 12:01:03.259030,24,2025-11-07 12:01:04.425096615
2025-11-07 12:01:03.259030,4864,2025-11-07 12:01:04.432788923
2025-11-07 12:01:03.259030,0,2025-11-07 12:01:04.440481231
2025-11-07 12:01:03.259030,14,2025-11-07 12:01:04.448173538
2025-11-07 12:01:03.259030,3072,2025-11-07 12:01:04.455865846
2025-11-07 12:01:03.259030,0,2025-11-07 12:01:04.463558154
2025-11-07 12:01:03.259030,14,2025-11-07 12:01:04.471250462
2025-11-07 12:01:03.259030,2304,2025-11-07 12:01:04.478942769
2025-11-07 12:01:03.259030,0,2025-11-07 12:01:04.486635077
2025-11-07 12:01:03.259030,4,2025-11-07 12:01:04.494327385
2025-11-07 12:01:03.259030,1792,2025-11-07 12:01:04.502019692
2025-11-07 12:01:03.259030,0,2025-11-07 12:01:04.509712000
2025-11-07 12:01:03.259030,9,2025-11-07 12:01:04.517404308
2025-11-07 12:01:03.259030,3072,2025-11-07 12:01:04.525096615
2025-11-07 12:01:03.259030,0,2025-11-07 12:01:04.532788923
2025-11-07 12:01:03.259030,12,2025-11-07 12:01:04.540481231
2025-11-07 12:01:03.259030,-512,2025-11-07 12:01:04.548173538
2025-11-07 12:01:03.259030,-1,2025-11-07 12:01:04.555865846
2025-11-07 12:01:03.259030,-7,2025-11-07 12:01:04.563558154
2025-11-07 12:01:03.259030,1279,2025-11-07 12:01:04.571250462
2025-11-07 12:01:03.259030,0,2025-11-07 12:01:04.578942769
2025-11-07 12:01:03.259030,7,2025-11-07 12:01:04.586635077
2025-11-07 12:01:03.259030,512,2025-11-07 12:01:04.594327385
2025-11-07 12:01:03.259030,0,2025-11-07 12:01:04.602019692
2025-11-07 12:01:03.259030,2,2025-11-07 12:01:04.609712000
2025-11-07 12:01:03.259030,1024,2025-11-07 12:01:04.617404308
2025-11-07 12:01:03.259030,0,2025-11-07 12:01:04.625096615
2025-11-07 12:01:03.259030,7,2025-11-07 12:01:04.632788923
2025-11-07 12:01:03.259030,1792,2025-11-07 12:01:04.640481231
2025-11-07 12:01:03.259030,0,2025-11-07 12:01:04.648173538
2025-11-07 12:01:03.259030,4,2025-11-07 12:01:04.655865846
2025-11-07 12:01:03.259030,1792,2025-11-07 12:01:04.663558154
2025-11-07 12:01:03.259030,0,2025-11-07 12:01:04.671250462
2025-11-07 12:01:03.259030,9,2025-11-07 12:01:04.678942769
2025-11-07 12:01:03.259030,1792,2025-11-07 12:01:04.686635077
2025-11-07 12:01:03.259030,0,2025-11-07 12:01:04.694327385
2025-11-07 12:01:03.259030,2,2025-11-07 12:01:04.702019692
2025-11-07 12:01:03.259030,3584,2025-11-07 12:01:04.709712000
2025-11-07 12:01:03.259030,0,2025-11-07 12:01:04.717404308
2025-11-07 12:01:03.259030,14,2025-11-07 12:01:04.725096615
2025-11-07 12:01:03.259030,1024,2025-11-07 12:01:04.732788923
2025-11-07 12:01:03.259030,0,2025-11-07 12:01:04.740481231
2025-11-07 12:01:03.259030,9,2025-11-07 12:01:04.748173538
2025-11-07 12:01:03.259030,3584,2025-11-07 12:01:04.755865846
2025-11-07 12:01:03.259030,0,2025-11-07 12:01:04.763558154
2025-11-07 12:01:03.259030,9,2025-11-07 12:01:04.771250462
2025-11-07 12:01:03.259030,1792,2025-11-07 12:01:04.778942769
2025-11-07 12:01:03.259030,0,2025-11-07 12:01:04.786635077
2025-11-07 12:01:03.259030,2,2025-11-07 12:01:04.794327385
2025-11-07 12:01:03.259030,0,2025-11-07 12:01:04.802019692
2025-11-07 12:01:03.259030,0,2025-11-07 12:01:04.809712000
2025-11-07 12:01:03.259030,12,2025-11-07 12:01:04.817404308
2025-11-07 12:01:03.259030,3072,2025-11-07 12:01:04.825096615
2025-11-07 12:01:03.259030,0,2025-11-07 12:01:04.832788923
2025-11-07 12:01:03.259030,12,2025-11-07 12:01:04.840481231
2025-11-07 12:01:03.259030,7936,2025-11-07 12:01:04.848173538
2025-11-07 12:01:03.259030,0,2025-11-07 12:01:04.855865846
2025-11-07 12:01:03.259030,38,2025-11-07 12:01:04.863558154
2025-11-07 12:01:03.259030,4864,2025-11-07 12:01:04.871250462
2025-11-07 12:01:03.259030,0,2025-11-07 12:01:04.878942769
2025-11-07 12:01:03.259030,7,2025-11-07 12:01:04.886635077
2025-11-07 12:01:03.259030,1792,2025-11-07 12:01:04.894327385
2025-11-07 12:01:03.259030,0,2025-11-07 12:01:04.902019692
2025-11-07 12:01:03.259030,7,2025-11-07 12:01:04.909712000
2025-11-07 12:01:03.259030,1024,2025-11-07 12:01:04.917404308
2025-11-07 12:01:03.259030,0,2025-11-07 12:01:04.925096615
2025-11-07 12:01:03.259030,4,2025-11-07 12:01:04.932788923
2025-11-07 12:01:03.259030,2304,2025-11-07 12:01:04.940481231
2025-11-07 12:01:03.259030,0,2025-11-07 12:01:04.948173538
2025-11-07 12:01:03.259030,16,2025-11-07 12:01:04.955865846
2025-11-07 12:01:03.828939,12,2025-11-07 12:01:04.963558154
2025-11-07 12:01:03.828939,-9728,2025-11-07 12:01:04.971250462
2025-11-07 12:01:03.828939,-1,2025-11-07 12:01:04.978942769
2025-11-07 12:01:03.828939,-128,2025-11-07 12:01:04.986635077
2025-11-07 12:01:03.828939,-28161,2025-11-07 12:01:04.994327385
2025-11-07 12:01:03.828939,-1,2025-11-07 12:01:05.002019692
2025-11-07 12:01:03.828939,212,2025-11-07 12:01:05.009712000
2025-11-07 12:01:03.828939,-14080,2025-11-07 12:01:05.017404308
2025-11-07 12:01:03.828939,2,2025-11-07 12:01:05.025096615
2025-11-07 12:01:03.828939,874,2025-11-07 12:01:05.032788923
2025-11-07 12:01:03.828939,-768,2025-11-07 12:01:05.040481231
2025-11-07 12:01:03.828939,1,2025-11-07 12:01:05.048173538
2025-11-07 12:01:03.828939,101,2025-11-07 12:01:05.055865846
2025-11-07 12:01:03.828939,-512,2025-11-07 12:01:05.063558154
2025-11-07 12:01:03.828939,-1,2025-11-07 12:01:05.071250462
2025-11-07 12:01:03.828939,-2,2025-11-07 12:01:05.078942769
2025-11-07 12:01:03.828939,-12545,2025-11-07 12:01:05.086635077
2025-11-07 12:01:03.828939,-1,2025-11-07 12:01:05.094327385
2025-11-07 12:01:03.828939,-55,2025-11-07 12:01:05.102019692
2025-11-07 12:01:03.828939,-9473,2025-11-07 12:01:05.109712000
2025-11-07 12:01:03.828939,-1,2025-11-07 12:01:05.117404308
2025-11-07 12:01:03.828939,-50,2025-11-07 12:01:05.125096615
2025-11-07 12:01:03.828939,-13313,2025-11-07 12:01:05.132788923
2025-11-07 12:01:03.828939,-1,2025-11-07 12:01:05.140481230
2025-11-07 12:01:03.828939,-41,2025-11-07 12:01:05.148173538
2025-11-07 12:01:03.828939,-8193,2025-11-07 12:01:05.155865846
2025-11-07 12:01:03.828939,-1,2025-11-07 12:01:05.163558154
2025-11-07 12:01:03.828939,-31,2025-11-07 12:01:05.171250462
2025-11-07 12:01:03.828939,-7169,2025-11-07 12:01:05.178942769
2025-11-07 12:01:03.828939,-1,2025-11-07 12:01:05.186635077
2025-11-07 12:01:03.828939,-36,2025-11-07 12:01:05.194327385
2025-11-07 12:01:03.828939,-10241,2025-11-07 12:01:05.202019692
2025-11-07 12:01:03.828939,-1,2025-11-07 12:01:05.209712000
2025-11-07 12:01:03.828939,-33,2025-11-07 12:01:05.217404308
2025-11-07 12:01:03.828939,-8193,2025-11-07 12:01:05.225096615
2025-11-07 12:01:03.828939,-1,2025-11-07 12:01:05.232788923
2025-11-07 12:01:03.828939,-33,2025-11-07 12:01:05.240481231
2025-11-07 12:01:03.828939,-6401,2025-11-07 12:01:05.248173538
2025-11-07 12:01:03.828939,-1,2025-11-07 12:01:05.255865846
2025-11-07 12:01:03.828939,-26,2025-11-07 12:01:05.263558154
2025-11-07 12:01:03.828939,-7169,2025-11-07 12:01:05.271250462
2025-11-07 12:01:03.828939,-1,2025-11-07 12:01:05.278942769
2025-11-07 12:01:03.828939,-24,2025-11-07 12:01:05.286635077
2025-11-07 12:01:03.828939,-5121,2025-11-07 12:01:05.294327385
2025-11-07 12:01:03.828939,-1,2025-11-07 12:01:05.302019692
2025-11-07 12:01:03.828939,-29,2025-11-07 12:01:05.309712000
2025-11-07 12:01:03.828939,-8193,2025-11-07 12:01:05.317404308
2025-11-07 12:01:03.828939,-1,2025-11-07 12:01:05.325096615
2025-11-07 12:01:03.828939,-19,2025-11-07 12:01:05.332788923
2025-11-07 12:01:03.828939,-257,2025-11-07 12:01:05.340481231
2025-11-07 12:01:03.828939,-1,2025-11-07 12:01:05.348173538
2025-11-07 12:01:03.828939,7,2025-11-07 12:01:05.355865846
2025-11-07 12:01:03.828939,5376,2025-11-07 12:01:05.363558154
2025-11-07 12:01:03.828939,0,2025-11-07 12:01:05.371250462
2025-11-07 12:01:03.828939,41,2025-11-07 12:01:05.378942769
2025-11-07 12:01:03.828939,12288,2025-11-07 12:01:05.386635077
2025-11-07 12:01:03.828939,0,2025-11-07 12:01:05.394327385
2025-11-07 12:01:03.828939,45,2025-11-07 12:01:05.402019692
2025-11-07 12:01:03.828939,9216,2025-11-07 12:01:05.409712000
2025-11-07 12:01:03.828939,0,2025-11-07 12:01:05.417404308
2025-11-07 12:01:03.828939,26,2025-11-07 12:01:05.425096615
2025-11-07 12:01:03.828939,4864,2025-11-07 12:01:05.432788923
2025-11-07 12:01:03.828939,0,2025-11-07 12:01:05.440481231
2025-11-07 12:01:03.828939,2,2025-11-07 12:01:05.448173538
2025-11-07 12:01:03.828939,-512,2025-11-07 12:01:05.455865846
2025-11-07 12:01:03.828939,-1,2025-11-07 12:01:05.463558154
2025-11-07 12:01:03.828939,2,2025-11-07 12:01:05.471250462
2025-11-07 12:01:03.828939,1792,2025-11-07 12:01:05.478942769
2025-11-07 12:01:03.828939,0,2025-11-07 12:01:05.486635077
2025-11-07 12:01:03.828939,14,2025-11-07 12:01:05.494327385
2025-11-07 12:01:03.828939,3584,2025-11-07 12:01:05.502019692
2025-11-07 12:01:03.828939,0,2025-11-07 12:01:05.509712000
2025-11-07 12:01:03.828939,9,2025-11-07 12:01:05.517404308
2025-11-07 12:01:03.828939,3072,2025-11-07 12:01:05.525096615
2025-11-07 12:01:03.828939,0,2025-11-07 12:01:05.532788923
2025-11-07 12:01:03.828939,9,2025-11-07 12:01:05.540481231
2025-11-07 12:01:03.828939,1792,2025-11-07 12:01:05.548173538
2025-11-07 12:01:03.828939,0,2025-11-07 12:01:05.555865846
2025-11-07 12:01:03.828939,7,2025-11-07 12:01:05.563558154
2025-11-07 12:01:03.828939,512,2025-11-07 12:01:05.571250462
2025-11-07 12:01:03.828939,0,2025-11-07 12:01:05.578942769
2025-11-07 12:01:03.828939,-2,2025-11-07 12:01:05.586635077
2025-11-07 12:01:03.828939,-257,2025-11-07 12:01:05.594327385
2025-11-07 12:01:03.828939,-1,2025-11-07 12:01:05.602019692
2025-11-07 12:01:03.828939,-4,2025-11-07 12:01:05.609712000
2025-11-07 12:01:03.828939,-769,2025-11-07 12:01:05.617404308
2025-11-07 12:01:03.828939,-1,2025-11-07 12:01:05.625096615
2025-11-07 12:01:03.828939,-2,2025-11-07 12:01:05.632788923
2025-11-07 12:01:03.828939,-257,2025-11-07 12:01:05.640481231
2025-11-07 12:01:03.828939,-1,2025-11-07 12:01:05.648173538
2025-11-07 12:01:03.828939,-2,2025-11-07 12:01:05.655865846
2025-11-07 12:01:03.828939,255,2025-11-07 12:01:05.663558154
2025-11-07 12:01:03.828939,0,2025-11-07 12:01:05.671250462
2025-11-07 12:01:03.828939,2,2025-11-07 12:01:05.678942769
2025-11-07 12:01:03.828939,512,2025-11-07 12:01:05.686635077
2025-11-07 12:01:03.828939,0,2025-11-07 12:01:05.694327385
2025-11-07 12:01:03.828939,2,2025-11-07 12:01:05.702019692
2025-11-07 12:01:03.828939,0,2025-11-07 12:01:05.709712000
2025-11-07 12:01:03.828939,0,2025-11-07 12:01:05.717404308
2025-11-07 12:01:03.828939,-2,2025-11-07 12:01:05.725096615
2025-11-07 12:01:03.828939,2047,2025-11-07 12:01:05.732788923
2025-11-07 12:01:03.828939,0,2025-11-07 12:01:05.740481231
2025-11-07 12:01:03.828939,14,2025-11-07 12:01:05.748173538
2025-11-07 12:01:03.828939,3584,2025-11-07 12:01:05.755865846
2025-11-07 12:01:03.828939,0,2025-11-07 12:01:05.763558154
2025-11-07 12:01:03.828939,7,2025-11-07 12:01:05.771250462
2025-11-07 12:01:03.828939,512,2025-11-07 12:01:05.778942769
2025-11-07 12:01:03.828939,0,2025-11-07 12:01:05.786635077
2025-11-07 12:01:03.828939,-4,2025-11-07 12:01:05.794327385
2025-11-07 12:01:04.368890,-4,2025-11-07 12:01:05.802019692
2025-11-07 12:01:04.368890,4351,2025-11-07 12:01:05.809712000
2025-11-07 12:01:04.368890,0,2025-11-07 12:01:05.817404308
2025-11-07 12:01:04.368890,43,2025-11-07 12:01:05.825096615
2025-11-07 12:01:04.368890,9728,2025-11-07 12:01:05.832788923
2025-11-07 12:01:04.368890,0,2025-11-07 12:01:05.840481231
2025-11-07 12:01:04.368890,21,2025-11-07 12:01:05.848173538
2025-11-07 12:01:04.368890,3072,2025-11-07 12:01:05.855865846
2025-11-07 12:01:04.368890,0,2025-11-07 12:01:05.863558154
2025-11-07 12:01:04.368890,14,2025-11-07 12:01:05.871250462
2025-11-07 12:01:04.368890,8448,2025-11-07 12:01:05.878942769
2025-11-07 12:01:04.368890,0,2025-11-07 12:01:05.886635077
2025-11-07 12:01:04.368890,41,2025-11-07 12:01:05.894327385
2025-11-07 12:01:04.368890,7936,2025-11-07 12:01:05.902019692
2025-11-07 12:01:04.368890,0,2025-11-07 12:01:05.909712000
2025-11-07 12:01:04.368890,33,2025-11-07 12:01:05.917404308
2025-11-07 12:01:04.368890,10496,2025-11-07 12:01:05.925096615
2025-11-07 12:01:04.368890,0,2025-11-07 12:01:05.932788923
2025-11-07 12:01:04.368890,19,2025-11-07 12:01:05.940481231
2025-11-07 12:01:04.368890,-10496,2025-11-07 12:01:05.948173538
2025-11-07 12:01:04.368890,-1,2025-11-07 12:01:05.955865846
2025-11-07 12:01:04.368890,-123,2025-11-07 12:01:05.963558154
2025-11-07 12:01:04.368890,-28673,2025-11-07 12:01:05.971250462
2025-11-07 12:01:04.368890,-1,2025-11-07 12:01:05.978942769
2025-11-07 12:01:04.368890,195,2025-11-07 12:01:05.986635077
2025-11-07 12:01:04.368890,-13568,2025-11-07 12:01:05.994327385
2025-11-07 12:01:04.368890,2,2025-11-07 12:01:06.002019692
2025-11-07 12:01:04.368890,925,2025-11-07 12:01:06.009712000
2025-11-07 12:01:04.368890,17920,2025-11-07 12:01:06.017404308
2025-11-07 12:01:04.368890,2,2025-11-07 12:01:06.025096615
2025-11-07 12:01:04.368890,108,2025-11-07 12:01:06.032788923
2025-11-07 12:01:04.368890,-16640,2025-11-07 12:01:06.040481231
2025-11-07 12:01:04.368890,-1,2025-11-07 12:01:06.048173538
2025-11-07 12:01:04.368890,-53,2025-11-07 12:01:06.055865846
2025-11-07 12:01:04.368890,-19969,2025-11-07 12:01:06.063558154
2025-11-07 12:01:04.368890,-1,2025-11-07 12:01:06.071250462
2025-11-07 12:01:04.368890,-101,2025-11-07 12:01:06.078942769
2025-11-07 12:01:04.368890,-21249,2025-11-07 12:01:06.086635077
2025-11-07 12:01:04.368890,-1,2025-11-07 12:01:06.094327385
2025-11-07 12:01:04.368890,-84,2025-11-07 12:01:06.102019692
2025-11-07 12:01:04.368890,-21249,2025-11-07 12:01:06.109712000
2025-11-07 12:01:04.368890,-1,2025-11-07 12:01:06.117404308
2025-11-07 12:01:04.368890,-72,2025-11-07 12:01:06.125096615
2025-11-07 12:01:04.368890,-17665,2025-11-07 12:01:06.132788923
2025-11-07 12:01:04.368890,-1,2025-11-07 12:01:06.140481230
2025-11-07 12:01:04.368890,-70,2025-11-07 12:01:06.148173538
2025-11-07 12:01:04.368890,-16385,2025-11-07 12:01:06.155865846
2025-11-07 12:01:04.368890,-1,2025-11-07 12:01:06.163558154
2025-11-07 12:01:04.368890,-62,2025-11-07 12:01:06.171250462
2025-11-07 12:01:04.368890,-15105,2025-11-07 12:01:06.178942769
2025-11-07 12:01:04.368890,-1,2025-11-07 12:01:06.186635077
2025-11-07 12:01:04.368890,-58,2025-11-07 12:01:06.194327385
2025-11-07 12:01:04.368890,-13825,2025-11-07 12:01:06.202019692
2025-11-07 12:01:04.368890,-1,2025-11-07 12:01:06.209712000
2025-11-07 12:01:04.368890,-58,2025-11-07 12:01:06.217404308
2025-11-07 12:01:04.368890,-13825,2025-11-07 12:01:06.225096615
2025-11-07 12:01:04.368890,-1,2025-11-07 12:01:06.232788923
2025-11-07 12:01:04.368890,-50,2025-11-07 12:01:06.240481231
2025-11-07 12:01:04.368890,-12545,2025-11-07 12:01:06.248173538
2025-11-07 12:01:04.368890,-1,2025-11-07 12:01:06.255865846
2025-11-07 12:01:04.368890,-53,2025-11-07 12:01:06.263558154
2025-11-07 12:01:04.368890,-13313,2025-11-07 12:01:06.271250462
2025-11-07 12:01:04.368890,-1,2025-11-07 12:01:06.278942769
2025-11-07 12:01:04.368890,-50,2025-11-07 12:01:06.286635077
2025-11-07 12:01:04.368890,-10753,2025-11-07 12:01:06.294327385
2025-11-07 12:01:04.368890,-1,2025-11-07 12:01:06.302019692
2025-11-07 12:01:04.368890,-33,2025-11-07 12:01:06.309712000
2025-11-07 12:01:04.368890,-5889,2025-11-07 12:01:06.317404308
2025-11-07 12:01:04.368890,-1,2025-11-07 12:01:06.325096615
2025-11-07 12:01:04.368890,-16,2025-11-07 12:01:06.332788923
2025-11-07 12:01:04.368890,-1537,2025-11-07 12:01:06.340481231
2025-11-07 12:01:04.368890,-1,2025-11-07 12:01:06.348173538
2025-11-07 12:01:04.368890,2,2025-11-07 12:01:06.355865846
2025-11-07 12:01:04.368890,3584,2025-11-07 12:01:06.363558154
2025-11-07 12:01:04.368890,0,2025-11-07 12:01:06.371250462
2025-11-07 12:01:04.368890,19,2025-11-07 12:01:06.378942769
2025-11-07 12:01:04.368890,3072,2025-11-07 12:01:06.386635077
2025-11-07 12:01:04.368890,0,2025-11-07 12:01:06.394327385
2025-11-07 12:01:04.368890,4,2025-11-07 12:01:06.402019692
2025-11-07 12:01:04.368890,512,2025-11-07 12:01:06.409712000
2025-11-07 12:01:04.368890,0,2025-11-07 12:01:06.417404308
2025-11-07 12:01:04.368890,0,2025-11-07 12:01:06.425096615
2025-11-07 12:01:04.368890,-512,2025-11-07 12:01:06.432788923
2025-11-07 12:01:04.368890,-1,2025-11-07 12:01:06.440481231
2025-11-07 12:01:04.368890,0,2025-11-07 12:01:06.448173538
2025-11-07 12:01:04.368890,512,2025-11-07 12:01:06.455865846
2025-11-07 12:01:04.368890,0,2025-11-07 12:01:06.463558154
2025-11-07 12:01:04.368890,4,2025-11-07 12:01:06.471250462
2025-11-07 12:01:04.368890,1792,2025-11-07 12:01:06.478942769
2025-11-07 12:01:04.368890,0,2025-11-07 12:01:06.486635077
2025-11-07 12:01:04.368890,9,2025-11-07 12:01:06.494327385
2025-11-07 12:01:04.368890,3072,2025-11-07 12:01:06.502019692
2025-11-07 12:01:04.368890,0,2025-11-07 12:01:06.509712000
2025-11-07 12:01:04.368890,12,2025-11-07 12:01:06.517404308
2025-11-07 12:01:04.368890,1792,2025-11-07 12:01:06.525096615
2025-11-07 12:01:04.368890,0,2025-11-07 12:01:06.532788923
2025-11-07 12:01:04.368890,4,2025-11-07 12:01:06.540481231
2025-11-07 12:01:04.368890,512,2025-11-07 12:01:06.548173538
2025-11-07 12:01:04.368890,0,2025-11-07 12:01:06.555865846
2025-11-07 12:01:04.368890,-2,2025-11-07 12:01:06.563558154
2025-11-07 12:01:04.368890,-2049,2025-11-07 12:01:06.571250462
2025-11-07 12:01:04.368890,-1,2025-11-07 12:01:06.578942769
2025-11-07 12:01:04.368890,-9,2025-11-07 12:01:06.586635077
2025-11-07 12:01:04.368890,-769,2025-11-07 12:01:06.594327385
2025-11-07 12:01:04.368890,-1,2025-11-07 12:01:06.602019692
2025-11-07 12:01:04.368890,-4,2025-11-07 12:01:06.609712000
2025-11-07 12:01:04.368890,-1537,2025-11-07 12:01:06.617404308
2025-11-07 12:01:04.368890,-1,2025-11-07 12:01:06.625096615
2025-11-07 12:01:04.368890,-9,2025-11-07 12:01:06.632788923
2025-11-07 12:01:04.968908,-12,2025-11-07 12:01:06.640481231
2025-11-07 12:01:04.968908,-2817,2025-11-07 12:01:06.648173538
2025-11-07 12:01:04.968908,-1,2025-11-07 12:01:06.655865846
2025-11-07 12:01:04.968908,-9,2025-11-07 12:01:06.663558154
2025-11-07 12:01:04.968908,-769,2025-11-07 12:01:06.671250462
2025-11-07 12:01:04.968908,-1,2025-11-07 12:01:06.678942769
2025-11-07 12:01:04.968908,9,2025-11-07 12:01:06.686635077
2025-11-07 12:01:04.968908,4864,2025-11-07 12:01:06.694327385
2025-11-07 12:01:04.968908,0,2025-11-07 12:01:06.702019692
2025-11-07 12:01:04.968908,14,2025-11-07 12:01:06.709712000
2025-11-07 12:01:04.968908,2304,2025-11-07 12:01:06.717404308
2025-11-07 12:01:04.968908,0,2025-11-07 12:01:06.725096615
2025-11-07 12:01:04.968908,9,2025-11-07 12:01:06.732788923
2025-11-07 12:01:04.968908,1792,2025-11-07 12:01:06.740481231
2025-11-07 12:01:04.968908,0,2025-11-07 12:01:06.748173538
2025-11-07 12:01:04.968908,4,2025-11-07 12:01:06.755865846
2025-11-07 12:01:04.968908,3072,2025-11-07 12:01:06.763558154
2025-11-07 12:01:04.968908,0,2025-11-07 12:01:06.771250462
2025-11-07 12:01:04.968908,36,2025-11-07 12:01:06.778942769
2025-11-07 12:01:04.968908,12288,2025-11-07 12:01:06.786635077
2025-11-07 12:01:04.968908,0,2025-11-07 12:01:06.794327385
2025-11-07 12:01:04.968908,38,2025-11-07 12:01:06.802019692
2025-11-07 12:01:04.968908,5376,2025-11-07 12:01:06.809712000
2025-11-07 12:01:04.968908,0,2025-11-07 12:01:06.817404308
2025-11-07 12:01:04.968908,7,2025-11-07 12:01:06.825096615
2025-11-07 12:01:04.968908,512,2025-11-07 12:01:06.832788923
2025-11-07 12:01:04.968908,0,2025-11-07 12:01:06.840481231
2025-11-07 12:01:04.968908,7,2025-11-07 12:01:06.848173538
2025-11-07 12:01:04.968908,1792,2025-11-07 12:01:06.855865846
2025-11-07 12:01:04.968908,0,2025-11-07 12:01:06.863558154
2025-11-07 12:01:04.968908,-2,2025-11-07 12:01:06.871250462
2025-11-07 12:01:04.968908,-257,2025-11-07 12:01:06.878942769
2025-11-07 12:01:04.968908,-1,2025-11-07 12:01:06.886635077
2025-11-07 12:01:04.968908,4,2025-11-07 12:01:06.894327385
2025-11-07 12:01:04.968908,-4096,2025-11-07 12:01:06.902019692
2025-11-07 12:01:04.968908,-1,2025-11-07 12:01:06.909712000
2025-11-07 12:01:04.968908,-96,2025-11-07 12:01:06.917404308
2025-11-07 12:01:04.968908,23295,2025-11-07 12:01:06.925096615
2025-11-07 12:01:04.968908,-1,2025-11-07 12:01:06.932788923
2025-11-07 12:01:04.968908,-38,2025-11-07 12:01:06.940481231
2025-11-07 12:01:04.968908,-28929,2025-11-07 12:01:06.948173538
2025-11-07 12:01:04.968908,1,2025-11-07 12:01:06.955865846
2025-11-07 12:01:04.968908,829,2025-11-07 12:01:06.963558154
2025-11-07 12:01:04.968908,4864,2025-11-07 12:01:06.971250462
2025-11-07 12:01:04.968908,3,2025-11-07 12:01:06.978942769
2025-11-07 12:01:04.968908,331,2025-11-07 12:01:06.986635077
2025-11-07 12:01:04.968908,-7424,2025-11-07 12:01:06.994327385
2025-11-07 12:01:04.968908,-1,2025-11-07 12:01:07.002019692
2025-11-07 12:01:04.968908,-84,2025-11-07 12:01:07.009712000
2025-11-07 12:01:04.968908,-18177,2025-11-07 12:01:07.017404308
2025-11-07 12:01:04.968908,-1,2025-11-07 12:01:07.025096615
2025-11-07 12:01:04.968908,-111,2025-11-07 12:01:07.032788923
2025-11-07 12:01:04.968908,-27393,2025-11-07 12:01:07.040481231
2025-11-07 12:01:04.968908,-1,2025-11-07 12:01:07.048173538
2025-11-07 12:01:04.968908,-89,2025-11-07 12:01:07.055865846
2025-11-07 12:01:04.968908,-23809,2025-11-07 12:01:07.063558154
2025-11-07 12:01:04.968908,-1,2025-11-07 12:01:07.071250462
2025-11-07 12:01:04.968908,-96,2025-11-07 12:01:07.078942769
2025-11-07 12:01:04.968908,-23041,2025-11-07 12:01:07.086635077
2025-11-07 12:01:04.968908,-1,2025-11-07 12:01:07.094327385
2025-11-07 12:01:04.968908,-91,2025-11-07 12:01:07.102019692
2025-11-07 12:01:04.968908,-21249,2025-11-07 12:01:07.109712000
2025-11-07 12:01:04.968908,-1,2025-11-07 12:01:07.117404308
2025-11-07 12:01:04.968908,-79,2025-11-07 12:01:07.125096615
2025-11-07 12:01:04.968908,-19457,2025-11-07 12:01:07.132788923
2025-11-07 12:01:04.968908,-1,2025-11-07 12:01:07.140481230
2025-11-07 12:01:04.968908,-77,2025-11-07 12:01:07.148173538
2025-11-07 12:01:04.968908,-19457,2025-11-07 12:01:07.155865846
2025-11-07 12:01:04.968908,-1,2025-11-07 12:01:07.163558154
2025-11-07 12:01:04.968908,-72,2025-11-07 12:01:07.171250462
2025-11-07 12:01:04.968908,-16897,2025-11-07 12:01:07.178942769
2025-11-07 12:01:04.968908,-1,2025-11-07 12:01:07.186635077
2025-11-07 12:01:04.968908,-67,2025-11-07 12:01:07.194327385
2025-11-07 12:01:04.968908,-16897,2025-11-07 12:01:07.202019692
2025-11-07 12:01:04.968908,-1,2025-11-07 12:01:07.209712000
2025-11-07 12:01:04.968908,-67,2025-11-07 12:01:07.217404308
2025-11-07 12:01:04.968908,-15105,2025-11-07 12:01:07.225096615
2025-11-07 12:01:04.968908,-1,2025-11-07 12:01:07.232788923
2025-11-07 12:01:04.968908,-55,2025-11-07 12:01:07.240481231
2025-11-07 12:01:04.968908,-12545,2025-11-07 12:01:07.248173538
2025-11-07 12:01:04.968908,-1,2025-11-07 12:01:07.255865846
2025-11-07 12:01:04.968908,-41,2025-11-07 12:01:07.263558154
2025-11-07 12:01:04.968908,-8193,2025-11-07 12:01:07.271250462
2025-11-07 12:01:04.968908,-1,2025-11-07 12:01:07.278942769
2025-11-07 12:01:04.968908,-24,2025-11-07 12:01:07.286635077
2025-11-07 12:01:04.968908,-4609,2025-11-07 12:01:07.294327385
2025-11-07 12:01:04.968908,-1,2025-11-07 12:01:07.302019692
2025-11-07 12:01:04.968908,-9,2025-11-07 12:01:07.309712000
2025-11-07 12:01:04.968908,767,2025-11-07 12:01:07.317404308
2025-11-07 12:01:04.968908,0,2025-11-07 12:01:07.325096615
2025-11-07 12:01:04.968908,7,2025-11-07 12:01:07.332788923
2025-11-07 12:01:04.968908,1024,2025-11-07 12:01:07.340481231
2025-11-07 12:01:04.968908,0,2025-11-07 12:01:07.348173538
2025-11-07 12:01:04.968908,0,2025-11-07 12:01:07.355865846
2025-11-07 12:01:04.968908,0,2025-11-07 12:01:07.363558154
2025-11-07 12:01:04.968908,0,2025-11-07 12:01:07.371250462
2025-11-07 12:01:04.968908,-2,2025-11-07 12:01:07.378942769
2025-11-07 12:01:04.968908,-2049,2025-11-07 12:01:07.386635077
2025-11-07 12:01:04.968908,-1,2025-11-07 12:01:07.394327385
2025-11-07 12:01:04.968908,-9,2025-11-07 12:01:07.402019692
2025-11-07 12:01:04.968908,-769,2025-11-07 12:01:07.409712000
2025-11-07 12:01:04.968908,-1,2025-11-07 12:01:07.417404308
2025-11-07 12:01:04.968908,-7,2025-11-07 12:01:07.425096615
2025-11-07 12:01:04.968908,-2049,2025-11-07 12:01:07.432788923
2025-11-07 12:01:04.968908,-1,2025-11-07 12:01:07.440481231
2025-11-07 12:01:04.968908,-4,2025-11-07 12:01:07.448173538
2025-11-07 12:01:04.968908,-769,2025-11-07 12:01:07.455865846
2025-11-07 12:01:04.968908,-1,2025-11-07 12:01:07.463558154
2025-11-07 12:01:04.968908,-2,2025-11-07 12:01:07.471250462
2025-11-07 12:01:05.569959,0,2025-11-07 12:01:07.478942769
2025-11-07 12:01:05.569959,-512,2025-11-07 12:01:07.486635077
2025-11-07 12:01:05.569959,-1,2025-11-07 12:01:07.494327385
2025-11-07 12:01:05.569959,-4,2025-11-07 12:01:07.502019692
2025-11-07 12:01:05.569959,-769,2025-11-07 12:01:07.509712000
2025-11-07 12:01:05.569959,-1,2025-11-07 12:01:07.517404308
2025-11-07 12:01:05.569959,-7,2025-11-07 12:01:07.525096615
2025-11-07 12:01:05.569959,-2049,2025-11-07 12:01:07.532788923
2025-11-07 12:01:05.569959,-1,2025-11-07 12:01:07.540481231
2025-11-07 12:01:05.569959,-12,2025-11-07 12:01:07.548173538
2025-11-07 12:01:05.569959,-2817,2025-11-07 12:01:07.555865846
2025-11-07 12:01:05.569959,-1,2025-11-07 12:01:07.563558154
2025-11-07 12:01:05.569959,-9,2025-11-07 12:01:07.571250462
2025-11-07 12:01:05.569959,767,2025-11-07 12:01:07.578942769
2025-11-07 12:01:05.569959,0,2025-11-07 12:01:07.586635077
2025-11-07 12:01:05.569959,14,2025-11-07 12:01:07.594327385
2025-11-07 12:01:05.569959,3072,2025-11-07 12:01:07.602019692
2025-11-07 12:01:05.569959,0,2025-11-07 12:01:07.609712000
2025-11-07 12:01:05.569959,7,2025-11-07 12:01:07.617404308
2025-11-07 12:01:05.569959,2304,2025-11-07 12:01:07.625096615
2025-11-07 12:01:05.569959,0,2025-11-07 12:01:07.632788923
2025-11-07 12:01:05.569959,12,2025-11-07 12:01:07.640481231
2025-11-07 12:01:05.569959,2304,2025-11-07 12:01:07.648173538
2025-11-07 12:01:05.569959,0,2025-11-07 12:01:07.655865846
2025-11-07 12:01:05.569959,7,2025-11-07 12:01:07.663558154
2025-11-07 12:01:05.569959,3072,2025-11-07 12:01:07.671250462
2025-11-07 12:01:05.569959,0,2025-11-07 12:01:07.678942769
2025-11-07 12:01:05.569959,12,2025-11-07 12:01:07.686635077
2025-11-07 12:01:05.569959,2304,2025-11-07 12:01:07.694327385
2025-11-07 12:01:05.569959,0,2025-11-07 12:01:07.702019692
2025-11-07 12:01:05.569959,16,2025-11-07 12:01:07.709712000
2025-11-07 12:01:05.569959,4096,2025-11-07 12:01:07.717404308
2025-11-07 12:01:05.569959,0,2025-11-07 12:01:07.725096615
2025-11-07 12:01:05.569959,7,2025-11-07 12:01:07.732788923
2025-11-07 12:01:05.569959,512,2025-11-07 12:01:07.740481231
2025-11-07 12:01:05.569959,0,2025-11-07 12:01:07.748173538
2025-11-07 12:01:05.569959,9,2025-11-07 12:01:07.755865846
2025-11-07 12:01:05.569959,6144,2025-11-07 12:01:07.763558154
2025-11-07 12:01:05.569959,0,2025-11-07 12:01:07.771250462
2025-11-07 12:01:05.569959,36,2025-11-07 12:01:07.778942769
2025-11-07 12:01:05.569959,9216,2025-11-07 12:01:07.786635077
2025-11-07 12:01:05.569959,0,2025-11-07 12:01:07.794327385
2025-11-07 12:01:05.569959,31,2025-11-07 12:01:07.802019692
2025-11-07 12:01:05.569959,4096,2025-11-07 12:01:07.809712000
2025-11-07 12:01:05.569959,0,2025-11-07 12:01:07.817404308
2025-11-07 12:01:05.569959,0,2025-11-07 12:01:07.825096615
2025-11-07 12:01:05.569959,0,2025-11-07 12:01:07.832788923
2025-11-07 12:01:05.569959,0,2025-11-07 12:01:07.840481231
2025-11-07 12:01:05.569959,9,2025-11-07 12:01:07.848173538
2025-11-07 12:01:05.569959,1792,2025-11-07 12:01:07.855865846
2025-11-07 12:01:05.569959,0,2025-11-07 12:01:07.863558154
2025-11-07 12:01:05.569959,2,2025-11-07 12:01:07.871250462
2025-11-07 12:01:05.569959,1792,2025-11-07 12:01:07.878942769
2025-11-07 12:01:05.569959,0,2025-11-07 12:01:07.886635077
2025-11-07 12:01:05.569959,0,2025-11-07 12:01:07.894327385
2025-11-07 12:01:05.569959,-9728,2025-11-07 12:01:07.902019692
2025-11-07 12:01:05.569959,-1,2025-11-07 12:01:07.909712000
2025-11-07 12:01:05.569959,-113,2025-11-07 12:01:07.917404308
2025-11-07 12:01:05.569959,26879,2025-11-07 12:01:07.925096615
2025-11-07 12:01:05.569959,-1,2025-11-07 12:01:07.932788923
2025-11-07 12:01:05.569959,43,2025-11-07 12:01:07.940481231
2025-11-07 12:01:05.569959,-1792,2025-11-07 12:01:07.948173538
2025-11-07 12:01:05.569959,1,2025-11-07 12:01:07.955865846
2025-11-07 12:01:05.569959,841,2025-11-07 12:01:07.963558154
2025-11-07 12:01:05.569959,-19712,2025-11-07 12:01:07.971250462
2025-11-07 12:01:05.569959,2,2025-11-07 12:01:07.978942769
2025-11-07 12:01:05.569959,241,2025-11-07 12:01:07.986635077
2025-11-07 12:01:05.569959,-12288,2025-11-07 12:01:07.994327385
2025-11-07 12:01:05.569959,-1,2025-11-07 12:01:08.002019692
2025-11-07 12:01:05.569959,-77,2025-11-07 12:01:08.009712000
2025-11-07 12:01:05.569959,-19457,2025-11-07 12:01:08.017404308
2025-11-07 12:01:05.569959,-1,2025-11-07 12:01:08.025096615
2025-11-07 12:01:05.569959,-108,2025-11-07 12:01:08.032788923
2025-11-07 12:01:05.569959,-25601,2025-11-07 12:01:08.040481231
2025-11-07 12:01:05.569959,-1,2025-11-07 12:01:08.048173538
2025-11-07 12:01:05.569959,-84,2025-11-07 12:01:08.055865846
2025-11-07 12:01:05.569959,-21249,2025-11-07 12:01:08.063558154
2025-11-07 12:01:05.569959,-1,2025-11-07 12:01:08.071250462
2025-11-07 12:01:05.569959,-82,2025-11-07 12:01:08.078942769
2025-11-07 12:01:05.569959,-19457,2025-11-07 12:01:08.086635077
2025-11-07 12:01:05.569959,-1,2025-11-07 12:01:08.094327385
2025-11-07 12:01:05.569959,-77,2025-11-07 12:01:08.102019692
2025-11-07 12:01:05.569959,-18177,2025-11-07 12:01:08.109712000
2025-11-07 12:01:05.569959,-1,2025-11-07 12:01:08.117404308
2025-11-07 12:01:05.569959,-65,2025-11-07 12:01:08.125096615
2025-11-07 12:01:05.569959,-17665,2025-11-07 12:01:08.132788923
2025-11-07 12:01:05.569959,-1,2025-11-07 12:01:08.140481230
2025-11-07 12:01:05.569959,-74,2025-11-07 12:01:08.148173538
2025-11-07 12:01:05.569959,-18177,2025-11-07 12:01:08.155865846
2025-11-07 12:01:05.569959,-1,2025-11-07 12:01:08.163558154
2025-11-07 12:01:05.569959,-67,2025-11-07 12:01:08.171250462
2025-11-07 12:01:05.569959,-15617,2025-11-07 12:01:08.178942769
2025-11-07 12:01:05.569959,-1,2025-11-07 12:01:08.186635077
2025-11-07 12:01:05.569959,-60,2025-11-07 12:01:08.194327385
2025-11-07 12:01:05.569959,-15617,2025-11-07 12:01:08.202019692
2025-11-07 12:01:05.569959,-1,2025-11-07 12:01:08.209712000
2025-11-07 12:01:05.569959,-58,2025-11-07 12:01:08.217404308
2025-11-07 12:01:05.569959,-13313,2025-11-07 12:01:08.225096615
2025-11-07 12:01:05.569959,-1,2025-11-07 12:01:08.232788923
2025-11-07 12:01:05.569959,-58,2025-11-07 12:01:08.240481231
2025-11-07 12:01:05.569959,-13825,2025-11-07 12:01:08.248173538
2025-11-07 12:01:05.569959,-1,2025-11-07 12:01:08.255865846
2025-11-07 12:01:05.569959,-45,2025-11-07 12:01:08.263558154
2025-11-07 12:01:05.569959,-9473,2025-11-07 12:01:08.271250462
2025-11-07 12:01:05.569959,-1,2025-11-07 12:01:08.278942769
2025-11-07 12:01:05.569959,-31,2025-11-07 12:01:08.286635077
2025-11-07 12:01:05.569959,-3841,2025-11-07 12:01:08.294327385
2025-11-07 12:01:05.569959,-1,2025-11-07 12:01:08.302019692
2025-11-07 12:01:05.569959,-12,2025-11-07 12:01:08.309712000
2025-11-07 12:01:06.079564,-7,2025-11-07 12:01:08.317404308
2025-11-07 12:01:06.079564,1279,2025-11-07 12:01:08.325096615
2025-11-07 12:01:06.079564,0,2025-11-07 12:01:08.332788923
2025-11-07 12:01:06.079564,9,2025-11-07 12:01:08.340481231
2025-11-07 12:01:06.079564,0,2025-11-07 12:01:08.348173538
2025-11-07 12:01:06.079564,0,2025-11-07 12:01:08.355865846
2025-11-07 12:01:06.079564,-12,2025-11-07 12:01:08.363558154
2025-11-07 12:01:06.079564,-2817,2025-11-07 12:01:08.371250462
2025-11-07 12:01:06.079564,-1,2025-11-07 12:01:08.378942769
2025-11-07 12:01:06.079564,-12,2025-11-07 12:01:08.386635077
2025-11-07 12:01:06.079564,-3329,2025-11-07 12:01:08.394327385
2025-11-07 12:01:06.079564,-1,2025-11-07 12:01:08.402019692
2025-11-07 12:01:06.079564,-14,2025-11-07 12:01:08.409712000
2025-11-07 12:01:06.079564,-2049,2025-11-07 12:01:08.417404308
2025-11-07 12:01:06.079564,-1,2025-11-07 12:01:08.425096615
2025-11-07 12:01:06.079564,-7,2025-11-07 12:01:08.432788923
2025-11-07 12:01:06.079564,-1537,2025-11-07 12:01:08.440481231
2025-11-07 12:01:06.079564,-1,2025-11-07 12:01:08.448173538
2025-11-07 12:01:06.079564,-7,2025-11-07 12:01:08.455865846
2025-11-07 12:01:06.079564,-1537,2025-11-07 12:01:08.463558154
2025-11-07 12:01:06.079564,-1,2025-11-07 12:01:08.471250462
2025-11-07 12:01:06.079564,7,2025-11-07 12:01:08.478942769
2025-11-07 12:01:06.079564,5376,2025-11-07 12:01:08.486635077
2025-11-07 12:01:06.079564,0,2025-11-07 12:01:08.494327385
2025-11-07 12:01:06.079564,16,2025-11-07 12:01:08.502019692
2025-11-07 12:01:06.079564,1792,2025-11-07 12:01:08.509712000
2025-11-07 12:01:06.079564,0,2025-11-07 12:01:08.517404308
2025-11-07 12:01:06.079564,9,2025-11-07 12:01:08.525096615
2025-11-07 12:01:06.079564,3072,2025-11-07 12:01:08.532788923
2025-11-07 12:01:06.079564,0,2025-11-07 12:01:08.540481231
2025-11-07 12:01:06.079564,9,2025-11-07 12:01:08.548173538
2025-11-07 12:01:06.079564,1792,2025-11-07 12:01:08.555865846
2025-11-07 12:01:06.079564,0,2025-11-07 12:01:08.563558154
2025-11-07 12:01:06.079564,7,2025-11-07 12:01:08.571250462
2025-11-07 12:01:06.079564,1024,2025-11-07 12:01:08.578942769
2025-11-07 12:01:06.079564,0,2025-11-07 12:01:08.586635077
2025-11-07 12:01:06.079564,2,2025-11-07 12:01:08.594327385
2025-11-07 12:01:06.079564,1024,2025-11-07 12:01:08.602019692
2025-11-07 12:01:06.079564,0,2025-11-07 12:01:08.609712000
2025-11-07 12:01:06.079564,4,2025-11-07 12:01:08.617404308
2025-11-07 12:01:06.079564,512,2025-11-07 12:01:08.625096615
2025-11-07 12:01:06.079564,0,2025-11-07 12:01:08.632788923
2025-11-07 12:01:06.079564,4,2025-11-07 12:01:08.640481231
2025-11-07 12:01:06.079564,1024,2025-11-07 12:01:08.648173538
2025-11-07 12:01:06.079564,0,2025-11-07 12:01:08.655865846
2025-11-07 12:01:06.079564,9,2025-11-07 12:01:08.663558154
2025-11-07 12:01:06.079564,2304,2025-11-07 12:01:08.671250462
2025-11-07 12:01:06.079564,0,2025-11-07 12:01:08.678942769
2025-11-07 12:01:06.079564,12,2025-11-07 12:01:08.686635077
2025-11-07 12:01:06.079564,3584,2025-11-07 12:01:08.694327385
2025-11-07 12:01:06.079564,0,2025-11-07 12:01:08.702019692
2025-11-07 12:01:06.079564,12,2025-11-07 12:01:08.709712000
2025-11-07 12:01:06.079564,2304,2025-11-07 12:01:08.717404308
2025-11-07 12:01:06.079564,0,2025-11-07 12:01:08.725096615
2025-11-07 12:01:06.079564,14,2025-11-07 12:01:08.732788923
2025-11-07 12:01:06.079564,6656,2025-11-07 12:01:08.740481231
2025-11-07 12:01:06.079564,0,2025-11-07 12:01:08.748173538
2025-11-07 12:01:06.079564,26,2025-11-07 12:01:08.755865846
2025-11-07 12:01:06.079564,3072,2025-11-07 12:01:08.763558154
2025-11-07 12:01:06.079564,0,2025-11-07 12:01:08.771250462
2025-11-07 12:01:06.079564,7,2025-11-07 12:01:08.778942769
2025-11-07 12:01:06.079564,2304,2025-11-07 12:01:08.786635077
2025-11-07 12:01:06.079564,0,2025-11-07 12:01:08.794327385
2025-11-07 12:01:06.079564,9,2025-11-07 12:01:08.802019692
2025-11-07 12:01:06.079564,2304,2025-11-07 12:01:08.809712000
2025-11-07 12:01:06.079564,0,2025-11-07 12:01:08.817404308
2025-11-07 12:01:06.079564,12,2025-11-07 12:01:08.825096615
2025-11-07 12:01:06.079564,6656,2025-11-07 12:01:08.832788923
2025-11-07 12:01:06.079564,0,2025-11-07 12:01:08.840481231
2025-11-07 12:01:06.079564,41,2025-11-07 12:01:08.848173538
2025-11-07 12:01:06.079564,9728,2025-11-07 12:01:08.855865846
2025-11-07 12:01:06.079564,0,2025-11-07 12:01:08.863558154
2025-11-07 12:01:06.079564,38,2025-11-07 12:01:08.871250462
2025-11-07 12:01:06.079564,6656,2025-11-07 12:01:08.878942769
2025-11-07 12:01:06.079564,0,2025-11-07 12:01:08.886635077
2025-11-07 12:01:06.079564,7,2025-11-07 12:01:08.894327385
2025-11-07 12:01:06.079564,1024,2025-11-07 12:01:08.902019692
2025-11-07 12:01:06.079564,0,2025-11-07 12:01:08.909712000
2025-11-07 12:01:06.079564,7,2025-11-07 12:01:08.917404308
2025-11-07 12:01:06.079564,1792,2025-11-07 12:01:08.925096615
2025-11-07 12:01:06.079564,0,2025-11-07 12:01:08.932788923
2025-11-07 12:01:06.079564,7,2025-11-07 12:01:08.940481231
2025-11-07 12:01:06.079564,1792,2025-11-07 12:01:08.948173538
2025-11-07 12:01:06.079564,0,2025-11-07 12:01:08.955865846
2025-11-07 12:01:06.079564,2,2025-11-07 12:01:08.963558154
2025-11-07 12:01:06.079564,-11520,2025-11-07 12:01:08.971250462
2025-11-07 12:01:06.079564,-1,2025-11-07 12:01:08.978942769
2025-11-07 12:01:06.079564,-135,2025-11-07 12:01:08.986635077
2025-11-07 12:01:06.079564,-29441,2025-11-07 12:01:08.994327385
2025-11-07 12:01:06.079564,-1,2025-11-07 12:01:09.002019692
2025-11-07 12:01:06.079564,203,2025-11-07 12:01:09.009712000
2025-11-07 12:01:06.079564,-23552,2025-11-07 12:01:09.017404308
2025-11-07 12:01:06.079564,2,2025-11-07 12:01:09.025096615
2025-11-07 12:01:06.079564,829,2025-11-07 12:01:09.032788923
2025-11-07 12:01:06.079564,-3072,2025-11-07 12:01:09.040481231
2025-11-07 12:01:06.079564,1,2025-11-07 12:01:09.048173538
2025-11-07 12:01:06.079564,82,2025-11-07 12:01:09.055865846
2025-11-07 12:01:06.079564,-17152,2025-11-07 12:01:09.063558154
2025-11-07 12:01:06.079564,-1,2025-11-07 12:01:09.071250462
2025-11-07 12:01:06.079564,-53,2025-11-07 12:01:09.078942769
2025-11-07 12:01:06.079564,-20737,2025-11-07 12:01:09.086635077
2025-11-07 12:01:06.079564,-1,2025-11-07 12:01:09.094327385
2025-11-07 12:01:06.079564,-111,2025-11-07 12:01:09.102019692
2025-11-07 12:01:06.079564,-23041,2025-11-07 12:01:09.109712000
2025-11-07 12:01:06.079564,-1,2025-11-07 12:01:09.117404308
2025-11-07 12:01:06.079564,-84,2025-11-07 12:01:09.125096615
2025-11-07 12:01:06.079564,-23041,2025-11-07 12:01:09.132788923
2025-11-07 12:01:06.079564,-1,2025-11-07 12:01:09.140481230
2025-11-07 12:01:06.079564,-87,2025-11-07 12:01:09.148173538
2025-11-07 12:01:06.619366,-79,2025-11-07 12:01:09.155865846
2025-11-07 12:01:06.619366,-18689,2025-11-07 12:01:09.163558154
2025-11-07 12:01:06.619366,-1,2025-11-07 12:01:09.171250462
2025-11-07 12:01:06.619366,-65,2025-11-07 12:01:09.178942769
2025-11-07 12:01:06.619366,-16385,2025-11-07 12:01:09.186635077
2025-11-07 12:01:06.619366,-1,2025-11-07 12:01:09.194327385
2025-11-07 12:01:06.619366,-67,2025-11-07 12:01:09.202019692
2025-11-07 12:01:06.619366,-15105,2025-11-07 12:01:09.209712000
2025-11-07 12:01:06.619366,-1,2025-11-07 12:01:09.217404308
2025-11-07 12:01:06.619366,-50,2025-11-07 12:01:09.225096615
2025-11-07 12:01:06.619366,-11265,2025-11-07 12:01:09.232788923
2025-11-07 12:01:06.619366,-1,2025-11-07 12:01:09.240481231
2025-11-07 12:01:06.619366,-38,2025-11-07 12:01:09.248173538
2025-11-07 12:01:06.619366,-7169,2025-11-07 12:01:09.255865846
2025-11-07 12:01:06.619366,-1,2025-11-07 12:01:09.263558154
2025-11-07 12:01:06.619366,-29,2025-11-07 12:01:09.271250462
2025-11-07 12:01:06.619366,-7169,2025-11-07 12:01:09.278942769
2025-11-07 12:01:06.619366,-1,2025-11-07 12:01:09.286635077
2025-11-07 12:01:06.619366,-29,2025-11-07 12:01:09.294327385
2025-11-07 12:01:06.619366,-7169,2025-11-07 12:01:09.302019692
2025-11-07 12:01:06.619366,-1,2025-11-07 12:01:09.309712000
2025-11-07 12:01:06.619366,-24,2025-11-07 12:01:09.317404308
2025-11-07 12:01:06.619366,-4609,2025-11-07 12:01:09.325096615
2025-11-07 12:01:06.619366,-1,2025-11-07 12:01:09.332788923
2025-11-07 12:01:06.619366,-16,2025-11-07 12:01:09.340481231
2025-11-07 12:01:06.619366,-2817,2025-11-07 12:01:09.348173538
2025-11-07 12:01:06.619366,-1,2025-11-07 12:01:09.355865846
2025-11-07 12:01:06.619366,-2,2025-11-07 12:01:09.363558154
2025-11-07 12:01:06.619366,2047,2025-11-07 12:01:09.371250462
2025-11-07 12:01:06.619366,0,2025-11-07 12:01:09.378942769
2025-11-07 12:01:06.619366,16,2025-11-07 12:01:09.386635077
2025-11-07 12:01:06.619366,5376,2025-11-07 12:01:09.394327385
2025-11-07 12:01:06.619366,0,2025-11-07 12:01:09.402019692
2025-11-07 12:01:06.619366,21,2025-11-07 12:01:09.409712000
2025-11-07 12:01:06.619366,5376,2025-11-07 12:01:09.417404308
2025-11-07 12:01:06.619366,0,2025-11-07 12:01:09.425096615
2025-11-07 12:01:06.619366,14,2025-11-07 12:01:09.432788923
2025-11-07 12:01:06.619366,512,2025-11-07 12:01:09.440481231
2025-11-07 12:01:06.619366,0,2025-11-07 12:01:09.448173538
2025-11-07 12:01:06.619366,2,2025-11-07 12:01:09.455865846
2025-11-07 12:01:06.619366,1024,2025-11-07 12:01:09.463558154
2025-11-07 12:01:06.619366,0,2025-11-07 12:01:09.471250462
2025-11-07 12:01:06.619366,-4,2025-11-07 12:01:09.478942769
2025-11-07 12:01:06.619366,767,2025-11-07 12:01:09.486635077
2025-11-07 12:01:06.619366,0,2025-11-07 12:01:09.494327385
2025-11-07 12:01:06.619366,19,2025-11-07 12:01:09.502019692
2025-11-07 12:01:06.619366,3584,2025-11-07 12:01:09.509712000
2025-11-07 12:01:06.619366,0,2025-11-07 12:01:09.517404308
2025-11-07 12:01:06.619366,7,2025-11-07 12:01:09.525096615
2025-11-07 12:01:06.619366,3072,2025-11-07 12:01:09.532788923
2025-11-07 12:01:06.619366,0,2025-11-07 12:01:09.540481231
2025-11-07 12:01:06.619366,14,2025-11-07 12:01:09.548173538
2025-11-07 12:01:06.619366,3072,2025-11-07 12:01:09.555865846
2025-11-07 12:01:06.619366,0,2025-11-07 12:01:09.563558154
2025-11-07 12:01:06.619366,7,2025-11-07 12:01:09.571250462
2025-11-07 12:01:06.619366,1792,2025-11-07 12:01:09.578942769
2025-11-07 12:01:06.619366,0,2025-11-07 12:01:09.586635077
2025-11-07 12:01:06.619366,9,2025-11-07 12:01:09.594327385
2025-11-07 12:01:06.619366,1792,2025-11-07 12:01:09.602019692
2025-11-07 12:01:06.619366,0,2025-11-07 12:01:09.609712000
2025-11-07 12:01:06.619366,4,2025-11-07 12:01:09.617404308
2025-11-07 12:01:06.619366,512,2025-11-07 12:01:09.625096615
2025-11-07 12:01:06.619366,0,2025-11-07 12:01:09.632788923
2025-11-07 12:01:06.619366,2,2025-11-07 12:01:09.640481231
2025-11-07 12:01:06.619366,1024,2025-11-07 12:01:09.648173538
2025-11-07 12:01:06.619366,0,2025-11-07 12:01:09.655865846
2025-11-07 12:01:06.619366,0,2025-11-07 12:01:09.663558154
2025-11-07 12:01:06.619366,0,2025-11-07 12:01:09.671250462
2025-11-07 12:01:06.619366,0,2025-11-07 12:01:09.678942769
2025-11-07 12:01:06.619366,4,2025-11-07 12:01:09.686635077
2025-11-07 12:01:06.619366,1792,2025-11-07 12:01:09.694327385
2025-11-07 12:01:06.619366,0,2025-11-07 12:01:09.702019692
2025-11-07 12:01:06.619366,9,2025-11-07 12:01:09.709712000
2025-11-07 12:01:06.619366,2304,2025-11-07 12:01:09.717404308
2025-11-07 12:01:06.619366,0,2025-11-07 12:01:09.725096615
2025-11-07 12:01:06.619366,9,2025-11-07 12:01:09.732788923
2025-11-07 12:01:06.619366,3584,2025-11-07 12:01:09.740481231
2025-11-07 12:01:06.619366,0,2025-11-07 12:01:09.748173538
2025-11-07 12:01:06.619366,14,2025-11-07 12:01:09.755865846
2025-11-07 12:01:06.619366,2304,2025-11-07 12:01:09.763558154
2025-11-07 12:01:06.619366,0,2025-11-07 12:01:09.771250462
2025-11-07 12:01:06.619366,9,2025-11-07 12:01:09.778942769
2025-11-07 12:01:06.619366,3584,2025-11-07 12:01:09.786635077
2025-11-07 12:01:06.619366,0,2025-11-07 12:01:09.794327385
2025-11-07 12:01:06.619366,12,2025-11-07 12:01:09.802019692
2025-11-07 12:01:06.619366,1792,2025-11-07 12:01:09.809712000
2025-11-07 12:01:06.619366,0,2025-11-07 12:01:09.817404308
2025-11-07 12:01:06.619366,12,2025-11-07 12:01:09.825096615
2025-11-07 12:01:06.619366,3072,2025-11-07 12:01:09.832788923
2025-11-07 12:01:06.619366,0,2025-11-07 12:01:09.840481231
2025-11-07 12:01:06.619366,7,2025-11-07 12:01:09.848173538
2025-11-07 12:01:06.619366,3072,2025-11-07 12:01:09.855865846
2025-11-07 12:01:06.619366,0,2025-11-07 12:01:09.863558154
2025-11-07 12:01:06.619366,16,2025-11-07 12:01:09.871250462
2025-11-07 12:01:06.619366,1792,2025-11-07 12:01:09.878942769
2025-11-07 12:01:06.619366,0,2025-11-07 12:01:09.886635077
2025-11-07 12:01:06.619366,-2,2025-11-07 12:01:09.894327385
2025-11-07 12:01:06.619366,255,2025-11-07 12:01:09.902019692
2025-11-07 12:01:06.619366,0,2025-11-07 12:01:09.909712000
2025-11-07 12:01:06.619366,9,2025-11-07 12:01:09.917404308
2025-11-07 12:01:06.619366,512,2025-11-07 12:01:09.925096615
2025-11-07 12:01:06.619366,0,2025-11-07 12:01:09.932788923
2025-11-07 12:01:06.619366,-7,2025-11-07 12:01:09.940481231
2025-11-07 12:01:06.619366,-769,2025-11-07 12:01:09.948173538
2025-11-07 12:01:06.619366,-1,2025-11-07 12:01:09.955865846
2025-11-07 12:01:06.619366,9,2025-11-07 12:01:09.963558154
2025-11-07 12:01:06.619366,7424,2025-11-07 12:01:09.971250462
2025-11-07 12:01:06.619366,0,2025-11-07 12:01:09.978942769
2025-11-07 12:01:06.619366,36,2025-11-07 12:01:09.986635077
2025-11-07 12:01:07.188906,29,2025-11-07 12:01:09.994327385
2025-11-07 12:01:07.188906,7424,2025-11-07 12:01:10.002019692
2025-11-07 12:01:07.188906,0,2025-11-07 12:01:10.009712000
2025-11-07 12:01:07.188906,21,2025-11-07 12:01:10.017404308
2025-11-07 12:01:07.188906,1024,2025-11-07 12:01:10.025096615
2025-11-07 12:01:07.188906,0,2025-11-07 12:01:10.032788923
2025-11-07 12:01:07.188906,7,2025-11-07 12:01:10.040481231
2025-11-07 12:01:07.188906,7424,2025-11-07 12:01:10.048173538
2025-11-07 12:01:07.188906,0,2025-11-07 12:01:10.055865846
2025-11-07 12:01:07.188906,38,2025-11-07 12:01:10.063558154
2025-11-07 12:01:07.188906,6144,2025-11-07 12:01:10.071250462
2025-11-07 12:01:07.188906,0,2025-11-07 12:01:10.078942769
2025-11-07 12:01:07.188906,12,2025-11-07 12:01:10.086635077
2025-11-07 12:01:07.188906,3584,2025-11-07 12:01:10.094327385
2025-11-07 12:01:07.188906,0,2025-11-07 12:01:10.102019692
2025-11-07 12:01:07.188906,-16,2025-11-07 12:01:10.109712000
2025-11-07 12:01:07.188906,-25089,2025-11-07 12:01:10.117404308
2025-11-07 12:01:07.188906,-1,2025-11-07 12:01:10.125096615
2025-11-07 12:01:07.188906,-108,2025-11-07 12:01:10.132788923
2025-11-07 12:01:07.188906,-24577,2025-11-07 12:01:10.140481230
2025-11-07 12:01:07.188906,0,2025-11-07 12:01:10.148173538
2025-11-07 12:01:07.188906,628,2025-11-07 12:01:10.155865846
2025-11-07 12:01:07.188906,19712,2025-11-07 12:01:10.163558154
2025-11-07 12:01:07.188906,3,2025-11-07 12:01:10.171250462
2025-11-07 12:01:07.188906,575,2025-11-07 12:01:10.178942769
2025-11-07 12:01:07.188906,-30464,2025-11-07 12:01:10.186635077
2025-11-07 12:01:07.188906,0,2025-11-07 12:01:10.194327385
2025-11-07 12:01:07.188906,-58,2025-11-07 12:01:10.202019692
2025-11-07 12:01:07.188906,-12033,2025-11-07 12:01:10.209712000
2025-11-07 12:01:07.188906,-1,2025-11-07 12:01:10.217404308
2025-11-07 12:01:07.188906,-60,2025-11-07 12:01:10.225096615
2025-11-07 12:01:07.188906,-20737,2025-11-07 12:01:10.232788923
2025-11-07 12:01:07.188906,-1,2025-11-07 12:01:10.240481231
2025-11-07 12:01:07.188906,-72,2025-11-07 12:01:10.248173538
2025-11-07 12:01:07.188906,-20737,2025-11-07 12:01:10.255865846
2025-11-07 12:01:07.188906,-1,2025-11-07 12:01:10.263558154
2025-11-07 12:01:07.188906,-89,2025-11-07 12:01:10.271250462
2025-11-07 12:01:07.188906,-16897,2025-11-07 12:01:10.278942769
2025-11-07 12:01:07.188906,-1,2025-11-07 12:01:10.286635077
2025-11-07 12:01:07.188906,-60,2025-11-07 12:01:10.294327385
2025-11-07 12:01:07.188906,-15617,2025-11-07 12:01:10.302019692
2025-11-07 12:01:07.188906,-1,2025-11-07 12:01:10.309712000
2025-11-07 12:01:07.188906,-58,2025-11-07 12:01:10.317404308
2025-11-07 12:01:07.188906,-12545,2025-11-07 12:01:10.325096615
2025-11-07 12:01:07.188906,-1,2025-11-07 12:01:10.332788923
2025-11-07 12:01:07.188906,-50,2025-11-07 12:01:10.340481231
2025-11-07 12:01:07.188906,-13313,2025-11-07 12:01:10.348173538
2025-11-07 12:01:07.188906,-1,2025-11-07 12:01:10.355865846
2025-11-07 12:01:07.188906,-50,2025-11-07 12:01:10.363558154
2025-11-07 12:01:07.188906,-11265,2025-11-07 12:01:10.371250462
2025-11-07 12:01:07.188906,-1,2025-11-07 12:01:10.378942769
2025-11-07 12:01:07.188906,-41,2025-11-07 12:01:10.386635077
2025-11-07 12:01:07.188906,-10241,2025-11-07 12:01:10.394327385
2025-11-07 12:01:07.188906,-1,2025-11-07 12:01:10.402019692
2025-11-07 12:01:07.188906,-48,2025-11-07 12:01:10.409712000
2025-11-07 12:01:07.188906,-10753,2025-11-07 12:01:10.417404308
2025-11-07 12:01:07.188906,-1,2025-11-07 12:01:10.425096615
2025-11-07 12:01:07.188906,-33,2025-11-07 12:01:10.432788923
2025-11-07 12:01:07.188906,-8193,2025-11-07 12:01:10.440481231
2025-11-07 12:01:07.188906,-1,2025-11-07 12:01:10.448173538
2025-11-07 12:01:07.188906,-29,2025-11-07 12:01:10.455865846
2025-11-07 12:01:07.188906,-6401,2025-11-07 12:01:10.463558154
2025-11-07 12:01:07.188906,-1,2025-11-07 12:01:10.471250462
2025-11-07 12:01:07.188906,-24,2025-11-07 12:01:10.478942769
2025-11-07 12:01:07.188906,-3329,2025-11-07 12:01:10.486635077
2025-11-07 12:01:07.188906,-1,2025-11-07 12:01:10.494327385
2025-11-07 12:01:07.188906,-9,2025-11-07 12:01:10.502019692
2025-11-07 12:01:07.188906,-769,2025-11-07 12:01:10.509712000
2025-11-07 12:01:07.188906,-1,2025-11-07 12:01:10.517404308
2025-11-07 12:01:07.188906,4,2025-11-07 12:01:10.525096615
2025-11-07 12:01:07.188906,1792,2025-11-07 12:01:10.532788923
2025-11-07 12:01:07.188906,0,2025-11-07 12:01:10.540481231
2025-11-07 12:01:07.188906,7,2025-11-07 12:01:10.548173538
2025-11-07 12:01:07.188906,2304,2025-11-07 12:01:10.555865846
2025-11-07 12:01:07.188906,0,2025-11-07 12:01:10.563558154
2025-11-07 12:01:07.188906,12,2025-11-07 12:01:10.571250462
2025-11-07 12:01:07.188906,-512,2025-11-07 12:01:10.578942769
2025-11-07 12:01:07.188906,-1,2025-11-07 12:01:10.586635077
2025-11-07 12:01:07.188906,-9,2025-11-07 12:01:10.594327385
2025-11-07 12:01:07.188906,767,2025-11-07 12:01:10.602019692
2025-11-07 12:01:07.188906,0,2025-11-07 12:01:10.609712000
2025-11-07 12:01:07.188906,0,2025-11-07 12:01:10.617404308
2025-11-07 12:01:07.188906,-512,2025-11-07 12:01:10.625096615
2025-11-07 12:01:07.188906,-1,2025-11-07 12:01:10.632788923
2025-11-07 12:01:07.188906,7,2025-11-07 12:01:10.640481231
2025-11-07 12:01:07.188906,2304,2025-11-07 12:01:10.648173538
2025-11-07 12:01:07.188906,0,2025-11-07 12:01:10.655865846
2025-11-07 12:01:07.188906,4,2025-11-07 12:01:10.663558154
2025-11-07 12:01:07.188906,1024,2025-11-07 12:01:10.671250462
2025-11-07 12:01:07.188906,0,2025-11-07 12:01:10.678942769
2025-11-07 12:01:07.188906,12,2025-11-07 12:01:10.686635077
2025-11-07 12:01:07.188906,2304,2025-11-07 12:01:10.694327385
2025-11-07 12:01:07.188906,0,2025-11-07 12:01:10.702019692
2025-11-07 12:01:07.188906,7,2025-11-07 12:01:10.709712000
2025-11-07 12:01:07.188906,3584,2025-11-07 12:01:10.717404308
2025-11-07 12:01:07.188906,0,2025-11-07 12:01:10.725096615
2025-11-07 12:01:07.188906,14,2025-11-07 12:01:10.732788923
2025-11-07 12:01:07.188906,-512,2025-11-07 12:01:10.740481231
2025-11-07 12:01:07.188906,-1,2025-11-07 12:01:10.748173538
2025-11-07 12:01:07.188906,-9,2025-11-07 12:01:10.755865846
2025-11-07 12:01:07.188906,-1537,2025-11-07 12:01:10.763558154
2025-11-07 12:01:07.188906,-1,2025-11-07 12:01:10.771250462
2025-11-07 12:01:07.188906,-7,2025-11-07 12:01:10.778942769
2025-11-07 12:01:07.188906,-769,2025-11-07 12:01:10.786635077
2025-11-07 12:01:07.188906,-1,2025-11-07 12:01:10.794327385
2025-11-07 12:01:07.188906,-2,2025-11-07 12:01:10.802019692
2025-11-07 12:01:07.188906,1279,2025-11-07 12:01:10.809712000
2025-11-07 12:01:07.188906,0,2025-11-07 12:01:10.817404308
2025-11-07 12:01:07.188906,4,2025-11-07 12:01:10.825096615
2025-11-07 12:01:07.728792,0,2025-11-07 12:01:10.832788923
2025-11-07 12:01:07.728792,1024,2025-11-07 12:01:10.840481231
2025-11-07 12:01:07.728792,0,2025-11-07 12:01:10.848173538
2025-11-07 12:01:07.728792,4,2025-11-07 12:01:10.855865846
2025-11-07 12:01:07.728792,1024,2025-11-07 12:01:10.863558154
2025-11-07 12:01:07.728792,0,2025-11-07 12:01:10.871250462
2025-11-07 12:01:07.728792,9,2025-11-07 12:01:10.878942769
2025-11-07 12:01:07.728792,2304,2025-11-07 12:01:10.886635077
2025-11-07 12:01:07.728792,0,2025-11-07 12:01:10.894327385
2025-11-07 12:01:07.728792,21,2025-11-07 12:01:10.902019692
2025-11-07 12:01:07.728792,10496,2025-11-07 12:01:10.909712000
2025-11-07 12:01:07.728792,0,2025-11-07 12:01:10.917404308
2025-11-07 12:01:07.728792,33,2025-11-07 12:01:10.925096615
2025-11-07 12:01:07.728792,6144,2025-11-07 12:01:10.932788923
2025-11-07 12:01:07.728792,0,2025-11-07 12:01:10.940481231
2025-11-07 12:01:07.728792,29,2025-11-07 12:01:10.948173538
2025-11-07 12:01:07.728792,7936,2025-11-07 12:01:10.955865846
2025-11-07 12:01:07.728792,0,2025-11-07 12:01:10.963558154
2025-11-07 12:01:07.728792,24,2025-11-07 12:01:10.971250462
2025-11-07 12:01:07.728792,4096,2025-11-07 12:01:10.978942769
2025-11-07 12:01:07.728792,0,2025-11-07 12:01:10.986635077
2025-11-07 12:01:07.728792,19,2025-11-07 12:01:10.994327385
2025-11-07 12:01:07.728792,6656,2025-11-07 12:01:11.002019692
2025-11-07 12:01:07.728792,0,2025-11-07 12:01:11.009712000
2025-11-07 12:01:07.728792,31,2025-11-07 12:01:11.017404308
2025-11-07 12:01:07.728792,6144,2025-11-07 12:01:11.025096615
2025-11-07 12:01:07.728792,0,2025-11-07 12:01:11.032788923
2025-11-07 12:01:07.728792,19,2025-11-07 12:01:11.040481231
2025-11-07 12:01:07.728792,7936,2025-11-07 12:01:11.048173538
2025-11-07 12:01:07.728792,0,2025-11-07 12:01:11.055865846
2025-11-07 12:01:07.728792,29,2025-11-07 12:01:11.063558154
2025-11-07 12:01:07.728792,5376,2025-11-07 12:01:11.071250462
2025-11-07 12:01:07.728792,0,2025-11-07 12:01:11.078942769
2025-11-07 12:01:07.728792,21,2025-11-07 12:01:11.086635077
2025-11-07 12:01:07.728792,1792,2025-11-07 12:01:11.094327385
2025-11-07 12:01:07.728792,0,2025-11-07 12:01:11.102019692
2025-11-07 12:01:07.728792,4,2025-11-07 12:01:11.109712000
2025-11-07 12:01:07.728792,5376,2025-11-07 12:01:11.117404308
2025-11-07 12:01:07.728792,0,2025-11-07 12:01:11.125096615
2025-11-07 12:01:07.728792,29,2025-11-07 12:01:11.132788923
2025-11-07 12:01:07.728792,7936,2025-11-07 12:01:11.140481230
2025-11-07 12:01:07.728792,0,2025-11-07 12:01:11.148173538
2025-11-07 12:01:07.728792,36,2025-11-07 12:01:11.155865846
2025-11-07 12:01:07.728792,6656,2025-11-07 12:01:11.163558154
2025-11-07 12:01:07.728792,0,2025-11-07 12:01:11.171250462
2025-11-07 12:01:07.728792,12,2025-11-07 12:01:11.178942769
2025-11-07 12:01:07.728792,512,2025-11-07 12:01:11.186635077
2025-11-07 12:01:07.728792,0,2025-11-07 12:01:11.194327385
2025-11-07 12:01:07.728792,7,2025-11-07 12:01:11.202019692
2025-11-07 12:01:07.728792,3072,2025-11-07 12:01:11.209712000
2025-11-07 12:01:07.728792,0,2025-11-07 12:01:11.217404308
2025-11-07 12:01:07.728792,12,2025-11-07 12:01:11.225096615
2025-11-07 12:01:07.728792,3072,2025-11-07 12:01:11.232788923
2025-11-07 12:01:07.728792,0,2025-11-07 12:01:11.240481231
2025-11-07 12:01:07.728792,4,2025-11-07 12:01:11.248173538
2025-11-07 12:01:07.728792,-5376,2025-11-07 12:01:11.255865846
2025-11-07 12:01:07.728792,-1,2025-11-07 12:01:11.263558154
2025-11-07 12:01:07.728792,-87,2025-11-07 12:01:11.271250462
2025-11-07 12:01:07.728792,28159,2025-11-07 12:01:11.278942769
2025-11-07 12:01:07.728792,-1,2025-11-07 12:01:11.286635077
2025-11-07 12:01:07.728792,-14,2025-11-07 12:01:11.294327385
2025-11-07 12:01:07.728792,-26369,2025-11-07 12:01:11.302019692
2025-11-07 12:01:07.728792,1,2025-11-07 12:01:11.309712000
2025-11-07 12:01:07.728792,797,2025-11-07 12:01:11.317404308
2025-11-07 12:01:07.728792,-12288,2025-11-07 12:01:11.325096615
2025-11-07 12:01:07.728792,2,2025-11-07 12:01:11.332788923
2025-11-07 12:01:07.728792,292,2025-11-07 12:01:11.340481231
2025-11-07 12:01:07.728792,-4864,2025-11-07 12:01:11.348173538
2025-11-07 12:01:07.728792,-1,2025-11-07 12:01:11.355865846
2025-11-07 12:01:07.728792,-65,2025-11-07 12:01:11.363558154
2025-11-07 12:01:07.728792,-15105,2025-11-07 12:01:11.371250462
2025-11-07 12:01:07.728792,-1,2025-11-07 12:01:11.378942769
2025-11-07 12:01:07.728792,-91,2025-11-07 12:01:11.386635077
2025-11-07 12:01:07.728792,-22017,2025-11-07 12:01:11.394327385
2025-11-07 12:01:07.728792,-1,2025-11-07 12:01:11.402019692
2025-11-07 12:01:07.728792,-72,2025-11-07 12:01:11.409712000
2025-11-07 12:01:07.728792,-19457,2025-11-07 12:01:11.417404308
2025-11-07 12:01:07.728792,-1,2025-11-07 12:01:11.425096615
2025-11-07 12:01:07.728792,-74,2025-11-07 12:01:11.432788923
2025-11-07 12:01:07.728792,-15617,2025-11-07 12:01:11.440481231
2025-11-07 12:01:07.728792,-1,2025-11-07 12:01:11.448173538
2025-11-07 12:01:07.728792,-65,2025-11-07 12:01:11.455865846
2025-11-07 12:01:07.728792,-17665,2025-11-07 12:01:11.463558154
2025-11-07 12:01:07.728792,-1,2025-11-07 12:01:11.471250462
2025-11-07 12:01:07.728792,-67,2025-11-07 12:01:11.478942769
2025-11-07 12:01:07.728792,-15617,2025-11-07 12:01:11.486635077
2025-11-07 12:01:07.728792,-1,2025-11-07 12:01:11.494327385
2025-11-07 12:01:07.728792,-58,2025-11-07 12:01:11.502019692
2025-11-07 12:01:07.728792,-13313,2025-11-07 12:01:11.509712000
2025-11-07 12:01:07.728792,-1,2025-11-07 12:01:11.517404308
2025-11-07 12:01:07.728792,-53,2025-11-07 12:01:11.525096615
2025-11-07 12:01:07.728792,-12545,2025-11-07 12:01:11.532788923
2025-11-07 12:01:07.728792,-1,2025-11-07 12:01:11.540481231
2025-11-07 12:01:07.728792,-45,2025-11-07 12:01:11.548173538
2025-11-07 12:01:07.728792,-11265,2025-11-07 12:01:11.555865846
2025-11-07 12:01:07.728792,-1,2025-11-07 12:01:11.563558154
2025-11-07 12:01:07.728792,-38,2025-11-07 12:01:11.571250462
2025-11-07 12:01:07.728792,-9473,2025-11-07 12:01:11.578942769
2025-11-07 12:01:07.728792,-1,2025-11-07 12:01:11.586635077
2025-11-07 12:01:07.728792,-41,2025-11-07 12:01:11.594327385
2025-11-07 12:01:07.728792,-8193,2025-11-07 12:01:11.602019692
2025-11-07 12:01:07.728792,-1,2025-11-07 12:01:11.609712000
2025-11-07 12:01:07.728792,-21,2025-11-07 12:01:11.617404308
2025-11-07 12:01:07.728792,-5121,2025-11-07 12:01:11.625096615
2025-11-07 12:01:07.728792,-1,2025-11-07 12:01:11.632788923
2025-11-07 12:01:07.728792,-24,2025-11-07 12:01:11.640481231
2025-11-07 12:01:07.728792,-3841,2025-11-07 12:01:11.648173538
2025-11-07 12:01:07.728792,-1,2025-11-07 12:01:11.655865846
2025-11-07 12:01:07.728792,-2,2025-11-07 12:01:11.663558154
2025-11-07 12:01:08.358700,9,2025-11-07 12:01:11.671250462
2025-11-07 12:01:08.358700,3072,2025-11-07 12:01:11.678942769
2025-11-07 12:01:08.358700,0,2025-11-07 12:01:11.686635077
2025-11-07 12:01:08.358700,9,2025-11-07 12:01:11.694327385
2025-11-07 12:01:08.358700,5376,2025-11-07 12:01:11.702019692
2025-11-07 12:01:08.358700,0,2025-11-07 12:01:11.709712000
2025-11-07 12:01:08.358700,33,2025-11-07 12:01:11.717404308
2025-11-07 12:01:08.358700,7424,2025-11-07 12:01:11.725096615
2025-11-07 12:01:08.358700,0,2025-11-07 12:01:11.732788923
2025-11-07 12:01:08.358700,21,2025-11-07 12:01:11.740481231
2025-11-07 12:01:08.358700,5376,2025-11-07 12:01:11.748173538
2025-11-07 12:01:08.358700,0,2025-11-07 12:01:11.755865846
2025-11-07 12:01:08.358700,24,2025-11-07 12:01:11.763558154
2025-11-07 12:01:08.358700,4864,2025-11-07 12:01:11.771250462
2025-11-07 12:01:08.358700,0,2025-11-07 12:01:11.778942769
2025-11-07 12:01:08.358700,14,2025-11-07 12:01:11.786635077
2025-11-07 12:01:08.358700,6656,2025-11-07 12:01:11.794327385
2025-11-07 12:01:08.358700,0,2025-11-07 12:01:11.802019692
2025-11-07 12:01:08.358700,21,2025-11-07 12:01:11.809712000
2025-11-07 12:01:08.358700,1792,2025-11-07 12:01:11.817404308
2025-11-07 12:01:08.358700,0,2025-11-07 12:01:11.825096615
2025-11-07 12:01:08.358700,12,2025-11-07 12:01:11.832788923
2025-11-07 12:01:08.358700,5376,2025-11-07 12:01:11.840481231
2025-11-07 12:01:08.358700,0,2025-11-07 12:01:11.848173538
2025-11-07 12:01:08.358700,12,2025-11-07 12:01:11.855865846
2025-11-07 12:01:08.358700,1792,2025-11-07 12:01:11.863558154
2025-11-07 12:01:08.358700,0,2025-11-07 12:01:11.871250462
2025-11-07 12:01:08.358700,12,2025-11-07 12:01:11.878942769
2025-11-07 12:01:08.358700,3072,2025-11-07 12:01:11.886635077
2025-11-07 12:01:08.358700,0,2025-11-07 12:01:11.894327385
2025-11-07 12:01:08.358700,4,2025-11-07 12:01:11.902019692
2025-11-07 12:01:08.358700,512,2025-11-07 12:01:11.909712000
2025-11-07 12:01:08.358700,0,2025-11-07 12:01:11.917404308
2025-11-07 12:01:08.358700,2,2025-11-07 12:01:11.925096615
2025-11-07 12:01:08.358700,512,2025-11-07 12:01:11.932788923
2025-11-07 12:01:08.358700,0,2025-11-07 12:01:11.940481231
2025-11-07 12:01:08.358700,9,2025-11-07 12:01:11.948173538
2025-11-07 12:01:08.358700,3072,2025-11-07 12:01:11.955865846
2025-11-07 12:01:08.358700,0,2025-11-07 12:01:11.963558154
2025-11-07 12:01:08.358700,12,2025-11-07 12:01:11.971250462
2025-11-07 12:01:08.358700,3072,2025-11-07 12:01:11.978942769
2025-11-07 12:01:08.358700,0,2025-11-07 12:01:11.986635077
2025-11-07 12:01:08.358700,7,2025-11-07 12:01:11.994327385
2025-11-07 12:01:08.358700,1024,2025-11-07 12:01:12.002019692
2025-11-07 12:01:08.358700,0,2025-11-07 12:01:12.009712000
2025-11-07 12:01:08.358700,9,2025-11-07 12:01:12.017404308
2025-11-07 12:01:08.358700,2304,2025-11-07 12:01:12.025096615
2025-11-07 12:01:08.358700,0,2025-11-07 12:01:12.032788923
2025-11-07 12:01:08.358700,7,2025-11-07 12:01:12.040481231
2025-11-07 12:01:08.358700,1792,2025-11-07 12:01:12.048173538
2025-11-07 12:01:08.358700,0,2025-11-07 12:01:12.055865846
2025-11-07 12:01:08.358700,9,2025-11-07 12:01:12.063558154
2025-11-07 12:01:08.358700,3072,2025-11-07 12:01:12.071250462
2025-11-07 12:01:08.358700,0,2025-11-07 12:01:12.078942769
2025-11-07 12:01:08.358700,12,2025-11-07 12:01:12.086635077
2025-11-07 12:01:08.358700,1792,2025-11-07 12:01:12.094327385
2025-11-07 12:01:08.358700,0,2025-11-07 12:01:12.102019692
2025-11-07 12:01:08.358700,4,2025-11-07 12:01:12.109712000
2025-11-07 12:01:08.358700,2304,2025-11-07 12:01:12.117404308
2025-11-07 12:01:08.358700,0,2025-11-07 12:01:12.125096615
2025-11-07 12:01:08.358700,12,2025-11-07 12:01:12.132788923
2025-11-07 12:01:08.358700,512,2025-11-07 12:01:12.140481230
2025-11-07 12:01:08.358700,0,2025-11-07 12:01:12.148173538
2025-11-07 12:01:08.358700,0,2025-11-07 12:01:12.155865846
2025-11-07 12:01:08.358700,1792,2025-11-07 12:01:12.163558154
2025-11-07 12:01:08.358700,0,2025-11-07 12:01:12.171250462
2025-11-07 12:01:08.358700,9,2025-11-07 12:01:12.178942769
2025-11-07 12:01:08.358700,1024,2025-11-07 12:01:12.186635077
2025-11-07 12:01:08.358700,0,2025-11-07 12:01:12.194327385
2025-11-07 12:01:08.358700,4,2025-11-07 12:01:12.202019692
2025-11-07 12:01:08.358700,512,2025-11-07 12:01:12.209712000
2025-11-07 12:01:08.358700,0,2025-11-07 12:01:12.217404308
2025-11-07 12:01:08.358700,-4,2025-11-07 12:01:12.225096615
2025-11-07 12:01:08.358700,-769,2025-11-07 12:01:12.232788923
2025-11-07 12:01:08.358700,-1,2025-11-07 12:01:12.240481231
2025-11-07 12:01:08.358700,9,2025-11-07 12:01:12.248173538
2025-11-07 12:01:08.358700,5376,2025-11-07 12:01:12.255865846
2025-11-07 12:01:08.358700,0,2025-11-07 12:01:12.263558154
2025-11-07 12:01:08.358700,26,2025-11-07 12:01:12.271250462
2025-11-07 12:01:08.358700,7936,2025-11-07 12:01:12.278942769
2025-11-07 12:01:08.358700,0,2025-11-07 12:01:12.286635077
2025-11-07 12:01:08.358700,21,2025-11-07 12:01:12.294327385
2025-11-07 12:01:08.358700,0,2025-11-07 12:01:12.302019692
2025-11-07 12:01:08.358700,0,2025-11-07 12:01:12.309712000
2025-11-07 12:01:08.358700,-12,2025-11-07 12:01:12.317404308
2025-11-07 12:01:08.358700,-257,2025-11-07 12:01:12.325096615
2025-11-07 12:01:08.358700,-1,2025-11-07 12:01:12.332788923
2025-11-07 12:01:08.358700,7,2025-11-07 12:01:12.340481231
2025-11-07 12:01:08.358700,0,2025-11-07 12:01:12.348173538
2025-11-07 12:01:08.358700,0,2025-11-07 12:01:12.355865846
2025-11-07 12:01:08.358700,-4,2025-11-07 12:01:12.363558154
2025-11-07 12:01:08.358700,767,2025-11-07 12:01:12.371250462
2025-11-07 12:01:08.358700,0,2025-11-07 12:01:12.378942769
2025-11-07 12:01:08.358700,-19,2025-11-07 12:01:12.386635077
2025-11-07 12:01:08.358700,-23809,2025-11-07 12:01:12.394327385
2025-11-07 12:01:08.358700,-1,2025-11-07 12:01:12.402019692
2025-11-07 12:01:08.358700,-142,2025-11-07 12:01:12.409712000
2025-11-07 12:01:08.358700,9983,2025-11-07 12:01:12.417404308
2025-11-07 12:01:08.358700,0,2025-11-07 12:01:12.425096615
2025-11-07 12:01:08.358700,497,2025-11-07 12:01:12.432788923
2025-11-07 12:01:08.358700,16128,2025-11-07 12:01:12.440481231
2025-11-07 12:01:08.358700,3,2025-11-07 12:01:12.448173538
2025-11-07 12:01:08.358700,657,2025-11-07 12:01:12.455865846
2025-11-07 12:01:08.358700,-15616,2025-11-07 12:01:12.463558154
2025-11-07 12:01:08.358700,0,2025-11-07 12:01:12.471250462
2025-11-07 12:01:08.358700,-62,2025-11-07 12:01:12.478942769
2025-11-07 12:01:08.358700,-15105,2025-11-07 12:01:12.486635077
2025-11-07 12:01:08.358700,-1,2025-11-07 12:01:12.494327385
2025-11-07 12:01:08.358700,-60,2025-11-07 12:01:12.502019692
2025-11-07 12:01:08.898905,-96,2025-11-07 12:01:12.509712000
2025-11-07 12:01:08.898905,-20737,2025-11-07 12:01:12.517404308
2025-11-07 12:01:08.898905,-1,2025-11-07 12:01:12.525096615
2025-11-07 12:01:08.898905,-60,2025-11-07 12:01:12.532788923
2025-11-07 12:01:08.898905,-16385,2025-11-07 12:01:12.540481231
2025-11-07 12:01:08.898905,-1,2025-11-07 12:01:12.548173538
2025-11-07 12:01:08.898905,-65,2025-11-07 12:01:12.555865846
2025-11-07 12:01:08.898905,-15617,2025-11-07 12:01:12.563558154
2025-11-07 12:01:08.898905,-1,2025-11-07 12:01:12.571250462
2025-11-07 12:01:08.898905,-65,2025-11-07 12:01:12.578942769
2025-11-07 12:01:08.898905,-14593,2025-11-07 12:01:12.586635077
2025-11-07 12:01:08.898905,-1,2025-11-07 12:01:12.594327385
2025-11-07 12:01:08.898905,-45,2025-11-07 12:01:12.602019692
2025-11-07 12:01:08.898905,-9473,2025-11-07 12:01:12.609712000
2025-11-07 12:01:08.898905,-1,2025-11-07 12:01:12.617404308
2025-11-07 12:01:08.898905,-48,2025-11-07 12:01:12.625096615
2025-11-07 12:01:08.898905,-12033,2025-11-07 12:01:12.632788923
2025-11-07 12:01:08.898905,-1,2025-11-07 12:01:12.640481231
2025-11-07 12:01:08.898905,-33,2025-11-07 12:01:12.648173538
2025-11-07 12:01:08.898905,-3329,2025-11-07 12:01:12.655865846
2025-11-07 12:01:08.898905,-1,2025-11-07 12:01:12.663558154
2025-11-07 12:01:08.898905,-12,2025-11-07 12:01:12.671250462
2025-11-07 12:01:08.898905,-4609,2025-11-07 12:01:12.678942769
2025-11-07 12:01:08.898905,-1,2025-11-07 12:01:12.686635077
2025-11-07 12:01:08.898905,-12,2025-11-07 12:01:12.694327385
2025-11-07 12:01:08.898905,-3329,2025-11-07 12:01:12.702019692
2025-11-07 12:01:08.898905,-1,2025-11-07 12:01:12.709712000
2025-11-07 12:01:08.898905,-24,2025-11-07 12:01:12.717404308
2025-11-07 12:01:08.898905,-3841,2025-11-07 12:01:12.725096615
2025-11-07 12:01:08.898905,-1,2025-11-07 12:01:12.732788923
2025-11-07 12:01:08.898905,-9,2025-11-07 12:01:12.740481231
2025-11-07 12:01:08.898905,-1537,2025-11-07 12:01:12.748173538
2025-11-07 12:01:08.898905,-1,2025-11-07 12:01:12.755865846
2025-11-07 12:01:08.898905,2,2025-11-07 12:01:12.763558154
2025-11-07 12:01:08.898905,512,2025-11-07 12:01:12.771250462
2025-11-07 12:01:08.898905,0,2025-11-07 12:01:12.778942769
2025-11-07 12:01:08.898905,4,2025-11-07 12:01:12.786635077
2025-11-07 12:01:08.898905,3584,2025-11-07 12:01:12.794327385
2025-11-07 12:01:08.898905,0,2025-11-07 12:01:12.802019692
2025-11-07 12:01:08.898905,19,2025-11-07 12:01:12.809712000
2025-11-07 12:01:08.898905,5376,2025-11-07 12:01:12.817404308
2025-11-07 12:01:08.898905,0,2025-11-07 12:01:12.825096615
2025-11-07 12:01:08.898905,19,2025-11-07 12:01:12.832788923
2025-11-07 12:01:08.898905,3584,2025-11-07 12:01:12.840481231
2025-11-07 12:01:08.898905,0,2025-11-07 12:01:12.848173538
2025-11-07 12:01:08.898905,7,2025-11-07 12:01:12.855865846
2025-11-07 12:01:08.898905,3072,2025-11-07 12:01:12.863558154
2025-11-07 12:01:08.898905,0,2025-11-07 12:01:12.871250462
2025-11-07 12:01:08.898905,12,2025-11-07 12:01:12.878942769
2025-11-07 12:01:08.898905,512,2025-11-07 12:01:12.886635077
2025-11-07 12:01:08.898905,0,2025-11-07 12:01:12.894327385
2025-11-07 12:01:08.898905,2,2025-11-07 12:01:12.902019692
2025-11-07 12:01:08.898905,2304,2025-11-07 12:01:12.909712000
2025-11-07 12:01:08.898905,0,2025-11-07 12:01:12.917404308
2025-11-07 12:01:08.898905,7,2025-11-07 12:01:12.925096615
2025-11-07 12:01:08.898905,512,2025-11-07 12:01:12.932788923
2025-11-07 12:01:08.898905,0,2025-11-07 12:01:12.940481231
2025-11-07 12:01:08.898905,2,2025-11-07 12:01:12.948173538
2025-11-07 12:01:08.898905,1792,2025-11-07 12:01:12.955865846
2025-11-07 12:01:08.898905,0,2025-11-07 12:01:12.963558154
2025-11-07 12:01:08.898905,4,2025-11-07 12:01:12.971250462
2025-11-07 12:01:08.898905,-1024,2025-11-07 12:01:12.978942769
2025-11-07 12:01:08.898905,-1,2025-11-07 12:01:12.986635077
2025-11-07 12:01:08.898905,-4,2025-11-07 12:01:12.994327385
2025-11-07 12:01:08.898905,-257,2025-11-07 12:01:13.002019692
2025-11-07 12:01:08.898905,-1,2025-11-07 12:01:13.009712000
2025-11-07 12:01:08.898905,-7,2025-11-07 12:01:13.017404308
2025-11-07 12:01:08.898905,-2049,2025-11-07 12:01:13.025096615
2025-11-07 12:01:08.898905,-1,2025-11-07 12:01:13.032788923
2025-11-07 12:01:08.898905,-9,2025-11-07 12:01:13.040481231
2025-11-07 12:01:08.898905,-769,2025-11-07 12:01:13.048173538
2025-11-07 12:01:08.898905,-1,2025-11-07 12:01:13.055865846
2025-11-07 12:01:08.898905,-4,2025-11-07 12:01:13.063558154
2025-11-07 12:01:08.898905,-2817,2025-11-07 12:01:13.071250462
2025-11-07 12:01:08.898905,-1,2025-11-07 12:01:13.078942769
2025-11-07 12:01:08.898905,-4,2025-11-07 12:01:13.086635077
2025-11-07 12:01:08.898905,1279,2025-11-07 12:01:13.094327385
2025-11-07 12:01:08.898905,0,2025-11-07 12:01:13.102019692
2025-11-07 12:01:08.898905,2,2025-11-07 12:01:13.109712000
2025-11-07 12:01:08.898905,-512,2025-11-07 12:01:13.117404308
2025-11-07 12:01:08.898905,-1,2025-11-07 12:01:13.125096615
2025-11-07 12:01:08.898905,0,2025-11-07 12:01:13.132788923
2025-11-07 12:01:08.898905,512,2025-11-07 12:01:13.140481230
2025-11-07 12:01:08.898905,0,2025-11-07 12:01:13.148173538
2025-11-07 12:01:08.898905,2,2025-11-07 12:01:13.155865846
2025-11-07 12:01:08.898905,0,2025-11-07 12:01:13.163558154
2025-11-07 12:01:08.898905,0,2025-11-07 12:01:13.171250462
2025-11-07 12:01:08.898905,-2,2025-11-07 12:01:13.178942769
2025-11-07 12:01:08.898905,-769,2025-11-07 12:01:13.186635077
2025-11-07 12:01:08.898905,-1,2025-11-07 12:01:13.194327385
2025-11-07 12:01:08.898905,-2,2025-11-07 12:01:13.202019692
2025-11-07 12:01:08.898905,767,2025-11-07 12:01:13.209712000
2025-11-07 12:01:08.898905,0,2025-11-07 12:01:13.217404308
2025-11-07 12:01:08.898905,0,2025-11-07 12:01:13.225096615
2025-11-07 12:01:08.898905,512,2025-11-07 12:01:13.232788923
2025-11-07 12:01:08.898905,0,2025-11-07 12:01:13.240481231
2025-11-07 12:01:08.898905,9,2025-11-07 12:01:13.248173538
2025-11-07 12:01:08.898905,1792,2025-11-07 12:01:13.255865846
2025-11-07 12:01:08.898905,0,2025-11-07 12:01:13.263558154
2025-11-07 12:01:08.898905,4,2025-11-07 12:01:13.271250462
2025-11-07 12:01:08.898905,3072,2025-11-07 12:01:13.278942769
2025-11-07 12:01:08.898905,0,2025-11-07 12:01:13.286635077
2025-11-07 12:01:08.898905,19,2025-11-07 12:01:13.294327385
2025-11-07 12:01:08.898905,3584,2025-11-07 12:01:13.302019692
2025-11-07 12:01:08.898905,0,2025-11-07 12:01:13.309712000
2025-11-07 12:01:08.898905,7,2025-11-07 12:01:13.317404308
2025-11-07 12:01:08.898905,2304,2025-11-07 12:01:13.325096615
2025-11-07 12:01:08.898905,0,2025-11-07 12:01:13.332788923
2025-11-07 12:01:08.898905,4,2025-11-07 12:01:13.340481231
2025-11-07 12:01:09.438905,0,2025-11-07 12:01:13.348173538
2025-11-07 12:01:09.438905,3072,2025-11-07 12:01:13.355865846
2025-11-07 12:01:09.438905,0,2025-11-07 12:01:13.363558154
2025-11-07 12:01:09.438905,21,2025-11-07 12:01:13.371250462
2025-11-07 12:01:09.438905,5376,2025-11-07 12:01:13.378942769
2025-11-07 12:01:09.438905,0,2025-11-07 12:01:13.386635077
2025-11-07 12:01:09.438905,29,2025-11-07 12:01:13.394327385
2025-11-07 12:01:09.438905,7936,2025-11-07 12:01:13.402019692
2025-11-07 12:01:09.438905,0,2025-11-07 12:01:13.409712000
2025-11-07 12:01:09.438905,24,2025-11-07 12:01:13.417404308
2025-11-07 12:01:09.438905,1024,2025-11-07 12:01:13.425096615
2025-11-07 12:01:09.438905,0,2025-11-07 12:01:13.432788923
2025-11-07 12:01:09.438905,0,2025-11-07 12:01:13.440481231
2025-11-07 12:01:09.438905,3584,2025-11-07 12:01:13.448173538
2025-11-07 12:01:09.438905,0,2025-11-07 12:01:13.455865846
2025-11-07 12:01:09.438905,31,2025-11-07 12:01:13.463558154
2025-11-07 12:01:09.438905,9728,2025-11-07 12:01:13.471250462
2025-11-07 12:01:09.438905,0,2025-11-07 12:01:13.478942769
2025-11-07 12:01:09.438905,26,2025-11-07 12:01:13.486635077
2025-11-07 12:01:09.438905,0,2025-11-07 12:01:13.494327385
2025-11-07 12:01:09.438905,0,2025-11-07 12:01:13.502019692
2025-11-07 12:01:09.438905,-60,2025-11-07 12:01:13.509712000
2025-11-07 12:01:09.438905,-29953,2025-11-07 12:01:13.517404308
2025-11-07 12:01:09.438905,-1,2025-11-07 12:01:13.525096615
2025-11-07 12:01:09.438905,7,2025-11-07 12:01:13.532788923
2025-11-07 12:01:09.438905,-23552,2025-11-07 12:01:13.540481231
2025-11-07 12:01:09.438905,1,2025-11-07 12:01:13.548173538
2025-11-07 12:01:09.438905,816,2025-11-07 12:01:13.555865846
2025-11-07 12:01:09.438905,-1280,2025-11-07 12:01:13.563558154
2025-11-07 12:01:09.438905,2,2025-11-07 12:01:13.571250462
2025-11-07 12:01:09.438905,323,2025-11-07 12:01:13.578942769
2025-11-07 12:01:09.438905,-1792,2025-11-07 12:01:13.586635077
2025-11-07 12:01:09.438905,-1,2025-11-07 12:01:13.594327385
2025-11-07 12:01:09.438905,-45,2025-11-07 12:01:13.602019692
2025-11-07 12:01:09.438905,-9473,2025-11-07 12:01:13.609712000
2025-11-07 12:01:09.438905,-1,2025-11-07 12:01:13.617404308
2025-11-07 12:01:09.438905,-74,2025-11-07 12:01:13.625096615
2025-11-07 12:01:09.438905,-16897,2025-11-07 12:01:13.632788923
2025-11-07 12:01:09.438905,-1,2025-11-07 12:01:13.640481231
2025-11-07 12:01:09.438905,-53,2025-11-07 12:01:13.648173538
2025-11-07 12:01:09.438905,-15617,2025-11-07 12:01:13.655865846
2025-11-07 12:01:09.438905,-1,2025-11-07 12:01:13.663558154
2025-11-07 12:01:09.438905,-67,2025-11-07 12:01:13.671250462
2025-11-07 12:01:09.438905,-13313,2025-11-07 12:01:13.678942769
2025-11-07 12:01:09.438905,-1,2025-11-07 12:01:13.686635077
2025-11-07 12:01:09.438905,-50,2025-11-07 12:01:13.694327385
2025-11-07 12:01:09.438905,-13825,2025-11-07 12:01:13.702019692
2025-11-07 12:01:09.438905,-1,2025-11-07 12:01:13.709712000
2025-11-07 12:01:09.438905,-48,2025-11-07 12:01:13.717404308
2025-11-07 12:01:09.438905,-11265,2025-11-07 12:01:13.725096615
2025-11-07 12:01:09.438905,-1,2025-11-07 12:01:13.732788923
2025-11-07 12:01:09.438905,-53,2025-11-07 12:01:13.740481231
2025-11-07 12:01:09.438905,-13313,2025-11-07 12:01:13.748173538
2025-11-07 12:01:09.438905,-1,2025-11-07 12:01:13.755865846
2025-11-07 12:01:09.438905,-43,2025-11-07 12:01:13.763558154
2025-11-07 12:01:09.438905,-10753,2025-11-07 12:01:13.771250462
2025-11-07 12:01:09.438905,-1,2025-11-07 12:01:13.778942769
2025-11-07 12:01:09.438905,-43,2025-11-07 12:01:13.786635077
2025-11-07 12:01:09.438905,-9473,2025-11-07 12:01:13.794327385
2025-11-07 12:01:09.438905,-1,2025-11-07 12:01:13.802019692
2025-11-07 12:01:09.438905,-38,2025-11-07 12:01:13.809712000
2025-11-07 12:01:09.438905,-9473,2025-11-07 12:01:13.817404308
2025-11-07 12:01:09.438905,-1,2025-11-07 12:01:13.825096615
2025-11-07 12:01:09.438905,-31,2025-11-07 12:01:13.832788923
2025-11-07 12:01:09.438905,-7681,2025-11-07 12:01:13.840481231
2025-11-07 12:01:09.438905,-1,2025-11-07 12:01:13.848173538
2025-11-07 12:01:09.438905,-31,2025-11-07 12:01:13.855865846
2025-11-07 12:01:09.438905,-4609,2025-11-07 12:01:13.863558154
2025-11-07 12:01:09.438905,-1,2025-11-07 12:01:13.871250462
2025-11-07 12:01:09.438905,-16,2025-11-07 12:01:13.878942769
2025-11-07 12:01:09.438905,-4609,2025-11-07 12:01:13.886635077
2025-11-07 12:01:09.438905,-1,2025-11-07 12:01:13.894327385
2025-11-07 12:01:09.438905,-9,2025-11-07 12:01:13.902019692
2025-11-07 12:01:09.438905,767,2025-11-07 12:01:13.909712000
2025-11-07 12:01:09.438905,0,2025-11-07 12:01:13.917404308
2025-11-07 12:01:09.438905,7,2025-11-07 12:01:13.925096615
2025-11-07 12:01:09.438905,1792,2025-11-07 12:01:13.932788923
2025-11-07 12:01:09.438905,0,2025-11-07 12:01:13.940481231
2025-11-07 12:01:09.438905,2,2025-11-07 12:01:13.948173538
2025-11-07 12:01:09.438905,0,2025-11-07 12:01:13.955865846
2025-11-07 12:01:09.438905,0,2025-11-07 12:01:13.963558154
2025-11-07 12:01:09.438905,-2,2025-11-07 12:01:13.971250462
2025-11-07 12:01:09.438905,-769,2025-11-07 12:01:13.978942769
2025-11-07 12:01:09.438905,-1,2025-11-07 12:01:13.986635077
2025-11-07 12:01:09.438905,-4,2025-11-07 12:01:13.994327385
2025-11-07 12:01:09.438905,-1537,2025-11-07 12:01:14.002019692
2025-11-07 12:01:09.438905,-1,2025-11-07 12:01:14.009712000
2025-11-07 12:01:09.438905,-2,2025-11-07 12:01:14.017404308
2025-11-07 12:01:09.438905,2047,2025-11-07 12:01:14.025096615
2025-11-07 12:01:09.438905,0,2025-11-07 12:01:14.032788923
2025-11-07 12:01:09.438905,9,2025-11-07 12:01:14.040481231
2025-11-07 12:01:09.438905,-512,2025-11-07 12:01:14.048173538
2025-11-07 12:01:09.438905,-1,2025-11-07 12:01:14.055865846
2025-11-07 12:01:09.438905,-9,2025-11-07 12:01:14.063558154
2025-11-07 12:01:09.438905,-769,2025-11-07 12:01:14.071250462
2025-11-07 12:01:09.438905,-1,2025-11-07 12:01:14.078942769
2025-11-07 12:01:09.438905,-7,2025-11-07 12:01:14.086635077
2025-11-07 12:01:09.438905,-2049,2025-11-07 12:01:14.094327385
2025-11-07 12:01:09.438905,-1,2025-11-07 12:01:14.102019692
2025-11-07 12:01:09.438905,-2,2025-11-07 12:01:14.109712000
2025-11-07 12:01:09.438905,-257,2025-11-07 12:01:14.117404308
2025-11-07 12:01:09.438905,-1,2025-11-07 12:01:14.125096615
2025-11-07 12:01:09.438905,-4,2025-11-07 12:01:14.132788923
2025-11-07 12:01:09.438905,-1537,2025-11-07 12:01:14.140481230
2025-11-07 12:01:09.438905,-1,2025-11-07 12:01:14.148173538
2025-11-07 12:01:09.438905,-12,2025-11-07 12:01:14.155865846
2025-11-07 12:01:09.438905,-3329,2025-11-07 12:01:14.163558154
2025-11-07 12:01:09.438905,-1,2025-11-07 12:01:14.171250462
2025-11-07 12:01:09.438905,-12,2025-11-07 12:01:14.178942769
2025-11-07 12:01:10.008934,-7,2025-11-07 12:01:14.186635077
2025-11-07 12:01:10.008934,-1537,2025-11-07 12:01:14.194327385
2025-11-07 12:01:10.008934,-1,2025-11-07 12:01:14.202019692
2025-11-07 12:01:10.008934,-12,2025-11-07 12:01:14.209712000
2025-11-07 12:01:10.008934,-2817,2025-11-07 12:01:14.217404308
2025-11-07 12:01:10.008934,-1,2025-11-07 12:01:14.225096615
2025-11-07 12:01:10.008934,-12,2025-11-07 12:01:14.232788923
2025-11-07 12:01:10.008934,-2817,2025-11-07 12:01:14.240481231
2025-11-07 12:01:10.008934,-1,2025-11-07 12:01:14.248173538
2025-11-07 12:01:10.008934,-2,2025-11-07 12:01:14.255865846
2025-11-07 12:01:10.008934,4351,2025-11-07 12:01:14.263558154
2025-11-07 12:01:10.008934,0,2025-11-07 12:01:14.271250462
2025-11-07 12:01:10.008934,29,2025-11-07 12:01:14.278942769
2025-11-07 12:01:10.008934,5376,2025-11-07 12:01:14.286635077
2025-11-07 12:01:10.008934,0,2025-11-07 12:01:14.294327385
2025-11-07 12:01:10.008934,14,2025-11-07 12:01:14.302019692
2025-11-07 12:01:10.008934,5376,2025-11-07 12:01:14.309712000
2025-11-07 12:01:10.008934,0,2025-11-07 12:01:14.317404308
2025-11-07 12:01:10.008934,26,2025-11-07 12:01:14.325096615
2025-11-07 12:01:10.008934,5376,2025-11-07 12:01:14.332788923
2025-11-07 12:01:10.008934,0,2025-11-07 12:01:14.340481231
2025-11-07 12:01:10.008934,16,2025-11-07 12:01:14.348173538
2025-11-07 12:01:10.008934,4096,2025-11-07 12:01:14.355865846
2025-11-07 12:01:10.008934,0,2025-11-07 12:01:14.363558154
2025-11-07 12:01:10.008934,16,2025-11-07 12:01:14.371250462
2025-11-07 12:01:10.008934,4096,2025-11-07 12:01:14.378942769
2025-11-07 12:01:10.008934,0,2025-11-07 12:01:14.386635077
2025-11-07 12:01:10.008934,19,2025-11-07 12:01:14.394327385
2025-11-07 12:01:10.008934,5376,2025-11-07 12:01:14.402019692
2025-11-07 12:01:10.008934,0,2025-11-07 12:01:14.409712000
2025-11-07 12:01:10.008934,16,2025-11-07 12:01:14.417404308
2025-11-07 12:01:10.008934,3072,2025-11-07 12:01:14.425096615
2025-11-07 12:01:10.008934,0,2025-11-07 12:01:14.432788923
2025-11-07 12:01:10.008934,7,2025-11-07 12:01:14.440481231
2025-11-07 12:01:10.008934,3072,2025-11-07 12:01:14.448173538
2025-11-07 12:01:10.008934,0,2025-11-07 12:01:14.455865846
2025-11-07 12:01:10.008934,29,2025-11-07 12:01:14.463558154
2025-11-07 12:01:10.008934,7424,2025-11-07 12:01:14.471250462
2025-11-07 12:01:10.008934,0,2025-11-07 12:01:14.478942769
2025-11-07 12:01:10.008934,29,2025-11-07 12:01:14.486635077
2025-11-07 12:01:10.008934,9216,2025-11-07 12:01:14.494327385
2025-11-07 12:01:10.008934,0,2025-11-07 12:01:14.502019692
2025-11-07 12:01:10.008934,29,2025-11-07 12:01:14.509712000
2025-11-07 12:01:10.008934,3584,2025-11-07 12:01:14.517404308
2025-11-07 12:01:10.008934,0,2025-11-07 12:01:14.525096615
2025-11-07 12:01:10.008934,4,2025-11-07 12:01:14.532788923
2025-11-07 12:01:10.008934,1024,2025-11-07 12:01:14.540481231
2025-11-07 12:01:10.008934,0,2025-11-07 12:01:14.548173538
2025-11-07 12:01:10.008934,16,2025-11-07 12:01:14.555865846
2025-11-07 12:01:10.008934,3584,2025-11-07 12:01:14.563558154
2025-11-07 12:01:10.008934,0,2025-11-07 12:01:14.571250462
2025-11-07 12:01:10.008934,12,2025-11-07 12:01:14.578942769
2025-11-07 12:01:10.008934,4096,2025-11-07 12:01:14.586635077
2025-11-07 12:01:10.008934,0,2025-11-07 12:01:14.594327385
2025-11-07 12:01:10.008934,-12,2025-11-07 12:01:14.602019692
2025-11-07 12:01:10.008934,-23809,2025-11-07 12:01:14.609712000
2025-11-07 12:01:10.008934,-1,2025-11-07 12:01:14.617404308
2025-11-07 12:01:10.008934,-132,2025-11-07 12:01:14.625096615
2025-11-07 12:01:10.008934,20479,2025-11-07 12:01:14.632788923
2025-11-07 12:01:10.008934,0,2025-11-07 12:01:14.640481231
2025-11-07 12:01:10.008934,536,2025-11-07 12:01:14.648173538
2025-11-07 12:01:10.008934,16640,2025-11-07 12:01:14.655865846
2025-11-07 12:01:10.008934,3,2025-11-07 12:01:14.663558154
2025-11-07 12:01:10.008934,647,2025-11-07 12:01:14.671250462
2025-11-07 12:01:10.008934,-14848,2025-11-07 12:01:14.678942769
2025-11-07 12:01:10.008934,0,2025-11-07 12:01:14.686635077
2025-11-07 12:01:10.008934,-53,2025-11-07 12:01:14.694327385
2025-11-07 12:01:10.008934,-12545,2025-11-07 12:01:14.702019692
2025-11-07 12:01:10.008934,-1,2025-11-07 12:01:14.709712000
2025-11-07 12:01:10.008934,-50,2025-11-07 12:01:14.717404308
2025-11-07 12:01:10.008934,-21249,2025-11-07 12:01:14.725096615
2025-11-07 12:01:10.008934,-1,2025-11-07 12:01:14.732788923
2025-11-07 12:01:10.008934,-72,2025-11-07 12:01:14.740481231
2025-11-07 12:01:10.008934,-15617,2025-11-07 12:01:14.748173538
2025-11-07 12:01:10.008934,-1,2025-11-07 12:01:14.755865846
2025-11-07 12:01:10.008934,-77,2025-11-07 12:01:14.763558154
2025-11-07 12:01:10.008934,-16897,2025-11-07 12:01:14.771250462
2025-11-07 12:01:10.008934,-1,2025-11-07 12:01:14.778942769
2025-11-07 12:01:10.008934,-48,2025-11-07 12:01:14.786635077
2025-11-07 12:01:10.008934,-13313,2025-11-07 12:01:14.794327385
2025-11-07 12:01:10.008934,-1,2025-11-07 12:01:14.802019692
2025-11-07 12:01:10.008934,-65,2025-11-07 12:01:14.809712000
2025-11-07 12:01:10.008934,-14593,2025-11-07 12:01:14.817404308
2025-11-07 12:01:10.008934,-1,2025-11-07 12:01:14.825096615
2025-11-07 12:01:10.008934,-48,2025-11-07 12:01:14.832788923
2025-11-07 12:01:10.008934,-12033,2025-11-07 12:01:14.840481231
2025-11-07 12:01:10.008934,-1,2025-11-07 12:01:14.848173538
2025-11-07 12:01:10.008934,-43,2025-11-07 12:01:14.855865846
2025-11-07 12:01:10.008934,-10241,2025-11-07 12:01:14.863558154
2025-11-07 12:01:10.008934,-1,2025-11-07 12:01:14.871250462
2025-11-07 12:01:10.008934,-43,2025-11-07 12:01:14.878942769
2025-11-07 12:01:10.008934,-10753,2025-11-07 12:01:14.886635077
2025-11-07 12:01:10.008934,-1,2025-11-07 12:01:14.894327385
2025-11-07 12:01:10.008934,-43,2025-11-07 12:01:14.902019692
2025-11-07 12:01:10.008934,-9473,2025-11-07 12:01:14.909712000
2025-11-07 12:01:10.008934,-1,2025-11-07 12:01:14.917404308
2025-11-07 12:01:10.008934,-29,2025-11-07 12:01:14.925096615
2025-11-07 12:01:10.008934,-4609,2025-11-07 12:01:14.932788923
2025-11-07 12:01:10.008934,-1,2025-11-07 12:01:14.940481231
2025-11-07 12:01:10.008934,-21,2025-11-07 12:01:14.948173538
2025-11-07 12:01:10.008934,-8961,2025-11-07 12:01:14.955865846
2025-11-07 12:01:10.008934,-1,2025-11-07 12:01:14.963558154
2025-11-07 12:01:10.008934,-41,2025-11-07 12:01:14.971250462
2025-11-07 12:01:10.008934,-5889,2025-11-07 12:01:14.978942769
2025-11-07 12:01:10.008934,-1,2025-11-07 12:01:14.986635077
2025-11-07 12:01:10.008934,-14,2025-11-07 12:01:14.994327385
2025-11-07 12:01:10.008934,-2817,2025-11-07 12:01:15.002019692
2025-11-07 12:01:10.008934,-1,2025-11-07 12:01:15.009712000
2025-11-07 12:01:10.008934,-2,2025-11-07 12:01:15.017404308
2025-11-07 12:01:10.549464,14,2025-11-07 12:01:15.025096615
2025-11-07 12:01:10.549464,4864,2025-11-07 12:01:15.032788923
2025-11-07 12:01:10.549464,0,2025-11-07 12:01:15.040481231
2025-11-07 12:01:10.549464,4,2025-11-07 12:01:15.048173538
2025-11-07 12:01:10.549464,-512,2025-11-07 12:01:15.055865846
2025-11-07 12:01:10.549464,-1,2025-11-07 12:01:15.063558154
2025-11-07 12:01:10.549464,2,2025-11-07 12:01:15.071250462
2025-11-07 12:01:10.549464,-512,2025-11-07 12:01:15.078942769
2025-11-07 12:01:10.549464,-1,2025-11-07 12:01:15.086635077
2025-11-07 12:01:10.549464,-9,2025-11-07 12:01:15.094327385
2025-11-07 12:01:10.549464,-257,2025-11-07 12:01:15.102019692
2025-11-07 12:01:10.549464,-1,2025-11-07 12:01:15.109712000
2025-11-07 12:01:10.549464,14,2025-11-07 12:01:15.117404308
2025-11-07 12:01:10.549464,4864,2025-11-07 12:01:15.125096615
2025-11-07 12:01:10.549464,0,2025-11-07 12:01:15.132788923
2025-11-07 12:01:10.549464,16,2025-11-07 12:01:15.140481230
2025-11-07 12:01:10.549464,5376,2025-11-07 12:01:15.148173538
2025-11-07 12:01:10.549464,0,2025-11-07 12:01:15.155865846
2025-11-07 12:01:10.549464,21,2025-11-07 12:01:15.163558154
2025-11-07 12:01:10.549464,3072,2025-11-07 12:01:15.171250462
2025-11-07 12:01:10.549464,0,2025-11-07 12:01:15.178942769
2025-11-07 12:01:10.549464,2,2025-11-07 12:01:15.186635077
2025-11-07 12:01:10.549464,1792,2025-11-07 12:01:15.194327385
2025-11-07 12:01:10.549464,0,2025-11-07 12:01:15.202019692
2025-11-07 12:01:10.549464,12,2025-11-07 12:01:15.209712000
2025-11-07 12:01:10.549464,1792,2025-11-07 12:01:15.217404308
2025-11-07 12:01:10.549464,0,2025-11-07 12:01:15.225096615
2025-11-07 12:01:10.549464,7,2025-11-07 12:01:15.232788923
2025-11-07 12:01:10.549464,0,2025-11-07 12:01:15.240481231
2025-11-07 12:01:10.549464,0,2025-11-07 12:01:15.248173538
2025-11-07 12:01:10.549464,-9,2025-11-07 12:01:15.255865846
2025-11-07 12:01:10.549464,767,2025-11-07 12:01:15.263558154
2025-11-07 12:01:10.549464,0,2025-11-07 12:01:15.271250462
2025-11-07 12:01:10.549464,7,2025-11-07 12:01:15.278942769
2025-11-07 12:01:10.549464,-1024,2025-11-07 12:01:15.286635077
2025-11-07 12:01:10.549464,-1,2025-11-07 12:01:15.294327385
2025-11-07 12:01:10.549464,-4,2025-11-07 12:01:15.302019692
2025-11-07 12:01:10.549464,767,2025-11-07 12:01:15.309712000
2025-11-07 12:01:10.549464,0,2025-11-07 12:01:15.317404308
2025-11-07 12:01:10.549464,2,2025-11-07 12:01:15.325096615
2025-11-07 12:01:10.549464,-512,2025-11-07 12:01:15.332788923
2025-11-07 12:01:10.549464,-1,2025-11-07 12:01:15.340481231
2025-11-07 12:01:10.549464,-2,2025-11-07 12:01:15.348173538
2025-11-07 12:01:10.549464,767,2025-11-07 12:01:15.355865846
2025-11-07 12:01:10.549464,0,2025-11-07 12:01:15.363558154
2025-11-07 12:01:10.549464,2,2025-11-07 12:01:15.371250462
2025-11-07 12:01:10.549464,512,2025-11-07 12:01:15.378942769
2025-11-07 12:01:10.549464,0,2025-11-07 12:01:15.386635077
2025-11-07 12:01:10.549464,0,2025-11-07 12:01:15.394327385
2025-11-07 12:01:10.549464,-1024,2025-11-07 12:01:15.402019692
2025-11-07 12:01:10.549464,-1,2025-11-07 12:01:15.409712000
2025-11-07 12:01:10.549464,0,2025-11-07 12:01:15.417404308
2025-11-07 12:01:10.549464,1024,2025-11-07 12:01:15.425096615
2025-11-07 12:01:10.549464,0,2025-11-07 12:01:15.432788923
2025-11-07 12:01:10.549464,4,2025-11-07 12:01:15.440481231
2025-11-07 12:01:10.549464,1024,2025-11-07 12:01:15.448173538
2025-11-07 12:01:10.549464,0,2025-11-07 12:01:15.455865846
2025-11-07 12:01:10.549464,2,2025-11-07 12:01:15.463558154
2025-11-07 12:01:10.549464,0,2025-11-07 12:01:15.471250462
2025-11-07 12:01:10.549464,0,2025-11-07 12:01:15.478942769
2025-11-07 12:01:10.549464,4,2025-11-07 12:01:15.486635077
2025-11-07 12:01:10.549464,0,2025-11-07 12:01:15.494327385
2025-11-07 12:01:10.549464,0,2025-11-07 12:01:15.502019692
2025-11-07 12:01:10.549464,-9,2025-11-07 12:01:15.509712000
2025-11-07 12:01:10.549464,-2817,2025-11-07 12:01:15.517404308
2025-11-07 12:01:10.549464,-1,2025-11-07 12:01:15.525096615
2025-11-07 12:01:10.549464,7,2025-11-07 12:01:15.532788923
2025-11-07 12:01:10.549464,6656,2025-11-07 12:01:15.540481231
2025-11-07 12:01:10.549464,0,2025-11-07 12:01:15.548173538
2025-11-07 12:01:10.549464,26,2025-11-07 12:01:15.555865846
2025-11-07 12:01:10.549464,8448,2025-11-07 12:01:15.563558154
2025-11-07 12:01:10.549464,0,2025-11-07 12:01:15.571250462
2025-11-07 12:01:10.549464,41,2025-11-07 12:01:15.578942769
2025-11-07 12:01:10.549464,6656,2025-11-07 12:01:15.586635077
2025-11-07 12:01:10.549464,0,2025-11-07 12:01:15.594327385
2025-11-07 12:01:10.549464,7,2025-11-07 12:01:15.602019692
2025-11-07 12:01:10.549464,512,2025-11-07 12:01:15.609712000
2025-11-07 12:01:10.549464,0,2025-11-07 12:01:15.617404308
2025-11-07 12:01:10.549464,12,2025-11-07 12:01:15.625096615
2025-11-07 12:01:10.549464,1792,2025-11-07 12:01:15.632788923
2025-11-07 12:01:10.549464,0,2025-11-07 12:01:15.640481231
2025-11-07 12:01:10.549464,-2,2025-11-07 12:01:15.648173538
2025-11-07 12:01:10.549464,767,2025-11-07 12:01:15.655865846
2025-11-07 12:01:10.549464,0,2025-11-07 12:01:15.663558154
2025-11-07 12:01:10.549464,2,2025-11-07 12:01:15.671250462
2025-11-07 12:01:10.549464,-9216,2025-11-07 12:01:15.678942769
2025-11-07 12:01:10.549464,-1,2025-11-07 12:01:15.686635077
2025-11-07 12:01:10.549464,-111,2025-11-07 12:01:15.694327385
2025-11-07 12:01:10.549464,-27393,2025-11-07 12:01:15.702019692
2025-11-07 12:01:10.549464,-1,2025-11-07 12:01:15.709712000
2025-11-07 12:01:10.549464,157,2025-11-07 12:01:15.717404308
2025-11-07 12:01:10.549464,26624,2025-11-07 12:01:15.725096615
2025-11-07 12:01:10.549464,2,2025-11-07 12:01:15.732788923
2025-11-07 12:01:10.549464,826,2025-11-07 12:01:15.740481231
2025-11-07 12:01:10.549464,9984,2025-11-07 12:01:15.748173538
2025-11-07 12:01:10.549464,2,2025-11-07 12:01:15.755865846
2025-11-07 12:01:10.549464,118,2025-11-07 12:01:15.763558154
2025-11-07 12:01:10.549464,-16640,2025-11-07 12:01:15.771250462
2025-11-07 12:01:10.549464,-1,2025-11-07 12:01:15.778942769
2025-11-07 12:01:10.549464,-48,2025-11-07 12:01:15.786635077
2025-11-07 12:01:10.549464,-15105,2025-11-07 12:01:15.794327385
2025-11-07 12:01:10.549464,-1,2025-11-07 12:01:15.802019692
2025-11-07 12:01:10.549464,-87,2025-11-07 12:01:15.809712000
2025-11-07 12:01:10.549464,-17665,2025-11-07 12:01:15.817404308
2025-11-07 12:01:10.549464,-1,2025-11-07 12:01:15.825096615
2025-11-07 12:01:10.549464,-62,2025-11-07 12:01:15.832788923
2025-11-07 12:01:10.549464,-17665,2025-11-07 12:01:15.840481231
2025-11-07 12:01:10.549464,-1,2025-11-07 12:01:15.848173538
2025-11-07 12:01:10.549464,-70,2025-11-07 12:01:15.855865846
2025-11-07 12:01:11.088782,-67,2025-11-07 12:01:15.863558154
2025-11-07 12:01:11.088782,-16385,2025-11-07 12:01:15.871250462
2025-11-07 12:01:11.088782,-1,2025-11-07 12:01:15.878942769
2025-11-07 12:01:11.088782,-55,2025-11-07 12:01:15.886635077
2025-11-07 12:01:11.088782,-11265,2025-11-07 12:01:15.894327385
2025-11-07 12:01:11.088782,-1,2025-11-07 12:01:15.902019692
2025-11-07 12:01:11.088782,-53,2025-11-07 12:01:15.909712000
2025-11-07 12:01:11.088782,-12033,2025-11-07 12:01:15.917404308
2025-11-07 12:01:11.088782,-1,2025-11-07 12:01:15.925096615
2025-11-07 12:01:11.088782,-19,2025-11-07 12:01:15.932788923
2025-11-07 12:01:11.088782,-1537,2025-11-07 12:01:15.940481231
2025-11-07 12:01:11.088782,-1,2025-11-07 12:01:15.948173538
2025-11-07 12:01:11.088782,-16,2025-11-07 12:01:15.955865846
2025-11-07 12:01:11.088782,-3841,2025-11-07 12:01:15.963558154
2025-11-07 12:01:11.088782,-1,2025-11-07 12:01:15.971250462
2025-11-07 12:01:11.088782,-14,2025-11-07 12:01:15.978942769
2025-11-07 12:01:11.088782,-4609,2025-11-07 12:01:15.986635077
2025-11-07 12:01:11.088782,-1,2025-11-07 12:01:15.994327385
2025-11-07 12:01:11.088782,-19,2025-11-07 12:01:16.002019692
2025-11-07 12:01:11.088782,-2049,2025-11-07 12:01:16.009712000
2025-11-07 12:01:11.088782,-1,2025-11-07 12:01:16.017404308
2025-11-07 12:01:11.088782,-9,2025-11-07 12:01:16.025096615
2025-11-07 12:01:11.088782,-2817,2025-11-07 12:01:16.032788923
2025-11-07 12:01:11.088782,-1,2025-11-07 12:01:16.040481231
2025-11-07 12:01:11.088782,-2,2025-11-07 12:01:16.048173538
2025-11-07 12:01:11.088782,2047,2025-11-07 12:01:16.055865846
2025-11-07 12:01:11.088782,0,2025-11-07 12:01:16.063558154
2025-11-07 12:01:11.088782,9,2025-11-07 12:01:16.071250462
2025-11-07 12:01:11.088782,3584,2025-11-07 12:01:16.078942769
2025-11-07 12:01:11.088782,0,2025-11-07 12:01:16.086635077
2025-11-07 12:01:11.088782,12,2025-11-07 12:01:16.094327385
2025-11-07 12:01:11.088782,3584,2025-11-07 12:01:16.102019692
2025-11-07 12:01:11.088782,0,2025-11-07 12:01:16.109712000
2025-11-07 12:01:11.088782,16,2025-11-07 12:01:16.117404308
2025-11-07 12:01:11.088782,3584,2025-11-07 12:01:16.125096615
2025-11-07 12:01:11.088782,0,2025-11-07 12:01:16.132788923
2025-11-07 12:01:11.088782,4,2025-11-07 12:01:16.140481230
2025-11-07 12:01:11.088782,0,2025-11-07 12:01:16.148173538
2025-11-07 12:01:11.088782,0,2025-11-07 12:01:16.155865846
2025-11-07 12:01:11.088782,0,2025-11-07 12:01:16.163558154
2025-11-07 12:01:11.088782,1024,2025-11-07 12:01:16.171250462
2025-11-07 12:01:11.088782,0,2025-11-07 12:01:16.178942769
2025-11-07 12:01:11.088782,9,2025-11-07 12:01:16.186635077
2025-11-07 12:01:11.088782,1792,2025-11-07 12:01:16.194327385
2025-11-07 12:01:11.088782,0,2025-11-07 12:01:16.202019692
2025-11-07 12:01:11.088782,-2,2025-11-07 12:01:16.209712000
2025-11-07 12:01:11.088782,255,2025-11-07 12:01:16.217404308
2025-11-07 12:01:11.088782,0,2025-11-07 12:01:16.225096615
2025-11-07 12:01:11.088782,2,2025-11-07 12:01:16.232788923
2025-11-07 12:01:11.088782,0,2025-11-07 12:01:16.240481231
2025-11-07 12:01:11.088782,0,2025-11-07 12:01:16.248173538
2025-11-07 12:01:11.088782,2,2025-11-07 12:01:16.255865846
2025-11-07 12:01:11.088782,0,2025-11-07 12:01:16.263558154
2025-11-07 12:01:11.088782,0,2025-11-07 12:01:16.271250462
2025-11-07 12:01:11.088782,-9,2025-11-07 12:01:16.278942769
2025-11-07 12:01:11.088782,-769,2025-11-07 12:01:16.286635077
2025-11-07 12:01:11.088782,-1,2025-11-07 12:01:16.294327385
2025-11-07 12:01:11.088782,4,2025-11-07 12:01:16.302019692
2025-11-07 12:01:11.088782,512,2025-11-07 12:01:16.309712000
2025-11-07 12:01:11.088782,0,2025-11-07 12:01:16.317404308
2025-11-07 12:01:11.088782,-2,2025-11-07 12:01:16.325096615
2025-11-07 12:01:11.088782,-257,2025-11-07 12:01:16.332788923
2025-11-07 12:01:11.088782,-1,2025-11-07 12:01:16.340481231
2025-11-07 12:01:11.088782,2,2025-11-07 12:01:16.348173538
2025-11-07 12:01:11.088782,512,2025-11-07 12:01:16.355865846
2025-11-07 12:01:11.088782,0,2025-11-07 12:01:16.363558154
2025-11-07 12:01:11.088782,-2,2025-11-07 12:01:16.371250462
2025-11-07 12:01:11.088782,-1537,2025-11-07 12:01:16.378942769
2025-11-07 12:01:11.088782,-1,2025-11-07 12:01:16.386635077
2025-11-07 12:01:11.088782,-7,2025-11-07 12:01:16.394327385
2025-11-07 12:01:11.088782,-1537,2025-11-07 12:01:16.402019692
2025-11-07 12:01:11.088782,-1,2025-11-07 12:01:16.409712000
2025-11-07 12:01:11.088782,-9,2025-11-07 12:01:16.417404308
2025-11-07 12:01:11.088782,-769,2025-11-07 12:01:16.425096615
2025-11-07 12:01:11.088782,-1,2025-11-07 12:01:16.432788923
2025-11-07 12:01:11.088782,4,2025-11-07 12:01:16.440481231
2025-11-07 12:01:11.088782,1024,2025-11-07 12:01:16.448173538
2025-11-07 12:01:11.088782,0,2025-11-07 12:01:16.455865846
2025-11-07 12:01:11.088782,4,2025-11-07 12:01:16.463558154
2025-11-07 12:01:11.088782,3072,2025-11-07 12:01:16.471250462
2025-11-07 12:01:11.088782,0,2025-11-07 12:01:16.478942769
2025-11-07 12:01:11.088782,7,2025-11-07 12:01:16.486635077
2025-11-07 12:01:11.088782,-512,2025-11-07 12:01:16.494327385
2025-11-07 12:01:11.088782,-1,2025-11-07 12:01:16.502019692
2025-11-07 12:01:11.088782,-2,2025-11-07 12:01:16.509712000
2025-11-07 12:01:11.088782,2047,2025-11-07 12:01:16.517404308
2025-11-07 12:01:11.088782,0,2025-11-07 12:01:16.525096615
2025-11-07 12:01:11.088782,12,2025-11-07 12:01:16.532788923
2025-11-07 12:01:11.088782,1792,2025-11-07 12:01:16.540481231
2025-11-07 12:01:11.088782,0,2025-11-07 12:01:16.548173538
2025-11-07 12:01:11.088782,2,2025-11-07 12:01:16.555865846
2025-11-07 12:01:11.088782,0,2025-11-07 12:01:16.563558154
2025-11-07 12:01:11.088782,0,2025-11-07 12:01:16.571250462
2025-11-07 12:01:11.088782,2,2025-11-07 12:01:16.578942769
2025-11-07 12:01:11.088782,3072,2025-11-07 12:01:16.586635077
2025-11-07 12:01:11.088782,0,2025-11-07 12:01:16.594327385
2025-11-07 12:01:11.088782,16,2025-11-07 12:01:16.602019692
2025-11-07 12:01:11.088782,5376,2025-11-07 12:01:16.609712000
2025-11-07 12:01:11.088782,0,2025-11-07 12:01:16.617404308
2025-11-07 12:01:11.088782,29,2025-11-07 12:01:16.625096615
2025-11-07 12:01:11.088782,8448,2025-11-07 12:01:16.632788923
2025-11-07 12:01:11.088782,0,2025-11-07 12:01:16.640481231
2025-11-07 12:01:11.088782,26,2025-11-07 12:01:16.648173538
2025-11-07 12:01:11.088782,1792,2025-11-07 12:01:16.655865846
2025-11-07 12:01:11.088782,0,2025-11-07 12:01:16.663558154
2025-11-07 12:01:11.088782,-4,2025-11-07 12:01:16.671250462
2025-11-07 12:01:11.088782,1279,2025-11-07 12:01:16.678942769
2025-11-07 12:01:11.088782,0,2025-11-07 12:01:16.686635077
2025-11-07 12:01:11.088782,14,2025-11-07 12:01:16.694327385
2025-11-07 12:01:11.689014,12,2025-11-07 12:01:16.702019692
2025-11-07 12:01:11.689014,3072,2025-11-07 12:01:16.709712000
2025-11-07 12:01:11.689014,0,2025-11-07 12:01:16.717404308
2025-11-07 12:01:11.689014,12,2025-11-07 12:01:16.725096615
2025-11-07 12:01:11.689014,-3072,2025-11-07 12:01:16.732788923
2025-11-07 12:01:11.689014,-1,2025-11-07 12:01:16.740481231
2025-11-07 12:01:11.689014,-79,2025-11-07 12:01:16.748173538
2025-11-07 12:01:11.689014,-26881,2025-11-07 12:01:16.755865846
2025-11-07 12:01:11.689014,-1,2025-11-07 12:01:16.763558154
2025-11-07 12:01:11.689014,108,2025-11-07 12:01:16.771250462
2025-11-07 12:01:11.689014,11008,2025-11-07 12:01:16.778942769
2025-11-07 12:01:11.689014,2,2025-11-07 12:01:16.786635077
2025-11-07 12:01:11.689014,819,2025-11-07 12:01:16.794327385
2025-11-07 12:01:11.689014,21504,2025-11-07 12:01:16.802019692
2025-11-07 12:01:11.689014,2,2025-11-07 12:01:16.809712000
