timestamp,ecg,reconstructed_time
2025-11-07 09:58:02.985814,35,2025-11-07 09:58:02.985814000
2025-11-07 09:58:02.985814,31744,2025-11-07 09:58:02.993506308
2025-11-07 09:58:02.985814,0,2025-11-07 09:58:03.001198615
2025-11-07 09:58:02.985814,59,2025-11-07 09:58:03.008890923
2025-11-07 09:58:02.985814,2304,2025-11-07 09:58:03.016583231
2025-11-07 09:58:02.985814,0,2025-11-07 09:58:03.024275538
2025-11-07 09:58:02.985814,69,2025-11-07 09:58:03.031967846
2025-11-07 09:58:02.985814,15872,2025-11-07 09:58:03.039660154
2025-11-07 09:58:02.985814,0,2025-11-07 09:58:03.047352462
2025-11-07 09:58:02.985814,16,2025-11-07 09:58:03.055044769
2025-11-07 09:58:02.985814,9728,2025-11-07 09:58:03.062737077
2025-11-07 09:58:02.985814,0,2025-11-07 09:58:03.070429385
2025-11-07 09:58:02.985814,59,2025-11-07 09:58:03.078121692
2025-11-07 09:58:02.985814,3584,2025-11-07 09:58:03.085814000
2025-11-07 09:58:02.985814,0,2025-11-07 09:58:03.093506308
2025-11-07 09:58:02.985814,26,2025-11-07 09:58:03.101198615
2025-11-07 09:58:02.985814,-30720,2025-11-07 09:58:03.108890923
2025-11-07 09:58:02.985814,0,2025-11-07 09:58:03.116583231
2025-11-07 09:58:02.985814,136,2025-11-07 09:58:03.124275538
2025-11-07 09:58:02.985814,10240,2025-11-07 09:58:03.131967846
2025-11-07 09:58:02.985814,0,2025-11-07 09:58:03.139660154
2025-11-07 09:58:02.985814,21,2025-11-07 09:58:03.147352462
2025-11-07 09:58:02.985814,11520,2025-11-07 09:58:03.155044769
2025-11-07 09:58:02.985814,0,2025-11-07 09:58:03.162737077
2025-11-07 09:58:02.985814,59,2025-11-07 09:58:03.170429385
2025-11-07 09:58:02.985814,16384,2025-11-07 09:58:03.178121692
2025-11-07 09:58:02.985814,0,2025-11-07 09:58:03.185814000
2025-11-07 09:58:02.985814,40,2025-11-07 09:58:03.193506308
2025-11-07 09:58:02.985814,11008,2025-11-07 09:58:03.201198615
2025-11-07 09:58:02.985814,0,2025-11-07 09:58:03.208890923
2025-11-07 09:58:02.985814,83,2025-11-07 09:58:03.216583231
2025-11-07 09:58:02.985814,26368,2025-11-07 09:58:03.224275538
2025-11-07 09:58:02.985814,0,2025-11-07 09:58:03.231967846
2025-11-07 09:58:02.985814,74,2025-11-07 09:58:03.239660154
2025-11-07 09:58:02.985814,7936,2025-11-07 09:58:03.247352462
2025-11-07 09:58:02.985814,0,2025-11-07 09:58:03.255044769
2025-11-07 09:58:02.985814,33,2025-11-07 09:58:03.262737077
2025-11-07 09:58:02.985814,24320,2025-11-07 09:58:03.270429385
2025-11-07 09:58:02.985814,0,2025-11-07 09:58:03.278121692
2025-11-07 09:58:02.985814,105,2025-11-07 09:58:03.285814000
2025-11-07 09:58:02.985814,10240,2025-11-07 09:58:03.293506308
2025-11-07 09:58:02.985814,0,2025-11-07 09:58:03.301198615
2025-11-07 09:58:02.985814,45,2025-11-07 09:58:03.308890923
2025-11-07 09:58:02.985814,-5888,2025-11-07 09:58:03.316583231
2025-11-07 09:58:02.985814,-1,2025-11-07 09:58:03.324275538
2025-11-07 09:58:02.985814,-409,2025-11-07 09:58:03.331967846
2025-11-07 09:58:02.985814,-14593,2025-11-07 09:58:03.339660154
2025-11-07 09:58:02.985814,-3,2025-11-07 09:58:03.347352462
2025-11-07 09:58:02.985814,299,2025-11-07 09:58:03.355044769
2025-11-07 09:58:02.985814,-29440,2025-11-07 09:58:03.362737077
2025-11-07 09:58:02.985814,5,2025-11-07 09:58:03.370429385
2025-11-07 09:58:02.985814,1380,2025-11-07 09:58:03.378121692
2025-11-07 09:58:02.985814,-23040,2025-11-07 09:58:03.385814000
2025-11-07 09:58:02.985814,2,2025-11-07 09:58:03.393506308
2025-11-07 09:58:02.985814,323,2025-11-07 09:58:03.401198615
2025-11-07 09:58:02.985814,-27136,2025-11-07 09:58:03.408890923
2025-11-07 09:58:02.985814,0,2025-11-07 09:58:03.416583231
2025-11-07 09:58:02.985814,-16,2025-11-07 09:58:03.424275538
2025-11-07 09:58:02.985814,-21761,2025-11-07 09:58:03.431967846
2025-11-07 09:58:02.985814,-1,2025-11-07 09:58:03.439660154
2025-11-07 09:58:02.985814,-136,2025-11-07 09:58:03.447352462
2025-11-07 09:58:02.985814,26623,2025-11-07 09:58:03.455044769
2025-11-07 09:58:02.985814,-1,2025-11-07 09:58:03.462737077
2025-11-07 09:58:02.985814,-141,2025-11-07 09:58:03.470429385
2025-11-07 09:58:02.985814,27391,2025-11-07 09:58:03.478121692
2025-11-07 09:58:02.985814,-1,2025-11-07 09:58:03.485814000
2025-11-07 09:58:02.985814,-129,2025-11-07 09:58:03.493506308
2025-11-07 09:58:02.985814,-30977,2025-11-07 09:58:03.501198615
2025-11-07 09:58:02.985814,-1,2025-11-07 09:58:03.508890923
2025-11-07 09:58:02.985814,-131,2025-11-07 09:58:03.516583230
2025-11-07 09:58:02.985814,-23041,2025-11-07 09:58:03.524275538
2025-11-07 09:58:02.985814,-1,2025-11-07 09:58:03.531967846
2025-11-07 09:58:02.985814,-83,2025-11-07 09:58:03.539660154
2025-11-07 09:58:02.985814,25343,2025-11-07 09:58:03.547352462
2025-11-07 09:58:02.985814,-1,2025-11-07 09:58:03.555044769
2025-11-07 09:58:02.985814,-153,2025-11-07 09:58:03.562737077
2025-11-07 09:58:02.985814,-19201,2025-11-07 09:58:03.570429385
2025-11-07 09:58:02.985814,-1,2025-11-07 09:58:03.578121692
2025-11-07 09:58:02.985814,-110,2025-11-07 09:58:03.585814000
2025-11-07 09:58:02.985814,13823,2025-11-07 09:58:03.593506308
2025-11-07 09:58:02.985814,-1,2025-11-07 09:58:03.601198615
2025-11-07 09:58:02.985814,-189,2025-11-07 09:58:03.608890923
2025-11-07 09:58:02.985814,-30977,2025-11-07 09:58:03.616583231
2025-11-07 09:58:02.985814,-1,2025-11-07 09:58:03.624275538
2025-11-07 09:58:02.985814,-122,2025-11-07 09:58:03.631967846
2025-11-07 09:58:02.985814,30975,2025-11-07 09:58:03.639660154
2025-11-07 09:58:02.985814,-1,2025-11-07 09:58:03.647352462
2025-11-07 09:58:02.985814,-110,2025-11-07 09:58:03.655044769
2025-11-07 09:58:02.985814,-27137,2025-11-07 09:58:03.662737077
2025-11-07 09:58:02.985814,-1,2025-11-07 09:58:03.670429385
2025-11-07 09:58:02.985814,-117,2025-11-07 09:58:03.678121692
2025-11-07 09:58:02.985814,-23553,2025-11-07 09:58:03.685814000
2025-11-07 09:58:02.985814,-1,2025-11-07 09:58:03.693506308
2025-11-07 09:58:02.985814,-71,2025-11-07 09:58:03.701198615
2025-11-07 09:58:02.985814,-15617,2025-11-07 09:58:03.708890923
2025-11-07 09:58:02.985814,-1,2025-11-07 09:58:03.716583231
2025-11-07 09:58:02.985814,-45,2025-11-07 09:58:03.724275538
2025-11-07 09:58:02.985814,-3841,2025-11-07 09:58:03.731967846
2025-11-07 09:58:02.985814,-1,2025-11-07 09:58:03.739660154
2025-11-07 09:58:02.985814,19,2025-11-07 09:58:03.747352462
2025-11-07 09:58:02.985814,20736,2025-11-07 09:58:03.755044769
2025-11-07 09:58:02.985814,0,2025-11-07 09:58:03.762737077
2025-11-07 09:58:02.985814,103,2025-11-07 09:58:03.770429385
2025-11-07 09:58:02.985814,13312,2025-11-07 09:58:03.778121692
2025-11-07 09:58:02.985814,0,2025-11-07 09:58:03.785814000
2025-11-07 09:58:02.985814,35,2025-11-07 09:58:03.793506308
2025-11-07 09:58:02.985814,16384,2025-11-07 09:58:03.801198615
2025-11-07 09:58:02.985814,0,2025-11-07 09:58:03.808890923
2025-11-07 09:58:02.985814,67,2025-11-07 09:58:03.816583231
2025-11-07 09:58:03.535061,43,2025-11-07 09:58:03.824275538
2025-11-07 09:58:03.535061,1024,2025-11-07 09:58:03.831967846
2025-11-07 09:58:03.535061,0,2025-11-07 09:58:03.839660154
2025-11-07 09:58:03.535061,9,2025-11-07 09:58:03.847352462
2025-11-07 09:58:03.535061,20224,2025-11-07 09:58:03.855044769
2025-11-07 09:58:03.535061,0,2025-11-07 09:58:03.862737077
2025-11-07 09:58:03.535061,71,2025-11-07 09:58:03.870429385
2025-11-07 09:58:03.535061,5888,2025-11-07 09:58:03.878121692
2025-11-07 09:58:03.535061,0,2025-11-07 09:58:03.885814000
2025-11-07 09:58:03.535061,67,2025-11-07 09:58:03.893506308
2025-11-07 09:58:03.535061,22528,2025-11-07 09:58:03.901198615
2025-11-07 09:58:03.535061,0,2025-11-07 09:58:03.908890923
2025-11-07 09:58:03.535061,40,2025-11-07 09:58:03.916583231
2025-11-07 09:58:03.535061,8448,2025-11-07 09:58:03.924275538
2025-11-07 09:58:03.535061,0,2025-11-07 09:58:03.931967846
2025-11-07 09:58:03.535061,50,2025-11-07 09:58:03.939660154
2025-11-07 09:58:03.535061,8448,2025-11-07 09:58:03.947352462
2025-11-07 09:58:03.535061,0,2025-11-07 09:58:03.955044769
2025-11-07 09:58:03.535061,26,2025-11-07 09:58:03.962737077
2025-11-07 09:58:03.535061,17152,2025-11-07 09:58:03.970429385
2025-11-07 09:58:03.535061,0,2025-11-07 09:58:03.978121692
2025-11-07 09:58:03.535061,117,2025-11-07 09:58:03.985814000
2025-11-07 09:58:03.535061,23808,2025-11-07 09:58:03.993506308
2025-11-07 09:58:03.535061,0,2025-11-07 09:58:04.001198615
2025-11-07 09:58:03.535061,28,2025-11-07 09:58:04.008890923
2025-11-07 09:58:03.535061,10240,2025-11-07 09:58:04.016583231
2025-11-07 09:58:03.535061,0,2025-11-07 09:58:04.024275538
2025-11-07 09:58:03.535061,67,2025-11-07 09:58:04.031967846
2025-11-07 09:58:03.535061,8960,2025-11-07 09:58:04.039660154
2025-11-07 09:58:03.535061,0,2025-11-07 09:58:04.047352462
2025-11-07 09:58:03.535061,-14,2025-11-07 09:58:04.055044769
2025-11-07 09:58:03.535061,1279,2025-11-07 09:58:04.062737077
2025-11-07 09:58:03.535061,0,2025-11-07 09:58:04.070429385
2025-11-07 09:58:03.535061,115,2025-11-07 09:58:04.078121692
2025-11-07 09:58:03.535061,-27136,2025-11-07 09:58:04.085814000
2025-11-07 09:58:03.535061,0,2025-11-07 09:58:04.093506308
2025-11-07 09:58:03.535061,81,2025-11-07 09:58:04.101198615
2025-11-07 09:58:03.535061,13312,2025-11-07 09:58:04.108890923
2025-11-07 09:58:03.535061,0,2025-11-07 09:58:04.116583231
2025-11-07 09:58:03.535061,50,2025-11-07 09:58:04.124275538
2025-11-07 09:58:03.535061,11520,2025-11-07 09:58:04.131967846
2025-11-07 09:58:03.535061,0,2025-11-07 09:58:04.139660154
2025-11-07 09:58:03.535061,71,2025-11-07 09:58:04.147352462
2025-11-07 09:58:03.535061,16384,2025-11-07 09:58:04.155044769
2025-11-07 09:58:03.535061,0,2025-11-07 09:58:04.162737077
2025-11-07 09:58:03.535061,52,2025-11-07 09:58:04.170429385
2025-11-07 09:58:03.535061,17664,2025-11-07 09:58:04.178121692
2025-11-07 09:58:03.535061,0,2025-11-07 09:58:04.185814000
2025-11-07 09:58:03.535061,-47,2025-11-07 09:58:04.193506308
2025-11-07 09:58:03.535061,19199,2025-11-07 09:58:04.201198615
2025-11-07 09:58:03.535061,-2,2025-11-07 09:58:04.208890923
2025-11-07 09:58:03.535061,-606,2025-11-07 09:58:04.216583231
2025-11-07 09:58:03.535061,-10753,2025-11-07 09:58:04.224275538
2025-11-07 09:58:03.535061,0,2025-11-07 09:58:04.231967846
2025-11-07 09:58:03.535061,1385,2025-11-07 09:58:04.239660154
2025-11-07 09:58:03.535061,-7936,2025-11-07 09:58:04.247352462
2025-11-07 09:58:03.535061,5,2025-11-07 09:58:04.255044769
2025-11-07 09:58:03.535061,810,2025-11-07 09:58:04.262737077
2025-11-07 09:58:03.535061,20224,2025-11-07 09:58:04.270429385
2025-11-07 09:58:03.535061,1,2025-11-07 09:58:04.278121692
2025-11-07 09:58:03.535061,124,2025-11-07 09:58:04.285814000
2025-11-07 09:58:03.535061,-17152,2025-11-07 09:58:04.293506308
2025-11-07 09:58:03.535061,-1,2025-11-07 09:58:04.301198615
2025-11-07 09:58:03.535061,-150,2025-11-07 09:58:04.308890923
2025-11-07 09:58:03.535061,31487,2025-11-07 09:58:04.316583231
2025-11-07 09:58:03.535061,-1,2025-11-07 09:58:04.324275538
2025-11-07 09:58:03.535061,-100,2025-11-07 09:58:04.331967846
2025-11-07 09:58:03.535061,-18689,2025-11-07 09:58:04.339660154
2025-11-07 09:58:03.535061,-1,2025-11-07 09:58:04.347352462
2025-11-07 09:58:03.535061,-98,2025-11-07 09:58:04.355044769
2025-11-07 09:58:03.535061,27903,2025-11-07 09:58:04.362737077
2025-11-07 09:58:03.535061,-1,2025-11-07 09:58:04.370429385
2025-11-07 09:58:03.535061,-174,2025-11-07 09:58:04.378121692
2025-11-07 09:58:03.535061,23551,2025-11-07 09:58:04.385814000
2025-11-07 09:58:03.535061,-1,2025-11-07 09:58:04.393506308
2025-11-07 09:58:03.535061,-98,2025-11-07 09:58:04.401198615
2025-11-07 09:58:03.535061,-16897,2025-11-07 09:58:04.408890923
2025-11-07 09:58:03.535061,-1,2025-11-07 09:58:04.416583231
2025-11-07 09:58:03.535061,-129,2025-11-07 09:58:04.424275538
2025-11-07 09:58:03.535061,17407,2025-11-07 09:58:04.431967846
2025-11-07 09:58:03.535061,-1,2025-11-07 09:58:04.439660154
2025-11-07 09:58:03.535061,-179,2025-11-07 09:58:04.447352462
2025-11-07 09:58:03.535061,-25345,2025-11-07 09:58:04.455044769
2025-11-07 09:58:03.535061,-1,2025-11-07 09:58:04.462737077
2025-11-07 09:58:03.535061,-103,2025-11-07 09:58:04.470429385
2025-11-07 09:58:03.535061,13823,2025-11-07 09:58:04.478121692
2025-11-07 09:58:03.535061,-1,2025-11-07 09:58:04.485814000
2025-11-07 09:58:03.535061,-158,2025-11-07 09:58:04.493506308
2025-11-07 09:58:03.535061,-11265,2025-11-07 09:58:04.501198615
2025-11-07 09:58:03.535061,-1,2025-11-07 09:58:04.508890923
2025-11-07 09:58:03.535061,-115,2025-11-07 09:58:04.516583230
2025-11-07 09:58:03.535061,13823,2025-11-07 09:58:04.524275538
2025-11-07 09:58:03.535061,-1,2025-11-07 09:58:04.531967846
2025-11-07 09:58:03.535061,-127,2025-11-07 09:58:04.539660154
2025-11-07 09:58:03.535061,-11265,2025-11-07 09:58:04.547352462
2025-11-07 09:58:03.535061,-1,2025-11-07 09:58:04.555044769
2025-11-07 09:58:03.535061,-71,2025-11-07 09:58:04.562737077
2025-11-07 09:58:03.535061,-23553,2025-11-07 09:58:04.570429385
2025-11-07 09:58:03.535061,-1,2025-11-07 09:58:04.578121692
2025-11-07 09:58:03.535061,-28,2025-11-07 09:58:04.585814000
2025-11-07 09:58:03.535061,5119,2025-11-07 09:58:04.593506308
2025-11-07 09:58:03.535061,0,2025-11-07 09:58:04.601198615
2025-11-07 09:58:03.535061,2,2025-11-07 09:58:04.608890923
2025-11-07 09:58:03.535061,-1024,2025-11-07 09:58:04.616583231
2025-11-07 09:58:03.535061,-1,2025-11-07 09:58:04.624275538
2025-11-07 09:58:03.535061,33,2025-11-07 09:58:04.631967846
2025-11-07 09:58:03.535061,14592,2025-11-07 09:58:04.639660154
2025-11-07 09:58:03.535061,0,2025-11-07 09:58:04.647352462
2025-11-07 09:58:03.535061,47,2025-11-07 09:58:04.655044769
2025-11-07 09:58:04.084816,43,2025-11-07 09:58:04.662737077
2025-11-07 09:58:04.084816,9728,2025-11-07 09:58:04.670429385
2025-11-07 09:58:04.084816,0,2025-11-07 09:58:04.678121692
2025-11-07 09:58:04.084816,26,2025-11-07 09:58:04.685814000
2025-11-07 09:58:04.084816,16384,2025-11-07 09:58:04.693506308
2025-11-07 09:58:04.084816,0,2025-11-07 09:58:04.701198615
2025-11-07 09:58:04.084816,103,2025-11-07 09:58:04.708890923
2025-11-07 09:58:04.084816,16384,2025-11-07 09:58:04.716583231
2025-11-07 09:58:04.084816,0,2025-11-07 09:58:04.724275538
2025-11-07 09:58:04.084816,16,2025-11-07 09:58:04.731967846
2025-11-07 09:58:04.084816,14592,2025-11-07 09:58:04.739660154
2025-11-07 09:58:04.084816,0,2025-11-07 09:58:04.747352462
2025-11-07 09:58:04.084816,110,2025-11-07 09:58:04.755044769
2025-11-07 09:58:04.084816,15872,2025-11-07 09:58:04.762737077
2025-11-07 09:58:04.084816,0,2025-11-07 09:58:04.770429385
2025-11-07 09:58:04.084816,14,2025-11-07 09:58:04.778121692
2025-11-07 09:58:04.084816,20224,2025-11-07 09:58:04.785814000
2025-11-07 09:58:04.084816,0,2025-11-07 09:58:04.793506308
2025-11-07 09:58:04.084816,119,2025-11-07 09:58:04.801198615
2025-11-07 09:58:04.084816,14592,2025-11-07 09:58:04.808890923
2025-11-07 09:58:04.084816,0,2025-11-07 09:58:04.816583231
2025-11-07 09:58:04.084816,59,2025-11-07 09:58:04.824275538
2025-11-07 09:58:04.084816,-30720,2025-11-07 09:58:04.831967846
2025-11-07 09:58:04.084816,0,2025-11-07 09:58:04.839660154
2025-11-07 09:58:04.084816,119,2025-11-07 09:58:04.847352462
2025-11-07 09:58:04.084816,12032,2025-11-07 09:58:04.855044769
2025-11-07 09:58:04.084816,0,2025-11-07 09:58:04.862737077
2025-11-07 09:58:04.084816,74,2025-11-07 09:58:04.870429385
2025-11-07 09:58:04.084816,-30720,2025-11-07 09:58:04.878121692
2025-11-07 09:58:04.084816,0,2025-11-07 09:58:04.885814000
2025-11-07 09:58:04.084816,93,2025-11-07 09:58:04.893506308
2025-11-07 09:58:04.084816,11520,2025-11-07 09:58:04.901198615
2025-11-07 09:58:04.084816,0,2025-11-07 09:58:04.908890923
2025-11-07 09:58:04.084816,76,2025-11-07 09:58:04.916583231
2025-11-07 09:58:04.084816,20736,2025-11-07 09:58:04.924275538
2025-11-07 09:58:04.084816,0,2025-11-07 09:58:04.931967846
2025-11-07 09:58:04.084816,33,2025-11-07 09:58:04.939660154
2025-11-07 09:58:04.084816,9728,2025-11-07 09:58:04.947352462
2025-11-07 09:58:04.084816,0,2025-11-07 09:58:04.955044769
2025-11-07 09:58:04.084816,95,2025-11-07 09:58:04.962737077
2025-11-07 09:58:04.084816,31232,2025-11-07 09:58:04.970429385
2025-11-07 09:58:04.084816,0,2025-11-07 09:58:04.978121692
2025-11-07 09:58:04.084816,134,2025-11-07 09:58:04.985814000
2025-11-07 09:58:04.084816,28672,2025-11-07 09:58:04.993506308
2025-11-07 09:58:04.084816,0,2025-11-07 09:58:05.001198615
2025-11-07 09:58:04.084816,45,2025-11-07 09:58:05.008890923
2025-11-07 09:58:04.084816,8960,2025-11-07 09:58:05.016583231
2025-11-07 09:58:04.084816,0,2025-11-07 09:58:05.024275538
2025-11-07 09:58:04.084816,64,2025-11-07 09:58:05.031967846
2025-11-07 09:58:04.084816,15872,2025-11-07 09:58:05.039660154
2025-11-07 09:58:04.084816,0,2025-11-07 09:58:05.047352462
2025-11-07 09:58:04.084816,83,2025-11-07 09:58:05.055044769
2025-11-07 09:58:04.084816,20736,2025-11-07 09:58:05.062737077
2025-11-07 09:58:04.084816,0,2025-11-07 09:58:05.070429385
2025-11-07 09:58:04.084816,-162,2025-11-07 09:58:05.078121692
2025-11-07 09:58:04.084816,-7169,2025-11-07 09:58:05.085814000
2025-11-07 09:58:04.084816,-3,2025-11-07 09:58:05.093506308
2025-11-07 09:58:04.084816,-407,2025-11-07 09:58:05.101198615
2025-11-07 09:58:04.084816,255,2025-11-07 09:58:05.108890923
2025-11-07 09:58:04.084816,2,2025-11-07 09:58:05.116583231
2025-11-07 09:58:04.084816,1272,2025-11-07 09:58:05.124275538
2025-11-07 09:58:04.084816,12032,2025-11-07 09:58:05.131967846
2025-11-07 09:58:04.084816,4,2025-11-07 09:58:05.139660154
2025-11-07 09:58:04.084816,570,2025-11-07 09:58:05.147352462
2025-11-07 09:58:04.084816,28928,2025-11-07 09:58:05.155044769
2025-11-07 09:58:04.084816,1,2025-11-07 09:58:05.162737077
2025-11-07 09:58:04.084816,165,2025-11-07 09:58:05.170429385
2025-11-07 09:58:04.084816,-14592,2025-11-07 09:58:05.178121692
2025-11-07 09:58:04.084816,-1,2025-11-07 09:58:05.185814000
2025-11-07 09:58:04.084816,-98,2025-11-07 09:58:05.193506308
2025-11-07 09:58:04.084816,-20993,2025-11-07 09:58:05.201198615
2025-11-07 09:58:04.084816,-1,2025-11-07 09:58:05.208890923
2025-11-07 09:58:04.084816,-103,2025-11-07 09:58:05.216583231
2025-11-07 09:58:04.084816,-30209,2025-11-07 09:58:05.224275538
2025-11-07 09:58:04.084816,-1,2025-11-07 09:58:05.231967846
2025-11-07 09:58:04.084816,-153,2025-11-07 09:58:05.239660154
2025-11-07 09:58:04.084816,-30209,2025-11-07 09:58:05.247352462
2025-11-07 09:58:04.084816,-1,2025-11-07 09:58:05.255044769
2025-11-07 09:58:04.084816,-38,2025-11-07 09:58:05.262737077
2025-11-07 09:58:04.084816,-15617,2025-11-07 09:58:05.270429385
2025-11-07 09:58:04.084816,-1,2025-11-07 09:58:05.278121692
2025-11-07 09:58:04.084816,-124,2025-11-07 09:58:05.285814000
2025-11-07 09:58:04.084816,-26113,2025-11-07 09:58:05.293506308
2025-11-07 09:58:04.084816,-1,2025-11-07 09:58:05.301198615
2025-11-07 09:58:04.084816,-69,2025-11-07 09:58:05.308890923
2025-11-07 09:58:04.084816,-23553,2025-11-07 09:58:05.316583231
2025-11-07 09:58:04.084816,-1,2025-11-07 09:58:05.324275538
2025-11-07 09:58:04.084816,-115,2025-11-07 09:58:05.331967846
2025-11-07 09:58:04.084816,-26625,2025-11-07 09:58:05.339660154
2025-11-07 09:58:04.084816,-1,2025-11-07 09:58:05.347352462
2025-11-07 09:58:04.084816,-105,2025-11-07 09:58:05.355044769
2025-11-07 09:58:04.084816,-28417,2025-11-07 09:58:05.362737077
2025-11-07 09:58:04.084816,-1,2025-11-07 09:58:05.370429385
2025-11-07 09:58:04.084816,-119,2025-11-07 09:58:05.378121692
2025-11-07 09:58:04.084816,27391,2025-11-07 09:58:05.385814000
2025-11-07 09:58:04.084816,-1,2025-11-07 09:58:05.393506308
2025-11-07 09:58:04.084816,-172,2025-11-07 09:58:05.401198615
2025-11-07 09:58:04.084816,-27137,2025-11-07 09:58:05.408890923
2025-11-07 09:58:04.084816,-1,2025-11-07 09:58:05.416583231
2025-11-07 09:58:04.084816,-9,2025-11-07 09:58:05.424275538
2025-11-07 09:58:04.084816,-5121,2025-11-07 09:58:05.431967846
2025-11-07 09:58:04.084816,-1,2025-11-07 09:58:05.439660154
2025-11-07 09:58:04.084816,-74,2025-11-07 09:58:05.447352462
2025-11-07 09:58:04.084816,-8705,2025-11-07 09:58:05.455044769
2025-11-07 09:58:04.084816,-1,2025-11-07 09:58:05.462737077
2025-11-07 09:58:04.084816,26,2025-11-07 09:58:05.470429385
2025-11-07 09:58:04.084816,3584,2025-11-07 09:58:05.478121692
2025-11-07 09:58:04.084816,0,2025-11-07 09:58:05.485814000
2025-11-07 09:58:04.084816,-2,2025-11-07 09:58:05.493506308
2025-11-07 09:58:04.634704,19,2025-11-07 09:58:05.501198615
2025-11-07 09:58:04.634704,7936,2025-11-07 09:58:05.508890923
2025-11-07 09:58:04.634704,0,2025-11-07 09:58:05.516583230
2025-11-07 09:58:04.634704,31,2025-11-07 09:58:05.524275538
2025-11-07 09:58:04.634704,8448,2025-11-07 09:58:05.531967846
2025-11-07 09:58:04.634704,0,2025-11-07 09:58:05.539660154
2025-11-07 09:58:04.634704,35,2025-11-07 09:58:05.547352462
2025-11-07 09:58:04.634704,8960,2025-11-07 09:58:05.555044769
2025-11-07 09:58:04.634704,0,2025-11-07 09:58:05.562737077
2025-11-07 09:58:04.634704,35,2025-11-07 09:58:05.570429385
2025-11-07 09:58:04.634704,6656,2025-11-07 09:58:05.578121692
2025-11-07 09:58:04.634704,0,2025-11-07 09:58:05.585814000
2025-11-07 09:58:04.634704,19,2025-11-07 09:58:05.593506308
2025-11-07 09:58:04.634704,8448,2025-11-07 09:58:05.601198615
2025-11-07 09:58:04.634704,0,2025-11-07 09:58:05.608890923
2025-11-07 09:58:04.634704,50,2025-11-07 09:58:05.616583231
2025-11-07 09:58:04.634704,11520,2025-11-07 09:58:05.624275538
2025-11-07 09:58:04.634704,0,2025-11-07 09:58:05.631967846
2025-11-07 09:58:04.634704,40,2025-11-07 09:58:05.639660154
2025-11-07 09:58:04.634704,10240,2025-11-07 09:58:05.647352462
2025-11-07 09:58:04.634704,0,2025-11-07 09:58:05.655044769
2025-11-07 09:58:04.634704,35,2025-11-07 09:58:05.662737077
2025-11-07 09:58:04.634704,8448,2025-11-07 09:58:05.670429385
2025-11-07 09:58:04.634704,0,2025-11-07 09:58:05.678121692
2025-11-07 09:58:04.634704,69,2025-11-07 09:58:05.685814000
2025-11-07 09:58:04.634704,27392,2025-11-07 09:58:05.693506308
2025-11-07 09:58:04.634704,0,2025-11-07 09:58:05.701198615
2025-11-07 09:58:04.634704,71,2025-11-07 09:58:05.708890923
2025-11-07 09:58:04.634704,6656,2025-11-07 09:58:05.716583231
2025-11-07 09:58:04.634704,0,2025-11-07 09:58:05.724275538
2025-11-07 09:58:04.634704,59,2025-11-07 09:58:05.731967846
2025-11-07 09:58:04.634704,26880,2025-11-07 09:58:05.739660154
2025-11-07 09:58:04.634704,0,2025-11-07 09:58:05.747352462
2025-11-07 09:58:04.634704,88,2025-11-07 09:58:05.755044769
2025-11-07 09:58:04.634704,13312,2025-11-07 09:58:05.762737077
2025-11-07 09:58:04.634704,0,2025-11-07 09:58:05.770429385
2025-11-07 09:58:04.634704,45,2025-11-07 09:58:05.778121692
2025-11-07 09:58:04.634704,13312,2025-11-07 09:58:05.785814000
2025-11-07 09:58:04.634704,0,2025-11-07 09:58:05.793506308
2025-11-07 09:58:04.634704,62,2025-11-07 09:58:05.801198615
2025-11-07 09:58:04.634704,18944,2025-11-07 09:58:05.808890923
2025-11-07 09:58:04.634704,0,2025-11-07 09:58:05.816583231
2025-11-07 09:58:04.634704,64,2025-11-07 09:58:05.824275538
2025-11-07 09:58:04.634704,12032,2025-11-07 09:58:05.831967846
2025-11-07 09:58:04.634704,0,2025-11-07 09:58:05.839660154
2025-11-07 09:58:04.634704,71,2025-11-07 09:58:05.847352462
2025-11-07 09:58:04.634704,28160,2025-11-07 09:58:05.855044769
2025-11-07 09:58:04.634704,0,2025-11-07 09:58:05.862737077
2025-11-07 09:58:04.634704,110,2025-11-07 09:58:05.870429385
2025-11-07 09:58:04.634704,22528,2025-11-07 09:58:05.878121692
2025-11-07 09:58:04.634704,0,2025-11-07 09:58:05.885814000
2025-11-07 09:58:04.634704,76,2025-11-07 09:58:05.893506308
2025-11-07 09:58:04.634704,19456,2025-11-07 09:58:05.901198615
2025-11-07 09:58:04.634704,0,2025-11-07 09:58:05.908890923
2025-11-07 09:58:04.634704,76,2025-11-07 09:58:05.916583231
2025-11-07 09:58:04.634704,20224,2025-11-07 09:58:05.924275538
2025-11-07 09:58:04.634704,0,2025-11-07 09:58:05.931967846
2025-11-07 09:58:04.634704,74,2025-11-07 09:58:05.939660154
2025-11-07 09:58:04.634704,16384,2025-11-07 09:58:05.947352462
2025-11-07 09:58:04.634704,0,2025-11-07 09:58:05.955044769
2025-11-07 09:58:04.634704,33,2025-11-07 09:58:05.962737077
2025-11-07 09:58:04.634704,22016,2025-11-07 09:58:05.970429385
2025-11-07 09:58:04.634704,-1,2025-11-07 09:58:05.978121692
2025-11-07 09:58:04.634704,-534,2025-11-07 09:58:05.985814000
2025-11-07 09:58:04.634704,-24833,2025-11-07 09:58:05.993506308
2025-11-07 09:58:04.634704,-2,2025-11-07 09:58:06.001198615
2025-11-07 09:58:04.634704,740,2025-11-07 09:58:06.008890923
2025-11-07 09:58:04.634704,1280,2025-11-07 09:58:06.016583231
2025-11-07 09:58:04.634704,6,2025-11-07 09:58:06.024275538
2025-11-07 09:58:04.634704,1174,2025-11-07 09:58:06.031967846
2025-11-07 09:58:04.634704,6144,2025-11-07 09:58:06.039660154
2025-11-07 09:58:04.634704,2,2025-11-07 09:58:06.047352462
2025-11-07 09:58:04.634704,258,2025-11-07 09:58:06.055044769
2025-11-07 09:58:04.634704,14592,2025-11-07 09:58:06.062737077
2025-11-07 09:58:04.634704,0,2025-11-07 09:58:06.070429385
2025-11-07 09:58:04.634704,-86,2025-11-07 09:58:06.078121692
2025-11-07 09:58:04.634704,-24833,2025-11-07 09:58:06.085814000
2025-11-07 09:58:04.634704,-1,2025-11-07 09:58:06.093506308
2025-11-07 09:58:04.634704,-107,2025-11-07 09:58:06.101198615
2025-11-07 09:58:04.634704,32767,2025-11-07 09:58:06.108890923
2025-11-07 09:58:04.634704,-1,2025-11-07 09:58:06.116583231
2025-11-07 09:58:04.634704,-124,2025-11-07 09:58:06.124275538
2025-11-07 09:58:04.634704,-30977,2025-11-07 09:58:06.131967846
2025-11-07 09:58:04.634704,-1,2025-11-07 09:58:06.139660154
2025-11-07 09:58:04.634704,-129,2025-11-07 09:58:06.147352462
2025-11-07 09:58:04.634704,32255,2025-11-07 09:58:06.155044769
2025-11-07 09:58:04.634704,-1,2025-11-07 09:58:06.162737077
2025-11-07 09:58:04.634704,-139,2025-11-07 09:58:06.170429385
2025-11-07 09:58:04.634704,23551,2025-11-07 09:58:06.178121692
2025-11-07 09:58:04.634704,-1,2025-11-07 09:58:06.185814000
2025-11-07 09:58:04.634704,-208,2025-11-07 09:58:06.193506308
2025-11-07 09:58:04.634704,22271,2025-11-07 09:58:06.201198615
2025-11-07 09:58:04.634704,-1,2025-11-07 09:58:06.208890923
2025-11-07 09:58:04.634704,-76,2025-11-07 09:58:06.216583231
2025-11-07 09:58:04.634704,-26625,2025-11-07 09:58:06.224275538
2025-11-07 09:58:04.634704,-1,2025-11-07 09:58:06.231967846
2025-11-07 09:58:04.634704,-162,2025-11-07 09:58:06.239660154
2025-11-07 09:58:04.634704,-31489,2025-11-07 09:58:06.247352462
2025-11-07 09:58:04.634704,-1,2025-11-07 09:58:06.255044769
2025-11-07 09:58:04.634704,-122,2025-11-07 09:58:06.262737077
2025-11-07 09:58:04.634704,20479,2025-11-07 09:58:06.270429385
2025-11-07 09:58:04.634704,-1,2025-11-07 09:58:06.278121692
2025-11-07 09:58:04.634704,-177,2025-11-07 09:58:06.285814000
2025-11-07 09:58:04.634704,26111,2025-11-07 09:58:06.293506308
2025-11-07 09:58:04.634704,-1,2025-11-07 09:58:06.301198615
2025-11-07 09:58:04.634704,-158,2025-11-07 09:58:06.308890923
2025-11-07 09:58:04.634704,28415,2025-11-07 09:58:06.316583231
2025-11-07 09:58:04.634704,-1,2025-11-07 09:58:06.324275538
2025-11-07 09:58:04.634704,-122,2025-11-07 09:58:06.331967846
2025-11-07 09:58:05.184821,-103,2025-11-07 09:58:06.339660154
2025-11-07 09:58:05.184821,-17921,2025-11-07 09:58:06.347352462
2025-11-07 09:58:05.184821,-1,2025-11-07 09:58:06.355044769
2025-11-07 09:58:05.184821,-38,2025-11-07 09:58:06.362737077
2025-11-07 09:58:05.184821,-6913,2025-11-07 09:58:06.370429385
2025-11-07 09:58:05.184821,-1,2025-11-07 09:58:06.378121692
2025-11-07 09:58:05.184821,-16,2025-11-07 09:58:06.385814000
2025-11-07 09:58:05.184821,2559,2025-11-07 09:58:06.393506308
2025-11-07 09:58:05.184821,0,2025-11-07 09:58:06.401198615
2025-11-07 09:58:05.184821,28,2025-11-07 09:58:06.408890923
2025-11-07 09:58:05.184821,10240,2025-11-07 09:58:06.416583231
2025-11-07 09:58:05.184821,0,2025-11-07 09:58:06.424275538
2025-11-07 09:58:05.184821,57,2025-11-07 09:58:06.431967846
2025-11-07 09:58:05.184821,17664,2025-11-07 09:58:06.439660154
2025-11-07 09:58:05.184821,0,2025-11-07 09:58:06.447352462
2025-11-07 09:58:05.184821,67,2025-11-07 09:58:06.455044769
2025-11-07 09:58:05.184821,16384,2025-11-07 09:58:06.462737077
2025-11-07 09:58:05.184821,0,2025-11-07 09:58:06.470429385
2025-11-07 09:58:05.184821,67,2025-11-07 09:58:06.478121692
2025-11-07 09:58:05.184821,17152,2025-11-07 09:58:06.485814000
2025-11-07 09:58:05.184821,0,2025-11-07 09:58:06.493506308
2025-11-07 09:58:05.184821,67,2025-11-07 09:58:06.501198615
2025-11-07 09:58:05.184821,16384,2025-11-07 09:58:06.508890923
2025-11-07 09:58:05.184821,0,2025-11-07 09:58:06.516583230
2025-11-07 09:58:05.184821,57,2025-11-07 09:58:06.524275538
2025-11-07 09:58:05.184821,14080,2025-11-07 09:58:06.531967846
2025-11-07 09:58:05.184821,0,2025-11-07 09:58:06.539660154
2025-11-07 09:58:05.184821,62,2025-11-07 09:58:06.547352462
2025-11-07 09:58:05.184821,17664,2025-11-07 09:58:06.555044769
2025-11-07 09:58:05.184821,0,2025-11-07 09:58:06.562737077
2025-11-07 09:58:05.184821,64,2025-11-07 09:58:06.570429385
2025-11-07 09:58:05.184821,15104,2025-11-07 09:58:06.578121692
2025-11-07 09:58:05.184821,0,2025-11-07 09:58:06.585814000
2025-11-07 09:58:05.184821,67,2025-11-07 09:58:06.593506308
2025-11-07 09:58:05.184821,16384,2025-11-07 09:58:06.601198615
2025-11-07 09:58:05.184821,0,2025-11-07 09:58:06.608890923
2025-11-07 09:58:05.184821,55,2025-11-07 09:58:06.616583231
2025-11-07 09:58:05.184821,13312,2025-11-07 09:58:06.624275538
2025-11-07 09:58:05.184821,0,2025-11-07 09:58:06.631967846
2025-11-07 09:58:05.184821,59,2025-11-07 09:58:06.639660154
2025-11-07 09:58:05.184821,16384,2025-11-07 09:58:06.647352462
2025-11-07 09:58:05.184821,0,2025-11-07 09:58:06.655044769
2025-11-07 09:58:05.184821,64,2025-11-07 09:58:06.662737077
2025-11-07 09:58:05.184821,12800,2025-11-07 09:58:06.670429385
2025-11-07 09:58:05.184821,0,2025-11-07 09:58:06.678121692
2025-11-07 09:58:05.184821,43,2025-11-07 09:58:06.685814000
2025-11-07 09:58:05.184821,11520,2025-11-07 09:58:06.693506308
2025-11-07 09:58:05.184821,0,2025-11-07 09:58:06.701198615
2025-11-07 09:58:05.184821,40,2025-11-07 09:58:06.708890923
2025-11-07 09:58:05.184821,6656,2025-11-07 09:58:06.716583231
2025-11-07 09:58:05.184821,0,2025-11-07 09:58:06.724275538
2025-11-07 09:58:05.184821,26,2025-11-07 09:58:06.731967846
2025-11-07 09:58:05.184821,12032,2025-11-07 09:58:06.739660154
2025-11-07 09:58:05.184821,0,2025-11-07 09:58:06.747352462
2025-11-07 09:58:05.184821,76,2025-11-07 09:58:06.755044769
2025-11-07 09:58:05.184821,22528,2025-11-07 09:58:06.762737077
2025-11-07 09:58:05.184821,0,2025-11-07 09:58:06.770429385
2025-11-07 09:58:05.184821,64,2025-11-07 09:58:06.778121692
2025-11-07 09:58:05.184821,11520,2025-11-07 09:58:06.785814000
2025-11-07 09:58:05.184821,0,2025-11-07 09:58:06.793506308
2025-11-07 09:58:05.184821,52,2025-11-07 09:58:06.801198615
2025-11-07 09:58:05.184821,14080,2025-11-07 09:58:06.808890923
2025-11-07 09:58:05.184821,0,2025-11-07 09:58:06.816583231
2025-11-07 09:58:05.184821,52,2025-11-07 09:58:06.824275538
2025-11-07 09:58:05.184821,14592,2025-11-07 09:58:06.831967846
2025-11-07 09:58:05.184821,0,2025-11-07 09:58:06.839660154
2025-11-07 09:58:05.184821,50,2025-11-07 09:58:06.847352462
2025-11-07 09:58:05.184821,8960,2025-11-07 09:58:06.855044769
2025-11-07 09:58:05.184821,0,2025-11-07 09:58:06.862737077
2025-11-07 09:58:05.184821,-45,2025-11-07 09:58:06.870429385
2025-11-07 09:58:05.184821,-23041,2025-11-07 09:58:06.878121692
2025-11-07 09:58:05.184821,-2,2025-11-07 09:58:06.885814000
2025-11-07 09:58:05.184821,-594,2025-11-07 09:58:06.893506308
2025-11-07 09:58:05.184821,-9985,2025-11-07 09:58:06.901198615
2025-11-07 09:58:05.184821,-1,2025-11-07 09:58:06.908890923
2025-11-07 09:58:05.184821,1040,2025-11-07 09:58:06.916583231
2025-11-07 09:58:05.184821,10752,2025-11-07 09:58:06.924275538
2025-11-07 09:58:05.184821,5,2025-11-07 09:58:06.931967846
2025-11-07 09:58:05.184821,759,2025-11-07 09:58:06.939660154
2025-11-07 09:58:05.184821,29440,2025-11-07 09:58:06.947352462
2025-11-07 09:58:05.184821,1,2025-11-07 09:58:06.955044769
2025-11-07 09:58:05.184821,218,2025-11-07 09:58:06.962737077
2025-11-07 09:58:05.184821,512,2025-11-07 09:58:06.970429385
2025-11-07 09:58:05.184821,0,2025-11-07 09:58:06.978121692
2025-11-07 09:58:05.184821,-105,2025-11-07 09:58:06.985814000
2025-11-07 09:58:05.184821,-23041,2025-11-07 09:58:06.993506308
2025-11-07 09:58:05.184821,-1,2025-11-07 09:58:07.001198615
2025-11-07 09:58:05.184821,-107,2025-11-07 09:58:07.008890923
2025-11-07 09:58:05.184821,-31489,2025-11-07 09:58:07.016583231
2025-11-07 09:58:05.184821,-1,2025-11-07 09:58:07.024275538
2025-11-07 09:58:05.184821,-110,2025-11-07 09:58:07.031967846
2025-11-07 09:58:05.184821,-27137,2025-11-07 09:58:07.039660154
2025-11-07 09:58:05.184821,-1,2025-11-07 09:58:07.047352462
2025-11-07 09:58:05.184821,-115,2025-11-07 09:58:07.055044769
2025-11-07 09:58:05.184821,-27905,2025-11-07 09:58:07.062737077
2025-11-07 09:58:05.184821,-1,2025-11-07 09:58:07.070429385
2025-11-07 09:58:05.184821,-107,2025-11-07 09:58:07.078121692
2025-11-07 09:58:05.184821,-28417,2025-11-07 09:58:07.085814000
2025-11-07 09:58:05.184821,-1,2025-11-07 09:58:07.093506308
2025-11-07 09:58:05.184821,-112,2025-11-07 09:58:07.101198615
2025-11-07 09:58:05.184821,-28417,2025-11-07 09:58:07.108890923
2025-11-07 09:58:05.184821,-1,2025-11-07 09:58:07.116583231
2025-11-07 09:58:05.184821,-117,2025-11-07 09:58:07.124275538
2025-11-07 09:58:05.184821,-29185,2025-11-07 09:58:07.131967846
2025-11-07 09:58:05.184821,-1,2025-11-07 09:58:07.139660154
2025-11-07 09:58:05.184821,-115,2025-11-07 09:58:07.147352462
2025-11-07 09:58:05.184821,-29697,2025-11-07 09:58:07.155044769
2025-11-07 09:58:05.184821,-1,2025-11-07 09:58:07.162737077
2025-11-07 09:58:05.184821,-110,2025-11-07 09:58:07.170429385
2025-11-07 09:58:05.734800,-107,2025-11-07 09:58:07.178121692
2025-11-07 09:58:05.734800,-27137,2025-11-07 09:58:07.185814000
2025-11-07 09:58:05.734800,-1,2025-11-07 09:58:07.193506308
2025-11-07 09:58:05.734800,-98,2025-11-07 09:58:07.201198615
2025-11-07 09:58:05.734800,-21761,2025-11-07 09:58:07.208890923
2025-11-07 09:58:05.734800,-1,2025-11-07 09:58:07.216583231
2025-11-07 09:58:05.734800,-79,2025-11-07 09:58:07.224275538
2025-11-07 09:58:05.734800,-15617,2025-11-07 09:58:07.231967846
2025-11-07 09:58:05.734800,-1,2025-11-07 09:58:07.239660154
2025-11-07 09:58:05.734800,-35,2025-11-07 09:58:07.247352462
2025-11-07 09:58:05.734800,-2049,2025-11-07 09:58:07.255044769
2025-11-07 09:58:05.734800,-1,2025-11-07 09:58:07.262737077
2025-11-07 09:58:05.734800,-2,2025-11-07 09:58:07.270429385
2025-11-07 09:58:05.734800,255,2025-11-07 09:58:07.278121692
2025-11-07 09:58:05.734800,0,2025-11-07 09:58:07.285814000
2025-11-07 09:58:05.734800,14,2025-11-07 09:58:07.293506308
2025-11-07 09:58:05.734800,8448,2025-11-07 09:58:07.301198615
2025-11-07 09:58:05.734800,0,2025-11-07 09:58:07.308890923
2025-11-07 09:58:05.734800,40,2025-11-07 09:58:07.316583231
2025-11-07 09:58:05.734800,11520,2025-11-07 09:58:07.324275538
2025-11-07 09:58:05.734800,0,2025-11-07 09:58:07.331967846
2025-11-07 09:58:05.734800,50,2025-11-07 09:58:07.339660154
2025-11-07 09:58:05.734800,12800,2025-11-07 09:58:07.347352462
2025-11-07 09:58:05.734800,0,2025-11-07 09:58:07.355044769
2025-11-07 09:58:05.734800,45,2025-11-07 09:58:07.362737077
2025-11-07 09:58:05.734800,11008,2025-11-07 09:58:07.370429385
2025-11-07 09:58:05.734800,0,2025-11-07 09:58:07.378121692
2025-11-07 09:58:05.734800,43,2025-11-07 09:58:07.385814000
2025-11-07 09:58:05.734800,11008,2025-11-07 09:58:07.393506308
2025-11-07 09:58:05.734800,0,2025-11-07 09:58:07.401198615
2025-11-07 09:58:05.734800,40,2025-11-07 09:58:07.408890923
2025-11-07 09:58:05.734800,11008,2025-11-07 09:58:07.416583231
2025-11-07 09:58:05.734800,0,2025-11-07 09:58:07.424275538
2025-11-07 09:58:05.734800,50,2025-11-07 09:58:07.431967846
2025-11-07 09:58:05.734800,12032,2025-11-07 09:58:07.439660154
2025-11-07 09:58:05.734800,0,2025-11-07 09:58:07.447352462
2025-11-07 09:58:05.734800,45,2025-11-07 09:58:07.455044769
2025-11-07 09:58:05.734800,13312,2025-11-07 09:58:07.462737077
2025-11-07 09:58:05.734800,0,2025-11-07 09:58:07.470429385
2025-11-07 09:58:05.734800,55,2025-11-07 09:58:07.478121692
2025-11-07 09:58:05.734800,12800,2025-11-07 09:58:07.485814000
2025-11-07 09:58:05.734800,0,2025-11-07 09:58:07.493506308
2025-11-07 09:58:05.734800,50,2025-11-07 09:58:07.501198615
2025-11-07 09:58:05.734800,14592,2025-11-07 09:58:07.508890923
2025-11-07 09:58:05.734800,0,2025-11-07 09:58:07.516583230
2025-11-07 09:58:05.734800,55,2025-11-07 09:58:07.524275538
2025-11-07 09:58:05.734800,12032,2025-11-07 09:58:07.531967846
2025-11-07 09:58:05.734800,0,2025-11-07 09:58:07.539660154
2025-11-07 09:58:05.734800,45,2025-11-07 09:58:07.547352462
2025-11-07 09:58:05.734800,11520,2025-11-07 09:58:07.555044769
2025-11-07 09:58:05.734800,0,2025-11-07 09:58:07.562737077
2025-11-07 09:58:05.734800,33,2025-11-07 09:58:07.570429385
2025-11-07 09:58:05.734800,4864,2025-11-07 09:58:07.578121692
2025-11-07 09:58:05.734800,0,2025-11-07 09:58:07.585814000
2025-11-07 09:58:05.734800,19,2025-11-07 09:58:07.593506308
2025-11-07 09:58:05.734800,8960,2025-11-07 09:58:07.601198615
2025-11-07 09:58:05.734800,0,2025-11-07 09:58:07.608890923
2025-11-07 09:58:05.734800,69,2025-11-07 09:58:07.616583231
2025-11-07 09:58:05.734800,21248,2025-11-07 09:58:07.624275538
2025-11-07 09:58:05.734800,0,2025-11-07 09:58:07.631967846
2025-11-07 09:58:05.734800,71,2025-11-07 09:58:07.639660154
2025-11-07 09:58:05.734800,15872,2025-11-07 09:58:07.647352462
2025-11-07 09:58:05.734800,0,2025-11-07 09:58:07.655044769
2025-11-07 09:58:05.734800,57,2025-11-07 09:58:07.662737077
2025-11-07 09:58:05.734800,14592,2025-11-07 09:58:07.670429385
2025-11-07 09:58:05.734800,0,2025-11-07 09:58:07.678121692
2025-11-07 09:58:05.734800,62,2025-11-07 09:58:07.685814000
2025-11-07 09:58:05.734800,16384,2025-11-07 09:58:07.693506308
2025-11-07 09:58:05.734800,0,2025-11-07 09:58:07.701198615
2025-11-07 09:58:05.734800,62,2025-11-07 09:58:07.708890923
2025-11-07 09:58:05.734800,15872,2025-11-07 09:58:07.716583231
2025-11-07 09:58:05.734800,0,2025-11-07 09:58:07.724275538
2025-11-07 09:58:05.734800,4,2025-11-07 09:58:07.731967846
2025-11-07 09:58:05.734800,-512,2025-11-07 09:58:07.739660154
2025-11-07 09:58:05.734800,-2,2025-11-07 09:58:07.747352462
2025-11-07 09:58:05.734800,-577,2025-11-07 09:58:07.755044769
2025-11-07 09:58:05.734800,10751,2025-11-07 09:58:07.762737077
2025-11-07 09:58:05.734800,-1,2025-11-07 09:58:07.770429385
2025-11-07 09:58:05.734800,867,2025-11-07 09:58:07.778121692
2025-11-07 09:58:05.734800,31744,2025-11-07 09:58:07.785814000
2025-11-07 09:58:05.734800,5,2025-11-07 09:58:07.793506308
2025-11-07 09:58:05.734800,941,2025-11-07 09:58:07.801198615
2025-11-07 09:58:05.734800,-16384,2025-11-07 09:58:07.808890923
2025-11-07 09:58:05.734800,1,2025-11-07 09:58:07.816583231
2025-11-07 09:58:05.734800,242,2025-11-07 09:58:07.824275538
2025-11-07 09:58:05.734800,7936,2025-11-07 09:58:07.831967846
2025-11-07 09:58:05.734800,0,2025-11-07 09:58:07.839660154
2025-11-07 09:58:05.734800,-88,2025-11-07 09:58:07.847352462
2025-11-07 09:58:05.734800,-20993,2025-11-07 09:58:07.855044769
2025-11-07 09:58:05.734800,-1,2025-11-07 09:58:07.862737077
2025-11-07 09:58:05.734800,-103,2025-11-07 09:58:07.870429385
2025-11-07 09:58:05.734800,-32257,2025-11-07 09:58:07.878121692
2025-11-07 09:58:05.734800,-1,2025-11-07 09:58:07.885814000
2025-11-07 09:58:05.734800,-115,2025-11-07 09:58:07.893506308
2025-11-07 09:58:05.734800,-28417,2025-11-07 09:58:07.901198615
2025-11-07 09:58:05.734800,-1,2025-11-07 09:58:07.908890923
2025-11-07 09:58:05.734800,-110,2025-11-07 09:58:07.916583231
2025-11-07 09:58:05.734800,-26625,2025-11-07 09:58:07.924275538
2025-11-07 09:58:05.734800,-1,2025-11-07 09:58:07.931967846
2025-11-07 09:58:05.734800,-107,2025-11-07 09:58:07.939660154
2025-11-07 09:58:05.734800,-29185,2025-11-07 09:58:07.947352462
2025-11-07 09:58:05.734800,-1,2025-11-07 09:58:07.955044769
2025-11-07 09:58:05.734800,-112,2025-11-07 09:58:07.962737077
2025-11-07 09:58:05.734800,-27905,2025-11-07 09:58:07.970429385
2025-11-07 09:58:05.734800,-1,2025-11-07 09:58:07.978121692
2025-11-07 09:58:05.734800,-119,2025-11-07 09:58:07.985814000
2025-11-07 09:58:05.734800,-31489,2025-11-07 09:58:07.993506308
2025-11-07 09:58:05.734800,-1,2025-11-07 09:58:08.001198615
2025-11-07 09:58:05.734800,-124,2025-11-07 09:58:08.008890923
2025-11-07 09:58:06.336282,-134,2025-11-07 09:58:08.016583231
2025-11-07 09:58:06.336282,28415,2025-11-07 09:58:08.024275538
2025-11-07 09:58:06.336282,-1,2025-11-07 09:58:08.031967846
2025-11-07 09:58:06.336282,-143,2025-11-07 09:58:08.039660154
2025-11-07 09:58:06.336282,31487,2025-11-07 09:58:08.047352462
2025-11-07 09:58:06.336282,-1,2025-11-07 09:58:08.055044769
2025-11-07 09:58:06.336282,-119,2025-11-07 09:58:08.062737077
2025-11-07 09:58:06.336282,-24833,2025-11-07 09:58:08.070429385
2025-11-07 09:58:06.336282,-1,2025-11-07 09:58:08.078121692
2025-11-07 09:58:06.336282,-79,2025-11-07 09:58:08.085814000
2025-11-07 09:58:06.336282,-16897,2025-11-07 09:58:08.093506308
2025-11-07 09:58:06.336282,-1,2025-11-07 09:58:08.101198615
2025-11-07 09:58:06.336282,-50,2025-11-07 09:58:08.108890923
2025-11-07 09:58:06.336282,-6401,2025-11-07 09:58:08.116583231
2025-11-07 09:58:06.336282,-1,2025-11-07 09:58:08.124275538
2025-11-07 09:58:06.336282,-9,2025-11-07 09:58:08.131967846
2025-11-07 09:58:06.336282,767,2025-11-07 09:58:08.139660154
2025-11-07 09:58:06.336282,0,2025-11-07 09:58:08.147352462
2025-11-07 09:58:06.336282,19,2025-11-07 09:58:08.155044769
2025-11-07 09:58:06.336282,7936,2025-11-07 09:58:08.162737077
2025-11-07 09:58:06.336282,0,2025-11-07 09:58:08.170429385
2025-11-07 09:58:06.336282,40,2025-11-07 09:58:08.178121692
2025-11-07 09:58:06.336282,11520,2025-11-07 09:58:08.185814000
2025-11-07 09:58:06.336282,0,2025-11-07 09:58:08.193506308
2025-11-07 09:58:06.336282,50,2025-11-07 09:58:08.201198615
2025-11-07 09:58:06.336282,13312,2025-11-07 09:58:08.208890923
2025-11-07 09:58:06.336282,0,2025-11-07 09:58:08.216583231
2025-11-07 09:58:06.336282,50,2025-11-07 09:58:08.224275538
2025-11-07 09:58:06.336282,11520,2025-11-07 09:58:08.231967846
2025-11-07 09:58:06.336282,0,2025-11-07 09:58:08.239660154
2025-11-07 09:58:06.336282,45,2025-11-07 09:58:08.247352462
2025-11-07 09:58:06.336282,11520,2025-11-07 09:58:08.255044769
2025-11-07 09:58:06.336282,0,2025-11-07 09:58:08.262737077
2025-11-07 09:58:06.336282,47,2025-11-07 09:58:08.270429385
2025-11-07 09:58:06.336282,12032,2025-11-07 09:58:08.278121692
2025-11-07 09:58:06.336282,0,2025-11-07 09:58:08.285814000
2025-11-07 09:58:06.336282,45,2025-11-07 09:58:08.293506308
2025-11-07 09:58:06.336282,11520,2025-11-07 09:58:08.301198615
2025-11-07 09:58:06.336282,0,2025-11-07 09:58:08.308890923
2025-11-07 09:58:06.336282,45,2025-11-07 09:58:08.316583231
2025-11-07 09:58:06.336282,12032,2025-11-07 09:58:08.324275538
2025-11-07 09:58:06.336282,0,2025-11-07 09:58:08.331967846
2025-11-07 09:58:06.336282,45,2025-11-07 09:58:08.339660154
2025-11-07 09:58:06.336282,11520,2025-11-07 09:58:08.347352462
2025-11-07 09:58:06.336282,0,2025-11-07 09:58:08.355044769
2025-11-07 09:58:06.336282,45,2025-11-07 09:58:08.362737077
2025-11-07 09:58:06.336282,12032,2025-11-07 09:58:08.370429385
2025-11-07 09:58:06.336282,0,2025-11-07 09:58:08.378121692
2025-11-07 09:58:06.336282,50,2025-11-07 09:58:08.385814000
2025-11-07 09:58:06.336282,12800,2025-11-07 09:58:08.393506308
2025-11-07 09:58:06.336282,0,2025-11-07 09:58:08.401198615
2025-11-07 09:58:06.336282,47,2025-11-07 09:58:08.408890923
2025-11-07 09:58:06.336282,11520,2025-11-07 09:58:08.416583231
2025-11-07 09:58:06.336282,0,2025-11-07 09:58:08.424275538
2025-11-07 09:58:06.336282,38,2025-11-07 09:58:08.431967846
2025-11-07 09:58:06.336282,7168,2025-11-07 09:58:08.439660154
2025-11-07 09:58:06.336282,0,2025-11-07 09:58:08.447352462
2025-11-07 09:58:06.336282,23,2025-11-07 09:58:08.455044769
2025-11-07 09:58:06.336282,7936,2025-11-07 09:58:08.462737077
2025-11-07 09:58:06.336282,0,2025-11-07 09:58:08.470429385
2025-11-07 09:58:06.336282,64,2025-11-07 09:58:08.478121692
2025-11-07 09:58:06.336282,22528,2025-11-07 09:58:08.485814000
2025-11-07 09:58:06.336282,0,2025-11-07 09:58:08.493506308
2025-11-07 09:58:06.336282,76,2025-11-07 09:58:08.501198615
2025-11-07 09:58:06.336282,14080,2025-11-07 09:58:08.508890923
2025-11-07 09:58:06.336282,0,2025-11-07 09:58:08.516583230
2025-11-07 09:58:06.336282,55,2025-11-07 09:58:08.524275538
2025-11-07 09:58:06.336282,14080,2025-11-07 09:58:08.531967846
2025-11-07 09:58:06.336282,0,2025-11-07 09:58:08.539660154
2025-11-07 09:58:06.336282,59,2025-11-07 09:58:08.547352462
2025-11-07 09:58:06.336282,17664,2025-11-07 09:58:08.555044769
2025-11-07 09:58:06.336282,0,2025-11-07 09:58:08.562737077
2025-11-07 09:58:06.336282,67,2025-11-07 09:58:08.570429385
2025-11-07 09:58:06.336282,16384,2025-11-07 09:58:08.578121692
2025-11-07 09:58:06.336282,0,2025-11-07 09:58:08.585814000
2025-11-07 09:58:06.336282,38,2025-11-07 09:58:08.593506308
2025-11-07 09:58:06.336282,22016,2025-11-07 09:58:08.601198615
2025-11-07 09:58:06.336282,-1,2025-11-07 09:58:08.608890923
2025-11-07 09:58:06.336282,-534,2025-11-07 09:58:08.616583231
2025-11-07 09:58:06.336282,32767,2025-11-07 09:58:08.624275538
2025-11-07 09:58:06.336282,-2,2025-11-07 09:58:08.631967846
2025-11-07 09:58:06.336282,654,2025-11-07 09:58:08.639660154
2025-11-07 09:58:06.336282,-13568,2025-11-07 09:58:08.647352462
2025-11-07 09:58:06.336282,5,2025-11-07 09:58:08.655044769
2025-11-07 09:58:06.336282,1203,2025-11-07 09:58:08.662737077
2025-11-07 09:58:06.336282,16640,2025-11-07 09:58:08.670429385
2025-11-07 09:58:06.336282,2,2025-11-07 09:58:08.678121692
2025-11-07 09:58:06.336282,268,2025-11-07 09:58:08.685814000
2025-11-07 09:58:06.336282,15872,2025-11-07 09:58:08.693506308
2025-11-07 09:58:06.336282,0,2025-11-07 09:58:08.701198615
2025-11-07 09:58:06.336282,-83,2025-11-07 09:58:08.708890923
2025-11-07 09:58:06.336282,-26113,2025-11-07 09:58:08.716583231
2025-11-07 09:58:06.336282,-1,2025-11-07 09:58:08.724275538
2025-11-07 09:58:06.336282,-107,2025-11-07 09:58:08.731967846
2025-11-07 09:58:06.336282,-32257,2025-11-07 09:58:08.739660154
2025-11-07 09:58:06.336282,-1,2025-11-07 09:58:08.747352462
2025-11-07 09:58:06.336282,-124,2025-11-07 09:58:08.755044769
2025-11-07 09:58:06.336282,-30209,2025-11-07 09:58:08.762737077
2025-11-07 09:58:06.336282,-1,2025-11-07 09:58:08.770429385
2025-11-07 09:58:06.336282,-122,2025-11-07 09:58:08.778121692
2025-11-07 09:58:06.336282,-30977,2025-11-07 09:58:08.785814000
2025-11-07 09:58:06.336282,-1,2025-11-07 09:58:08.793506308
2025-11-07 09:58:06.336282,-119,2025-11-07 09:58:08.801198615
2025-11-07 09:58:06.336282,-30209,2025-11-07 09:58:08.808890923
2025-11-07 09:58:06.336282,-1,2025-11-07 09:58:08.816583231
2025-11-07 09:58:06.336282,-122,2025-11-07 09:58:08.824275538
2025-11-07 09:58:06.336282,-31489,2025-11-07 09:58:08.831967846
2025-11-07 09:58:06.336282,-1,2025-11-07 09:58:08.839660154
2025-11-07 09:58:06.336282,-129,2025-11-07 09:58:08.847352462
2025-11-07 09:58:06.885626,-136,2025-11-07 09:58:08.855044769
2025-11-07 09:58:06.885626,30207,2025-11-07 09:58:08.862737077
2025-11-07 09:58:06.885626,-1,2025-11-07 09:58:08.870429385
2025-11-07 09:58:06.885626,-148,2025-11-07 09:58:08.878121692
2025-11-07 09:58:06.885626,25343,2025-11-07 09:58:08.885814000
2025-11-07 09:58:06.885626,-1,2025-11-07 09:58:08.893506308
2025-11-07 09:58:06.885626,-160,2025-11-07 09:58:08.901198615
2025-11-07 09:58:06.885626,26111,2025-11-07 09:58:08.908890923
2025-11-07 09:58:06.885626,-1,2025-11-07 09:58:08.916583231
2025-11-07 09:58:06.885626,-143,2025-11-07 09:58:08.924275538
2025-11-07 09:58:06.885626,32255,2025-11-07 09:58:08.931967846
2025-11-07 09:58:06.885626,-1,2025-11-07 09:58:08.939660154
2025-11-07 09:58:06.885626,-122,2025-11-07 09:58:08.947352462
2025-11-07 09:58:06.885626,-26625,2025-11-07 09:58:08.955044769
2025-11-07 09:58:06.885626,-1,2025-11-07 09:58:08.962737077
2025-11-07 09:58:06.885626,-71,2025-11-07 09:58:08.970429385
2025-11-07 09:58:06.885626,-8193,2025-11-07 09:58:08.978121692
2025-11-07 09:58:06.885626,-1,2025-11-07 09:58:08.985814000
2025-11-07 09:58:06.885626,-14,2025-11-07 09:58:08.993506308
2025-11-07 09:58:06.885626,-257,2025-11-07 09:58:09.001198615
2025-11-07 09:58:06.885626,-1,2025-11-07 09:58:09.008890923
2025-11-07 09:58:06.885626,19,2025-11-07 09:58:09.016583231
2025-11-07 09:58:06.885626,9728,2025-11-07 09:58:09.024275538
2025-11-07 09:58:06.885626,0,2025-11-07 09:58:09.031967846
2025-11-07 09:58:06.885626,47,2025-11-07 09:58:09.039660154
2025-11-07 09:58:06.885626,14080,2025-11-07 09:58:09.047352462
2025-11-07 09:58:06.885626,0,2025-11-07 09:58:09.055044769
2025-11-07 09:58:06.885626,57,2025-11-07 09:58:09.062737077
2025-11-07 09:58:06.885626,15104,2025-11-07 09:58:09.070429385
2025-11-07 09:58:06.885626,0,2025-11-07 09:58:09.078121692
2025-11-07 09:58:06.885626,59,2025-11-07 09:58:09.085814000
2025-11-07 09:58:06.885626,14080,2025-11-07 09:58:09.093506308
2025-11-07 09:58:06.885626,0,2025-11-07 09:58:09.101198615
2025-11-07 09:58:06.885626,55,2025-11-07 09:58:09.108890923
2025-11-07 09:58:06.885626,14080,2025-11-07 09:58:09.116583231
2025-11-07 09:58:06.885626,0,2025-11-07 09:58:09.124275538
2025-11-07 09:58:06.885626,55,2025-11-07 09:58:09.131967846
2025-11-07 09:58:06.885626,12800,2025-11-07 09:58:09.139660154
2025-11-07 09:58:06.885626,0,2025-11-07 09:58:09.147352462
2025-11-07 09:58:06.885626,50,2025-11-07 09:58:09.155044769
2025-11-07 09:58:06.885626,13312,2025-11-07 09:58:09.162737077
2025-11-07 09:58:06.885626,0,2025-11-07 09:58:09.170429385
2025-11-07 09:58:06.885626,52,2025-11-07 09:58:09.178121692
2025-11-07 09:58:06.885626,13312,2025-11-07 09:58:09.185814000
2025-11-07 09:58:06.885626,0,2025-11-07 09:58:09.193506308
2025-11-07 09:58:06.885626,55,2025-11-07 09:58:09.201198615
2025-11-07 09:58:06.885626,13312,2025-11-07 09:58:09.208890923
2025-11-07 09:58:06.885626,0,2025-11-07 09:58:09.216583231
2025-11-07 09:58:06.885626,50,2025-11-07 09:58:09.224275538
2025-11-07 09:58:06.885626,13312,2025-11-07 09:58:09.231967846
2025-11-07 09:58:06.885626,0,2025-11-07 09:58:09.239660154
2025-11-07 09:58:06.885626,52,2025-11-07 09:58:09.247352462
2025-11-07 09:58:06.885626,12800,2025-11-07 09:58:09.255044769
2025-11-07 09:58:06.885626,0,2025-11-07 09:58:09.262737077
2025-11-07 09:58:06.885626,52,2025-11-07 09:58:09.270429385
2025-11-07 09:58:06.885626,13312,2025-11-07 09:58:09.278121692
2025-11-07 09:58:06.885626,0,2025-11-07 09:58:09.285814000
2025-11-07 09:58:06.885626,52,2025-11-07 09:58:09.293506308
2025-11-07 09:58:06.885626,12032,2025-11-07 09:58:09.301198615
2025-11-07 09:58:06.885626,0,2025-11-07 09:58:09.308890923
2025-11-07 09:58:06.885626,40,2025-11-07 09:58:09.316583231
2025-11-07 09:58:06.885626,7936,2025-11-07 09:58:09.324275538
2025-11-07 09:58:06.885626,0,2025-11-07 09:58:09.331967846
2025-11-07 09:58:06.885626,26,2025-11-07 09:58:09.339660154
2025-11-07 09:58:06.885626,9728,2025-11-07 09:58:09.347352462
2025-11-07 09:58:06.885626,0,2025-11-07 09:58:09.355044769
2025-11-07 09:58:06.885626,67,2025-11-07 09:58:09.362737077
2025-11-07 09:58:06.885626,22528,2025-11-07 09:58:09.370429385
2025-11-07 09:58:06.885626,0,2025-11-07 09:58:09.378121692
2025-11-07 09:58:06.885626,81,2025-11-07 09:58:09.385814000
2025-11-07 09:58:06.885626,16384,2025-11-07 09:58:09.393506308
2025-11-07 09:58:06.885626,0,2025-11-07 09:58:09.401198615
2025-11-07 09:58:06.885626,64,2025-11-07 09:58:09.408890923
2025-11-07 09:58:06.885626,17152,2025-11-07 09:58:09.416583231
2025-11-07 09:58:06.885626,0,2025-11-07 09:58:09.424275538
2025-11-07 09:58:06.885626,71,2025-11-07 09:58:09.431967846
2025-11-07 09:58:06.885626,18944,2025-11-07 09:58:09.439660154
2025-11-07 09:58:06.885626,0,2025-11-07 09:58:09.447352462
2025-11-07 09:58:06.885626,71,2025-11-07 09:58:09.455044769
2025-11-07 09:58:06.885626,17152,2025-11-07 09:58:09.462737077
2025-11-07 09:58:06.885626,0,2025-11-07 09:58:09.470429385
2025-11-07 09:58:06.885626,47,2025-11-07 09:58:09.478121692
2025-11-07 09:58:06.885626,-29952,2025-11-07 09:58:09.485814000
2025-11-07 09:58:06.885626,-1,2025-11-07 09:58:09.493506308
2025-11-07 09:58:06.885626,-481,2025-11-07 09:58:09.501198615
2025-11-07 09:58:06.885626,8191,2025-11-07 09:58:09.508890923
2025-11-07 09:58:06.885626,-2,2025-11-07 09:58:09.516583230
2025-11-07 09:58:06.885626,457,2025-11-07 09:58:09.524275538
2025-11-07 09:58:06.885626,-24064,2025-11-07 09:58:09.531967846
2025-11-07 09:58:06.885626,5,2025-11-07 09:58:09.539660154
2025-11-07 09:58:06.885626,1310,2025-11-07 09:58:09.547352462
2025-11-07 09:58:06.885626,-29952,2025-11-07 09:58:09.555044769
2025-11-07 09:58:06.885626,2,2025-11-07 09:58:09.562737077
2025-11-07 09:58:06.885626,301,2025-11-07 09:58:09.570429385
2025-11-07 09:58:06.885626,24320,2025-11-07 09:58:09.578121692
2025-11-07 09:58:06.885626,0,2025-11-07 09:58:09.585814000
2025-11-07 09:58:06.885626,-69,2025-11-07 09:58:09.593506308
2025-11-07 09:58:06.885626,-26113,2025-11-07 09:58:09.601198615
2025-11-07 09:58:06.885626,-1,2025-11-07 09:58:09.608890923
2025-11-07 09:58:06.885626,-103,2025-11-07 09:58:09.616583231
2025-11-07 09:58:06.885626,-31489,2025-11-07 09:58:09.624275538
2025-11-07 09:58:06.885626,-1,2025-11-07 09:58:09.631967846
2025-11-07 09:58:06.885626,-122,2025-11-07 09:58:09.639660154
2025-11-07 09:58:06.885626,-29185,2025-11-07 09:58:09.647352462
2025-11-07 09:58:06.885626,-1,2025-11-07 09:58:09.655044769
2025-11-07 09:58:06.885626,-122,2025-11-07 09:58:09.662737077
2025-11-07 09:58:06.885626,-31489,2025-11-07 09:58:09.670429385
2025-11-07 09:58:06.885626,-1,2025-11-07 09:58:09.678121692
2025-11-07 09:58:06.885626,-119,2025-11-07 09:58:09.685814000
2025-11-07 09:58:07.483071,-124,2025-11-07 09:58:09.693506308
2025-11-07 09:58:07.483071,-31489,2025-11-07 09:58:09.701198615
2025-11-07 09:58:07.483071,-1,2025-11-07 09:58:09.708890923
2025-11-07 09:58:07.483071,-124,2025-11-07 09:58:09.716583231
2025-11-07 09:58:07.483071,32255,2025-11-07 09:58:09.724275538
2025-11-07 09:58:07.483071,-1,2025-11-07 09:58:09.731967846
2025-11-07 09:58:07.483071,-136,2025-11-07 09:58:09.739660154
2025-11-07 09:58:07.483071,29183,2025-11-07 09:58:09.747352462
2025-11-07 09:58:07.483071,-1,2025-11-07 09:58:09.755044769
2025-11-07 09:58:07.483071,-150,2025-11-07 09:58:09.762737077
2025-11-07 09:58:07.483071,26111,2025-11-07 09:58:09.770429385
2025-11-07 09:58:07.483071,-1,2025-11-07 09:58:09.778121692
2025-11-07 09:58:07.483071,-150,2025-11-07 09:58:09.785814000
2025-11-07 09:58:07.483071,30975,2025-11-07 09:58:09.793506308
2025-11-07 09:58:07.483071,-1,2025-11-07 09:58:09.801198615
2025-11-07 09:58:07.483071,-124,2025-11-07 09:58:09.808890923
2025-11-07 09:58:07.483071,-29697,2025-11-07 09:58:09.816583231
2025-11-07 09:58:07.483071,-1,2025-11-07 09:58:09.824275538
2025-11-07 09:58:07.483071,-105,2025-11-07 09:58:09.831967846
2025-11-07 09:58:07.483071,-22273,2025-11-07 09:58:09.839660154
2025-11-07 09:58:07.483071,-1,2025-11-07 09:58:09.847352462
2025-11-07 09:58:07.483071,-69,2025-11-07 09:58:09.855044769
2025-11-07 09:58:07.483071,-11777,2025-11-07 09:58:09.862737077
2025-11-07 09:58:07.483071,-1,2025-11-07 09:58:09.870429385
2025-11-07 09:58:07.483071,-23,2025-11-07 09:58:09.878121692
2025-11-07 09:58:07.483071,-769,2025-11-07 09:58:09.885814000
2025-11-07 09:58:07.483071,-1,2025-11-07 09:58:09.893506308
2025-11-07 09:58:07.483071,11,2025-11-07 09:58:09.901198615
2025-11-07 09:58:07.483071,7936,2025-11-07 09:58:09.908890923
2025-11-07 09:58:07.483071,0,2025-11-07 09:58:09.916583231
2025-11-07 09:58:07.483071,43,2025-11-07 09:58:09.924275538
2025-11-07 09:58:07.483071,12800,2025-11-07 09:58:09.931967846
2025-11-07 09:58:07.483071,0,2025-11-07 09:58:09.939660154
2025-11-07 09:58:07.483071,55,2025-11-07 09:58:09.947352462
2025-11-07 09:58:07.483071,14080,2025-11-07 09:58:09.955044769
2025-11-07 09:58:07.483071,0,2025-11-07 09:58:09.962737077
2025-11-07 09:58:07.483071,55,2025-11-07 09:58:09.970429385
2025-11-07 09:58:07.483071,14080,2025-11-07 09:58:09.978121692
2025-11-07 09:58:07.483071,0,2025-11-07 09:58:09.985814000
2025-11-07 09:58:07.483071,50,2025-11-07 09:58:09.993506308
2025-11-07 09:58:07.483071,12800,2025-11-07 09:58:10.001198615
2025-11-07 09:58:07.483071,0,2025-11-07 09:58:10.008890923
2025-11-07 09:58:07.483071,50,2025-11-07 09:58:10.016583231
2025-11-07 09:58:07.483071,12032,2025-11-07 09:58:10.024275538
2025-11-07 09:58:07.483071,0,2025-11-07 09:58:10.031967846
2025-11-07 09:58:07.483071,47,2025-11-07 09:58:10.039660154
2025-11-07 09:58:07.483071,12032,2025-11-07 09:58:10.047352462
2025-11-07 09:58:07.483071,0,2025-11-07 09:58:10.055044769
2025-11-07 09:58:07.483071,47,2025-11-07 09:58:10.062737077
2025-11-07 09:58:07.483071,11520,2025-11-07 09:58:10.070429385
2025-11-07 09:58:07.483071,0,2025-11-07 09:58:10.078121692
2025-11-07 09:58:07.483071,45,2025-11-07 09:58:10.085814000
2025-11-07 09:58:07.483071,12032,2025-11-07 09:58:10.093506308
2025-11-07 09:58:07.483071,0,2025-11-07 09:58:10.101198615
2025-11-07 09:58:07.483071,45,2025-11-07 09:58:10.108890923
2025-11-07 09:58:07.483071,11520,2025-11-07 09:58:10.116583231
2025-11-07 09:58:07.483071,0,2025-11-07 09:58:10.124275538
2025-11-07 09:58:07.483071,45,2025-11-07 09:58:10.131967846
2025-11-07 09:58:07.483071,11520,2025-11-07 09:58:10.139660154
2025-11-07 09:58:07.483071,0,2025-11-07 09:58:10.147352462
2025-11-07 09:58:07.483071,45,2025-11-07 09:58:10.155044769
2025-11-07 09:58:07.483071,12032,2025-11-07 09:58:10.162737077
2025-11-07 09:58:07.483071,0,2025-11-07 09:58:10.170429385
2025-11-07 09:58:07.483071,55,2025-11-07 09:58:10.178121692
2025-11-07 09:58:07.483071,15104,2025-11-07 09:58:10.185814000
2025-11-07 09:58:07.483071,0,2025-11-07 09:58:10.193506308
2025-11-07 09:58:07.483071,57,2025-11-07 09:58:10.201198615
2025-11-07 09:58:07.483071,14080,2025-11-07 09:58:10.208890923
2025-11-07 09:58:07.483071,0,2025-11-07 09:58:10.216583231
2025-11-07 09:58:07.483071,57,2025-11-07 09:58:10.224275538
2025-11-07 09:58:07.483071,13312,2025-11-07 09:58:10.231967846
2025-11-07 09:58:07.483071,0,2025-11-07 09:58:10.239660154
2025-11-07 09:58:07.483071,45,2025-11-07 09:58:10.247352462
2025-11-07 09:58:07.483071,10240,2025-11-07 09:58:10.255044769
2025-11-07 09:58:07.483071,0,2025-11-07 09:58:10.262737077
2025-11-07 09:58:07.483071,35,2025-11-07 09:58:10.270429385
2025-11-07 09:58:07.483071,11008,2025-11-07 09:58:10.278121692
2025-11-07 09:58:07.483071,0,2025-11-07 09:58:10.285814000
2025-11-07 09:58:07.483071,69,2025-11-07 09:58:10.293506308
2025-11-07 09:58:07.483071,23296,2025-11-07 09:58:10.301198615
2025-11-07 09:58:07.483071,0,2025-11-07 09:58:10.308890923
2025-11-07 09:58:07.483071,83,2025-11-07 09:58:10.316583231
2025-11-07 09:58:07.483071,17664,2025-11-07 09:58:10.324275538
2025-11-07 09:58:07.483071,0,2025-11-07 09:58:10.331967846
2025-11-07 09:58:07.483071,67,2025-11-07 09:58:10.339660154
2025-11-07 09:58:07.483071,16384,2025-11-07 09:58:10.347352462
2025-11-07 09:58:07.483071,0,2025-11-07 09:58:10.355044769
2025-11-07 09:58:07.483071,59,2025-11-07 09:58:10.362737077
2025-11-07 09:58:07.483071,15872,2025-11-07 09:58:10.370429385
2025-11-07 09:58:07.483071,0,2025-11-07 09:58:10.378121692
2025-11-07 09:58:07.483071,62,2025-11-07 09:58:10.385814000
2025-11-07 09:58:07.483071,16384,2025-11-07 09:58:10.393506308
2025-11-07 09:58:07.483071,0,2025-11-07 09:58:10.401198615
2025-11-07 09:58:07.483071,50,2025-11-07 09:58:10.408890923
2025-11-07 09:58:07.483071,-23808,2025-11-07 09:58:10.416583231
2025-11-07 09:58:07.483071,-1,2025-11-07 09:58:10.424275538
2025-11-07 09:58:07.483071,-452,2025-11-07 09:58:10.431967846
2025-11-07 09:58:07.483071,-3585,2025-11-07 09:58:10.439660154
2025-11-07 09:58:07.483071,-3,2025-11-07 09:58:10.447352462
2025-11-07 09:58:07.483071,369,2025-11-07 09:58:10.455044769
2025-11-07 09:58:07.483071,-15360,2025-11-07 09:58:10.462737077
2025-11-07 09:58:07.483071,5,2025-11-07 09:58:10.470429385
2025-11-07 09:58:07.483071,1457,2025-11-07 09:58:10.478121692
2025-11-07 09:58:07.483071,-10240,2025-11-07 09:58:10.485814000
2025-11-07 09:58:07.483071,2,2025-11-07 09:58:10.493506308
2025-11-07 09:58:07.483071,285,2025-11-07 09:58:10.501198615
2025-11-07 09:58:07.483071,20736,2025-11-07 09:58:10.508890923
2025-11-07 09:58:07.483071,0,2025-11-07 09:58:10.516583230
2025-11-07 09:58:07.483071,-79,2025-11-07 09:58:10.524275538
2025-11-07 09:58:08.081201,-124,2025-11-07 09:58:10.531967846
2025-11-07 09:58:08.081201,-30977,2025-11-07 09:58:10.539660154
2025-11-07 09:58:08.081201,-1,2025-11-07 09:58:10.547352462
2025-11-07 09:58:08.081201,-141,2025-11-07 09:58:10.555044769
2025-11-07 09:58:08.081201,28415,2025-11-07 09:58:10.562737077
2025-11-07 09:58:08.081201,-1,2025-11-07 09:58:10.570429385
2025-11-07 09:58:08.081201,-136,2025-11-07 09:58:10.578121692
2025-11-07 09:58:08.081201,30207,2025-11-07 09:58:10.585814000
2025-11-07 09:58:08.081201,-1,2025-11-07 09:58:10.593506308
2025-11-07 09:58:08.081201,-139,2025-11-07 09:58:10.601198615
2025-11-07 09:58:08.081201,32767,2025-11-07 09:58:10.608890923
2025-11-07 09:58:08.081201,-1,2025-11-07 09:58:10.616583231
2025-11-07 09:58:08.081201,-124,2025-11-07 09:58:10.624275538
2025-11-07 09:58:08.081201,-32257,2025-11-07 09:58:10.631967846
2025-11-07 09:58:08.081201,-1,2025-11-07 09:58:10.639660154
2025-11-07 09:58:08.081201,-131,2025-11-07 09:58:10.647352462
2025-11-07 09:58:08.081201,31487,2025-11-07 09:58:10.655044769
2025-11-07 09:58:08.081201,-1,2025-11-07 09:58:10.662737077
2025-11-07 09:58:08.081201,-141,2025-11-07 09:58:10.670429385
2025-11-07 09:58:08.081201,27903,2025-11-07 09:58:10.678121692
2025-11-07 09:58:08.081201,-1,2025-11-07 09:58:10.685814000
2025-11-07 09:58:08.081201,-150,2025-11-07 09:58:10.693506308
2025-11-07 09:58:08.081201,26111,2025-11-07 09:58:10.701198615
2025-11-07 09:58:08.081201,-1,2025-11-07 09:58:10.708890923
2025-11-07 09:58:08.081201,-160,2025-11-07 09:58:10.716583231
2025-11-07 09:58:08.081201,24319,2025-11-07 09:58:10.724275538
2025-11-07 09:58:08.081201,-1,2025-11-07 09:58:10.731967846
2025-11-07 09:58:08.081201,-155,2025-11-07 09:58:10.739660154
2025-11-07 09:58:08.081201,29695,2025-11-07 09:58:10.747352462
2025-11-07 09:58:08.081201,-1,2025-11-07 09:58:10.755044769
2025-11-07 09:58:08.081201,-129,2025-11-07 09:58:10.762737077
2025-11-07 09:58:08.081201,-28417,2025-11-07 09:58:10.770429385
2025-11-07 09:58:08.081201,-1,2025-11-07 09:58:10.778121692
2025-11-07 09:58:08.081201,-93,2025-11-07 09:58:10.785814000
2025-11-07 09:58:08.081201,-17409,2025-11-07 09:58:10.793506308
2025-11-07 09:58:08.081201,-1,2025-11-07 09:58:10.801198615
2025-11-07 09:58:08.081201,-43,2025-11-07 09:58:10.808890923
2025-11-07 09:58:08.081201,-4609,2025-11-07 09:58:10.816583231
2025-11-07 09:58:08.081201,-1,2025-11-07 09:58:10.824275538
2025-11-07 09:58:08.081201,4,2025-11-07 09:58:10.831967846
2025-11-07 09:58:08.081201,6656,2025-11-07 09:58:10.839660154
2025-11-07 09:58:08.081201,0,2025-11-07 09:58:10.847352462
2025-11-07 09:58:08.081201,38,2025-11-07 09:58:10.855044769
2025-11-07 09:58:08.081201,12032,2025-11-07 09:58:10.862737077
2025-11-07 09:58:08.081201,0,2025-11-07 09:58:10.870429385
2025-11-07 09:58:08.081201,55,2025-11-07 09:58:10.878121692
2025-11-07 09:58:08.081201,14592,2025-11-07 09:58:10.885814000
2025-11-07 09:58:08.081201,0,2025-11-07 09:58:10.893506308
2025-11-07 09:58:08.081201,57,2025-11-07 09:58:10.901198615
2025-11-07 09:58:08.081201,14080,2025-11-07 09:58:10.908890923
2025-11-07 09:58:08.081201,0,2025-11-07 09:58:10.916583231
2025-11-07 09:58:08.081201,57,2025-11-07 09:58:10.924275538
2025-11-07 09:58:08.081201,15872,2025-11-07 09:58:10.931967846
2025-11-07 09:58:08.081201,0,2025-11-07 09:58:10.939660154
2025-11-07 09:58:08.081201,64,2025-11-07 09:58:10.947352462
2025-11-07 09:58:08.081201,15104,2025-11-07 09:58:10.955044769
2025-11-07 09:58:08.081201,0,2025-11-07 09:58:10.962737077
2025-11-07 09:58:08.081201,55,2025-11-07 09:58:10.970429385
2025-11-07 09:58:08.081201,13312,2025-11-07 09:58:10.978121692
2025-11-07 09:58:08.081201,0,2025-11-07 09:58:10.985814000
2025-11-07 09:58:08.081201,52,2025-11-07 09:58:10.993506308
2025-11-07 09:58:08.081201,14080,2025-11-07 09:58:11.001198615
2025-11-07 09:58:08.081201,0,2025-11-07 09:58:11.008890923
2025-11-07 09:58:08.081201,55,2025-11-07 09:58:11.016583231
2025-11-07 09:58:08.081201,13312,2025-11-07 09:58:11.024275538
2025-11-07 09:58:08.081201,0,2025-11-07 09:58:11.031967846
2025-11-07 09:58:08.081201,50,2025-11-07 09:58:11.039660154
2025-11-07 09:58:08.081201,13312,2025-11-07 09:58:11.047352462
2025-11-07 09:58:08.081201,0,2025-11-07 09:58:11.055044769
2025-11-07 09:58:08.081201,55,2025-11-07 09:58:11.062737077
2025-11-07 09:58:08.081201,14592,2025-11-07 09:58:11.070429385
2025-11-07 09:58:08.081201,0,2025-11-07 09:58:11.078121692
2025-11-07 09:58:08.081201,62,2025-11-07 09:58:11.085814000
2025-11-07 09:58:08.081201,16384,2025-11-07 09:58:11.093506308
2025-11-07 09:58:08.081201,0,2025-11-07 09:58:11.101198615
2025-11-07 09:58:08.081201,64,2025-11-07 09:58:11.108890923
2025-11-07 09:58:08.081201,16384,2025-11-07 09:58:11.116583231
2025-11-07 09:58:08.081201,0,2025-11-07 09:58:11.124275538
2025-11-07 09:58:08.081201,64,2025-11-07 09:58:11.131967846
2025-11-07 09:58:08.081201,15104,2025-11-07 09:58:11.139660154
2025-11-07 09:58:08.081201,0,2025-11-07 09:58:11.147352462
2025-11-07 09:58:08.081201,52,2025-11-07 09:58:11.155044769
2025-11-07 09:58:08.081201,11008,2025-11-07 09:58:11.162737077
2025-11-07 09:58:08.081201,0,2025-11-07 09:58:11.170429385
2025-11-07 09:58:08.081201,33,2025-11-07 09:58:11.178121692
2025-11-07 09:58:08.081201,11008,2025-11-07 09:58:11.185814000
2025-11-07 09:58:08.081201,0,2025-11-07 09:58:11.193506308
2025-11-07 09:58:08.081201,71,2025-11-07 09:58:11.201198615
2025-11-07 09:58:08.081201,23296,2025-11-07 09:58:11.208890923
2025-11-07 09:58:08.081201,0,2025-11-07 09:58:11.216583231
2025-11-07 09:58:08.081201,86,2025-11-07 09:58:11.224275538
2025-11-07 09:58:08.081201,17664,2025-11-07 09:58:11.231967846
2025-11-07 09:58:08.081201,0,2025-11-07 09:58:11.239660154
2025-11-07 09:58:08.081201,67,2025-11-07 09:58:11.247352462
2025-11-07 09:58:08.081201,16384,2025-11-07 09:58:11.255044769
2025-11-07 09:58:08.081201,0,2025-11-07 09:58:11.262737077
2025-11-07 09:58:08.081201,62,2025-11-07 09:58:11.270429385
2025-11-07 09:58:08.081201,17152,2025-11-07 09:58:11.278121692
2025-11-07 09:58:08.081201,0,2025-11-07 09:58:11.285814000
2025-11-07 09:58:08.081201,71,2025-11-07 09:58:11.293506308
2025-11-07 09:58:08.081201,16384,2025-11-07 09:58:11.301198615
2025-11-07 09:58:08.081201,0,2025-11-07 09:58:11.308890923
2025-11-07 09:58:08.081201,35,2025-11-07 09:58:11.316583231
2025-11-07 09:58:08.081201,25088,2025-11-07 09:58:11.324275538
2025-11-07 09:58:08.081201,-1,2025-11-07 09:58:11.331967846
2025-11-07 09:58:08.081201,-527,2025-11-07 09:58:11.339660154
2025-11-07 09:58:08.081201,28927,2025-11-07 09:58:11.347352462
2025-11-07 09:58:08.081201,-2,2025-11-07 09:58:11.355044769
2025-11-07 09:58:08.081201,692,2025-11-07 09:58:11.362737077
2025-11-07 09:58:08.534963,1632,2025-11-07 09:58:11.370429385
2025-11-07 09:58:08.534963,13312,2025-11-07 09:58:11.378121692
2025-11-07 09:58:08.534963,5,2025-11-07 09:58:11.385814000
2025-11-07 09:58:08.534963,579,2025-11-07 09:58:11.393506308
2025-11-07 09:58:08.534963,-11008,2025-11-07 09:58:11.401198615
2025-11-07 09:58:08.534963,0,2025-11-07 09:58:11.408890923
2025-11-07 09:58:08.534963,31,2025-11-07 09:58:11.416583231
2025-11-07 09:58:08.534963,-26368,2025-11-07 09:58:11.424275538
2025-11-07 09:58:08.534963,-1,2025-11-07 09:58:11.431967846
2025-11-07 09:58:08.534963,-122,2025-11-07 09:58:11.439660154
2025-11-07 09:58:08.534963,-30209,2025-11-07 09:58:11.447352462
2025-11-07 09:58:08.534963,-1,2025-11-07 09:58:11.455044769
2025-11-07 09:58:08.534963,-139,2025-11-07 09:58:11.462737077
2025-11-07 09:58:08.534963,30207,2025-11-07 09:58:11.470429385
2025-11-07 09:58:08.534963,-1,2025-11-07 09:58:11.478121692
2025-11-07 09:58:08.534963,-131,2025-11-07 09:58:11.485814000
2025-11-07 09:58:08.534963,32255,2025-11-07 09:58:11.493506308
2025-11-07 09:58:08.534963,-1,2025-11-07 09:58:11.501198615
2025-11-07 09:58:08.534963,-127,2025-11-07 09:58:11.508890923
2025-11-07 09:58:08.534963,-29697,2025-11-07 09:58:11.516583230
2025-11-07 09:58:08.534963,-1,2025-11-07 09:58:11.524275538
2025-11-07 09:58:08.534963,-122,2025-11-07 09:58:11.531967846
2025-11-07 09:58:08.534963,32767,2025-11-07 09:58:11.539660154
2025-11-07 09:58:08.534963,-1,2025-11-07 09:58:11.547352462
2025-11-07 09:58:08.534963,-129,2025-11-07 09:58:11.555044769
2025-11-07 09:58:08.534963,31487,2025-11-07 09:58:11.562737077
2025-11-07 09:58:08.534963,-1,2025-11-07 09:58:11.570429385
2025-11-07 09:58:08.534963,-141,2025-11-07 09:58:11.578121692
2025-11-07 09:58:08.534963,28415,2025-11-07 09:58:11.585814000
2025-11-07 09:58:08.534963,-1,2025-11-07 09:58:11.593506308
2025-11-07 09:58:08.534963,-155,2025-11-07 09:58:11.601198615
2025-11-07 09:58:08.534963,23039,2025-11-07 09:58:11.608890923
2025-11-07 09:58:08.534963,-1,2025-11-07 09:58:11.616583231
2025-11-07 09:58:08.534963,-172,2025-11-07 09:58:11.624275538
2025-11-07 09:58:08.534963,23039,2025-11-07 09:58:11.631967846
2025-11-07 09:58:08.534963,-1,2025-11-07 09:58:11.639660154
2025-11-07 09:58:08.534963,-158,2025-11-07 09:58:11.647352462
2025-11-07 09:58:08.534963,29183,2025-11-07 09:58:11.655044769
2025-11-07 09:58:08.534963,-1,2025-11-07 09:58:11.662737077
2025-11-07 09:58:08.534963,-129,2025-11-07 09:58:11.670429385
2025-11-07 09:58:08.534963,-28417,2025-11-07 09:58:11.678121692
2025-11-07 09:58:08.534963,-1,2025-11-07 09:58:11.685814000
2025-11-07 09:58:08.534963,-88,2025-11-07 09:58:11.693506308
2025-11-07 09:58:08.534963,-13825,2025-11-07 09:58:11.701198615
2025-11-07 09:58:08.534963,-1,2025-11-07 09:58:11.708890923
2025-11-07 09:58:08.534963,-26,2025-11-07 09:58:11.716583231
2025-11-07 09:58:08.534963,-769,2025-11-07 09:58:11.724275538
2025-11-07 09:58:08.534963,-1,2025-11-07 09:58:11.731967846
2025-11-07 09:58:08.534963,19,2025-11-07 09:58:11.739660154
2025-11-07 09:58:08.534963,10240,2025-11-07 09:58:11.747352462
2025-11-07 09:58:08.534963,0,2025-11-07 09:58:11.755044769
2025-11-07 09:58:08.534963,52,2025-11-07 09:58:11.762737077
2025-11-07 09:58:08.534963,15872,2025-11-07 09:58:11.770429385
2025-11-07 09:58:08.534963,0,2025-11-07 09:58:11.778121692
2025-11-07 09:58:08.534963,67,2025-11-07 09:58:11.785814000
2025-11-07 09:58:08.534963,17152,2025-11-07 09:58:11.793506308
2025-11-07 09:58:08.534963,0,2025-11-07 09:58:11.801198615
2025-11-07 09:58:08.534963,67,2025-11-07 09:58:11.808890923
2025-11-07 09:58:08.534963,17152,2025-11-07 09:58:11.816583231
2025-11-07 09:58:08.534963,0,2025-11-07 09:58:11.824275538
2025-11-07 09:58:08.534963,64,2025-11-07 09:58:11.831967846
2025-11-07 09:58:08.534963,15872,2025-11-07 09:58:11.839660154
2025-11-07 09:58:08.534963,0,2025-11-07 09:58:11.847352462
2025-11-07 09:58:08.534963,59,2025-11-07 09:58:11.855044769
2025-11-07 09:58:08.534963,14080,2025-11-07 09:58:11.862737077
2025-11-07 09:58:08.534963,0,2025-11-07 09:58:11.870429385
2025-11-07 09:58:08.534963,52,2025-11-07 09:58:11.878121692
2025-11-07 09:58:08.534963,13312,2025-11-07 09:58:11.885814000
2025-11-07 09:58:08.534963,0,2025-11-07 09:58:11.893506308
2025-11-07 09:58:08.534963,50,2025-11-07 09:58:11.901198615
2025-11-07 09:58:08.534963,12032,2025-11-07 09:58:11.908890923
2025-11-07 09:58:08.534963,0,2025-11-07 09:58:11.916583231
2025-11-07 09:58:08.534963,47,2025-11-07 09:58:11.924275538
2025-11-07 09:58:08.534963,12032,2025-11-07 09:58:11.931967846
2025-11-07 09:58:08.534963,0,2025-11-07 09:58:11.939660154
2025-11-07 09:58:08.534963,50,2025-11-07 09:58:11.947352462
2025-11-07 09:58:08.534963,14592,2025-11-07 09:58:11.955044769
2025-11-07 09:58:08.534963,0,2025-11-07 09:58:11.962737077
2025-11-07 09:58:08.534963,59,2025-11-07 09:58:11.970429385
2025-11-07 09:58:08.534963,15872,2025-11-07 09:58:11.978121692
2025-11-07 09:58:08.534963,0,2025-11-07 09:58:11.985814000
2025-11-07 09:58:08.534963,59,2025-11-07 09:58:11.993506308
2025-11-07 09:58:08.534963,14080,2025-11-07 09:58:12.001198615
2025-11-07 09:58:08.534963,0,2025-11-07 09:58:12.008890923
2025-11-07 09:58:08.534963,47,2025-11-07 09:58:12.016583231
2025-11-07 09:58:08.534963,10240,2025-11-07 09:58:12.024275538
2025-11-07 09:58:08.534963,0,2025-11-07 09:58:12.031967846
2025-11-07 09:58:08.534963,33,2025-11-07 09:58:12.039660154
2025-11-07 09:58:08.534963,10240,2025-11-07 09:58:12.047352462
2025-11-07 09:58:08.534963,0,2025-11-07 09:58:12.055044769
2025-11-07 09:58:08.534963,69,2025-11-07 09:58:12.062737077
2025-11-07 09:58:08.534963,23296,2025-11-07 09:58:12.070429385
2025-11-07 09:58:08.534963,0,2025-11-07 09:58:12.078121692
2025-11-07 09:58:08.534963,86,2025-11-07 09:58:12.085814000
2025-11-07 09:58:08.534963,17664,2025-11-07 09:58:12.093506308
2025-11-07 09:58:08.534963,0,2025-11-07 09:58:12.101198615
2025-11-07 09:58:08.534963,67,2025-11-07 09:58:12.108890923
2025-11-07 09:58:08.534963,17664,2025-11-07 09:58:12.116583231
2025-11-07 09:58:08.534963,0,2025-11-07 09:58:12.124275538
2025-11-07 09:58:08.534963,69,2025-11-07 09:58:12.131967846
2025-11-07 09:58:08.534963,17664,2025-11-07 09:58:12.139660154
2025-11-07 09:58:08.534963,0,2025-11-07 09:58:12.147352462
2025-11-07 09:58:08.534963,69,2025-11-07 09:58:12.155044769
2025-11-07 09:58:08.534963,16384,2025-11-07 09:58:12.162737077
2025-11-07 09:58:08.534963,0,2025-11-07 09:58:12.170429385
2025-11-07 09:58:08.534963,45,2025-11-07 09:58:12.178121692
2025-11-07 09:58:08.534963,-30464,2025-11-07 09:58:12.185814000
2025-11-07 09:58:08.534963,-1,2025-11-07 09:58:12.193506308
2025-11-07 09:58:08.534963,-476,2025-11-07 09:58:12.201198615
2025-11-07 09:58:09.085509,-433,2025-11-07 09:58:12.208890923
2025-11-07 09:58:09.085509,17407,2025-11-07 09:58:12.216583231
2025-11-07 09:58:09.085509,2,2025-11-07 09:58:12.224275538
2025-11-07 09:58:09.085509,1584,2025-11-07 09:58:12.231967846
2025-11-07 09:58:09.085509,22528,2025-11-07 09:58:12.239660154
2025-11-07 09:58:09.085509,5,2025-11-07 09:58:12.247352462
2025-11-07 09:58:09.085509,618,2025-11-07 09:58:12.255044769
2025-11-07 09:58:09.085509,0,2025-11-07 09:58:12.262737077
2025-11-07 09:58:09.085509,1,2025-11-07 09:58:12.270429385
2025-11-07 09:58:09.085509,71,2025-11-07 09:58:12.278121692
2025-11-07 09:58:09.085509,-23296,2025-11-07 09:58:12.285814000
2025-11-07 09:58:09.085509,-1,2025-11-07 09:58:12.293506308
2025-11-07 09:58:09.085509,-122,2025-11-07 09:58:12.301198615
2025-11-07 09:58:09.085509,-28417,2025-11-07 09:58:12.308890923
2025-11-07 09:58:09.085509,-1,2025-11-07 09:58:12.316583231
2025-11-07 09:58:09.085509,-134,2025-11-07 09:58:12.324275538
2025-11-07 09:58:09.085509,32255,2025-11-07 09:58:12.331967846
2025-11-07 09:58:09.085509,-1,2025-11-07 09:58:12.339660154
2025-11-07 09:58:09.085509,-124,2025-11-07 09:58:12.347352462
2025-11-07 09:58:09.085509,-32257,2025-11-07 09:58:12.355044769
2025-11-07 09:58:09.085509,-1,2025-11-07 09:58:12.362737077
2025-11-07 09:58:09.085509,-127,2025-11-07 09:58:12.370429385
2025-11-07 09:58:09.085509,-30977,2025-11-07 09:58:12.378121692
2025-11-07 09:58:09.085509,-1,2025-11-07 09:58:12.385814000
2025-11-07 09:58:09.085509,-122,2025-11-07 09:58:12.393506308
2025-11-07 09:58:09.085509,-31489,2025-11-07 09:58:12.401198615
2025-11-07 09:58:09.085509,-1,2025-11-07 09:58:12.408890923
2025-11-07 09:58:09.085509,-127,2025-11-07 09:58:12.416583231
2025-11-07 09:58:09.085509,31487,2025-11-07 09:58:12.424275538
2025-11-07 09:58:09.085509,-1,2025-11-07 09:58:12.431967846
2025-11-07 09:58:09.085509,-141,2025-11-07 09:58:12.439660154
2025-11-07 09:58:09.085509,29183,2025-11-07 09:58:12.447352462
2025-11-07 09:58:09.085509,-1,2025-11-07 09:58:12.455044769
2025-11-07 09:58:09.085509,-148,2025-11-07 09:58:12.462737077
2025-11-07 09:58:09.085509,25343,2025-11-07 09:58:12.470429385
2025-11-07 09:58:09.085509,-1,2025-11-07 09:58:12.478121692
2025-11-07 09:58:09.085509,-162,2025-11-07 09:58:12.485814000
2025-11-07 09:58:09.085509,24319,2025-11-07 09:58:12.493506308
2025-11-07 09:58:09.085509,-1,2025-11-07 09:58:12.501198615
2025-11-07 09:58:09.085509,-155,2025-11-07 09:58:12.508890923
2025-11-07 09:58:09.085509,29183,2025-11-07 09:58:12.516583230
2025-11-07 09:58:09.085509,-1,2025-11-07 09:58:12.524275538
2025-11-07 09:58:09.085509,-129,2025-11-07 09:58:12.531967846
2025-11-07 09:58:09.085509,-27905,2025-11-07 09:58:12.539660154
2025-11-07 09:58:09.085509,-1,2025-11-07 09:58:12.547352462
2025-11-07 09:58:09.085509,-88,2025-11-07 09:58:12.555044769
2025-11-07 09:58:09.085509,-15617,2025-11-07 09:58:12.562737077
2025-11-07 09:58:09.085509,-1,2025-11-07 09:58:12.570429385
2025-11-07 09:58:09.085509,-35,2025-11-07 09:58:12.578121692
2025-11-07 09:58:09.085509,-2561,2025-11-07 09:58:12.585814000
2025-11-07 09:58:09.085509,-1,2025-11-07 09:58:12.593506308
2025-11-07 09:58:09.085509,9,2025-11-07 09:58:12.601198615
2025-11-07 09:58:09.085509,6656,2025-11-07 09:58:12.608890923
2025-11-07 09:58:09.085509,0,2025-11-07 09:58:12.616583231
2025-11-07 09:58:09.085509,40,2025-11-07 09:58:12.624275538
2025-11-07 09:58:09.085509,12800,2025-11-07 09:58:12.631967846
2025-11-07 09:58:09.085509,0,2025-11-07 09:58:12.639660154
2025-11-07 09:58:09.085509,50,2025-11-07 09:58:12.647352462
2025-11-07 09:58:09.085509,13312,2025-11-07 09:58:12.655044769
2025-11-07 09:58:09.085509,0,2025-11-07 09:58:12.662737077
2025-11-07 09:58:09.085509,52,2025-11-07 09:58:12.670429385
2025-11-07 09:58:09.085509,12800,2025-11-07 09:58:12.678121692
2025-11-07 09:58:09.085509,0,2025-11-07 09:58:12.685814000
2025-11-07 09:58:09.085509,52,2025-11-07 09:58:12.693506308
2025-11-07 09:58:09.085509,13312,2025-11-07 09:58:12.701198615
2025-11-07 09:58:09.085509,0,2025-11-07 09:58:12.708890923
2025-11-07 09:58:09.085509,50,2025-11-07 09:58:12.716583231
2025-11-07 09:58:09.085509,12032,2025-11-07 09:58:12.724275538
2025-11-07 09:58:09.085509,0,2025-11-07 09:58:12.731967846
2025-11-07 09:58:09.085509,45,2025-11-07 09:58:12.739660154
2025-11-07 09:58:09.085509,11008,2025-11-07 09:58:12.747352462
2025-11-07 09:58:09.085509,0,2025-11-07 09:58:12.755044769
2025-11-07 09:58:09.085509,43,2025-11-07 09:58:12.762737077
2025-11-07 09:58:09.085509,11008,2025-11-07 09:58:12.770429385
2025-11-07 09:58:09.085509,0,2025-11-07 09:58:12.778121692
2025-11-07 09:58:09.085509,43,2025-11-07 09:58:12.785814000
2025-11-07 09:58:09.085509,11520,2025-11-07 09:58:12.793506308
2025-11-07 09:58:09.085509,0,2025-11-07 09:58:12.801198615
2025-11-07 09:58:09.085509,47,2025-11-07 09:58:12.808890923
2025-11-07 09:58:09.085509,12032,2025-11-07 09:58:12.816583231
2025-11-07 09:58:09.085509,0,2025-11-07 09:58:12.824275538
2025-11-07 09:58:09.085509,47,2025-11-07 09:58:12.831967846
2025-11-07 09:58:09.085509,14592,2025-11-07 09:58:12.839660154
2025-11-07 09:58:09.085509,0,2025-11-07 09:58:12.847352462
2025-11-07 09:58:09.085509,62,2025-11-07 09:58:12.855044769
2025-11-07 09:58:09.085509,17152,2025-11-07 09:58:12.862737077
2025-11-07 09:58:09.085509,0,2025-11-07 09:58:12.870429385
2025-11-07 09:58:09.085509,69,2025-11-07 09:58:12.878121692
2025-11-07 09:58:09.085509,15872,2025-11-07 09:58:12.885814000
2025-11-07 09:58:09.085509,0,2025-11-07 09:58:12.893506308
2025-11-07 09:58:09.085509,55,2025-11-07 09:58:12.901198615
2025-11-07 09:58:09.085509,11520,2025-11-07 09:58:12.908890923
2025-11-07 09:58:09.085509,0,2025-11-07 09:58:12.916583231
2025-11-07 09:58:09.085509,35,2025-11-07 09:58:12.924275538
2025-11-07 09:58:09.085509,9728,2025-11-07 09:58:12.931967846
2025-11-07 09:58:09.085509,0,2025-11-07 09:58:12.939660154
2025-11-07 09:58:09.085509,52,2025-11-07 09:58:12.947352462
2025-11-07 09:58:09.085509,20224,2025-11-07 09:58:12.955044769
2025-11-07 09:58:09.085509,0,2025-11-07 09:58:12.962737077
2025-11-07 09:58:09.085509,91,2025-11-07 09:58:12.970429385
2025-11-07 09:58:09.085509,19456,2025-11-07 09:58:12.978121692
2025-11-07 09:58:09.085509,0,2025-11-07 09:58:12.985814000
2025-11-07 09:58:09.085509,64,2025-11-07 09:58:12.993506308
2025-11-07 09:58:09.085509,16384,2025-11-07 09:58:13.001198615
2025-11-07 09:58:09.085509,0,2025-11-07 09:58:13.008890923
2025-11-07 09:58:09.085509,67,2025-11-07 09:58:13.016583231
2025-11-07 09:58:09.085509,17664,2025-11-07 09:58:13.024275538
2025-11-07 09:58:09.085509,0,2025-11-07 09:58:13.031967846
2025-11-07 09:58:09.085509,71,2025-11-07 09:58:13.039660154
2025-11-07 09:58:09.685180,69,2025-11-07 09:58:13.047352462
2025-11-07 09:58:09.685180,15872,2025-11-07 09:58:13.055044769
2025-11-07 09:58:09.685180,0,2025-11-07 09:58:13.062737077
2025-11-07 09:58:09.685180,2,2025-11-07 09:58:13.070429385
2025-11-07 09:58:09.685180,-1792,2025-11-07 09:58:13.078121692
2025-11-07 09:58:09.685180,-2,2025-11-07 09:58:13.085814000
2025-11-07 09:58:09.685180,-551,2025-11-07 09:58:13.093506308
2025-11-07 09:58:09.685180,-18689,2025-11-07 09:58:13.101198615
2025-11-07 09:58:09.685180,-1,2025-11-07 09:58:13.108890923
2025-11-07 09:58:09.685180,1104,2025-11-07 09:58:13.116583231
2025-11-07 09:58:09.685180,7936,2025-11-07 09:58:13.124275538
2025-11-07 09:58:09.685180,6,2025-11-07 09:58:13.131967846
2025-11-07 09:58:09.685180,973,2025-11-07 09:58:13.139660154
2025-11-07 09:58:09.685180,-27392,2025-11-07 09:58:13.147352462
2025-11-07 09:58:09.685180,1,2025-11-07 09:58:13.155044769
2025-11-07 09:58:09.685180,179,2025-11-07 09:58:13.162737077
2025-11-07 09:58:09.685180,-1024,2025-11-07 09:58:13.170429385
2025-11-07 09:58:09.685180,-1,2025-11-07 09:58:13.178121692
2025-11-07 09:58:09.685180,-105,2025-11-07 09:58:13.185814000
2025-11-07 09:58:09.685180,-24833,2025-11-07 09:58:13.193506308
2025-11-07 09:58:09.685180,-1,2025-11-07 09:58:13.201198615
2025-11-07 09:58:09.685180,-105,2025-11-07 09:58:13.208890923
2025-11-07 09:58:09.685180,-30209,2025-11-07 09:58:13.216583231
2025-11-07 09:58:09.685180,-1,2025-11-07 09:58:13.224275538
2025-11-07 09:58:09.685180,-107,2025-11-07 09:58:13.231967846
2025-11-07 09:58:09.685180,-26625,2025-11-07 09:58:13.239660154
2025-11-07 09:58:09.685180,-1,2025-11-07 09:58:13.247352462
2025-11-07 09:58:09.685180,-112,2025-11-07 09:58:13.255044769
2025-11-07 09:58:09.685180,-29185,2025-11-07 09:58:13.262737077
2025-11-07 09:58:09.685180,-1,2025-11-07 09:58:13.270429385
2025-11-07 09:58:09.685180,-110,2025-11-07 09:58:13.278121692
2025-11-07 09:58:09.685180,-28417,2025-11-07 09:58:13.285814000
2025-11-07 09:58:09.685180,-1,2025-11-07 09:58:13.293506308
2025-11-07 09:58:09.685180,-119,2025-11-07 09:58:13.301198615
2025-11-07 09:58:09.685180,-32257,2025-11-07 09:58:13.308890923
2025-11-07 09:58:09.685180,-1,2025-11-07 09:58:13.316583231
2025-11-07 09:58:09.685180,-129,2025-11-07 09:58:13.324275538
2025-11-07 09:58:09.685180,30975,2025-11-07 09:58:13.331967846
2025-11-07 09:58:09.685180,-1,2025-11-07 09:58:13.339660154
2025-11-07 09:58:09.685180,-146,2025-11-07 09:58:13.347352462
2025-11-07 09:58:09.685180,27903,2025-11-07 09:58:13.355044769
2025-11-07 09:58:09.685180,-1,2025-11-07 09:58:13.362737077
2025-11-07 09:58:09.685180,-153,2025-11-07 09:58:13.370429385
2025-11-07 09:58:09.685180,26111,2025-11-07 09:58:13.378121692
2025-11-07 09:58:09.685180,-1,2025-11-07 09:58:13.385814000
2025-11-07 09:58:09.685180,-150,2025-11-07 09:58:13.393506308
2025-11-07 09:58:09.685180,30207,2025-11-07 09:58:13.401198615
2025-11-07 09:58:09.685180,-1,2025-11-07 09:58:13.408890923
2025-11-07 09:58:09.685180,-127,2025-11-07 09:58:13.416583231
2025-11-07 09:58:09.685180,-28417,2025-11-07 09:58:13.424275538
2025-11-07 09:58:09.685180,-1,2025-11-07 09:58:13.431967846
2025-11-07 09:58:09.685180,-91,2025-11-07 09:58:13.439660154
2025-11-07 09:58:09.685180,-17409,2025-11-07 09:58:13.447352462
2025-11-07 09:58:09.685180,-1,2025-11-07 09:58:13.455044769
2025-11-07 09:58:09.685180,-47,2025-11-07 09:58:13.462737077
2025-11-07 09:58:09.685180,-6913,2025-11-07 09:58:13.470429385
2025-11-07 09:58:09.685180,-1,2025-11-07 09:58:13.478121692
2025-11-07 09:58:09.685180,-9,2025-11-07 09:58:13.485814000
2025-11-07 09:58:09.685180,2559,2025-11-07 09:58:13.493506308
2025-11-07 09:58:09.685180,0,2025-11-07 09:58:13.501198615
2025-11-07 09:58:09.685180,21,2025-11-07 09:58:13.508890923
2025-11-07 09:58:09.685180,6656,2025-11-07 09:58:13.516583230
2025-11-07 09:58:09.685180,0,2025-11-07 09:58:13.524275538
2025-11-07 09:58:09.685180,33,2025-11-07 09:58:13.531967846
2025-11-07 09:58:09.685180,8960,2025-11-07 09:58:13.539660154
2025-11-07 09:58:09.685180,0,2025-11-07 09:58:13.547352462
2025-11-07 09:58:09.685180,35,2025-11-07 09:58:13.555044769
2025-11-07 09:58:09.685180,10240,2025-11-07 09:58:13.562737077
2025-11-07 09:58:09.685180,0,2025-11-07 09:58:13.570429385
2025-11-07 09:58:09.685180,38,2025-11-07 09:58:13.578121692
2025-11-07 09:58:09.685180,10240,2025-11-07 09:58:13.585814000
2025-11-07 09:58:09.685180,0,2025-11-07 09:58:13.593506308
2025-11-07 09:58:09.685180,45,2025-11-07 09:58:13.601198615
2025-11-07 09:58:09.685180,11520,2025-11-07 09:58:13.608890923
2025-11-07 09:58:09.685180,0,2025-11-07 09:58:13.616583231
2025-11-07 09:58:09.685180,43,2025-11-07 09:58:13.624275538
2025-11-07 09:58:09.685180,11008,2025-11-07 09:58:13.631967846
2025-11-07 09:58:09.685180,0,2025-11-07 09:58:13.639660154
2025-11-07 09:58:09.685180,43,2025-11-07 09:58:13.647352462
2025-11-07 09:58:09.685180,9728,2025-11-07 09:58:13.655044769
2025-11-07 09:58:09.685180,0,2025-11-07 09:58:13.662737077
2025-11-07 09:58:09.685180,43,2025-11-07 09:58:13.670429385
2025-11-07 09:58:09.685180,13312,2025-11-07 09:58:13.678121692
2025-11-07 09:58:09.685180,0,2025-11-07 09:58:13.685814000
2025-11-07 09:58:09.685180,47,2025-11-07 09:58:13.693506308
2025-11-07 09:58:09.685180,11008,2025-11-07 09:58:13.701198615
2025-11-07 09:58:09.685180,0,2025-11-07 09:58:13.708890923
2025-11-07 09:58:09.685180,47,2025-11-07 09:58:13.716583231
2025-11-07 09:58:09.685180,13312,2025-11-07 09:58:13.724275538
2025-11-07 09:58:09.685180,0,2025-11-07 09:58:13.731967846
2025-11-07 09:58:09.685180,55,2025-11-07 09:58:13.739660154
2025-11-07 09:58:09.685180,14592,2025-11-07 09:58:13.747352462
2025-11-07 09:58:09.685180,0,2025-11-07 09:58:13.755044769
2025-11-07 09:58:09.685180,62,2025-11-07 09:58:13.762737077
2025-11-07 09:58:09.685180,15872,2025-11-07 09:58:13.770429385
2025-11-07 09:58:09.685180,0,2025-11-07 09:58:13.778121692
2025-11-07 09:58:09.685180,62,2025-11-07 09:58:13.785814000
2025-11-07 09:58:09.685180,14592,2025-11-07 09:58:13.793506308
2025-11-07 09:58:09.685180,0,2025-11-07 09:58:13.801198615
2025-11-07 09:58:09.685180,47,2025-11-07 09:58:13.808890923
2025-11-07 09:58:09.685180,10240,2025-11-07 09:58:13.816583231
2025-11-07 09:58:09.685180,0,2025-11-07 09:58:13.824275538
2025-11-07 09:58:09.685180,33,2025-11-07 09:58:13.831967846
2025-11-07 09:58:09.685180,8448,2025-11-07 09:58:13.839660154
2025-11-07 09:58:09.685180,0,2025-11-07 09:58:13.847352462
2025-11-07 09:58:09.685180,50,2025-11-07 09:58:13.855044769
2025-11-07 09:58:09.685180,19456,2025-11-07 09:58:13.862737077
2025-11-07 09:58:09.685180,0,2025-11-07 09:58:13.870429385
2025-11-07 09:58:09.685180,83,2025-11-07 09:58:13.878121692
2025-11-07 09:58:10.285293,69,2025-11-07 09:58:13.885814000
2025-11-07 09:58:10.285293,15104,2025-11-07 09:58:13.893506308
2025-11-07 09:58:10.285293,0,2025-11-07 09:58:13.901198615
2025-11-07 09:58:10.285293,62,2025-11-07 09:58:13.908890923
2025-11-07 09:58:10.285293,15872,2025-11-07 09:58:13.916583231
2025-11-07 09:58:10.285293,0,2025-11-07 09:58:13.924275538
2025-11-07 09:58:10.285293,64,2025-11-07 09:58:13.931967846
2025-11-07 09:58:10.285293,18176,2025-11-07 09:58:13.939660154
2025-11-07 09:58:10.285293,0,2025-11-07 09:58:13.947352462
2025-11-07 09:58:10.285293,71,2025-11-07 09:58:13.955044769
2025-11-07 09:58:10.285293,16384,2025-11-07 09:58:13.962737077
2025-11-07 09:58:10.285293,0,2025-11-07 09:58:13.970429385
2025-11-07 09:58:10.285293,11,2025-11-07 09:58:13.978121692
2025-11-07 09:58:10.285293,3584,2025-11-07 09:58:13.985814000
2025-11-07 09:58:10.285293,-1,2025-11-07 09:58:13.993506308
2025-11-07 09:58:10.285293,-534,2025-11-07 09:58:14.001198615
2025-11-07 09:58:10.285293,-29697,2025-11-07 09:58:14.008890923
2025-11-07 09:58:10.285293,-1,2025-11-07 09:58:14.016583231
2025-11-07 09:58:10.285293,915,2025-11-07 09:58:14.024275538
2025-11-07 09:58:10.285293,-256,2025-11-07 09:58:14.031967846
2025-11-07 09:58:10.285293,4,2025-11-07 09:58:14.039660154
2025-11-07 09:58:10.285293,778,2025-11-07 09:58:14.047352462
2025-11-07 09:58:10.285293,-30464,2025-11-07 09:58:14.055044769
2025-11-07 09:58:10.285293,1,2025-11-07 09:58:14.062737077
2025-11-07 09:58:10.285293,239,2025-11-07 09:58:14.070429385
2025-11-07 09:58:10.285293,4096,2025-11-07 09:58:14.078121692
2025-11-07 09:58:10.285293,0,2025-11-07 09:58:14.085814000
2025-11-07 09:58:10.285293,-93,2025-11-07 09:58:14.093506308
2025-11-07 09:58:10.285293,-18689,2025-11-07 09:58:14.101198615
2025-11-07 09:58:10.285293,-1,2025-11-07 09:58:14.108890923
2025-11-07 09:58:10.285293,-93,2025-11-07 09:58:14.116583231
2025-11-07 09:58:10.285293,-28417,2025-11-07 09:58:14.124275538
2025-11-07 09:58:10.285293,-1,2025-11-07 09:58:14.131967846
2025-11-07 09:58:10.285293,-98,2025-11-07 09:58:14.139660154
2025-11-07 09:58:10.285293,-26113,2025-11-07 09:58:14.147352462
2025-11-07 09:58:10.285293,-1,2025-11-07 09:58:14.155044769
2025-11-07 09:58:10.285293,-115,2025-11-07 09:58:14.162737077
2025-11-07 09:58:10.285293,-28417,2025-11-07 09:58:14.170429385
2025-11-07 09:58:10.285293,-1,2025-11-07 09:58:14.178121692
2025-11-07 09:58:10.285293,-100,2025-11-07 09:58:14.185814000
2025-11-07 09:58:10.285293,-22273,2025-11-07 09:58:14.193506308
2025-11-07 09:58:10.285293,-1,2025-11-07 09:58:14.201198615
2025-11-07 09:58:10.285293,-79,2025-11-07 09:58:14.208890923
2025-11-07 09:58:10.285293,-19201,2025-11-07 09:58:14.216583231
2025-11-07 09:58:10.285293,-1,2025-11-07 09:58:14.224275538
2025-11-07 09:58:10.285293,-83,2025-11-07 09:58:14.231967846
2025-11-07 09:58:10.285293,-22273,2025-11-07 09:58:14.239660154
2025-11-07 09:58:10.285293,-1,2025-11-07 09:58:14.247352462
2025-11-07 09:58:10.285293,-93,2025-11-07 09:58:14.255044769
2025-11-07 09:58:10.285293,-24833,2025-11-07 09:58:14.262737077
2025-11-07 09:58:10.285293,-1,2025-11-07 09:58:14.270429385
2025-11-07 09:58:10.285293,-98,2025-11-07 09:58:14.278121692
2025-11-07 09:58:10.285293,-24833,2025-11-07 09:58:14.285814000
2025-11-07 09:58:10.285293,-1,2025-11-07 09:58:14.293506308
2025-11-07 09:58:10.285293,-100,2025-11-07 09:58:14.301198615
2025-11-07 09:58:10.285293,-23553,2025-11-07 09:58:14.308890923
2025-11-07 09:58:10.285293,-1,2025-11-07 09:58:14.316583231
2025-11-07 09:58:10.285293,-74,2025-11-07 09:58:14.324275538
2025-11-07 09:58:10.285293,-15617,2025-11-07 09:58:14.331967846
2025-11-07 09:58:10.285293,-1,2025-11-07 09:58:14.339660154
2025-11-07 09:58:10.285293,-52,2025-11-07 09:58:14.347352462
2025-11-07 09:58:10.285293,-8193,2025-11-07 09:58:14.355044769
2025-11-07 09:58:10.285293,-1,2025-11-07 09:58:14.362737077
2025-11-07 09:58:10.285293,-14,2025-11-07 09:58:14.370429385
2025-11-07 09:58:10.285293,-1537,2025-11-07 09:58:14.378121692
2025-11-07 09:58:10.285293,-1,2025-11-07 09:58:14.385814000
2025-11-07 09:58:10.285293,0,2025-11-07 09:58:14.393506308
2025-11-07 09:58:10.285293,2304,2025-11-07 09:58:14.401198615
2025-11-07 09:58:10.285293,0,2025-11-07 09:58:14.408890923
2025-11-07 09:58:10.285293,19,2025-11-07 09:58:14.416583231
2025-11-07 09:58:10.285293,6656,2025-11-07 09:58:14.424275538
2025-11-07 09:58:10.285293,0,2025-11-07 09:58:14.431967846
2025-11-07 09:58:10.285293,26,2025-11-07 09:58:14.439660154
2025-11-07 09:58:10.285293,6656,2025-11-07 09:58:14.447352462
2025-11-07 09:58:10.285293,0,2025-11-07 09:58:14.455044769
2025-11-07 09:58:10.285293,31,2025-11-07 09:58:14.462737077
2025-11-07 09:58:10.285293,8448,2025-11-07 09:58:14.470429385
2025-11-07 09:58:10.285293,0,2025-11-07 09:58:14.478121692
2025-11-07 09:58:10.285293,28,2025-11-07 09:58:14.485814000
2025-11-07 09:58:10.285293,7168,2025-11-07 09:58:14.493506308
2025-11-07 09:58:10.285293,0,2025-11-07 09:58:14.501198615
2025-11-07 09:58:10.285293,28,2025-11-07 09:58:14.508890923
2025-11-07 09:58:10.285293,7168,2025-11-07 09:58:14.516583230
2025-11-07 09:58:10.285293,0,2025-11-07 09:58:14.524275538
2025-11-07 09:58:10.285293,33,2025-11-07 09:58:14.531967846
2025-11-07 09:58:10.285293,8960,2025-11-07 09:58:14.539660154
2025-11-07 09:58:10.285293,0,2025-11-07 09:58:14.547352462
2025-11-07 09:58:10.285293,33,2025-11-07 09:58:14.555044769
2025-11-07 09:58:10.285293,8960,2025-11-07 09:58:14.562737077
2025-11-07 09:58:10.285293,0,2025-11-07 09:58:14.570429385
2025-11-07 09:58:10.285293,43,2025-11-07 09:58:14.578121692
2025-11-07 09:58:10.285293,11008,2025-11-07 09:58:14.585814000
2025-11-07 09:58:10.285293,0,2025-11-07 09:58:14.593506308
2025-11-07 09:58:10.285293,40,2025-11-07 09:58:14.601198615
2025-11-07 09:58:10.285293,11520,2025-11-07 09:58:14.608890923
2025-11-07 09:58:10.285293,0,2025-11-07 09:58:14.616583231
2025-11-07 09:58:10.285293,50,2025-11-07 09:58:14.624275538
2025-11-07 09:58:10.285293,12800,2025-11-07 09:58:14.631967846
2025-11-07 09:58:10.285293,0,2025-11-07 09:58:14.639660154
2025-11-07 09:58:10.285293,52,2025-11-07 09:58:14.647352462
2025-11-07 09:58:10.285293,13312,2025-11-07 09:58:14.655044769
2025-11-07 09:58:10.285293,0,2025-11-07 09:58:14.662737077
2025-11-07 09:58:10.285293,50,2025-11-07 09:58:14.670429385
2025-11-07 09:58:10.285293,11520,2025-11-07 09:58:14.678121692
2025-11-07 09:58:10.285293,0,2025-11-07 09:58:14.685814000
2025-11-07 09:58:10.285293,40,2025-11-07 09:58:14.693506308
2025-11-07 09:58:10.285293,8448,2025-11-07 09:58:14.701198615
2025-11-07 09:58:10.285293,0,2025-11-07 09:58:14.708890923
2025-11-07 09:58:10.285293,31,2025-11-07 09:58:14.716583231
2025-11-07 09:58:10.834780,45,2025-11-07 09:58:14.724275538
2025-11-07 09:58:10.834780,19456,2025-11-07 09:58:14.731967846
2025-11-07 09:58:10.834780,0,2025-11-07 09:58:14.739660154
2025-11-07 09:58:10.834780,95,2025-11-07 09:58:14.747352462
2025-11-07 09:58:10.834780,21248,2025-11-07 09:58:14.755044769
2025-11-07 09:58:10.834780,0,2025-11-07 09:58:14.762737077
2025-11-07 09:58:10.834780,64,2025-11-07 09:58:14.770429385
2025-11-07 09:58:10.834780,16384,2025-11-07 09:58:14.778121692
2025-11-07 09:58:10.834780,0,2025-11-07 09:58:14.785814000
2025-11-07 09:58:10.834780,69,2025-11-07 09:58:14.793506308
2025-11-07 09:58:10.834780,17664,2025-11-07 09:58:14.801198615
2025-11-07 09:58:10.834780,0,2025-11-07 09:58:14.808890923
2025-11-07 09:58:10.834780,71,2025-11-07 09:58:14.816583231
2025-11-07 09:58:10.834780,18176,2025-11-07 09:58:14.824275538
2025-11-07 09:58:10.834780,0,2025-11-07 09:58:14.831967846
2025-11-07 09:58:10.834780,69,2025-11-07 09:58:14.839660154
2025-11-07 09:58:10.834780,7936,2025-11-07 09:58:14.847352462
2025-11-07 09:58:10.834780,0,2025-11-07 09:58:14.855044769
2025-11-07 09:58:10.834780,-179,2025-11-07 09:58:14.862737077
2025-11-07 09:58:10.834780,255,2025-11-07 09:58:14.870429385
2025-11-07 09:58:10.834780,-2,2025-11-07 09:58:14.878121692
2025-11-07 09:58:10.834780,-309,2025-11-07 09:58:14.885814000
2025-11-07 09:58:10.834780,-17409,2025-11-07 09:58:14.893506308
2025-11-07 09:58:10.834780,2,2025-11-07 09:58:14.901198615
2025-11-07 09:58:10.834780,1373,2025-11-07 09:58:14.908890923
2025-11-07 09:58:10.834780,-4096,2025-11-07 09:58:14.916583231
2025-11-07 09:58:10.834780,3,2025-11-07 09:58:14.924275538
2025-11-07 09:58:10.834780,496,2025-11-07 09:58:14.931967846
2025-11-07 09:58:10.834780,10496,2025-11-07 09:58:14.939660154
2025-11-07 09:58:10.834780,1,2025-11-07 09:58:14.947352462
2025-11-07 09:58:10.834780,88,2025-11-07 09:58:14.955044769
2025-11-07 09:58:10.834780,-15872,2025-11-07 09:58:14.962737077
2025-11-07 09:58:10.834780,-1,2025-11-07 09:58:14.970429385
2025-11-07 09:58:10.834780,-62,2025-11-07 09:58:14.978121692
2025-11-07 09:58:10.834780,-17921,2025-11-07 09:58:14.985814000
2025-11-07 09:58:10.834780,-1,2025-11-07 09:58:14.993506308
2025-11-07 09:58:10.834780,-100,2025-11-07 09:58:15.001198615
2025-11-07 09:58:10.834780,-23553,2025-11-07 09:58:15.008890923
2025-11-07 09:58:10.834780,-1,2025-11-07 09:58:15.016583231
2025-11-07 09:58:10.834780,-88,2025-11-07 09:58:15.024275538
2025-11-07 09:58:10.834780,-24833,2025-11-07 09:58:15.031967846
2025-11-07 09:58:10.834780,-1,2025-11-07 09:58:15.039660154
2025-11-07 09:58:10.834780,-93,2025-11-07 09:58:15.047352462
2025-11-07 09:58:10.834780,-21761,2025-11-07 09:58:15.055044769
2025-11-07 09:58:10.834780,-1,2025-11-07 09:58:15.062737077
2025-11-07 09:58:10.834780,-91,2025-11-07 09:58:15.070429385
2025-11-07 09:58:10.834780,-23553,2025-11-07 09:58:15.078121692
2025-11-07 09:58:10.834780,-1,2025-11-07 09:58:15.085814000
2025-11-07 09:58:10.834780,-93,2025-11-07 09:58:15.093506308
2025-11-07 09:58:10.834780,-24833,2025-11-07 09:58:15.101198615
2025-11-07 09:58:10.834780,-1,2025-11-07 09:58:15.108890923
2025-11-07 09:58:10.834780,-103,2025-11-07 09:58:15.116583231
2025-11-07 09:58:10.834780,-27137,2025-11-07 09:58:15.124275538
2025-11-07 09:58:10.834780,-1,2025-11-07 09:58:15.131967846
2025-11-07 09:58:10.834780,-115,2025-11-07 09:58:15.139660154
2025-11-07 09:58:10.834780,-30209,2025-11-07 09:58:15.147352462
2025-11-07 09:58:10.834780,-1,2025-11-07 09:58:15.155044769
2025-11-07 09:58:10.834780,-124,2025-11-07 09:58:15.162737077
2025-11-07 09:58:10.834780,-30209,2025-11-07 09:58:15.170429385
2025-11-07 09:58:10.834780,-1,2025-11-07 09:58:15.178121692
2025-11-07 09:58:10.834780,-115,2025-11-07 09:58:15.185814000
2025-11-07 09:58:10.834780,-27137,2025-11-07 09:58:15.193506308
2025-11-07 09:58:10.834780,-1,2025-11-07 09:58:15.201198615
2025-11-07 09:58:10.834780,-91,2025-11-07 09:58:15.208890923
2025-11-07 09:58:10.834780,-17921,2025-11-07 09:58:15.216583231
2025-11-07 09:58:10.834780,-1,2025-11-07 09:58:15.224275538
2025-11-07 09:58:10.834780,-55,2025-11-07 09:58:15.231967846
2025-11-07 09:58:10.834780,-8193,2025-11-07 09:58:15.239660154
2025-11-07 09:58:10.834780,-1,2025-11-07 09:58:15.247352462
2025-11-07 09:58:10.834780,-16,2025-11-07 09:58:15.255044769
2025-11-07 09:58:10.834780,-257,2025-11-07 09:58:15.262737077
2025-11-07 09:58:10.834780,-1,2025-11-07 09:58:15.270429385
2025-11-07 09:58:10.834780,9,2025-11-07 09:58:15.278121692
2025-11-07 09:58:10.834780,5888,2025-11-07 09:58:15.285814000
2025-11-07 09:58:10.834780,0,2025-11-07 09:58:15.293506308
2025-11-07 09:58:10.834780,35,2025-11-07 09:58:15.301198615
2025-11-07 09:58:10.834780,9728,2025-11-07 09:58:15.308890923
2025-11-07 09:58:10.834780,0,2025-11-07 09:58:15.316583231
2025-11-07 09:58:10.834780,43,2025-11-07 09:58:15.324275538
2025-11-07 09:58:10.834780,11520,2025-11-07 09:58:15.331967846
2025-11-07 09:58:10.834780,0,2025-11-07 09:58:15.339660154
2025-11-07 09:58:10.834780,45,2025-11-07 09:58:15.347352462
2025-11-07 09:58:10.834780,11520,2025-11-07 09:58:15.355044769
2025-11-07 09:58:10.834780,0,2025-11-07 09:58:15.362737077
2025-11-07 09:58:10.834780,43,2025-11-07 09:58:15.370429385
2025-11-07 09:58:10.834780,11008,2025-11-07 09:58:15.378121692
2025-11-07 09:58:10.834780,0,2025-11-07 09:58:15.385814000
2025-11-07 09:58:10.834780,45,2025-11-07 09:58:15.393506308
2025-11-07 09:58:10.834780,11008,2025-11-07 09:58:15.401198615
2025-11-07 09:58:10.834780,0,2025-11-07 09:58:15.408890923
2025-11-07 09:58:10.834780,45,2025-11-07 09:58:15.416583231
2025-11-07 09:58:10.834780,12800,2025-11-07 09:58:15.424275538
2025-11-07 09:58:10.834780,0,2025-11-07 09:58:15.431967846
2025-11-07 09:58:10.834780,52,2025-11-07 09:58:15.439660154
2025-11-07 09:58:10.834780,14080,2025-11-07 09:58:15.447352462
2025-11-07 09:58:10.834780,0,2025-11-07 09:58:15.455044769
2025-11-07 09:58:10.834780,62,2025-11-07 09:58:15.462737077
2025-11-07 09:58:10.834780,17152,2025-11-07 09:58:15.470429385
2025-11-07 09:58:10.834780,0,2025-11-07 09:58:15.478121692
2025-11-07 09:58:10.834780,67,2025-11-07 09:58:15.485814000
2025-11-07 09:58:10.834780,17152,2025-11-07 09:58:15.493506308
2025-11-07 09:58:10.834780,0,2025-11-07 09:58:15.501198615
2025-11-07 09:58:10.834780,69,2025-11-07 09:58:15.508890923
2025-11-07 09:58:10.834780,17152,2025-11-07 09:58:15.516583230
2025-11-07 09:58:10.834780,0,2025-11-07 09:58:15.524275538
2025-11-07 09:58:10.834780,67,2025-11-07 09:58:15.531967846
2025-11-07 09:58:10.834780,17664,2025-11-07 09:58:15.539660154
2025-11-07 09:58:10.834780,0,2025-11-07 09:58:15.547352462
2025-11-07 09:58:10.834780,69,2025-11-07 09:58:15.555044769
2025-11-07 09:58:11.435160,64,2025-11-07 09:58:15.562737077
2025-11-07 09:58:11.435160,14592,2025-11-07 09:58:15.570429385
2025-11-07 09:58:11.435160,0,2025-11-07 09:58:15.578121692
2025-11-07 09:58:11.435160,47,2025-11-07 09:58:15.585814000
2025-11-07 09:58:11.435160,9728,2025-11-07 09:58:15.593506308
2025-11-07 09:58:11.435160,0,2025-11-07 09:58:15.601198615
2025-11-07 09:58:11.435160,31,2025-11-07 09:58:15.608890923
2025-11-07 09:58:11.435160,11520,2025-11-07 09:58:15.616583231
2025-11-07 09:58:11.435160,0,2025-11-07 09:58:15.624275538
2025-11-07 09:58:11.435160,76,2025-11-07 09:58:15.631967846
2025-11-07 09:58:11.435160,23808,2025-11-07 09:58:15.639660154
2025-11-07 09:58:11.435160,0,2025-11-07 09:58:15.647352462
2025-11-07 09:58:11.435160,81,2025-11-07 09:58:15.655044769
2025-11-07 09:58:11.435160,17152,2025-11-07 09:58:15.662737077
2025-11-07 09:58:11.435160,0,2025-11-07 09:58:15.670429385
2025-11-07 09:58:11.435160,67,2025-11-07 09:58:15.678121692
2025-11-07 09:58:11.435160,18176,2025-11-07 09:58:15.685814000
2025-11-07 09:58:11.435160,0,2025-11-07 09:58:15.693506308
2025-11-07 09:58:11.435160,86,2025-11-07 09:58:15.701198615
2025-11-07 09:58:11.435160,24320,2025-11-07 09:58:15.708890923
2025-11-07 09:58:11.435160,0,2025-11-07 09:58:15.716583231
2025-11-07 09:58:11.435160,88,2025-11-07 09:58:15.724275538
2025-11-07 09:58:11.435160,20736,2025-11-07 09:58:15.731967846
2025-11-07 09:58:11.435160,0,2025-11-07 09:58:15.739660154
2025-11-07 09:58:11.435160,52,2025-11-07 09:58:15.747352462
2025-11-07 09:58:11.435160,24576,2025-11-07 09:58:15.755044769
2025-11-07 09:58:11.435160,-1,2025-11-07 09:58:15.762737077
2025-11-07 09:58:11.435160,-520,2025-11-07 09:58:15.770429385
2025-11-07 09:58:11.435160,-21761,2025-11-07 09:58:15.778121692
2025-11-07 09:58:11.435160,-2,2025-11-07 09:58:15.785814000
2025-11-07 09:58:11.435160,733,2025-11-07 09:58:15.793506308
2025-11-07 09:58:11.435160,1280,2025-11-07 09:58:15.801198615
2025-11-07 09:58:11.435160,6,2025-11-07 09:58:15.808890923
2025-11-07 09:58:11.435160,1191,2025-11-07 09:58:15.816583231
2025-11-07 09:58:11.435160,9216,2025-11-07 09:58:15.824275538
2025-11-07 09:58:11.435160,2,2025-11-07 09:58:15.831967846
2025-11-07 09:58:11.435160,256,2025-11-07 09:58:15.839660154
2025-11-07 09:58:11.435160,14080,2025-11-07 09:58:15.847352462
2025-11-07 09:58:11.435160,0,2025-11-07 09:58:15.855044769
2025-11-07 09:58:11.435160,-83,2025-11-07 09:58:15.862737077
2025-11-07 09:58:11.435160,-24065,2025-11-07 09:58:15.870429385
2025-11-07 09:58:11.435160,-1,2025-11-07 09:58:15.878121692
2025-11-07 09:58:11.435160,-100,2025-11-07 09:58:15.885814000
2025-11-07 09:58:11.435160,-30977,2025-11-07 09:58:15.893506308
2025-11-07 09:58:11.435160,-1,2025-11-07 09:58:15.901198615
2025-11-07 09:58:11.435160,-115,2025-11-07 09:58:15.908890923
2025-11-07 09:58:11.435160,-27137,2025-11-07 09:58:15.916583231
2025-11-07 09:58:11.435160,-1,2025-11-07 09:58:15.924275538
2025-11-07 09:58:11.435160,-115,2025-11-07 09:58:15.931967846
2025-11-07 09:58:11.435160,-29697,2025-11-07 09:58:15.939660154
2025-11-07 09:58:11.435160,-1,2025-11-07 09:58:15.947352462
2025-11-07 09:58:11.435160,-115,2025-11-07 09:58:15.955044769
2025-11-07 09:58:11.435160,-29697,2025-11-07 09:58:15.962737077
2025-11-07 09:58:11.435160,-1,2025-11-07 09:58:15.970429385
2025-11-07 09:58:11.435160,-119,2025-11-07 09:58:15.978121692
2025-11-07 09:58:11.435160,-30977,2025-11-07 09:58:15.985814000
2025-11-07 09:58:11.435160,-1,2025-11-07 09:58:15.993506308
2025-11-07 09:58:11.435160,-127,2025-11-07 09:58:16.001198615
2025-11-07 09:58:11.435160,32255,2025-11-07 09:58:16.008890923
2025-11-07 09:58:11.435160,-1,2025-11-07 09:58:16.016583231
2025-11-07 09:58:11.435160,-141,2025-11-07 09:58:16.024275538
2025-11-07 09:58:11.435160,27391,2025-11-07 09:58:16.031967846
2025-11-07 09:58:11.435160,-1,2025-11-07 09:58:16.039660154
2025-11-07 09:58:11.435160,-158,2025-11-07 09:58:16.047352462
2025-11-07 09:58:11.435160,24319,2025-11-07 09:58:16.055044769
2025-11-07 09:58:11.435160,-1,2025-11-07 09:58:16.062737077
2025-11-07 09:58:11.435160,-160,2025-11-07 09:58:16.070429385
2025-11-07 09:58:11.435160,26623,2025-11-07 09:58:16.078121692
2025-11-07 09:58:11.435160,-1,2025-11-07 09:58:16.085814000
2025-11-07 09:58:11.435160,-143,2025-11-07 09:58:16.093506308
2025-11-07 09:58:11.435160,32767,2025-11-07 09:58:16.101198615
2025-11-07 09:58:11.435160,-1,2025-11-07 09:58:16.108890923
2025-11-07 09:58:11.435160,-112,2025-11-07 09:58:16.116583231
2025-11-07 09:58:11.435160,-23041,2025-11-07 09:58:16.124275538
2025-11-07 09:58:11.435160,-1,2025-11-07 09:58:16.131967846
2025-11-07 09:58:11.435160,-64,2025-11-07 09:58:16.139660154
2025-11-07 09:58:11.435160,-8193,2025-11-07 09:58:16.147352462
2025-11-07 09:58:11.435160,-1,2025-11-07 09:58:16.155044769
2025-11-07 09:58:11.435160,-7,2025-11-07 09:58:16.162737077
2025-11-07 09:58:11.435160,3071,2025-11-07 09:58:16.170429385
2025-11-07 09:58:11.435160,0,2025-11-07 09:58:16.178121692
2025-11-07 09:58:11.435160,28,2025-11-07 09:58:16.185814000
2025-11-07 09:58:11.435160,11008,2025-11-07 09:58:16.193506308
2025-11-07 09:58:11.435160,0,2025-11-07 09:58:16.201198615
2025-11-07 09:58:11.435160,52,2025-11-07 09:58:16.208890923
2025-11-07 09:58:11.435160,15872,2025-11-07 09:58:16.216583231
2025-11-07 09:58:11.435160,0,2025-11-07 09:58:16.224275538
2025-11-07 09:58:11.435160,64,2025-11-07 09:58:16.231967846
2025-11-07 09:58:11.435160,15872,2025-11-07 09:58:16.239660154
2025-11-07 09:58:11.435160,0,2025-11-07 09:58:16.247352462
2025-11-07 09:58:11.435160,59,2025-11-07 09:58:16.255044769
2025-11-07 09:58:11.435160,14592,2025-11-07 09:58:16.262737077
2025-11-07 09:58:11.435160,0,2025-11-07 09:58:16.270429385
2025-11-07 09:58:11.435160,57,2025-11-07 09:58:16.278121692
2025-11-07 09:58:11.435160,14592,2025-11-07 09:58:16.285814000
2025-11-07 09:58:11.435160,0,2025-11-07 09:58:16.293506308
2025-11-07 09:58:11.435160,57,2025-11-07 09:58:16.301198615
2025-11-07 09:58:11.435160,13312,2025-11-07 09:58:16.308890923
2025-11-07 09:58:11.435160,0,2025-11-07 09:58:16.316583231
2025-11-07 09:58:11.435160,50,2025-11-07 09:58:16.324275538
2025-11-07 09:58:11.435160,12800,2025-11-07 09:58:16.331967846
2025-11-07 09:58:11.435160,0,2025-11-07 09:58:16.339660154
2025-11-07 09:58:11.435160,50,2025-11-07 09:58:16.347352462
2025-11-07 09:58:11.435160,13312,2025-11-07 09:58:16.355044769
2025-11-07 09:58:11.435160,0,2025-11-07 09:58:16.362737077
2025-11-07 09:58:11.435160,55,2025-11-07 09:58:16.370429385
2025-11-07 09:58:11.435160,14592,2025-11-07 09:58:16.378121692
2025-11-07 09:58:11.435160,0,2025-11-07 09:58:16.385814000
2025-11-07 09:58:11.435160,59,2025-11-07 09:58:16.393506308
2025-11-07 09:58:11.936311,59,2025-11-07 09:58:16.401198615
2025-11-07 09:58:11.936311,14592,2025-11-07 09:58:16.408890923
2025-11-07 09:58:11.936311,0,2025-11-07 09:58:16.416583231
2025-11-07 09:58:11.936311,59,2025-11-07 09:58:16.424275538
2025-11-07 09:58:11.936311,15872,2025-11-07 09:58:16.431967846
2025-11-07 09:58:11.936311,0,2025-11-07 09:58:16.439660154
2025-11-07 09:58:11.936311,64,2025-11-07 09:58:16.447352462
2025-11-07 09:58:11.936311,17152,2025-11-07 09:58:16.455044769
2025-11-07 09:58:11.936311,0,2025-11-07 09:58:16.462737077
2025-11-07 09:58:11.936311,64,2025-11-07 09:58:16.470429385
2025-11-07 09:58:11.936311,15872,2025-11-07 09:58:16.478121692
2025-11-07 09:58:11.936311,0,2025-11-07 09:58:16.485814000
2025-11-07 09:58:11.936311,55,2025-11-07 09:58:16.493506308
2025-11-07 09:58:11.936311,11520,2025-11-07 09:58:16.501198615
2025-11-07 09:58:11.936311,0,2025-11-07 09:58:16.508890923
2025-11-07 09:58:11.936311,35,2025-11-07 09:58:16.516583230
2025-11-07 09:58:11.936311,7936,2025-11-07 09:58:16.524275538
2025-11-07 09:58:11.936311,0,2025-11-07 09:58:16.531967846
2025-11-07 09:58:11.936311,33,2025-11-07 09:58:16.539660154
2025-11-07 09:58:11.936311,12032,2025-11-07 09:58:16.547352462
2025-11-07 09:58:11.936311,0,2025-11-07 09:58:16.555044769
2025-11-07 09:58:11.936311,71,2025-11-07 09:58:16.562737077
2025-11-07 09:58:11.936311,20736,2025-11-07 09:58:16.570429385
2025-11-07 09:58:11.936311,0,2025-11-07 09:58:16.578121692
2025-11-07 09:58:11.936311,74,2025-11-07 09:58:16.585814000
2025-11-07 09:58:11.936311,19456,2025-11-07 09:58:16.593506308
2025-11-07 09:58:11.936311,0,2025-11-07 09:58:16.601198615
2025-11-07 09:58:11.936311,81,2025-11-07 09:58:16.608890923
2025-11-07 09:58:11.936311,17664,2025-11-07 09:58:16.616583231
2025-11-07 09:58:11.936311,0,2025-11-07 09:58:16.624275538
2025-11-07 09:58:11.936311,64,2025-11-07 09:58:16.631967846
2025-11-07 09:58:11.936311,18176,2025-11-07 09:58:16.639660154
2025-11-07 09:58:11.936311,0,2025-11-07 09:58:16.647352462
2025-11-07 09:58:11.936311,64,2025-11-07 09:58:16.655044769
2025-11-07 09:58:11.936311,15104,2025-11-07 09:58:16.662737077
2025-11-07 09:58:11.936311,0,2025-11-07 09:58:16.670429385
2025-11-07 09:58:11.936311,0,2025-11-07 09:58:16.678121692
2025-11-07 09:58:11.936311,-5632,2025-11-07 09:58:16.685814000
2025-11-07 09:58:11.936311,-2,2025-11-07 09:58:16.693506308
2025-11-07 09:58:11.936311,-582,2025-11-07 09:58:16.701198615
2025-11-07 09:58:11.936311,-28417,2025-11-07 09:58:16.708890923
2025-11-07 09:58:11.936311,-1,2025-11-07 09:58:16.716583231
2025-11-07 09:58:11.936311,1090,2025-11-07 09:58:16.724275538
2025-11-07 09:58:11.936311,14592,2025-11-07 09:58:16.731967846
2025-11-07 09:58:11.936311,6,2025-11-07 09:58:16.739660154
2025-11-07 09:58:11.936311,997,2025-11-07 09:58:16.747352462
2025-11-07 09:58:11.936311,-31232,2025-11-07 09:58:16.755044769
2025-11-07 09:58:11.936311,1,2025-11-07 09:58:16.762737077
2025-11-07 09:58:11.936311,150,2025-11-07 09:58:16.770429385
2025-11-07 09:58:11.936311,-8448,2025-11-07 09:58:16.778121692
2025-11-07 09:58:11.936311,-1,2025-11-07 09:58:16.785814000
2025-11-07 09:58:11.936311,-134,2025-11-07 09:58:16.793506308
2025-11-07 09:58:11.936311,31487,2025-11-07 09:58:16.801198615
2025-11-07 09:58:11.936311,-1,2025-11-07 09:58:16.808890923
2025-11-07 09:58:11.936311,-139,2025-11-07 09:58:16.816583231
2025-11-07 09:58:11.936311,27391,2025-11-07 09:58:16.824275538
2025-11-07 09:58:11.936311,-1,2025-11-07 09:58:16.831967846
2025-11-07 09:58:11.936311,-141,2025-11-07 09:58:16.839660154
2025-11-07 09:58:11.936311,32767,2025-11-07 09:58:16.847352462
2025-11-07 09:58:11.936311,-1,2025-11-07 09:58:16.855044769
2025-11-07 09:58:11.936311,-129,2025-11-07 09:58:16.862737077
2025-11-07 09:58:11.936311,-32257,2025-11-07 09:58:16.870429385
2025-11-07 09:58:11.936311,-1,2025-11-07 09:58:16.878121692
2025-11-07 09:58:11.936311,-124,2025-11-07 09:58:16.885814000
2025-11-07 09:58:11.936311,-31489,2025-11-07 09:58:16.893506308
2025-11-07 09:58:11.936311,-1,2025-11-07 09:58:16.901198615
2025-11-07 09:58:11.936311,-124,2025-11-07 09:58:16.908890923
2025-11-07 09:58:11.936311,32255,2025-11-07 09:58:16.916583231
2025-11-07 09:58:11.936311,-1,2025-11-07 09:58:16.924275538
2025-11-07 09:58:11.936311,-136,2025-11-07 09:58:16.931967846
2025-11-07 09:58:11.936311,29695,2025-11-07 09:58:16.939660154
2025-11-07 09:58:11.936311,-1,2025-11-07 09:58:16.947352462
2025-11-07 09:58:11.936311,-148,2025-11-07 09:58:16.955044769
2025-11-07 09:58:11.936311,24831,2025-11-07 09:58:16.962737077
2025-11-07 09:58:11.936311,-1,2025-11-07 09:58:16.970429385
2025-11-07 09:58:11.936311,-167,2025-11-07 09:58:16.978121692
2025-11-07 09:58:11.936311,22271,2025-11-07 09:58:16.985814000
2025-11-07 09:58:11.936311,-1,2025-11-07 09:58:16.993506308
2025-11-07 09:58:11.936311,-162,2025-11-07 09:58:17.001198615
2025-11-07 09:58:11.936311,27391,2025-11-07 09:58:17.008890923
2025-11-07 09:58:11.936311,-1,2025-11-07 09:58:17.016583231
2025-11-07 09:58:11.936311,-136,2025-11-07 09:58:17.024275538
2025-11-07 09:58:11.936311,-29697,2025-11-07 09:58:17.031967846
2025-11-07 09:58:11.936311,-1,2025-11-07 09:58:17.039660154
2025-11-07 09:58:11.936311,-95,2025-11-07 09:58:17.047352462
2025-11-07 09:58:11.936311,-18689,2025-11-07 09:58:17.055044769
2025-11-07 09:58:11.936311,-1,2025-11-07 09:58:17.062737077
2025-11-07 09:58:11.936311,-47,2025-11-07 09:58:17.070429385
2025-11-07 09:58:11.936311,-5121,2025-11-07 09:58:17.078121692
2025-11-07 09:58:11.936311,-1,2025-11-07 09:58:17.085814000
2025-11-07 09:58:11.936311,2,2025-11-07 09:58:17.093506308
2025-11-07 09:58:11.936311,5376,2025-11-07 09:58:17.101198615
2025-11-07 09:58:11.936311,0,2025-11-07 09:58:17.108890923
2025-11-07 09:58:11.936311,43,2025-11-07 09:58:17.116583231
2025-11-07 09:58:11.936311,14080,2025-11-07 09:58:17.124275538
2025-11-07 09:58:11.936311,0,2025-11-07 09:58:17.131967846
2025-11-07 09:58:11.936311,59,2025-11-07 09:58:17.139660154
2025-11-07 09:58:11.936311,16384,2025-11-07 09:58:17.147352462
2025-11-07 09:58:11.936311,0,2025-11-07 09:58:17.155044769
2025-11-07 09:58:11.936311,67,2025-11-07 09:58:17.162737077
2025-11-07 09:58:11.936311,16384,2025-11-07 09:58:17.170429385
2025-11-07 09:58:11.936311,0,2025-11-07 09:58:17.178121692
2025-11-07 09:58:11.936311,62,2025-11-07 09:58:17.185814000
2025-11-07 09:58:11.936311,16384,2025-11-07 09:58:17.193506308
2025-11-07 09:58:11.936311,0,2025-11-07 09:58:17.201198615
2025-11-07 09:58:11.936311,62,2025-11-07 09:58:17.208890923
2025-11-07 09:58:11.936311,15104,2025-11-07 09:58:17.216583231
2025-11-07 09:58:11.936311,0,2025-11-07 09:58:17.224275538
2025-11-07 09:58:11.936311,55,2025-11-07 09:58:17.231967846
2025-11-07 09:58:12.580652,55,2025-11-07 09:58:17.239660154
2025-11-07 09:58:12.580652,13312,2025-11-07 09:58:17.247352462
2025-11-07 09:58:12.580652,0,2025-11-07 09:58:17.255044769
2025-11-07 09:58:12.580652,55,2025-11-07 09:58:17.262737077
2025-11-07 09:58:12.580652,15104,2025-11-07 09:58:17.270429385
2025-11-07 09:58:12.580652,0,2025-11-07 09:58:17.278121692
2025-11-07 09:58:12.580652,59,2025-11-07 09:58:17.285814000
2025-11-07 09:58:12.580652,15104,2025-11-07 09:58:17.293506308
2025-11-07 09:58:12.580652,0,2025-11-07 09:58:17.301198615
2025-11-07 09:58:12.580652,59,2025-11-07 09:58:17.308890923
2025-11-07 09:58:12.580652,16384,2025-11-07 09:58:17.316583231
2025-11-07 09:58:12.580652,0,2025-11-07 09:58:17.324275538
2025-11-07 09:58:12.580652,71,2025-11-07 09:58:17.331967846
2025-11-07 09:58:12.580652,21248,2025-11-07 09:58:17.339660154
2025-11-07 09:58:12.580652,0,2025-11-07 09:58:17.347352462
2025-11-07 09:58:12.580652,95,2025-11-07 09:58:17.355044769
2025-11-07 09:58:12.580652,23296,2025-11-07 09:58:17.362737077
2025-11-07 09:58:12.580652,0,2025-11-07 09:58:17.370429385
2025-11-07 09:58:12.580652,88,2025-11-07 09:58:17.378121692
2025-11-07 09:58:12.580652,23296,2025-11-07 09:58:17.385814000
2025-11-07 09:58:12.580652,0,2025-11-07 09:58:17.393506308
2025-11-07 09:58:12.580652,91,2025-11-07 09:58:17.401198615
2025-11-07 09:58:12.580652,22528,2025-11-07 09:58:17.408890923
2025-11-07 09:58:12.580652,0,2025-11-07 09:58:17.416583231
2025-11-07 09:58:12.580652,88,2025-11-07 09:58:17.424275538
2025-11-07 09:58:12.580652,22528,2025-11-07 09:58:17.431967846
2025-11-07 09:58:12.580652,0,2025-11-07 09:58:17.439660154
2025-11-07 09:58:12.580652,83,2025-11-07 09:58:17.447352462
2025-11-07 09:58:12.580652,20224,2025-11-07 09:58:17.455044769
2025-11-07 09:58:12.580652,0,2025-11-07 09:58:17.462737077
2025-11-07 09:58:12.580652,69,2025-11-07 09:58:17.470429385
2025-11-07 09:58:12.580652,15104,2025-11-07 09:58:17.478121692
2025-11-07 09:58:12.580652,0,2025-11-07 09:58:17.485814000
2025-11-07 09:58:12.580652,52,2025-11-07 09:58:17.493506308
2025-11-07 09:58:12.580652,11520,2025-11-07 09:58:17.501198615
2025-11-07 09:58:12.580652,0,2025-11-07 09:58:17.508890923
2025-11-07 09:58:12.580652,45,2025-11-07 09:58:17.516583230
2025-11-07 09:58:12.580652,17664,2025-11-07 09:58:17.524275538
2025-11-07 09:58:12.580652,0,2025-11-07 09:58:17.531967846
2025-11-07 09:58:12.580652,93,2025-11-07 09:58:17.539660154
2025-11-07 09:58:12.580652,24320,2025-11-07 09:58:17.547352462
2025-11-07 09:58:12.580652,0,2025-11-07 09:58:17.555044769
2025-11-07 09:58:12.580652,81,2025-11-07 09:58:17.562737077
2025-11-07 09:58:12.580652,18944,2025-11-07 09:58:17.570429385
2025-11-07 09:58:12.580652,0,2025-11-07 09:58:17.578121692
2025-11-07 09:58:12.580652,69,2025-11-07 09:58:17.585814000
2025-11-07 09:58:12.580652,17152,2025-11-07 09:58:17.593506308
2025-11-07 09:58:12.580652,0,2025-11-07 09:58:17.601198615
2025-11-07 09:58:12.580652,69,2025-11-07 09:58:17.608890923
2025-11-07 09:58:12.580652,18176,2025-11-07 09:58:17.616583231
2025-11-07 09:58:12.580652,0,2025-11-07 09:58:17.624275538
2025-11-07 09:58:12.580652,71,2025-11-07 09:58:17.631967846
2025-11-07 09:58:12.580652,16384,2025-11-07 09:58:17.639660154
2025-11-07 09:58:12.580652,0,2025-11-07 09:58:17.647352462
2025-11-07 09:58:12.580652,-55,2025-11-07 09:58:17.655044769
2025-11-07 09:58:12.580652,30719,2025-11-07 09:58:17.662737077
2025-11-07 09:58:12.580652,-2,2025-11-07 09:58:17.670429385
2025-11-07 09:58:12.580652,-534,2025-11-07 09:58:17.678121692
2025-11-07 09:58:12.580652,3839,2025-11-07 09:58:17.685814000
2025-11-07 09:58:12.580652,1,2025-11-07 09:58:17.693506308
2025-11-07 09:58:12.580652,1433,2025-11-07 09:58:17.701198615
2025-11-07 09:58:12.580652,-6912,2025-11-07 09:58:17.708890923
2025-11-07 09:58:12.580652,5,2025-11-07 09:58:17.716583231
2025-11-07 09:58:12.580652,759,2025-11-07 09:58:17.724275538
2025-11-07 09:58:12.580652,11008,2025-11-07 09:58:17.731967846
2025-11-07 09:58:12.580652,1,2025-11-07 09:58:17.739660154
2025-11-07 09:58:12.580652,115,2025-11-07 09:58:17.747352462
2025-11-07 09:58:12.580652,-16384,2025-11-07 09:58:17.755044769
2025-11-07 09:58:12.580652,-1,2025-11-07 09:58:17.762737077
2025-11-07 09:58:12.580652,-124,2025-11-07 09:58:17.770429385
2025-11-07 09:58:12.580652,-28417,2025-11-07 09:58:17.778121692
2025-11-07 09:58:12.580652,-1,2025-11-07 09:58:17.785814000
2025-11-07 09:58:12.580652,-131,2025-11-07 09:58:17.793506308
2025-11-07 09:58:12.580652,30207,2025-11-07 09:58:17.801198615
2025-11-07 09:58:12.580652,-1,2025-11-07 09:58:17.808890923
2025-11-07 09:58:12.580652,-129,2025-11-07 09:58:17.816583231
2025-11-07 09:58:12.580652,32767,2025-11-07 09:58:17.824275538
2025-11-07 09:58:12.580652,-1,2025-11-07 09:58:17.831967846
2025-11-07 09:58:12.580652,-129,2025-11-07 09:58:17.839660154
2025-11-07 09:58:12.580652,-32257,2025-11-07 09:58:17.847352462
2025-11-07 09:58:12.580652,-1,2025-11-07 09:58:17.855044769
2025-11-07 09:58:12.580652,-127,2025-11-07 09:58:17.862737077
2025-11-07 09:58:12.580652,32767,2025-11-07 09:58:17.870429385
2025-11-07 09:58:12.580652,-1,2025-11-07 09:58:17.878121692
2025-11-07 09:58:12.580652,-134,2025-11-07 09:58:17.885814000
2025-11-07 09:58:12.580652,30975,2025-11-07 09:58:17.893506308
2025-11-07 09:58:12.580652,-1,2025-11-07 09:58:17.901198615
2025-11-07 09:58:12.580652,-141,2025-11-07 09:58:17.908890923
2025-11-07 09:58:12.580652,27903,2025-11-07 09:58:17.916583231
2025-11-07 09:58:12.580652,-1,2025-11-07 09:58:17.924275538
2025-11-07 09:58:12.580652,-155,2025-11-07 09:58:17.931967846
2025-11-07 09:58:12.580652,23551,2025-11-07 09:58:17.939660154
2025-11-07 09:58:12.580652,-1,2025-11-07 09:58:17.947352462
2025-11-07 09:58:12.580652,-170,2025-11-07 09:58:17.955044769
2025-11-07 09:58:12.580652,22271,2025-11-07 09:58:17.962737077
2025-11-07 09:58:12.580652,-1,2025-11-07 09:58:17.970429385
2025-11-07 09:58:12.580652,-165,2025-11-07 09:58:17.978121692
2025-11-07 09:58:12.580652,26111,2025-11-07 09:58:17.985814000
2025-11-07 09:58:12.580652,-1,2025-11-07 09:58:17.993506308
2025-11-07 09:58:12.580652,-141,2025-11-07 09:58:18.001198615
2025-11-07 09:58:12.580652,-31489,2025-11-07 09:58:18.008890923
2025-11-07 09:58:12.580652,-1,2025-11-07 09:58:18.016583231
2025-11-07 09:58:12.580652,-105,2025-11-07 09:58:18.024275538
2025-11-07 09:58:12.580652,-20481,2025-11-07 09:58:18.031967846
2025-11-07 09:58:12.580652,-1,2025-11-07 09:58:18.039660154
2025-11-07 09:58:12.580652,-52,2025-11-07 09:58:18.047352462
2025-11-07 09:58:12.580652,-5121,2025-11-07 09:58:18.055044769
2025-11-07 09:58:12.580652,-1,2025-11-07 09:58:18.062737077
2025-11-07 09:58:12.580652,0,2025-11-07 09:58:18.070429385
2025-11-07 09:58:13.085958,19,2025-11-07 09:58:18.078121692
2025-11-07 09:58:13.085958,8960,2025-11-07 09:58:18.085814000
