timestamp,ecg
11:49:01.663687,4
11:49:01.663687,14848
11:49:01.663687,3
11:49:01.663687,4589
11:49:01.663687,11776
11:49:01.663687,37
11:49:01.663687,10936
11:49:01.663687,16128
11:49:01.663687,41
11:49:01.663687,11458
11:49:01.663687,-2560
11:49:01.663687,46
11:49:01.663687,11773
11:49:01.663687,30720
11:49:01.663687,46
11:49:01.663687,12072
11:49:01.663687,25856
11:49:01.663687,46
11:49:01.663687,11736
11:49:01.663687,-22016
11:49:01.663687,45
11:49:01.663687,11521
11:49:01.663687,15872
11:49:01.663687,44
11:49:01.663687,11173
11:49:01.663687,256
11:49:01.663687,43
11:49:01.663687,10816
11:49:01.663687,29952
11:49:01.663687,41
11:49:01.663687,10429
11:49:01.663687,-6656
11:49:01.663687,39
11:49:01.663687,9926
11:49:01.663687,-2560
11:49:01.663687,37
11:49:01.663687,9796
11:49:01.663687,20992
11:49:01.663687,39
11:49:01.663687,10066
11:49:01.663687,27136
11:49:01.663687,37
11:49:01.663687,8996
11:49:01.663687,-7680
11:49:01.663687,33
11:49:01.663687,8483
11:49:01.663687,18944
11:49:01.663687,32
11:49:01.663687,8077
11:49:01.663687,-3584
11:49:01.663687,30
11:49:01.663687,7731
11:49:01.663687,30464
11:49:01.663687,29
11:49:01.663687,7400
11:49:01.663687,19968
11:49:01.663687,28
11:49:01.663687,7074
11:49:01.663687,1280
11:49:01.663687,27
11:49:01.663687,6762
11:49:01.663687,-12288
11:49:01.663687,25
11:49:01.663687,6448
11:49:01.663687,-26112
11:49:01.663687,24
11:49:01.663687,6165
11:49:01.663687,-32256
11:49:01.663687,23
11:49:01.663687,5858
11:49:01.663687,22016
11:49:01.663687,22
11:49:01.663687,5590
11:49:01.663687,21248
11:49:01.663687,21
11:49:01.663687,5324
11:49:01.663687,19456
11:49:01.663687,20
11:49:01.663687,5063
11:49:01.663687,15616
11:49:01.663687,19
11:49:01.663687,4800
11:49:01.663687,18176
11:49:01.663687,18
11:49:01.663687,4570
11:49:01.663687,26112
11:49:01.663687,17
11:49:01.663687,4319
11:49:01.663687,26112
11:49:01.663687,16
11:49:01.663687,4089
11:49:01.663687,32256
11:49:01.663687,15
11:49:01.663687,3855
11:49:01.663687,-25344
11:49:01.663687,14
11:49:01.663687,3618
11:49:01.663687,-19712
11:49:01.663687,13
11:49:01.663687,3407
11:49:01.663687,-5632
11:49:01.663687,12
11:49:01.663687,3202
11:49:01.663687,6144
11:49:01.663687,12
11:49:01.663687,2994
11:49:01.663687,19712
11:49:01.663687,11
11:49:01.663687,2796
11:49:02.199737,2697
11:49:02.199737,8960
11:49:02.199737,10
11:49:02.199737,2506
11:49:02.199737,28672
11:49:02.199737,9
11:49:02.199737,2322
11:49:02.199737,-17664
11:49:02.199737,8
11:49:02.199737,2151
11:49:02.199737,5120
11:49:02.199737,8
11:49:02.199737,1979
11:49:02.199737,23808
11:49:02.199737,7
11:49:02.199737,1817
11:49:02.199737,-9728
11:49:02.199737,6
11:49:02.199737,1670
11:49:02.199737,11264
11:49:02.199737,6
11:49:02.199737,1513
11:49:02.199737,-24064
11:49:02.199737,5
11:49:02.199737,1355
11:49:02.199737,256
11:49:02.199737,5
11:49:02.199737,1215
11:49:02.199737,29184
11:49:02.199737,4
11:49:02.199737,1061
11:49:02.199737,-8704
11:49:02.199737,3
11:49:02.199737,925
11:49:02.199737,23552
11:49:02.199737,3
11:49:02.199737,802
11:49:02.199737,-1792
11:49:02.199737,2
11:49:02.199737,720
11:49:02.199737,-31488
11:49:02.199737,2
11:49:02.199737,565
11:49:02.199737,-6912
11:49:02.199737,1
11:49:02.199737,422
11:49:02.199737,31488
11:49:02.199737,1
11:49:02.199737,323
11:49:02.199737,1792
11:49:02.199737,1
11:49:02.199737,207
11:49:02.199737,-26624
11:49:02.199737,0
11:49:02.199737,91
11:49:02.199737,-3072
11:49:02.199737,-1
11:49:02.199737,-132
11:49:02.199737,-28673
11:49:02.199737,-1
11:49:02.199737,183
11:49:02.199737,7424
11:49:02.199737,2
11:49:02.199737,507
11:49:02.199737,20992
11:49:02.199737,0
11:49:02.199737,-273
11:49:02.199737,-29441
11:49:02.199737,-2
11:49:02.199737,-415
11:49:02.199737,5887
11:49:02.199737,-2
11:49:02.199737,-519
11:49:02.199737,-4097
11:49:02.199737,-3
11:49:02.199737,-584
11:49:02.199737,-28929
11:49:02.199737,-3
11:49:02.199737,-642
11:49:02.199737,20735
11:49:02.199737,-3
11:49:02.199737,-737
11:49:02.199737,1535
11:49:02.199737,-3
11:49:02.199737,-780
11:49:02.199737,-4609
11:49:02.199737,-4
11:49:02.199737,-804
11:49:02.199737,-19457
11:49:02.199737,-4
11:49:02.199737,-884
11:49:02.199737,29183
11:49:02.199737,-4
11:49:02.199737,-940
11:49:02.199737,11263
11:49:02.199737,-4
11:49:02.199737,-1019
11:49:02.199737,-3585
11:49:02.199737,-5
11:49:02.199737,-1032
11:49:02.199737,3327
11:49:02.199737,-4
11:49:02.199737,-1029
11:49:02.199737,-12801
11:49:02.199737,-5
11:49:02.199737,-1094
11:49:02.199737,-20737
11:49:02.199737,-5
11:49:02.199737,-1133
11:49:02.735983,-1152
11:49:02.735983,29183
11:49:02.735983,-5
11:49:02.735983,-1186
11:49:02.735983,13823
11:49:02.735983,-5
11:49:02.735983,-1261
11:49:02.735983,4351
11:49:02.735983,-5
11:49:02.735983,-1261
11:49:02.735983,1279
11:49:02.735983,-5
11:49:02.735983,-1317
11:49:02.735983,-14081
11:49:02.735983,-6
11:49:02.735983,-1319
11:49:02.735983,-13569
11:49:02.735983,-6
11:49:02.735983,-1360
11:49:02.735983,-22785
11:49:02.735983,-6
11:49:02.735983,-1392
11:49:02.735983,-30209
11:49:02.735983,-6
11:49:02.735983,-1372
11:49:02.735983,-20993
11:49:02.735983,-6
11:49:02.735983,-1401
11:49:02.735983,27391
11:49:02.735983,-6
11:49:02.735983,-1421
11:49:02.735983,27903
11:49:02.735983,-6
11:49:02.735983,-1452
11:49:02.735983,19199
11:49:02.735983,-6
11:49:02.735983,-1455
11:49:02.735983,24319
11:49:02.735983,-6
11:49:02.735983,-1455
11:49:02.735983,16895
11:49:02.735983,-6
11:49:02.735983,-1469
11:49:02.735983,14847
11:49:02.735983,-6
11:49:02.735983,-1500
11:49:02.735983,7423
11:49:02.735983,-6
11:49:02.735983,-1510
11:49:02.735983,6143
11:49:02.735983,-6
11:49:02.735983,-1517
11:49:02.735983,-1
11:49:02.735983,-7
11:49:02.735983,-1542
11:49:02.735983,4351
11:49:02.735983,-6
11:49:02.735983,-1525
11:49:02.735983,-3585
11:49:02.735983,-7
11:49:02.735983,-1554
11:49:02.735983,-1281
11:49:02.735983,-7
11:49:02.735983,-1513
11:49:02.735983,18687
11:49:02.735983,-6
11:49:02.735983,-1428
11:49:02.735983,32767
11:49:02.735983,-6
11:49:02.735983,-1394
11:49:02.735983,-22785
11:49:02.735983,-6
11:49:02.735983,-1324
11:49:02.735983,2559
11:49:02.735983,-5
11:49:02.735983,-1227
11:49:02.735983,24319
11:49:02.735983,-5
11:49:02.735983,-1152
11:49:02.735983,-30209
11:49:02.735983,-5
11:49:02.735983,-1177
11:49:02.735983,18687
11:49:02.735983,-5
11:49:02.735983,-1070
11:49:02.735983,29951
11:49:02.735983,-3
11:49:02.735983,-253
11:49:02.735983,-6401
11:49:02.735983,-2
11:49:02.735983,-647
11:49:02.735983,25599
11:49:02.735983,-4
11:49:02.735983,-957
11:49:02.735983,26111
11:49:02.735983,-4
11:49:02.735983,-923
11:49:02.735983,29951
11:49:02.735983,-4
11:49:02.735983,-882
11:49:02.735983,-22785
11:49:02.735983,-4
11:49:02.735983,-833
11:49:02.735983,-10241
11:49:02.735983,-4
11:49:02.735983,-790
11:49:02.735983,767
11:49:02.735983,-3
11:49:02.735983,-722
11:49:03.318680,-688
11:49:03.318680,19455
11:49:03.318680,-3
11:49:03.318680,-700
11:49:03.318680,19967
11:49:03.318680,-3
11:49:03.318680,-684
11:49:03.318680,21759
11:49:03.318680,-3
11:49:03.318680,-667
11:49:03.318680,30463
11:49:03.318680,-3
11:49:03.318680,-652
11:49:03.318680,29951
11:49:03.318680,-3
11:49:03.318680,-645
11:49:03.318680,-32513
11:49:03.318680,-3
11:49:03.318680,-638
11:49:03.318680,-28161
11:49:03.318680,-3
11:49:03.318680,-604
11:49:03.318680,-19457
11:49:03.318680,-3
11:49:03.318680,-567
11:49:03.318680,-7681
11:49:03.318680,-3
11:49:03.318680,-524
11:49:03.318680,1023
11:49:03.318680,-2
11:49:03.318680,-493
11:49:03.318680,8959
11:49:03.318680,-2
11:49:03.318680,-461
11:49:03.318680,18175
11:49:03.318680,-2
11:49:03.318680,-422
11:49:03.318680,28671
11:49:03.318680,-2
11:49:03.318680,-374
11:49:03.318680,-23809
11:49:03.318680,-2
11:49:03.318680,-331
11:49:03.318680,-13825
11:49:03.318680,-2
11:49:03.318680,-294
11:49:03.318680,-5889
11:49:03.318680,-2
11:49:03.318680,-263
11:49:03.318680,2815
11:49:03.318680,-1
11:49:03.318680,-229
11:49:03.318680,12799
11:49:03.318680,-1
11:49:03.318680,-183
11:49:03.318680,24575
11:49:03.318680,-1
11:49:03.318680,-149
11:49:03.318680,27647
11:49:03.318680,-1
11:49:03.318680,-132
11:49:03.318680,-29953
11:49:03.318680,-1
11:49:03.318680,-120
11:49:03.318680,-30465
11:49:03.318680,-1
11:49:03.318680,-113
11:49:03.318680,-31745
11:49:03.318680,-1
11:49:03.318680,-140
11:49:03.318680,29439
11:49:03.318680,-1
11:49:03.318680,-149
11:49:03.318680,23807
11:49:03.318680,-1
11:49:03.318680,-169
11:49:03.318680,20223
11:49:03.318680,-1
11:49:03.318680,-193
11:49:03.318680,13311
11:49:03.318680,-1
11:49:03.318680,-227
11:49:03.318680,4607
11:49:03.318680,-1
11:49:03.318680,-248
11:49:03.318680,1535
11:49:03.318680,-1
11:49:03.318680,-239
11:49:03.318680,4607
11:49:03.318680,-1
11:49:03.318680,-253
11:49:03.318680,-4609
11:49:03.318680,-2
11:49:03.318680,-302
11:49:03.318680,-15873
11:49:03.318680,-2
11:49:03.318680,-323
11:49:03.318680,-18177
11:49:03.318680,-2
11:49:03.318680,-340
11:49:03.318680,-24321
11:49:03.318680,-2
11:49:03.318680,-357
11:49:03.318680,-31233
11:49:03.318680,-2
11:49:03.318680,-437
11:49:03.318680,4095
11:49:03.318680,-2
11:49:03.318680,-420
11:49:03.858416,-84
11:49:03.858416,5631
11:49:03.858416,1
11:49:03.858416,261
11:49:03.858416,-27136
11:49:03.858416,-1
11:49:03.858416,-427
11:49:03.858416,3327
11:49:03.858416,-2
11:49:03.858416,-480
11:49:03.858416,2815
11:49:03.858416,-2
11:49:03.858416,-502
11:49:03.858416,6399
11:49:03.858416,-2
11:49:03.858416,-490
11:49:03.858416,5887
11:49:03.858416,-2
11:49:03.858416,-495
11:49:03.858416,5119
11:49:03.858416,-2
11:49:03.858416,-485
11:49:03.858416,8447
11:49:03.858416,-2
11:49:03.858416,-478
11:49:03.858416,9471
11:49:03.858416,-2
11:49:03.858416,-471
11:49:03.858416,12031
11:49:03.858416,-2
11:49:03.858416,-466
11:49:03.858416,13823
11:49:03.858416,-2
11:49:03.858416,-451
11:49:03.858416,16895
11:49:03.858416,-2
11:49:03.858416,-437
11:49:03.858416,22015
11:49:03.858416,-2
11:49:03.858416,-413
11:49:03.858416,31231
11:49:03.858416,-2
11:49:03.858416,-367
11:49:03.858416,-19457
11:49:03.858416,-2
11:49:03.858416,-287
11:49:03.858416,4607
11:49:03.858416,-1
11:49:03.858416,-210
11:49:03.858416,16383
11:49:03.858416,-1
11:49:03.858416,-161
11:49:03.858416,30719
11:49:03.858416,-1
11:49:03.858416,-125
11:49:03.858416,-26113
11:49:03.858416,-1
11:49:03.858416,-72
11:49:03.858416,-9473
11:49:03.858416,-1
11:49:03.858416,-2
11:49:03.858416,9983
11:49:03.858416,0
11:49:03.858416,89
11:49:03.858416,-30464
11:49:03.858416,0
11:49:03.858416,193
11:49:03.858416,2304
11:49:03.858416,1
11:49:03.858416,335
11:49:03.858416,-32768
11:49:03.858416,1
11:49:03.858416,432
11:49:03.858416,-4864
11:49:03.858416,1
11:49:03.858416,543
11:49:03.858416,16128
11:49:03.858416,2
11:49:03.858416,618
11:49:03.858416,-26624
11:49:03.858416,2
11:49:03.858416,688
11:49:03.858416,-15360
11:49:03.858416,2
11:49:03.858416,720
11:49:03.858416,-9216
11:49:03.858416,2
11:49:03.858416,744
11:49:03.858416,-6144
11:49:03.858416,2
11:49:03.858416,739
11:49:03.858416,-7936
11:49:03.858416,2
11:49:03.858416,734
11:49:03.858416,-9216
11:49:03.858416,2
11:49:03.858416,729
11:49:03.858416,-9984
11:49:03.858416,2
11:49:03.858416,722
11:49:03.858416,-16640
11:49:03.858416,2
11:49:03.858416,691
11:49:03.858416,-22272
11:49:03.858416,2
11:49:03.858416,662
11:49:03.858416,-30976
11:49:03.858416,2
11:49:03.858416,638
11:49:04.427046,628
11:49:04.427046,29696
11:49:04.427046,2
11:49:04.427046,640
11:49:04.427046,-32768
11:49:04.427046,2
11:49:04.427046,630
11:49:04.427046,25344
11:49:04.427046,2
11:49:04.427046,575
11:49:04.427046,11776
11:49:04.427046,2
11:49:04.427046,560
11:49:04.427046,8704
11:49:04.427046,2
11:49:04.427046,526
11:49:04.427046,512
11:49:04.427046,2
11:49:04.427046,497
11:49:04.427046,-12288
11:49:04.427046,1
11:49:04.427046,393
11:49:04.427046,28416
11:49:04.427046,1
11:49:04.427046,560
11:49:04.427046,-17152
11:49:04.427046,3
11:49:04.427046,1177
11:49:04.427046,-27136
11:49:04.427046,3
11:49:04.427046,505
11:49:04.427046,25856
11:49:04.427046,1
11:49:04.427046,355
11:49:04.427046,12800
11:49:04.427046,1
11:49:04.427046,277
11:49:04.427046,7936
11:49:04.427046,1
11:49:04.427046,282
11:49:04.427046,4352
11:49:04.427046,1
11:49:04.427046,275
11:49:04.427046,4352
11:49:04.427046,1
11:49:04.427046,261
11:49:04.427046,0
11:49:04.427046,1
11:49:04.427046,248
11:49:04.427046,-5120
11:49:04.427046,0
11:49:04.427046,234
11:49:04.427046,-6144
11:49:04.427046,0
11:49:04.427046,224
11:49:04.427046,-9472
11:49:04.427046,0
11:49:04.427046,217
11:49:04.427046,-9984
11:49:04.427046,0
11:49:04.427046,212
11:49:04.427046,-13056
11:49:04.427046,0
11:49:04.427046,205
11:49:04.427046,-13056
11:49:04.427046,0
11:49:04.427046,207
11:49:04.427046,-11264
11:49:04.427046,0
11:49:04.427046,207
11:49:04.427046,-11264
11:49:04.427046,0
11:49:04.427046,215
11:49:04.427046,-9984
11:49:04.427046,0
11:49:04.427046,224
11:49:04.427046,-10496
11:49:04.427046,0
11:49:04.427046,188
11:49:04.427046,-25344
11:49:04.427046,0
11:49:04.427046,132
11:49:04.427046,32000
11:49:04.427046,0
11:49:04.427046,118
11:49:04.427046,28928
11:49:04.427046,0
11:49:04.427046,118
11:49:04.427046,27648
11:49:04.427046,0
11:49:04.427046,99
11:49:04.427046,25344
11:49:04.427046,0
11:49:04.427046,99
11:49:04.427046,23296
11:49:04.427046,0
11:49:04.427046,87
11:49:04.427046,23296
11:49:04.427046,0
11:49:04.427046,87
11:49:04.427046,19712
11:49:04.427046,0
11:49:04.427046,77
11:49:04.427046,19712
11:49:04.427046,0
11:49:04.427046,79
11:49:04.427046,20992
11:49:04.427046,0
11:49:04.427046,74
11:49:05.022203,74
11:49:05.022203,20224
11:49:05.022203,0
11:49:05.022203,77
11:49:05.022203,19712
11:49:05.022203,0
11:49:05.022203,77
11:49:05.022203,23296
11:49:05.022203,0
11:49:05.022203,103
11:49:05.022203,24576
11:49:05.022203,0
11:49:05.022203,96
11:49:05.022203,27136
11:49:05.022203,0
11:49:05.022203,101
11:49:05.022203,24064
11:49:05.022203,0
11:49:05.022203,99
11:49:05.022203,27648
11:49:05.022203,0
11:49:05.022203,118
11:49:05.022203,-27904
11:49:05.022203,0
11:49:05.022203,159
11:49:05.022203,-29696
11:49:05.022203,0
11:49:05.022203,125
11:49:05.022203,-32256
11:49:05.022203,0
11:49:05.022203,147
11:49:05.022203,-22272
11:49:05.022203,0
11:49:05.022203,154
11:49:05.022203,-31744
11:49:05.022203,0
11:49:05.022203,164
11:49:05.022203,-17920
11:49:05.022203,0
11:49:05.022203,135
11:49:05.022203,16640
11:49:05.022203,0
11:49:05.022203,111
11:49:05.022203,-22272
11:49:05.022203,1
11:49:05.022203,901
11:49:05.022203,9472
11:49:05.022203,4
11:49:05.022203,696
11:49:05.022203,3072
11:49:05.022203,1
11:49:05.022203,166
11:49:05.022203,-16128
11:49:05.022203,0
11:49:05.022203,166
11:49:05.022203,-20992
11:49:05.022203,0
11:49:05.022203,207
11:49:05.022203,-12544
11:49:05.022203,0
11:49:05.022203,215
11:49:05.022203,-3840
11:49:05.022203,0
11:49:05.022203,248
11:49:05.022203,2304
11:49:05.022203,1
11:49:05.022203,297
11:49:05.022203,12288
11:49:05.022203,1
11:49:05.022203,302
11:49:05.022203,14080
11:49:05.022203,1
11:49:05.022203,319
11:49:05.022203,16128
11:49:05.022203,1
11:49:05.022203,316
11:49:05.022203,13568
11:49:05.022203,1
11:49:05.022203,294
11:49:05.022203,9216
11:49:05.022203,1
11:49:05.022203,294
11:49:05.022203,7936
11:49:05.022203,1
11:49:05.022203,282
11:49:05.022203,6144
11:49:05.022203,1
11:49:05.022203,280
11:49:05.022203,7936
11:49:05.022203,1
11:49:05.022203,292
11:49:05.022203,8704
11:49:05.022203,1
11:49:05.022203,292
11:49:05.022203,7936
11:49:05.022203,1
11:49:05.022203,273
11:49:05.022203,-1280
11:49:05.022203,0
11:49:05.022203,232
11:49:05.022203,-9984
11:49:05.022203,0
11:49:05.022203,198
11:49:05.022203,-17408
11:49:05.022203,0
11:49:05.022203,176
11:49:05.022203,-23552
11:49:05.022203,0
11:49:05.022203,161
11:49:05.571305,154
11:49:05.571305,-26624
11:49:05.571305,0
11:49:05.571305,142
11:49:05.571305,-32256
11:49:05.571305,0
11:49:05.571305,128
11:49:05.571305,30208
11:49:05.571305,0
11:49:05.571305,106
11:49:05.571305,26368
11:49:05.571305,0
11:49:05.571305,96
11:49:05.571305,24064
11:49:05.571305,0
11:49:05.571305,96
11:49:05.571305,24576
11:49:05.571305,0
11:49:05.571305,91
11:49:05.571305,20224
11:49:05.571305,0
11:49:05.571305,84
11:49:05.571305,22784
11:49:05.571305,0
11:49:05.571305,77
11:49:05.571305,20224
11:49:05.571305,0
11:49:05.571305,84
11:49:05.571305,23296
11:49:05.571305,0
11:49:05.571305,106
11:49:05.571305,30720
11:49:05.571305,0
11:49:05.571305,140
11:49:05.571305,-23040
11:49:05.571305,0
11:49:05.571305,195
11:49:05.571305,-6912
11:49:05.571305,0
11:49:05.571305,248
11:49:05.571305,2304
11:49:05.571305,1
11:49:05.571305,290
11:49:05.571305,17152
11:49:05.571305,1
11:49:05.571305,372
11:49:05.571305,-25344
11:49:05.571305,1
11:49:05.571305,425
11:49:05.571305,-21760
11:49:05.571305,1
11:49:05.571305,418
11:49:05.571305,-23552
11:49:05.571305,1
11:49:05.571305,430
11:49:05.571305,-19200
11:49:05.571305,1
11:49:05.571305,454
11:49:05.571305,-11264
11:49:05.571305,1
11:49:05.571305,493
11:49:05.571305,2560
11:49:05.571305,2
11:49:05.571305,517
11:49:05.571305,-4352
11:49:05.571305,1
11:49:05.571305,565
11:49:05.571305,-20992
11:49:05.571305,3
11:49:05.571305,1551
11:49:05.571305,19456
11:49:05.571305,7
11:49:05.571305,1665
11:49:05.571305,20480
11:49:05.571305,5
11:49:05.571305,1351
11:49:05.571305,-1792
11:49:05.571305,5
11:49:05.571305,1619
11:49:05.571305,31232
11:49:05.571305,6
11:49:05.571305,1725
11:49:05.571305,-5376
11:49:05.571305,6
11:49:05.571305,1795
11:49:05.571305,5888
11:49:05.571305,7
11:49:05.571305,1819
11:49:05.571305,7680
11:49:05.571305,7
11:49:05.571305,1817
11:49:05.571305,8192
11:49:05.571305,7
11:49:05.571305,1819
11:49:05.571305,3840
11:49:05.571305,7
11:49:05.571305,1822
11:49:05.571305,7680
11:49:05.571305,7
11:49:05.571305,1798
11:49:05.571305,-1536
11:49:05.571305,6
11:49:05.571305,1781
11:49:05.571305,-3584
11:49:05.571305,6
11:49:05.571305,1766
11:49:05.571305,-8960
11:49:05.571305,6
11:49:05.571305,1759
11:49:06.135866,1759
11:49:06.135866,-8448
11:49:06.135866,6
11:49:06.135866,1752
11:49:06.135866,-12032
11:49:06.135866,6
11:49:06.135866,1745
11:49:06.135866,-18432
11:49:06.135866,6
11:49:06.135866,1699
11:49:06.135866,-23296
11:49:06.135866,6
11:49:06.135866,1689
11:49:06.135866,27904
11:49:06.135866,6
11:49:06.135866,1590
11:49:06.135866,8192
11:49:06.135866,6
11:49:06.135866,1561
11:49:06.135866,-2304
11:49:06.135866,5
11:49:06.135866,1503
11:49:06.135866,-12800
11:49:06.135866,5
11:49:06.135866,1457
11:49:06.135866,-25088
11:49:06.135866,5
11:49:06.135866,1418
11:49:06.135866,28672
11:49:06.135866,5
11:49:06.135866,1365
11:49:06.135866,12544
11:49:06.135866,5
11:49:06.135866,1312
11:49:06.135866,3840
11:49:06.135866,5
11:49:06.135866,1261
11:49:06.135866,-12288
11:49:06.135866,4
11:49:06.135866,1208
11:49:06.135866,-22272
11:49:06.135866,4
11:49:06.135866,1169
11:49:06.135866,30464
11:49:06.135866,4
11:49:06.135866,1133
11:49:06.135866,23552
11:49:06.135866,4
11:49:06.135866,1094
11:49:06.135866,13568
11:49:06.135866,4
11:49:06.135866,1063
11:49:06.135866,7424
11:49:06.135866,4
11:49:06.135866,1027
11:49:06.135866,-6656
11:49:06.135866,3
11:49:06.135866,986
11:49:06.135866,-15360
11:49:06.135866,3
11:49:06.135866,942
11:49:06.135866,-25344
11:49:06.135866,3
11:49:06.135866,908
11:49:06.135866,-32768
11:49:06.135866,3
11:49:06.135866,858
11:49:06.135866,14848
11:49:06.135866,3
11:49:06.135866,819
11:49:06.135866,9984
11:49:06.135866,3
11:49:06.135866,804
11:49:06.135866,8704
11:49:06.135866,3
11:49:06.135866,783
11:49:06.135866,-3072
11:49:06.135866,2
11:49:06.135866,720
11:49:06.135866,-19200
11:49:06.135866,2
11:49:06.135866,686
11:49:06.135866,-22784
11:49:06.135866,2
11:49:06.135866,669
11:49:06.135866,-31488
11:49:06.135866,2
11:49:06.135866,628
11:49:06.135866,27904
11:49:06.135866,2
11:49:06.135866,584
11:49:06.135866,512
11:49:06.135866,2
11:49:06.135866,478
11:49:06.135866,-30976
11:49:06.135866,2
11:49:06.135866,1068
11:49:06.135866,18176
11:49:06.135866,5
11:49:06.135866,1140
11:49:06.135866,-24064
11:49:06.135866,2
11:49:06.135866,420
11:49:06.135866,-24064
11:49:06.135866,1
11:49:06.135866,401
11:49:06.135866,26624
11:49:06.135866,1
11:49:06.135866,367
11:49:06.669530,364
11:49:06.669530,24576
11:49:06.669530,1
11:49:06.669530,350
11:49:06.669530,21504
11:49:06.669530,1
11:49:06.669530,340
11:49:06.669530,20224
11:49:06.669530,1
11:49:06.669530,321
11:49:06.669530,14848
11:49:06.669530,1
11:49:06.669530,306
11:49:06.669530,14080
11:49:06.669530,1
11:49:06.669530,304
11:49:06.669530,6656
11:49:06.669530,1
11:49:06.669530,273
11:49:06.669530,1792
11:49:06.669530,1
11:49:06.669530,261
11:49:06.669530,0
11:49:06.669530,1
11:49:06.669530,244
11:49:06.669530,-3072
11:49:06.669530,0
11:49:06.669530,236
11:49:06.669530,-6912
11:49:06.669530,0
11:49:06.669530,232
11:49:06.669530,-9472
11:49:06.669530,0
11:49:06.669530,210
11:49:06.669530,-13056
11:49:06.669530,0
11:49:06.669530,200
11:49:06.669530,-17920
11:49:06.669530,0
11:49:06.669530,157
11:49:06.669530,-30464
11:49:06.669530,0
11:49:06.669530,116
11:49:06.669530,20992
11:49:06.669530,0
11:49:06.669530,60
11:49:06.669530,9216
11:49:06.669530,0
11:49:06.669530,16
11:49:06.669530,2304
11:49:06.669530,0
11:49:06.669530,-4
11:49:06.669530,-3329
11:49:06.669530,-1
11:49:06.669530,-29
11:49:06.669530,-12545
11:49:06.669530,-1
11:49:06.669530,-67
11:49:06.669530,-23041
11:49:06.669530,-1
11:49:06.669530,-103
11:49:06.669530,-28673
11:49:06.669530,-1
11:49:06.669530,-132
11:49:06.669530,28671
11:49:06.669530,-1
11:49:06.669530,-166
11:49:06.669530,18175
11:49:06.669530,-1
11:49:06.669530,-198
11:49:06.669530,10751
11:49:06.669530,-1
11:49:06.669530,-222
11:49:06.669530,4607
11:49:06.669530,-1
11:49:06.669530,-258
11:49:06.669530,-2817
11:49:06.669530,-2
11:49:06.669530,-285
11:49:06.669530,-10241
11:49:06.669530,-2
11:49:06.669530,-306
11:49:06.669530,-15873
11:49:06.669530,-2
11:49:06.669530,-323
11:49:06.669530,-20737
11:49:06.669530,-2
11:49:06.669530,-350
11:49:06.669530,-23297
11:49:06.669530,-2
11:49:06.669530,-357
11:49:06.669530,-26881
11:49:06.669530,-2
11:49:06.669530,-369
11:49:06.669530,-31745
11:49:06.669530,-2
11:49:06.669530,-379
11:49:06.669530,32511
11:49:06.669530,-2
11:49:06.669530,-379
11:49:06.669530,-24321
11:49:06.669530,-2
11:49:06.669530,-350
11:49:06.669530,-26369
11:49:06.669530,-2
11:49:06.669530,-369
11:49:06.669530,-31233
11:49:06.669530,-2
11:49:06.669530,-381
11:49:07.265748,-379
11:49:07.265748,-28673
11:49:07.265748,-2
11:49:07.265748,-369
11:49:07.265748,-28673
11:49:07.265748,-2
11:49:07.265748,-364
11:49:07.265748,-31233
11:49:07.265748,-2
11:49:07.265748,-413
11:49:07.265748,17663
11:49:07.265748,-2
11:49:07.265748,-348
11:49:07.265748,767
11:49:07.265748,0
11:49:07.265748,357
11:49:07.265748,7424
11:49:07.265748,1
11:49:07.265748,-123
11:49:07.265748,30719
11:49:07.265748,-2
11:49:07.265748,-408
11:49:07.265748,25087
11:49:07.265748,-2
11:49:07.265748,-456
11:49:07.265748,18175
11:49:07.265748,-2
11:49:07.265748,-420
11:49:07.265748,23807
11:49:07.265748,-2
11:49:07.265748,-408
11:49:07.265748,29951
11:49:07.265748,-2
11:49:07.265748,-389
11:49:07.265748,31743
11:49:07.265748,-2
11:49:07.265748,-384
11:49:07.265748,-30721
11:49:07.265748,-2
11:49:07.265748,-377
11:49:07.265748,-28161
11:49:07.265748,-2
11:49:07.265748,-355
11:49:07.265748,-25089
11:49:07.265748,-2
11:49:07.265748,-348
11:49:07.265748,-21249
11:49:07.265748,-2
11:49:07.265748,-331
11:49:07.265748,-15873
11:49:07.265748,-2
11:49:07.265748,-314
11:49:07.265748,-10753
11:49:07.265748,-2
11:49:07.265748,-287
11:49:07.265748,-5121
11:49:07.265748,-2
11:49:07.265748,-251
11:49:07.265748,5375
11:49:07.265748,-1
11:49:07.265748,-219
11:49:07.265748,14591
11:49:07.265748,-1
11:49:07.265748,-188
11:49:07.265748,18175
11:49:07.265748,-1
11:49:07.265748,-190
11:49:07.265748,16383
11:49:07.265748,-1
11:49:07.265748,-195
11:49:07.265748,13823
11:49:07.265748,-1
11:49:07.265748,-193
11:49:07.265748,17663
11:49:07.265748,-1
11:49:07.265748,-186
11:49:07.265748,21247
11:49:07.265748,-1
11:49:07.265748,-174
11:49:07.265748,23807
11:49:07.265748,-1
11:49:07.265748,-157
11:49:07.265748,25599
11:49:07.265748,-1
11:49:07.265748,-145
11:49:07.265748,29951
11:49:07.265748,-1
11:49:07.265748,-135
11:49:07.265748,32511
11:49:07.265748,-1
11:49:07.265748,-132
11:49:07.265748,-31233
11:49:07.265748,-1
11:49:07.265748,-123
11:49:07.265748,-31745
11:49:07.265748,-1
11:49:07.265748,-120
11:49:07.265748,-29953
11:49:07.265748,-1
11:49:07.265748,-116
11:49:07.265748,-28673
11:49:07.265748,-1
11:49:07.265748,-113
11:49:07.265748,-26113
11:49:07.265748,-1
11:49:07.265748,-103
11:49:07.265748,-25601
11:49:07.265748,-1
11:49:07.265748,-94
11:49:07.783484,-94
11:49:07.783484,-23809
11:49:07.783484,-1
11:49:07.783484,-96
11:49:07.783484,-24321
11:49:07.783484,-1
11:49:07.783484,-89
11:49:07.783484,-24321
11:49:07.783484,-1
11:49:07.783484,-96
11:49:07.783484,-22529
11:49:07.783484,-1
11:49:07.783484,-91
11:49:07.783484,-23041
11:49:07.783484,-1
11:49:07.783484,-101
11:49:07.783484,-22529
11:49:07.783484,-1
11:49:07.783484,-72
11:49:07.783484,-18689
11:49:07.783484,-1
11:49:07.783484,-50
11:49:07.783484,-9473
11:49:07.783484,-1
11:49:07.783484,-58
11:49:07.783484,-16897
11:49:07.783484,-1
11:49:07.783484,-74
11:49:07.783484,-18689
11:49:07.783484,-1
11:49:07.783484,-70
11:49:07.783484,-18177
11:49:07.783484,-1
11:49:07.783484,-67
11:49:07.783484,-16897
11:49:07.783484,-1
11:49:07.783484,-70
11:49:07.783484,-18177
11:49:07.783484,-1
11:49:07.783484,-113
11:49:07.783484,21247
11:49:07.783484,-1
11:49:07.783484,-128
11:49:07.783484,-16641
11:49:07.783484,0
11:49:07.783484,655
11:49:07.783484,-4352
11:49:07.783484,2
11:49:07.783484,355
11:49:07.783484,-14848
11:49:07.783484,-1
11:49:07.783484,-157
11:49:07.783484,31999
11:49:07.783484,-1
11:49:07.783484,-164
11:49:07.783484,23295
11:49:07.783484,-1
11:49:07.783484,-137
11:49:07.783484,29439
11:49:07.783484,-1
11:49:07.783484,-137
11:49:07.783484,-31745
11:49:07.783484,-1
11:49:07.783484,-128
11:49:07.783484,-31233
11:49:07.783484,-1
11:49:07.783484,-120
11:49:07.783484,-29441
11:49:07.783484,-1
11:49:07.783484,-113
11:49:07.783484,-28673
11:49:07.783484,-1
11:49:07.783484,-103
11:49:07.783484,-25601
11:49:07.783484,-1
11:49:07.783484,-99
11:49:07.783484,-23041
11:49:07.783484,-1
11:49:07.783484,-96
11:49:07.783484,-23809
11:49:07.783484,-1
11:49:07.783484,-89
11:49:07.783484,-22529
11:49:07.783484,-1
11:49:07.783484,-82
11:49:07.783484,-20737
11:49:07.783484,-1
11:49:07.783484,-72
11:49:07.783484,-16385
11:49:07.783484,-1
11:49:07.783484,-65
11:49:07.783484,-13313
11:49:07.783484,-1
11:49:07.783484,-48
11:49:07.783484,-11265
11:49:07.783484,-1
11:49:07.783484,-41
11:49:07.783484,-13313
11:49:07.783484,-1
11:49:07.783484,-58
11:49:07.783484,-16897
11:49:07.783484,-1
11:49:07.783484,-79
11:49:07.783484,-19969
11:49:07.783484,-1
11:49:07.783484,-84
11:49:07.783484,-20737
11:49:07.783484,-1
11:49:07.783484,-79
11:49:08.380532,-87
11:49:08.380532,-20737
11:49:08.380532,-1
11:49:08.380532,-84
11:49:08.380532,-22017
11:49:08.380532,-1
11:49:08.380532,-79
11:49:08.380532,-17665
11:49:08.380532,-1
11:49:08.380532,-58
11:49:08.380532,-17665
11:49:08.380532,-1
11:49:08.380532,-84
11:49:08.380532,-19969
11:49:08.380532,-1
11:49:08.380532,-84
11:49:08.380532,-22529
11:49:08.380532,-1
11:49:08.380532,-84
11:49:08.380532,-21249
11:49:08.380532,-1
11:49:08.380532,-82
11:49:08.380532,-21249
11:49:08.380532,-1
11:49:08.380532,-82
11:49:08.380532,-18689
11:49:08.380532,-1
11:49:08.380532,-82
11:49:08.380532,-20737
11:49:08.380532,-1
11:49:08.380532,-82
11:49:08.380532,-22529
11:49:08.380532,-1
11:49:08.380532,-82
11:49:08.380532,-20737
11:49:08.380532,-1
11:49:08.380532,-82
11:49:08.380532,-19969
11:49:08.380532,-1
11:49:08.380532,-84
11:49:08.380532,-20737
11:49:08.380532,-1
11:49:08.380532,-84
11:49:08.380532,-22529
11:49:08.380532,-1
11:49:08.380532,-89
11:49:08.380532,-24321
11:49:08.380532,-1
11:49:08.380532,-99
11:49:08.380532,-24321
11:49:08.380532,-1
11:49:08.380532,-99
11:49:08.380532,-22529
11:49:08.380532,-1
11:49:08.380532,-74
11:49:08.380532,-15617
11:49:08.380532,-1
11:49:08.380532,-65
11:49:08.380532,-18689
11:49:08.380532,-1
11:49:08.380532,-74
11:49:08.380532,-21249
11:49:08.380532,-1
11:49:08.380532,-87
11:49:08.380532,-19457
11:49:08.380532,-1
11:49:08.380532,-84
11:49:08.380532,-22017
11:49:08.380532,-1
11:49:08.380532,-82
11:49:08.380532,-22017
11:49:08.380532,-1
11:49:08.380532,-116
11:49:08.380532,20223
11:49:08.380532,-1
11:49:08.380532,-174
11:49:08.380532,21247
11:49:08.380532,0
11:49:08.380532,529
11:49:08.380532,-6656
11:49:08.380532,2
11:49:08.380532,430
11:49:08.380532,-4864
11:49:08.380532,-1
11:49:08.380532,-171
11:49:08.380532,25599
11:49:08.380532,-1
11:49:08.380532,-178
11:49:08.380532,16383
11:49:08.380532,-1
11:49:08.380532,-174
11:49:08.380532,23807
11:49:08.380532,-1
11:49:08.380532,-171
11:49:08.380532,24575
11:49:08.380532,-1
11:49:08.380532,-154
11:49:08.380532,24575
11:49:08.380532,-1
11:49:08.380532,-157
11:49:08.380532,26879
11:49:08.380532,-1
11:49:08.380532,-152
11:49:08.380532,26367
11:49:08.380532,-1
11:49:08.380532,-161
11:49:08.380532,26367
11:49:08.380532,-1
11:49:08.380532,-145
11:49:08.927567,-149
11:49:08.927567,27647
11:49:08.927567,-1
11:49:08.927567,-152
11:49:08.927567,28159
11:49:08.927567,-1
11:49:08.927567,-142
11:49:08.927567,27647
11:49:08.927567,-1
11:49:08.927567,-145
11:49:08.927567,31231
11:49:08.927567,-1
11:49:08.927567,-128
11:49:08.927567,-29441
11:49:08.927567,-1
11:49:08.927567,-103
11:49:08.927567,-23041
11:49:08.927567,-1
11:49:08.927567,-99
11:49:08.927567,-28161
11:49:08.927567,-1
11:49:08.927567,-108
11:49:08.927567,-31745
11:49:08.927567,-1
11:49:08.927567,-140
11:49:08.927567,29439
11:49:08.927567,-1
11:49:08.927567,-159
11:49:08.927567,23807
11:49:08.927567,-1
11:49:08.927567,-159
11:49:08.927567,25599
11:49:08.927567,-1
11:49:08.927567,-157
11:49:08.927567,22015
11:49:08.927567,-1
11:49:08.927567,-174
11:49:08.927567,22527
11:49:08.927567,-1
11:49:08.927567,-181
11:49:08.927567,17151
11:49:08.927567,-1
11:49:08.927567,-203
11:49:08.927567,13311
11:49:08.927567,-1
11:49:08.927567,-207
11:49:08.927567,10239
11:49:08.927567,-1
11:49:08.927567,-217
11:49:08.927567,9727
11:49:08.927567,-1
11:49:08.927567,-224
11:49:08.927567,8447
11:49:08.927567,-1
11:49:08.927567,-234
11:49:08.927567,4607
11:49:08.927567,-1
11:49:08.927567,-241
11:49:08.927567,1535
11:49:08.927567,-1
11:49:08.927567,-248
11:49:08.927567,1023
11:49:08.927567,-1
11:49:08.927567,-261
11:49:08.927567,-2049
11:49:08.927567,-2
11:49:08.927567,-275
11:49:08.927567,-4609
11:49:08.927567,-2
11:49:08.927567,-280
11:49:08.927567,-7681
11:49:08.927567,-2
11:49:08.927567,-290
11:49:08.927567,-10241
11:49:08.927567,-2
11:49:08.927567,-302
11:49:08.927567,-13313
11:49:08.927567,-2
11:49:08.927567,-323
11:49:08.927567,-16897
11:49:08.927567,-2
11:49:08.927567,-331
11:49:08.927567,-21249
11:49:08.927567,-2
11:49:08.927567,-340
11:49:08.927567,-19969
11:49:08.927567,-2
11:49:08.927567,-321
11:49:08.927567,-15873
11:49:08.927567,-2
11:49:08.927567,-328
11:49:08.927567,-19457
11:49:08.927567,-2
11:49:08.927567,-352
11:49:08.927567,-26369
11:49:08.927567,-2
11:49:08.927567,-352
11:49:08.927567,-24321
11:49:08.927567,-2
11:49:08.927567,-357
11:49:08.927567,-28161
11:49:08.927567,-2
11:49:08.927567,-369
11:49:08.927567,-31233
11:49:08.927567,-2
11:49:08.927567,-430
11:49:08.927567,10751
11:49:08.927567,-2
11:49:08.927567,-372
11:49:09.494609,-26
11:49:09.494609,23807
11:49:09.494609,1
11:49:09.494609,292
11:49:09.494609,-30208
11:49:09.494609,-1
11:49:09.494609,-396
11:49:09.494609,25087
11:49:09.494609,-2
11:49:09.494609,-406
11:49:09.494609,20735
11:49:09.494609,-2
11:49:09.494609,-418
11:49:09.494609,29951
11:49:09.494609,-2
11:49:09.494609,-403
11:49:09.494609,31231
11:49:09.494609,-2
11:49:09.494609,-377
11:49:09.494609,-31233
11:49:09.494609,-2
11:49:09.494609,-364
11:49:09.494609,-25601
11:49:09.494609,-2
11:49:09.494609,-352
11:49:09.494609,-22529
11:49:09.494609,-2
11:49:09.494609,-340
11:49:09.494609,-18945
11:49:09.494609,-2
11:49:09.494609,-323
11:49:09.494609,-15105
11:49:09.494609,-2
11:49:09.494609,-304
11:49:09.494609,-10753
11:49:09.494609,-2
11:49:09.494609,-287
11:49:09.494609,-5121
11:49:09.494609,-2
11:49:09.494609,-273
11:49:09.494609,1023
11:49:09.494609,-1
11:49:09.494609,-244
11:49:09.494609,5887
11:49:09.494609,-1
11:49:09.494609,-217
11:49:09.494609,13311
11:49:09.494609,-1
11:49:09.494609,-190
11:49:09.494609,18943
11:49:09.494609,-1
11:49:09.494609,-176
11:49:09.494609,23295
11:49:09.494609,-1
11:49:09.494609,-181
11:49:09.494609,17663
11:49:09.494609,-1
11:49:09.494609,-190
11:49:09.494609,15103
11:49:09.494609,-1
11:49:09.494609,-193
11:49:09.494609,17663
11:49:09.494609,-1
11:49:09.494609,-183
11:49:09.494609,20735
11:49:09.494609,-1
11:49:09.494609,-176
11:49:09.494609,22527
11:49:09.494609,-1
11:49:09.494609,-164
11:49:09.494609,25599
11:49:09.494609,-1
11:49:09.494609,-145
11:49:09.494609,28671
11:49:09.494609,-1
11:49:09.494609,-140
11:49:09.494609,31231
11:49:09.494609,-1
11:49:09.494609,-132
11:49:09.494609,-31233
11:49:09.494609,-1
11:49:09.494609,-118
11:49:09.494609,-29441
11:49:09.494609,-1
11:49:09.494609,-108
11:49:09.494609,-25601
11:49:09.494609,-1
11:49:09.494609,-91
11:49:09.494609,-23809
11:49:09.494609,-1
11:49:09.494609,-96
11:49:09.494609,-22017
11:49:09.494609,-1
11:49:09.494609,-91
11:49:09.494609,-23041
11:49:09.494609,-1
11:49:09.494609,-87
11:49:09.494609,-22017
11:49:09.494609,-1
11:49:09.494609,-82
11:49:09.494609,-19969
11:49:09.494609,-1
11:49:09.494609,-82
11:49:09.494609,-19969
11:49:09.494609,-1
11:49:09.494609,-82
11:49:09.494609,-19969
11:49:09.494609,-1
11:49:09.494609,-87
11:49:10.026441,-91
11:49:10.026441,-22529
11:49:10.026441,-1
11:49:10.026441,-91
11:49:10.026441,-20737
11:49:10.026441,-1
11:49:10.026441,-58
11:49:10.026441,-13313
11:49:10.026441,-1
11:49:10.026441,-58
11:49:10.026441,-16385
11:49:10.026441,-1
11:49:10.026441,-65
11:49:10.026441,-14593
11:49:10.026441,-1
11:49:10.026441,-62
11:49:10.026441,-16897
11:49:10.026441,-1
11:49:10.026441,-70
11:49:10.026441,-18689
11:49:10.026441,-1
11:49:10.026441,-72
11:49:10.026441,-20737
11:49:10.026441,-1
11:49:10.026441,-123
11:49:10.026441,17663
11:49:10.026441,-1
11:49:10.026441,-147
11:49:10.026441,-16641
11:49:10.026441,0
11:49:10.026441,664
11:49:10.026441,1280
11:49:10.026441,3
11:49:10.026441,362
11:49:10.026441,-19712
11:49:10.026441,-1
11:49:10.026441,-171
11:49:10.026441,29951
11:49:10.026441,-1
11:49:10.026441,-171
11:49:10.026441,20735
11:49:10.026441,-1
11:49:10.026441,-154
11:49:10.026441,26367
11:49:10.026441,-1
11:49:10.026441,-157
11:49:10.026441,26879
11:49:10.026441,-1
11:49:10.026441,-140
11:49:10.026441,29439
11:49:10.026441,-1
11:49:10.026441,-140
11:49:10.026441,32511
11:49:10.026441,-1
11:49:10.026441,-132
11:49:10.026441,-32513
11:49:10.026441,-1
11:49:10.026441,-123
11:49:10.026441,-30465
11:49:10.026441,-1
11:49:10.026441,-116
11:49:10.026441,-29441
11:49:10.026441,-1
11:49:10.026441,-113
11:49:10.026441,-27393
11:49:10.026441,-1
11:49:10.026441,-111
11:49:10.026441,-25601
11:49:10.026441,-1
11:49:10.026441,-101
11:49:10.026441,-24321
11:49:10.026441,-1
11:49:10.026441,-87
11:49:10.026441,-21249
11:49:10.026441,-1
11:49:10.026441,-74
11:49:10.026441,-16897
11:49:10.026441,-1
11:49:10.026441,-67
11:49:10.026441,-15105
11:49:10.026441,-1
11:49:10.026441,-60
11:49:10.026441,-16385
11:49:10.026441,-1
11:49:10.026441,-70
11:49:10.026441,-20737
11:49:10.026441,-1
11:49:10.026441,-79
11:49:10.026441,-21249
11:49:10.026441,-1
11:49:10.026441,-84
11:49:10.026441,-20737
11:49:10.026441,-1
11:49:10.026441,-87
11:49:10.026441,-22017
11:49:10.026441,-1
11:49:10.026441,-82
11:49:10.026441,-21249
11:49:10.026441,-1
11:49:10.026441,-84
11:49:10.026441,-22017
11:49:10.026441,-1
11:49:10.026441,-87
11:49:10.026441,-21249
11:49:10.026441,-1
11:49:10.026441,-87
11:49:10.026441,-20737
11:49:10.026441,-1
11:49:10.026441,-82
11:49:10.637435,-89
11:49:10.637435,-21249
11:49:10.637435,-1
11:49:10.637435,-82
11:49:10.637435,-19969
11:49:10.637435,-1
11:49:10.637435,-79
11:49:10.637435,-17665
11:49:10.637435,-1
11:49:10.637435,-53
11:49:10.637435,-13825
11:49:10.637435,-1
11:49:10.637435,-67
11:49:10.637435,-16385
11:49:10.637435,-1
11:49:10.637435,-62
11:49:10.637435,-15617
11:49:10.637435,-1
11:49:10.637435,-67
11:49:10.637435,-17665
11:49:10.637435,-1
11:49:10.637435,-62
11:49:10.637435,-16897
11:49:10.637435,-1
11:49:10.637435,-62
11:49:10.637435,-15105
11:49:10.637435,-1
11:49:10.637435,-67
11:49:10.637435,-17665
11:49:10.637435,-1
11:49:10.637435,-74
11:49:10.637435,-18689
11:49:10.637435,-1
11:49:10.637435,-72
11:49:10.637435,-18177
11:49:10.637435,-1
11:49:10.637435,-50
11:49:10.637435,-8961
11:49:10.637435,-1
11:49:10.637435,-45
11:49:10.637435,-13825
11:49:10.637435,-1
11:49:10.637435,-70
11:49:10.637435,-18689
11:49:10.637435,-1
11:49:10.637435,-70
11:49:10.637435,-17665
11:49:10.637435,-1
11:49:10.637435,-65
11:49:10.637435,-17665
11:49:10.637435,-1
11:49:10.637435,-70
11:49:10.637435,-18177
11:49:10.637435,-1
11:49:10.637435,-111
11:49:10.637435,22527
11:49:10.637435,-1
11:49:10.637435,-140
11:49:10.637435,-25089
11:49:10.637435,0
11:49:10.637435,623
11:49:10.637435,-512
11:49:10.637435,2
11:49:10.637435,401
11:49:10.637435,-7936
11:49:10.637435,-1
11:49:10.637435,-157
11:49:10.637435,-32513
11:49:10.637435,-1
11:49:10.637435,-152
11:49:10.637435,23295
11:49:10.637435,-1
11:49:10.637435,-142
11:49:10.637435,29951
11:49:10.637435,-1
11:49:10.637435,-137
11:49:10.637435,32511
11:49:10.637435,-1
11:49:10.637435,-128
11:49:10.637435,-30465
11:49:10.637435,-1
11:49:10.637435,-120
11:49:10.637435,-29441
11:49:10.637435,-1
11:49:10.637435,-108
11:49:10.637435,-27393
11:49:10.637435,-1
11:49:10.637435,-99
11:49:10.637435,-24321
11:49:10.637435,-1
11:49:10.637435,-94
11:49:10.637435,-23041
11:49:10.637435,-1
11:49:10.637435,-96
11:49:10.637435,-22529
11:49:10.637435,-1
11:49:10.637435,-84
11:49:10.637435,-19969
11:49:10.637435,-1
11:49:10.637435,-74
11:49:10.637435,-18689
11:49:10.637435,-1
11:49:10.637435,-67
11:49:10.637435,-14593
11:49:10.637435,-1
11:49:10.637435,-60
11:49:10.637435,-12033
11:49:10.637435,-1
11:49:10.637435,-43
11:49:11.142270,-43
11:49:11.142270,-10753
11:49:11.142270,-1
11:49:11.142270,-50
11:49:11.142270,-12545
11:49:11.142270,-1
11:49:11.142270,-60
11:49:11.142270,-18177
11:49:11.142270,-1
11:49:11.142270,-70
11:49:11.142270,-18177
11:49:11.142270,-1
11:49:11.142270,-70
11:49:11.142270,-16897
11:49:11.142270,-1
11:49:11.142270,-65
11:49:11.142270,-12545
11:49:11.142270,-1
11:49:11.142270,-53
11:49:11.142270,-16897
11:49:11.142270,-1
11:49:11.142270,-62
11:49:11.142270,-15105
11:49:11.142270,-1
11:49:11.142270,-62
11:49:11.142270,-16897
11:49:11.142270,-1
11:49:11.142270,-67
11:49:11.142270,-15617
11:49:11.142270,-1
11:49:11.142270,-67
11:49:11.142270,-16385
11:49:11.142270,-1
11:49:11.142270,-60
11:49:11.142270,-16897
11:49:11.142270,-1
11:49:11.142270,-70
11:49:11.142270,-16897
11:49:11.142270,-1
11:49:11.142270,-62
11:49:11.142270,-14593
11:49:11.142270,-1
11:49:11.142270,-65
11:49:11.142270,-16385
11:49:11.142270,-1
11:49:11.142270,-65
11:49:11.142270,-16385
11:49:11.142270,-1
11:49:11.142270,-60
11:49:11.142270,-15617
11:49:11.142270,-1
11:49:11.142270,-55
11:49:11.142270,-13313
11:49:11.142270,-1
11:49:11.142270,-65
11:49:11.142270,-15105
11:49:11.142270,-1
11:49:11.142270,-60
11:49:11.142270,-15105
11:49:11.142270,-1
11:49:11.142270,-55
11:49:11.142270,-15105
11:49:11.142270,-1
11:49:11.142270,-62
11:49:11.142270,-16385
11:49:11.142270,-1
11:49:11.142270,-70
11:49:11.142270,-15105
11:49:11.142270,-1
11:49:11.142270,-50
11:49:11.142270,-10241
11:49:11.142270,-1
11:49:11.142270,-36
11:49:11.142270,-10753
11:49:11.142270,-1
11:49:11.142270,-38
11:49:11.142270,-13825
11:49:11.142270,-1
11:49:11.142270,-74
11:49:11.142270,-16897
11:49:11.142270,-1
11:49:11.142270,-65
11:49:11.142270,-16897
11:49:11.142270,-1
11:49:11.142270,-70
11:49:11.142270,-16897
11:49:11.142270,-1
11:49:11.142270,-67
11:49:11.142270,-26881
11:49:11.142270,-1
11:49:11.142270,-166
11:49:11.142270,32511
11:49:11.142270,-1
11:49:11.142270,159
11:49:11.142270,26624
11:49:11.142270,2
11:49:11.142270,751
11:49:11.142270,-32768
11:49:11.142270,1
11:49:11.142270,-36
11:49:11.142270,25599
11:49:11.142270,-1
11:49:11.142270,-132
11:49:11.142270,25599
11:49:11.142270,-1
11:49:11.142270,-166
11:49:11.142270,29951
11:49:11.142270,-1
11:49:11.142270,-137
11:49:11.735362,-135
11:49:11.735362,-31745
11:49:11.735362,-1
11:49:11.735362,-128
11:49:11.735362,-30465
11:49:11.735362,-1
11:49:11.735362,-106
11:49:11.735362,-23809
11:49:11.735362,-1
11:49:11.735362,-94
11:49:11.735362,-26113
11:49:11.735362,-1
11:49:11.735362,-94
11:49:11.735362,-21249
11:49:11.735362,-1
11:49:11.735362,-89
11:49:11.735362,-21249
11:49:11.735362,-1
11:49:11.735362,-89
11:49:11.735362,-23041
11:49:11.735362,-1
11:49:11.735362,-84
11:49:11.735362,-20737
11:49:11.735362,-1
11:49:11.735362,-77
11:49:11.735362,-19457
11:49:11.735362,-1
11:49:11.735362,-74
11:49:11.735362,-16385
11:49:11.735362,-1
11:49:11.735362,-60
11:49:11.735362,-13825
11:49:11.735362,-1
11:49:11.735362,-53
11:49:11.735362,-13313
11:49:11.735362,-1
11:49:11.735362,-43
11:49:11.735362,-12545
11:49:11.735362,-1
11:49:11.735362,-62
11:49:11.735362,-15105
11:49:11.735362,-1
11:49:11.735362,-70
11:49:11.735362,-19457
11:49:11.735362,-1
11:49:11.735362,-77
11:49:11.735362,-19457
11:49:11.735362,-1
11:49:11.735362,-72
11:49:11.735362,-20737
11:49:11.735362,-1
11:49:11.735362,-84
11:49:11.735362,-21249
11:49:11.735362,-1
11:49:11.735362,-89
11:49:11.735362,-22017
11:49:11.735362,-1
11:49:11.735362,-87
11:49:11.735362,-22017
11:49:11.735362,-1
11:49:11.735362,-84
11:49:11.735362,-23041
11:49:11.735362,-1
11:49:11.735362,-87
11:49:11.735362,-22017
11:49:11.735362,-1
11:49:11.735362,-87
11:49:11.735362,-20737
11:49:11.735362,-1
11:49:11.735362,-87
11:49:11.735362,-22017
11:49:11.735362,-1
11:49:11.735362,-87
11:49:11.735362,-22529
11:49:11.735362,-1
11:49:11.735362,-84
11:49:11.735362,-22017
11:49:11.735362,-1
11:49:11.735362,-89
11:49:11.735362,-21249
11:49:11.735362,-1
11:49:11.735362,-89
11:49:11.735362,-22017
11:49:11.735362,-1
11:49:11.735362,-87
11:49:11.735362,-22529
11:49:11.735362,-1
11:49:11.735362,-82
11:49:11.735362,-20737
11:49:11.735362,-1
11:49:11.735362,-79
11:49:11.735362,-20737
11:49:11.735362,-1
11:49:11.735362,-84
11:49:11.735362,-18689
11:49:11.735362,-1
11:49:11.735362,-79
11:49:11.735362,-21249
11:49:11.735362,-1
11:49:11.735362,-77
11:49:11.735362,-19969
11:49:11.735362,-1
11:49:11.735362,-82
11:49:11.735362,-22017
11:49:11.735362,-1
11:49:11.735362,-87
11:49:11.735362,-17665
11:49:11.735362,-1
11:49:11.735362,-60
11:49:12.285208,-60
11:49:12.285208,-13825
11:49:12.285208,-1
11:49:12.285208,-53
11:49:12.285208,-16385
11:49:12.285208,-1
11:49:12.285208,-87
11:49:12.285208,-22017
11:49:12.285208,-1
11:49:12.285208,-72
11:49:12.285208,-19969
11:49:12.285208,-1
11:49:12.285208,-77
11:49:12.285208,-16385
11:49:12.285208,-1
11:49:12.285208,-60
11:49:12.285208,-24321
11:49:12.285208,-1
11:49:12.285208,-166
11:49:12.285208,-31745
11:49:12.285208,-1
11:49:12.285208,174
11:49:12.285208,22272
11:49:12.285208,2
11:49:12.285208,713
11:49:12.285208,20992
11:49:12.285208,1
11:49:12.285208,-62
11:49:12.285208,28671
11:49:12.285208,-1
11:49:12.285208,-120
11:49:12.285208,26879
11:49:12.285208,-1
11:49:12.285208,-159
11:49:12.285208,31231
11:49:12.285208,-1
11:49:12.285208,-130
11:49:12.285208,30719
11:49:12.285208,-1
11:49:12.285208,-125
11:49:12.285208,-29441
11:49:12.285208,-1
11:49:12.285208,-120
11:49:12.285208,-28673
11:49:12.285208,-1
11:49:12.285208,-111
11:49:12.285208,-27393
11:49:12.285208,-1
11:49:12.285208,-96
11:49:12.285208,-25089
11:49:12.285208,-1
11:49:12.285208,-94
11:49:12.285208,-22529
11:49:12.285208,-1
11:49:12.285208,-87
11:49:12.285208,-19969
11:49:12.285208,-1
11:49:12.285208,-77
11:49:12.285208,-19457
11:49:12.285208,-1
11:49:12.285208,-72
11:49:12.285208,-17665
11:49:12.285208,-1
11:49:12.285208,-62
11:49:12.285208,-15617
11:49:12.285208,-1
11:49:12.285208,-60
11:49:12.285208,-13313
11:49:12.285208,-1
11:49:12.285208,-50
11:49:12.285208,-10241
11:49:12.285208,-1
11:49:12.285208,-36
11:49:12.285208,-10241
11:49:12.285208,-1
11:49:12.285208,-41
11:49:12.285208,-13825
11:49:12.285208,-1
11:49:12.285208,-65
11:49:12.285208,-16385
11:49:12.285208,-1
11:49:12.285208,-70
11:49:12.285208,-17665
11:49:12.285208,-1
11:49:12.285208,-72
11:49:12.285208,-19457
11:49:12.285208,-1
11:49:12.285208,-74
11:49:12.285208,-19457
11:49:12.285208,-1
11:49:12.285208,-74
11:49:12.285208,-17665
11:49:12.285208,-1
11:49:12.285208,-72
11:49:12.285208,-17665
11:49:12.285208,-1
11:49:12.285208,-74
11:49:12.285208,-18177
11:49:12.285208,-1
11:49:12.285208,-70
11:49:12.285208,-17665
11:49:12.285208,-1
11:49:12.285208,-65
11:49:12.285208,-16897
11:49:12.285208,-1
11:49:12.285208,-67
11:49:12.285208,-15617
11:49:12.285208,-1
11:49:12.285208,-67
11:49:12.852130,-65
11:49:12.852130,-15105
11:49:12.852130,-1
11:49:12.852130,-62
11:49:12.852130,-14593
11:49:12.852130,-1
11:49:12.852130,-60
11:49:12.852130,-15617
11:49:12.852130,-1
11:49:12.852130,-53
11:49:12.852130,-11265
11:49:12.852130,-1
11:49:12.852130,-38
11:49:12.852130,-12033
11:49:12.852130,-1
11:49:12.852130,-55
11:49:12.852130,-12033
11:49:12.852130,-1
11:49:12.852130,-45
11:49:12.852130,-10753
11:49:12.852130,-1
11:49:12.852130,-45
11:49:12.852130,-13313
11:49:12.852130,-1
11:49:12.852130,-48
11:49:12.852130,-13313
11:49:12.852130,-1
11:49:12.852130,-50
11:49:12.852130,-12033
11:49:12.852130,-1
11:49:12.852130,-58
11:49:12.852130,-13313
11:49:12.852130,-1
11:49:12.852130,-53
11:49:12.852130,-15105
11:49:12.852130,-1
11:49:12.852130,-60
11:49:12.852130,-14593
11:49:12.852130,-1
11:49:12.852130,-41
11:49:12.852130,-8961
11:49:12.852130,-1
11:49:12.852130,-41
11:49:12.852130,-8193
11:49:12.852130,-1
11:49:12.852130,-38
11:49:12.852130,-13313
11:49:12.852130,-1
11:49:12.852130,-62
11:49:12.852130,-15105
11:49:12.852130,-1
11:49:12.852130,-53
11:49:12.852130,-14593
11:49:12.852130,-1
11:49:12.852130,-62
11:49:12.852130,-13825
11:49:12.852130,-1
11:49:12.852130,-82
11:49:12.852130,28671
11:49:12.852130,-1
11:49:12.852130,-157
11:49:12.852130,14335
11:49:12.852130,0
11:49:12.852130,509
11:49:12.852130,1280
11:49:12.852130,3
11:49:12.852130,509
11:49:12.852130,12800
11:49:12.852130,0
11:49:12.852130,-142
11:49:12.852130,-31233
11:49:12.852130,-1
11:49:12.852130,-140
11:49:12.852130,24575
11:49:12.852130,-1
11:49:12.852130,-135
11:49:12.852130,31999
11:49:12.852130,-1
11:49:12.852130,-137
11:49:12.852130,-31745
11:49:12.852130,-1
11:49:12.852130,-120
11:49:12.852130,-28673
11:49:12.852130,-1
11:49:12.852130,-113
11:49:12.852130,-28161
11:49:12.852130,-1
11:49:12.852130,-103
11:49:12.852130,-26113
11:49:12.852130,-1
11:49:12.852130,-99
11:49:12.852130,-24321
11:49:12.852130,-1
11:49:12.852130,-94
11:49:12.852130,-23041
11:49:12.852130,-1
11:49:12.852130,-96
11:49:12.852130,-23041
11:49:12.852130,-1
11:49:12.852130,-84
11:49:12.852130,-22017
11:49:12.852130,-1
11:49:12.852130,-79
11:49:12.852130,-19457
11:49:12.852130,-1
11:49:12.852130,-74
11:49:12.852130,-16897
11:49:12.852130,-1
11:49:12.852130,-62
11:49:13.393608,-55
11:49:13.393608,-12545
11:49:13.393608,-1
11:49:13.393608,-50
11:49:13.393608,-10241
11:49:13.393608,-1
11:49:13.393608,-43
11:49:13.393608,-12033
11:49:13.393608,-1
11:49:13.393608,-53
11:49:13.393608,-15617
11:49:13.393608,-1
11:49:13.393608,-50
11:49:13.393608,-12033
11:49:13.393608,-1
11:49:13.393608,-60
11:49:13.393608,-15617
11:49:13.393608,-1
11:49:13.393608,-62
11:49:13.393608,-15617
11:49:13.393608,-1
11:49:13.393608,-67
11:49:13.393608,-16897
11:49:13.393608,-1
11:49:13.393608,-65
11:49:13.393608,-17665
11:49:13.393608,-1
11:49:13.393608,-70
11:49:13.393608,-16385
11:49:13.393608,-1
11:49:13.393608,-70
11:49:13.393608,-16897
11:49:13.393608,-1
11:49:13.393608,-70
11:49:13.393608,-16897
11:49:13.393608,-1
11:49:13.393608,-58
11:49:13.393608,-16385
11:49:13.393608,-1
11:49:13.393608,-65
11:49:13.393608,-15617
11:49:13.393608,-1
11:49:13.393608,-62
11:49:13.393608,-15617
11:49:13.393608,-1
11:49:13.393608,-65
11:49:13.393608,-14593
11:49:13.393608,-1
11:49:13.393608,-55
11:49:13.393608,-15105
11:49:13.393608,-1
11:49:13.393608,-58
11:49:13.393608,-14593
11:49:13.393608,-1
11:49:13.393608,-55
11:49:13.393608,-12545
11:49:13.393608,-1
11:49:13.393608,-58
11:49:13.393608,-14593
11:49:13.393608,-1
11:49:13.393608,-53
11:49:13.393608,-15105
11:49:13.393608,-1
11:49:13.393608,-55
11:49:13.393608,-14593
11:49:13.393608,-1
11:49:13.393608,-60
11:49:13.393608,-15105
11:49:13.393608,-1
11:49:13.393608,-62
11:49:13.393608,-15105
11:49:13.393608,-1
11:49:13.393608,-62
11:49:13.393608,-16897
11:49:13.393608,-1
11:49:13.393608,-60
11:49:13.393608,-16385
11:49:13.393608,-1
11:49:13.393608,-67
11:49:13.393608,-17665
11:49:13.393608,-1
11:49:13.393608,-65
11:49:13.393608,-12033
11:49:13.393608,-1
11:49:13.393608,-48
11:49:13.393608,-12545
11:49:13.393608,-1
11:49:13.393608,-45
11:49:13.393608,-15617
11:49:13.393608,-1
11:49:13.393608,-82
11:49:13.393608,-22529
11:49:13.393608,-1
11:49:13.393608,-84
11:49:13.393608,-19969
11:49:13.393608,-1
11:49:13.393608,-89
11:49:13.393608,-23041
11:49:13.393608,-1
11:49:13.393608,-91
11:49:13.393608,32511
11:49:13.393608,-1
11:49:13.393608,-188
11:49:13.393608,25087
11:49:13.393608,-1
11:49:13.393608,135
11:49:13.393608,17408
11:49:13.393608,2
11:49:13.393608,691
11:49:13.992933,319
11:49:13.992933,-22784
11:49:13.992933,-1
11:49:13.992933,-193
11:49:13.992933,22015
11:49:13.992933,-1
11:49:13.992933,-203
11:49:13.992933,13823
11:49:13.992933,-1
11:49:13.992933,-176
11:49:13.992933,17151
11:49:13.992933,-1
11:49:13.992933,-200
11:49:13.992933,16383
11:49:13.992933,-1
11:49:13.992933,-188
11:49:13.992933,16383
11:49:13.992933,-1
11:49:13.992933,-203
11:49:13.992933,14591
11:49:13.992933,-1
11:49:13.992933,-207
11:49:13.992933,10751
11:49:13.992933,-1
11:49:13.992933,-212
11:49:13.992933,10751
11:49:13.992933,-1
11:49:13.992933,-215
11:49:13.992933,9727
11:49:13.992933,-1
11:49:13.992933,-224
11:49:13.992933,8959
11:49:13.992933,-1
11:49:13.992933,-224
11:49:13.992933,7679
11:49:13.992933,-1
11:49:13.992933,-219
11:49:13.992933,8447
11:49:13.992933,-1
11:49:13.992933,-224
11:49:13.992933,9727
11:49:13.992933,-1
11:49:13.992933,-215
11:49:13.992933,11519
11:49:13.992933,-1
11:49:13.992933,-222
11:49:13.992933,8447
11:49:13.992933,-1
11:49:13.992933,-229
11:49:13.992933,2815
11:49:13.992933,-1
11:49:13.992933,-258
11:49:13.992933,-4609
11:49:13.992933,-2
11:49:13.992933,-290
11:49:13.992933,-10241
11:49:13.992933,-2
11:49:13.992933,-306
11:49:13.992933,-15105
11:49:13.992933,-2
11:49:13.992933,-321
11:49:13.992933,-17665
11:49:13.992933,-2
11:49:13.992933,-323
11:49:13.992933,-18945
11:49:13.992933,-2
11:49:13.992933,-326
11:49:13.992933,-16897
11:49:13.992933,-2
11:49:13.992933,-335
11:49:13.992933,-19969
11:49:13.992933,-2
11:49:13.992933,-335
11:49:13.992933,-20737
11:49:13.992933,-2
11:49:13.992933,-338
11:49:13.992933,-22017
11:49:13.992933,-2
11:49:13.992933,-335
11:49:13.992933,-19969
11:49:13.992933,-2
11:49:13.992933,-340
11:49:13.992933,-19969
11:49:13.992933,-2
11:49:13.992933,-333
11:49:13.992933,-18945
11:49:13.992933,-2
11:49:13.992933,-328
11:49:13.992933,-17665
11:49:13.992933,-2
11:49:13.992933,-319
11:49:13.992933,-16897
11:49:13.992933,-2
11:49:13.992933,-328
11:49:13.992933,-14593
11:49:13.992933,-2
11:49:13.992933,-314
11:49:13.992933,-15873
11:49:13.992933,-2
11:49:13.992933,-321
11:49:13.992933,-15105
11:49:13.992933,-2
11:49:13.992933,-311
11:49:13.992933,-14593
11:49:13.992933,-2
11:49:13.992933,-309
11:49:13.992933,-11521
11:49:13.992933,-2
11:49:13.992933,-304
11:49:14.510453,-299
11:49:14.510453,-10241
11:49:14.510453,-2
11:49:14.510453,-297
11:49:14.510453,-7681
11:49:14.510453,-2
11:49:14.510453,-285
11:49:14.510453,-6401
11:49:14.510453,-2
11:49:14.510453,-282
11:49:14.510453,-5889
11:49:14.510453,-2
11:49:14.510453,-273
11:49:14.510453,-257
11:49:14.510453,-2
11:49:14.510453,-236
11:49:14.510453,8959
11:49:14.510453,-1
11:49:14.510453,-224
11:49:14.510453,7679
11:49:14.510453,-1
11:49:14.510453,-239
11:49:14.510453,2303
11:49:14.510453,-1
11:49:14.510453,-241
11:49:14.510453,5375
11:49:14.510453,-1
11:49:14.510453,-234
11:49:14.510453,6399
11:49:14.510453,-1
11:49:14.510453,-229
11:49:14.510453,1023
11:49:14.510453,-1
11:49:14.510453,-311
11:49:14.510453,-8961
11:49:14.510453,-2
11:49:14.510453,-48
11:49:14.510453,28671
11:49:14.510453,1
11:49:14.510453,538
11:49:14.510453,-9472
11:49:14.510453,0
11:49:14.510453,-178
11:49:14.510453,-3329
11:49:14.510453,-2
11:49:14.510453,-246
11:49:14.510453,-5889
11:49:14.510453,-2
11:49:14.510453,-292
11:49:14.510453,-3329
11:49:14.510453,-2
11:49:14.510453,-261
11:49:14.510453,-3329
11:49:14.510453,-2
11:49:14.510453,-261
11:49:14.510453,1535
11:49:14.510453,-1
11:49:14.510453,-248
11:49:14.510453,4607
11:49:14.510453,-1
11:49:14.510453,-234
11:49:14.510453,6399
11:49:14.510453,-1
11:49:14.510453,-227
11:49:14.510453,7679
11:49:14.510453,-1
11:49:14.510453,-222
11:49:14.510453,10751
11:49:14.510453,-1
11:49:14.510453,-210
11:49:14.510453,14591
11:49:14.510453,-1
11:49:14.510453,-200
11:49:14.510453,15103
11:49:14.510453,-1
11:49:14.510453,-186
11:49:14.510453,20223
11:49:14.510453,-1
11:49:14.510453,-171
11:49:14.510453,22527
11:49:14.510453,-1
11:49:14.510453,-161
11:49:14.510453,27647
11:49:14.510453,-1
11:49:14.510453,-142
11:49:14.510453,31231
11:49:14.510453,-1
11:49:14.510453,-125
11:49:14.510453,32511
11:49:14.510453,-1
11:49:14.510453,-135
11:49:14.510453,27647
11:49:14.510453,-1
11:49:14.510453,-161
11:49:14.510453,23807
11:49:14.510453,-1
11:49:14.510453,-171
11:49:14.510453,22015
11:49:14.510453,-1
11:49:14.510453,-174
11:49:14.510453,21247
11:49:14.510453,-1
11:49:14.510453,-171
11:49:14.510453,21247
11:49:14.510453,-1
11:49:14.510453,-169
11:49:14.510453,23295
11:49:14.510453,-1
11:49:14.510453,-169
11:49:15.104985,-161
11:49:15.104985,25087
11:49:15.104985,-1
11:49:15.104985,-157
11:49:15.104985,28671
11:49:15.104985,-1
11:49:15.104985,-130
11:49:15.104985,-30465
11:49:15.104985,-1
11:49:15.104985,-128
11:49:15.104985,32511
11:49:15.104985,-1
11:49:15.104985,-118
11:49:15.104985,-29441
11:49:15.104985,-1
11:49:15.104985,-108
11:49:15.104985,-26113
11:49:15.104985,-1
11:49:15.104985,-108
11:49:15.104985,-26881
11:49:15.104985,-1
11:49:15.104985,-101
11:49:15.104985,-23809
11:49:15.104985,-1
11:49:15.104985,-94
11:49:15.104985,-24321
11:49:15.104985,-1
11:49:15.104985,-91
11:49:15.104985,-22529
11:49:15.104985,-1
11:49:15.104985,-89
11:49:15.104985,-22017
11:49:15.104985,-1
11:49:15.104985,-87
11:49:15.104985,-20737
11:49:15.104985,-1
11:49:15.104985,-82
11:49:15.104985,-21249
11:49:15.104985,-1
11:49:15.104985,-77
11:49:15.104985,-19457
11:49:15.104985,-1
11:49:15.104985,-84
11:49:15.104985,-22529
11:49:15.104985,-1
11:49:15.104985,-91
11:49:15.104985,-21249
11:49:15.104985,-1
11:49:15.104985,-70
11:49:15.104985,-15617
11:49:15.104985,-1
11:49:15.104985,-60
11:49:15.104985,-15105
11:49:15.104985,-1
11:49:15.104985,-62
11:49:15.104985,-18689
11:49:15.104985,-1
11:49:15.104985,-82
11:49:15.104985,-18177
11:49:15.104985,-1
11:49:15.104985,-74
11:49:15.104985,-19969
11:49:15.104985,-1
11:49:15.104985,-74
11:49:15.104985,-19457
11:49:15.104985,-1
11:49:15.104985,-99
11:49:15.104985,23807
11:49:15.104985,-1
11:49:15.104985,-200
11:49:15.104985,255
11:49:15.104985,0
11:49:15.104985,459
11:49:15.104985,3072
11:49:15.104985,3
11:49:15.104985,560
11:49:15.104985,14848
11:49:15.104985,0
11:49:15.104985,-171
11:49:15.104985,27647
11:49:15.104985,-1
11:49:15.104985,-161
11:49:15.104985,17151
11:49:15.104985,-1
11:49:15.104985,-176
11:49:15.104985,24575
11:49:15.104985,-1
11:49:15.104985,-164
11:49:15.104985,25087
11:49:15.104985,-1
11:49:15.104985,-147
11:49:15.104985,26879
11:49:15.104985,-1
11:49:15.104985,-149
11:49:15.104985,30719
11:49:15.104985,-1
11:49:15.104985,-140
11:49:15.104985,29951
11:49:15.104985,-1
11:49:15.104985,-137
11:49:15.104985,31999
11:49:15.104985,-1
11:49:15.104985,-128
11:49:15.104985,-32513
11:49:15.104985,-1
11:49:15.104985,-123
11:49:15.104985,-31233
11:49:15.104985,-1
11:49:15.104985,-123
11:49:15.672538,-118
11:49:15.672538,-29953
11:49:15.672538,-1
11:49:15.672538,-116
11:49:15.672538,-27393
11:49:15.672538,-1
11:49:15.672538,-106
11:49:15.672538,-25089
11:49:15.672538,-1
11:49:15.672538,-94
11:49:15.672538,-22529
11:49:15.672538,-1
11:49:15.672538,-74
11:49:15.672538,-15617
11:49:15.672538,-1
11:49:15.672538,-65
11:49:15.672538,-20737
11:49:15.672538,-1
11:49:15.672538,-91
11:49:15.672538,-22529
11:49:15.672538,-1
11:49:15.672538,-99
11:49:15.672538,-26113
11:49:15.672538,-1
11:49:15.672538,-94
11:49:15.672538,-25089
11:49:15.672538,-1
11:49:15.672538,-103
11:49:15.672538,-26113
11:49:15.672538,-1
11:49:15.672538,-99
11:49:15.672538,-25089
11:49:15.672538,-1
11:49:15.672538,-103
11:49:15.672538,-25601
11:49:15.672538,-1
11:49:15.672538,-99
11:49:15.672538,-25601
11:49:15.672538,-1
11:49:15.672538,-101
11:49:15.672538,-25601
11:49:15.672538,-1
11:49:15.672538,-99
11:49:15.672538,-24321
11:49:15.672538,-1
11:49:15.672538,-101
11:49:15.672538,-24321
11:49:15.672538,-1
11:49:15.672538,-94
11:49:15.672538,-23041
11:49:15.672538,-1
11:49:15.672538,-87
11:49:15.672538,-22529
11:49:15.672538,-1
11:49:15.672538,-84
11:49:15.672538,-20737
11:49:15.672538,-1
11:49:15.672538,-89
11:49:15.672538,-21249
11:49:15.672538,-1
11:49:15.672538,-82
11:49:15.672538,-19969
11:49:15.672538,-1
11:49:15.672538,-82
11:49:15.672538,-22017
11:49:15.672538,-1
11:49:15.672538,-79
11:49:15.672538,-19457
11:49:15.672538,-1
11:49:15.672538,-79
11:49:15.672538,-18689
11:49:15.672538,-1
11:49:15.672538,-79
11:49:15.672538,-19969
11:49:15.672538,-1
11:49:15.672538,-77
11:49:15.672538,-18689
11:49:15.672538,-1
11:49:15.672538,-77
11:49:15.672538,-22017
11:49:15.672538,-1
11:49:15.672538,-91
11:49:15.672538,-19457
11:49:15.672538,-1
11:49:15.672538,-62
11:49:15.672538,-13825
11:49:15.672538,-1
11:49:15.672538,-53
11:49:15.672538,-12545
11:49:15.672538,-1
11:49:15.672538,-55
11:49:15.672538,-18177
11:49:15.672538,-1
11:49:15.672538,-77
11:49:15.672538,-17665
11:49:15.672538,-1
11:49:15.672538,-70
11:49:15.672538,-17665
11:49:15.672538,-1
11:49:15.672538,-70
11:49:15.672538,-17665
11:49:15.672538,-1
11:49:15.672538,-87
11:49:15.672538,25599
11:49:15.672538,-1
11:49:15.672538,-188
11:49:15.672538,255
11:49:15.672538,0
11:49:15.672538,449
11:49:16.205920,778
11:49:16.205920,18432
11:49:16.205920,2
11:49:16.205920,101
11:49:16.205920,25344
11:49:16.205920,-1
11:49:16.205920,-154
11:49:16.205920,27647
11:49:16.205920,-1
11:49:16.205920,-176
11:49:16.205920,24575
11:49:16.205920,-1
11:49:16.205920,-147
11:49:16.205920,27647
11:49:16.205920,-1
11:49:16.205920,-128
11:49:16.205920,-28161
11:49:16.205920,-1
11:49:16.205920,-120
11:49:16.205920,-30465
11:49:16.205920,-1
11:49:16.205920,-116
11:49:16.205920,-28161
11:49:16.205920,-1
11:49:16.205920,-111
11:49:16.205920,-28161
11:49:16.205920,-1
11:49:16.205920,-103
11:49:16.205920,-26113
11:49:16.205920,-1
11:49:16.205920,-103
11:49:16.205920,-25089
11:49:16.205920,-1
11:49:16.205920,-101
11:49:16.205920,-24321
11:49:16.205920,-1
11:49:16.205920,-94
11:49:16.205920,-22529
11:49:16.205920,-1
11:49:16.205920,-87
11:49:16.205920,-22529
11:49:16.205920,-1
11:49:16.205920,-84
11:49:16.205920,-18177
11:49:16.205920,-1
11:49:16.205920,-70
11:49:16.205920,-15617
11:49:16.205920,-1
11:49:16.205920,-55
11:49:16.205920,-12545
11:49:16.205920,-1
11:49:16.205920,-50
11:49:16.205920,-16385
11:49:16.205920,-1
11:49:16.205920,-72
11:49:16.205920,-18177
11:49:16.205920,-1
11:49:16.205920,-77
11:49:16.205920,-19969
11:49:16.205920,-1
11:49:16.205920,-82
11:49:16.205920,-19969
11:49:16.205920,-1
11:49:16.205920,-79
11:49:16.205920,-20737
11:49:16.205920,-1
11:49:16.205920,-74
11:49:16.205920,-18689
11:49:16.205920,-1
11:49:16.205920,-77
11:49:16.205920,-19457
11:49:16.205920,-1
11:49:16.205920,-79
11:49:16.205920,-19969
11:49:16.205920,-1
11:49:16.205920,-82
11:49:16.205920,-22017
11:49:16.205920,-1
11:49:16.205920,-84
11:49:16.205920,-20737
11:49:16.205920,-1
11:49:16.205920,-79
11:49:16.205920,-19457
11:49:16.205920,-1
11:49:16.205920,-72
11:49:16.205920,-16897
11:49:16.205920,-1
11:49:16.205920,-77
11:49:16.205920,-19969
11:49:16.205920,-1
11:49:16.205920,-70
11:49:16.205920,-18689
11:49:16.205920,-1
11:49:16.205920,-77
11:49:16.205920,-18689
11:49:16.205920,-1
11:49:16.205920,-74
11:49:16.205920,-18689
11:49:16.205920,-1
11:49:16.205920,-77
11:49:16.205920,-18689
11:49:16.205920,-1
11:49:16.205920,-74
11:49:16.205920,-19457
11:49:16.205920,-1
11:49:16.205920,-72
11:49:16.205920,-18177
11:49:16.205920,-1
11:49:16.205920,-72
11:49:16.755043,-67
11:49:16.755043,-17665
11:49:16.755043,-1
11:49:16.755043,-72
11:49:16.755043,-18177
11:49:16.755043,-1
11:49:16.755043,-72
11:49:16.755043,-16897
11:49:16.755043,-1
11:49:16.755043,-70
11:49:16.755043,-15617
11:49:16.755043,-1
11:49:16.755043,-55
11:49:16.755043,-15617
11:49:16.755043,-1
11:49:16.755043,-53
11:49:16.755043,-9473
11:49:16.755043,-1
11:49:16.755043,-41
11:49:16.755043,-10753
11:49:16.755043,-1
11:49:16.755043,-45
11:49:16.755043,-13313
11:49:16.755043,-1
11:49:16.755043,-67
11:49:16.755043,-17665
11:49:16.755043,-1
11:49:16.755043,-58
11:49:16.755043,-15105
11:49:16.755043,-1
11:49:16.755043,-65
11:49:16.755043,-16385
11:49:16.755043,-1
11:49:16.755043,-77
11:49:16.755043,-31233
11:49:16.755043,-1
11:49:16.755043,-178
11:49:16.755043,-21249
11:49:16.755043,-1
11:49:16.755043,302
11:49:16.755043,-11776
11:49:16.755043,2
11:49:16.755043,698
11:49:16.755043,-2560
11:49:16.755043,0
11:49:16.755043,-108
11:49:16.755043,27647
11:49:16.755043,-1
11:49:16.755043,-137
11:49:16.755043,23295
11:49:16.755043,-1
11:49:16.755043,-159
11:49:16.755043,29951
11:49:16.755043,-1
11:49:16.755043,-140
11:49:16.755043,30719
11:49:16.755043,-1
11:49:16.755043,-128
11:49:16.755043,-29953
11:49:16.755043,-1
11:49:16.755043,-123
11:49:16.755043,-29953
11:49:16.755043,-1
11:49:16.755043,-111
11:49:16.755043,-28161
11:49:16.755043,-1
11:49:16.755043,-106
11:49:16.755043,-26881
11:49:16.755043,-1
11:49:16.755043,-103
11:49:16.755043,-23809
11:49:16.755043,-1
11:49:16.755043,-91
11:49:16.755043,-22529
11:49:16.755043,-1
11:49:16.755043,-89
11:49:16.755043,-22017
11:49:16.755043,-1
11:49:16.755043,-84
11:49:16.755043,-21249
11:49:16.755043,-1
11:49:16.755043,-74
11:49:16.755043,-18177
11:49:16.755043,-1
11:49:16.755043,-72
11:49:16.755043,-15617
11:49:16.755043,-1
11:49:16.755043,-58
11:49:16.755043,-13313
11:49:16.755043,-1
11:49:16.755043,-45
11:49:16.755043,-12545
11:49:16.755043,-1
11:49:16.755043,-55
11:49:16.755043,-15617
11:49:16.755043,-1
11:49:16.755043,-72
11:49:16.755043,-17665
11:49:16.755043,-1
11:49:16.755043,-77
11:49:16.755043,-19969
11:49:16.755043,-1
11:49:16.755043,-82
11:49:16.755043,-20737
11:49:16.755043,-1
11:49:16.755043,-79
11:49:16.755043,-20737
11:49:16.755043,-1
11:49:16.755043,-84
11:49:17.319153,-82
11:49:17.319153,-20737
11:49:17.319153,-1
11:49:17.319153,-84
11:49:17.319153,-21249
11:49:17.319153,-1
11:49:17.319153,-77
11:49:17.319153,-15105
11:49:17.319153,-1
11:49:17.319153,-60
11:49:17.319153,-16897
11:49:17.319153,-1
11:49:17.319153,-67
11:49:17.319153,-16897
11:49:17.319153,-1
11:49:17.319153,-67
11:49:17.319153,-18177
11:49:17.319153,-1
11:49:17.319153,-70
11:49:17.319153,-16897
11:49:17.319153,-1
11:49:17.319153,-72
11:49:17.319153,-18177
11:49:17.319153,-1
11:49:17.319153,-67
11:49:17.319153,-16897
11:49:17.319153,-1
11:49:17.319153,-65
11:49:17.319153,-15105
11:49:17.319153,-1
11:49:17.319153,-58
11:49:17.319153,-15105
11:49:17.319153,-1
11:49:17.319153,-67
11:49:17.319153,-15617
11:49:17.319153,-1
11:49:17.319153,-65
11:49:17.319153,-16385
11:49:17.319153,-1
11:49:17.319153,-65
11:49:17.319153,-16385
11:49:17.319153,-1
11:49:17.319153,-60
11:49:17.319153,-15105
11:49:17.319153,-1
11:49:17.319153,-62
11:49:17.319153,-15105
11:49:17.319153,-1
11:49:17.319153,-62
11:49:17.319153,-15105
11:49:17.319153,-1
11:49:17.319153,-60
11:49:17.319153,-16385
11:49:17.319153,-1
11:49:17.319153,-65
11:49:17.319153,-16897
11:49:17.319153,-1
11:49:17.319153,-72
11:49:17.319153,-16385
11:49:17.319153,-1
11:49:17.319153,-50
11:49:17.319153,-11265
11:49:17.319153,-1
11:49:17.319153,-50
11:49:17.319153,-11265
11:49:17.319153,-1
11:49:17.319153,-41
11:49:17.319153,-16385
11:49:17.319153,-1
11:49:17.319153,-79
11:49:17.319153,-16897
11:49:17.319153,-1
11:49:17.319153,-62
11:49:17.319153,-16385
11:49:17.319153,-1
11:49:17.319153,-65
11:49:17.319153,-16897
11:49:17.319153,-1
11:49:17.319153,-79
11:49:17.319153,31231
11:49:17.319153,-1
11:49:17.319153,-174
11:49:17.319153,-7169
11:49:17.319153,-1
11:49:17.319153,379
11:49:17.319153,-6656
11:49:17.319153,2
11:49:17.319153,613
11:49:17.319153,-27904
11:49:17.319153,0
11:49:17.319153,-135
11:49:17.319153,28671
11:49:17.319153,-1
11:49:17.319153,-135
11:49:17.319153,22015
11:49:17.319153,-1
11:49:17.319153,-164
11:49:17.319153,28671
11:49:17.319153,-1
11:49:17.319153,-149
11:49:17.319153,29439
11:49:17.319153,-1
11:49:17.319153,-132
11:49:17.319153,32511
11:49:17.319153,-1
11:49:17.319153,-125
11:49:17.319153,-30465
11:49:17.319153,-1
11:49:17.319153,-118
11:49:17.869115,-113
11:49:17.869115,-28673
11:49:17.869115,-1
11:49:17.869115,-106
11:49:17.869115,-25601
11:49:17.869115,-1
11:49:17.869115,-101
11:49:17.869115,-23809
11:49:17.869115,-1
11:49:17.869115,-82
11:49:17.869115,-18177
11:49:17.869115,-1
11:49:17.869115,-82
11:49:17.869115,-21249
11:49:17.869115,-1
11:49:17.869115,-72
11:49:17.869115,-17665
11:49:17.869115,-1
11:49:17.869115,-67
11:49:17.869115,-15105
11:49:17.869115,-1
11:49:17.869115,-62
11:49:17.869115,-13313
11:49:17.869115,-1
11:49:17.869115,-41
11:49:17.869115,-9473
11:49:17.869115,-1
11:49:17.869115,-45
11:49:17.869115,-13825
11:49:17.869115,-1
11:49:17.869115,-60
11:49:17.869115,-16385
11:49:17.869115,-1
11:49:17.869115,-72
11:49:17.869115,-19457
11:49:17.869115,-1
11:49:17.869115,-79
11:49:17.869115,-19457
11:49:17.869115,-1
11:49:17.869115,-74
11:49:17.869115,-20737
11:49:17.869115,-1
11:49:17.869115,-77
11:49:17.869115,-19969
11:49:17.869115,-1
11:49:17.869115,-82
11:49:17.869115,-20737
11:49:17.869115,-1
11:49:17.869115,-84
11:49:17.869115,-20737
11:49:17.869115,-1
11:49:17.869115,-82
11:49:17.869115,-21249
11:49:17.869115,-1
11:49:17.869115,-82
11:49:17.869115,-20737
11:49:17.869115,-1
11:49:17.869115,-84
11:49:17.869115,-19969
11:49:17.869115,-1
11:49:17.869115,-77
11:49:17.869115,-18689
11:49:17.869115,-1
11:49:17.869115,-79
11:49:17.869115,-19969
11:49:17.869115,-1
11:49:17.869115,-74
11:49:17.869115,-19457
11:49:17.869115,-1
11:49:17.869115,-74
11:49:17.869115,-18177
11:49:17.869115,-1
11:49:17.869115,-74
11:49:17.869115,-18177
11:49:17.869115,-1
11:49:17.869115,-77
11:49:17.869115,-19457
11:49:17.869115,-1
11:49:17.869115,-70
11:49:17.869115,-16897
11:49:17.869115,-1
11:49:17.869115,-67
11:49:17.869115,-17665
11:49:17.869115,-1
11:49:17.869115,-72
11:49:17.869115,-16897
11:49:17.869115,-1
11:49:17.869115,-70
11:49:17.869115,-16897
11:49:17.869115,-1
11:49:17.869115,-70
11:49:17.869115,-18177
11:49:17.869115,-1
11:49:17.869115,-67
11:49:17.869115,-17665
11:49:17.869115,-1
11:49:17.869115,-72
11:49:17.869115,-17665
11:49:17.869115,-1
11:49:17.869115,-74
11:49:17.869115,-18689
11:49:17.869115,-1
11:49:17.869115,-74
11:49:17.869115,-19457
11:49:17.869115,-1
11:49:17.869115,-79
11:49:17.869115,-21249
11:49:17.869115,-1
11:49:17.869115,-70
11:49:18.455780,-60
11:49:18.455780,-16385
11:49:18.455780,-1
11:49:18.455780,-58
11:49:18.455780,-12033
11:49:18.455780,-1
11:49:18.455780,-53
11:49:18.455780,-18689
11:49:18.455780,-1
11:49:18.455780,-87
11:49:18.455780,-18689
11:49:18.455780,-1
11:49:18.455780,-74
11:49:18.455780,-22529
11:49:18.455780,-1
11:49:18.455780,-87
11:49:18.455780,-24321
11:49:18.455780,-1
11:49:18.455780,-145
11:49:18.455780,15103
11:49:18.455780,-1
11:49:18.455780,-111
11:49:18.455780,-4865
11:49:18.455780,0
11:49:18.455780,621
11:49:18.455780,20480
11:49:18.455780,2
11:49:18.455780,169
11:49:18.455780,23040
11:49:18.455780,-1
11:49:18.455780,-210
11:49:18.455780,15103
11:49:18.455780,-1
11:49:18.455780,-236
11:49:18.455780,4607
11:49:18.455780,-1
11:49:18.455780,-229
11:49:18.455780,5375
11:49:18.455780,-1
11:49:18.455780,-234
11:49:18.455780,8447
11:49:18.455780,-1
11:49:18.455780,-222
11:49:18.455780,7167
11:49:18.455780,-1
11:49:18.455780,-229
11:49:18.455780,8447
11:49:18.455780,-1
11:49:18.455780,-232
11:49:18.455780,7167
11:49:18.455780,-1
11:49:18.455780,-222
11:49:18.455780,8959
11:49:18.455780,-1
11:49:18.455780,-217
11:49:18.455780,10239
11:49:18.455780,-1
11:49:18.455780,-215
11:49:18.455780,12031
11:49:18.455780,-1
11:49:18.455780,-207
11:49:18.455780,14591
11:49:18.455780,-1
11:49:18.455780,-198
11:49:18.455780,15103
11:49:18.455780,-1
11:49:18.455780,-195
11:49:18.455780,17151
11:49:18.455780,-1
11:49:18.455780,-176
11:49:18.455780,23295
11:49:18.455780,-1
11:49:18.455780,-164
11:49:18.455780,25087
11:49:18.455780,-1
11:49:18.455780,-164
11:49:18.455780,20735
11:49:18.455780,-1
11:49:18.455780,-190
11:49:18.455780,15103
11:49:18.455780,-1
11:49:18.455780,-200
11:49:18.455780,12031
11:49:18.455780,-1
11:49:18.455780,-210
11:49:18.455780,13823
11:49:18.455780,-1
11:49:18.455780,-210
11:49:18.455780,13311
11:49:18.455780,-1
11:49:18.455780,-198
11:49:18.455780,14591
11:49:18.455780,-1
11:49:18.455780,-195
11:49:18.455780,16383
11:49:18.455780,-1
11:49:18.455780,-195
11:49:18.455780,16383
11:49:18.455780,-1
11:49:18.455780,-190
11:49:18.455780,18175
11:49:18.455780,-1
11:49:18.455780,-181
11:49:18.455780,20735
11:49:18.455780,-1
11:49:18.455780,-169
11:49:18.455780,23295
11:49:18.455780,-1
11:49:18.455780,-161
11:49:19.027757,-159
11:49:19.027757,26367
11:49:19.027757,-1
11:49:19.027757,-147
11:49:19.027757,27647
11:49:19.027757,-1
11:49:19.027757,-147
11:49:19.027757,29439
11:49:19.027757,-1
11:49:19.027757,-145
11:49:19.027757,29439
11:49:19.027757,-1
11:49:19.027757,-130
11:49:19.027757,-29953
11:49:19.027757,-1
11:49:19.027757,-120
11:49:19.027757,32511
11:49:19.027757,-1
11:49:19.027757,-123
11:49:19.027757,-30465
11:49:19.027757,-1
11:49:19.027757,-125
11:49:19.027757,-29441
11:49:19.027757,-1
11:49:19.027757,-116
11:49:19.027757,-29441
11:49:19.027757,-1
11:49:19.027757,-113
11:49:19.027757,-28161
11:49:19.027757,-1
11:49:19.027757,-103
11:49:19.027757,-25601
11:49:19.027757,-1
11:49:19.027757,-103
11:49:19.027757,-24321
11:49:19.027757,-1
11:49:19.027757,-99
11:49:19.027757,-25089
11:49:19.027757,-1
11:49:19.027757,-101
11:49:19.027757,-26113
11:49:19.027757,-1
11:49:19.027757,-89
11:49:19.027757,-19457
11:49:19.027757,-1
11:49:19.027757,-74
11:49:19.027757,-16897
11:49:19.027757,-1
11:49:19.027757,-67
11:49:19.027757,-19969
11:49:19.027757,-1
11:49:19.027757,-99
11:49:19.027757,-25601
11:49:19.027757,-1
11:49:19.027757,-87
11:49:19.027757,-22529
11:49:19.027757,-1
11:49:19.027757,-89
11:49:19.027757,-22017
11:49:19.027757,-1
11:49:19.027757,-96
11:49:19.027757,31231
11:49:19.027757,-1
11:49:19.027757,-195
11:49:19.027757,31999
11:49:19.027757,-1
11:49:19.027757,203
11:49:19.027757,28416
11:49:19.027757,2
11:49:19.027757,669
11:49:19.027757,2304
11:49:19.027757,1
11:49:19.027757,-94
11:49:19.027757,29439
11:49:19.027757,-1
11:49:19.027757,-125
11:49:19.027757,23807
11:49:19.027757,-1
11:49:19.027757,-164
11:49:19.027757,28671
11:49:19.027757,-1
11:49:19.027757,-147
11:49:19.027757,28159
11:49:19.027757,-1
11:49:19.027757,-132
11:49:19.027757,-31745
11:49:19.027757,-1
11:49:19.027757,-128
11:49:19.027757,-31745
11:49:19.027757,-1
11:49:19.027757,-120
11:49:19.027757,-29953
11:49:19.027757,-1
11:49:19.027757,-111
11:49:19.027757,-26881
11:49:19.027757,-1
11:49:19.027757,-101
11:49:19.027757,-25601
11:49:19.027757,-1
11:49:19.027757,-101
11:49:19.027757,-23041
11:49:19.027757,-1
11:49:19.027757,-89
11:49:19.027757,-22529
11:49:19.027757,-1
11:49:19.027757,-82
11:49:19.027757,-19457
11:49:19.027757,-1
11:49:19.027757,-70
11:49:19.579134,-65
11:49:19.579134,-15105
11:49:19.579134,-1
11:49:19.579134,-48
11:49:19.579134,-9473
11:49:19.579134,-1
11:49:19.579134,-33
11:49:19.579134,-7681
11:49:19.579134,-1
11:49:19.579134,-33
11:49:19.579134,-10241
11:49:19.579134,-1
11:49:19.579134,-53
11:49:19.579134,-13825
11:49:19.579134,-1
11:49:19.579134,-45
11:49:19.579134,-14593
11:49:19.579134,-1
11:49:19.579134,-67
11:49:19.579134,-16385
11:49:19.579134,-1
11:49:19.579134,-62
11:49:19.579134,-16385
11:49:19.579134,-1
11:49:19.579134,-67
11:49:19.579134,-15617
11:49:19.579134,-1
11:49:19.579134,-60
11:49:19.579134,-16385
11:49:19.579134,-1
11:49:19.579134,-65
11:49:19.579134,-16385
11:49:19.579134,-1
11:49:19.579134,-65
11:49:19.579134,-15617
11:49:19.579134,-1
11:49:19.579134,-62
11:49:19.579134,-14593
11:49:19.579134,-1
11:49:19.579134,-55
11:49:19.579134,-14593
11:49:19.579134,-1
11:49:19.579134,-53
11:49:19.579134,-13313
11:49:19.579134,-1
11:49:19.579134,-50
11:49:19.579134,-12033
11:49:19.579134,-1
11:49:19.579134,-48
11:49:19.579134,-11265
11:49:19.579134,-1
11:49:19.579134,-48
11:49:19.579134,-12033
11:49:19.579134,-1
11:49:19.579134,-41
11:49:19.579134,-11265
11:49:19.579134,-1
11:49:19.579134,-45
11:49:19.579134,-12033
11:49:19.579134,-1
11:49:19.579134,-50
11:49:19.579134,-11265
11:49:19.579134,-1
11:49:19.579134,-45
11:49:19.579134,-11265
11:49:19.579134,-1
11:49:19.579134,-45
11:49:19.579134,-11265
11:49:19.579134,-1
11:49:19.579134,-43
11:49:19.579134,-11265
11:49:19.579134,-1
11:49:19.579134,-45
11:49:19.579134,-10241
11:49:19.579134,-1
11:49:19.579134,-45
11:49:19.579134,-12033
11:49:19.579134,-1
11:49:19.579134,-43
11:49:19.579134,-10753
11:49:19.579134,-1
11:49:19.579134,-43
11:49:19.579134,-12545
11:49:19.579134,-1
11:49:19.579134,-45
11:49:19.579134,-8193
11:49:19.579134,-1
11:49:19.579134,-33
11:49:19.579134,-7681
11:49:19.579134,-1
11:49:19.579134,-26
11:49:19.579134,-6401
11:49:19.579134,-1
11:49:19.579134,-36
11:49:19.579134,-14593
11:49:19.579134,-1
11:49:19.579134,-58
11:49:19.579134,-12545
11:49:19.579134,-1
11:49:19.579134,-53
11:49:19.579134,-12033
11:49:19.579134,-1
11:49:19.579134,-45
11:49:19.579134,-14593
11:49:19.579134,-1
11:49:19.579134,-99
11:49:19.579134,25087
11:49:19.579134,-1
11:49:19.579134,-91
11:49:20.144914,244
11:49:20.144914,-24064
11:49:20.144914,2
11:49:20.144914,722
11:49:20.144914,12800
11:49:20.144914,1
11:49:20.144914,-67
11:49:20.144914,31999
11:49:20.144914,-1
11:49:20.144914,-113
11:49:20.144914,31231
11:49:20.144914,-1
11:49:20.144914,-135
11:49:20.144914,-30465
11:49:20.144914,-1
11:49:20.144914,-123
11:49:20.144914,-29953
11:49:20.144914,-1
11:49:20.144914,-108
11:49:20.144914,-27393
11:49:20.144914,-1
11:49:20.144914,-108
11:49:20.144914,-24321
11:49:20.144914,-1
11:49:20.144914,-99
11:49:20.144914,-23809
11:49:20.144914,-1
11:49:20.144914,-87
11:49:20.144914,-23041
11:49:20.144914,-1
11:49:20.144914,-89
11:49:20.144914,-22017
11:49:20.144914,-1
11:49:20.144914,-84
11:49:20.144914,-19457
11:49:20.144914,-1
11:49:20.144914,-79
11:49:20.144914,-19457
11:49:20.144914,-1
11:49:20.144914,-72
11:49:20.144914,-17665
11:49:20.144914,-1
11:49:20.144914,-67
11:49:20.144914,-16385
11:49:20.144914,-1
11:49:20.144914,-58
11:49:20.144914,-13313
11:49:20.144914,-1
11:49:20.144914,-50
11:49:20.144914,-10241
11:49:20.144914,-1
11:49:20.144914,-33
11:49:20.144914,-7169
11:49:20.144914,-1
11:49:20.144914,-33
11:49:20.144914,-12033
11:49:20.144914,-1
11:49:20.144914,-50
11:49:20.144914,-14593
11:49:20.144914,-1
11:49:20.144914,-67
11:49:20.144914,-16385
11:49:20.144914,-1
11:49:20.144914,-65
11:49:20.144914,-16385
11:49:20.144914,-1
11:49:20.144914,-65
11:49:20.144914,-16385
11:49:20.144914,-1
11:49:20.144914,-60
11:49:20.144914,-15617
11:49:20.144914,-1
11:49:20.144914,-60
11:49:20.144914,-14593
11:49:20.144914,-1
11:49:20.144914,-62
11:49:20.144914,-15617
11:49:20.144914,-1
11:49:20.144914,-62
11:49:20.144914,-15617
11:49:20.144914,-1
11:49:20.144914,-58
11:49:20.144914,-14593
11:49:20.144914,-1
11:49:20.144914,-58
11:49:20.144914,-13825
11:49:20.144914,-1
11:49:20.144914,-53
11:49:20.144914,-12545
11:49:20.144914,-1
11:49:20.144914,-53
11:49:20.144914,-13313
11:49:20.144914,-1
11:49:20.144914,-48
11:49:20.144914,-12545
11:49:20.144914,-1
11:49:20.144914,-50
11:49:20.144914,-12545
11:49:20.144914,-1
11:49:20.144914,-50
11:49:20.144914,-12033
11:49:20.144914,-1
11:49:20.144914,-50
11:49:20.144914,-12033
11:49:20.144914,-1
11:49:20.144914,-48
11:49:20.144914,-13825
11:49:20.144914,-1
11:49:20.144914,-48
11:49:20.706782,-45
11:49:20.706782,-12033
11:49:20.706782,-1
11:49:20.706782,-45
11:49:20.706782,-12033
11:49:20.706782,-1
11:49:20.706782,-48
11:49:20.706782,-11265
11:49:20.706782,-1
11:49:20.706782,-48
11:49:20.706782,-10241
11:49:20.706782,-1
11:49:20.706782,-31
11:49:20.706782,-6401
11:49:20.706782,-1
11:49:20.706782,-38
11:49:20.706782,-10753
11:49:20.706782,-1
11:49:20.706782,-26
11:49:20.706782,-5121
11:49:20.706782,-1
11:49:20.706782,-24
11:49:20.706782,-2817
11:49:20.706782,-1
11:49:20.706782,-16
11:49:20.706782,-8193
11:49:20.706782,-1
11:49:20.706782,-45
11:49:20.706782,-10753
11:49:20.706782,-1
11:49:20.706782,-33
11:49:20.706782,-10753
11:49:20.706782,-1
11:49:20.706782,-50
11:49:20.706782,-12033
11:49:20.706782,-1
11:49:20.706782,-70
11:49:20.706782,32511
11:49:20.706782,-1
11:49:20.706782,-154
11:49:20.706782,9983
11:49:20.706782,0
11:49:20.706782,480
11:49:20.706782,1280
11:49:20.706782,3
11:49:20.706782,546
11:49:20.706782,18944
11:49:20.706782,0
11:49:20.706782,-137
11:49:20.706782,-31233
11:49:20.706782,-1
11:49:20.706782,-140
11:49:20.706782,23807
11:49:20.706782,-1
11:49:20.706782,-145
11:49:20.706782,29439
11:49:20.706782,-1
11:49:20.706782,-145
11:49:20.706782,31999
11:49:20.706782,-1
11:49:20.706782,-125
11:49:20.706782,-31233
11:49:20.706782,-1
11:49:20.706782,-120
11:49:20.706782,-29953
11:49:20.706782,-1
11:49:20.706782,-120
11:49:20.706782,-31745
11:49:20.706782,-1
11:49:20.706782,-118
11:49:20.706782,-28673
11:49:20.706782,-1
11:49:20.706782,-113
11:49:20.706782,-28673
11:49:20.706782,-1
11:49:20.706782,-113
11:49:20.706782,-28161
11:49:20.706782,-1
11:49:20.706782,-113
11:49:20.706782,-29441
11:49:20.706782,-1
11:49:20.706782,-106
11:49:20.706782,-26881
11:49:20.706782,-1
11:49:20.706782,-103
11:49:20.706782,-23809
11:49:20.706782,-1
11:49:20.706782,-94
11:49:20.706782,-22017
11:49:20.706782,-1
11:49:20.706782,-82
11:49:20.706782,-20737
11:49:20.706782,-1
11:49:20.706782,-79
11:49:20.706782,-22017
11:49:20.706782,-1
11:49:20.706782,-96
11:49:20.706782,-27393
11:49:20.706782,-1
11:49:20.706782,-123
11:49:20.706782,-32513
11:49:20.706782,-1
11:49:20.706782,-137
11:49:20.706782,29951
11:49:20.706782,-1
11:49:20.706782,-137
11:49:20.706782,29951
11:49:20.706782,-1
11:49:20.706782,-140
11:49:21.225424,-142
11:49:21.225424,29951
11:49:21.225424,-1
11:49:21.225424,-137
11:49:21.225424,29951
11:49:21.225424,-1
11:49:21.225424,-137
11:49:21.225424,30719
11:49:21.225424,-1
11:49:21.225424,-132
11:49:21.225424,32511
11:49:21.225424,-1
11:49:21.225424,-132
11:49:21.225424,-29953
11:49:21.225424,-1
11:49:21.225424,-108
11:49:21.225424,-30465
11:49:21.225424,-1
11:49:21.225424,-120
11:49:21.225424,-28673
11:49:21.225424,-1
11:49:21.225424,-113
11:49:21.225424,-28673
11:49:21.225424,-1
11:49:21.225424,-111
11:49:21.225424,-27393
11:49:21.225424,-1
11:49:21.225424,-111
11:49:21.225424,-29441
11:49:21.225424,-1
11:49:21.225424,-111
11:49:21.225424,-28161
11:49:21.225424,-1
11:49:21.225424,-108
11:49:21.225424,-26113
11:49:21.225424,-1
11:49:21.225424,-106
11:49:21.225424,-25601
11:49:21.225424,-1
11:49:21.225424,-101
11:49:21.225424,-25601
11:49:21.225424,-1
11:49:21.225424,-96
11:49:21.225424,-25089
11:49:21.225424,-1
11:49:21.225424,-96
11:49:21.225424,-23041
11:49:21.225424,-1
11:49:21.225424,-89
11:49:21.225424,-20737
11:49:21.225424,-1
11:49:21.225424,-87
11:49:21.225424,-21249
11:49:21.225424,-1
11:49:21.225424,-72
11:49:21.225424,-16385
11:49:21.225424,-1
11:49:21.225424,-58
11:49:21.225424,-12033
11:49:21.225424,-1
11:49:21.225424,-45
11:49:21.225424,-14593
11:49:21.225424,-1
11:49:21.225424,-77
11:49:21.225424,-18177
11:49:21.225424,-1
11:49:21.225424,-62
11:49:21.225424,-15617
11:49:21.225424,-1
11:49:21.225424,-60
11:49:21.225424,-15617
11:49:21.225424,-1
11:49:21.225424,-70
11:49:21.225424,-28161
11:49:21.225424,-1
11:49:21.225424,-169
11:49:21.225424,-22529
11:49:21.225424,-1
11:49:21.225424,256
11:49:21.225424,-24064
11:49:21.225424,2
11:49:21.225424,691
11:49:21.225424,1792
11:49:21.225424,1
11:49:21.225424,-79
11:49:21.225424,-29953
11:49:21.225424,-1
11:49:21.225424,-108
11:49:21.225424,28671
11:49:21.225424,-1
11:49:21.225424,-142
11:49:21.225424,-30465
11:49:21.225424,-1
11:49:21.225424,-125
11:49:21.225424,-31745
11:49:21.225424,-1
11:49:21.225424,-106
11:49:21.225424,-26113
11:49:21.225424,-1
11:49:21.225424,-106
11:49:21.225424,-24321
11:49:21.225424,-1
11:49:21.225424,-96
11:49:21.225424,-23809
11:49:21.225424,-1
11:49:21.225424,-89
11:49:21.225424,-22017
11:49:21.225424,-1
11:49:21.225424,-79
11:49:21.820455,-79
11:49:21.820455,-19457
11:49:21.820455,-1
11:49:21.820455,-65
11:49:21.820455,-12545
11:49:21.820455,-1
11:49:21.820455,-48
11:49:21.820455,-14593
11:49:21.820455,-1
11:49:21.820455,-55
11:49:21.820455,-10753
11:49:21.820455,-1
11:49:21.820455,-41
11:49:21.820455,-7681
11:49:21.820455,-1
11:49:21.820455,-24
11:49:21.820455,-7169
11:49:21.820455,-1
11:49:21.820455,-21
11:49:21.820455,-4609
11:49:21.820455,-1
11:49:21.820455,-21
11:49:21.820455,-7169
11:49:21.820455,-1
11:49:21.820455,-45
11:49:21.820455,-13313
11:49:21.820455,-1
11:49:21.820455,-58
11:49:21.820455,-16385
11:49:21.820455,-1
11:49:21.820455,-65
11:49:21.820455,-16897
11:49:21.820455,-1
11:49:21.820455,-67
11:49:21.820455,-16897
11:49:21.820455,-1
11:49:21.820455,-72
11:49:21.820455,-16897
11:49:21.820455,-1
11:49:21.820455,-67
11:49:21.820455,-17665
11:49:21.820455,-1
11:49:21.820455,-72
11:49:21.820455,-19457
11:49:21.820455,-1
11:49:21.820455,-72
11:49:21.820455,-18689
11:49:21.820455,-1
11:49:21.820455,-74
11:49:21.820455,-18177
11:49:21.820455,-1
11:49:21.820455,-74
11:49:21.820455,-19457
11:49:21.820455,-1
11:49:21.820455,-82
11:49:21.820455,-22017
11:49:21.820455,-1
11:49:21.820455,-82
11:49:21.820455,-21249
11:49:21.820455,-1
11:49:21.820455,-87
11:49:21.820455,-20737
11:49:21.820455,-1
11:49:21.820455,-89
11:49:21.820455,-22017
11:49:21.820455,-1
11:49:21.820455,-84
11:49:21.820455,-22529
11:49:21.820455,-1
11:49:21.820455,-89
11:49:21.820455,-22529
11:49:21.820455,-1
11:49:21.820455,-91
11:49:21.820455,-22529
11:49:21.820455,-1
11:49:21.820455,-91
11:49:21.820455,-23041
11:49:21.820455,-1
11:49:21.820455,-94
11:49:21.820455,-24321
11:49:21.820455,-1
11:49:21.820455,-99
11:49:21.820455,-26881
11:49:21.820455,-1
11:49:21.820455,-101
11:49:21.820455,-25089
11:49:21.820455,-1
11:49:21.820455,-108
11:49:21.820455,-28161
11:49:21.820455,-1
11:49:21.820455,-111
11:49:21.820455,-25089
11:49:21.820455,-1
11:49:21.820455,-89
11:49:21.820455,-22529
11:49:21.820455,-1
11:49:21.820455,-77
11:49:21.820455,-19969
11:49:21.820455,-1
11:49:21.820455,-99
11:49:21.820455,-28161
11:49:21.820455,-1
11:49:21.820455,-118
11:49:21.820455,-29441
11:49:21.820455,-1
11:49:21.820455,-116
11:49:21.820455,-31745
11:49:21.820455,-1
11:49:21.820455,-130
11:49:22.385294,-135
11:49:22.385294,21247
11:49:22.385294,-1
11:49:22.385294,-236
11:49:22.385294,18175
11:49:22.385294,-1
11:49:22.385294,120
11:49:22.385294,1792
11:49:22.385294,2
11:49:22.385294,570
11:49:22.385294,-15616
11:49:22.385294,0
11:49:22.385294,-135
11:49:22.385294,17663
11:49:22.385294,-1
11:49:22.385294,-195
11:49:22.385294,4095
11:49:22.385294,-1
11:49:22.385294,-239
11:49:22.385294,8959
11:49:22.385294,-1
11:49:22.385294,-224
11:49:22.385294,8959
11:49:22.385294,-1
11:49:22.385294,-217
11:49:22.385294,10751
11:49:22.385294,-1
11:49:22.385294,-212
11:49:22.385294,13823
11:49:22.385294,-1
11:49:22.385294,-198
11:49:22.385294,12799
11:49:22.385294,-1
11:49:22.385294,-207
11:49:22.385294,14591
11:49:22.385294,-1
11:49:22.385294,-198
11:49:22.385294,15103
11:49:22.385294,-1
11:49:22.385294,-200
11:49:22.385294,15871
11:49:22.385294,-1
11:49:22.385294,-188
11:49:22.385294,15871
11:49:22.385294,-1
11:49:22.385294,-193
11:49:22.385294,18175
11:49:22.385294,-1
11:49:22.385294,-181
11:49:22.385294,20735
11:49:22.385294,-1
11:49:22.385294,-174
11:49:22.385294,23295
11:49:22.385294,-1
11:49:22.385294,-161
11:49:22.385294,25087
11:49:22.385294,-1
11:49:22.385294,-147
11:49:22.385294,26879
11:49:22.385294,-1
11:49:22.385294,-169
11:49:22.385294,18943
11:49:22.385294,-1
11:49:22.385294,-200
11:49:22.385294,13823
11:49:22.385294,-1
11:49:22.385294,-210
11:49:22.385294,10239
11:49:22.385294,-1
11:49:22.385294,-212
11:49:22.385294,11519
11:49:22.385294,-1
11:49:22.385294,-210
11:49:22.385294,11519
11:49:22.385294,-1
11:49:22.385294,-212
11:49:22.385294,13311
11:49:22.385294,-1
11:49:22.385294,-205
11:49:22.385294,12799
11:49:22.385294,-1
11:49:22.385294,-200
11:49:22.385294,15103
11:49:22.385294,-1
11:49:22.385294,-193
11:49:22.385294,16383
11:49:22.385294,-1
11:49:22.385294,-190
11:49:22.385294,18175
11:49:22.385294,-1
11:49:22.385294,-183
11:49:22.385294,20223
11:49:22.385294,-1
11:49:22.385294,-174
11:49:22.385294,20735
11:49:22.385294,-1
11:49:22.385294,-174
11:49:22.385294,22015
11:49:22.385294,-1
11:49:22.385294,-169
11:49:22.385294,23295
11:49:22.385294,-1
11:49:22.385294,-169
11:49:22.385294,23807
11:49:22.385294,-1
11:49:22.385294,-161
11:49:22.385294,24575
11:49:22.385294,-1
11:49:22.385294,-159
11:49:22.934052,-157
11:49:22.934052,26879
11:49:22.934052,-1
11:49:22.934052,-149
11:49:22.934052,27647
11:49:22.934052,-1
11:49:22.934052,-142
11:49:22.934052,29439
11:49:22.934052,-1
11:49:22.934052,-140
11:49:22.934052,29951
11:49:22.934052,-1
11:49:22.934052,-142
11:49:22.934052,-30465
11:49:22.934052,-1
11:49:22.934052,-96
11:49:22.934052,-22529
11:49:22.934052,-1
11:49:22.934052,-87
11:49:22.934052,-21249
11:49:22.934052,-1
11:49:22.934052,-84
11:49:22.934052,-25089
11:49:22.934052,-1
11:49:22.934052,-111
11:49:22.934052,-25601
11:49:22.934052,-1
11:49:22.934052,-99
11:49:22.934052,-25089
11:49:22.934052,-1
11:49:22.934052,-89
11:49:22.934052,-22017
11:49:22.934052,-1
11:49:22.934052,-96
11:49:22.934052,28159
11:49:22.934052,-1
11:49:22.934052,-200
11:49:22.934052,-23809
11:49:22.934052,-1
11:49:22.934052,294
11:49:22.934052,-9984
11:49:22.934052,2
11:49:22.934052,703
11:49:22.934052,-6912
11:49:22.934052,0
11:49:22.934052,-108
11:49:22.934052,-32513
11:49:22.934052,-1
11:49:22.934052,-120
11:49:22.934052,25087
11:49:22.934052,-1
11:49:22.934052,-154
11:49:22.934052,32511
11:49:22.934052,-1
11:49:22.934052,-132
11:49:22.934052,-31745
11:49:22.934052,-1
11:49:22.934052,-111
11:49:22.934052,-27393
11:49:22.934052,-1
11:49:22.934052,-106
11:49:22.934052,-25089
11:49:22.934052,-1
11:49:22.934052,-99
11:49:22.934052,-23809
11:49:22.934052,-1
11:49:22.934052,-94
11:49:22.934052,-22529
11:49:22.934052,-1
11:49:22.934052,-84
11:49:22.934052,-21249
11:49:22.934052,-1
11:49:22.934052,-82
11:49:22.934052,-19969
11:49:22.934052,-1
11:49:22.934052,-79
11:49:22.934052,-18689
11:49:22.934052,-1
11:49:22.934052,-74
11:49:22.934052,-17665
11:49:22.934052,-1
11:49:22.934052,-62
11:49:22.934052,-15105
11:49:22.934052,-1
11:49:22.934052,-50
11:49:22.934052,-12033
11:49:22.934052,-1
11:49:22.934052,-41
11:49:22.934052,-6401
11:49:22.934052,-1
11:49:22.934052,-24
11:49:22.934052,-5121
11:49:22.934052,-1
11:49:22.934052,-31
11:49:22.934052,-11265
11:49:22.934052,-1
11:49:22.934052,-48
11:49:22.934052,-14593
11:49:22.934052,-1
11:49:22.934052,-60
11:49:22.934052,-14593
11:49:22.934052,-1
11:49:22.934052,-58
11:49:22.934052,-13825
11:49:22.934052,-1
11:49:22.934052,-58
11:49:22.934052,-13825
11:49:22.934052,-1
11:49:22.934052,-50
11:49:23.501946,-55
11:49:23.501946,-13825
11:49:23.501946,-1
11:49:23.501946,-55
11:49:23.501946,-13313
11:49:23.501946,-1
11:49:23.501946,-45
11:49:23.501946,-11265
11:49:23.501946,-1
11:49:23.501946,-38
11:49:23.501946,-7169
11:49:23.501946,-1
11:49:23.501946,-41
11:49:23.501946,-11265
11:49:23.501946,-1
11:49:23.501946,-41
11:49:23.501946,-10753
11:49:23.501946,-1
11:49:23.501946,-45
11:49:23.501946,-11265
11:49:23.501946,-1
11:49:23.501946,-38
11:49:23.501946,-9473
11:49:23.501946,-1
11:49:23.501946,-43
11:49:23.501946,-9473
11:49:23.501946,-1
11:49:23.501946,-38
11:49:23.501946,-9473
11:49:23.501946,-1
11:49:23.501946,-38
11:49:23.501946,-10241
11:49:23.501946,-1
11:49:23.501946,-36
11:49:23.501946,-9473
11:49:23.501946,-1
11:49:23.501946,-38
11:49:23.501946,-8961
11:49:23.501946,-1
11:49:23.501946,-41
11:49:23.501946,-10753
11:49:23.501946,-1
11:49:23.501946,-41
11:49:23.501946,-10241
11:49:23.501946,-1
11:49:23.501946,-41
11:49:23.501946,-12545
11:49:23.501946,-1
11:49:23.501946,-53
11:49:23.501946,-10241
11:49:23.501946,-1
11:49:23.501946,-31
11:49:23.501946,-5121
11:49:23.501946,-1
11:49:23.501946,-19
11:49:23.501946,-3841
11:49:23.501946,-1
11:49:23.501946,-21
11:49:23.501946,-11265
11:49:23.501946,-1
11:49:23.501946,-53
11:49:23.501946,-10241
11:49:23.501946,-1
11:49:23.501946,-38
11:49:23.501946,-10241
11:49:23.501946,-1
11:49:23.501946,-50
11:49:23.501946,-11265
11:49:23.501946,-1
11:49:23.501946,-53
11:49:23.501946,-28673
11:49:23.501946,-1
11:49:23.501946,-161
11:49:23.501946,-5889
11:49:23.501946,-1
11:49:23.501946,401
11:49:23.501946,11264
11:49:23.501946,3
11:49:23.501946,713
11:49:23.501946,-8704
11:49:23.501946,0
11:49:23.501946,-106
11:49:23.501946,31999
11:49:23.501946,-1
11:49:23.501946,-123
11:49:23.501946,26367
11:49:23.501946,-1
11:49:23.501946,-142
11:49:23.501946,-31233
11:49:23.501946,-1
11:49:23.501946,-128
11:49:23.501946,-31233
11:49:23.501946,-1
11:49:23.501946,-113
11:49:23.501946,-28673
11:49:23.501946,-1
11:49:23.501946,-108
11:49:23.501946,-26881
11:49:23.501946,-1
11:49:23.501946,-101
11:49:23.501946,-25089
11:49:23.501946,-1
11:49:23.501946,-96
11:49:23.501946,-21249
11:49:23.501946,-1
11:49:23.501946,-87
11:49:23.501946,-22017
11:49:23.501946,-1
11:49:23.501946,-82
11:49:24.048423,-82
11:49:24.048423,-19969
11:49:24.048423,-1
11:49:24.048423,-79
11:49:24.048423,-18689
11:49:24.048423,-1
11:49:24.048423,-65
11:49:24.048423,-16385
11:49:24.048423,-1
11:49:24.048423,-60
11:49:24.048423,-11265
11:49:24.048423,-1
11:49:24.048423,-29
11:49:24.048423,-5889
11:49:24.048423,-1
11:49:24.048423,-29
11:49:24.048423,-4609
11:49:24.048423,-1
11:49:24.048423,-14
11:49:24.048423,-7681
11:49:24.048423,-1
11:49:24.048423,-41
11:49:24.048423,-10753
11:49:24.048423,-1
11:49:24.048423,-50
11:49:24.048423,-13825
11:49:24.048423,-1
11:49:24.048423,-62
11:49:24.048423,-14593
11:49:24.048423,-1
11:49:24.048423,-55
11:49:24.048423,-14593
11:49:24.048423,-1
11:49:24.048423,-50
11:49:24.048423,-13313
11:49:24.048423,-1
11:49:24.048423,-58
11:49:24.048423,-13825
11:49:24.048423,-1
11:49:24.048423,-60
11:49:24.048423,-14593
11:49:24.048423,-1
11:49:24.048423,-55
11:49:24.048423,-14593
11:49:24.048423,-1
11:49:24.048423,-58
11:49:24.048423,-15105
11:49:24.048423,-1
11:49:24.048423,-58
11:49:24.048423,-14593
11:49:24.048423,-1
11:49:24.048423,-62
11:49:24.048423,-14593
11:49:24.048423,-1
11:49:24.048423,-62
11:49:24.048423,-16385
11:49:24.048423,-1
11:49:24.048423,-58
11:49:24.048423,-14593
11:49:24.048423,-1
11:49:24.048423,-58
11:49:24.048423,-13825
11:49:24.048423,-1
11:49:24.048423,-55
11:49:24.048423,-12545
11:49:24.048423,-1
11:49:24.048423,-53
11:49:24.048423,-13825
11:49:24.048423,-1
11:49:24.048423,-50
11:49:24.048423,-12545
11:49:24.048423,-1
11:49:24.048423,-53
11:49:24.048423,-13313
11:49:24.048423,-1
11:49:24.048423,-50
11:49:24.048423,-13313
11:49:24.048423,-1
11:49:24.048423,-55
11:49:24.048423,-12033
11:49:24.048423,-1
11:49:24.048423,-48
11:49:24.048423,-13313
11:49:24.048423,-1
11:49:24.048423,-50
11:49:24.048423,-13825
11:49:24.048423,-1
11:49:24.048423,-58
11:49:24.048423,-11265
11:49:24.048423,-1
11:49:24.048423,-36
11:49:24.048423,-6401
11:49:24.048423,-1
11:49:24.048423,-21
11:49:24.048423,-4609
11:49:24.048423,-1
11:49:24.048423,-26
11:49:24.048423,-11265
11:49:24.048423,-1
11:49:24.048423,-53
11:49:24.048423,-12033
11:49:24.048423,-1
11:49:24.048423,-48
11:49:24.048423,-12545
11:49:24.048423,-1
11:49:24.048423,-50
11:49:24.048423,-11265
11:49:24.048423,-1
11:49:24.048423,-65
11:49:24.612978,-128
11:49:24.612978,23295
11:49:24.612978,-1
11:49:24.612978,-7
11:49:24.612978,-20225
11:49:24.612978,1
11:49:24.612978,816
11:49:24.612978,-21504
11:49:24.612978,2
11:49:24.612978,186
11:49:24.612978,-30208
11:49:24.612978,-1
11:49:24.612978,-123
11:49:24.612978,-28673
11:49:24.612978,-1
11:49:24.612978,-154
11:49:24.612978,29439
11:49:24.612978,-1
11:49:24.612978,-120
11:49:24.612978,32511
11:49:24.612978,-1
11:49:24.612978,-125
11:49:24.612978,-29441
11:49:24.612978,-1
11:49:24.612978,-113
11:49:24.612978,-27393
11:49:24.612978,-1
11:49:24.612978,-106
11:49:24.612978,-24321
11:49:24.612978,-1
11:49:24.612978,-91
11:49:24.612978,-23041
11:49:24.612978,-1
11:49:24.612978,-89
11:49:24.612978,-22529
11:49:24.612978,-1
11:49:24.612978,-87
11:49:24.612978,-21249
11:49:24.612978,-1
11:49:24.612978,-87
11:49:24.612978,-20737
11:49:24.612978,-1
11:49:24.612978,-77
11:49:24.612978,-19457
11:49:24.612978,-1
11:49:24.612978,-70
11:49:24.612978,-17665
11:49:24.612978,-1
11:49:24.612978,-62
11:49:24.612978,-13313
11:49:24.612978,-1
11:49:24.612978,-48
11:49:24.612978,-9473
11:49:24.612978,-1
11:49:24.612978,-36
11:49:24.612978,-8193
11:49:24.612978,-1
11:49:24.612978,-33
11:49:24.612978,-11265
11:49:24.612978,-1
11:49:24.612978,-48
11:49:24.612978,-13825
11:49:24.612978,-1
11:49:24.612978,-65
11:49:24.612978,-16385
11:49:24.612978,-1
11:49:24.612978,-65
11:49:24.612978,-15617
11:49:24.612978,-1
11:49:24.612978,-67
11:49:24.612978,-17665
11:49:24.612978,-1
11:49:24.612978,-62
11:49:24.612978,-16897
11:49:24.612978,-1
11:49:24.612978,-72
11:49:24.612978,-16897
11:49:24.612978,-1
11:49:24.612978,-67
11:49:24.612978,-18177
11:49:24.612978,-1
11:49:24.612978,-70
11:49:24.612978,-16385
11:49:24.612978,-1
11:49:24.612978,-62
11:49:24.612978,-18177
11:49:24.612978,-1
11:49:24.612978,-72
11:49:24.612978,-18177
11:49:24.612978,-1
11:49:24.612978,-72
11:49:24.612978,-16897
11:49:24.612978,-1
11:49:24.612978,-72
11:49:24.612978,-18177
11:49:24.612978,-1
11:49:24.612978,-70
11:49:24.612978,-18689
11:49:24.612978,-1
11:49:24.612978,-74
11:49:24.612978,-18177
11:49:24.612978,-1
11:49:24.612978,-77
11:49:24.612978,-19457
11:49:24.612978,-1
11:49:24.612978,-79
11:49:24.612978,-19457
11:49:24.612978,-1
11:49:24.612978,-79
11:49:25.219735,-84
11:49:25.219735,-20737
11:49:25.219735,-1
11:49:25.219735,-84
11:49:25.219735,-23041
11:49:25.219735,-1
11:49:25.219735,-94
11:49:25.219735,-23809
11:49:25.219735,-1
11:49:25.219735,-82
11:49:25.219735,-19457
11:49:25.219735,-1
11:49:25.219735,-91
11:49:25.219735,-25089
11:49:25.219735,-1
11:49:25.219735,-99
11:49:25.219735,-24321
11:49:25.219735,-1
11:49:25.219735,-101
11:49:25.219735,-28161
11:49:25.219735,-1
11:49:25.219735,-111
11:49:25.219735,-29441
11:49:25.219735,-1
11:49:25.219735,-125
11:49:25.219735,-31233
11:49:25.219735,-1
11:49:25.219735,-116
11:49:25.219735,-28673
11:49:25.219735,-1
11:49:25.219735,-116
11:49:25.219735,-28161
11:49:25.219735,-1
11:49:25.219735,-113
11:49:25.219735,29951
11:49:25.219735,-1
11:49:25.219735,-157
11:49:25.219735,26879
11:49:25.219735,-1
11:49:25.219735,-145
11:49:25.219735,28159
11:49:25.219735,-1
11:49:25.219735,-152
11:49:25.219735,26879
11:49:25.219735,-1
11:49:25.219735,-166
11:49:25.219735,8959
11:49:25.219735,-1
11:49:25.219735,-268
11:49:25.219735,28671
11:49:25.219735,-1
11:49:25.219735,232
11:49:25.219735,23552
11:49:25.219735,2
11:49:25.219735,514
11:49:25.219735,18432
11:49:25.219735,0
11:49:25.219735,-210
11:49:25.219735,7167
11:49:25.219735,-1
11:49:25.219735,-229
11:49:25.219735,-2817
11:49:25.219735,-2
11:49:25.219735,-256
11:49:25.219735,5375
11:49:25.219735,-1
11:49:25.219735,-248
11:49:25.219735,3327
11:49:25.219735,-1
11:49:25.219735,-232
11:49:25.219735,7167
11:49:25.219735,-1
11:49:25.219735,-224
11:49:25.219735,8959
11:49:25.219735,-1
11:49:25.219735,-222
11:49:25.219735,9727
11:49:25.219735,-1
11:49:25.219735,-219
11:49:25.219735,11519
11:49:25.219735,-1
11:49:25.219735,-215
11:49:25.219735,11519
11:49:25.219735,-1
11:49:25.219735,-205
11:49:25.219735,13823
11:49:25.219735,-1
11:49:25.219735,-198
11:49:25.219735,16383
11:49:25.219735,-1
11:49:25.219735,-188
11:49:25.219735,18175
11:49:25.219735,-1
11:49:25.219735,-181
11:49:25.219735,22015
11:49:25.219735,-1
11:49:25.219735,-161
11:49:25.219735,26367
11:49:25.219735,-1
11:49:25.219735,-145
11:49:25.219735,29439
11:49:25.219735,-1
11:49:25.219735,-142
11:49:25.219735,29951
11:49:25.219735,-1
11:49:25.219735,-152
11:49:25.219735,23807
11:49:25.219735,-1
11:49:25.219735,-174
11:49:25.759395,-183
11:49:25.759395,18943
11:49:25.759395,-1
11:49:25.759395,-183
11:49:25.759395,19455
11:49:25.759395,-1
11:49:25.759395,-181
11:49:25.759395,18943
11:49:25.759395,-1
11:49:25.759395,-176
11:49:25.759395,21247
11:49:25.759395,-1
11:49:25.759395,-171
11:49:25.759395,22015
11:49:25.759395,-1
11:49:25.759395,-174
11:49:25.759395,25599
11:49:25.759395,-1
11:49:25.759395,-145
11:49:25.759395,26367
11:49:25.759395,-1
11:49:25.759395,-154
11:49:25.759395,26879
11:49:25.759395,-1
11:49:25.759395,-149
11:49:25.759395,27647
11:49:25.759395,-1
11:49:25.759395,-149
11:49:25.759395,29951
11:49:25.759395,-1
11:49:25.759395,-140
11:49:25.759395,29951
11:49:25.759395,-1
11:49:25.759395,-135
11:49:25.759395,31231
11:49:25.759395,-1
11:49:25.759395,-132
11:49:25.759395,-32513
11:49:25.759395,-1
11:49:25.759395,-128
11:49:25.759395,-31745
11:49:25.759395,-1
11:49:25.759395,-128
11:49:25.759395,-31745
11:49:25.759395,-1
11:49:25.759395,-118
11:49:25.759395,-29953
11:49:25.759395,-1
11:49:25.759395,-113
11:49:25.759395,-26881
11:49:25.759395,-1
11:49:25.759395,-103
11:49:25.759395,-25601
11:49:25.759395,-1
11:49:25.759395,-103
11:49:25.759395,-25089
11:49:25.759395,-1
11:49:25.759395,-91
11:49:25.759395,-22529
11:49:25.759395,-1
11:49:25.759395,-82
11:49:25.759395,-22017
11:49:25.759395,-1
11:49:25.759395,-89
11:49:25.759395,-21249
11:49:25.759395,-1
11:49:25.759395,-84
11:49:25.759395,-21249
11:49:25.759395,-1
11:49:25.759395,-84
11:49:25.759395,-22017
11:49:25.759395,-1
11:49:25.759395,-79
11:49:25.759395,-17665
11:49:25.759395,-1
11:49:25.759395,-55
11:49:25.759395,-13313
11:49:25.759395,-1
11:49:25.759395,-48
11:49:25.759395,-10241
11:49:25.759395,-1
11:49:25.759395,-48
11:49:25.759395,-15617
11:49:25.759395,-1
11:49:25.759395,-60
11:49:25.759395,-13313
11:49:25.759395,-1
11:49:25.759395,-50
11:49:25.759395,-13825
11:49:25.759395,-1
11:49:25.759395,-55
11:49:25.759395,-15105
11:49:25.759395,-1
11:49:25.759395,-108
11:49:25.759395,22527
11:49:25.759395,-1
11:49:25.759395,-89
11:49:25.759395,6911
11:49:25.759395,1
11:49:25.759395,737
11:49:25.759395,-4352
11:49:25.759395,2
11:49:25.759395,292
11:49:25.759395,-20992
11:49:25.759395,-1
11:49:25.759395,-130
11:49:25.759395,-29441
11:49:25.759395,-1
11:49:25.759395,-157
11:49:26.291962,-152
11:49:26.291962,-31745
11:49:26.291962,-1
11:49:26.291962,-132
11:49:26.291962,32511
11:49:26.291962,-1
11:49:26.291962,-116
11:49:26.291962,-28673
11:49:26.291962,-1
11:49:26.291962,-108
11:49:26.291962,-26113
11:49:26.291962,-1
11:49:26.291962,-91
11:49:26.291962,-19969
11:49:26.291962,-1
11:49:26.291962,-84
11:49:26.291962,-21249
11:49:26.291962,-1
11:49:26.291962,-79
11:49:26.291962,-19969
11:49:26.291962,-1
11:49:26.291962,-79
11:49:26.291962,-19969
11:49:26.291962,-1
11:49:26.291962,-74
11:49:26.291962,-18177
11:49:26.291962,-1
11:49:26.291962,-72
11:49:26.291962,-16385
11:49:26.291962,-1
11:49:26.291962,-65
11:49:26.291962,-15105
11:49:26.291962,-1
11:49:26.291962,-53
11:49:26.291962,-12545
11:49:26.291962,-1
11:49:26.291962,-38
11:49:26.291962,-6401
11:49:26.291962,-1
11:49:26.291962,-24
11:49:26.291962,-5889
11:49:26.291962,-1
11:49:26.291962,-29
11:49:26.291962,-8193
11:49:26.291962,-1
11:49:26.291962,-41
11:49:26.291962,-12033
11:49:26.291962,-1
11:49:26.291962,-45
11:49:26.291962,-13313
11:49:26.291962,-1
11:49:26.291962,-60
11:49:26.291962,-13313
11:49:26.291962,-1
11:49:26.291962,-50
11:49:26.291962,-12545
11:49:26.291962,-1
11:49:26.291962,-50
11:49:26.291962,-13313
11:49:26.291962,-1
11:49:26.291962,-50
11:49:26.291962,-13825
11:49:26.291962,-1
11:49:26.291962,-58
11:49:26.291962,-13825
11:49:26.291962,-1
11:49:26.291962,-58
11:49:26.291962,-13825
11:49:26.291962,-1
11:49:26.291962,-58
11:49:26.291962,-14593
11:49:26.291962,-1
11:49:26.291962,-53
11:49:26.291962,-14593
11:49:26.291962,-1
11:49:26.291962,-55
11:49:26.291962,-12545
11:49:26.291962,-1
11:49:26.291962,-50
11:49:26.291962,-12545
11:49:26.291962,-1
11:49:26.291962,-55
11:49:26.291962,-12033
11:49:26.291962,-1
11:49:26.291962,-41
11:49:26.291962,-10753
11:49:26.291962,-1
11:49:26.291962,-43
11:49:26.291962,-11265
11:49:26.291962,-1
11:49:26.291962,-45
11:49:26.291962,-10753
11:49:26.291962,-1
11:49:26.291962,-48
11:49:26.291962,-11265
11:49:26.291962,-1
11:49:26.291962,-45
11:49:26.291962,-11265
11:49:26.291962,-1
11:49:26.291962,-45
11:49:26.291962,-12033
11:49:26.291962,-1
11:49:26.291962,-45
11:49:26.291962,-12033
11:49:26.291962,-1
11:49:26.291962,-50
11:49:26.291962,-10753
11:49:26.291962,-1
11:49:26.291962,-43
11:49:26.887939,-53
11:49:26.887939,-12033
11:49:26.887939,-1
11:49:26.887939,-43
11:49:26.887939,-11265
11:49:26.887939,-1
11:49:26.887939,-48
11:49:26.887939,-10241
11:49:26.887939,-1
11:49:26.887939,-24
11:49:26.887939,-6401
11:49:26.887939,-1
11:49:26.887939,-41
11:49:26.887939,-10753
11:49:26.887939,-1
11:49:26.887939,-45
11:49:26.887939,-10241
11:49:26.887939,-1
11:49:26.887939,-29
11:49:26.887939,-6401
11:49:26.887939,-1
11:49:26.887939,-24
11:49:26.887939,-5121
11:49:26.887939,-1
11:49:26.887939,-26
11:49:26.887939,-11265
11:49:26.887939,-1
11:49:26.887939,-60
11:49:26.887939,-12545
11:49:26.887939,-1
11:49:26.887939,-50
11:49:26.887939,-13313
11:49:26.887939,-1
11:49:26.887939,-48
11:49:26.887939,-12545
11:49:26.887939,-1
11:49:26.887939,-70
11:49:26.887939,31999
11:49:26.887939,-1
11:49:26.887939,-157
11:49:26.887939,10751
11:49:26.887939,0
11:49:26.887939,497
11:49:26.887939,13056
11:49:26.887939,3
11:49:26.887939,592
11:49:26.887939,23296
11:49:26.887939,0
11:49:26.887939,-135
11:49:26.887939,-31233
11:49:26.887939,-1
11:49:26.887939,-140
11:49:26.887939,23295
11:49:26.887939,-1
11:49:26.887939,-145
11:49:26.887939,32511
11:49:26.887939,-1
11:49:26.887939,-137
11:49:26.887939,31999
11:49:26.887939,-1
11:49:26.887939,-120
11:49:26.887939,-30465
11:49:26.887939,-1
11:49:26.887939,-116
11:49:26.887939,-28673
11:49:26.887939,-1
11:49:26.887939,-111
11:49:26.887939,-26113
11:49:26.887939,-1
11:49:26.887939,-108
11:49:26.887939,-26113
11:49:26.887939,-1
11:49:26.887939,-91
11:49:26.887939,-24321
11:49:26.887939,-1
11:49:26.887939,-96
11:49:26.887939,-24321
11:49:26.887939,-1
11:49:26.887939,-91
11:49:26.887939,-21249
11:49:26.887939,-1
11:49:26.887939,-87
11:49:26.887939,-22017
11:49:26.887939,-1
11:49:26.887939,-79
11:49:26.887939,-19457
11:49:26.887939,-1
11:49:26.887939,-70
11:49:26.887939,-16897
11:49:26.887939,-1
11:49:26.887939,-60
11:49:26.887939,-13313
11:49:26.887939,-1
11:49:26.887939,-48
11:49:26.887939,-10753
11:49:26.887939,-1
11:49:26.887939,-48
11:49:26.887939,-14593
11:49:26.887939,-1
11:49:26.887939,-60
11:49:26.887939,-17665
11:49:26.887939,-1
11:49:26.887939,-72
11:49:26.887939,-18177
11:49:26.887939,-1
11:49:26.887939,-77
11:49:26.887939,-18177
11:49:26.887939,-1
11:49:26.887939,-72
11:49:27.436880,-72
11:49:27.436880,-17665
11:49:27.436880,-1
11:49:27.436880,-74
11:49:27.436880,-18177
11:49:27.436880,-1
11:49:27.436880,-72
11:49:27.436880,-18177
11:49:27.436880,-1
11:49:27.436880,-67
11:49:27.436880,-17665
11:49:27.436880,-1
11:49:27.436880,-70
11:49:27.436880,-18177
11:49:27.436880,-1
11:49:27.436880,-70
11:49:27.436880,-13313
11:49:27.436880,-1
11:49:27.436880,-50
11:49:27.436880,-15617
11:49:27.436880,-1
11:49:27.436880,-60
11:49:27.436880,-14593
11:49:27.436880,-1
11:49:27.436880,-55
11:49:27.436880,-13825
11:49:27.436880,-1
11:49:27.436880,-53
11:49:27.436880,-12033
11:49:27.436880,-1
11:49:27.436880,-55
11:49:27.436880,-14593
11:49:27.436880,-1
11:49:27.436880,-50
11:49:27.436880,-13825
11:49:27.436880,-1
11:49:27.436880,-60
11:49:27.436880,-15617
11:49:27.436880,-1
11:49:27.436880,-58
11:49:27.436880,-13825
11:49:27.436880,-1
11:49:27.436880,-65
11:49:27.436880,-16385
11:49:27.436880,-1
11:49:27.436880,-60
11:49:27.436880,-15617
11:49:27.436880,-1
11:49:27.436880,-62
11:49:27.436880,-16897
11:49:27.436880,-1
11:49:27.436880,-70
11:49:27.436880,-16897
11:49:27.436880,-1
11:49:27.436880,-77
11:49:27.436880,-18689
11:49:27.436880,-1
11:49:27.436880,-72
11:49:27.436880,-18177
11:49:27.436880,-1
11:49:27.436880,-72
11:49:27.436880,-19457
11:49:27.436880,-1
11:49:27.436880,-77
11:49:27.436880,-19457
11:49:27.436880,-1
11:49:27.436880,-79
11:49:27.436880,-19969
11:49:27.436880,-1
11:49:27.436880,-84
11:49:27.436880,-19969
11:49:27.436880,-1
11:49:27.436880,-72
11:49:27.436880,-17665
11:49:27.436880,-1
11:49:27.436880,-67
11:49:27.436880,-16897
11:49:27.436880,-1
11:49:27.436880,-65
11:49:27.436880,-19457
11:49:27.436880,-1
11:49:27.436880,-99
11:49:27.436880,-25089
11:49:27.436880,-1
11:49:27.436880,-96
11:49:27.436880,-26113
11:49:27.436880,-1
11:49:27.436880,-101
11:49:27.436880,-25601
11:49:27.436880,-1
11:49:27.436880,-113
11:49:27.436880,24575
11:49:27.436880,-1
11:49:27.436880,-217
11:49:27.436880,31231
11:49:27.436880,-1
11:49:27.436880,207
11:49:27.436880,27136
11:49:27.436880,2
11:49:27.436880,621
11:49:27.436880,-17920
11:49:27.436880,0
11:49:27.436880,-157
11:49:27.436880,15103
11:49:27.436880,-1
11:49:27.436880,-190
11:49:27.436880,7679
11:49:27.436880,-1
11:49:27.436880,-227
11:49:27.970445,-207
11:49:27.970445,10751
11:49:27.970445,-1
11:49:27.970445,-219
11:49:27.970445,13311
11:49:27.970445,-1
11:49:27.970445,-200
11:49:27.970445,15103
11:49:27.970445,-1
11:49:27.970445,-193
11:49:27.970445,15103
11:49:27.970445,-1
11:49:27.970445,-188
11:49:27.970445,20223
11:49:27.970445,-1
11:49:27.970445,-186
11:49:27.970445,18175
11:49:27.970445,-1
11:49:27.970445,-178
11:49:27.970445,19455
11:49:27.970445,-1
11:49:27.970445,-183
11:49:27.970445,18175
11:49:27.970445,-1
11:49:27.970445,-178
11:49:27.970445,20735
11:49:27.970445,-1
11:49:27.970445,-176
11:49:27.970445,21247
11:49:27.970445,-1
11:49:27.970445,-171
11:49:27.970445,23807
11:49:27.970445,-1
11:49:27.970445,-157
11:49:27.970445,25599
11:49:27.970445,-1
11:49:27.970445,-152
11:49:27.970445,28159
11:49:27.970445,-1
11:49:27.970445,-147
11:49:27.970445,26367
11:49:27.970445,-1
11:49:27.970445,-169
11:49:27.970445,19455
11:49:27.970445,-1
11:49:27.970445,-190
11:49:27.970445,15103
11:49:27.970445,-1
11:49:27.970445,-200
11:49:27.970445,13311
11:49:27.970445,-1
11:49:27.970445,-203
11:49:27.970445,13311
11:49:27.970445,-1
11:49:27.970445,-207
11:49:27.970445,14591
11:49:27.970445,-1
11:49:27.970445,-205
11:49:27.970445,12799
11:49:27.970445,-1
11:49:27.970445,-207
11:49:27.970445,12799
11:49:27.970445,-1
11:49:27.970445,-205
11:49:27.970445,13823
11:49:27.970445,-1
11:49:27.970445,-207
11:49:27.970445,12799
11:49:27.970445,-1
11:49:27.970445,-210
11:49:27.970445,11519
11:49:27.970445,-1
11:49:27.970445,-210
11:49:27.970445,12031
11:49:27.970445,-1
11:49:27.970445,-205
11:49:27.970445,13311
11:49:27.970445,-1
11:49:27.970445,-205
11:49:27.970445,13823
11:49:27.970445,-1
11:49:27.970445,-205
11:49:27.970445,15103
11:49:27.970445,-1
11:49:27.970445,-198
11:49:27.970445,12799
11:49:27.970445,-1
11:49:27.970445,-205
11:49:27.970445,13311
11:49:27.970445,-1
11:49:27.970445,-207
11:49:27.970445,13311
11:49:27.970445,-1
11:49:27.970445,-205
11:49:27.970445,14591
11:49:27.970445,-1
11:49:27.970445,-205
11:49:27.970445,13311
11:49:27.970445,-1
11:49:27.970445,-203
11:49:27.970445,13823
11:49:27.970445,-1
11:49:27.970445,-200
11:49:27.970445,15103
11:49:27.970445,-1
11:49:27.970445,-198
11:49:27.970445,15871
11:49:27.970445,-1
11:49:27.970445,-200
11:49:28.565375,-198
11:49:28.565375,16383
11:49:28.565375,-1
11:49:28.565375,-193
11:49:28.565375,17663
11:49:28.565375,-1
11:49:28.565375,-188
11:49:28.565375,19455
11:49:28.565375,-1
11:49:28.565375,-164
11:49:28.565375,25087
11:49:28.565375,-1
11:49:28.565375,-159
11:49:28.565375,26879
11:49:28.565375,-1
11:49:28.565375,-149
11:49:28.565375,25599
11:49:28.565375,-1
11:49:28.565375,-176
11:49:28.565375,19455
11:49:28.565375,-1
11:49:28.565375,-174
11:49:28.565375,21247
11:49:28.565375,-1
11:49:28.565375,-174
11:49:28.565375,22015
11:49:28.565375,-1
11:49:28.565375,-169
11:49:28.565375,14591
11:49:28.565375,-1
11:49:28.565375,-268
11:49:28.565375,2303
11:49:28.565375,-1
11:49:28.565375,14
11:49:28.565375,-16640
11:49:28.565375,1
11:49:28.565375,616
11:49:28.565375,6144
11:49:28.565375,1
11:49:28.565375,-123
11:49:28.565375,9727
11:49:28.565375,-1
11:49:28.565375,-200
11:49:28.565375,5375
11:49:28.565375,-1
11:49:28.565375,-253
11:49:28.565375,7167
11:49:28.565375,-1
11:49:28.565375,-222
11:49:28.565375,8447
11:49:28.565375,-1
11:49:28.565375,-210
11:49:28.565375,12799
11:49:28.565375,-1
11:49:28.565375,-210
11:49:28.565375,14591
11:49:28.565375,-1
11:49:28.565375,-190
11:49:28.565375,18175
11:49:28.565375,-1
11:49:28.565375,-181
11:49:28.565375,19455
11:49:28.565375,-1
11:49:28.565375,-171
11:49:28.565375,23295
11:49:28.565375,-1
11:49:28.565375,-164
11:49:28.565375,25599
11:49:28.565375,-1
11:49:28.565375,-152
11:49:28.565375,29439
11:49:28.565375,-1
11:49:28.565375,-132
11:49:28.565375,32511
11:49:28.565375,-1
11:49:28.565375,-120
11:49:28.565375,-28673
11:49:28.565375,-1
11:49:28.565375,-99
11:49:28.565375,-22017
11:49:28.565375,-1
11:49:28.565375,-77
11:49:28.565375,-15617
11:49:28.565375,-1
11:49:28.565375,-55
11:49:28.565375,-11265
11:49:28.565375,-1
11:49:28.565375,-45
11:49:28.565375,-15105
11:49:28.565375,-1
11:49:28.565375,-67
11:49:28.565375,-18689
11:49:28.565375,-1
11:49:28.565375,-79
11:49:28.565375,-18689
11:49:28.565375,-1
11:49:28.565375,-74
11:49:28.565375,-18689
11:49:28.565375,-1
11:49:28.565375,-72
11:49:28.565375,-19457
11:49:28.565375,-1
11:49:28.565375,-70
11:49:28.565375,-15617
11:49:28.565375,-1
11:49:28.565375,-62
11:49:28.565375,-15617
11:49:28.565375,-1
11:49:28.565375,-65
11:49:29.114304,-60
11:49:29.114304,-14593
11:49:29.114304,-1
11:49:29.114304,-60
11:49:29.114304,-13825
11:49:29.114304,-1
11:49:29.114304,-55
11:49:29.114304,-13825
11:49:29.114304,-1
11:49:29.114304,-48
11:49:29.114304,-12033
11:49:29.114304,-1
11:49:29.114304,-45
11:49:29.114304,-11265
11:49:29.114304,-1
11:49:29.114304,-36
11:49:29.114304,-4609
11:49:29.114304,-1
11:49:29.114304,-19
11:49:29.114304,-6401
11:49:29.114304,-1
11:49:29.114304,-24
11:49:29.114304,-6401
11:49:29.114304,-1
11:49:29.114304,-26
11:49:29.114304,-7169
11:49:29.114304,-1
11:49:29.114304,-29
11:49:29.114304,-7169
11:49:29.114304,-1
11:49:29.114304,-33
11:49:29.114304,-7681
11:49:29.114304,-1
11:49:29.114304,-31
11:49:29.114304,-8961
11:49:29.114304,-1
11:49:29.114304,-36
11:49:29.114304,-8961
11:49:29.114304,-1
11:49:29.114304,-31
11:49:29.114304,-7681
11:49:29.114304,-1
11:49:29.114304,-38
11:49:29.114304,-8193
11:49:29.114304,-1
11:49:29.114304,-33
11:49:29.114304,-8193
11:49:29.114304,-1
11:49:29.114304,-31
11:49:29.114304,-10241
11:49:29.114304,-1
11:49:29.114304,-41
11:49:29.114304,-8193
11:49:29.114304,-1
11:49:29.114304,-24
11:49:29.114304,-3841
11:49:29.114304,-1
11:49:29.114304,-12
11:49:29.114304,-2049
11:49:29.114304,-1
11:49:29.114304,-21
11:49:29.114304,-9473
11:49:29.114304,-1
11:49:29.114304,-41
11:49:29.114304,-8193
11:49:29.114304,-1
11:49:29.114304,-31
11:49:29.114304,-7681
11:49:29.114304,-1
11:49:29.114304,-36
11:49:29.114304,-10753
11:49:29.114304,-1
11:49:29.114304,-89
11:49:29.114304,26367
11:49:29.114304,-1
11:49:29.114304,-84
11:49:29.114304,4607
11:49:29.114304,1
11:49:29.114304,744
11:49:29.114304,9984
11:49:29.114304,3
11:49:29.114304,355
11:49:29.114304,-14848
11:49:29.114304,-1
11:49:29.114304,-130
11:49:29.114304,-27393
11:49:29.114304,-1
11:49:29.114304,-140
11:49:29.114304,28159
11:49:29.114304,-1
11:49:29.114304,-123
11:49:29.114304,-31745
11:49:29.114304,-1
11:49:29.114304,-120
11:49:29.114304,-25601
11:49:29.114304,-1
11:49:29.114304,-103
11:49:29.114304,-26113
11:49:29.114304,-1
11:49:29.114304,-94
11:49:29.114304,-23041
11:49:29.114304,-1
11:49:29.114304,-87
11:49:29.114304,-22017
11:49:29.114304,-1
11:49:29.114304,-84
11:49:29.114304,-19969
11:49:29.114304,-1
11:49:29.114304,-82
11:49:29.689660,-77
11:49:29.689660,-18689
11:49:29.689660,-1
11:49:29.689660,-74
11:49:29.689660,-17665
11:49:29.689660,-1
11:49:29.689660,-70
11:49:29.689660,-16897
11:49:29.689660,-1
11:49:29.689660,-62
11:49:29.689660,-13825
11:49:29.689660,-1
11:49:29.689660,-36
11:49:29.689660,-7169
11:49:29.689660,-1
11:49:29.689660,-36
11:49:29.689660,-7681
11:49:29.689660,-1
11:49:29.689660,-19
11:49:29.689660,-3841
11:49:29.689660,-1
11:49:29.689660,-24
11:49:29.689660,-7681
11:49:29.689660,-1
11:49:29.689660,-33
11:49:29.689660,-10753
11:49:29.689660,-1
11:49:29.689660,-45
11:49:29.689660,-10753
11:49:29.689660,-1
11:49:29.689660,-48
11:49:29.689660,-12545
11:49:29.689660,-1
11:49:29.689660,-53
11:49:29.689660,-12545
11:49:29.689660,-1
11:49:29.689660,-50
11:49:29.689660,-13313
11:49:29.689660,-1
11:49:29.689660,-50
11:49:29.689660,-13313
11:49:29.689660,-1
11:49:29.689660,-53
11:49:29.689660,-12545
11:49:29.689660,-1
11:49:29.689660,-55
11:49:29.689660,-13313
11:49:29.689660,-1
11:49:29.689660,-50
11:49:29.689660,-13825
11:49:29.689660,-1
11:49:29.689660,-55
11:49:29.689660,-13313
11:49:29.689660,-1
11:49:29.689660,-50
11:49:29.689660,-11265
11:49:29.689660,-1
11:49:29.689660,-48
11:49:29.689660,-10753
11:49:29.689660,-1
11:49:29.689660,-41
11:49:29.689660,-10753
11:49:29.689660,-1
11:49:29.689660,-38
11:49:29.689660,-10241
11:49:29.689660,-1
11:49:29.689660,-43
11:49:29.689660,-10241
11:49:29.689660,-1
11:49:29.689660,-41
11:49:29.689660,-10241
11:49:29.689660,-1
11:49:29.689660,-41
11:49:29.689660,-10241
11:49:29.689660,-1
11:49:29.689660,-38
11:49:29.689660,-10241
11:49:29.689660,-1
11:49:29.689660,-41
11:49:29.689660,-10241
11:49:29.689660,-1
11:49:29.689660,-38
11:49:29.689660,-8193
11:49:29.689660,-1
11:49:29.689660,-36
11:49:29.689660,-9473
11:49:29.689660,-1
11:49:29.689660,-38
11:49:29.689660,-11265
11:49:29.689660,-1
11:49:29.689660,-48
11:49:29.689660,-9473
11:49:29.689660,-1
11:49:29.689660,-26
11:49:29.689660,-5121
11:49:29.689660,-1
11:49:29.689660,-21
11:49:29.689660,-3841
11:49:29.689660,-1
11:49:29.689660,-24
11:49:29.689660,-10753
11:49:29.689660,-1
11:49:29.689660,-45
11:49:29.689660,-11265
11:49:29.689660,-1
11:49:29.689660,-41
11:49:29.689660,-10241
11:49:29.689660,-1
11:49:29.689660,-45
11:49:30.227658,-45
11:49:30.227658,-18689
11:49:30.227658,-1
11:49:30.227658,-142
11:49:30.227658,29439
11:49:30.227658,-1
11:49:30.227658,113
11:49:30.227658,19712
11:49:30.227658,2
11:49:30.227658,809
11:49:30.227658,-8192
11:49:30.227658,1
11:49:30.227658,21
11:49:30.227658,-30720
11:49:30.227658,-1
11:49:30.227658,-89
11:49:30.227658,-31233
11:49:30.227658,-1
11:49:30.227658,-152
11:49:30.227658,-30465
11:49:30.227658,-1
11:49:30.227658,-116
11:49:30.227658,-31745
11:49:30.227658,-1
11:49:30.227658,-113
11:49:30.227658,-26113
11:49:30.227658,-1
11:49:30.227658,-103
11:49:30.227658,-26113
11:49:30.227658,-1
11:49:30.227658,-101
11:49:30.227658,-23041
11:49:30.227658,-1
11:49:30.227658,-91
11:49:30.227658,-23809
11:49:30.227658,-1
11:49:30.227658,-87
11:49:30.227658,-21249
11:49:30.227658,-1
11:49:30.227658,-84
11:49:30.227658,-19969
11:49:30.227658,-1
11:49:30.227658,-79
11:49:30.227658,-18689
11:49:30.227658,-1
11:49:30.227658,-74
11:49:30.227658,-18177
11:49:30.227658,-1
11:49:30.227658,-70
11:49:30.227658,-16897
11:49:30.227658,-1
11:49:30.227658,-62
11:49:30.227658,-15105
11:49:30.227658,-1
11:49:30.227658,-53
11:49:30.227658,-10753
11:49:30.227658,-1
11:49:30.227658,-43
11:49:30.227658,-11265
11:49:30.227658,-1
11:49:30.227658,-50
11:49:30.227658,-14593
11:49:30.227658,-1
11:49:30.227658,-65
11:49:30.227658,-18689
11:49:30.227658,-1
11:49:30.227658,-82
11:49:30.227658,-22017
11:49:30.227658,-1
11:49:30.227658,-91
11:49:30.227658,-21249
11:49:30.227658,-1
11:49:30.227658,-82
11:49:30.227658,-22529
11:49:30.227658,-1
11:49:30.227658,-91
11:49:30.227658,-23809
11:49:30.227658,-1
11:49:30.227658,-91
11:49:30.227658,-23809
11:49:30.227658,-1
11:49:30.227658,-96
11:49:30.227658,-24321
11:49:30.227658,-1
11:49:30.227658,-103
11:49:30.227658,-26881
11:49:30.227658,-1
11:49:30.227658,-101
11:49:30.227658,-25089
11:49:30.227658,-1
11:49:30.227658,-96
11:49:30.227658,-26113
11:49:30.227658,-1
11:49:30.227658,-106
11:49:30.227658,-25601
11:49:30.227658,-1
11:49:30.227658,-106
11:49:30.227658,-27393
11:49:30.227658,-1
11:49:30.227658,-113
11:49:30.227658,-28673
11:49:30.227658,-1
11:49:30.227658,-108
11:49:30.227658,-28673
11:49:30.227658,-1
11:49:30.227658,-113
11:49:30.227658,-28161
11:49:30.227658,-1
11:49:30.227658,-111
11:49:30.763987,-106
11:49:30.763987,-26881
11:49:30.763987,-1
11:49:30.763987,-111
11:49:30.763987,-28161
11:49:30.763987,-1
11:49:30.763987,-108
11:49:30.763987,-25601
11:49:30.763987,-1
11:49:30.763987,-96
11:49:30.763987,-22529
11:49:30.763987,-1
11:49:30.763987,-89
11:49:30.763987,-25601
11:49:30.763987,-1
11:49:30.763987,-101
11:49:30.763987,-24321
11:49:30.763987,-1
11:49:30.763987,-87
11:49:30.763987,-18177
11:49:30.763987,-1
11:49:30.763987,-72
11:49:30.763987,-17665
11:49:30.763987,-1
11:49:30.763987,-65
11:49:30.763987,-19969
11:49:30.763987,-1
11:49:30.763987,-91
11:49:30.763987,-23809
11:49:30.763987,-1
11:49:30.763987,-91
11:49:30.763987,-21249
11:49:30.763987,-1
11:49:30.763987,-87
11:49:30.763987,-21249
11:49:30.763987,-1
11:49:30.763987,-89
11:49:30.763987,31999
11:49:30.763987,-1
11:49:30.763987,-188
11:49:30.763987,-31745
11:49:30.763987,-1
11:49:30.763987,205
11:49:30.763987,31488
11:49:30.763987,2
11:49:30.763987,667
11:49:30.763987,-3072
11:49:30.763987,0
11:49:30.763987,-101
11:49:30.763987,31231
11:49:30.763987,-1
11:49:30.763987,-120
11:49:30.763987,22527
11:49:30.763987,-1
11:49:30.763987,-164
11:49:30.763987,31231
11:49:30.763987,-1
11:49:30.763987,-142
11:49:30.763987,30719
11:49:30.763987,-1
11:49:30.763987,-123
11:49:30.763987,-29441
11:49:30.763987,-1
11:49:30.763987,-113
11:49:30.763987,-28673
11:49:30.763987,-1
11:49:30.763987,-106
11:49:30.763987,-25089
11:49:30.763987,-1
11:49:30.763987,-96
11:49:30.763987,-23041
11:49:30.763987,-1
11:49:30.763987,-94
11:49:30.763987,-22017
11:49:30.763987,-1
11:49:30.763987,-82
11:49:30.763987,-20737
11:49:30.763987,-1
11:49:30.763987,-79
11:49:30.763987,-18177
11:49:30.763987,-1
11:49:30.763987,-70
11:49:30.763987,-16385
11:49:30.763987,-1
11:49:30.763987,-65
11:49:30.763987,-13313
11:49:30.763987,-1
11:49:30.763987,-45
11:49:30.763987,-10241
11:49:30.763987,-1
11:49:30.763987,-29
11:49:30.763987,-5889
11:49:30.763987,-1
11:49:30.763987,-19
11:49:30.763987,-4609
11:49:30.763987,-1
11:49:30.763987,-26
11:49:30.763987,-7681
11:49:30.763987,-1
11:49:30.763987,-45
11:49:30.763987,-13825
11:49:30.763987,-1
11:49:30.763987,-58
11:49:30.763987,-15105
11:49:30.763987,-1
11:49:30.763987,-58
11:49:30.763987,-13825
11:49:30.763987,-1
11:49:30.763987,-55
11:49:31.331722,-53
11:49:31.331722,-13825
11:49:31.331722,-1
11:49:31.331722,-53
11:49:31.331722,-10753
11:49:31.331722,-1
11:49:31.331722,-36
11:49:31.331722,-7681
11:49:31.331722,-1
11:49:31.331722,-41
11:49:31.331722,-10753
11:49:31.331722,-1
11:49:31.331722,-38
11:49:31.331722,-9473
11:49:31.331722,-1
11:49:31.331722,-36
11:49:31.331722,-8961
11:49:31.331722,-1
11:49:31.331722,-41
11:49:31.331722,-8193
11:49:31.331722,-1
11:49:31.331722,-36
11:49:31.331722,-9473
11:49:31.331722,-1
11:49:31.331722,-36
11:49:31.331722,-9473
11:49:31.331722,-1
11:49:31.331722,-36
11:49:31.331722,-8961
11:49:31.331722,-1
11:49:31.331722,-36
11:49:31.331722,-8193
11:49:31.331722,-1
11:49:31.331722,-33
11:49:31.331722,-8193
11:49:31.331722,-1
11:49:31.331722,-33
11:49:31.331722,-9473
11:49:31.331722,-1
11:49:31.331722,-36
11:49:31.331722,-8961
11:49:31.331722,-1
11:49:31.331722,-36
11:49:31.331722,-8961
11:49:31.331722,-1
11:49:31.331722,-43
11:49:31.331722,-10241
