timestamp,ecg,reconstructed_time
2025-11-07 11:49:01.663687,4,2025-11-07 11:49:01.663687000
2025-11-07 11:49:01.663687,14848,2025-11-07 11:49:01.671379308
2025-11-07 11:49:01.663687,3,2025-11-07 11:49:01.679071615
2025-11-07 11:49:01.663687,4589,2025-11-07 11:49:01.686763923
2025-11-07 11:49:01.663687,11776,2025-11-07 11:49:01.694456231
2025-11-07 11:49:01.663687,37,2025-11-07 11:49:01.702148538
2025-11-07 11:49:01.663687,10936,2025-11-07 11:49:01.709840846
2025-11-07 11:49:01.663687,16128,2025-11-07 11:49:01.717533154
2025-11-07 11:49:01.663687,41,2025-11-07 11:49:01.725225462
2025-11-07 11:49:01.663687,11458,2025-11-07 11:49:01.732917769
2025-11-07 11:49:01.663687,-2560,2025-11-07 11:49:01.740610077
2025-11-07 11:49:01.663687,46,2025-11-07 11:49:01.748302385
2025-11-07 11:49:01.663687,11773,2025-11-07 11:49:01.755994692
2025-11-07 11:49:01.663687,30720,2025-11-07 11:49:01.763687000
2025-11-07 11:49:01.663687,46,2025-11-07 11:49:01.771379308
2025-11-07 11:49:01.663687,12072,2025-11-07 11:49:01.779071615
2025-11-07 11:49:01.663687,25856,2025-11-07 11:49:01.786763923
2025-11-07 11:49:01.663687,46,2025-11-07 11:49:01.794456231
2025-11-07 11:49:01.663687,11736,2025-11-07 11:49:01.802148538
2025-11-07 11:49:01.663687,-22016,2025-11-07 11:49:01.809840846
2025-11-07 11:49:01.663687,45,2025-11-07 11:49:01.817533154
2025-11-07 11:49:01.663687,11521,2025-11-07 11:49:01.825225462
2025-11-07 11:49:01.663687,15872,2025-11-07 11:49:01.832917769
2025-11-07 11:49:01.663687,44,2025-11-07 11:49:01.840610077
2025-11-07 11:49:01.663687,11173,2025-11-07 11:49:01.848302385
2025-11-07 11:49:01.663687,256,2025-11-07 11:49:01.855994692
2025-11-07 11:49:01.663687,43,2025-11-07 11:49:01.863687000
2025-11-07 11:49:01.663687,10816,2025-11-07 11:49:01.871379308
2025-11-07 11:49:01.663687,29952,2025-11-07 11:49:01.879071615
2025-11-07 11:49:01.663687,41,2025-11-07 11:49:01.886763923
2025-11-07 11:49:01.663687,10429,2025-11-07 11:49:01.894456231
2025-11-07 11:49:01.663687,-6656,2025-11-07 11:49:01.902148538
2025-11-07 11:49:01.663687,39,2025-11-07 11:49:01.909840846
2025-11-07 11:49:01.663687,9926,2025-11-07 11:49:01.917533154
2025-11-07 11:49:01.663687,-2560,2025-11-07 11:49:01.925225462
2025-11-07 11:49:01.663687,37,2025-11-07 11:49:01.932917769
2025-11-07 11:49:01.663687,9796,2025-11-07 11:49:01.940610077
2025-11-07 11:49:01.663687,20992,2025-11-07 11:49:01.948302385
2025-11-07 11:49:01.663687,39,2025-11-07 11:49:01.955994692
2025-11-07 11:49:01.663687,10066,2025-11-07 11:49:01.963687000
2025-11-07 11:49:01.663687,27136,2025-11-07 11:49:01.971379308
2025-11-07 11:49:01.663687,37,2025-11-07 11:49:01.979071615
2025-11-07 11:49:01.663687,8996,2025-11-07 11:49:01.986763923
2025-11-07 11:49:01.663687,-7680,2025-11-07 11:49:01.994456231
2025-11-07 11:49:01.663687,33,2025-11-07 11:49:02.002148538
2025-11-07 11:49:01.663687,8483,2025-11-07 11:49:02.009840846
2025-11-07 11:49:01.663687,18944,2025-11-07 11:49:02.017533154
2025-11-07 11:49:01.663687,32,2025-11-07 11:49:02.025225462
2025-11-07 11:49:01.663687,8077,2025-11-07 11:49:02.032917769
2025-11-07 11:49:01.663687,-3584,2025-11-07 11:49:02.040610077
2025-11-07 11:49:01.663687,30,2025-11-07 11:49:02.048302385
2025-11-07 11:49:01.663687,7731,2025-11-07 11:49:02.055994692
2025-11-07 11:49:01.663687,30464,2025-11-07 11:49:02.063687000
2025-11-07 11:49:01.663687,29,2025-11-07 11:49:02.071379308
2025-11-07 11:49:01.663687,7400,2025-11-07 11:49:02.079071615
2025-11-07 11:49:01.663687,19968,2025-11-07 11:49:02.086763923
2025-11-07 11:49:01.663687,28,2025-11-07 11:49:02.094456231
2025-11-07 11:49:01.663687,7074,2025-11-07 11:49:02.102148538
2025-11-07 11:49:01.663687,1280,2025-11-07 11:49:02.109840846
2025-11-07 11:49:01.663687,27,2025-11-07 11:49:02.117533154
2025-11-07 11:49:01.663687,6762,2025-11-07 11:49:02.125225462
2025-11-07 11:49:01.663687,-12288,2025-11-07 11:49:02.132917769
2025-11-07 11:49:01.663687,25,2025-11-07 11:49:02.140610077
2025-11-07 11:49:01.663687,6448,2025-11-07 11:49:02.148302385
2025-11-07 11:49:01.663687,-26112,2025-11-07 11:49:02.155994692
2025-11-07 11:49:01.663687,24,2025-11-07 11:49:02.163687000
2025-11-07 11:49:01.663687,6165,2025-11-07 11:49:02.171379308
2025-11-07 11:49:01.663687,-32256,2025-11-07 11:49:02.179071615
2025-11-07 11:49:01.663687,23,2025-11-07 11:49:02.186763923
2025-11-07 11:49:01.663687,5858,2025-11-07 11:49:02.194456230
2025-11-07 11:49:01.663687,22016,2025-11-07 11:49:02.202148538
2025-11-07 11:49:01.663687,22,2025-11-07 11:49:02.209840846
2025-11-07 11:49:01.663687,5590,2025-11-07 11:49:02.217533154
2025-11-07 11:49:01.663687,21248,2025-11-07 11:49:02.225225462
2025-11-07 11:49:01.663687,21,2025-11-07 11:49:02.232917769
2025-11-07 11:49:01.663687,5324,2025-11-07 11:49:02.240610077
2025-11-07 11:49:01.663687,19456,2025-11-07 11:49:02.248302385
2025-11-07 11:49:01.663687,20,2025-11-07 11:49:02.255994692
2025-11-07 11:49:01.663687,5063,2025-11-07 11:49:02.263687000
2025-11-07 11:49:01.663687,15616,2025-11-07 11:49:02.271379308
2025-11-07 11:49:01.663687,19,2025-11-07 11:49:02.279071615
2025-11-07 11:49:01.663687,4800,2025-11-07 11:49:02.286763923
2025-11-07 11:49:01.663687,18176,2025-11-07 11:49:02.294456231
2025-11-07 11:49:01.663687,18,2025-11-07 11:49:02.302148538
2025-11-07 11:49:01.663687,4570,2025-11-07 11:49:02.309840846
2025-11-07 11:49:01.663687,26112,2025-11-07 11:49:02.317533154
2025-11-07 11:49:01.663687,17,2025-11-07 11:49:02.325225462
2025-11-07 11:49:01.663687,4319,2025-11-07 11:49:02.332917769
2025-11-07 11:49:01.663687,26112,2025-11-07 11:49:02.340610077
2025-11-07 11:49:01.663687,16,2025-11-07 11:49:02.348302385
2025-11-07 11:49:01.663687,4089,2025-11-07 11:49:02.355994692
2025-11-07 11:49:01.663687,32256,2025-11-07 11:49:02.363687000
2025-11-07 11:49:01.663687,15,2025-11-07 11:49:02.371379308
2025-11-07 11:49:01.663687,3855,2025-11-07 11:49:02.379071615
2025-11-07 11:49:01.663687,-25344,2025-11-07 11:49:02.386763923
2025-11-07 11:49:01.663687,14,2025-11-07 11:49:02.394456231
2025-11-07 11:49:01.663687,3618,2025-11-07 11:49:02.402148538
2025-11-07 11:49:01.663687,-19712,2025-11-07 11:49:02.409840846
2025-11-07 11:49:01.663687,13,2025-11-07 11:49:02.417533154
2025-11-07 11:49:01.663687,3407,2025-11-07 11:49:02.425225462
2025-11-07 11:49:01.663687,-5632,2025-11-07 11:49:02.432917769
2025-11-07 11:49:01.663687,12,2025-11-07 11:49:02.440610077
2025-11-07 11:49:01.663687,3202,2025-11-07 11:49:02.448302385
2025-11-07 11:49:01.663687,6144,2025-11-07 11:49:02.455994692
2025-11-07 11:49:01.663687,12,2025-11-07 11:49:02.463687000
2025-11-07 11:49:01.663687,2994,2025-11-07 11:49:02.471379308
2025-11-07 11:49:01.663687,19712,2025-11-07 11:49:02.479071615
2025-11-07 11:49:01.663687,11,2025-11-07 11:49:02.486763923
2025-11-07 11:49:01.663687,2796,2025-11-07 11:49:02.494456231
2025-11-07 11:49:02.199737,2697,2025-11-07 11:49:02.502148538
2025-11-07 11:49:02.199737,8960,2025-11-07 11:49:02.509840846
2025-11-07 11:49:02.199737,10,2025-11-07 11:49:02.517533154
2025-11-07 11:49:02.199737,2506,2025-11-07 11:49:02.525225462
2025-11-07 11:49:02.199737,28672,2025-11-07 11:49:02.532917769
2025-11-07 11:49:02.199737,9,2025-11-07 11:49:02.540610077
2025-11-07 11:49:02.199737,2322,2025-11-07 11:49:02.548302385
2025-11-07 11:49:02.199737,-17664,2025-11-07 11:49:02.555994692
2025-11-07 11:49:02.199737,8,2025-11-07 11:49:02.563687000
2025-11-07 11:49:02.199737,2151,2025-11-07 11:49:02.571379308
2025-11-07 11:49:02.199737,5120,2025-11-07 11:49:02.579071615
2025-11-07 11:49:02.199737,8,2025-11-07 11:49:02.586763923
2025-11-07 11:49:02.199737,1979,2025-11-07 11:49:02.594456231
2025-11-07 11:49:02.199737,23808,2025-11-07 11:49:02.602148538
2025-11-07 11:49:02.199737,7,2025-11-07 11:49:02.609840846
2025-11-07 11:49:02.199737,1817,2025-11-07 11:49:02.617533154
2025-11-07 11:49:02.199737,-9728,2025-11-07 11:49:02.625225462
2025-11-07 11:49:02.199737,6,2025-11-07 11:49:02.632917769
2025-11-07 11:49:02.199737,1670,2025-11-07 11:49:02.640610077
2025-11-07 11:49:02.199737,11264,2025-11-07 11:49:02.648302385
2025-11-07 11:49:02.199737,6,2025-11-07 11:49:02.655994692
2025-11-07 11:49:02.199737,1513,2025-11-07 11:49:02.663687000
2025-11-07 11:49:02.199737,-24064,2025-11-07 11:49:02.671379308
2025-11-07 11:49:02.199737,5,2025-11-07 11:49:02.679071615
2025-11-07 11:49:02.199737,1355,2025-11-07 11:49:02.686763923
2025-11-07 11:49:02.199737,256,2025-11-07 11:49:02.694456231
2025-11-07 11:49:02.199737,5,2025-11-07 11:49:02.702148538
2025-11-07 11:49:02.199737,1215,2025-11-07 11:49:02.709840846
2025-11-07 11:49:02.199737,29184,2025-11-07 11:49:02.717533154
2025-11-07 11:49:02.199737,4,2025-11-07 11:49:02.725225462
2025-11-07 11:49:02.199737,1061,2025-11-07 11:49:02.732917769
2025-11-07 11:49:02.199737,-8704,2025-11-07 11:49:02.740610077
2025-11-07 11:49:02.199737,3,2025-11-07 11:49:02.748302385
2025-11-07 11:49:02.199737,925,2025-11-07 11:49:02.755994692
2025-11-07 11:49:02.199737,23552,2025-11-07 11:49:02.763687000
2025-11-07 11:49:02.199737,3,2025-11-07 11:49:02.771379308
2025-11-07 11:49:02.199737,802,2025-11-07 11:49:02.779071615
2025-11-07 11:49:02.199737,-1792,2025-11-07 11:49:02.786763923
2025-11-07 11:49:02.199737,2,2025-11-07 11:49:02.794456231
2025-11-07 11:49:02.199737,720,2025-11-07 11:49:02.802148538
2025-11-07 11:49:02.199737,-31488,2025-11-07 11:49:02.809840846
2025-11-07 11:49:02.199737,2,2025-11-07 11:49:02.817533154
2025-11-07 11:49:02.199737,565,2025-11-07 11:49:02.825225462
2025-11-07 11:49:02.199737,-6912,2025-11-07 11:49:02.832917769
2025-11-07 11:49:02.199737,1,2025-11-07 11:49:02.840610077
2025-11-07 11:49:02.199737,422,2025-11-07 11:49:02.848302385
2025-11-07 11:49:02.199737,31488,2025-11-07 11:49:02.855994692
2025-11-07 11:49:02.199737,1,2025-11-07 11:49:02.863687000
2025-11-07 11:49:02.199737,323,2025-11-07 11:49:02.871379308
2025-11-07 11:49:02.199737,1792,2025-11-07 11:49:02.879071615
2025-11-07 11:49:02.199737,1,2025-11-07 11:49:02.886763923
2025-11-07 11:49:02.199737,207,2025-11-07 11:49:02.894456231
2025-11-07 11:49:02.199737,-26624,2025-11-07 11:49:02.902148538
2025-11-07 11:49:02.199737,0,2025-11-07 11:49:02.909840846
2025-11-07 11:49:02.199737,91,2025-11-07 11:49:02.917533154
2025-11-07 11:49:02.199737,-3072,2025-11-07 11:49:02.925225462
2025-11-07 11:49:02.199737,-1,2025-11-07 11:49:02.932917769
2025-11-07 11:49:02.199737,-132,2025-11-07 11:49:02.940610077
2025-11-07 11:49:02.199737,-28673,2025-11-07 11:49:02.948302385
2025-11-07 11:49:02.199737,-1,2025-11-07 11:49:02.955994692
2025-11-07 11:49:02.199737,183,2025-11-07 11:49:02.963687000
2025-11-07 11:49:02.199737,7424,2025-11-07 11:49:02.971379308
2025-11-07 11:49:02.199737,2,2025-11-07 11:49:02.979071615
2025-11-07 11:49:02.199737,507,2025-11-07 11:49:02.986763923
2025-11-07 11:49:02.199737,20992,2025-11-07 11:49:02.994456231
2025-11-07 11:49:02.199737,0,2025-11-07 11:49:03.002148538
2025-11-07 11:49:02.199737,-273,2025-11-07 11:49:03.009840846
2025-11-07 11:49:02.199737,-29441,2025-11-07 11:49:03.017533154
2025-11-07 11:49:02.199737,-2,2025-11-07 11:49:03.025225462
2025-11-07 11:49:02.199737,-415,2025-11-07 11:49:03.032917769
2025-11-07 11:49:02.199737,5887,2025-11-07 11:49:03.040610077
2025-11-07 11:49:02.199737,-2,2025-11-07 11:49:03.048302385
2025-11-07 11:49:02.199737,-519,2025-11-07 11:49:03.055994692
2025-11-07 11:49:02.199737,-4097,2025-11-07 11:49:03.063687000
2025-11-07 11:49:02.199737,-3,2025-11-07 11:49:03.071379308
2025-11-07 11:49:02.199737,-584,2025-11-07 11:49:03.079071615
2025-11-07 11:49:02.199737,-28929,2025-11-07 11:49:03.086763923
2025-11-07 11:49:02.199737,-3,2025-11-07 11:49:03.094456231
2025-11-07 11:49:02.199737,-642,2025-11-07 11:49:03.102148538
2025-11-07 11:49:02.199737,20735,2025-11-07 11:49:03.109840846
2025-11-07 11:49:02.199737,-3,2025-11-07 11:49:03.117533154
2025-11-07 11:49:02.199737,-737,2025-11-07 11:49:03.125225462
2025-11-07 11:49:02.199737,1535,2025-11-07 11:49:03.132917769
2025-11-07 11:49:02.199737,-3,2025-11-07 11:49:03.140610077
2025-11-07 11:49:02.199737,-780,2025-11-07 11:49:03.148302385
2025-11-07 11:49:02.199737,-4609,2025-11-07 11:49:03.155994692
2025-11-07 11:49:02.199737,-4,2025-11-07 11:49:03.163687000
2025-11-07 11:49:02.199737,-804,2025-11-07 11:49:03.171379308
2025-11-07 11:49:02.199737,-19457,2025-11-07 11:49:03.179071615
2025-11-07 11:49:02.199737,-4,2025-11-07 11:49:03.186763923
2025-11-07 11:49:02.199737,-884,2025-11-07 11:49:03.194456230
2025-11-07 11:49:02.199737,29183,2025-11-07 11:49:03.202148538
2025-11-07 11:49:02.199737,-4,2025-11-07 11:49:03.209840846
2025-11-07 11:49:02.199737,-940,2025-11-07 11:49:03.217533154
2025-11-07 11:49:02.199737,11263,2025-11-07 11:49:03.225225462
2025-11-07 11:49:02.199737,-4,2025-11-07 11:49:03.232917769
2025-11-07 11:49:02.199737,-1019,2025-11-07 11:49:03.240610077
2025-11-07 11:49:02.199737,-3585,2025-11-07 11:49:03.248302385
2025-11-07 11:49:02.199737,-5,2025-11-07 11:49:03.255994692
2025-11-07 11:49:02.199737,-1032,2025-11-07 11:49:03.263687000
2025-11-07 11:49:02.199737,3327,2025-11-07 11:49:03.271379308
2025-11-07 11:49:02.199737,-4,2025-11-07 11:49:03.279071615
2025-11-07 11:49:02.199737,-1029,2025-11-07 11:49:03.286763923
2025-11-07 11:49:02.199737,-12801,2025-11-07 11:49:03.294456231
2025-11-07 11:49:02.199737,-5,2025-11-07 11:49:03.302148538
2025-11-07 11:49:02.199737,-1094,2025-11-07 11:49:03.309840846
2025-11-07 11:49:02.199737,-20737,2025-11-07 11:49:03.317533154
2025-11-07 11:49:02.199737,-5,2025-11-07 11:49:03.325225462
2025-11-07 11:49:02.199737,-1133,2025-11-07 11:49:03.332917769
2025-11-07 11:49:02.735983,-1152,2025-11-07 11:49:03.340610077
2025-11-07 11:49:02.735983,29183,2025-11-07 11:49:03.348302385
2025-11-07 11:49:02.735983,-5,2025-11-07 11:49:03.355994692
2025-11-07 11:49:02.735983,-1186,2025-11-07 11:49:03.363687000
2025-11-07 11:49:02.735983,13823,2025-11-07 11:49:03.371379308
2025-11-07 11:49:02.735983,-5,2025-11-07 11:49:03.379071615
2025-11-07 11:49:02.735983,-1261,2025-11-07 11:49:03.386763923
2025-11-07 11:49:02.735983,4351,2025-11-07 11:49:03.394456231
2025-11-07 11:49:02.735983,-5,2025-11-07 11:49:03.402148538
2025-11-07 11:49:02.735983,-1261,2025-11-07 11:49:03.409840846
2025-11-07 11:49:02.735983,1279,2025-11-07 11:49:03.417533154
2025-11-07 11:49:02.735983,-5,2025-11-07 11:49:03.425225462
2025-11-07 11:49:02.735983,-1317,2025-11-07 11:49:03.432917769
2025-11-07 11:49:02.735983,-14081,2025-11-07 11:49:03.440610077
2025-11-07 11:49:02.735983,-6,2025-11-07 11:49:03.448302385
2025-11-07 11:49:02.735983,-1319,2025-11-07 11:49:03.455994692
2025-11-07 11:49:02.735983,-13569,2025-11-07 11:49:03.463687000
2025-11-07 11:49:02.735983,-6,2025-11-07 11:49:03.471379308
2025-11-07 11:49:02.735983,-1360,2025-11-07 11:49:03.479071615
2025-11-07 11:49:02.735983,-22785,2025-11-07 11:49:03.486763923
2025-11-07 11:49:02.735983,-6,2025-11-07 11:49:03.494456231
2025-11-07 11:49:02.735983,-1392,2025-11-07 11:49:03.502148538
2025-11-07 11:49:02.735983,-30209,2025-11-07 11:49:03.509840846
2025-11-07 11:49:02.735983,-6,2025-11-07 11:49:03.517533154
2025-11-07 11:49:02.735983,-1372,2025-11-07 11:49:03.525225462
2025-11-07 11:49:02.735983,-20993,2025-11-07 11:49:03.532917769
2025-11-07 11:49:02.735983,-6,2025-11-07 11:49:03.540610077
2025-11-07 11:49:02.735983,-1401,2025-11-07 11:49:03.548302385
2025-11-07 11:49:02.735983,27391,2025-11-07 11:49:03.555994692
2025-11-07 11:49:02.735983,-6,2025-11-07 11:49:03.563687000
2025-11-07 11:49:02.735983,-1421,2025-11-07 11:49:03.571379308
2025-11-07 11:49:02.735983,27903,2025-11-07 11:49:03.579071615
2025-11-07 11:49:02.735983,-6,2025-11-07 11:49:03.586763923
2025-11-07 11:49:02.735983,-1452,2025-11-07 11:49:03.594456231
2025-11-07 11:49:02.735983,19199,2025-11-07 11:49:03.602148538
2025-11-07 11:49:02.735983,-6,2025-11-07 11:49:03.609840846
2025-11-07 11:49:02.735983,-1455,2025-11-07 11:49:03.617533154
2025-11-07 11:49:02.735983,24319,2025-11-07 11:49:03.625225462
2025-11-07 11:49:02.735983,-6,2025-11-07 11:49:03.632917769
2025-11-07 11:49:02.735983,-1455,2025-11-07 11:49:03.640610077
2025-11-07 11:49:02.735983,16895,2025-11-07 11:49:03.648302385
2025-11-07 11:49:02.735983,-6,2025-11-07 11:49:03.655994692
2025-11-07 11:49:02.735983,-1469,2025-11-07 11:49:03.663687000
2025-11-07 11:49:02.735983,14847,2025-11-07 11:49:03.671379308
2025-11-07 11:49:02.735983,-6,2025-11-07 11:49:03.679071615
2025-11-07 11:49:02.735983,-1500,2025-11-07 11:49:03.686763923
2025-11-07 11:49:02.735983,7423,2025-11-07 11:49:03.694456231
2025-11-07 11:49:02.735983,-6,2025-11-07 11:49:03.702148538
2025-11-07 11:49:02.735983,-1510,2025-11-07 11:49:03.709840846
2025-11-07 11:49:02.735983,6143,2025-11-07 11:49:03.717533154
2025-11-07 11:49:02.735983,-6,2025-11-07 11:49:03.725225462
2025-11-07 11:49:02.735983,-1517,2025-11-07 11:49:03.732917769
2025-11-07 11:49:02.735983,-1,2025-11-07 11:49:03.740610077
2025-11-07 11:49:02.735983,-7,2025-11-07 11:49:03.748302385
2025-11-07 11:49:02.735983,-1542,2025-11-07 11:49:03.755994692
2025-11-07 11:49:02.735983,4351,2025-11-07 11:49:03.763687000
2025-11-07 11:49:02.735983,-6,2025-11-07 11:49:03.771379308
2025-11-07 11:49:02.735983,-1525,2025-11-07 11:49:03.779071615
2025-11-07 11:49:02.735983,-3585,2025-11-07 11:49:03.786763923
2025-11-07 11:49:02.735983,-7,2025-11-07 11:49:03.794456231
2025-11-07 11:49:02.735983,-1554,2025-11-07 11:49:03.802148538
2025-11-07 11:49:02.735983,-1281,2025-11-07 11:49:03.809840846
2025-11-07 11:49:02.735983,-7,2025-11-07 11:49:03.817533154
2025-11-07 11:49:02.735983,-1513,2025-11-07 11:49:03.825225462
2025-11-07 11:49:02.735983,18687,2025-11-07 11:49:03.832917769
2025-11-07 11:49:02.735983,-6,2025-11-07 11:49:03.840610077
2025-11-07 11:49:02.735983,-1428,2025-11-07 11:49:03.848302385
2025-11-07 11:49:02.735983,32767,2025-11-07 11:49:03.855994692
2025-11-07 11:49:02.735983,-6,2025-11-07 11:49:03.863687000
2025-11-07 11:49:02.735983,-1394,2025-11-07 11:49:03.871379308
2025-11-07 11:49:02.735983,-22785,2025-11-07 11:49:03.879071615
2025-11-07 11:49:02.735983,-6,2025-11-07 11:49:03.886763923
2025-11-07 11:49:02.735983,-1324,2025-11-07 11:49:03.894456231
2025-11-07 11:49:02.735983,2559,2025-11-07 11:49:03.902148538
2025-11-07 11:49:02.735983,-5,2025-11-07 11:49:03.909840846
2025-11-07 11:49:02.735983,-1227,2025-11-07 11:49:03.917533154
2025-11-07 11:49:02.735983,24319,2025-11-07 11:49:03.925225462
2025-11-07 11:49:02.735983,-5,2025-11-07 11:49:03.932917769
2025-11-07 11:49:02.735983,-1152,2025-11-07 11:49:03.940610077
2025-11-07 11:49:02.735983,-30209,2025-11-07 11:49:03.948302385
2025-11-07 11:49:02.735983,-5,2025-11-07 11:49:03.955994692
2025-11-07 11:49:02.735983,-1177,2025-11-07 11:49:03.963687000
2025-11-07 11:49:02.735983,18687,2025-11-07 11:49:03.971379308
2025-11-07 11:49:02.735983,-5,2025-11-07 11:49:03.979071615
2025-11-07 11:49:02.735983,-1070,2025-11-07 11:49:03.986763923
2025-11-07 11:49:02.735983,29951,2025-11-07 11:49:03.994456231
2025-11-07 11:49:02.735983,-3,2025-11-07 11:49:04.002148538
2025-11-07 11:49:02.735983,-253,2025-11-07 11:49:04.009840846
2025-11-07 11:49:02.735983,-6401,2025-11-07 11:49:04.017533154
2025-11-07 11:49:02.735983,-2,2025-11-07 11:49:04.025225462
2025-11-07 11:49:02.735983,-647,2025-11-07 11:49:04.032917769
2025-11-07 11:49:02.735983,25599,2025-11-07 11:49:04.040610077
2025-11-07 11:49:02.735983,-4,2025-11-07 11:49:04.048302385
2025-11-07 11:49:02.735983,-957,2025-11-07 11:49:04.055994692
2025-11-07 11:49:02.735983,26111,2025-11-07 11:49:04.063687000
2025-11-07 11:49:02.735983,-4,2025-11-07 11:49:04.071379308
2025-11-07 11:49:02.735983,-923,2025-11-07 11:49:04.079071615
2025-11-07 11:49:02.735983,29951,2025-11-07 11:49:04.086763923
2025-11-07 11:49:02.735983,-4,2025-11-07 11:49:04.094456231
2025-11-07 11:49:02.735983,-882,2025-11-07 11:49:04.102148538
2025-11-07 11:49:02.735983,-22785,2025-11-07 11:49:04.109840846
2025-11-07 11:49:02.735983,-4,2025-11-07 11:49:04.117533154
2025-11-07 11:49:02.735983,-833,2025-11-07 11:49:04.125225462
2025-11-07 11:49:02.735983,-10241,2025-11-07 11:49:04.132917769
2025-11-07 11:49:02.735983,-4,2025-11-07 11:49:04.140610077
2025-11-07 11:49:02.735983,-790,2025-11-07 11:49:04.148302385
2025-11-07 11:49:02.735983,767,2025-11-07 11:49:04.155994692
2025-11-07 11:49:02.735983,-3,2025-11-07 11:49:04.163687000
2025-11-07 11:49:02.735983,-722,2025-11-07 11:49:04.171379308
2025-11-07 11:49:03.318680,-688,2025-11-07 11:49:04.179071615
2025-11-07 11:49:03.318680,19455,2025-11-07 11:49:04.186763923
2025-11-07 11:49:03.318680,-3,2025-11-07 11:49:04.194456230
2025-11-07 11:49:03.318680,-700,2025-11-07 11:49:04.202148538
2025-11-07 11:49:03.318680,19967,2025-11-07 11:49:04.209840846
2025-11-07 11:49:03.318680,-3,2025-11-07 11:49:04.217533154
2025-11-07 11:49:03.318680,-684,2025-11-07 11:49:04.225225462
2025-11-07 11:49:03.318680,21759,2025-11-07 11:49:04.232917769
2025-11-07 11:49:03.318680,-3,2025-11-07 11:49:04.240610077
2025-11-07 11:49:03.318680,-667,2025-11-07 11:49:04.248302385
2025-11-07 11:49:03.318680,30463,2025-11-07 11:49:04.255994692
2025-11-07 11:49:03.318680,-3,2025-11-07 11:49:04.263687000
2025-11-07 11:49:03.318680,-652,2025-11-07 11:49:04.271379308
2025-11-07 11:49:03.318680,29951,2025-11-07 11:49:04.279071615
2025-11-07 11:49:03.318680,-3,2025-11-07 11:49:04.286763923
2025-11-07 11:49:03.318680,-645,2025-11-07 11:49:04.294456231
2025-11-07 11:49:03.318680,-32513,2025-11-07 11:49:04.302148538
2025-11-07 11:49:03.318680,-3,2025-11-07 11:49:04.309840846
2025-11-07 11:49:03.318680,-638,2025-11-07 11:49:04.317533154
2025-11-07 11:49:03.318680,-28161,2025-11-07 11:49:04.325225462
2025-11-07 11:49:03.318680,-3,2025-11-07 11:49:04.332917769
2025-11-07 11:49:03.318680,-604,2025-11-07 11:49:04.340610077
2025-11-07 11:49:03.318680,-19457,2025-11-07 11:49:04.348302385
2025-11-07 11:49:03.318680,-3,2025-11-07 11:49:04.355994692
2025-11-07 11:49:03.318680,-567,2025-11-07 11:49:04.363687000
2025-11-07 11:49:03.318680,-7681,2025-11-07 11:49:04.371379308
2025-11-07 11:49:03.318680,-3,2025-11-07 11:49:04.379071615
2025-11-07 11:49:03.318680,-524,2025-11-07 11:49:04.386763923
2025-11-07 11:49:03.318680,1023,2025-11-07 11:49:04.394456231
2025-11-07 11:49:03.318680,-2,2025-11-07 11:49:04.402148538
2025-11-07 11:49:03.318680,-493,2025-11-07 11:49:04.409840846
2025-11-07 11:49:03.318680,8959,2025-11-07 11:49:04.417533154
2025-11-07 11:49:03.318680,-2,2025-11-07 11:49:04.425225462
2025-11-07 11:49:03.318680,-461,2025-11-07 11:49:04.432917769
2025-11-07 11:49:03.318680,18175,2025-11-07 11:49:04.440610077
2025-11-07 11:49:03.318680,-2,2025-11-07 11:49:04.448302385
2025-11-07 11:49:03.318680,-422,2025-11-07 11:49:04.455994692
2025-11-07 11:49:03.318680,28671,2025-11-07 11:49:04.463687000
2025-11-07 11:49:03.318680,-2,2025-11-07 11:49:04.471379308
2025-11-07 11:49:03.318680,-374,2025-11-07 11:49:04.479071615
2025-11-07 11:49:03.318680,-23809,2025-11-07 11:49:04.486763923
2025-11-07 11:49:03.318680,-2,2025-11-07 11:49:04.494456231
2025-11-07 11:49:03.318680,-331,2025-11-07 11:49:04.502148538
2025-11-07 11:49:03.318680,-13825,2025-11-07 11:49:04.509840846
2025-11-07 11:49:03.318680,-2,2025-11-07 11:49:04.517533154
2025-11-07 11:49:03.318680,-294,2025-11-07 11:49:04.525225462
2025-11-07 11:49:03.318680,-5889,2025-11-07 11:49:04.532917769
2025-11-07 11:49:03.318680,-2,2025-11-07 11:49:04.540610077
2025-11-07 11:49:03.318680,-263,2025-11-07 11:49:04.548302385
2025-11-07 11:49:03.318680,2815,2025-11-07 11:49:04.555994692
2025-11-07 11:49:03.318680,-1,2025-11-07 11:49:04.563687000
2025-11-07 11:49:03.318680,-229,2025-11-07 11:49:04.571379308
2025-11-07 11:49:03.318680,12799,2025-11-07 11:49:04.579071615
2025-11-07 11:49:03.318680,-1,2025-11-07 11:49:04.586763923
2025-11-07 11:49:03.318680,-183,2025-11-07 11:49:04.594456231
2025-11-07 11:49:03.318680,24575,2025-11-07 11:49:04.602148538
2025-11-07 11:49:03.318680,-1,2025-11-07 11:49:04.609840846
2025-11-07 11:49:03.318680,-149,2025-11-07 11:49:04.617533154
2025-11-07 11:49:03.318680,27647,2025-11-07 11:49:04.625225462
2025-11-07 11:49:03.318680,-1,2025-11-07 11:49:04.632917769
2025-11-07 11:49:03.318680,-132,2025-11-07 11:49:04.640610077
2025-11-07 11:49:03.318680,-29953,2025-11-07 11:49:04.648302385
2025-11-07 11:49:03.318680,-1,2025-11-07 11:49:04.655994692
2025-11-07 11:49:03.318680,-120,2025-11-07 11:49:04.663687000
2025-11-07 11:49:03.318680,-30465,2025-11-07 11:49:04.671379308
2025-11-07 11:49:03.318680,-1,2025-11-07 11:49:04.679071615
2025-11-07 11:49:03.318680,-113,2025-11-07 11:49:04.686763923
2025-11-07 11:49:03.318680,-31745,2025-11-07 11:49:04.694456231
2025-11-07 11:49:03.318680,-1,2025-11-07 11:49:04.702148538
2025-11-07 11:49:03.318680,-140,2025-11-07 11:49:04.709840846
2025-11-07 11:49:03.318680,29439,2025-11-07 11:49:04.717533154
2025-11-07 11:49:03.318680,-1,2025-11-07 11:49:04.725225462
2025-11-07 11:49:03.318680,-149,2025-11-07 11:49:04.732917769
2025-11-07 11:49:03.318680,23807,2025-11-07 11:49:04.740610077
2025-11-07 11:49:03.318680,-1,2025-11-07 11:49:04.748302385
2025-11-07 11:49:03.318680,-169,2025-11-07 11:49:04.755994692
2025-11-07 11:49:03.318680,20223,2025-11-07 11:49:04.763687000
2025-11-07 11:49:03.318680,-1,2025-11-07 11:49:04.771379308
2025-11-07 11:49:03.318680,-193,2025-11-07 11:49:04.779071615
2025-11-07 11:49:03.318680,13311,2025-11-07 11:49:04.786763923
2025-11-07 11:49:03.318680,-1,2025-11-07 11:49:04.794456231
2025-11-07 11:49:03.318680,-227,2025-11-07 11:49:04.802148538
2025-11-07 11:49:03.318680,4607,2025-11-07 11:49:04.809840846
2025-11-07 11:49:03.318680,-1,2025-11-07 11:49:04.817533154
2025-11-07 11:49:03.318680,-248,2025-11-07 11:49:04.825225462
2025-11-07 11:49:03.318680,1535,2025-11-07 11:49:04.832917769
2025-11-07 11:49:03.318680,-1,2025-11-07 11:49:04.840610077
2025-11-07 11:49:03.318680,-239,2025-11-07 11:49:04.848302385
2025-11-07 11:49:03.318680,4607,2025-11-07 11:49:04.855994692
2025-11-07 11:49:03.318680,-1,2025-11-07 11:49:04.863687000
2025-11-07 11:49:03.318680,-253,2025-11-07 11:49:04.871379308
2025-11-07 11:49:03.318680,-4609,2025-11-07 11:49:04.879071615
2025-11-07 11:49:03.318680,-2,2025-11-07 11:49:04.886763923
2025-11-07 11:49:03.318680,-302,2025-11-07 11:49:04.894456231
2025-11-07 11:49:03.318680,-15873,2025-11-07 11:49:04.902148538
2025-11-07 11:49:03.318680,-2,2025-11-07 11:49:04.909840846
2025-11-07 11:49:03.318680,-323,2025-11-07 11:49:04.917533154
2025-11-07 11:49:03.318680,-18177,2025-11-07 11:49:04.925225462
2025-11-07 11:49:03.318680,-2,2025-11-07 11:49:04.932917769
2025-11-07 11:49:03.318680,-340,2025-11-07 11:49:04.940610077
2025-11-07 11:49:03.318680,-24321,2025-11-07 11:49:04.948302385
2025-11-07 11:49:03.318680,-2,2025-11-07 11:49:04.955994692
2025-11-07 11:49:03.318680,-357,2025-11-07 11:49:04.963687000
2025-11-07 11:49:03.318680,-31233,2025-11-07 11:49:04.971379308
2025-11-07 11:49:03.318680,-2,2025-11-07 11:49:04.979071615
2025-11-07 11:49:03.318680,-437,2025-11-07 11:49:04.986763923
2025-11-07 11:49:03.318680,4095,2025-11-07 11:49:04.994456231
2025-11-07 11:49:03.318680,-2,2025-11-07 11:49:05.002148538
2025-11-07 11:49:03.318680,-420,2025-11-07 11:49:05.009840846
2025-11-07 11:49:03.858416,-84,2025-11-07 11:49:05.017533154
2025-11-07 11:49:03.858416,5631,2025-11-07 11:49:05.025225462
2025-11-07 11:49:03.858416,1,2025-11-07 11:49:05.032917769
2025-11-07 11:49:03.858416,261,2025-11-07 11:49:05.040610077
2025-11-07 11:49:03.858416,-27136,2025-11-07 11:49:05.048302385
2025-11-07 11:49:03.858416,-1,2025-11-07 11:49:05.055994692
2025-11-07 11:49:03.858416,-427,2025-11-07 11:49:05.063687000
2025-11-07 11:49:03.858416,3327,2025-11-07 11:49:05.071379308
2025-11-07 11:49:03.858416,-2,2025-11-07 11:49:05.079071615
2025-11-07 11:49:03.858416,-480,2025-11-07 11:49:05.086763923
2025-11-07 11:49:03.858416,2815,2025-11-07 11:49:05.094456231
2025-11-07 11:49:03.858416,-2,2025-11-07 11:49:05.102148538
2025-11-07 11:49:03.858416,-502,2025-11-07 11:49:05.109840846
2025-11-07 11:49:03.858416,6399,2025-11-07 11:49:05.117533154
2025-11-07 11:49:03.858416,-2,2025-11-07 11:49:05.125225462
2025-11-07 11:49:03.858416,-490,2025-11-07 11:49:05.132917769
2025-11-07 11:49:03.858416,5887,2025-11-07 11:49:05.140610077
2025-11-07 11:49:03.858416,-2,2025-11-07 11:49:05.148302385
2025-11-07 11:49:03.858416,-495,2025-11-07 11:49:05.155994692
2025-11-07 11:49:03.858416,5119,2025-11-07 11:49:05.163687000
2025-11-07 11:49:03.858416,-2,2025-11-07 11:49:05.171379308
2025-11-07 11:49:03.858416,-485,2025-11-07 11:49:05.179071615
2025-11-07 11:49:03.858416,8447,2025-11-07 11:49:05.186763923
2025-11-07 11:49:03.858416,-2,2025-11-07 11:49:05.194456230
2025-11-07 11:49:03.858416,-478,2025-11-07 11:49:05.202148538
2025-11-07 11:49:03.858416,9471,2025-11-07 11:49:05.209840846
2025-11-07 11:49:03.858416,-2,2025-11-07 11:49:05.217533154
2025-11-07 11:49:03.858416,-471,2025-11-07 11:49:05.225225462
2025-11-07 11:49:03.858416,12031,2025-11-07 11:49:05.232917769
2025-11-07 11:49:03.858416,-2,2025-11-07 11:49:05.240610077
2025-11-07 11:49:03.858416,-466,2025-11-07 11:49:05.248302385
2025-11-07 11:49:03.858416,13823,2025-11-07 11:49:05.255994692
2025-11-07 11:49:03.858416,-2,2025-11-07 11:49:05.263687000
2025-11-07 11:49:03.858416,-451,2025-11-07 11:49:05.271379308
2025-11-07 11:49:03.858416,16895,2025-11-07 11:49:05.279071615
2025-11-07 11:49:03.858416,-2,2025-11-07 11:49:05.286763923
2025-11-07 11:49:03.858416,-437,2025-11-07 11:49:05.294456231
2025-11-07 11:49:03.858416,22015,2025-11-07 11:49:05.302148538
2025-11-07 11:49:03.858416,-2,2025-11-07 11:49:05.309840846
2025-11-07 11:49:03.858416,-413,2025-11-07 11:49:05.317533154
2025-11-07 11:49:03.858416,31231,2025-11-07 11:49:05.325225462
2025-11-07 11:49:03.858416,-2,2025-11-07 11:49:05.332917769
2025-11-07 11:49:03.858416,-367,2025-11-07 11:49:05.340610077
2025-11-07 11:49:03.858416,-19457,2025-11-07 11:49:05.348302385
2025-11-07 11:49:03.858416,-2,2025-11-07 11:49:05.355994692
2025-11-07 11:49:03.858416,-287,2025-11-07 11:49:05.363687000
2025-11-07 11:49:03.858416,4607,2025-11-07 11:49:05.371379308
2025-11-07 11:49:03.858416,-1,2025-11-07 11:49:05.379071615
2025-11-07 11:49:03.858416,-210,2025-11-07 11:49:05.386763923
2025-11-07 11:49:03.858416,16383,2025-11-07 11:49:05.394456231
2025-11-07 11:49:03.858416,-1,2025-11-07 11:49:05.402148538
2025-11-07 11:49:03.858416,-161,2025-11-07 11:49:05.409840846
2025-11-07 11:49:03.858416,30719,2025-11-07 11:49:05.417533154
2025-11-07 11:49:03.858416,-1,2025-11-07 11:49:05.425225462
2025-11-07 11:49:03.858416,-125,2025-11-07 11:49:05.432917769
2025-11-07 11:49:03.858416,-26113,2025-11-07 11:49:05.440610077
2025-11-07 11:49:03.858416,-1,2025-11-07 11:49:05.448302385
2025-11-07 11:49:03.858416,-72,2025-11-07 11:49:05.455994692
2025-11-07 11:49:03.858416,-9473,2025-11-07 11:49:05.463687000
2025-11-07 11:49:03.858416,-1,2025-11-07 11:49:05.471379308
2025-11-07 11:49:03.858416,-2,2025-11-07 11:49:05.479071615
2025-11-07 11:49:03.858416,9983,2025-11-07 11:49:05.486763923
2025-11-07 11:49:03.858416,0,2025-11-07 11:49:05.494456231
2025-11-07 11:49:03.858416,89,2025-11-07 11:49:05.502148538
2025-11-07 11:49:03.858416,-30464,2025-11-07 11:49:05.509840846
2025-11-07 11:49:03.858416,0,2025-11-07 11:49:05.517533154
2025-11-07 11:49:03.858416,193,2025-11-07 11:49:05.525225462
2025-11-07 11:49:03.858416,2304,2025-11-07 11:49:05.532917769
2025-11-07 11:49:03.858416,1,2025-11-07 11:49:05.540610077
2025-11-07 11:49:03.858416,335,2025-11-07 11:49:05.548302385
2025-11-07 11:49:03.858416,-32768,2025-11-07 11:49:05.555994692
2025-11-07 11:49:03.858416,1,2025-11-07 11:49:05.563687000
2025-11-07 11:49:03.858416,432,2025-11-07 11:49:05.571379308
2025-11-07 11:49:03.858416,-4864,2025-11-07 11:49:05.579071615
2025-11-07 11:49:03.858416,1,2025-11-07 11:49:05.586763923
2025-11-07 11:49:03.858416,543,2025-11-07 11:49:05.594456231
2025-11-07 11:49:03.858416,16128,2025-11-07 11:49:05.602148538
2025-11-07 11:49:03.858416,2,2025-11-07 11:49:05.609840846
2025-11-07 11:49:03.858416,618,2025-11-07 11:49:05.617533154
2025-11-07 11:49:03.858416,-26624,2025-11-07 11:49:05.625225462
2025-11-07 11:49:03.858416,2,2025-11-07 11:49:05.632917769
2025-11-07 11:49:03.858416,688,2025-11-07 11:49:05.640610077
2025-11-07 11:49:03.858416,-15360,2025-11-07 11:49:05.648302385
2025-11-07 11:49:03.858416,2,2025-11-07 11:49:05.655994692
2025-11-07 11:49:03.858416,720,2025-11-07 11:49:05.663687000
2025-11-07 11:49:03.858416,-9216,2025-11-07 11:49:05.671379308
2025-11-07 11:49:03.858416,2,2025-11-07 11:49:05.679071615
2025-11-07 11:49:03.858416,744,2025-11-07 11:49:05.686763923
2025-11-07 11:49:03.858416,-6144,2025-11-07 11:49:05.694456231
2025-11-07 11:49:03.858416,2,2025-11-07 11:49:05.702148538
2025-11-07 11:49:03.858416,739,2025-11-07 11:49:05.709840846
2025-11-07 11:49:03.858416,-7936,2025-11-07 11:49:05.717533154
2025-11-07 11:49:03.858416,2,2025-11-07 11:49:05.725225462
2025-11-07 11:49:03.858416,734,2025-11-07 11:49:05.732917769
2025-11-07 11:49:03.858416,-9216,2025-11-07 11:49:05.740610077
2025-11-07 11:49:03.858416,2,2025-11-07 11:49:05.748302385
2025-11-07 11:49:03.858416,729,2025-11-07 11:49:05.755994692
2025-11-07 11:49:03.858416,-9984,2025-11-07 11:49:05.763687000
2025-11-07 11:49:03.858416,2,2025-11-07 11:49:05.771379308
2025-11-07 11:49:03.858416,722,2025-11-07 11:49:05.779071615
2025-11-07 11:49:03.858416,-16640,2025-11-07 11:49:05.786763923
2025-11-07 11:49:03.858416,2,2025-11-07 11:49:05.794456231
2025-11-07 11:49:03.858416,691,2025-11-07 11:49:05.802148538
2025-11-07 11:49:03.858416,-22272,2025-11-07 11:49:05.809840846
2025-11-07 11:49:03.858416,2,2025-11-07 11:49:05.817533154
2025-11-07 11:49:03.858416,662,2025-11-07 11:49:05.825225462
2025-11-07 11:49:03.858416,-30976,2025-11-07 11:49:05.832917769
2025-11-07 11:49:03.858416,2,2025-11-07 11:49:05.840610077
2025-11-07 11:49:03.858416,638,2025-11-07 11:49:05.848302385
2025-11-07 11:49:04.427046,628,2025-11-07 11:49:05.855994692
2025-11-07 11:49:04.427046,29696,2025-11-07 11:49:05.863687000
2025-11-07 11:49:04.427046,2,2025-11-07 11:49:05.871379308
2025-11-07 11:49:04.427046,640,2025-11-07 11:49:05.879071615
2025-11-07 11:49:04.427046,-32768,2025-11-07 11:49:05.886763923
2025-11-07 11:49:04.427046,2,2025-11-07 11:49:05.894456231
2025-11-07 11:49:04.427046,630,2025-11-07 11:49:05.902148538
2025-11-07 11:49:04.427046,25344,2025-11-07 11:49:05.909840846
2025-11-07 11:49:04.427046,2,2025-11-07 11:49:05.917533154
2025-11-07 11:49:04.427046,575,2025-11-07 11:49:05.925225462
2025-11-07 11:49:04.427046,11776,2025-11-07 11:49:05.932917769
2025-11-07 11:49:04.427046,2,2025-11-07 11:49:05.940610077
2025-11-07 11:49:04.427046,560,2025-11-07 11:49:05.948302385
2025-11-07 11:49:04.427046,8704,2025-11-07 11:49:05.955994692
2025-11-07 11:49:04.427046,2,2025-11-07 11:49:05.963687000
2025-11-07 11:49:04.427046,526,2025-11-07 11:49:05.971379308
2025-11-07 11:49:04.427046,512,2025-11-07 11:49:05.979071615
2025-11-07 11:49:04.427046,2,2025-11-07 11:49:05.986763923
2025-11-07 11:49:04.427046,497,2025-11-07 11:49:05.994456231
2025-11-07 11:49:04.427046,-12288,2025-11-07 11:49:06.002148538
2025-11-07 11:49:04.427046,1,2025-11-07 11:49:06.009840846
2025-11-07 11:49:04.427046,393,2025-11-07 11:49:06.017533154
2025-11-07 11:49:04.427046,28416,2025-11-07 11:49:06.025225462
2025-11-07 11:49:04.427046,1,2025-11-07 11:49:06.032917769
2025-11-07 11:49:04.427046,560,2025-11-07 11:49:06.040610077
2025-11-07 11:49:04.427046,-17152,2025-11-07 11:49:06.048302385
2025-11-07 11:49:04.427046,3,2025-11-07 11:49:06.055994692
2025-11-07 11:49:04.427046,1177,2025-11-07 11:49:06.063687000
2025-11-07 11:49:04.427046,-27136,2025-11-07 11:49:06.071379308
2025-11-07 11:49:04.427046,3,2025-11-07 11:49:06.079071615
2025-11-07 11:49:04.427046,505,2025-11-07 11:49:06.086763923
2025-11-07 11:49:04.427046,25856,2025-11-07 11:49:06.094456231
2025-11-07 11:49:04.427046,1,2025-11-07 11:49:06.102148538
2025-11-07 11:49:04.427046,355,2025-11-07 11:49:06.109840846
2025-11-07 11:49:04.427046,12800,2025-11-07 11:49:06.117533154
2025-11-07 11:49:04.427046,1,2025-11-07 11:49:06.125225462
2025-11-07 11:49:04.427046,277,2025-11-07 11:49:06.132917769
2025-11-07 11:49:04.427046,7936,2025-11-07 11:49:06.140610077
2025-11-07 11:49:04.427046,1,2025-11-07 11:49:06.148302385
2025-11-07 11:49:04.427046,282,2025-11-07 11:49:06.155994692
2025-11-07 11:49:04.427046,4352,2025-11-07 11:49:06.163687000
2025-11-07 11:49:04.427046,1,2025-11-07 11:49:06.171379308
2025-11-07 11:49:04.427046,275,2025-11-07 11:49:06.179071615
2025-11-07 11:49:04.427046,4352,2025-11-07 11:49:06.186763923
2025-11-07 11:49:04.427046,1,2025-11-07 11:49:06.194456230
2025-11-07 11:49:04.427046,261,2025-11-07 11:49:06.202148538
2025-11-07 11:49:04.427046,0,2025-11-07 11:49:06.209840846
2025-11-07 11:49:04.427046,1,2025-11-07 11:49:06.217533154
2025-11-07 11:49:04.427046,248,2025-11-07 11:49:06.225225462
2025-11-07 11:49:04.427046,-5120,2025-11-07 11:49:06.232917769
2025-11-07 11:49:04.427046,0,2025-11-07 11:49:06.240610077
2025-11-07 11:49:04.427046,234,2025-11-07 11:49:06.248302385
2025-11-07 11:49:04.427046,-6144,2025-11-07 11:49:06.255994692
2025-11-07 11:49:04.427046,0,2025-11-07 11:49:06.263687000
2025-11-07 11:49:04.427046,224,2025-11-07 11:49:06.271379308
2025-11-07 11:49:04.427046,-9472,2025-11-07 11:49:06.279071615
2025-11-07 11:49:04.427046,0,2025-11-07 11:49:06.286763923
2025-11-07 11:49:04.427046,217,2025-11-07 11:49:06.294456231
2025-11-07 11:49:04.427046,-9984,2025-11-07 11:49:06.302148538
2025-11-07 11:49:04.427046,0,2025-11-07 11:49:06.309840846
2025-11-07 11:49:04.427046,212,2025-11-07 11:49:06.317533154
2025-11-07 11:49:04.427046,-13056,2025-11-07 11:49:06.325225462
2025-11-07 11:49:04.427046,0,2025-11-07 11:49:06.332917769
2025-11-07 11:49:04.427046,205,2025-11-07 11:49:06.340610077
2025-11-07 11:49:04.427046,-13056,2025-11-07 11:49:06.348302385
2025-11-07 11:49:04.427046,0,2025-11-07 11:49:06.355994692
2025-11-07 11:49:04.427046,207,2025-11-07 11:49:06.363687000
2025-11-07 11:49:04.427046,-11264,2025-11-07 11:49:06.371379308
2025-11-07 11:49:04.427046,0,2025-11-07 11:49:06.379071615
2025-11-07 11:49:04.427046,207,2025-11-07 11:49:06.386763923
2025-11-07 11:49:04.427046,-11264,2025-11-07 11:49:06.394456231
2025-11-07 11:49:04.427046,0,2025-11-07 11:49:06.402148538
2025-11-07 11:49:04.427046,215,2025-11-07 11:49:06.409840846
2025-11-07 11:49:04.427046,-9984,2025-11-07 11:49:06.417533154
2025-11-07 11:49:04.427046,0,2025-11-07 11:49:06.425225462
2025-11-07 11:49:04.427046,224,2025-11-07 11:49:06.432917769
2025-11-07 11:49:04.427046,-10496,2025-11-07 11:49:06.440610077
2025-11-07 11:49:04.427046,0,2025-11-07 11:49:06.448302385
2025-11-07 11:49:04.427046,188,2025-11-07 11:49:06.455994692
2025-11-07 11:49:04.427046,-25344,2025-11-07 11:49:06.463687000
2025-11-07 11:49:04.427046,0,2025-11-07 11:49:06.471379308
2025-11-07 11:49:04.427046,132,2025-11-07 11:49:06.479071615
2025-11-07 11:49:04.427046,32000,2025-11-07 11:49:06.486763923
2025-11-07 11:49:04.427046,0,2025-11-07 11:49:06.494456231
2025-11-07 11:49:04.427046,118,2025-11-07 11:49:06.502148538
2025-11-07 11:49:04.427046,28928,2025-11-07 11:49:06.509840846
2025-11-07 11:49:04.427046,0,2025-11-07 11:49:06.517533154
2025-11-07 11:49:04.427046,118,2025-11-07 11:49:06.525225462
2025-11-07 11:49:04.427046,27648,2025-11-07 11:49:06.532917769
2025-11-07 11:49:04.427046,0,2025-11-07 11:49:06.540610077
2025-11-07 11:49:04.427046,99,2025-11-07 11:49:06.548302385
2025-11-07 11:49:04.427046,25344,2025-11-07 11:49:06.555994692
2025-11-07 11:49:04.427046,0,2025-11-07 11:49:06.563687000
2025-11-07 11:49:04.427046,99,2025-11-07 11:49:06.571379308
2025-11-07 11:49:04.427046,23296,2025-11-07 11:49:06.579071615
2025-11-07 11:49:04.427046,0,2025-11-07 11:49:06.586763923
2025-11-07 11:49:04.427046,87,2025-11-07 11:49:06.594456231
2025-11-07 11:49:04.427046,23296,2025-11-07 11:49:06.602148538
2025-11-07 11:49:04.427046,0,2025-11-07 11:49:06.609840846
2025-11-07 11:49:04.427046,87,2025-11-07 11:49:06.617533154
2025-11-07 11:49:04.427046,19712,2025-11-07 11:49:06.625225462
2025-11-07 11:49:04.427046,0,2025-11-07 11:49:06.632917769
2025-11-07 11:49:04.427046,77,2025-11-07 11:49:06.640610077
2025-11-07 11:49:04.427046,19712,2025-11-07 11:49:06.648302385
2025-11-07 11:49:04.427046,0,2025-11-07 11:49:06.655994692
2025-11-07 11:49:04.427046,79,2025-11-07 11:49:06.663687000
2025-11-07 11:49:04.427046,20992,2025-11-07 11:49:06.671379308
2025-11-07 11:49:04.427046,0,2025-11-07 11:49:06.679071615
2025-11-07 11:49:04.427046,74,2025-11-07 11:49:06.686763923
2025-11-07 11:49:05.022203,74,2025-11-07 11:49:06.694456231
2025-11-07 11:49:05.022203,20224,2025-11-07 11:49:06.702148538
2025-11-07 11:49:05.022203,0,2025-11-07 11:49:06.709840846
2025-11-07 11:49:05.022203,77,2025-11-07 11:49:06.717533154
2025-11-07 11:49:05.022203,19712,2025-11-07 11:49:06.725225462
2025-11-07 11:49:05.022203,0,2025-11-07 11:49:06.732917769
2025-11-07 11:49:05.022203,77,2025-11-07 11:49:06.740610077
2025-11-07 11:49:05.022203,23296,2025-11-07 11:49:06.748302385
2025-11-07 11:49:05.022203,0,2025-11-07 11:49:06.755994692
2025-11-07 11:49:05.022203,103,2025-11-07 11:49:06.763687000
2025-11-07 11:49:05.022203,24576,2025-11-07 11:49:06.771379308
2025-11-07 11:49:05.022203,0,2025-11-07 11:49:06.779071615
2025-11-07 11:49:05.022203,96,2025-11-07 11:49:06.786763923
2025-11-07 11:49:05.022203,27136,2025-11-07 11:49:06.794456231
2025-11-07 11:49:05.022203,0,2025-11-07 11:49:06.802148538
2025-11-07 11:49:05.022203,101,2025-11-07 11:49:06.809840846
2025-11-07 11:49:05.022203,24064,2025-11-07 11:49:06.817533154
2025-11-07 11:49:05.022203,0,2025-11-07 11:49:06.825225462
2025-11-07 11:49:05.022203,99,2025-11-07 11:49:06.832917769
2025-11-07 11:49:05.022203,27648,2025-11-07 11:49:06.840610077
2025-11-07 11:49:05.022203,0,2025-11-07 11:49:06.848302385
2025-11-07 11:49:05.022203,118,2025-11-07 11:49:06.855994692
2025-11-07 11:49:05.022203,-27904,2025-11-07 11:49:06.863687000
2025-11-07 11:49:05.022203,0,2025-11-07 11:49:06.871379308
2025-11-07 11:49:05.022203,159,2025-11-07 11:49:06.879071615
2025-11-07 11:49:05.022203,-29696,2025-11-07 11:49:06.886763923
2025-11-07 11:49:05.022203,0,2025-11-07 11:49:06.894456231
2025-11-07 11:49:05.022203,125,2025-11-07 11:49:06.902148538
2025-11-07 11:49:05.022203,-32256,2025-11-07 11:49:06.909840846
2025-11-07 11:49:05.022203,0,2025-11-07 11:49:06.917533154
2025-11-07 11:49:05.022203,147,2025-11-07 11:49:06.925225462
2025-11-07 11:49:05.022203,-22272,2025-11-07 11:49:06.932917769
2025-11-07 11:49:05.022203,0,2025-11-07 11:49:06.940610077
2025-11-07 11:49:05.022203,154,2025-11-07 11:49:06.948302385
2025-11-07 11:49:05.022203,-31744,2025-11-07 11:49:06.955994692
2025-11-07 11:49:05.022203,0,2025-11-07 11:49:06.963687000
2025-11-07 11:49:05.022203,164,2025-11-07 11:49:06.971379308
2025-11-07 11:49:05.022203,-17920,2025-11-07 11:49:06.979071615
2025-11-07 11:49:05.022203,0,2025-11-07 11:49:06.986763923
2025-11-07 11:49:05.022203,135,2025-11-07 11:49:06.994456231
2025-11-07 11:49:05.022203,16640,2025-11-07 11:49:07.002148538
2025-11-07 11:49:05.022203,0,2025-11-07 11:49:07.009840846
2025-11-07 11:49:05.022203,111,2025-11-07 11:49:07.017533154
2025-11-07 11:49:05.022203,-22272,2025-11-07 11:49:07.025225462
2025-11-07 11:49:05.022203,1,2025-11-07 11:49:07.032917769
2025-11-07 11:49:05.022203,901,2025-11-07 11:49:07.040610077
2025-11-07 11:49:05.022203,9472,2025-11-07 11:49:07.048302385
2025-11-07 11:49:05.022203,4,2025-11-07 11:49:07.055994692
2025-11-07 11:49:05.022203,696,2025-11-07 11:49:07.063687000
2025-11-07 11:49:05.022203,3072,2025-11-07 11:49:07.071379308
2025-11-07 11:49:05.022203,1,2025-11-07 11:49:07.079071615
2025-11-07 11:49:05.022203,166,2025-11-07 11:49:07.086763923
2025-11-07 11:49:05.022203,-16128,2025-11-07 11:49:07.094456231
2025-11-07 11:49:05.022203,0,2025-11-07 11:49:07.102148538
2025-11-07 11:49:05.022203,166,2025-11-07 11:49:07.109840846
2025-11-07 11:49:05.022203,-20992,2025-11-07 11:49:07.117533154
2025-11-07 11:49:05.022203,0,2025-11-07 11:49:07.125225462
2025-11-07 11:49:05.022203,207,2025-11-07 11:49:07.132917769
2025-11-07 11:49:05.022203,-12544,2025-11-07 11:49:07.140610077
2025-11-07 11:49:05.022203,0,2025-11-07 11:49:07.148302385
2025-11-07 11:49:05.022203,215,2025-11-07 11:49:07.155994692
2025-11-07 11:49:05.022203,-3840,2025-11-07 11:49:07.163687000
2025-11-07 11:49:05.022203,0,2025-11-07 11:49:07.171379308
2025-11-07 11:49:05.022203,248,2025-11-07 11:49:07.179071615
2025-11-07 11:49:05.022203,2304,2025-11-07 11:49:07.186763923
2025-11-07 11:49:05.022203,1,2025-11-07 11:49:07.194456230
2025-11-07 11:49:05.022203,297,2025-11-07 11:49:07.202148538
2025-11-07 11:49:05.022203,12288,2025-11-07 11:49:07.209840846
2025-11-07 11:49:05.022203,1,2025-11-07 11:49:07.217533154
2025-11-07 11:49:05.022203,302,2025-11-07 11:49:07.225225462
2025-11-07 11:49:05.022203,14080,2025-11-07 11:49:07.232917769
2025-11-07 11:49:05.022203,1,2025-11-07 11:49:07.240610077
2025-11-07 11:49:05.022203,319,2025-11-07 11:49:07.248302385
2025-11-07 11:49:05.022203,16128,2025-11-07 11:49:07.255994692
2025-11-07 11:49:05.022203,1,2025-11-07 11:49:07.263687000
2025-11-07 11:49:05.022203,316,2025-11-07 11:49:07.271379308
2025-11-07 11:49:05.022203,13568,2025-11-07 11:49:07.279071615
2025-11-07 11:49:05.022203,1,2025-11-07 11:49:07.286763923
2025-11-07 11:49:05.022203,294,2025-11-07 11:49:07.294456231
2025-11-07 11:49:05.022203,9216,2025-11-07 11:49:07.302148538
2025-11-07 11:49:05.022203,1,2025-11-07 11:49:07.309840846
2025-11-07 11:49:05.022203,294,2025-11-07 11:49:07.317533154
2025-11-07 11:49:05.022203,7936,2025-11-07 11:49:07.325225462
2025-11-07 11:49:05.022203,1,2025-11-07 11:49:07.332917769
2025-11-07 11:49:05.022203,282,2025-11-07 11:49:07.340610077
2025-11-07 11:49:05.022203,6144,2025-11-07 11:49:07.348302385
2025-11-07 11:49:05.022203,1,2025-11-07 11:49:07.355994692
2025-11-07 11:49:05.022203,280,2025-11-07 11:49:07.363687000
2025-11-07 11:49:05.022203,7936,2025-11-07 11:49:07.371379308
2025-11-07 11:49:05.022203,1,2025-11-07 11:49:07.379071615
2025-11-07 11:49:05.022203,292,2025-11-07 11:49:07.386763923
2025-11-07 11:49:05.022203,8704,2025-11-07 11:49:07.394456231
2025-11-07 11:49:05.022203,1,2025-11-07 11:49:07.402148538
2025-11-07 11:49:05.022203,292,2025-11-07 11:49:07.409840846
2025-11-07 11:49:05.022203,7936,2025-11-07 11:49:07.417533154
2025-11-07 11:49:05.022203,1,2025-11-07 11:49:07.425225462
2025-11-07 11:49:05.022203,273,2025-11-07 11:49:07.432917769
2025-11-07 11:49:05.022203,-1280,2025-11-07 11:49:07.440610077
2025-11-07 11:49:05.022203,0,2025-11-07 11:49:07.448302385
2025-11-07 11:49:05.022203,232,2025-11-07 11:49:07.455994692
2025-11-07 11:49:05.022203,-9984,2025-11-07 11:49:07.463687000
2025-11-07 11:49:05.022203,0,2025-11-07 11:49:07.471379308
2025-11-07 11:49:05.022203,198,2025-11-07 11:49:07.479071615
2025-11-07 11:49:05.022203,-17408,2025-11-07 11:49:07.486763923
2025-11-07 11:49:05.022203,0,2025-11-07 11:49:07.494456231
2025-11-07 11:49:05.022203,176,2025-11-07 11:49:07.502148538
2025-11-07 11:49:05.022203,-23552,2025-11-07 11:49:07.509840846
2025-11-07 11:49:05.022203,0,2025-11-07 11:49:07.517533154
2025-11-07 11:49:05.022203,161,2025-11-07 11:49:07.525225462
2025-11-07 11:49:05.571305,154,2025-11-07 11:49:07.532917769
2025-11-07 11:49:05.571305,-26624,2025-11-07 11:49:07.540610077
2025-11-07 11:49:05.571305,0,2025-11-07 11:49:07.548302385
2025-11-07 11:49:05.571305,142,2025-11-07 11:49:07.555994692
2025-11-07 11:49:05.571305,-32256,2025-11-07 11:49:07.563687000
2025-11-07 11:49:05.571305,0,2025-11-07 11:49:07.571379308
2025-11-07 11:49:05.571305,128,2025-11-07 11:49:07.579071615
2025-11-07 11:49:05.571305,30208,2025-11-07 11:49:07.586763923
2025-11-07 11:49:05.571305,0,2025-11-07 11:49:07.594456231
2025-11-07 11:49:05.571305,106,2025-11-07 11:49:07.602148538
2025-11-07 11:49:05.571305,26368,2025-11-07 11:49:07.609840846
2025-11-07 11:49:05.571305,0,2025-11-07 11:49:07.617533154
2025-11-07 11:49:05.571305,96,2025-11-07 11:49:07.625225462
2025-11-07 11:49:05.571305,24064,2025-11-07 11:49:07.632917769
2025-11-07 11:49:05.571305,0,2025-11-07 11:49:07.640610077
2025-11-07 11:49:05.571305,96,2025-11-07 11:49:07.648302385
2025-11-07 11:49:05.571305,24576,2025-11-07 11:49:07.655994692
2025-11-07 11:49:05.571305,0,2025-11-07 11:49:07.663687000
2025-11-07 11:49:05.571305,91,2025-11-07 11:49:07.671379308
2025-11-07 11:49:05.571305,20224,2025-11-07 11:49:07.679071615
2025-11-07 11:49:05.571305,0,2025-11-07 11:49:07.686763923
2025-11-07 11:49:05.571305,84,2025-11-07 11:49:07.694456231
2025-11-07 11:49:05.571305,22784,2025-11-07 11:49:07.702148538
2025-11-07 11:49:05.571305,0,2025-11-07 11:49:07.709840846
2025-11-07 11:49:05.571305,77,2025-11-07 11:49:07.717533154
2025-11-07 11:49:05.571305,20224,2025-11-07 11:49:07.725225462
2025-11-07 11:49:05.571305,0,2025-11-07 11:49:07.732917769
2025-11-07 11:49:05.571305,84,2025-11-07 11:49:07.740610077
2025-11-07 11:49:05.571305,23296,2025-11-07 11:49:07.748302385
2025-11-07 11:49:05.571305,0,2025-11-07 11:49:07.755994692
2025-11-07 11:49:05.571305,106,2025-11-07 11:49:07.763687000
2025-11-07 11:49:05.571305,30720,2025-11-07 11:49:07.771379308
2025-11-07 11:49:05.571305,0,2025-11-07 11:49:07.779071615
2025-11-07 11:49:05.571305,140,2025-11-07 11:49:07.786763923
2025-11-07 11:49:05.571305,-23040,2025-11-07 11:49:07.794456231
2025-11-07 11:49:05.571305,0,2025-11-07 11:49:07.802148538
2025-11-07 11:49:05.571305,195,2025-11-07 11:49:07.809840846
2025-11-07 11:49:05.571305,-6912,2025-11-07 11:49:07.817533154
2025-11-07 11:49:05.571305,0,2025-11-07 11:49:07.825225462
2025-11-07 11:49:05.571305,248,2025-11-07 11:49:07.832917769
2025-11-07 11:49:05.571305,2304,2025-11-07 11:49:07.840610077
2025-11-07 11:49:05.571305,1,2025-11-07 11:49:07.848302385
2025-11-07 11:49:05.571305,290,2025-11-07 11:49:07.855994692
2025-11-07 11:49:05.571305,17152,2025-11-07 11:49:07.863687000
2025-11-07 11:49:05.571305,1,2025-11-07 11:49:07.871379308
2025-11-07 11:49:05.571305,372,2025-11-07 11:49:07.879071615
2025-11-07 11:49:05.571305,-25344,2025-11-07 11:49:07.886763923
2025-11-07 11:49:05.571305,1,2025-11-07 11:49:07.894456231
2025-11-07 11:49:05.571305,425,2025-11-07 11:49:07.902148538
2025-11-07 11:49:05.571305,-21760,2025-11-07 11:49:07.909840846
2025-11-07 11:49:05.571305,1,2025-11-07 11:49:07.917533154
2025-11-07 11:49:05.571305,418,2025-11-07 11:49:07.925225462
2025-11-07 11:49:05.571305,-23552,2025-11-07 11:49:07.932917769
2025-11-07 11:49:05.571305,1,2025-11-07 11:49:07.940610077
2025-11-07 11:49:05.571305,430,2025-11-07 11:49:07.948302385
2025-11-07 11:49:05.571305,-19200,2025-11-07 11:49:07.955994692
2025-11-07 11:49:05.571305,1,2025-11-07 11:49:07.963687000
2025-11-07 11:49:05.571305,454,2025-11-07 11:49:07.971379308
2025-11-07 11:49:05.571305,-11264,2025-11-07 11:49:07.979071615
2025-11-07 11:49:05.571305,1,2025-11-07 11:49:07.986763923
2025-11-07 11:49:05.571305,493,2025-11-07 11:49:07.994456231
2025-11-07 11:49:05.571305,2560,2025-11-07 11:49:08.002148538
2025-11-07 11:49:05.571305,2,2025-11-07 11:49:08.009840846
2025-11-07 11:49:05.571305,517,2025-11-07 11:49:08.017533154
2025-11-07 11:49:05.571305,-4352,2025-11-07 11:49:08.025225462
2025-11-07 11:49:05.571305,1,2025-11-07 11:49:08.032917769
2025-11-07 11:49:05.571305,565,2025-11-07 11:49:08.040610077
2025-11-07 11:49:05.571305,-20992,2025-11-07 11:49:08.048302385
2025-11-07 11:49:05.571305,3,2025-11-07 11:49:08.055994692
2025-11-07 11:49:05.571305,1551,2025-11-07 11:49:08.063687000
2025-11-07 11:49:05.571305,19456,2025-11-07 11:49:08.071379308
2025-11-07 11:49:05.571305,7,2025-11-07 11:49:08.079071615
2025-11-07 11:49:05.571305,1665,2025-11-07 11:49:08.086763923
2025-11-07 11:49:05.571305,20480,2025-11-07 11:49:08.094456231
2025-11-07 11:49:05.571305,5,2025-11-07 11:49:08.102148538
2025-11-07 11:49:05.571305,1351,2025-11-07 11:49:08.109840846
2025-11-07 11:49:05.571305,-1792,2025-11-07 11:49:08.117533154
2025-11-07 11:49:05.571305,5,2025-11-07 11:49:08.125225462
2025-11-07 11:49:05.571305,1619,2025-11-07 11:49:08.132917769
2025-11-07 11:49:05.571305,31232,2025-11-07 11:49:08.140610077
2025-11-07 11:49:05.571305,6,2025-11-07 11:49:08.148302385
2025-11-07 11:49:05.571305,1725,2025-11-07 11:49:08.155994692
2025-11-07 11:49:05.571305,-5376,2025-11-07 11:49:08.163687000
2025-11-07 11:49:05.571305,6,2025-11-07 11:49:08.171379308
2025-11-07 11:49:05.571305,1795,2025-11-07 11:49:08.179071615
2025-11-07 11:49:05.571305,5888,2025-11-07 11:49:08.186763923
2025-11-07 11:49:05.571305,7,2025-11-07 11:49:08.194456230
2025-11-07 11:49:05.571305,1819,2025-11-07 11:49:08.202148538
2025-11-07 11:49:05.571305,7680,2025-11-07 11:49:08.209840846
2025-11-07 11:49:05.571305,7,2025-11-07 11:49:08.217533154
2025-11-07 11:49:05.571305,1817,2025-11-07 11:49:08.225225462
2025-11-07 11:49:05.571305,8192,2025-11-07 11:49:08.232917769
2025-11-07 11:49:05.571305,7,2025-11-07 11:49:08.240610077
2025-11-07 11:49:05.571305,1819,2025-11-07 11:49:08.248302385
2025-11-07 11:49:05.571305,3840,2025-11-07 11:49:08.255994692
2025-11-07 11:49:05.571305,7,2025-11-07 11:49:08.263687000
2025-11-07 11:49:05.571305,1822,2025-11-07 11:49:08.271379308
2025-11-07 11:49:05.571305,7680,2025-11-07 11:49:08.279071615
2025-11-07 11:49:05.571305,7,2025-11-07 11:49:08.286763923
2025-11-07 11:49:05.571305,1798,2025-11-07 11:49:08.294456231
2025-11-07 11:49:05.571305,-1536,2025-11-07 11:49:08.302148538
2025-11-07 11:49:05.571305,6,2025-11-07 11:49:08.309840846
2025-11-07 11:49:05.571305,1781,2025-11-07 11:49:08.317533154
2025-11-07 11:49:05.571305,-3584,2025-11-07 11:49:08.325225462
2025-11-07 11:49:05.571305,6,2025-11-07 11:49:08.332917769
2025-11-07 11:49:05.571305,1766,2025-11-07 11:49:08.340610077
2025-11-07 11:49:05.571305,-8960,2025-11-07 11:49:08.348302385
2025-11-07 11:49:05.571305,6,2025-11-07 11:49:08.355994692
2025-11-07 11:49:05.571305,1759,2025-11-07 11:49:08.363687000
2025-11-07 11:49:06.135866,1759,2025-11-07 11:49:08.371379308
2025-11-07 11:49:06.135866,-8448,2025-11-07 11:49:08.379071615
2025-11-07 11:49:06.135866,6,2025-11-07 11:49:08.386763923
2025-11-07 11:49:06.135866,1752,2025-11-07 11:49:08.394456231
2025-11-07 11:49:06.135866,-12032,2025-11-07 11:49:08.402148538
2025-11-07 11:49:06.135866,6,2025-11-07 11:49:08.409840846
2025-11-07 11:49:06.135866,1745,2025-11-07 11:49:08.417533154
2025-11-07 11:49:06.135866,-18432,2025-11-07 11:49:08.425225462
2025-11-07 11:49:06.135866,6,2025-11-07 11:49:08.432917769
2025-11-07 11:49:06.135866,1699,2025-11-07 11:49:08.440610077
2025-11-07 11:49:06.135866,-23296,2025-11-07 11:49:08.448302385
2025-11-07 11:49:06.135866,6,2025-11-07 11:49:08.455994692
2025-11-07 11:49:06.135866,1689,2025-11-07 11:49:08.463687000
2025-11-07 11:49:06.135866,27904,2025-11-07 11:49:08.471379308
2025-11-07 11:49:06.135866,6,2025-11-07 11:49:08.479071615
2025-11-07 11:49:06.135866,1590,2025-11-07 11:49:08.486763923
2025-11-07 11:49:06.135866,8192,2025-11-07 11:49:08.494456231
2025-11-07 11:49:06.135866,6,2025-11-07 11:49:08.502148538
2025-11-07 11:49:06.135866,1561,2025-11-07 11:49:08.509840846
2025-11-07 11:49:06.135866,-2304,2025-11-07 11:49:08.517533154
2025-11-07 11:49:06.135866,5,2025-11-07 11:49:08.525225462
2025-11-07 11:49:06.135866,1503,2025-11-07 11:49:08.532917769
2025-11-07 11:49:06.135866,-12800,2025-11-07 11:49:08.540610077
2025-11-07 11:49:06.135866,5,2025-11-07 11:49:08.548302385
2025-11-07 11:49:06.135866,1457,2025-11-07 11:49:08.555994692
2025-11-07 11:49:06.135866,-25088,2025-11-07 11:49:08.563687000
2025-11-07 11:49:06.135866,5,2025-11-07 11:49:08.571379308
2025-11-07 11:49:06.135866,1418,2025-11-07 11:49:08.579071615
2025-11-07 11:49:06.135866,28672,2025-11-07 11:49:08.586763923
2025-11-07 11:49:06.135866,5,2025-11-07 11:49:08.594456231
2025-11-07 11:49:06.135866,1365,2025-11-07 11:49:08.602148538
2025-11-07 11:49:06.135866,12544,2025-11-07 11:49:08.609840846
2025-11-07 11:49:06.135866,5,2025-11-07 11:49:08.617533154
2025-11-07 11:49:06.135866,1312,2025-11-07 11:49:08.625225462
2025-11-07 11:49:06.135866,3840,2025-11-07 11:49:08.632917769
2025-11-07 11:49:06.135866,5,2025-11-07 11:49:08.640610077
2025-11-07 11:49:06.135866,1261,2025-11-07 11:49:08.648302385
2025-11-07 11:49:06.135866,-12288,2025-11-07 11:49:08.655994692
2025-11-07 11:49:06.135866,4,2025-11-07 11:49:08.663687000
2025-11-07 11:49:06.135866,1208,2025-11-07 11:49:08.671379308
2025-11-07 11:49:06.135866,-22272,2025-11-07 11:49:08.679071615
2025-11-07 11:49:06.135866,4,2025-11-07 11:49:08.686763923
2025-11-07 11:49:06.135866,1169,2025-11-07 11:49:08.694456231
2025-11-07 11:49:06.135866,30464,2025-11-07 11:49:08.702148538
2025-11-07 11:49:06.135866,4,2025-11-07 11:49:08.709840846
2025-11-07 11:49:06.135866,1133,2025-11-07 11:49:08.717533154
2025-11-07 11:49:06.135866,23552,2025-11-07 11:49:08.725225462
2025-11-07 11:49:06.135866,4,2025-11-07 11:49:08.732917769
2025-11-07 11:49:06.135866,1094,2025-11-07 11:49:08.740610077
2025-11-07 11:49:06.135866,13568,2025-11-07 11:49:08.748302385
2025-11-07 11:49:06.135866,4,2025-11-07 11:49:08.755994692
2025-11-07 11:49:06.135866,1063,2025-11-07 11:49:08.763687000
2025-11-07 11:49:06.135866,7424,2025-11-07 11:49:08.771379308
2025-11-07 11:49:06.135866,4,2025-11-07 11:49:08.779071615
2025-11-07 11:49:06.135866,1027,2025-11-07 11:49:08.786763923
2025-11-07 11:49:06.135866,-6656,2025-11-07 11:49:08.794456231
2025-11-07 11:49:06.135866,3,2025-11-07 11:49:08.802148538
2025-11-07 11:49:06.135866,986,2025-11-07 11:49:08.809840846
2025-11-07 11:49:06.135866,-15360,2025-11-07 11:49:08.817533154
2025-11-07 11:49:06.135866,3,2025-11-07 11:49:08.825225462
2025-11-07 11:49:06.135866,942,2025-11-07 11:49:08.832917769
2025-11-07 11:49:06.135866,-25344,2025-11-07 11:49:08.840610077
2025-11-07 11:49:06.135866,3,2025-11-07 11:49:08.848302385
2025-11-07 11:49:06.135866,908,2025-11-07 11:49:08.855994692
2025-11-07 11:49:06.135866,-32768,2025-11-07 11:49:08.863687000
2025-11-07 11:49:06.135866,3,2025-11-07 11:49:08.871379308
2025-11-07 11:49:06.135866,858,2025-11-07 11:49:08.879071615
2025-11-07 11:49:06.135866,14848,2025-11-07 11:49:08.886763923
2025-11-07 11:49:06.135866,3,2025-11-07 11:49:08.894456231
2025-11-07 11:49:06.135866,819,2025-11-07 11:49:08.902148538
2025-11-07 11:49:06.135866,9984,2025-11-07 11:49:08.909840846
2025-11-07 11:49:06.135866,3,2025-11-07 11:49:08.917533154
2025-11-07 11:49:06.135866,804,2025-11-07 11:49:08.925225462
2025-11-07 11:49:06.135866,8704,2025-11-07 11:49:08.932917769
2025-11-07 11:49:06.135866,3,2025-11-07 11:49:08.940610077
2025-11-07 11:49:06.135866,783,2025-11-07 11:49:08.948302385
2025-11-07 11:49:06.135866,-3072,2025-11-07 11:49:08.955994692
2025-11-07 11:49:06.135866,2,2025-11-07 11:49:08.963687000
2025-11-07 11:49:06.135866,720,2025-11-07 11:49:08.971379308
2025-11-07 11:49:06.135866,-19200,2025-11-07 11:49:08.979071615
2025-11-07 11:49:06.135866,2,2025-11-07 11:49:08.986763923
2025-11-07 11:49:06.135866,686,2025-11-07 11:49:08.994456231
2025-11-07 11:49:06.135866,-22784,2025-11-07 11:49:09.002148538
2025-11-07 11:49:06.135866,2,2025-11-07 11:49:09.009840846
2025-11-07 11:49:06.135866,669,2025-11-07 11:49:09.017533154
2025-11-07 11:49:06.135866,-31488,2025-11-07 11:49:09.025225462
2025-11-07 11:49:06.135866,2,2025-11-07 11:49:09.032917769
2025-11-07 11:49:06.135866,628,2025-11-07 11:49:09.040610077
2025-11-07 11:49:06.135866,27904,2025-11-07 11:49:09.048302385
2025-11-07 11:49:06.135866,2,2025-11-07 11:49:09.055994692
2025-11-07 11:49:06.135866,584,2025-11-07 11:49:09.063687000
2025-11-07 11:49:06.135866,512,2025-11-07 11:49:09.071379308
2025-11-07 11:49:06.135866,2,2025-11-07 11:49:09.079071615
2025-11-07 11:49:06.135866,478,2025-11-07 11:49:09.086763923
2025-11-07 11:49:06.135866,-30976,2025-11-07 11:49:09.094456231
2025-11-07 11:49:06.135866,2,2025-11-07 11:49:09.102148538
2025-11-07 11:49:06.135866,1068,2025-11-07 11:49:09.109840846
2025-11-07 11:49:06.135866,18176,2025-11-07 11:49:09.117533154
2025-11-07 11:49:06.135866,5,2025-11-07 11:49:09.125225462
2025-11-07 11:49:06.135866,1140,2025-11-07 11:49:09.132917769
2025-11-07 11:49:06.135866,-24064,2025-11-07 11:49:09.140610077
2025-11-07 11:49:06.135866,2,2025-11-07 11:49:09.148302385
2025-11-07 11:49:06.135866,420,2025-11-07 11:49:09.155994692
2025-11-07 11:49:06.135866,-24064,2025-11-07 11:49:09.163687000
2025-11-07 11:49:06.135866,1,2025-11-07 11:49:09.171379308
2025-11-07 11:49:06.135866,401,2025-11-07 11:49:09.179071615
2025-11-07 11:49:06.135866,26624,2025-11-07 11:49:09.186763923
2025-11-07 11:49:06.135866,1,2025-11-07 11:49:09.194456230
2025-11-07 11:49:06.135866,367,2025-11-07 11:49:09.202148538
2025-11-07 11:49:06.669530,364,2025-11-07 11:49:09.209840846
2025-11-07 11:49:06.669530,24576,2025-11-07 11:49:09.217533154
2025-11-07 11:49:06.669530,1,2025-11-07 11:49:09.225225462
2025-11-07 11:49:06.669530,350,2025-11-07 11:49:09.232917769
2025-11-07 11:49:06.669530,21504,2025-11-07 11:49:09.240610077
2025-11-07 11:49:06.669530,1,2025-11-07 11:49:09.248302385
2025-11-07 11:49:06.669530,340,2025-11-07 11:49:09.255994692
2025-11-07 11:49:06.669530,20224,2025-11-07 11:49:09.263687000
2025-11-07 11:49:06.669530,1,2025-11-07 11:49:09.271379308
2025-11-07 11:49:06.669530,321,2025-11-07 11:49:09.279071615
2025-11-07 11:49:06.669530,14848,2025-11-07 11:49:09.286763923
2025-11-07 11:49:06.669530,1,2025-11-07 11:49:09.294456231
2025-11-07 11:49:06.669530,306,2025-11-07 11:49:09.302148538
2025-11-07 11:49:06.669530,14080,2025-11-07 11:49:09.309840846
2025-11-07 11:49:06.669530,1,2025-11-07 11:49:09.317533154
2025-11-07 11:49:06.669530,304,2025-11-07 11:49:09.325225462
2025-11-07 11:49:06.669530,6656,2025-11-07 11:49:09.332917769
2025-11-07 11:49:06.669530,1,2025-11-07 11:49:09.340610077
2025-11-07 11:49:06.669530,273,2025-11-07 11:49:09.348302385
2025-11-07 11:49:06.669530,1792,2025-11-07 11:49:09.355994692
2025-11-07 11:49:06.669530,1,2025-11-07 11:49:09.363687000
2025-11-07 11:49:06.669530,261,2025-11-07 11:49:09.371379308
2025-11-07 11:49:06.669530,0,2025-11-07 11:49:09.379071615
2025-11-07 11:49:06.669530,1,2025-11-07 11:49:09.386763923
2025-11-07 11:49:06.669530,244,2025-11-07 11:49:09.394456231
2025-11-07 11:49:06.669530,-3072,2025-11-07 11:49:09.402148538
2025-11-07 11:49:06.669530,0,2025-11-07 11:49:09.409840846
2025-11-07 11:49:06.669530,236,2025-11-07 11:49:09.417533154
2025-11-07 11:49:06.669530,-6912,2025-11-07 11:49:09.425225462
2025-11-07 11:49:06.669530,0,2025-11-07 11:49:09.432917769
2025-11-07 11:49:06.669530,232,2025-11-07 11:49:09.440610077
2025-11-07 11:49:06.669530,-9472,2025-11-07 11:49:09.448302385
2025-11-07 11:49:06.669530,0,2025-11-07 11:49:09.455994692
2025-11-07 11:49:06.669530,210,2025-11-07 11:49:09.463687000
2025-11-07 11:49:06.669530,-13056,2025-11-07 11:49:09.471379308
2025-11-07 11:49:06.669530,0,2025-11-07 11:49:09.479071615
2025-11-07 11:49:06.669530,200,2025-11-07 11:49:09.486763923
2025-11-07 11:49:06.669530,-17920,2025-11-07 11:49:09.494456231
2025-11-07 11:49:06.669530,0,2025-11-07 11:49:09.502148538
2025-11-07 11:49:06.669530,157,2025-11-07 11:49:09.509840846
2025-11-07 11:49:06.669530,-30464,2025-11-07 11:49:09.517533154
2025-11-07 11:49:06.669530,0,2025-11-07 11:49:09.525225462
2025-11-07 11:49:06.669530,116,2025-11-07 11:49:09.532917769
2025-11-07 11:49:06.669530,20992,2025-11-07 11:49:09.540610077
2025-11-07 11:49:06.669530,0,2025-11-07 11:49:09.548302385
2025-11-07 11:49:06.669530,60,2025-11-07 11:49:09.555994692
2025-11-07 11:49:06.669530,9216,2025-11-07 11:49:09.563687000
2025-11-07 11:49:06.669530,0,2025-11-07 11:49:09.571379308
2025-11-07 11:49:06.669530,16,2025-11-07 11:49:09.579071615
2025-11-07 11:49:06.669530,2304,2025-11-07 11:49:09.586763923
2025-11-07 11:49:06.669530,0,2025-11-07 11:49:09.594456231
2025-11-07 11:49:06.669530,-4,2025-11-07 11:49:09.602148538
2025-11-07 11:49:06.669530,-3329,2025-11-07 11:49:09.609840846
2025-11-07 11:49:06.669530,-1,2025-11-07 11:49:09.617533154
2025-11-07 11:49:06.669530,-29,2025-11-07 11:49:09.625225462
2025-11-07 11:49:06.669530,-12545,2025-11-07 11:49:09.632917769
2025-11-07 11:49:06.669530,-1,2025-11-07 11:49:09.640610077
2025-11-07 11:49:06.669530,-67,2025-11-07 11:49:09.648302385
2025-11-07 11:49:06.669530,-23041,2025-11-07 11:49:09.655994692
2025-11-07 11:49:06.669530,-1,2025-11-07 11:49:09.663687000
2025-11-07 11:49:06.669530,-103,2025-11-07 11:49:09.671379308
2025-11-07 11:49:06.669530,-28673,2025-11-07 11:49:09.679071615
2025-11-07 11:49:06.669530,-1,2025-11-07 11:49:09.686763923
2025-11-07 11:49:06.669530,-132,2025-11-07 11:49:09.694456231
2025-11-07 11:49:06.669530,28671,2025-11-07 11:49:09.702148538
2025-11-07 11:49:06.669530,-1,2025-11-07 11:49:09.709840846
2025-11-07 11:49:06.669530,-166,2025-11-07 11:49:09.717533154
2025-11-07 11:49:06.669530,18175,2025-11-07 11:49:09.725225462
2025-11-07 11:49:06.669530,-1,2025-11-07 11:49:09.732917769
2025-11-07 11:49:06.669530,-198,2025-11-07 11:49:09.740610077
2025-11-07 11:49:06.669530,10751,2025-11-07 11:49:09.748302385
2025-11-07 11:49:06.669530,-1,2025-11-07 11:49:09.755994692
2025-11-07 11:49:06.669530,-222,2025-11-07 11:49:09.763687000
2025-11-07 11:49:06.669530,4607,2025-11-07 11:49:09.771379308
2025-11-07 11:49:06.669530,-1,2025-11-07 11:49:09.779071615
2025-11-07 11:49:06.669530,-258,2025-11-07 11:49:09.786763923
2025-11-07 11:49:06.669530,-2817,2025-11-07 11:49:09.794456231
2025-11-07 11:49:06.669530,-2,2025-11-07 11:49:09.802148538
2025-11-07 11:49:06.669530,-285,2025-11-07 11:49:09.809840846
2025-11-07 11:49:06.669530,-10241,2025-11-07 11:49:09.817533154
2025-11-07 11:49:06.669530,-2,2025-11-07 11:49:09.825225462
2025-11-07 11:49:06.669530,-306,2025-11-07 11:49:09.832917769
2025-11-07 11:49:06.669530,-15873,2025-11-07 11:49:09.840610077
2025-11-07 11:49:06.669530,-2,2025-11-07 11:49:09.848302385
2025-11-07 11:49:06.669530,-323,2025-11-07 11:49:09.855994692
2025-11-07 11:49:06.669530,-20737,2025-11-07 11:49:09.863687000
2025-11-07 11:49:06.669530,-2,2025-11-07 11:49:09.871379308
2025-11-07 11:49:06.669530,-350,2025-11-07 11:49:09.879071615
2025-11-07 11:49:06.669530,-23297,2025-11-07 11:49:09.886763923
2025-11-07 11:49:06.669530,-2,2025-11-07 11:49:09.894456231
2025-11-07 11:49:06.669530,-357,2025-11-07 11:49:09.902148538
2025-11-07 11:49:06.669530,-26881,2025-11-07 11:49:09.909840846
2025-11-07 11:49:06.669530,-2,2025-11-07 11:49:09.917533154
2025-11-07 11:49:06.669530,-369,2025-11-07 11:49:09.925225462
2025-11-07 11:49:06.669530,-31745,2025-11-07 11:49:09.932917769
2025-11-07 11:49:06.669530,-2,2025-11-07 11:49:09.940610077
2025-11-07 11:49:06.669530,-379,2025-11-07 11:49:09.948302385
2025-11-07 11:49:06.669530,32511,2025-11-07 11:49:09.955994692
2025-11-07 11:49:06.669530,-2,2025-11-07 11:49:09.963687000
2025-11-07 11:49:06.669530,-379,2025-11-07 11:49:09.971379308
2025-11-07 11:49:06.669530,-24321,2025-11-07 11:49:09.979071615
2025-11-07 11:49:06.669530,-2,2025-11-07 11:49:09.986763923
2025-11-07 11:49:06.669530,-350,2025-11-07 11:49:09.994456231
2025-11-07 11:49:06.669530,-26369,2025-11-07 11:49:10.002148538
2025-11-07 11:49:06.669530,-2,2025-11-07 11:49:10.009840846
2025-11-07 11:49:06.669530,-369,2025-11-07 11:49:10.017533154
2025-11-07 11:49:06.669530,-31233,2025-11-07 11:49:10.025225462
2025-11-07 11:49:06.669530,-2,2025-11-07 11:49:10.032917769
2025-11-07 11:49:06.669530,-381,2025-11-07 11:49:10.040610077
2025-11-07 11:49:07.265748,-379,2025-11-07 11:49:10.048302385
2025-11-07 11:49:07.265748,-28673,2025-11-07 11:49:10.055994692
2025-11-07 11:49:07.265748,-2,2025-11-07 11:49:10.063687000
2025-11-07 11:49:07.265748,-369,2025-11-07 11:49:10.071379308
2025-11-07 11:49:07.265748,-28673,2025-11-07 11:49:10.079071615
2025-11-07 11:49:07.265748,-2,2025-11-07 11:49:10.086763923
2025-11-07 11:49:07.265748,-364,2025-11-07 11:49:10.094456231
2025-11-07 11:49:07.265748,-31233,2025-11-07 11:49:10.102148538
2025-11-07 11:49:07.265748,-2,2025-11-07 11:49:10.109840846
2025-11-07 11:49:07.265748,-413,2025-11-07 11:49:10.117533154
2025-11-07 11:49:07.265748,17663,2025-11-07 11:49:10.125225462
2025-11-07 11:49:07.265748,-2,2025-11-07 11:49:10.132917769
2025-11-07 11:49:07.265748,-348,2025-11-07 11:49:10.140610077
2025-11-07 11:49:07.265748,767,2025-11-07 11:49:10.148302385
2025-11-07 11:49:07.265748,0,2025-11-07 11:49:10.155994692
2025-11-07 11:49:07.265748,357,2025-11-07 11:49:10.163687000
2025-11-07 11:49:07.265748,7424,2025-11-07 11:49:10.171379308
2025-11-07 11:49:07.265748,1,2025-11-07 11:49:10.179071615
2025-11-07 11:49:07.265748,-123,2025-11-07 11:49:10.186763923
2025-11-07 11:49:07.265748,30719,2025-11-07 11:49:10.194456230
2025-11-07 11:49:07.265748,-2,2025-11-07 11:49:10.202148538
2025-11-07 11:49:07.265748,-408,2025-11-07 11:49:10.209840846
2025-11-07 11:49:07.265748,25087,2025-11-07 11:49:10.217533154
2025-11-07 11:49:07.265748,-2,2025-11-07 11:49:10.225225462
2025-11-07 11:49:07.265748,-456,2025-11-07 11:49:10.232917769
2025-11-07 11:49:07.265748,18175,2025-11-07 11:49:10.240610077
2025-11-07 11:49:07.265748,-2,2025-11-07 11:49:10.248302385
2025-11-07 11:49:07.265748,-420,2025-11-07 11:49:10.255994692
2025-11-07 11:49:07.265748,23807,2025-11-07 11:49:10.263687000
2025-11-07 11:49:07.265748,-2,2025-11-07 11:49:10.271379308
2025-11-07 11:49:07.265748,-408,2025-11-07 11:49:10.279071615
2025-11-07 11:49:07.265748,29951,2025-11-07 11:49:10.286763923
2025-11-07 11:49:07.265748,-2,2025-11-07 11:49:10.294456231
2025-11-07 11:49:07.265748,-389,2025-11-07 11:49:10.302148538
2025-11-07 11:49:07.265748,31743,2025-11-07 11:49:10.309840846
2025-11-07 11:49:07.265748,-2,2025-11-07 11:49:10.317533154
2025-11-07 11:49:07.265748,-384,2025-11-07 11:49:10.325225462
2025-11-07 11:49:07.265748,-30721,2025-11-07 11:49:10.332917769
2025-11-07 11:49:07.265748,-2,2025-11-07 11:49:10.340610077
2025-11-07 11:49:07.265748,-377,2025-11-07 11:49:10.348302385
2025-11-07 11:49:07.265748,-28161,2025-11-07 11:49:10.355994692
2025-11-07 11:49:07.265748,-2,2025-11-07 11:49:10.363687000
2025-11-07 11:49:07.265748,-355,2025-11-07 11:49:10.371379308
2025-11-07 11:49:07.265748,-25089,2025-11-07 11:49:10.379071615
2025-11-07 11:49:07.265748,-2,2025-11-07 11:49:10.386763923
2025-11-07 11:49:07.265748,-348,2025-11-07 11:49:10.394456231
2025-11-07 11:49:07.265748,-21249,2025-11-07 11:49:10.402148538
2025-11-07 11:49:07.265748,-2,2025-11-07 11:49:10.409840846
2025-11-07 11:49:07.265748,-331,2025-11-07 11:49:10.417533154
2025-11-07 11:49:07.265748,-15873,2025-11-07 11:49:10.425225462
2025-11-07 11:49:07.265748,-2,2025-11-07 11:49:10.432917769
2025-11-07 11:49:07.265748,-314,2025-11-07 11:49:10.440610077
2025-11-07 11:49:07.265748,-10753,2025-11-07 11:49:10.448302385
2025-11-07 11:49:07.265748,-2,2025-11-07 11:49:10.455994692
2025-11-07 11:49:07.265748,-287,2025-11-07 11:49:10.463687000
2025-11-07 11:49:07.265748,-5121,2025-11-07 11:49:10.471379308
2025-11-07 11:49:07.265748,-2,2025-11-07 11:49:10.479071615
2025-11-07 11:49:07.265748,-251,2025-11-07 11:49:10.486763923
2025-11-07 11:49:07.265748,5375,2025-11-07 11:49:10.494456231
2025-11-07 11:49:07.265748,-1,2025-11-07 11:49:10.502148538
2025-11-07 11:49:07.265748,-219,2025-11-07 11:49:10.509840846
2025-11-07 11:49:07.265748,14591,2025-11-07 11:49:10.517533154
2025-11-07 11:49:07.265748,-1,2025-11-07 11:49:10.525225462
2025-11-07 11:49:07.265748,-188,2025-11-07 11:49:10.532917769
2025-11-07 11:49:07.265748,18175,2025-11-07 11:49:10.540610077
2025-11-07 11:49:07.265748,-1,2025-11-07 11:49:10.548302385
2025-11-07 11:49:07.265748,-190,2025-11-07 11:49:10.555994692
2025-11-07 11:49:07.265748,16383,2025-11-07 11:49:10.563687000
2025-11-07 11:49:07.265748,-1,2025-11-07 11:49:10.571379308
2025-11-07 11:49:07.265748,-195,2025-11-07 11:49:10.579071615
2025-11-07 11:49:07.265748,13823,2025-11-07 11:49:10.586763923
2025-11-07 11:49:07.265748,-1,2025-11-07 11:49:10.594456231
2025-11-07 11:49:07.265748,-193,2025-11-07 11:49:10.602148538
2025-11-07 11:49:07.265748,17663,2025-11-07 11:49:10.609840846
2025-11-07 11:49:07.265748,-1,2025-11-07 11:49:10.617533154
2025-11-07 11:49:07.265748,-186,2025-11-07 11:49:10.625225462
2025-11-07 11:49:07.265748,21247,2025-11-07 11:49:10.632917769
2025-11-07 11:49:07.265748,-1,2025-11-07 11:49:10.640610077
2025-11-07 11:49:07.265748,-174,2025-11-07 11:49:10.648302385
2025-11-07 11:49:07.265748,23807,2025-11-07 11:49:10.655994692
2025-11-07 11:49:07.265748,-1,2025-11-07 11:49:10.663687000
2025-11-07 11:49:07.265748,-157,2025-11-07 11:49:10.671379308
2025-11-07 11:49:07.265748,25599,2025-11-07 11:49:10.679071615
2025-11-07 11:49:07.265748,-1,2025-11-07 11:49:10.686763923
2025-11-07 11:49:07.265748,-145,2025-11-07 11:49:10.694456231
2025-11-07 11:49:07.265748,29951,2025-11-07 11:49:10.702148538
2025-11-07 11:49:07.265748,-1,2025-11-07 11:49:10.709840846
2025-11-07 11:49:07.265748,-135,2025-11-07 11:49:10.717533154
2025-11-07 11:49:07.265748,32511,2025-11-07 11:49:10.725225462
2025-11-07 11:49:07.265748,-1,2025-11-07 11:49:10.732917769
2025-11-07 11:49:07.265748,-132,2025-11-07 11:49:10.740610077
2025-11-07 11:49:07.265748,-31233,2025-11-07 11:49:10.748302385
2025-11-07 11:49:07.265748,-1,2025-11-07 11:49:10.755994692
2025-11-07 11:49:07.265748,-123,2025-11-07 11:49:10.763687000
2025-11-07 11:49:07.265748,-31745,2025-11-07 11:49:10.771379308
2025-11-07 11:49:07.265748,-1,2025-11-07 11:49:10.779071615
2025-11-07 11:49:07.265748,-120,2025-11-07 11:49:10.786763923
2025-11-07 11:49:07.265748,-29953,2025-11-07 11:49:10.794456231
2025-11-07 11:49:07.265748,-1,2025-11-07 11:49:10.802148538
2025-11-07 11:49:07.265748,-116,2025-11-07 11:49:10.809840846
2025-11-07 11:49:07.265748,-28673,2025-11-07 11:49:10.817533154
2025-11-07 11:49:07.265748,-1,2025-11-07 11:49:10.825225462
2025-11-07 11:49:07.265748,-113,2025-11-07 11:49:10.832917769
2025-11-07 11:49:07.265748,-26113,2025-11-07 11:49:10.840610077
2025-11-07 11:49:07.265748,-1,2025-11-07 11:49:10.848302385
2025-11-07 11:49:07.265748,-103,2025-11-07 11:49:10.855994692
2025-11-07 11:49:07.265748,-25601,2025-11-07 11:49:10.863687000
2025-11-07 11:49:07.265748,-1,2025-11-07 11:49:10.871379308
2025-11-07 11:49:07.265748,-94,2025-11-07 11:49:10.879071615
2025-11-07 11:49:07.783484,-94,2025-11-07 11:49:10.886763923
2025-11-07 11:49:07.783484,-23809,2025-11-07 11:49:10.894456231
2025-11-07 11:49:07.783484,-1,2025-11-07 11:49:10.902148538
2025-11-07 11:49:07.783484,-96,2025-11-07 11:49:10.909840846
2025-11-07 11:49:07.783484,-24321,2025-11-07 11:49:10.917533154
2025-11-07 11:49:07.783484,-1,2025-11-07 11:49:10.925225462
2025-11-07 11:49:07.783484,-89,2025-11-07 11:49:10.932917769
2025-11-07 11:49:07.783484,-24321,2025-11-07 11:49:10.940610077
2025-11-07 11:49:07.783484,-1,2025-11-07 11:49:10.948302385
2025-11-07 11:49:07.783484,-96,2025-11-07 11:49:10.955994692
2025-11-07 11:49:07.783484,-22529,2025-11-07 11:49:10.963687000
2025-11-07 11:49:07.783484,-1,2025-11-07 11:49:10.971379308
2025-11-07 11:49:07.783484,-91,2025-11-07 11:49:10.979071615
2025-11-07 11:49:07.783484,-23041,2025-11-07 11:49:10.986763923
2025-11-07 11:49:07.783484,-1,2025-11-07 11:49:10.994456231
2025-11-07 11:49:07.783484,-101,2025-11-07 11:49:11.002148538
2025-11-07 11:49:07.783484,-22529,2025-11-07 11:49:11.009840846
2025-11-07 11:49:07.783484,-1,2025-11-07 11:49:11.017533154
2025-11-07 11:49:07.783484,-72,2025-11-07 11:49:11.025225462
2025-11-07 11:49:07.783484,-18689,2025-11-07 11:49:11.032917769
2025-11-07 11:49:07.783484,-1,2025-11-07 11:49:11.040610077
2025-11-07 11:49:07.783484,-50,2025-11-07 11:49:11.048302385
2025-11-07 11:49:07.783484,-9473,2025-11-07 11:49:11.055994692
2025-11-07 11:49:07.783484,-1,2025-11-07 11:49:11.063687000
2025-11-07 11:49:07.783484,-58,2025-11-07 11:49:11.071379308
2025-11-07 11:49:07.783484,-16897,2025-11-07 11:49:11.079071615
2025-11-07 11:49:07.783484,-1,2025-11-07 11:49:11.086763923
2025-11-07 11:49:07.783484,-74,2025-11-07 11:49:11.094456231
2025-11-07 11:49:07.783484,-18689,2025-11-07 11:49:11.102148538
2025-11-07 11:49:07.783484,-1,2025-11-07 11:49:11.109840846
2025-11-07 11:49:07.783484,-70,2025-11-07 11:49:11.117533154
2025-11-07 11:49:07.783484,-18177,2025-11-07 11:49:11.125225462
2025-11-07 11:49:07.783484,-1,2025-11-07 11:49:11.132917769
2025-11-07 11:49:07.783484,-67,2025-11-07 11:49:11.140610077
2025-11-07 11:49:07.783484,-16897,2025-11-07 11:49:11.148302385
2025-11-07 11:49:07.783484,-1,2025-11-07 11:49:11.155994692
2025-11-07 11:49:07.783484,-70,2025-11-07 11:49:11.163687000
2025-11-07 11:49:07.783484,-18177,2025-11-07 11:49:11.171379308
2025-11-07 11:49:07.783484,-1,2025-11-07 11:49:11.179071615
2025-11-07 11:49:07.783484,-113,2025-11-07 11:49:11.186763923
2025-11-07 11:49:07.783484,21247,2025-11-07 11:49:11.194456230
2025-11-07 11:49:07.783484,-1,2025-11-07 11:49:11.202148538
2025-11-07 11:49:07.783484,-128,2025-11-07 11:49:11.209840846
2025-11-07 11:49:07.783484,-16641,2025-11-07 11:49:11.217533154
2025-11-07 11:49:07.783484,0,2025-11-07 11:49:11.225225462
2025-11-07 11:49:07.783484,655,2025-11-07 11:49:11.232917769
2025-11-07 11:49:07.783484,-4352,2025-11-07 11:49:11.240610077
2025-11-07 11:49:07.783484,2,2025-11-07 11:49:11.248302385
2025-11-07 11:49:07.783484,355,2025-11-07 11:49:11.255994692
2025-11-07 11:49:07.783484,-14848,2025-11-07 11:49:11.263687000
2025-11-07 11:49:07.783484,-1,2025-11-07 11:49:11.271379308
2025-11-07 11:49:07.783484,-157,2025-11-07 11:49:11.279071615
2025-11-07 11:49:07.783484,31999,2025-11-07 11:49:11.286763923
2025-11-07 11:49:07.783484,-1,2025-11-07 11:49:11.294456231
2025-11-07 11:49:07.783484,-164,2025-11-07 11:49:11.302148538
2025-11-07 11:49:07.783484,23295,2025-11-07 11:49:11.309840846
2025-11-07 11:49:07.783484,-1,2025-11-07 11:49:11.317533154
2025-11-07 11:49:07.783484,-137,2025-11-07 11:49:11.325225462
2025-11-07 11:49:07.783484,29439,2025-11-07 11:49:11.332917769
2025-11-07 11:49:07.783484,-1,2025-11-07 11:49:11.340610077
2025-11-07 11:49:07.783484,-137,2025-11-07 11:49:11.348302385
2025-11-07 11:49:07.783484,-31745,2025-11-07 11:49:11.355994692
2025-11-07 11:49:07.783484,-1,2025-11-07 11:49:11.363687000
2025-11-07 11:49:07.783484,-128,2025-11-07 11:49:11.371379308
2025-11-07 11:49:07.783484,-31233,2025-11-07 11:49:11.379071615
2025-11-07 11:49:07.783484,-1,2025-11-07 11:49:11.386763923
2025-11-07 11:49:07.783484,-120,2025-11-07 11:49:11.394456231
2025-11-07 11:49:07.783484,-29441,2025-11-07 11:49:11.402148538
2025-11-07 11:49:07.783484,-1,2025-11-07 11:49:11.409840846
2025-11-07 11:49:07.783484,-113,2025-11-07 11:49:11.417533154
2025-11-07 11:49:07.783484,-28673,2025-11-07 11:49:11.425225462
2025-11-07 11:49:07.783484,-1,2025-11-07 11:49:11.432917769
2025-11-07 11:49:07.783484,-103,2025-11-07 11:49:11.440610077
2025-11-07 11:49:07.783484,-25601,2025-11-07 11:49:11.448302385
2025-11-07 11:49:07.783484,-1,2025-11-07 11:49:11.455994692
2025-11-07 11:49:07.783484,-99,2025-11-07 11:49:11.463687000
2025-11-07 11:49:07.783484,-23041,2025-11-07 11:49:11.471379308
2025-11-07 11:49:07.783484,-1,2025-11-07 11:49:11.479071615
2025-11-07 11:49:07.783484,-96,2025-11-07 11:49:11.486763923
2025-11-07 11:49:07.783484,-23809,2025-11-07 11:49:11.494456231
2025-11-07 11:49:07.783484,-1,2025-11-07 11:49:11.502148538
2025-11-07 11:49:07.783484,-89,2025-11-07 11:49:11.509840846
2025-11-07 11:49:07.783484,-22529,2025-11-07 11:49:11.517533154
2025-11-07 11:49:07.783484,-1,2025-11-07 11:49:11.525225462
2025-11-07 11:49:07.783484,-82,2025-11-07 11:49:11.532917769
2025-11-07 11:49:07.783484,-20737,2025-11-07 11:49:11.540610077
2025-11-07 11:49:07.783484,-1,2025-11-07 11:49:11.548302385
2025-11-07 11:49:07.783484,-72,2025-11-07 11:49:11.555994692
2025-11-07 11:49:07.783484,-16385,2025-11-07 11:49:11.563687000
2025-11-07 11:49:07.783484,-1,2025-11-07 11:49:11.571379308
2025-11-07 11:49:07.783484,-65,2025-11-07 11:49:11.579071615
2025-11-07 11:49:07.783484,-13313,2025-11-07 11:49:11.586763923
2025-11-07 11:49:07.783484,-1,2025-11-07 11:49:11.594456231
2025-11-07 11:49:07.783484,-48,2025-11-07 11:49:11.602148538
2025-11-07 11:49:07.783484,-11265,2025-11-07 11:49:11.609840846
2025-11-07 11:49:07.783484,-1,2025-11-07 11:49:11.617533154
2025-11-07 11:49:07.783484,-41,2025-11-07 11:49:11.625225462
2025-11-07 11:49:07.783484,-13313,2025-11-07 11:49:11.632917769
2025-11-07 11:49:07.783484,-1,2025-11-07 11:49:11.640610077
2025-11-07 11:49:07.783484,-58,2025-11-07 11:49:11.648302385
2025-11-07 11:49:07.783484,-16897,2025-11-07 11:49:11.655994692
2025-11-07 11:49:07.783484,-1,2025-11-07 11:49:11.663687000
2025-11-07 11:49:07.783484,-79,2025-11-07 11:49:11.671379308
2025-11-07 11:49:07.783484,-19969,2025-11-07 11:49:11.679071615
2025-11-07 11:49:07.783484,-1,2025-11-07 11:49:11.686763923
2025-11-07 11:49:07.783484,-84,2025-11-07 11:49:11.694456231
2025-11-07 11:49:07.783484,-20737,2025-11-07 11:49:11.702148538
2025-11-07 11:49:07.783484,-1,2025-11-07 11:49:11.709840846
2025-11-07 11:49:07.783484,-79,2025-11-07 11:49:11.717533154
2025-11-07 11:49:08.380532,-87,2025-11-07 11:49:11.725225462
2025-11-07 11:49:08.380532,-20737,2025-11-07 11:49:11.732917769
2025-11-07 11:49:08.380532,-1,2025-11-07 11:49:11.740610077
2025-11-07 11:49:08.380532,-84,2025-11-07 11:49:11.748302385
2025-11-07 11:49:08.380532,-22017,2025-11-07 11:49:11.755994692
2025-11-07 11:49:08.380532,-1,2025-11-07 11:49:11.763687000
2025-11-07 11:49:08.380532,-79,2025-11-07 11:49:11.771379308
2025-11-07 11:49:08.380532,-17665,2025-11-07 11:49:11.779071615
2025-11-07 11:49:08.380532,-1,2025-11-07 11:49:11.786763923
2025-11-07 11:49:08.380532,-58,2025-11-07 11:49:11.794456231
2025-11-07 11:49:08.380532,-17665,2025-11-07 11:49:11.802148538
2025-11-07 11:49:08.380532,-1,2025-11-07 11:49:11.809840846
2025-11-07 11:49:08.380532,-84,2025-11-07 11:49:11.817533154
2025-11-07 11:49:08.380532,-19969,2025-11-07 11:49:11.825225462
2025-11-07 11:49:08.380532,-1,2025-11-07 11:49:11.832917769
2025-11-07 11:49:08.380532,-84,2025-11-07 11:49:11.840610077
2025-11-07 11:49:08.380532,-22529,2025-11-07 11:49:11.848302385
2025-11-07 11:49:08.380532,-1,2025-11-07 11:49:11.855994692
2025-11-07 11:49:08.380532,-84,2025-11-07 11:49:11.863687000
2025-11-07 11:49:08.380532,-21249,2025-11-07 11:49:11.871379308
2025-11-07 11:49:08.380532,-1,2025-11-07 11:49:11.879071615
2025-11-07 11:49:08.380532,-82,2025-11-07 11:49:11.886763923
2025-11-07 11:49:08.380532,-21249,2025-11-07 11:49:11.894456231
2025-11-07 11:49:08.380532,-1,2025-11-07 11:49:11.902148538
2025-11-07 11:49:08.380532,-82,2025-11-07 11:49:11.909840846
2025-11-07 11:49:08.380532,-18689,2025-11-07 11:49:11.917533154
2025-11-07 11:49:08.380532,-1,2025-11-07 11:49:11.925225462
2025-11-07 11:49:08.380532,-82,2025-11-07 11:49:11.932917769
2025-11-07 11:49:08.380532,-20737,2025-11-07 11:49:11.940610077
2025-11-07 11:49:08.380532,-1,2025-11-07 11:49:11.948302385
2025-11-07 11:49:08.380532,-82,2025-11-07 11:49:11.955994692
2025-11-07 11:49:08.380532,-22529,2025-11-07 11:49:11.963687000
2025-11-07 11:49:08.380532,-1,2025-11-07 11:49:11.971379308
2025-11-07 11:49:08.380532,-82,2025-11-07 11:49:11.979071615
2025-11-07 11:49:08.380532,-20737,2025-11-07 11:49:11.986763923
2025-11-07 11:49:08.380532,-1,2025-11-07 11:49:11.994456231
2025-11-07 11:49:08.380532,-82,2025-11-07 11:49:12.002148538
2025-11-07 11:49:08.380532,-19969,2025-11-07 11:49:12.009840846
2025-11-07 11:49:08.380532,-1,2025-11-07 11:49:12.017533154
2025-11-07 11:49:08.380532,-84,2025-11-07 11:49:12.025225462
2025-11-07 11:49:08.380532,-20737,2025-11-07 11:49:12.032917769
2025-11-07 11:49:08.380532,-1,2025-11-07 11:49:12.040610077
2025-11-07 11:49:08.380532,-84,2025-11-07 11:49:12.048302385
2025-11-07 11:49:08.380532,-22529,2025-11-07 11:49:12.055994692
2025-11-07 11:49:08.380532,-1,2025-11-07 11:49:12.063687000
2025-11-07 11:49:08.380532,-89,2025-11-07 11:49:12.071379308
2025-11-07 11:49:08.380532,-24321,2025-11-07 11:49:12.079071615
2025-11-07 11:49:08.380532,-1,2025-11-07 11:49:12.086763923
2025-11-07 11:49:08.380532,-99,2025-11-07 11:49:12.094456231
2025-11-07 11:49:08.380532,-24321,2025-11-07 11:49:12.102148538
2025-11-07 11:49:08.380532,-1,2025-11-07 11:49:12.109840846
2025-11-07 11:49:08.380532,-99,2025-11-07 11:49:12.117533154
2025-11-07 11:49:08.380532,-22529,2025-11-07 11:49:12.125225462
2025-11-07 11:49:08.380532,-1,2025-11-07 11:49:12.132917769
2025-11-07 11:49:08.380532,-74,2025-11-07 11:49:12.140610077
2025-11-07 11:49:08.380532,-15617,2025-11-07 11:49:12.148302385
2025-11-07 11:49:08.380532,-1,2025-11-07 11:49:12.155994692
2025-11-07 11:49:08.380532,-65,2025-11-07 11:49:12.163687000
2025-11-07 11:49:08.380532,-18689,2025-11-07 11:49:12.171379308
2025-11-07 11:49:08.380532,-1,2025-11-07 11:49:12.179071615
2025-11-07 11:49:08.380532,-74,2025-11-07 11:49:12.186763923
2025-11-07 11:49:08.380532,-21249,2025-11-07 11:49:12.194456230
2025-11-07 11:49:08.380532,-1,2025-11-07 11:49:12.202148538
2025-11-07 11:49:08.380532,-87,2025-11-07 11:49:12.209840846
2025-11-07 11:49:08.380532,-19457,2025-11-07 11:49:12.217533154
2025-11-07 11:49:08.380532,-1,2025-11-07 11:49:12.225225462
2025-11-07 11:49:08.380532,-84,2025-11-07 11:49:12.232917769
2025-11-07 11:49:08.380532,-22017,2025-11-07 11:49:12.240610077
2025-11-07 11:49:08.380532,-1,2025-11-07 11:49:12.248302385
2025-11-07 11:49:08.380532,-82,2025-11-07 11:49:12.255994692
2025-11-07 11:49:08.380532,-22017,2025-11-07 11:49:12.263687000
2025-11-07 11:49:08.380532,-1,2025-11-07 11:49:12.271379308
2025-11-07 11:49:08.380532,-116,2025-11-07 11:49:12.279071615
2025-11-07 11:49:08.380532,20223,2025-11-07 11:49:12.286763923
2025-11-07 11:49:08.380532,-1,2025-11-07 11:49:12.294456231
2025-11-07 11:49:08.380532,-174,2025-11-07 11:49:12.302148538
2025-11-07 11:49:08.380532,21247,2025-11-07 11:49:12.309840846
2025-11-07 11:49:08.380532,0,2025-11-07 11:49:12.317533154
2025-11-07 11:49:08.380532,529,2025-11-07 11:49:12.325225462
2025-11-07 11:49:08.380532,-6656,2025-11-07 11:49:12.332917769
2025-11-07 11:49:08.380532,2,2025-11-07 11:49:12.340610077
2025-11-07 11:49:08.380532,430,2025-11-07 11:49:12.348302385
2025-11-07 11:49:08.380532,-4864,2025-11-07 11:49:12.355994692
2025-11-07 11:49:08.380532,-1,2025-11-07 11:49:12.363687000
2025-11-07 11:49:08.380532,-171,2025-11-07 11:49:12.371379308
2025-11-07 11:49:08.380532,25599,2025-11-07 11:49:12.379071615
2025-11-07 11:49:08.380532,-1,2025-11-07 11:49:12.386763923
2025-11-07 11:49:08.380532,-178,2025-11-07 11:49:12.394456231
2025-11-07 11:49:08.380532,16383,2025-11-07 11:49:12.402148538
2025-11-07 11:49:08.380532,-1,2025-11-07 11:49:12.409840846
2025-11-07 11:49:08.380532,-174,2025-11-07 11:49:12.417533154
2025-11-07 11:49:08.380532,23807,2025-11-07 11:49:12.425225462
2025-11-07 11:49:08.380532,-1,2025-11-07 11:49:12.432917769
2025-11-07 11:49:08.380532,-171,2025-11-07 11:49:12.440610077
2025-11-07 11:49:08.380532,24575,2025-11-07 11:49:12.448302385
2025-11-07 11:49:08.380532,-1,2025-11-07 11:49:12.455994692
2025-11-07 11:49:08.380532,-154,2025-11-07 11:49:12.463687000
2025-11-07 11:49:08.380532,24575,2025-11-07 11:49:12.471379308
2025-11-07 11:49:08.380532,-1,2025-11-07 11:49:12.479071615
2025-11-07 11:49:08.380532,-157,2025-11-07 11:49:12.486763923
2025-11-07 11:49:08.380532,26879,2025-11-07 11:49:12.494456231
2025-11-07 11:49:08.380532,-1,2025-11-07 11:49:12.502148538
2025-11-07 11:49:08.380532,-152,2025-11-07 11:49:12.509840846
2025-11-07 11:49:08.380532,26367,2025-11-07 11:49:12.517533154
2025-11-07 11:49:08.380532,-1,2025-11-07 11:49:12.525225462
2025-11-07 11:49:08.380532,-161,2025-11-07 11:49:12.532917769
2025-11-07 11:49:08.380532,26367,2025-11-07 11:49:12.540610077
2025-11-07 11:49:08.380532,-1,2025-11-07 11:49:12.548302385
2025-11-07 11:49:08.380532,-145,2025-11-07 11:49:12.555994692
2025-11-07 11:49:08.927567,-149,2025-11-07 11:49:12.563687000
2025-11-07 11:49:08.927567,27647,2025-11-07 11:49:12.571379308
2025-11-07 11:49:08.927567,-1,2025-11-07 11:49:12.579071615
2025-11-07 11:49:08.927567,-152,2025-11-07 11:49:12.586763923
2025-11-07 11:49:08.927567,28159,2025-11-07 11:49:12.594456231
2025-11-07 11:49:08.927567,-1,2025-11-07 11:49:12.602148538
2025-11-07 11:49:08.927567,-142,2025-11-07 11:49:12.609840846
2025-11-07 11:49:08.927567,27647,2025-11-07 11:49:12.617533154
2025-11-07 11:49:08.927567,-1,2025-11-07 11:49:12.625225462
2025-11-07 11:49:08.927567,-145,2025-11-07 11:49:12.632917769
2025-11-07 11:49:08.927567,31231,2025-11-07 11:49:12.640610077
2025-11-07 11:49:08.927567,-1,2025-11-07 11:49:12.648302385
2025-11-07 11:49:08.927567,-128,2025-11-07 11:49:12.655994692
2025-11-07 11:49:08.927567,-29441,2025-11-07 11:49:12.663687000
2025-11-07 11:49:08.927567,-1,2025-11-07 11:49:12.671379308
2025-11-07 11:49:08.927567,-103,2025-11-07 11:49:12.679071615
2025-11-07 11:49:08.927567,-23041,2025-11-07 11:49:12.686763923
2025-11-07 11:49:08.927567,-1,2025-11-07 11:49:12.694456231
2025-11-07 11:49:08.927567,-99,2025-11-07 11:49:12.702148538
2025-11-07 11:49:08.927567,-28161,2025-11-07 11:49:12.709840846
2025-11-07 11:49:08.927567,-1,2025-11-07 11:49:12.717533154
2025-11-07 11:49:08.927567,-108,2025-11-07 11:49:12.725225462
2025-11-07 11:49:08.927567,-31745,2025-11-07 11:49:12.732917769
2025-11-07 11:49:08.927567,-1,2025-11-07 11:49:12.740610077
2025-11-07 11:49:08.927567,-140,2025-11-07 11:49:12.748302385
2025-11-07 11:49:08.927567,29439,2025-11-07 11:49:12.755994692
2025-11-07 11:49:08.927567,-1,2025-11-07 11:49:12.763687000
2025-11-07 11:49:08.927567,-159,2025-11-07 11:49:12.771379308
2025-11-07 11:49:08.927567,23807,2025-11-07 11:49:12.779071615
2025-11-07 11:49:08.927567,-1,2025-11-07 11:49:12.786763923
2025-11-07 11:49:08.927567,-159,2025-11-07 11:49:12.794456231
2025-11-07 11:49:08.927567,25599,2025-11-07 11:49:12.802148538
2025-11-07 11:49:08.927567,-1,2025-11-07 11:49:12.809840846
2025-11-07 11:49:08.927567,-157,2025-11-07 11:49:12.817533154
2025-11-07 11:49:08.927567,22015,2025-11-07 11:49:12.825225462
2025-11-07 11:49:08.927567,-1,2025-11-07 11:49:12.832917769
2025-11-07 11:49:08.927567,-174,2025-11-07 11:49:12.840610077
2025-11-07 11:49:08.927567,22527,2025-11-07 11:49:12.848302385
2025-11-07 11:49:08.927567,-1,2025-11-07 11:49:12.855994692
2025-11-07 11:49:08.927567,-181,2025-11-07 11:49:12.863687000
2025-11-07 11:49:08.927567,17151,2025-11-07 11:49:12.871379308
2025-11-07 11:49:08.927567,-1,2025-11-07 11:49:12.879071615
2025-11-07 11:49:08.927567,-203,2025-11-07 11:49:12.886763923
2025-11-07 11:49:08.927567,13311,2025-11-07 11:49:12.894456231
2025-11-07 11:49:08.927567,-1,2025-11-07 11:49:12.902148538
2025-11-07 11:49:08.927567,-207,2025-11-07 11:49:12.909840846
2025-11-07 11:49:08.927567,10239,2025-11-07 11:49:12.917533154
2025-11-07 11:49:08.927567,-1,2025-11-07 11:49:12.925225462
2025-11-07 11:49:08.927567,-217,2025-11-07 11:49:12.932917769
2025-11-07 11:49:08.927567,9727,2025-11-07 11:49:12.940610077
2025-11-07 11:49:08.927567,-1,2025-11-07 11:49:12.948302385
2025-11-07 11:49:08.927567,-224,2025-11-07 11:49:12.955994692
2025-11-07 11:49:08.927567,8447,2025-11-07 11:49:12.963687000
2025-11-07 11:49:08.927567,-1,2025-11-07 11:49:12.971379308
2025-11-07 11:49:08.927567,-234,2025-11-07 11:49:12.979071615
2025-11-07 11:49:08.927567,4607,2025-11-07 11:49:12.986763923
2025-11-07 11:49:08.927567,-1,2025-11-07 11:49:12.994456231
2025-11-07 11:49:08.927567,-241,2025-11-07 11:49:13.002148538
2025-11-07 11:49:08.927567,1535,2025-11-07 11:49:13.009840846
2025-11-07 11:49:08.927567,-1,2025-11-07 11:49:13.017533154
2025-11-07 11:49:08.927567,-248,2025-11-07 11:49:13.025225462
2025-11-07 11:49:08.927567,1023,2025-11-07 11:49:13.032917769
2025-11-07 11:49:08.927567,-1,2025-11-07 11:49:13.040610077
2025-11-07 11:49:08.927567,-261,2025-11-07 11:49:13.048302385
2025-11-07 11:49:08.927567,-2049,2025-11-07 11:49:13.055994692
2025-11-07 11:49:08.927567,-2,2025-11-07 11:49:13.063687000
2025-11-07 11:49:08.927567,-275,2025-11-07 11:49:13.071379308
2025-11-07 11:49:08.927567,-4609,2025-11-07 11:49:13.079071615
2025-11-07 11:49:08.927567,-2,2025-11-07 11:49:13.086763923
2025-11-07 11:49:08.927567,-280,2025-11-07 11:49:13.094456231
2025-11-07 11:49:08.927567,-7681,2025-11-07 11:49:13.102148538
2025-11-07 11:49:08.927567,-2,2025-11-07 11:49:13.109840846
2025-11-07 11:49:08.927567,-290,2025-11-07 11:49:13.117533154
2025-11-07 11:49:08.927567,-10241,2025-11-07 11:49:13.125225462
2025-11-07 11:49:08.927567,-2,2025-11-07 11:49:13.132917769
2025-11-07 11:49:08.927567,-302,2025-11-07 11:49:13.140610077
2025-11-07 11:49:08.927567,-13313,2025-11-07 11:49:13.148302385
2025-11-07 11:49:08.927567,-2,2025-11-07 11:49:13.155994692
2025-11-07 11:49:08.927567,-323,2025-11-07 11:49:13.163687000
2025-11-07 11:49:08.927567,-16897,2025-11-07 11:49:13.171379308
2025-11-07 11:49:08.927567,-2,2025-11-07 11:49:13.179071615
2025-11-07 11:49:08.927567,-331,2025-11-07 11:49:13.186763923
2025-11-07 11:49:08.927567,-21249,2025-11-07 11:49:13.194456230
2025-11-07 11:49:08.927567,-2,2025-11-07 11:49:13.202148538
2025-11-07 11:49:08.927567,-340,2025-11-07 11:49:13.209840846
2025-11-07 11:49:08.927567,-19969,2025-11-07 11:49:13.217533154
2025-11-07 11:49:08.927567,-2,2025-11-07 11:49:13.225225462
2025-11-07 11:49:08.927567,-321,2025-11-07 11:49:13.232917769
2025-11-07 11:49:08.927567,-15873,2025-11-07 11:49:13.240610077
2025-11-07 11:49:08.927567,-2,2025-11-07 11:49:13.248302385
2025-11-07 11:49:08.927567,-328,2025-11-07 11:49:13.255994692
2025-11-07 11:49:08.927567,-19457,2025-11-07 11:49:13.263687000
2025-11-07 11:49:08.927567,-2,2025-11-07 11:49:13.271379308
2025-11-07 11:49:08.927567,-352,2025-11-07 11:49:13.279071615
2025-11-07 11:49:08.927567,-26369,2025-11-07 11:49:13.286763923
2025-11-07 11:49:08.927567,-2,2025-11-07 11:49:13.294456231
2025-11-07 11:49:08.927567,-352,2025-11-07 11:49:13.302148538
2025-11-07 11:49:08.927567,-24321,2025-11-07 11:49:13.309840846
2025-11-07 11:49:08.927567,-2,2025-11-07 11:49:13.317533154
2025-11-07 11:49:08.927567,-357,2025-11-07 11:49:13.325225462
2025-11-07 11:49:08.927567,-28161,2025-11-07 11:49:13.332917769
2025-11-07 11:49:08.927567,-2,2025-11-07 11:49:13.340610077
2025-11-07 11:49:08.927567,-369,2025-11-07 11:49:13.348302385
2025-11-07 11:49:08.927567,-31233,2025-11-07 11:49:13.355994692
2025-11-07 11:49:08.927567,-2,2025-11-07 11:49:13.363687000
2025-11-07 11:49:08.927567,-430,2025-11-07 11:49:13.371379308
2025-11-07 11:49:08.927567,10751,2025-11-07 11:49:13.379071615
2025-11-07 11:49:08.927567,-2,2025-11-07 11:49:13.386763923
2025-11-07 11:49:08.927567,-372,2025-11-07 11:49:13.394456231
2025-11-07 11:49:09.494609,-26,2025-11-07 11:49:13.402148538
2025-11-07 11:49:09.494609,23807,2025-11-07 11:49:13.409840846
2025-11-07 11:49:09.494609,1,2025-11-07 11:49:13.417533154
2025-11-07 11:49:09.494609,292,2025-11-07 11:49:13.425225462
2025-11-07 11:49:09.494609,-30208,2025-11-07 11:49:13.432917769
2025-11-07 11:49:09.494609,-1,2025-11-07 11:49:13.440610077
2025-11-07 11:49:09.494609,-396,2025-11-07 11:49:13.448302385
2025-11-07 11:49:09.494609,25087,2025-11-07 11:49:13.455994692
2025-11-07 11:49:09.494609,-2,2025-11-07 11:49:13.463687000
2025-11-07 11:49:09.494609,-406,2025-11-07 11:49:13.471379308
2025-11-07 11:49:09.494609,20735,2025-11-07 11:49:13.479071615
2025-11-07 11:49:09.494609,-2,2025-11-07 11:49:13.486763923
2025-11-07 11:49:09.494609,-418,2025-11-07 11:49:13.494456231
2025-11-07 11:49:09.494609,29951,2025-11-07 11:49:13.502148538
2025-11-07 11:49:09.494609,-2,2025-11-07 11:49:13.509840846
2025-11-07 11:49:09.494609,-403,2025-11-07 11:49:13.517533154
2025-11-07 11:49:09.494609,31231,2025-11-07 11:49:13.525225462
2025-11-07 11:49:09.494609,-2,2025-11-07 11:49:13.532917769
2025-11-07 11:49:09.494609,-377,2025-11-07 11:49:13.540610077
2025-11-07 11:49:09.494609,-31233,2025-11-07 11:49:13.548302385
2025-11-07 11:49:09.494609,-2,2025-11-07 11:49:13.555994692
2025-11-07 11:49:09.494609,-364,2025-11-07 11:49:13.563687000
2025-11-07 11:49:09.494609,-25601,2025-11-07 11:49:13.571379308
2025-11-07 11:49:09.494609,-2,2025-11-07 11:49:13.579071615
2025-11-07 11:49:09.494609,-352,2025-11-07 11:49:13.586763923
2025-11-07 11:49:09.494609,-22529,2025-11-07 11:49:13.594456231
2025-11-07 11:49:09.494609,-2,2025-11-07 11:49:13.602148538
2025-11-07 11:49:09.494609,-340,2025-11-07 11:49:13.609840846
2025-11-07 11:49:09.494609,-18945,2025-11-07 11:49:13.617533154
2025-11-07 11:49:09.494609,-2,2025-11-07 11:49:13.625225462
2025-11-07 11:49:09.494609,-323,2025-11-07 11:49:13.632917769
2025-11-07 11:49:09.494609,-15105,2025-11-07 11:49:13.640610077
2025-11-07 11:49:09.494609,-2,2025-11-07 11:49:13.648302385
2025-11-07 11:49:09.494609,-304,2025-11-07 11:49:13.655994692
2025-11-07 11:49:09.494609,-10753,2025-11-07 11:49:13.663687000
2025-11-07 11:49:09.494609,-2,2025-11-07 11:49:13.671379308
2025-11-07 11:49:09.494609,-287,2025-11-07 11:49:13.679071615
2025-11-07 11:49:09.494609,-5121,2025-11-07 11:49:13.686763923
2025-11-07 11:49:09.494609,-2,2025-11-07 11:49:13.694456231
2025-11-07 11:49:09.494609,-273,2025-11-07 11:49:13.702148538
2025-11-07 11:49:09.494609,1023,2025-11-07 11:49:13.709840846
2025-11-07 11:49:09.494609,-1,2025-11-07 11:49:13.717533154
2025-11-07 11:49:09.494609,-244,2025-11-07 11:49:13.725225462
2025-11-07 11:49:09.494609,5887,2025-11-07 11:49:13.732917769
2025-11-07 11:49:09.494609,-1,2025-11-07 11:49:13.740610077
2025-11-07 11:49:09.494609,-217,2025-11-07 11:49:13.748302385
2025-11-07 11:49:09.494609,13311,2025-11-07 11:49:13.755994692
2025-11-07 11:49:09.494609,-1,2025-11-07 11:49:13.763687000
2025-11-07 11:49:09.494609,-190,2025-11-07 11:49:13.771379308
2025-11-07 11:49:09.494609,18943,2025-11-07 11:49:13.779071615
2025-11-07 11:49:09.494609,-1,2025-11-07 11:49:13.786763923
2025-11-07 11:49:09.494609,-176,2025-11-07 11:49:13.794456231
2025-11-07 11:49:09.494609,23295,2025-11-07 11:49:13.802148538
2025-11-07 11:49:09.494609,-1,2025-11-07 11:49:13.809840846
2025-11-07 11:49:09.494609,-181,2025-11-07 11:49:13.817533154
2025-11-07 11:49:09.494609,17663,2025-11-07 11:49:13.825225462
2025-11-07 11:49:09.494609,-1,2025-11-07 11:49:13.832917769
2025-11-07 11:49:09.494609,-190,2025-11-07 11:49:13.840610077
2025-11-07 11:49:09.494609,15103,2025-11-07 11:49:13.848302385
2025-11-07 11:49:09.494609,-1,2025-11-07 11:49:13.855994692
2025-11-07 11:49:09.494609,-193,2025-11-07 11:49:13.863687000
2025-11-07 11:49:09.494609,17663,2025-11-07 11:49:13.871379308
2025-11-07 11:49:09.494609,-1,2025-11-07 11:49:13.879071615
2025-11-07 11:49:09.494609,-183,2025-11-07 11:49:13.886763923
2025-11-07 11:49:09.494609,20735,2025-11-07 11:49:13.894456231
2025-11-07 11:49:09.494609,-1,2025-11-07 11:49:13.902148538
2025-11-07 11:49:09.494609,-176,2025-11-07 11:49:13.909840846
2025-11-07 11:49:09.494609,22527,2025-11-07 11:49:13.917533154
2025-11-07 11:49:09.494609,-1,2025-11-07 11:49:13.925225462
2025-11-07 11:49:09.494609,-164,2025-11-07 11:49:13.932917769
2025-11-07 11:49:09.494609,25599,2025-11-07 11:49:13.940610077
2025-11-07 11:49:09.494609,-1,2025-11-07 11:49:13.948302385
2025-11-07 11:49:09.494609,-145,2025-11-07 11:49:13.955994692
2025-11-07 11:49:09.494609,28671,2025-11-07 11:49:13.963687000
2025-11-07 11:49:09.494609,-1,2025-11-07 11:49:13.971379308
2025-11-07 11:49:09.494609,-140,2025-11-07 11:49:13.979071615
2025-11-07 11:49:09.494609,31231,2025-11-07 11:49:13.986763923
2025-11-07 11:49:09.494609,-1,2025-11-07 11:49:13.994456231
2025-11-07 11:49:09.494609,-132,2025-11-07 11:49:14.002148538
2025-11-07 11:49:09.494609,-31233,2025-11-07 11:49:14.009840846
2025-11-07 11:49:09.494609,-1,2025-11-07 11:49:14.017533154
2025-11-07 11:49:09.494609,-118,2025-11-07 11:49:14.025225462
2025-11-07 11:49:09.494609,-29441,2025-11-07 11:49:14.032917769
2025-11-07 11:49:09.494609,-1,2025-11-07 11:49:14.040610077
2025-11-07 11:49:09.494609,-108,2025-11-07 11:49:14.048302385
2025-11-07 11:49:09.494609,-25601,2025-11-07 11:49:14.055994692
2025-11-07 11:49:09.494609,-1,2025-11-07 11:49:14.063687000
2025-11-07 11:49:09.494609,-91,2025-11-07 11:49:14.071379308
2025-11-07 11:49:09.494609,-23809,2025-11-07 11:49:14.079071615
2025-11-07 11:49:09.494609,-1,2025-11-07 11:49:14.086763923
2025-11-07 11:49:09.494609,-96,2025-11-07 11:49:14.094456231
2025-11-07 11:49:09.494609,-22017,2025-11-07 11:49:14.102148538
2025-11-07 11:49:09.494609,-1,2025-11-07 11:49:14.109840846
2025-11-07 11:49:09.494609,-91,2025-11-07 11:49:14.117533154
2025-11-07 11:49:09.494609,-23041,2025-11-07 11:49:14.125225462
2025-11-07 11:49:09.494609,-1,2025-11-07 11:49:14.132917769
2025-11-07 11:49:09.494609,-87,2025-11-07 11:49:14.140610077
2025-11-07 11:49:09.494609,-22017,2025-11-07 11:49:14.148302385
2025-11-07 11:49:09.494609,-1,2025-11-07 11:49:14.155994692
2025-11-07 11:49:09.494609,-82,2025-11-07 11:49:14.163687000
2025-11-07 11:49:09.494609,-19969,2025-11-07 11:49:14.171379308
2025-11-07 11:49:09.494609,-1,2025-11-07 11:49:14.179071615
2025-11-07 11:49:09.494609,-82,2025-11-07 11:49:14.186763923
2025-11-07 11:49:09.494609,-19969,2025-11-07 11:49:14.194456230
2025-11-07 11:49:09.494609,-1,2025-11-07 11:49:14.202148538
2025-11-07 11:49:09.494609,-82,2025-11-07 11:49:14.209840846
2025-11-07 11:49:09.494609,-19969,2025-11-07 11:49:14.217533154
2025-11-07 11:49:09.494609,-1,2025-11-07 11:49:14.225225462
2025-11-07 11:49:09.494609,-87,2025-11-07 11:49:14.232917769
2025-11-07 11:49:10.026441,-91,2025-11-07 11:49:14.240610077
2025-11-07 11:49:10.026441,-22529,2025-11-07 11:49:14.248302385
2025-11-07 11:49:10.026441,-1,2025-11-07 11:49:14.255994692
2025-11-07 11:49:10.026441,-91,2025-11-07 11:49:14.263687000
2025-11-07 11:49:10.026441,-20737,2025-11-07 11:49:14.271379308
2025-11-07 11:49:10.026441,-1,2025-11-07 11:49:14.279071615
2025-11-07 11:49:10.026441,-58,2025-11-07 11:49:14.286763923
2025-11-07 11:49:10.026441,-13313,2025-11-07 11:49:14.294456231
2025-11-07 11:49:10.026441,-1,2025-11-07 11:49:14.302148538
2025-11-07 11:49:10.026441,-58,2025-11-07 11:49:14.309840846
2025-11-07 11:49:10.026441,-16385,2025-11-07 11:49:14.317533154
2025-11-07 11:49:10.026441,-1,2025-11-07 11:49:14.325225462
2025-11-07 11:49:10.026441,-65,2025-11-07 11:49:14.332917769
2025-11-07 11:49:10.026441,-14593,2025-11-07 11:49:14.340610077
2025-11-07 11:49:10.026441,-1,2025-11-07 11:49:14.348302385
2025-11-07 11:49:10.026441,-62,2025-11-07 11:49:14.355994692
2025-11-07 11:49:10.026441,-16897,2025-11-07 11:49:14.363687000
2025-11-07 11:49:10.026441,-1,2025-11-07 11:49:14.371379308
2025-11-07 11:49:10.026441,-70,2025-11-07 11:49:14.379071615
2025-11-07 11:49:10.026441,-18689,2025-11-07 11:49:14.386763923
2025-11-07 11:49:10.026441,-1,2025-11-07 11:49:14.394456231
2025-11-07 11:49:10.026441,-72,2025-11-07 11:49:14.402148538
2025-11-07 11:49:10.026441,-20737,2025-11-07 11:49:14.409840846
2025-11-07 11:49:10.026441,-1,2025-11-07 11:49:14.417533154
2025-11-07 11:49:10.026441,-123,2025-11-07 11:49:14.425225462
2025-11-07 11:49:10.026441,17663,2025-11-07 11:49:14.432917769
2025-11-07 11:49:10.026441,-1,2025-11-07 11:49:14.440610077
2025-11-07 11:49:10.026441,-147,2025-11-07 11:49:14.448302385
2025-11-07 11:49:10.026441,-16641,2025-11-07 11:49:14.455994692
2025-11-07 11:49:10.026441,0,2025-11-07 11:49:14.463687000
2025-11-07 11:49:10.026441,664,2025-11-07 11:49:14.471379308
2025-11-07 11:49:10.026441,1280,2025-11-07 11:49:14.479071615
2025-11-07 11:49:10.026441,3,2025-11-07 11:49:14.486763923
2025-11-07 11:49:10.026441,362,2025-11-07 11:49:14.494456231
2025-11-07 11:49:10.026441,-19712,2025-11-07 11:49:14.502148538
2025-11-07 11:49:10.026441,-1,2025-11-07 11:49:14.509840846
2025-11-07 11:49:10.026441,-171,2025-11-07 11:49:14.517533154
2025-11-07 11:49:10.026441,29951,2025-11-07 11:49:14.525225462
2025-11-07 11:49:10.026441,-1,2025-11-07 11:49:14.532917769
2025-11-07 11:49:10.026441,-171,2025-11-07 11:49:14.540610077
2025-11-07 11:49:10.026441,20735,2025-11-07 11:49:14.548302385
2025-11-07 11:49:10.026441,-1,2025-11-07 11:49:14.555994692
2025-11-07 11:49:10.026441,-154,2025-11-07 11:49:14.563687000
2025-11-07 11:49:10.026441,26367,2025-11-07 11:49:14.571379308
2025-11-07 11:49:10.026441,-1,2025-11-07 11:49:14.579071615
2025-11-07 11:49:10.026441,-157,2025-11-07 11:49:14.586763923
2025-11-07 11:49:10.026441,26879,2025-11-07 11:49:14.594456231
2025-11-07 11:49:10.026441,-1,2025-11-07 11:49:14.602148538
2025-11-07 11:49:10.026441,-140,2025-11-07 11:49:14.609840846
2025-11-07 11:49:10.026441,29439,2025-11-07 11:49:14.617533154
2025-11-07 11:49:10.026441,-1,2025-11-07 11:49:14.625225462
2025-11-07 11:49:10.026441,-140,2025-11-07 11:49:14.632917769
2025-11-07 11:49:10.026441,32511,2025-11-07 11:49:14.640610077
2025-11-07 11:49:10.026441,-1,2025-11-07 11:49:14.648302385
2025-11-07 11:49:10.026441,-132,2025-11-07 11:49:14.655994692
2025-11-07 11:49:10.026441,-32513,2025-11-07 11:49:14.663687000
2025-11-07 11:49:10.026441,-1,2025-11-07 11:49:14.671379308
2025-11-07 11:49:10.026441,-123,2025-11-07 11:49:14.679071615
2025-11-07 11:49:10.026441,-30465,2025-11-07 11:49:14.686763923
2025-11-07 11:49:10.026441,-1,2025-11-07 11:49:14.694456231
2025-11-07 11:49:10.026441,-116,2025-11-07 11:49:14.702148538
2025-11-07 11:49:10.026441,-29441,2025-11-07 11:49:14.709840846
2025-11-07 11:49:10.026441,-1,2025-11-07 11:49:14.717533154
2025-11-07 11:49:10.026441,-113,2025-11-07 11:49:14.725225462
2025-11-07 11:49:10.026441,-27393,2025-11-07 11:49:14.732917769
2025-11-07 11:49:10.026441,-1,2025-11-07 11:49:14.740610077
2025-11-07 11:49:10.026441,-111,2025-11-07 11:49:14.748302385
2025-11-07 11:49:10.026441,-25601,2025-11-07 11:49:14.755994692
2025-11-07 11:49:10.026441,-1,2025-11-07 11:49:14.763687000
2025-11-07 11:49:10.026441,-101,2025-11-07 11:49:14.771379308
2025-11-07 11:49:10.026441,-24321,2025-11-07 11:49:14.779071615
2025-11-07 11:49:10.026441,-1,2025-11-07 11:49:14.786763923
2025-11-07 11:49:10.026441,-87,2025-11-07 11:49:14.794456231
2025-11-07 11:49:10.026441,-21249,2025-11-07 11:49:14.802148538
2025-11-07 11:49:10.026441,-1,2025-11-07 11:49:14.809840846
2025-11-07 11:49:10.026441,-74,2025-11-07 11:49:14.817533154
2025-11-07 11:49:10.026441,-16897,2025-11-07 11:49:14.825225462
2025-11-07 11:49:10.026441,-1,2025-11-07 11:49:14.832917769
2025-11-07 11:49:10.026441,-67,2025-11-07 11:49:14.840610077
2025-11-07 11:49:10.026441,-15105,2025-11-07 11:49:14.848302385
2025-11-07 11:49:10.026441,-1,2025-11-07 11:49:14.855994692
2025-11-07 11:49:10.026441,-60,2025-11-07 11:49:14.863687000
2025-11-07 11:49:10.026441,-16385,2025-11-07 11:49:14.871379308
2025-11-07 11:49:10.026441,-1,2025-11-07 11:49:14.879071615
2025-11-07 11:49:10.026441,-70,2025-11-07 11:49:14.886763923
2025-11-07 11:49:10.026441,-20737,2025-11-07 11:49:14.894456231
2025-11-07 11:49:10.026441,-1,2025-11-07 11:49:14.902148538
2025-11-07 11:49:10.026441,-79,2025-11-07 11:49:14.909840846
2025-11-07 11:49:10.026441,-21249,2025-11-07 11:49:14.917533154
2025-11-07 11:49:10.026441,-1,2025-11-07 11:49:14.925225462
2025-11-07 11:49:10.026441,-84,2025-11-07 11:49:14.932917769
2025-11-07 11:49:10.026441,-20737,2025-11-07 11:49:14.940610077
2025-11-07 11:49:10.026441,-1,2025-11-07 11:49:14.948302385
2025-11-07 11:49:10.026441,-87,2025-11-07 11:49:14.955994692
2025-11-07 11:49:10.026441,-22017,2025-11-07 11:49:14.963687000
2025-11-07 11:49:10.026441,-1,2025-11-07 11:49:14.971379308
2025-11-07 11:49:10.026441,-82,2025-11-07 11:49:14.979071615
2025-11-07 11:49:10.026441,-21249,2025-11-07 11:49:14.986763923
2025-11-07 11:49:10.026441,-1,2025-11-07 11:49:14.994456231
2025-11-07 11:49:10.026441,-84,2025-11-07 11:49:15.002148538
2025-11-07 11:49:10.026441,-22017,2025-11-07 11:49:15.009840846
2025-11-07 11:49:10.026441,-1,2025-11-07 11:49:15.017533154
2025-11-07 11:49:10.026441,-87,2025-11-07 11:49:15.025225462
2025-11-07 11:49:10.026441,-21249,2025-11-07 11:49:15.032917769
2025-11-07 11:49:10.026441,-1,2025-11-07 11:49:15.040610077
2025-11-07 11:49:10.026441,-87,2025-11-07 11:49:15.048302385
2025-11-07 11:49:10.026441,-20737,2025-11-07 11:49:15.055994692
2025-11-07 11:49:10.026441,-1,2025-11-07 11:49:15.063687000
2025-11-07 11:49:10.026441,-82,2025-11-07 11:49:15.071379308
2025-11-07 11:49:10.637435,-89,2025-11-07 11:49:15.079071615
2025-11-07 11:49:10.637435,-21249,2025-11-07 11:49:15.086763923
2025-11-07 11:49:10.637435,-1,2025-11-07 11:49:15.094456231
2025-11-07 11:49:10.637435,-82,2025-11-07 11:49:15.102148538
2025-11-07 11:49:10.637435,-19969,2025-11-07 11:49:15.109840846
2025-11-07 11:49:10.637435,-1,2025-11-07 11:49:15.117533154
2025-11-07 11:49:10.637435,-79,2025-11-07 11:49:15.125225462
2025-11-07 11:49:10.637435,-17665,2025-11-07 11:49:15.132917769
2025-11-07 11:49:10.637435,-1,2025-11-07 11:49:15.140610077
2025-11-07 11:49:10.637435,-53,2025-11-07 11:49:15.148302385
2025-11-07 11:49:10.637435,-13825,2025-11-07 11:49:15.155994692
2025-11-07 11:49:10.637435,-1,2025-11-07 11:49:15.163687000
2025-11-07 11:49:10.637435,-67,2025-11-07 11:49:15.171379308
2025-11-07 11:49:10.637435,-16385,2025-11-07 11:49:15.179071615
2025-11-07 11:49:10.637435,-1,2025-11-07 11:49:15.186763923
2025-11-07 11:49:10.637435,-62,2025-11-07 11:49:15.194456230
2025-11-07 11:49:10.637435,-15617,2025-11-07 11:49:15.202148538
2025-11-07 11:49:10.637435,-1,2025-11-07 11:49:15.209840846
2025-11-07 11:49:10.637435,-67,2025-11-07 11:49:15.217533154
2025-11-07 11:49:10.637435,-17665,2025-11-07 11:49:15.225225462
2025-11-07 11:49:10.637435,-1,2025-11-07 11:49:15.232917769
2025-11-07 11:49:10.637435,-62,2025-11-07 11:49:15.240610077
2025-11-07 11:49:10.637435,-16897,2025-11-07 11:49:15.248302385
2025-11-07 11:49:10.637435,-1,2025-11-07 11:49:15.255994692
2025-11-07 11:49:10.637435,-62,2025-11-07 11:49:15.263687000
2025-11-07 11:49:10.637435,-15105,2025-11-07 11:49:15.271379308
2025-11-07 11:49:10.637435,-1,2025-11-07 11:49:15.279071615
2025-11-07 11:49:10.637435,-67,2025-11-07 11:49:15.286763923
2025-11-07 11:49:10.637435,-17665,2025-11-07 11:49:15.294456231
2025-11-07 11:49:10.637435,-1,2025-11-07 11:49:15.302148538
2025-11-07 11:49:10.637435,-74,2025-11-07 11:49:15.309840846
2025-11-07 11:49:10.637435,-18689,2025-11-07 11:49:15.317533154
2025-11-07 11:49:10.637435,-1,2025-11-07 11:49:15.325225462
2025-11-07 11:49:10.637435,-72,2025-11-07 11:49:15.332917769
2025-11-07 11:49:10.637435,-18177,2025-11-07 11:49:15.340610077
2025-11-07 11:49:10.637435,-1,2025-11-07 11:49:15.348302385
2025-11-07 11:49:10.637435,-50,2025-11-07 11:49:15.355994692
2025-11-07 11:49:10.637435,-8961,2025-11-07 11:49:15.363687000
2025-11-07 11:49:10.637435,-1,2025-11-07 11:49:15.371379308
2025-11-07 11:49:10.637435,-45,2025-11-07 11:49:15.379071615
2025-11-07 11:49:10.637435,-13825,2025-11-07 11:49:15.386763923
2025-11-07 11:49:10.637435,-1,2025-11-07 11:49:15.394456231
2025-11-07 11:49:10.637435,-70,2025-11-07 11:49:15.402148538
2025-11-07 11:49:10.637435,-18689,2025-11-07 11:49:15.409840846
2025-11-07 11:49:10.637435,-1,2025-11-07 11:49:15.417533154
2025-11-07 11:49:10.637435,-70,2025-11-07 11:49:15.425225462
2025-11-07 11:49:10.637435,-17665,2025-11-07 11:49:15.432917769
2025-11-07 11:49:10.637435,-1,2025-11-07 11:49:15.440610077
2025-11-07 11:49:10.637435,-65,2025-11-07 11:49:15.448302385
2025-11-07 11:49:10.637435,-17665,2025-11-07 11:49:15.455994692
2025-11-07 11:49:10.637435,-1,2025-11-07 11:49:15.463687000
2025-11-07 11:49:10.637435,-70,2025-11-07 11:49:15.471379308
2025-11-07 11:49:10.637435,-18177,2025-11-07 11:49:15.479071615
2025-11-07 11:49:10.637435,-1,2025-11-07 11:49:15.486763923
2025-11-07 11:49:10.637435,-111,2025-11-07 11:49:15.494456231
2025-11-07 11:49:10.637435,22527,2025-11-07 11:49:15.502148538
2025-11-07 11:49:10.637435,-1,2025-11-07 11:49:15.509840846
2025-11-07 11:49:10.637435,-140,2025-11-07 11:49:15.517533154
2025-11-07 11:49:10.637435,-25089,2025-11-07 11:49:15.525225462
2025-11-07 11:49:10.637435,0,2025-11-07 11:49:15.532917769
2025-11-07 11:49:10.637435,623,2025-11-07 11:49:15.540610077
2025-11-07 11:49:10.637435,-512,2025-11-07 11:49:15.548302385
2025-11-07 11:49:10.637435,2,2025-11-07 11:49:15.555994692
2025-11-07 11:49:10.637435,401,2025-11-07 11:49:15.563687000
2025-11-07 11:49:10.637435,-7936,2025-11-07 11:49:15.571379308
2025-11-07 11:49:10.637435,-1,2025-11-07 11:49:15.579071615
2025-11-07 11:49:10.637435,-157,2025-11-07 11:49:15.586763923
2025-11-07 11:49:10.637435,-32513,2025-11-07 11:49:15.594456231
2025-11-07 11:49:10.637435,-1,2025-11-07 11:49:15.602148538
2025-11-07 11:49:10.637435,-152,2025-11-07 11:49:15.609840846
2025-11-07 11:49:10.637435,23295,2025-11-07 11:49:15.617533154
2025-11-07 11:49:10.637435,-1,2025-11-07 11:49:15.625225462
2025-11-07 11:49:10.637435,-142,2025-11-07 11:49:15.632917769
2025-11-07 11:49:10.637435,29951,2025-11-07 11:49:15.640610077
2025-11-07 11:49:10.637435,-1,2025-11-07 11:49:15.648302385
2025-11-07 11:49:10.637435,-137,2025-11-07 11:49:15.655994692
2025-11-07 11:49:10.637435,32511,2025-11-07 11:49:15.663687000
2025-11-07 11:49:10.637435,-1,2025-11-07 11:49:15.671379308
2025-11-07 11:49:10.637435,-128,2025-11-07 11:49:15.679071615
2025-11-07 11:49:10.637435,-30465,2025-11-07 11:49:15.686763923
2025-11-07 11:49:10.637435,-1,2025-11-07 11:49:15.694456231
2025-11-07 11:49:10.637435,-120,2025-11-07 11:49:15.702148538
2025-11-07 11:49:10.637435,-29441,2025-11-07 11:49:15.709840846
2025-11-07 11:49:10.637435,-1,2025-11-07 11:49:15.717533154
2025-11-07 11:49:10.637435,-108,2025-11-07 11:49:15.725225462
2025-11-07 11:49:10.637435,-27393,2025-11-07 11:49:15.732917769
2025-11-07 11:49:10.637435,-1,2025-11-07 11:49:15.740610077
2025-11-07 11:49:10.637435,-99,2025-11-07 11:49:15.748302385
2025-11-07 11:49:10.637435,-24321,2025-11-07 11:49:15.755994692
2025-11-07 11:49:10.637435,-1,2025-11-07 11:49:15.763687000
2025-11-07 11:49:10.637435,-94,2025-11-07 11:49:15.771379308
2025-11-07 11:49:10.637435,-23041,2025-11-07 11:49:15.779071615
2025-11-07 11:49:10.637435,-1,2025-11-07 11:49:15.786763923
2025-11-07 11:49:10.637435,-96,2025-11-07 11:49:15.794456231
2025-11-07 11:49:10.637435,-22529,2025-11-07 11:49:15.802148538
2025-11-07 11:49:10.637435,-1,2025-11-07 11:49:15.809840846
2025-11-07 11:49:10.637435,-84,2025-11-07 11:49:15.817533154
2025-11-07 11:49:10.637435,-19969,2025-11-07 11:49:15.825225462
2025-11-07 11:49:10.637435,-1,2025-11-07 11:49:15.832917769
2025-11-07 11:49:10.637435,-74,2025-11-07 11:49:15.840610077
2025-11-07 11:49:10.637435,-18689,2025-11-07 11:49:15.848302385
2025-11-07 11:49:10.637435,-1,2025-11-07 11:49:15.855994692
2025-11-07 11:49:10.637435,-67,2025-11-07 11:49:15.863687000
2025-11-07 11:49:10.637435,-14593,2025-11-07 11:49:15.871379308
2025-11-07 11:49:10.637435,-1,2025-11-07 11:49:15.879071615
2025-11-07 11:49:10.637435,-60,2025-11-07 11:49:15.886763923
2025-11-07 11:49:10.637435,-12033,2025-11-07 11:49:15.894456231
2025-11-07 11:49:10.637435,-1,2025-11-07 11:49:15.902148538
2025-11-07 11:49:10.637435,-43,2025-11-07 11:49:15.909840846
2025-11-07 11:49:11.142270,-43,2025-11-07 11:49:15.917533154
2025-11-07 11:49:11.142270,-10753,2025-11-07 11:49:15.925225462
2025-11-07 11:49:11.142270,-1,2025-11-07 11:49:15.932917769
2025-11-07 11:49:11.142270,-50,2025-11-07 11:49:15.940610077
2025-11-07 11:49:11.142270,-12545,2025-11-07 11:49:15.948302385
2025-11-07 11:49:11.142270,-1,2025-11-07 11:49:15.955994692
2025-11-07 11:49:11.142270,-60,2025-11-07 11:49:15.963687000
2025-11-07 11:49:11.142270,-18177,2025-11-07 11:49:15.971379308
2025-11-07 11:49:11.142270,-1,2025-11-07 11:49:15.979071615
2025-11-07 11:49:11.142270,-70,2025-11-07 11:49:15.986763923
2025-11-07 11:49:11.142270,-18177,2025-11-07 11:49:15.994456231
2025-11-07 11:49:11.142270,-1,2025-11-07 11:49:16.002148538
2025-11-07 11:49:11.142270,-70,2025-11-07 11:49:16.009840846
2025-11-07 11:49:11.142270,-16897,2025-11-07 11:49:16.017533154
2025-11-07 11:49:11.142270,-1,2025-11-07 11:49:16.025225462
2025-11-07 11:49:11.142270,-65,2025-11-07 11:49:16.032917769
2025-11-07 11:49:11.142270,-12545,2025-11-07 11:49:16.040610077
2025-11-07 11:49:11.142270,-1,2025-11-07 11:49:16.048302385
2025-11-07 11:49:11.142270,-53,2025-11-07 11:49:16.055994692
2025-11-07 11:49:11.142270,-16897,2025-11-07 11:49:16.063687000
2025-11-07 11:49:11.142270,-1,2025-11-07 11:49:16.071379308
2025-11-07 11:49:11.142270,-62,2025-11-07 11:49:16.079071615
2025-11-07 11:49:11.142270,-15105,2025-11-07 11:49:16.086763923
2025-11-07 11:49:11.142270,-1,2025-11-07 11:49:16.094456231
2025-11-07 11:49:11.142270,-62,2025-11-07 11:49:16.102148538
2025-11-07 11:49:11.142270,-16897,2025-11-07 11:49:16.109840846
2025-11-07 11:49:11.142270,-1,2025-11-07 11:49:16.117533154
2025-11-07 11:49:11.142270,-67,2025-11-07 11:49:16.125225462
2025-11-07 11:49:11.142270,-15617,2025-11-07 11:49:16.132917769
2025-11-07 11:49:11.142270,-1,2025-11-07 11:49:16.140610077
2025-11-07 11:49:11.142270,-67,2025-11-07 11:49:16.148302385
2025-11-07 11:49:11.142270,-16385,2025-11-07 11:49:16.155994692
2025-11-07 11:49:11.142270,-1,2025-11-07 11:49:16.163687000
2025-11-07 11:49:11.142270,-60,2025-11-07 11:49:16.171379308
2025-11-07 11:49:11.142270,-16897,2025-11-07 11:49:16.179071615
2025-11-07 11:49:11.142270,-1,2025-11-07 11:49:16.186763923
2025-11-07 11:49:11.142270,-70,2025-11-07 11:49:16.194456230
2025-11-07 11:49:11.142270,-16897,2025-11-07 11:49:16.202148538
2025-11-07 11:49:11.142270,-1,2025-11-07 11:49:16.209840846
2025-11-07 11:49:11.142270,-62,2025-11-07 11:49:16.217533154
2025-11-07 11:49:11.142270,-14593,2025-11-07 11:49:16.225225462
2025-11-07 11:49:11.142270,-1,2025-11-07 11:49:16.232917769
2025-11-07 11:49:11.142270,-65,2025-11-07 11:49:16.240610077
2025-11-07 11:49:11.142270,-16385,2025-11-07 11:49:16.248302385
2025-11-07 11:49:11.142270,-1,2025-11-07 11:49:16.255994692
2025-11-07 11:49:11.142270,-65,2025-11-07 11:49:16.263687000
2025-11-07 11:49:11.142270,-16385,2025-11-07 11:49:16.271379308
2025-11-07 11:49:11.142270,-1,2025-11-07 11:49:16.279071615
2025-11-07 11:49:11.142270,-60,2025-11-07 11:49:16.286763923
2025-11-07 11:49:11.142270,-15617,2025-11-07 11:49:16.294456231
2025-11-07 11:49:11.142270,-1,2025-11-07 11:49:16.302148538
2025-11-07 11:49:11.142270,-55,2025-11-07 11:49:16.309840846
2025-11-07 11:49:11.142270,-13313,2025-11-07 11:49:16.317533154
2025-11-07 11:49:11.142270,-1,2025-11-07 11:49:16.325225462
2025-11-07 11:49:11.142270,-65,2025-11-07 11:49:16.332917769
2025-11-07 11:49:11.142270,-15105,2025-11-07 11:49:16.340610077
2025-11-07 11:49:11.142270,-1,2025-11-07 11:49:16.348302385
2025-11-07 11:49:11.142270,-60,2025-11-07 11:49:16.355994692
2025-11-07 11:49:11.142270,-15105,2025-11-07 11:49:16.363687000
2025-11-07 11:49:11.142270,-1,2025-11-07 11:49:16.371379308
2025-11-07 11:49:11.142270,-55,2025-11-07 11:49:16.379071615
2025-11-07 11:49:11.142270,-15105,2025-11-07 11:49:16.386763923
2025-11-07 11:49:11.142270,-1,2025-11-07 11:49:16.394456231
2025-11-07 11:49:11.142270,-62,2025-11-07 11:49:16.402148538
2025-11-07 11:49:11.142270,-16385,2025-11-07 11:49:16.409840846
2025-11-07 11:49:11.142270,-1,2025-11-07 11:49:16.417533154
2025-11-07 11:49:11.142270,-70,2025-11-07 11:49:16.425225462
2025-11-07 11:49:11.142270,-15105,2025-11-07 11:49:16.432917769
2025-11-07 11:49:11.142270,-1,2025-11-07 11:49:16.440610077
2025-11-07 11:49:11.142270,-50,2025-11-07 11:49:16.448302385
2025-11-07 11:49:11.142270,-10241,2025-11-07 11:49:16.455994692
2025-11-07 11:49:11.142270,-1,2025-11-07 11:49:16.463687000
2025-11-07 11:49:11.142270,-36,2025-11-07 11:49:16.471379308
2025-11-07 11:49:11.142270,-10753,2025-11-07 11:49:16.479071615
2025-11-07 11:49:11.142270,-1,2025-11-07 11:49:16.486763923
2025-11-07 11:49:11.142270,-38,2025-11-07 11:49:16.494456231
2025-11-07 11:49:11.142270,-13825,2025-11-07 11:49:16.502148538
2025-11-07 11:49:11.142270,-1,2025-11-07 11:49:16.509840846
2025-11-07 11:49:11.142270,-74,2025-11-07 11:49:16.517533154
2025-11-07 11:49:11.142270,-16897,2025-11-07 11:49:16.525225462
2025-11-07 11:49:11.142270,-1,2025-11-07 11:49:16.532917769
2025-11-07 11:49:11.142270,-65,2025-11-07 11:49:16.540610077
2025-11-07 11:49:11.142270,-16897,2025-11-07 11:49:16.548302385
2025-11-07 11:49:11.142270,-1,2025-11-07 11:49:16.555994692
2025-11-07 11:49:11.142270,-70,2025-11-07 11:49:16.563687000
2025-11-07 11:49:11.142270,-16897,2025-11-07 11:49:16.571379308
2025-11-07 11:49:11.142270,-1,2025-11-07 11:49:16.579071615
2025-11-07 11:49:11.142270,-67,2025-11-07 11:49:16.586763923
2025-11-07 11:49:11.142270,-26881,2025-11-07 11:49:16.594456231
2025-11-07 11:49:11.142270,-1,2025-11-07 11:49:16.602148538
2025-11-07 11:49:11.142270,-166,2025-11-07 11:49:16.609840846
2025-11-07 11:49:11.142270,32511,2025-11-07 11:49:16.617533154
2025-11-07 11:49:11.142270,-1,2025-11-07 11:49:16.625225462
2025-11-07 11:49:11.142270,159,2025-11-07 11:49:16.632917769
2025-11-07 11:49:11.142270,26624,2025-11-07 11:49:16.640610077
2025-11-07 11:49:11.142270,2,2025-11-07 11:49:16.648302385
2025-11-07 11:49:11.142270,751,2025-11-07 11:49:16.655994692
