timestamp,ecg
14:05:38.328312,-158
14:05:38.328312,-7937
14:05:38.328312,0
14:05:38.328312,1055
14:05:38.328312,-12800
14:05:38.328312,4
14:05:38.328312,291
14:05:38.328312,-15104
14:05:38.328312,-2
14:05:38.328312,-91
14:05:38.328312,-17409
14:05:38.328312,-1
14:05:38.328312,-262
14:05:38.328312,17151
14:05:38.328312,-1
14:05:38.328312,-103
14:05:38.328312,26367
14:05:38.328312,-1
14:05:38.328312,-161
14:05:38.328312,-32257
14:05:38.328312,-1
14:05:38.328312,-115
14:05:38.328312,-26625
14:05:38.328312,-1
14:05:38.328312,-105
14:05:38.328312,-26625
14:05:38.328312,-1
14:05:38.328312,-89
14:05:38.328312,-19969
14:05:38.328312,-1
14:05:38.328312,-93
14:05:38.328312,-24833
14:05:38.328312,-1
14:05:38.328312,-77
14:05:38.328312,-16897
14:05:38.328312,-1
14:05:38.328312,-69
14:05:38.328312,-17409
14:05:38.328312,-1
14:05:38.328312,-72
14:05:38.328312,-19457
14:05:38.328312,-1
14:05:38.328312,-74
14:05:38.328312,-17409
14:05:38.328312,-1
14:05:38.328312,-67
14:05:38.328312,-16385
14:05:38.328312,-1
14:05:38.328312,-60
14:05:38.328312,-15617
14:05:38.328312,-1
14:05:38.328312,-69
14:05:38.328312,-18689
14:05:38.328312,-1
14:05:38.328312,-81
14:05:38.328312,-16385
14:05:38.328312,-1
14:05:38.328312,-43
14:05:38.328312,-12033
14:05:38.328312,-1
14:05:38.328312,-40
14:05:38.328312,-6913
14:05:38.328312,-1
14:05:38.328312,-24
14:05:38.328312,-5889
14:05:38.328312,-1
14:05:38.328312,-21
14:05:38.328312,-2817
14:05:38.328312,-1
14:05:38.328312,-12
14:05:38.328312,-769
14:05:38.328312,-1
14:05:38.328312,7
14:05:38.328312,1792
14:05:38.328312,0
14:05:38.328312,12
14:05:38.328312,6144
14:05:38.328312,0
14:05:38.328312,36
14:05:38.328312,8448
14:05:38.328312,0
14:05:38.328312,16
14:05:38.328312,4864
14:05:38.328312,0
14:05:38.328312,60
14:05:38.328312,20224
14:05:38.328312,0
14:05:38.328312,52
14:05:38.328312,8448
14:05:38.328312,0
14:05:38.328312,31
14:05:38.328312,2304
14:05:38.328312,0
14:05:38.328312,-2
14:05:38.328312,9983
14:05:38.328312,0
14:05:38.328312,74
14:05:38.328312,20224
14:05:38.328312,0
14:05:38.328312,86
14:05:38.328312,19712
14:05:38.328312,0
14:05:38.328312,57
14:05:38.328312,17152
14:05:38.328312,0
14:05:38.328312,81
14:05:38.328312,18944
14:05:38.328312,0
14:05:38.328312,62
14:05:38.867682,62
14:05:38.867682,4864
14:05:38.867682,0
14:05:38.867682,31
14:05:38.867682,-2816
14:05:38.867682,1
14:05:38.867682,1281
14:05:38.867682,-9728
14:05:38.867682,4
14:05:38.867682,284
14:05:38.867682,22528
14:05:38.867682,-1
14:05:38.867682,72
14:05:38.867682,12288
14:05:38.867682,0
14:05:38.867682,-113
14:05:38.867682,-6913
14:05:38.867682,-1
14:05:38.867682,26
14:05:38.867682,-10240
14:05:38.867682,-1
14:05:38.867682,-33
14:05:38.867682,6911
14:05:38.867682,0
14:05:38.867682,21
14:05:38.867682,-2304
14:05:38.867682,-1
14:05:38.867682,4
14:05:38.867682,4864
14:05:38.867682,0
14:05:38.867682,2
14:05:38.867682,0
14:05:38.867682,0
14:05:38.867682,16
14:05:38.867682,4864
14:05:38.867682,0
14:05:38.867682,14
14:05:38.867682,3584
14:05:38.867682,0
14:05:38.867682,14
14:05:38.867682,1792
14:05:38.867682,0
14:05:38.867682,-4
14:05:38.867682,-3329
14:05:38.867682,-1
14:05:38.867682,-24
14:05:38.867682,-3329
14:05:38.867682,-1
14:05:38.867682,-2
14:05:38.867682,-7681
14:05:38.867682,-1
14:05:38.867682,-52
14:05:38.867682,-4609
14:05:38.867682,-1
14:05:38.867682,-4
14:05:38.867682,-7681
14:05:38.867682,-1
14:05:38.867682,-45
14:05:38.867682,-7681
14:05:38.867682,-1
14:05:38.867682,-31
14:05:38.867682,-12033
14:05:38.867682,-1
14:05:38.867682,-43
14:05:38.867682,-7681
14:05:38.867682,-1
14:05:38.867682,-26
14:05:38.867682,-5889
14:05:38.867682,-1
14:05:38.867682,-31
14:05:38.867682,-4609
14:05:38.867682,-1
14:05:38.867682,0
14:05:38.867682,-4096
14:05:38.867682,-1
14:05:38.867682,-14
14:05:38.867682,2559
14:05:38.867682,0
14:05:38.867682,0
14:05:38.867682,-3072
14:05:38.867682,-1
14:05:38.867682,0
14:05:38.867682,1024
14:05:38.867682,0
14:05:38.867682,-14
14:05:38.867682,-5889
14:05:38.867682,-1
14:05:38.867682,2
14:05:38.867682,5376
14:05:38.867682,0
14:05:38.867682,16
14:05:38.867682,2304
14:05:38.867682,0
14:05:38.867682,14
14:05:38.867682,5376
14:05:38.867682,0
14:05:38.867682,7
14:05:38.867682,-512
14:05:38.867682,-1
14:05:38.867682,-7
14:05:38.867682,-6913
14:05:38.867682,-1
14:05:38.867682,-33
14:05:38.867682,-2817
14:05:38.867682,-1
14:05:38.867682,7
14:05:38.867682,6144
14:05:38.867682,0
14:05:38.867682,28
14:05:39.407620,28
14:05:39.407620,9728
14:05:39.407620,0
14:05:39.407620,50
14:05:39.407620,12288
14:05:39.407620,0
14:05:39.407620,33
14:05:39.407620,7168
14:05:39.407620,0
14:05:39.407620,-2
14:05:39.407620,-13057
14:05:39.407620,-1
14:05:39.407620,195
14:05:39.407620,-21248
14:05:39.407620,3
14:05:39.407620,1327
14:05:39.407620,16896
14:05:39.407620,2
14:05:39.407620,-161
14:05:39.407620,-4609
14:05:39.407620,-1
14:05:39.407620,96
14:05:39.407620,-25856
14:05:39.407620,-1
14:05:39.407620,-96
14:05:39.407620,-3841
14:05:39.407620,-1
14:05:39.407620,-57
14:05:39.407620,-18177
14:05:39.407620,-1
14:05:39.407620,-38
14:05:39.407620,-6401
14:05:39.407620,-1
14:05:39.407620,-36
14:05:39.407620,-6401
14:05:39.407620,-1
14:05:39.407620,0
14:05:39.407620,-512
14:05:39.407620,-1
14:05:39.407620,-12
14:05:39.407620,-1537
14:05:39.407620,-1
14:05:39.407620,-16
14:05:39.407620,-5889
14:05:39.407620,-1
14:05:39.407620,-12
14:05:39.407620,-769
14:05:39.407620,-1
14:05:39.407620,-7
14:05:39.407620,-3841
14:05:39.407620,-1
14:05:39.407620,-7
14:05:39.407620,-1537
14:05:39.407620,-1
14:05:39.407620,-24
14:05:39.407620,-5889
14:05:39.407620,-1
14:05:39.407620,-16
14:05:39.407620,-5889
14:05:39.407620,-1
14:05:39.407620,-36
14:05:39.407620,-8961
14:05:39.407620,-1
14:05:39.407620,-26
14:05:39.407620,-8961
14:05:39.407620,-1
14:05:39.407620,-43
14:05:39.407620,-7681
14:05:39.407620,-1
14:05:39.407620,-28
14:05:39.407620,-7681
14:05:39.407620,-1
14:05:39.407620,-24
14:05:39.407620,-2817
14:05:39.407620,-1
14:05:39.407620,-4
14:05:39.407620,-1537
14:05:39.407620,-1
14:05:39.407620,0
14:05:39.407620,3072
14:05:39.407620,0
14:05:39.407620,19
14:05:39.407620,7168
14:05:39.407620,0
14:05:39.407620,38
14:05:39.407620,12800
14:05:39.407620,0
14:05:39.407620,65
14:05:39.407620,18432
14:05:39.407620,0
14:05:39.407620,77
14:05:39.407620,20224
14:05:39.407620,0
14:05:39.407620,81
14:05:39.407620,23808
14:05:39.407620,0
14:05:39.407620,96
14:05:39.407620,26368
14:05:39.407620,0
14:05:39.407620,115
14:05:39.407620,30208
14:05:39.407620,0
14:05:39.407620,118
14:05:39.407620,28928
14:05:39.407620,0
14:05:39.407620,110
14:05:39.407620,30720
14:05:39.407620,0
14:05:39.407620,134
14:05:39.948423,161
14:05:39.948423,-15104
14:05:39.948423,0
14:05:39.948423,199
14:05:39.948423,-18176
14:05:39.948423,0
14:05:39.948423,180
14:05:39.948423,-15616
14:05:39.948423,0
14:05:39.948423,216
14:05:39.948423,-5888
14:05:39.948423,0
14:05:39.948423,236
14:05:39.948423,-12032
14:05:39.948423,0
14:05:39.948423,161
14:05:39.948423,11520
14:05:39.948423,1
14:05:39.948423,912
14:05:39.948423,-15872
14:05:39.948423,5
14:05:39.948423,997
14:05:39.948423,-31744
14:05:39.948423,0
14:05:39.948423,91
14:05:39.948423,8960
14:05:39.948423,1
14:05:39.948423,137
14:05:39.948423,19712
14:05:39.948423,0
14:05:39.948423,166
14:05:39.948423,-26112
14:05:39.948423,0
14:05:39.948423,127
14:05:39.948423,-24320
14:05:39.948423,0
14:05:39.948423,178
14:05:39.948423,-22528
14:05:39.948423,0
14:05:39.948423,183
14:05:39.948423,-16384
14:05:39.948423,0
14:05:39.948423,192
14:05:39.948423,-11520
14:05:39.948423,0
14:05:39.948423,219
14:05:39.948423,-8960
14:05:39.948423,0
14:05:39.948423,233
14:05:39.948423,-3328
14:05:39.948423,0
14:05:39.948423,250
14:05:39.948423,-1536
14:05:39.948423,0
14:05:39.948423,243
14:05:39.948423,-4608
14:05:39.948423,0
14:05:39.948423,228
14:05:39.948423,-8192
14:05:39.948423,0
14:05:39.948423,224
14:05:39.948423,-8960
14:05:39.948423,0
14:05:39.948423,211
14:05:39.948423,-15104
14:05:39.948423,0
14:05:39.948423,195
14:05:39.948423,-13312
14:05:39.948423,0
14:05:39.948423,197
14:05:39.948423,-17664
14:05:39.948423,0
14:05:39.948423,185
14:05:39.948423,-17664
14:05:39.948423,0
14:05:39.948423,187
14:05:39.948423,-17664
14:05:39.948423,0
14:05:39.948423,190
14:05:39.948423,-16896
14:05:39.948423,0
14:05:39.948423,190
14:05:39.948423,-17664
14:05:39.948423,0
14:05:39.948423,175
14:05:39.948423,-22528
14:05:39.948423,0
14:05:39.948423,183
14:05:39.948423,-12544
14:05:39.948423,0
14:05:39.948423,226
14:05:39.948423,-8960
14:05:39.948423,0
14:05:39.948423,202
14:05:39.948423,-16896
14:05:39.948423,0
14:05:39.948423,185
14:05:39.948423,-17664
14:05:39.948423,0
14:05:39.948423,185
14:05:39.948423,-21760
14:05:39.948423,0
14:05:39.948423,158
14:05:39.948423,-26112
14:05:39.948423,0
14:05:39.948423,154
14:05:39.948423,-27392
14:05:39.948423,0
14:05:39.948423,120
14:05:40.577454,93
14:05:40.577454,25856
14:05:40.577454,0
14:05:40.577454,127
14:05:40.577454,-24320
14:05:40.577454,0
14:05:40.577454,187
14:05:40.577454,-19968
14:05:40.577454,0
14:05:40.577454,139
14:05:40.577454,-32256
14:05:40.577454,0
14:05:40.577454,146
14:05:40.577454,-29952
14:05:40.577454,0
14:05:40.577454,127
14:05:40.577454,32512
14:05:40.577454,0
14:05:40.577454,96
14:05:40.577454,13312
14:05:40.577454,0
14:05:40.577454,260
14:05:40.577454,-23040
14:05:40.577454,3
14:05:40.577454,1322
14:05:40.577454,31488
14:05:40.577454,2
14:05:40.577454,-98
14:05:40.577454,2559
14:05:40.577454,0
14:05:40.577454,122
14:05:40.577454,-14080
14:05:40.577454,-1
14:05:40.577454,-57
14:05:40.577454,2047
14:05:40.577454,0
14:05:40.577454,-31
14:05:40.577454,-7681
14:05:40.577454,-1
14:05:40.577454,7
14:05:40.577454,1024
14:05:40.577454,0
14:05:40.577454,2
14:05:40.577454,2304
14:05:40.577454,0
14:05:40.577454,2
14:05:40.577454,2304
14:05:40.577454,0
14:05:40.577454,21
14:05:40.577454,4096
14:05:40.577454,0
14:05:40.577454,19
14:05:40.577454,4864
14:05:40.577454,0
14:05:40.577454,14
14:05:40.577454,4096
14:05:40.577454,0
14:05:40.577454,9
14:05:40.577454,-1024
14:05:40.577454,-1
14:05:40.577454,-12
14:05:40.577454,-2817
14:05:40.577454,-1
14:05:40.577454,-7
14:05:40.577454,-769
14:05:40.577454,-1
14:05:40.577454,-12
14:05:40.577454,-2049
14:05:40.577454,-1
14:05:40.577454,-14
14:05:40.577454,-8961
14:05:40.577454,-1
14:05:40.577454,-48
14:05:40.577454,-8961
14:05:40.577454,-1
14:05:40.577454,-24
14:05:40.577454,-9473
14:05:40.577454,-1
14:05:40.577454,-48
14:05:40.577454,-8961
14:05:40.577454,-1
14:05:40.577454,-36
14:05:40.577454,-9985
14:05:40.577454,-1
14:05:40.577454,-40
14:05:40.577454,-6401
14:05:40.577454,-1
14:05:40.577454,-19
14:05:40.577454,-7681
14:05:40.577454,-1
14:05:40.577454,-43
14:05:40.577454,-9473
14:05:40.577454,-1
14:05:40.577454,-16
14:05:40.577454,-769
14:05:40.577454,-1
14:05:40.577454,-14
14:05:40.577454,-5121
14:05:40.577454,-1
14:05:40.577454,-19
14:05:40.577454,-3329
14:05:40.577454,-1
14:05:40.577454,-14
14:05:40.577454,-6401
14:05:40.577454,-1
14:05:40.577454,-24
14:05:40.577454,-5121
14:05:40.577454,-1
14:05:40.577454,-19
14:05:41.118309,-2
14:05:41.118309,-5121
14:05:41.118309,-1
14:05:41.118309,-55
14:05:41.118309,-14337
14:05:41.118309,-1
14:05:41.118309,-45
14:05:41.118309,-5121
14:05:41.118309,-1
14:05:41.118309,24
14:05:41.118309,11008
14:05:41.118309,0
14:05:41.118309,4
14:05:41.118309,-3072
14:05:41.118309,-1
14:05:41.118309,24
14:05:41.118309,9216
14:05:41.118309,0
14:05:41.118309,28
14:05:41.118309,10240
14:05:41.118309,0
14:05:41.118309,31
14:05:41.118309,-8448
14:05:41.118309,-1
14:05:41.118309,-9
14:05:41.118309,-21249
14:05:41.118309,1
14:05:41.118309,1110
14:05:41.118309,-3328
14:05:41.118309,3
14:05:41.118309,154
14:05:41.118309,31232
14:05:41.118309,-1
14:05:41.118309,84
14:05:41.118309,-512
14:05:41.118309,-1
14:05:41.118309,-118
14:05:41.118309,-8193
14:05:41.118309,-1
14:05:41.118309,-7
14:05:41.118309,-9473
14:05:41.118309,-1
14:05:41.118309,-14
14:05:41.118309,255
14:05:41.118309,0
14:05:41.118309,-14
14:05:41.118309,767
14:05:41.118309,0
14:05:41.118309,24
14:05:41.118309,4096
14:05:41.118309,0
14:05:41.118309,19
14:05:41.118309,9216
14:05:41.118309,0
14:05:41.118309,45
14:05:41.118309,9216
14:05:41.118309,0
14:05:41.118309,26
14:05:41.118309,11008
14:05:41.118309,0
14:05:41.118309,48
14:05:41.118309,11008
14:05:41.118309,0
14:05:41.118309,60
14:05:41.118309,14080
14:05:41.118309,0
14:05:41.118309,43
14:05:41.118309,12800
14:05:41.118309,0
14:05:41.118309,52
14:05:41.118309,10240
14:05:41.118309,0
14:05:41.118309,33
14:05:41.118309,9216
14:05:41.118309,0
14:05:41.118309,33
14:05:41.118309,4096
14:05:41.118309,0
14:05:41.118309,7
14:05:41.118309,2304
14:05:41.118309,0
14:05:41.118309,12
14:05:41.118309,5376
14:05:41.118309,0
14:05:41.118309,31
14:05:41.118309,8448
14:05:41.118309,0
14:05:41.118309,21
14:05:41.118309,4864
14:05:41.118309,0
14:05:41.118309,36
14:05:41.118309,11008
14:05:41.118309,0
14:05:41.118309,43
14:05:41.118309,12800
14:05:41.118309,0
14:05:41.118309,48
14:05:41.118309,12288
14:05:41.118309,0
14:05:41.118309,57
14:05:41.118309,17152
14:05:41.118309,0
14:05:41.118309,62
14:05:41.118309,13312
14:05:41.118309,0
14:05:41.118309,60
14:05:41.118309,15872
14:05:41.118309,0
14:05:41.118309,57
14:05:41.658386,62
14:05:41.658386,16640
14:05:41.658386,0
14:05:41.658386,65
14:05:41.658386,18432
14:05:41.658386,0
14:05:41.658386,50
14:05:41.658386,7936
14:05:41.658386,0
14:05:41.658386,28
14:05:41.658386,5376
14:05:41.658386,0
14:05:41.658386,38
14:05:41.658386,22016
14:05:41.658386,0
14:05:41.658386,127
14:05:41.658386,31232
14:05:41.658386,0
14:05:41.658386,84
14:05:41.658386,19712
14:05:41.658386,0
14:05:41.658386,91
14:05:41.658386,23296
14:05:41.658386,0
14:05:41.658386,89
14:05:41.658386,22784
14:05:41.658386,0
14:05:41.658386,65
14:05:41.658386,4864
14:05:41.658386,0
14:05:41.658386,202
14:05:41.658386,27136
14:05:41.658386,3
14:05:41.658386,1334
14:05:41.658386,-14848
14:05:41.658386,2
14:05:41.658386,-93
14:05:41.658386,-8961
14:05:41.658386,-1
14:05:41.658386,134
14:05:41.658386,-11520
14:05:41.658386,-1
14:05:41.658386,-74
14:05:41.658386,5119
14:05:41.658386,0
14:05:41.658386,-19
14:05:41.658386,-8961
14:05:41.658386,-1
14:05:41.658386,7
14:05:41.658386,1792
14:05:41.658386,0
14:05:41.658386,-7
14:05:41.658386,1279
14:05:41.658386,0
14:05:41.658386,14
14:05:41.658386,5376
14:05:41.658386,0
14:05:41.658386,21
14:05:41.658386,6656
14:05:41.658386,0
14:05:41.658386,43
14:05:41.658386,14592
14:05:41.658386,0
14:05:41.658386,38
14:05:41.658386,4864
14:05:41.658386,0
14:05:41.658386,28
14:05:41.658386,7168
14:05:41.658386,0
14:05:41.658386,12
14:05:41.658386,1024
14:05:41.658386,0
14:05:41.658386,7
14:05:41.658386,4096
14:05:41.658386,0
14:05:41.658386,19
14:05:41.658386,2304
14:05:41.658386,0
14:05:41.658386,7
14:05:41.658386,1792
14:05:41.658386,0
14:05:41.658386,0
14:05:41.658386,-1792
14:05:41.658386,-1
14:05:41.658386,-14
14:05:41.658386,-3329
14:05:41.658386,-1
14:05:41.658386,-16
14:05:41.658386,-2049
14:05:41.658386,-1
14:05:41.658386,4
14:05:41.658386,0
14:05:41.658386,0
14:05:41.658386,-9
14:05:41.658386,-257
14:05:41.658386,-1
14:05:41.658386,-2
14:05:41.658386,-2049
14:05:41.658386,-1
14:05:41.658386,-9
14:05:41.658386,255
14:05:41.658386,0
14:05:41.658386,4
14:05:41.658386,-512
14:05:41.658386,-1
14:05:41.658386,-2
14:05:41.658386,3327
14:05:41.658386,0
14:05:41.658386,19
14:05:42.243150,12
14:05:42.243150,2304
14:05:42.243150,0
14:05:42.243150,16
14:05:42.243150,2304
14:05:42.243150,0
14:05:42.243150,0
14:05:42.243150,1024
14:05:42.243150,0
14:05:42.243150,12
14:05:42.243150,4864
14:05:42.243150,0
14:05:42.243150,26
14:05:42.243150,1024
14:05:42.243150,0
14:05:42.243150,-16
14:05:42.243150,-2049
14:05:42.243150,-1
14:05:42.243150,2
14:05:42.243150,8448
14:05:42.243150,0
14:05:42.243150,65
14:05:42.243150,13312
14:05:42.243150,0
14:05:42.243150,24
14:05:42.243150,4864
14:05:42.243150,0
14:05:42.243150,38
14:05:42.243150,11008
14:05:42.243150,0
14:05:42.243150,33
14:05:42.243150,6656
14:05:42.243150,0
14:05:42.243150,0
14:05:42.243150,-4096
14:05:42.243150,-1
14:05:42.243150,240
14:05:42.243150,-23040
14:05:42.243150,3
14:05:42.243150,1250
14:05:42.243150,-4096
14:05:42.243150,1
14:05:42.243150,-192
14:05:42.243150,-11265
14:05:42.243150,-1
14:05:42.243150,48
14:05:42.243150,-29440
14:05:42.243150,-1
14:05:42.243150,-74
14:05:42.243150,-2817
14:05:42.243150,-1
14:05:42.243150,-72
14:05:42.243150,-18689
14:05:42.243150,-1
14:05:42.243150,-28
14:05:42.243150,-8193
14:05:42.243150,-1
14:05:42.243150,-40
14:05:42.243150,-5121
14:05:42.243150,-1
14:05:42.243150,-16
14:05:42.243150,-5889
14:05:42.243150,-1
14:05:42.243150,-21
14:05:42.243150,-3841
14:05:42.243150,-1
14:05:42.243150,-12
14:05:42.243150,-3329
14:05:42.243150,-1
14:05:42.243150,-21
14:05:42.243150,-2049
14:05:42.243150,-1
14:05:42.243150,0
14:05:42.243150,-3584
14:05:42.243150,-1
14:05:42.243150,-31
14:05:42.243150,-8961
14:05:42.243150,-1
14:05:42.243150,-33
14:05:42.243150,-8193
14:05:42.243150,-1
14:05:42.243150,-28
14:05:42.243150,-4609
14:05:42.243150,-1
14:05:42.243150,-19
14:05:42.243150,-6401
14:05:42.243150,-1
14:05:42.243150,-28
14:05:42.243150,-7681
14:05:42.243150,-1
14:05:42.243150,-28
14:05:42.243150,-8193
14:05:42.243150,-1
14:05:42.243150,-45
14:05:42.243150,-10753
14:05:42.243150,-1
14:05:42.243150,-50
14:05:42.243150,-10753
14:05:42.243150,-1
14:05:42.243150,-7
14:05:42.243150,255
14:05:42.243150,0
14:05:42.243150,-26
14:05:42.243150,-8193
14:05:42.243150,-1
14:05:42.243150,-21
14:05:42.243150,-4609
14:05:42.243150,-1
14:05:42.243150,-19
14:05:42.783187,-16
14:05:42.783187,-3329
14:05:42.783187,-1
14:05:42.783187,-16
14:05:42.783187,-3329
14:05:42.783187,-1
14:05:42.783187,-12
14:05:42.783187,-257
14:05:42.783187,-1
14:05:42.783187,-2
14:05:42.783187,-2049
14:05:42.783187,-1
14:05:42.783187,-9
14:05:42.783187,-1537
14:05:42.783187,-1
14:05:42.783187,0
14:05:42.783187,1792
14:05:42.783187,0
14:05:42.783187,7
14:05:42.783187,-3072
14:05:42.783187,-1
14:05:42.783187,-40
14:05:42.783187,-8961
14:05:42.783187,-1
14:05:42.783187,-4
14:05:42.783187,6399
14:05:42.783187,0
14:05:42.783187,45
14:05:42.783187,7936
14:05:42.783187,0
14:05:42.783187,16
14:05:42.783187,6144
14:05:42.783187,0
14:05:42.783187,26
14:05:42.783187,6144
14:05:42.783187,0
14:05:42.783187,26
14:05:42.783187,6656
14:05:42.783187,0
14:05:42.783187,-7
14:05:42.783187,-7681
14:05:42.783187,-1
14:05:42.783187,279
14:05:42.783187,-8192
14:05:42.783187,3
14:05:42.783187,1158
14:05:42.783187,20736
14:05:42.783187,1
14:05:42.783187,-207
14:05:42.783187,-769
14:05:42.783187,-1
14:05:42.783187,21
14:05:42.783187,26880
14:05:42.783187,-1
14:05:42.783187,-93
14:05:42.783187,-9985
14:05:42.783187,-1
14:05:42.783187,-101
14:05:42.783187,-22529
14:05:42.783187,-1
14:05:42.783187,-60
14:05:42.783187,-18689
14:05:42.783187,-1
14:05:42.783187,-69
14:05:42.783187,-13825
14:05:42.783187,-1
14:05:42.783187,-48
14:05:42.783187,-10753
14:05:42.783187,-1
14:05:42.783187,-43
14:05:42.783187,-11265
14:05:42.783187,-1
14:05:42.783187,-50
14:05:42.783187,-12033
14:05:42.783187,-1
14:05:42.783187,-33
14:05:42.783187,-6913
14:05:42.783187,-1
14:05:42.783187,-40
14:05:42.783187,-13057
14:05:42.783187,-1
14:05:42.783187,-55
14:05:42.783187,-16385
14:05:42.783187,-1
14:05:42.783187,-77
14:05:42.783187,-15617
14:05:42.783187,-1
14:05:42.783187,-40
14:05:42.783187,-9473
14:05:42.783187,-1
14:05:42.783187,-40
14:05:42.783187,-12033
14:05:42.783187,-1
14:05:42.783187,-60
14:05:42.783187,-16897
14:05:42.783187,-1
14:05:42.783187,-69
14:05:42.783187,-15105
14:05:42.783187,-1
14:05:42.783187,-65
14:05:42.783187,-18177
14:05:42.783187,-1
14:05:42.783187,-72
14:05:42.783187,-19457
14:05:42.783187,-1
14:05:42.783187,-77
14:05:42.783187,-15105
14:05:42.783187,-1
14:05:42.783187,-48
14:05:43.322738,-60
14:05:43.322738,-18177
14:05:43.322738,-1
14:05:43.322738,-60
14:05:43.322738,-13057
14:05:43.322738,-1
14:05:43.322738,-52
14:05:43.322738,-11265
14:05:43.322738,-1
14:05:43.322738,-52
14:05:43.322738,-16385
14:05:43.322738,-1
14:05:43.322738,-50
14:05:43.322738,-6913
14:05:43.322738,-1
14:05:43.322738,-31
14:05:43.322738,-9985
14:05:43.322738,-1
14:05:43.322738,-38
14:05:43.322738,-9985
14:05:43.322738,-1
14:05:43.322738,-67
14:05:43.322738,-19969
14:05:43.322738,-1
14:05:43.322738,-62
14:05:43.322738,-16385
14:05:43.322738,-1
14:05:43.322738,-67
14:05:43.322738,-6401
14:05:43.322738,-1
14:05:43.322738,2
14:05:43.322738,-7936
14:05:43.322738,-1
14:05:43.322738,-55
14:05:43.322738,-6913
14:05:43.322738,-1
14:05:43.322738,-16
14:05:43.322738,-5889
14:05:43.322738,-1
14:05:43.322738,-14
14:05:43.322738,-6913
14:05:43.322738,-1
14:05:43.322738,-81
14:05:43.322738,-21761
14:05:43.322738,-1
14:05:43.322738,274
14:05:43.322738,-12032
14:05:43.322738,3
14:05:43.322738,1004
14:05:43.322738,-25600
14:05:43.322738,0
14:05:43.322738,-231
14:05:43.322738,-769
14:05:43.322738,-1
14:05:43.322738,-45
14:05:43.322738,17919
14:05:43.322738,-1
14:05:43.322738,-108
14:05:43.322738,-18689
14:05:43.322738,-1
14:05:43.322738,-122
14:05:43.322738,-25601
14:05:43.322738,-1
14:05:43.322738,-77
14:05:43.322738,-24321
14:05:43.322738,-1
14:05:43.322738,-89
14:05:43.322738,-15617
14:05:43.322738,-1
14:05:43.322738,-62
14:05:43.322738,-16897
14:05:43.322738,-1
14:05:43.322738,-55
14:05:43.322738,-9985
14:05:43.322738,-1
14:05:43.322738,-45
14:05:43.322738,-13057
14:05:43.322738,-1
14:05:43.322738,-36
14:05:43.322738,-5121
14:05:43.322738,-1
14:05:43.322738,-33
14:05:43.322738,-12033
14:05:43.322738,-1
14:05:43.322738,-52
14:05:43.322738,-9985
14:05:43.322738,-1
14:05:43.322738,-38
14:05:43.322738,-9985
14:05:43.322738,-1
14:05:43.322738,-28
14:05:43.322738,-5121
14:05:43.322738,-1
14:05:43.322738,-33
14:05:43.322738,-9985
14:05:43.322738,-1
14:05:43.322738,-40
14:05:43.322738,-10753
14:05:43.322738,-1
14:05:43.322738,-52
14:05:43.322738,-15105
14:05:43.322738,-1
14:05:43.322738,-52
14:05:43.322738,-10753
14:05:43.322738,-1
14:05:43.322738,-45
14:05:43.322738,-13057
14:05:43.322738,-1
14:05:43.322738,-38
14:05:43.863747,-21
14:05:43.863747,-6913
14:05:43.863747,-1
14:05:43.863747,-31
14:05:43.863747,-6401
14:05:43.863747,-1
14:05:43.863747,-21
14:05:43.863747,2559
14:05:43.863747,0
14:05:43.863747,24
14:05:43.863747,1792
14:05:43.863747,0
14:05:43.863747,2
14:05:43.863747,2304
14:05:43.863747,0
14:05:43.863747,7
14:05:43.863747,512
14:05:43.863747,0
14:05:43.863747,7
14:05:43.863747,512
14:05:43.863747,0
14:05:43.863747,-7
14:05:43.863747,-2817
14:05:43.863747,-1
14:05:43.863747,-40
14:05:43.863747,-13825
14:05:43.863747,-1
14:05:43.863747,-26
14:05:43.863747,-257
14:05:43.863747,-1
14:05:43.863747,16
14:05:43.863747,8448
14:05:43.863747,0
14:05:43.863747,14
14:05:43.863747,0
14:05:43.863747,0
14:05:43.863747,14
14:05:43.863747,5376
14:05:43.863747,0
14:05:43.863747,21
14:05:43.863747,6656
14:05:43.863747,0
14:05:43.863747,24
14:05:43.863747,-3072
14:05:43.863747,-1
14:05:43.863747,43
14:05:43.863747,9984
14:05:43.863747,2
14:05:43.863747,1214
14:05:43.863747,-17408
14:05:43.863747,3
14:05:43.863747,45
14:05:43.863747,21760
14:05:43.863747,-1
14:05:43.863747,65
14:05:43.863747,-11520
14:05:43.863747,-1
14:05:43.863747,-144
14:05:43.863747,-10753
14:05:43.863747,-1
14:05:43.863747,-45
14:05:43.863747,-21249
14:05:43.863747,-1
14:05:43.863747,-43
14:05:43.863747,-5889
14:05:43.863747,-1
14:05:43.863747,-43
14:05:43.863747,-8961
14:05:43.863747,-1
14:05:43.863747,-19
14:05:43.863747,-5889
14:05:43.863747,-1
14:05:43.863747,-31
14:05:43.863747,-2817
14:05:43.863747,-1
14:05:43.863747,-2
14:05:43.863747,-4609
14:05:43.863747,-1
14:05:43.863747,-28
14:05:43.863747,-6401
14:05:43.863747,-1
14:05:43.863747,-28
14:05:43.863747,-6401
14:05:43.863747,-1
14:05:43.863747,-28
14:05:43.863747,-9985
14:05:43.863747,-1
14:05:43.863747,-40
14:05:43.863747,-6401
14:05:43.863747,-1
14:05:43.863747,-9
14:05:43.863747,2047
14:05:43.863747,0
14:05:43.863747,12
14:05:43.863747,1792
14:05:43.863747,0
14:05:43.863747,4
14:05:43.863747,1024
14:05:43.863747,0
14:05:43.863747,-12
14:05:43.863747,-5121
14:05:43.863747,-1
14:05:43.863747,-9
14:05:43.863747,-257
14:05:43.863747,-1
14:05:43.863747,4
14:05:43.863747,512
14:05:43.863747,0
14:05:43.863747,-4
14:05:44.493734,0
14:05:44.493734,1792
14:05:44.493734,0
14:05:44.493734,19
14:05:44.493734,8448
14:05:44.493734,0
14:05:44.493734,40
14:05:44.493734,9216
14:05:44.493734,0
14:05:44.493734,33
14:05:44.493734,10240
14:05:44.493734,0
14:05:44.493734,48
14:05:44.493734,12288
14:05:44.493734,0
14:05:44.493734,45
14:05:44.493734,8448
14:05:44.493734,0
14:05:44.493734,31
14:05:44.493734,11520
14:05:44.493734,0
14:05:44.493734,52
14:05:44.493734,9728
14:05:44.493734,0
14:05:44.493734,14
14:05:44.493734,-1024
14:05:44.493734,-1
14:05:44.493734,2
14:05:44.493734,8448
14:05:44.493734,0
14:05:44.493734,77
14:05:44.493734,23808
14:05:44.493734,0
14:05:44.493734,67
14:05:44.493734,11520
14:05:44.493734,0
14:05:44.493734,60
14:05:44.493734,18944
14:05:44.493734,0
14:05:44.493734,65
14:05:44.493734,17664
14:05:44.493734,0
14:05:44.493734,74
14:05:44.493734,5376
14:05:44.493734,0
14:05:44.493734,38
14:05:44.493734,-4864
14:05:44.493734,1
14:05:44.493734,1189
14:05:44.493734,10240
14:05:44.493734,4
14:05:44.493734,161
14:05:44.493734,25088
14:05:44.493734,-1
14:05:44.493734,81
14:05:44.493734,4096
14:05:44.493734,0
14:05:44.493734,-108
14:05:44.493734,-6913
14:05:44.493734,-1
14:05:44.493734,-16
14:05:44.493734,-13825
14:05:44.493734,-1
14:05:44.493734,-21
14:05:44.493734,-257
14:05:44.493734,-1
14:05:44.493734,-12
14:05:44.493734,-257
14:05:44.493734,-1
14:05:44.493734,12
14:05:44.493734,3584
14:05:44.493734,0
14:05:44.493734,12
14:05:44.493734,3584
14:05:44.493734,0
14:05:44.493734,26
14:05:44.493734,6144
14:05:44.493734,0
14:05:44.493734,12
14:05:44.493734,2304
14:05:44.493734,0
14:05:44.493734,16
14:05:44.493734,3072
14:05:44.493734,0
14:05:44.493734,-2
14:05:44.493734,255
14:05:44.493734,0
14:05:44.493734,2
14:05:44.493734,1024
14:05:44.493734,0
14:05:44.493734,12
14:05:44.493734,3584
14:05:44.493734,0
14:05:44.493734,16
14:05:44.493734,4096
14:05:44.493734,0
14:05:44.493734,16
14:05:44.493734,3584
14:05:44.493734,0
14:05:44.493734,0
14:05:44.493734,-512
14:05:44.493734,-1
14:05:44.493734,7
14:05:44.493734,512
14:05:44.493734,0
14:05:44.493734,2
14:05:44.493734,1792
14:05:44.493734,0
14:05:44.493734,16
14:05:45.033334,16
14:05:45.033334,1792
14:05:45.033334,0
14:05:45.033334,9
14:05:45.033334,3584
14:05:45.033334,0
14:05:45.033334,12
14:05:45.033334,3072
14:05:45.033334,0
14:05:45.033334,14
14:05:45.033334,5376
14:05:45.033334,0
14:05:45.033334,19
14:05:45.033334,3072
14:05:45.033334,0
14:05:45.033334,14
14:05:45.033334,6144
14:05:45.033334,0
14:05:45.033334,50
14:05:45.033334,13312
14:05:45.033334,0
14:05:45.033334,24
14:05:45.033334,3072
14:05:45.033334,0
14:05:45.033334,0
14:05:45.033334,-3584
14:05:45.033334,-1
14:05:45.033334,2
14:05:45.033334,8448
14:05:45.033334,0
14:05:45.033334,60
14:05:45.033334,14080
14:05:45.033334,0
14:05:45.033334,36
14:05:45.033334,11008
14:05:45.033334,0
14:05:45.033334,48
14:05:45.033334,10240
14:05:45.033334,0
14:05:45.033334,48
14:05:45.033334,13312
14:05:45.033334,0
14:05:45.033334,31
14:05:45.033334,-4096
14:05:45.033334,-1
14:05:45.033334,146
14:05:45.033334,4352
14:05:45.033334,3
14:05:45.033334,1226
14:05:45.033334,27392
14:05:45.033334,2
14:05:45.033334,-142
14:05:45.033334,-18689
14:05:45.033334,-1
14:05:45.033334,79
14:05:45.033334,-22016
14:05:45.033334,-1
14:05:45.033334,-89
14:05:45.033334,-257
14:05:45.033334,-1
14:05:45.033334,-52
14:05:45.033334,-19457
14:05:45.033334,-1
14:05:45.033334,-28
14:05:45.033334,-3841
14:05:45.033334,-1
14:05:45.033334,-28
14:05:45.033334,-5889
14:05:45.033334,-1
14:05:45.033334,-7
14:05:45.033334,255
14:05:45.033334,0
14:05:45.033334,-2
14:05:45.033334,-1537
14:05:45.033334,-1
14:05:45.033334,-9
14:05:45.033334,-257
14:05:45.033334,-1
14:05:45.033334,0
14:05:45.033334,-2304
14:05:45.033334,-1
14:05:45.033334,-9
14:05:45.033334,-769
14:05:45.033334,-1
14:05:45.033334,-14
14:05:45.033334,-6913
14:05:45.033334,-1
14:05:45.033334,-28
14:05:45.033334,-769
14:05:45.033334,-1
14:05:45.033334,12
14:05:45.033334,0
14:05:45.033334,0
14:05:45.033334,-16
14:05:45.033334,-5889
14:05:45.033334,-1
14:05:45.033334,-24
14:05:45.033334,-7681
14:05:45.033334,-1
14:05:45.033334,-45
14:05:45.033334,-9985
14:05:45.033334,-1
14:05:45.033334,-33
14:05:45.033334,-8961
14:05:45.033334,-1
14:05:45.033334,-36
14:05:45.033334,-8193
14:05:45.033334,-1
14:05:45.033334,-24
14:05:45.573461,-16
14:05:45.573461,-2817
14:05:45.573461,-1
14:05:45.573461,-4
14:05:45.573461,-3329
14:05:45.573461,-1
14:05:45.573461,-12
14:05:45.573461,-257
14:05:45.573461,-1
14:05:45.573461,-9
14:05:45.573461,-1537
14:05:45.573461,-1
14:05:45.573461,4
14:05:45.573461,3584
14:05:45.573461,0
14:05:45.573461,19
14:05:45.573461,3072
14:05:45.573461,0
14:05:45.573461,7
14:05:45.573461,1024
14:05:45.573461,0
14:05:45.573461,-4
14:05:45.573461,-2817
14:05:45.573461,-1
14:05:45.573461,-26
14:05:45.573461,-8961
14:05:45.573461,-1
14:05:45.573461,-14
14:05:45.573461,8191
14:05:45.573461,0
14:05:45.573461,50
14:05:45.573461,3072
14:05:45.573461,0
14:05:45.573461,0
14:05:45.573461,9216
14:05:45.573461,0
14:05:45.573461,31
14:05:45.573461,3584
14:05:45.573461,0
14:05:45.573461,28
14:05:45.573461,6144
14:05:45.573461,0
14:05:45.573461,-19
14:05:45.573461,2047
14:05:45.573461,0
14:05:45.573461,428
14:05:45.573461,19456
14:05:45.573461,4
14:05:45.573461,977
14:05:45.573461,25856
14:05:45.573461,0
14:05:45.573461,-187
14:05:45.573461,15615
14:05:45.573461,0
14:05:45.573461,-14
14:05:45.573461,27135
14:05:45.573461,-1
14:05:45.573461,-65
14:05:45.573461,-8193
14:05:45.573461,-1
14:05:45.573461,-79
14:05:45.573461,-14337
14:05:45.573461,-1
14:05:45.573461,-28
14:05:45.573461,-8193
14:05:45.573461,-1
14:05:45.573461,-26
14:05:45.573461,-3329
14:05:45.573461,-1
14:05:45.573461,-14
14:05:45.573461,-2817
14:05:45.573461,-1
14:05:45.573461,-4
14:05:45.573461,-1537
14:05:45.573461,-1
14:05:45.573461,-14
14:05:45.573461,-3329
14:05:45.573461,-1
14:05:45.573461,-2
14:05:45.573461,-769
14:05:45.573461,-1
14:05:45.573461,-9
14:05:45.573461,-4609
14:05:45.573461,-1
14:05:45.573461,-28
14:05:45.573461,-6401
14:05:45.573461,-1
14:05:45.573461,-14
14:05:45.573461,-769
14:05:45.573461,-1
14:05:45.573461,-4
14:05:45.573461,-2817
14:05:45.573461,-1
14:05:45.573461,-19
14:05:45.573461,-6913
14:05:45.573461,-1
14:05:45.573461,-43
14:05:45.573461,-14337
14:05:45.573461,-1
14:05:45.573461,-57
14:05:45.573461,-9985
14:05:45.573461,-1
14:05:45.573461,-33
14:05:45.573461,-9985
14:05:45.573461,-1
14:05:45.573461,-40
14:05:45.573461,-9473
14:05:45.573461,-1
14:05:45.573461,-33
14:05:46.158361,-28
14:05:46.158361,-5889
14:05:46.158361,-1
14:05:46.158361,-19
14:05:46.158361,-6401
14:05:46.158361,-1
14:05:46.158361,-26
14:05:46.158361,-1537
14:05:46.158361,-1
14:05:46.158361,4
14:05:46.158361,1024
14:05:46.158361,0
14:05:46.158361,9
14:05:46.158361,3072
14:05:46.158361,0
14:05:46.158361,21
14:05:46.158361,4864
14:05:46.158361,0
14:05:46.158361,7
14:05:46.158361,-2304
14:05:46.158361,-1
14:05:46.158361,-28
14:05:46.158361,-8961
14:05:46.158361,-1
14:05:46.158361,-33
14:05:46.158361,-6401
14:05:46.158361,-1
14:05:46.158361,7
14:05:46.158361,12800
14:05:46.158361,0
14:05:46.158361,36
14:05:46.158361,-2304
14:05:46.158361,-1
14:05:46.158361,2
14:05:46.158361,11008
14:05:46.158361,0
14:05:46.158361,36
14:05:46.158361,4864
14:05:46.158361,0
14:05:46.158361,21
14:05:46.158361,1024
14:05:46.158361,0
14:05:46.158361,-38
14:05:46.158361,-25857
14:05:46.158361,0
14:05:46.158361,814
14:05:46.158361,-25600
14:05:46.158361,4
14:05:46.158361,498
14:05:46.158361,18176
14:05:46.158361,-1
14:05:46.158361,-45
14:05:46.158361,15615
14:05:46.158361,0
14:05:46.158361,-118
14:05:46.158361,-25601
14:05:46.158361,-1
14:05:46.158361,-26
14:05:46.158361,-18177
14:05:46.158361,-1
14:05:46.158361,-74
14:05:46.158361,-8193
14:05:46.158361,-1
14:05:46.158361,-33
14:05:46.158361,-7681
14:05:46.158361,-1
14:05:46.158361,-16
14:05:46.158361,-3841
14:05:46.158361,-1
14:05:46.158361,-12
14:05:46.158361,-1537
14:05:46.158361,-1
14:05:46.158361,-9
14:05:46.158361,-2049
14:05:46.158361,-1
14:05:46.158361,-7
14:05:46.158361,-769
14:05:46.158361,-1
14:05:46.158361,-4
14:05:46.158361,-2817
14:05:46.158361,-1
14:05:46.158361,-21
14:05:46.158361,-7681
14:05:46.158361,-1
14:05:46.158361,-31
14:05:46.158361,-2049
14:05:46.158361,-1
14:05:46.158361,2
14:05:46.158361,-1792
14:05:46.158361,-1
14:05:46.158361,-24
14:05:46.158361,-6913
14:05:46.158361,-1
14:05:46.158361,-36
14:05:46.158361,-11265
14:05:46.158361,-1
14:05:46.158361,-48
14:05:46.158361,-14337
14:05:46.158361,-1
14:05:46.158361,-62
14:05:46.158361,-12545
14:05:46.158361,-1
14:05:46.158361,-55
14:05:46.158361,-16897
14:05:46.158361,-1
14:05:46.158361,-57
14:05:46.158361,-10753
14:05:46.158361,-1
14:05:46.158361,-45
14:05:46.698265,-57
14:05:46.698265,-13057
14:05:46.698265,-1
14:05:46.698265,-36
14:05:46.698265,-9473
14:05:46.698265,-1
14:05:46.698265,-48
14:05:46.698265,-9473
14:05:46.698265,-1
14:05:46.698265,-31
14:05:46.698265,-6913
14:05:46.698265,-1
14:05:46.698265,-36
14:05:46.698265,-6401
14:05:46.698265,-1
14:05:46.698265,-7
14:05:46.698265,-2817
14:05:46.698265,-1
14:05:46.698265,-14
14:05:46.698265,-5121
14:05:46.698265,-1
14:05:46.698265,-50
14:05:46.698265,-16385
14:05:46.698265,-1
14:05:46.698265,-57
14:05:46.698265,-12545
14:05:46.698265,-1
14:05:46.698265,-19
14:05:46.698265,3327
14:05:46.698265,0
14:05:46.698265,-2
14:05:46.698265,-6913
14:05:46.698265,-1
14:05:46.698265,-24
14:05:46.698265,-3841
14:05:46.698265,-1
14:05:46.698265,-21
14:05:46.698265,-2817
14:05:46.698265,-1
14:05:46.698265,-2
14:05:46.698265,-10753
14:05:46.698265,-1
14:05:46.698265,-101
14:05:46.698265,25343
14:05:46.698265,0
14:05:46.698265,770
14:05:46.698265,-32512
14:05:46.698265,4
14:05:46.698265,491
14:05:46.698265,15104
14:05:46.698265,-1
14:05:46.698265,-77
14:05:46.698265,8191
14:05:46.698265,0
14:05:46.698265,-146
14:05:46.698265,30207
14:05:46.698265,-1
14:05:46.698265,-60
14:05:46.698265,-23553
14:05:46.698265,-1
14:05:46.698265,-101
14:05:46.698265,-17409
14:05:46.698265,-1
14:05:46.698265,-72
14:05:46.698265,-17409
14:05:46.698265,-1
14:05:46.698265,-48
14:05:46.698265,-12033
14:05:46.698265,-1
14:05:46.698265,-50
14:05:46.698265,-7681
14:05:46.698265,-1
14:05:46.698265,-16
14:05:46.698265,-5889
14:05:46.698265,-1
14:05:46.698265,-31
14:05:46.698265,-3329
14:05:46.698265,-1
14:05:46.698265,-9
14:05:46.698265,-6401
14:05:46.698265,-1
14:05:46.698265,-33
14:05:46.698265,-8193
14:05:46.698265,-1
14:05:46.698265,-28
14:05:46.698265,-7681
14:05:46.698265,-1
14:05:46.698265,-16
14:05:46.698265,2559
14:05:46.698265,0
14:05:46.698265,-14
14:05:46.698265,-9985
14:05:46.698265,-1
14:05:46.698265,-31
14:05:46.698265,-11265
14:05:46.698265,-1
14:05:46.698265,-67
14:05:46.698265,-16897
14:05:46.698265,-1
14:05:46.698265,-62
14:05:46.698265,-14337
14:05:46.698265,-1
14:05:46.698265,-57
14:05:46.698265,-13825
14:05:46.698265,-1
14:05:46.698265,-52
14:05:46.698265,-14337
14:05:46.698265,-1
14:05:46.698265,-50
14:05:47.238295,-36
14:05:47.238295,-3841
14:05:47.238295,-1
14:05:47.238295,-12
14:05:47.238295,-6401
14:05:47.238295,-1
14:05:47.238295,-21
14:05:47.238295,-1537
14:05:47.238295,-1
14:05:47.238295,-9
14:05:47.238295,3327
14:05:47.238295,0
14:05:47.238295,33
14:05:47.238295,4864
14:05:47.238295,0
14:05:47.238295,4
14:05:47.238295,4096
14:05:47.238295,0
14:05:47.238295,38
14:05:47.238295,7168
14:05:47.238295,0
14:05:47.238295,7
14:05:47.238295,0
14:05:47.238295,0
14:05:47.238295,-12
14:05:47.238295,-2817
14:05:47.238295,-1
14:05:47.238295,7
14:05:47.238295,7168
14:05:47.238295,0
14:05:47.238295,60
14:05:47.238295,17152
14:05:47.238295,0
14:05:47.238295,38
14:05:47.238295,7936
14:05:47.238295,0
14:05:47.238295,45
14:05:47.238295,15360
14:05:47.238295,0
14:05:47.238295,62
14:05:47.238295,15872
14:05:47.238295,0
14:05:47.238295,31
14:05:47.238295,-3584
14:05:47.238295,-1
14:05:47.238295,199
14:05:47.238295,28416
14:05:47.238295,3
14:05:47.238295,1259
14:05:47.238295,19968
14:05:47.238295,2
14:05:47.238295,-125
14:05:47.238295,-4609
14:05:47.238295,-1
14:05:47.238295,108
14:05:47.238295,-18944
14:05:47.238295,-1
14:05:47.238295,-65
14:05:47.238295,5631
14:05:47.238295,0
14:05:47.238295,-21
14:05:47.238295,-8961
14:05:47.238295,-1
14:05:47.238295,0
14:05:47.238295,1024
14:05:47.238295,0
14:05:47.238295,2
14:05:47.238295,4864
14:05:47.238295,0
14:05:47.238295,38
14:05:47.238295,11008
14:05:47.238295,0
14:05:47.238295,40
14:05:47.238295,9216
14:05:47.238295,0
14:05:47.238295,40
14:05:47.238295,14080
14:05:47.238295,0
14:05:47.238295,55
14:05:47.238295,11520
14:05:47.238295,0
14:05:47.238295,40
14:05:47.238295,8448
14:05:47.238295,0
14:05:47.238295,28
14:05:47.238295,5376
14:05:47.238295,0
14:05:47.238295,24
14:05:47.238295,9216
14:05:47.238295,0
14:05:47.238295,36
14:05:47.238295,8448
14:05:47.238295,0
14:05:47.238295,38
14:05:47.238295,6144
14:05:47.238295,0
14:05:47.238295,4
14:05:47.238295,1024
14:05:47.238295,0
14:05:47.238295,4
14:05:47.238295,0
14:05:47.238295,0
14:05:47.238295,-7
14:05:47.238295,-2049
14:05:47.238295,-1
14:05:47.238295,0
14:05:47.238295,1792
14:05:47.238295,0
14:05:47.238295,9
14:05:47.868273,0
14:05:47.868273,-512
14:05:47.868273,-1
14:05:47.868273,14
14:05:47.868273,6144
14:05:47.868273,0
14:05:47.868273,26
14:05:47.868273,10240
14:05:47.868273,0
14:05:47.868273,48
14:05:47.868273,10240
14:05:47.868273,0
14:05:47.868273,26
14:05:47.868273,6144
14:05:47.868273,0
14:05:47.868273,36
14:05:47.868273,9728
14:05:47.868273,0
14:05:47.868273,36
14:05:47.868273,7168
14:05:47.868273,0
14:05:47.868273,33
14:05:47.868273,11520
14:05:47.868273,0
14:05:47.868273,40
14:05:47.868273,4864
14:05:47.868273,0
14:05:47.868273,-12
14:05:47.868273,-5889
14:05:47.868273,-1
14:05:47.868273,-2
14:05:47.868273,6911
14:05:47.868273,0
14:05:47.868273,55
14:05:47.868273,17152
14:05:47.868273,0
14:05:47.868273,36
14:05:47.868273,6144
14:05:47.868273,0
14:05:47.868273,50
14:05:47.868273,14592
14:05:47.868273,0
14:05:47.868273,45
14:05:47.868273,12288
14:05:47.868273,0
14:05:47.868273,43
14:05:47.868273,-2304
14:05:47.868273,-1
14:05:47.868273,84
14:05:47.868273,-27136
14:05:47.868273,2
14:05:47.868273,1242
14:05:47.868273,10496
14:05:47.868273,3
14:05:47.868273,-52
14:05:47.868273,-31745
14:05:47.868273,-1
14:05:47.868273,79
14:05:47.868273,-17664
14:05:47.868273,-1
14:05:47.868273,-125
14:05:47.868273,-5121
14:05:47.868273,-1
14:05:47.868273,-38
14:05:47.868273,-19969
14:05:47.868273,-1
14:05:47.868273,-43
14:05:47.868273,-5889
14:05:47.868273,-1
14:05:47.868273,-26
14:05:47.868273,-5121
14:05:47.868273,-1
14:05:47.868273,-16
14:05:47.868273,-769
14:05:47.868273,-1
14:05:47.868273,14
14:05:47.868273,4096
14:05:47.868273,0
14:05:47.868273,9
14:05:47.868273,4864
14:05:47.868273,0
14:05:47.868273,33
14:05:47.868273,4096
14:05:47.868273,0
14:05:47.868273,7
14:05:47.868273,2304
14:05:47.868273,0
14:05:47.868273,4
14:05:47.868273,0
14:05:47.868273,0
14:05:47.868273,0
14:05:47.868273,512
14:05:47.868273,0
14:05:47.868273,0
14:05:47.868273,-512
14:05:47.868273,-1
14:05:47.868273,9
14:05:47.868273,512
14:05:47.868273,0
14:05:47.868273,-19
14:05:47.868273,-5121
14:05:47.868273,-1
14:05:47.868273,-21
14:05:47.868273,-6913
14:05:47.868273,-1
14:05:47.868273,-28
14:05:47.868273,-6401
14:05:47.868273,-1
14:05:47.868273,-33
14:05:48.452648,-36
14:05:48.452648,-5121
14:05:48.452648,-1
14:05:48.452648,-19
14:05:48.452648,-4609
14:05:48.452648,-1
14:05:48.452648,-14
14:05:48.452648,-6401
14:05:48.452648,-1
14:05:48.452648,-26
14:05:48.452648,767
14:05:48.452648,0
14:05:48.452648,9
14:05:48.452648,-1024
14:05:48.452648,-1
14:05:48.452648,-12
14:05:48.452648,255
14:05:48.452648,0
14:05:48.452648,14
14:05:48.452648,3072
14:05:48.452648,0
14:05:48.452648,16
14:05:48.452648,6144
14:05:48.452648,0
14:05:48.452648,26
14:05:48.452648,6656
14:05:48.452648,0
14:05:48.452648,16
14:05:48.452648,1792
14:05:48.452648,0
14:05:48.452648,9
14:05:48.452648,-512
14:05:48.452648,-1
14:05:48.452648,-19
14:05:48.452648,-2049
14:05:48.452648,-1
14:05:48.452648,14
14:05:48.452648,11520
14:05:48.452648,0
14:05:48.452648,52
14:05:48.452648,6656
14:05:48.452648,0
14:05:48.452648,12
14:05:48.452648,6144
14:05:48.452648,0
14:05:48.452648,31
14:05:48.452648,7936
14:05:48.452648,0
14:05:48.452648,26
14:05:48.452648,1024
14:05:48.452648,0
14:05:48.452648,-48
14:05:48.452648,11263
14:05:48.452648,0
14:05:48.452648,611
14:05:48.452648,-13824
14:05:48.452648,4
14:05:48.452648,833
14:05:48.452648,-16640
14:05:48.452648,-1
14:05:48.452648,-158
14:05:48.452648,19967
14:05:48.452648,0
14:05:48.452648,-77
14:05:48.452648,24063
14:05:48.452648,-1
14:05:48.452648,-62
14:05:48.452648,-17409
14:05:48.452648,-1
14:05:48.452648,-103
14:05:48.452648,-18689
14:05:48.452648,-1
14:05:48.452648,-62
14:05:48.452648,-17409
14:05:48.452648,-1
14:05:48.452648,-57
14:05:48.452648,-12545
14:05:48.452648,-1
14:05:48.452648,-45
14:05:48.452648,-6401
14:05:48.452648,-1
14:05:48.452648,-24
14:05:48.452648,-9985
14:05:48.452648,-1
14:05:48.452648,-33
14:05:48.452648,-5889
14:05:48.452648,-1
14:05:48.452648,-40
14:05:48.452648,-11265
14:05:48.452648,-1
14:05:48.452648,-45
14:05:48.452648,-15617
14:05:48.452648,-1
14:05:48.452648,-72
14:05:48.452648,-15617
14:05:48.452648,-1
14:05:48.452648,-48
14:05:48.452648,-11265
14:05:48.452648,-1
14:05:48.452648,-60
14:05:48.452648,-17409
14:05:48.452648,-1
14:05:48.452648,-62
14:05:48.452648,-14337
14:05:48.452648,-1
14:05:48.452648,-81
14:05:48.452648,-24321
14:05:48.452648,-1
14:05:48.452648,-86
14:05:48.947726,-91
14:05:48.947726,-24833
14:05:48.947726,-1
14:05:48.947726,-96
14:05:48.947726,-20481
14:05:48.947726,-1
14:05:48.947726,-69
14:05:48.947726,-21761
14:05:48.947726,-1
14:05:48.947726,-96
14:05:48.947726,-19457
14:05:48.947726,-1
14:05:48.947726,-69
14:05:48.947726,-18689
14:05:48.947726,-1
14:05:48.947726,-65
14:05:48.947726,-14337
14:05:48.947726,-1
14:05:48.947726,-57
14:05:48.947726,-16385
14:05:48.947726,-1
14:05:48.947726,-57
14:05:48.947726,-11265
14:05:48.947726,-1
14:05:48.947726,-43
14:05:48.947726,-9473
14:05:48.947726,-1
14:05:48.947726,-40
14:05:48.947726,-9985
14:05:48.947726,-1
14:05:48.947726,-31
14:05:48.947726,-6913
14:05:48.947726,-1
14:05:48.947726,-38
14:05:48.947726,-11265
14:05:48.947726,-1
14:05:48.947726,-50
14:05:48.947726,-16385
14:05:48.947726,-1
14:05:48.947726,-79
14:05:48.947726,-19457
14:05:48.947726,-1
14:05:48.947726,-50
14:05:48.947726,-3329
14:05:48.947726,-1
14:05:48.947726,-2
14:05:48.947726,-8193
14:05:48.947726,-1
14:05:48.947726,-48
14:05:48.947726,-3841
14:05:48.947726,-1
14:05:48.947726,-14
14:05:48.947726,-6401
14:05:48.947726,-1
14:05:48.947726,-19
14:05:48.947726,-9985
14:05:48.947726,-1
14:05:48.947726,-105
14:05:48.947726,2047
14:05:48.947726,0
14:05:48.947726,616
14:05:48.947726,-23808
14:05:48.947726,4
14:05:48.947726,713
14:05:48.947726,-32000
14:05:48.947726,-1
14:05:48.947726,-142
14:05:48.947726,10495
14:05:48.947726,0
14:05:48.947726,-120
14:05:48.947726,24575
14:05:48.947726,-1
14:05:48.947726,-67
14:05:48.947726,-23553
14:05:48.947726,-1
14:05:48.947726,-118
14:05:48.947726,-19457
14:05:48.947726,-1
14:05:48.947726,-72
14:05:48.947726,-19457
14:05:48.947726,-1
14:05:48.947726,-57
14:05:48.947726,-12545
14:05:48.947726,-1
14:05:48.947726,-50
14:05:48.947726,-9985
14:05:48.947726,-1
14:05:48.947726,-31
14:05:48.947726,-7681
14:05:48.947726,-1
14:05:48.947726,-33
14:05:48.947726,-4609
14:05:48.947726,-1
14:05:48.947726,-9
14:05:48.947726,-5121
14:05:48.947726,-1
14:05:48.947726,-28
14:05:48.947726,-5889
14:05:48.947726,-1
14:05:48.947726,-24
14:05:48.947726,-5889
14:05:48.947726,-1
14:05:48.947726,-24
14:05:48.947726,-5121
14:05:48.947726,-1
14:05:48.947726,-24
14:05:48.947726,-6401
14:05:48.947726,-1
14:05:48.947726,-26
14:05:49.488413,-38
14:05:49.488413,-12033
14:05:49.488413,-1
14:05:49.488413,-50
14:05:49.488413,-12545
14:05:49.488413,-1
14:05:49.488413,-38
14:05:49.488413,-9985
14:05:49.488413,-1
14:05:49.488413,-50
14:05:49.488413,-8961
14:05:49.488413,-1
14:05:49.488413,-14
14:05:49.488413,-1537
14:05:49.488413,-1
14:05:49.488413,-2
14:05:49.488413,2047
14:05:49.488413,0
14:05:49.488413,9
14:05:49.488413,1024
14:05:49.488413,0
14:05:49.488413,14
14:05:49.488413,3584
14:05:49.488413,0
14:05:49.488413,9
14:05:49.488413,6144
14:05:49.488413,0
14:05:49.488413,31
14:05:49.488413,6656
14:05:49.488413,0
14:05:49.488413,28
14:05:49.488413,6656
14:05:49.488413,0
14:05:49.488413,14
14:05:49.488413,4096
14:05:49.488413,0
14:05:49.488413,36
14:05:49.488413,11008
14:05:49.488413,0
14:05:49.488413,28
14:05:49.488413,7168
14:05:49.488413,0
14:05:49.488413,21
14:05:49.488413,-512
14:05:49.488413,-1
14:05:49.488413,-16
14:05:49.488413,-3841
14:05:49.488413,-1
14:05:49.488413,2
14:05:49.488413,10240
14:05:49.488413,0
14:05:49.488413,72
14:05:49.488413,17664
14:05:49.488413,0
14:05:49.488413,43
14:05:49.488413,8448
14:05:49.488413,0
14:05:49.488413,48
14:05:49.488413,12800
14:05:49.488413,0
14:05:49.488413,50
14:05:49.488413,9728
14:05:49.488413,0
14:05:49.488413,-7
14:05:49.488413,-2049
14:05:49.488413,-1
14:05:49.488413,356
14:05:49.488413,18432
14:05:49.488413,4
14:05:49.488413,1194
14:05:49.488413,14592
14:05:49.488413,1
14:05:49.488413,-185
14:05:49.488413,10495
14:05:49.488413,0
14:05:49.488413,36
14:05:49.488413,29184
14:05:49.488413,-1
14:05:49.488413,-74
14:05:49.488413,-4609
14:05:49.488413,-1
14:05:49.488413,-72
14:05:49.488413,-13825
14:05:49.488413,-1
14:05:49.488413,-14
14:05:49.488413,-9473
14:05:49.488413,-1
14:05:49.488413,-36
14:05:49.488413,-1537
14:05:49.488413,-1
14:05:49.488413,-12
14:05:49.488413,-2817
14:05:49.488413,-1
14:05:49.488413,9
14:05:49.488413,512
14:05:49.488413,0
14:05:49.488413,-12
14:05:49.488413,767
14:05:49.488413,0
14:05:49.488413,36
14:05:49.488413,9728
14:05:49.488413,0
14:05:49.488413,14
14:05:49.488413,1024
14:05:49.488413,0
14:05:49.488413,-2
14:05:49.488413,-3841
14:05:49.488413,-1
14:05:49.488413,-14
14:05:50.073587,2
14:05:50.073587,3072
14:05:50.073587,0
14:05:50.073587,9
14:05:50.073587,1024
14:05:50.073587,0
14:05:50.073587,9
14:05:50.073587,3072
14:05:50.073587,0
14:05:50.073587,9
14:05:50.073587,512
14:05:50.073587,0
14:05:50.073587,-9
14:05:50.073587,-2049
14:05:50.073587,-1
14:05:50.073587,4
14:05:50.073587,4864
14:05:50.073587,0
14:05:50.073587,21
14:05:50.073587,3584
14:05:50.073587,0
14:05:50.073587,21
14:05:50.073587,6656
14:05:50.073587,0
14:05:50.073587,19
14:05:50.073587,7168
14:05:50.073587,0
14:05:50.073587,40
14:05:50.073587,7168
14:05:50.073587,0
14:05:50.073587,21
14:05:50.073587,12288
14:05:50.073587,0
14:05:50.073587,67
14:05:50.073587,12288
14:05:50.073587,0
14:05:50.073587,43
14:05:50.073587,14080
14:05:50.073587,0
14:05:50.073587,57
14:05:50.073587,15872
14:05:50.073587,0
14:05:50.073587,62
14:05:50.073587,12800
14:05:50.073587,0
14:05:50.073587,60
14:05:50.073587,18432
14:05:50.073587,0
14:05:50.073587,65
14:05:50.073587,14592
14:05:50.073587,0
14:05:50.073587,57
14:05:50.073587,14592
14:05:50.073587,0
14:05:50.073587,38
14:05:50.073587,5376
14:05:50.073587,0
14:05:50.073587,40
14:05:50.073587,17152
14:05:50.073587,0
14:05:50.073587,98
14:05:50.073587,29440
14:05:50.073587,0
14:05:50.073587,84
14:05:50.073587,14080
14:05:50.073587,0
14:05:50.073587,69
14:05:50.073587,22016
14:05:50.073587,0
14:05:50.073587,79
14:05:50.073587,18944
14:05:50.073587,0
14:05:50.073587,60
14:05:50.073587,3584
14:05:50.073587,0
14:05:50.073587,110
14:05:50.073587,-20480
14:05:50.073587,2
14:05:50.073587,1315
14:05:50.073587,-23552
14:05:50.073587,3
14:05:50.073587,21
14:05:50.073587,-26880
14:05:50.073587,-1
14:05:50.073587,125
14:05:50.073587,-1792
14:05:50.073587,-1
14:05:50.073587,-86
14:05:50.073587,4351
14:05:50.073587,0
14:05:50.073587,14
14:05:50.073587,-7168
14:05:50.073587,-1
14:05:50.073587,-4
14:05:50.073587,3327
14:05:50.073587,0
14:05:50.073587,9
14:05:50.073587,6144
14:05:50.073587,0
14:05:50.073587,43
14:05:50.073587,9216
14:05:50.073587,0
14:05:50.073587,24
14:05:50.073587,10240
14:05:50.073587,0
14:05:50.073587,45
14:05:50.073587,9216
14:05:50.073587,0
14:05:50.073587,38
14:05:50.613941,48
14:05:50.613941,12288
14:05:50.613941,0
14:05:50.613941,28
14:05:50.613941,6656
14:05:50.613941,0
14:05:50.613941,36
14:05:50.613941,7936
14:05:50.613941,0
14:05:50.613941,28
14:05:50.613941,8448
14:05:50.613941,0
14:05:50.613941,33
14:05:50.613941,10240
14:05:50.613941,0
14:05:50.613941,33
14:05:50.613941,4864
14:05:50.613941,0
14:05:50.613941,19
14:05:50.613941,5376
14:05:50.613941,0
14:05:50.613941,14
14:05:50.613941,0
14:05:50.613941,0
14:05:50.613941,0
14:05:50.613941,4864
14:05:50.613941,0
14:05:50.613941,16
14:05:50.613941,1792
14:05:50.613941,0
14:05:50.613941,19
14:05:50.613941,6144
14:05:50.613941,0
14:05:50.613941,12
14:05:50.613941,2304
14:05:50.613941,0
14:05:50.613941,9
14:05:50.613941,1024
14:05:50.613941,0
14:05:50.613941,4
14:05:50.613941,1024
14:05:50.613941,0
14:05:50.613941,2
14:05:50.613941,512
14:05:50.613941,0
14:05:50.613941,7
14:05:50.613941,-512
14:05:50.613941,-1
14:05:50.613941,-2
14:05:50.613941,2559
14:05:50.613941,0
14:05:50.613941,-2
14:05:50.613941,-4609
14:05:50.613941,-1
14:05:50.613941,-7
14:05:50.613941,1279
14:05:50.613941,0
14:05:50.613941,-4
14:05:50.613941,-4609
14:05:50.613941,-1
14:05:50.613941,-14
14:05:50.613941,-3329
14:05:50.613941,-1
14:05:50.613941,-31
14:05:50.613941,-13825
14:05:50.613941,-1
14:05:50.613941,-77
14:05:50.613941,-16897
14:05:50.613941,-1
14:05:50.613941,-33
14:05:50.613941,-1537
14:05:50.613941,-1
14:05:50.613941,7
14:05:50.613941,-1024
14:05:50.613941,-1
14:05:50.613941,-31
14:05:50.613941,-8193
14:05:50.613941,-1
14:05:50.613941,-14
14:05:50.613941,-769
14:05:50.613941,-1
14:05:50.613941,-19
14:05:50.613941,-8961
14:05:50.613941,-1
14:05:50.613941,-77
14:05:50.613941,-15105
14:05:50.613941,-1
14:05:50.613941,378
14:05:50.613941,20736
14:05:50.613941,4
14:05:50.613941,1030
14:05:50.613941,30720
14:05:50.613941,0
14:05:50.613941,-240
14:05:50.613941,-257
14:05:50.613941,-1
14:05:50.613941,-60
14:05:50.613941,13567
14:05:50.613941,-1
14:05:50.613941,-122
14:05:50.613941,-23553
14:05:50.613941,-1
14:05:50.613941,-142
14:05:50.613941,-30465
14:05:50.613941,-1
14:05:50.613941,-93
14:05:50.613941,-26625
14:05:50.613941,-1
14:05:50.613941,-103
14:05:51.198136,-81
14:05:51.198136,-15617
14:05:51.198136,-1
14:05:51.198136,-62
14:05:51.198136,-18177
14:05:51.198136,-1
14:05:51.198136,-65
14:05:51.198136,-11265
14:05:51.198136,-1
14:05:51.198136,-24
14:05:51.198136,-6401
14:05:51.198136,-1
14:05:51.198136,-36
14:05:51.198136,-5889
14:05:51.198136,-1
14:05:51.198136,-24
14:05:51.198136,-9473
14:05:51.198136,-1
14:05:51.198136,-40
14:05:51.198136,-9473
14:05:51.198136,-1
14:05:51.198136,-43
14:05:51.198136,-12033
14:05:51.198136,-1
14:05:51.198136,-48
14:05:51.198136,-12033
14:05:51.198136,-1
14:05:51.198136,-57
14:05:51.198136,-16385
14:05:51.198136,-1
14:05:51.198136,-72
14:05:51.198136,-18177
14:05:51.198136,-1
14:05:51.198136,-69
14:05:51.198136,-16897
14:05:51.198136,-1
14:05:51.198136,-62
14:05:51.198136,-18689
14:05:51.198136,-1
14:05:51.198136,-81
14:05:51.198136,-15105
14:05:51.198136,-1
14:05:51.198136,-45
14:05:51.198136,-14337
14:05:51.198136,-1
14:05:51.198136,-60
14:05:51.198136,-14337
14:05:51.198136,-1
14:05:51.198136,-52
14:05:51.198136,-12545
14:05:51.198136,-1
14:05:51.198136,-52
14:05:51.198136,-13825
14:05:51.198136,-1
14:05:51.198136,-52
14:05:51.198136,-9473
14:05:51.198136,-1
14:05:51.198136,-38
14:05:51.198136,-13057
14:05:51.198136,-1
14:05:51.198136,-36
14:05:51.198136,-5889
14:05:51.198136,-1
14:05:51.198136,-43
14:05:51.198136,-12545
14:05:51.198136,-1
14:05:51.198136,-28
14:05:51.198136,-3841
14:05:51.198136,-1
14:05:51.198136,-33
14:05:51.198136,-9473
14:05:51.198136,-1
14:05:51.198136,-14
14:05:51.198136,-1537
14:05:51.198136,-1
14:05:51.198136,-26
14:05:51.198136,-9985
14:05:51.198136,-1
14:05:51.198136,-48
14:05:51.198136,-12033
14:05:51.198136,-1
14:05:51.198136,-55
14:05:51.198136,-9985
14:05:51.198136,-1
14:05:51.198136,9
14:05:51.198136,8448
14:05:51.198136,0
14:05:51.198136,9
14:05:51.198136,-4864
14:05:51.198136,-1
14:05:51.198136,-19
14:05:51.198136,-769
14:05:51.198136,-1
14:05:51.198136,9
14:05:51.198136,5376
14:05:51.198136,0
14:05:51.198136,7
14:05:51.198136,-13312
14:05:51.198136,-1
14:05:51.198136,-36
14:05:51.198136,-29185
14:05:51.198136,1
14:05:51.198136,1124
14:05:51.198136,12800
14:05:51.198136,4
14:05:51.198136,173
14:05:51.198136,16896
14:05:51.198136,-1
14:05:51.198136,40
14:05:51.783332,-21
14:05:51.783332,27647
14:05:51.783332,-1
14:05:51.783332,-55
14:05:51.783332,-5121
14:05:51.783332,-1
14:05:51.783332,-74
14:05:51.783332,-13825
14:05:51.783332,-1
14:05:51.783332,-24
14:05:51.783332,-8193
14:05:51.783332,-1
14:05:51.783332,-19
14:05:51.783332,3839
14:05:51.783332,0
14:05:51.783332,16
14:05:51.783332,2304
14:05:51.783332,0
14:05:51.783332,19
14:05:51.783332,7936
14:05:51.783332,0
14:05:51.783332,40
14:05:51.783332,10240
14:05:51.783332,0
14:05:51.783332,40
14:05:51.783332,10240
14:05:51.783332,0
14:05:51.783332,31
14:05:51.783332,7168
14:05:51.783332,0
14:05:51.783332,31
14:05:51.783332,4864
14:05:51.783332,0
14:05:51.783332,12
14:05:51.783332,4096
14:05:51.783332,0
14:05:51.783332,16
14:05:51.783332,2304
14:05:51.783332,0
14:05:51.783332,4
14:05:51.783332,1024
14:05:51.783332,0
14:05:51.783332,0
14:05:51.783332,-2304
14:05:51.783332,-1
14:05:51.783332,-14
14:05:51.783332,-1537
14:05:51.783332,-1
14:05:51.783332,2
14:05:51.783332,-512
14:05:51.783332,-1
14:05:51.783332,-14
14:05:51.783332,-3841
14:05:51.783332,-1
14:05:51.783332,-14
14:05:51.783332,-769
14:05:51.783332,-1
14:05:51.783332,-2
14:05:51.783332,-2049
14:05:51.783332,-1
14:05:51.783332,0
14:05:51.783332,2304
14:05:51.783332,0
14:05:51.783332,4
14:05:51.783332,1024
14:05:51.783332,0
14:05:51.783332,9
14:05:51.783332,1792
14:05:51.783332,0
14:05:51.783332,12
14:05:51.783332,6144
14:05:51.783332,0
14:05:51.783332,19
14:05:51.783332,1792
14:05:51.783332,0
14:05:51.783332,9
14:05:51.783332,3072
14:05:51.783332,0
14:05:51.783332,9
14:05:51.783332,5376
14:05:51.783332,0
14:05:51.783332,19
14:05:51.783332,1792
14:05:51.783332,0
14:05:51.783332,2
14:05:51.783332,0
14:05:51.783332,0
14:05:51.783332,9
14:05:51.783332,3584
14:05:51.783332,0
14:05:51.783332,9
14:05:51.783332,-512
14:05:51.783332,-1
14:05:51.783332,-24
14:05:51.783332,-7681
14:05:51.783332,-1
14:05:51.783332,-9
14:05:51.783332,4351
14:05:51.783332,0
14:05:51.783332,40
14:05:51.783332,11008
14:05:51.783332,0
14:05:51.783332,16
14:05:51.783332,512
14:05:51.783332,0
14:05:51.783332,12
14:05:51.783332,6144
14:05:51.783332,0
14:05:51.783332,24
14:05:52.323269,16
14:05:52.323269,-4096
14:05:52.323269,-1
14:05:52.323269,-33
14:05:52.323269,14847
14:05:52.323269,1
14:05:52.323269,1069
14:05:52.323269,-13312
14:05:52.323269,4
14:05:52.323269,358
14:05:52.323269,8192
14:05:52.323269,-1
14:05:52.323269,-16
14:05:52.323269,6911
14:05:52.323269,0
14:05:52.323269,-154
14:05:52.323269,-24321
14:05:52.323269,-1
14:05:52.323269,-21
14:05:52.323269,-18177
14:05:52.323269,-1
14:05:52.323269,-72
14:05:52.323269,-7681
14:05:52.323269,-1
14:05:52.323269,-28
14:05:52.323269,-7681
14:05:52.323269,-1
14:05:52.323269,-21
14:05:52.323269,-2049
14:05:52.323269,-1
14:05:52.323269,-9
14:05:52.323269,-2817
14:05:52.323269,-1
14:05:52.323269,-4
14:05:52.323269,-257
14:05:52.323269,-1
14:05:52.323269,-4
14:05:52.323269,-257
14:05:52.323269,-1
14:05:52.323269,4
14:05:52.323269,512
14:05:52.323269,0
14:05:52.323269,-12
14:05:52.323269,-2817
14:05:52.323269,-1
14:05:52.323269,-4
14:05:52.323269,-2049
14:05:52.323269,-1
14:05:52.323269,-19
14:05:52.323269,-4609
14:05:52.323269,-1
14:05:52.323269,-16
14:05:52.323269,-5889
14:05:52.323269,-1
14:05:52.323269,-31
14:05:52.323269,-5889
14:05:52.323269,-1
14:05:52.323269,-28
14:05:52.323269,-12545
14:05:52.323269,-1
14:05:52.323269,-48
14:05:52.323269,-9473
14:05:52.323269,-1
14:05:52.323269,-40
14:05:52.323269,-9473
14:05:52.323269,-1
14:05:52.323269,-26
14:05:52.323269,-6401
14:05:52.323269,-1
14:05:52.323269,-38
14:05:52.323269,-9473
14:05:52.323269,-1
14:05:52.323269,-21
14:05:52.323269,-5121
14:05:52.323269,-1
14:05:52.323269,-28
14:05:52.323269,-6401
14:05:52.323269,-1
14:05:52.323269,-24
14:05:52.323269,-7681
14:05:52.323269,-1
14:05:52.323269,-21
14:05:52.323269,255
14:05:52.323269,0
14:05:52.323269,-7
14:05:52.323269,-5121
14:05:52.323269,-1
14:05:52.323269,-19
14:05:52.323269,-4609
14:05:52.323269,-1
14:05:52.323269,-19
14:05:52.323269,-257
14:05:52.323269,-1
14:05:52.323269,0
14:05:52.323269,-512
14:05:52.323269,-1
14:05:52.323269,2
14:05:52.323269,-1792
14:05:52.323269,-1
14:05:52.323269,-4
14:05:52.323269,-257
14:05:52.323269,-1
14:05:52.323269,-14
14:05:52.323269,-1537
14:05:52.323269,-1
14:05:52.323269,2
14:05:52.323269,-4864
14:05:52.323269,-1
14:05:52.323269,-50
14:05:52.862654,-50
14:05:52.862654,-6913
14:05:52.862654,-1
14:05:52.862654,-4
14:05:52.862654,9471
14:05:52.862654,0
14:05:52.862654,55
14:05:52.862654,4864
14:05:52.862654,0
14:05:52.862654,-12
14:05:52.862654,-769
14:05:52.862654,-1
14:05:52.862654,16
14:05:52.862654,7936
14:05:52.862654,0
14:05:52.862654,33
14:05:52.862654,1024
14:05:52.862654,0
14:05:52.862654,-43
14:05:52.862654,30463
14:05:52.862654,0
14:05:52.862654,775
14:05:52.862654,10752
14:05:52.862654,5
14:05:52.862654,782
14:05:52.862654,-23296
14:05:52.862654,-1
14:05:52.862654,-110
14:05:52.862654,23039
14:05:52.862654,0
14:05:52.862654,-79
14:05:52.862654,32511
14:05:52.862654,-1
14:05:52.862654,-24
14:05:52.862654,-10753
14:05:52.862654,-1
14:05:52.862654,-81
14:05:52.862654,-12033
14:05:52.862654,-1
14:05:52.862654,-28
14:05:52.862654,-6401
14:05:52.862654,-1
14:05:52.862654,-21
14:05:52.862654,-3841
14:05:52.862654,-1
14:05:52.862654,-12
14:05:52.862654,-1537
14:05:52.862654,-1
14:05:52.862654,-7
14:05:52.862654,-769
14:05:52.862654,-1
14:05:52.862654,-4
14:05:52.862654,-257
14:05:52.862654,-1
14:05:52.862654,2
14:05:52.862654,0
14:05:52.862654,0
14:05:52.862654,-9
14:05:52.862654,-5121
14:05:52.862654,-1
14:05:52.862654,-24
14:05:52.862654,-5121
14:05:52.862654,-1
14:05:52.862654,-24
14:05:52.862654,-6913
14:05:52.862654,-1
14:05:52.862654,-28
14:05:52.862654,-5121
14:05:52.862654,-1
14:05:52.862654,-26
14:05:52.862654,-8193
14:05:52.862654,-1
14:05:52.862654,-43
14:05:52.862654,-12033
14:05:52.862654,-1
14:05:52.862654,-43
14:05:52.862654,-12033
14:05:52.862654,-1
14:05:52.862654,-62
14:05:52.862654,-13825
14:05:52.862654,-1
14:05:52.862654,-40
14:05:52.862654,-8961
14:05:52.862654,-1
14:05:52.862654,-40
14:05:52.862654,-12033
14:05:52.862654,-1
14:05:52.862654,-45
14:05:52.862654,-9473
14:05:52.862654,-1
14:05:52.862654,-40
14:05:52.862654,-10753
14:05:52.862654,-1
14:05:52.862654,-43
14:05:52.862654,-9473
14:05:52.862654,-1
14:05:52.862654,-40
14:05:52.862654,-10753
14:05:52.862654,-1
14:05:52.862654,-45
14:05:52.862654,-10753
14:05:52.862654,-1
14:05:52.862654,-36
14:05:52.862654,-8193
14:05:52.862654,-1
14:05:52.862654,-36
14:05:52.862654,-8193
14:05:52.862654,-1
14:05:52.862654,-36
14:05:53.403727,-38
14:05:53.403727,-8193
14:05:53.403727,-1
14:05:53.403727,-33
14:05:53.403727,-8193
14:05:53.403727,-1
14:05:53.403727,-33
14:05:53.403727,-8961
14:05:53.403727,-1
14:05:53.403727,-33
14:05:53.403727,-8961
14:05:53.403727,-1
14:05:53.403727,-48
14:05:53.403727,-15105
14:05:53.403727,-1
14:05:53.403727,-55
14:05:53.403727,-6401
14:05:53.403727,-1
14:05:53.403727,12
14:05:53.403727,7168
14:05:53.403727,0
14:05:53.403727,2
14:05:53.403727,-5376
14:05:53.403727,-1
14:05:53.403727,-4
14:05:53.403727,2047
14:05:53.403727,0
14:05:53.403727,-4
14:05:53.403727,-769
14:05:53.403727,-1
14:05:53.403727,-16
14:05:53.403727,-16385
14:05:53.403727,-1
14:05:53.403727,134
14:05:53.403727,15360
14:05:53.403727,3
14:05:53.403727,1250
14:05:53.403727,14848
14:05:53.403727,2
14:05:53.403727,-183
14:05:53.403727,-19969
14:05:53.403727,-1
14:05:53.403727,43
14:05:53.403727,28160
14:05:53.403727,-1
14:05:53.403727,-142
14:05:53.403727,-13057
14:05:53.403727,-1
14:05:53.403727,-86
14:05:53.403727,-27905
14:05:53.403727,-1
14:05:53.403727,-74
14:05:53.403727,-16897
14:05:53.403727,-1
14:05:53.403727,-69
14:05:53.403727,-15105
14:05:53.403727,-1
14:05:53.403727,-62
14:05:53.403727,-15105
14:05:53.403727,-1
14:05:53.403727,-38
14:05:53.403727,-8193
14:05:53.403727,-1
14:05:53.403727,-43
14:05:53.403727,-8961
14:05:53.403727,-1
14:05:53.403727,-14
14:05:53.403727,-2817
14:05:53.403727,-1
14:05:53.403727,-33
14:05:53.403727,-9473
14:05:53.403727,-1
14:05:53.403727,-33
14:05:53.403727,-11265
14:05:53.403727,-1
14:05:53.403727,-50
14:05:53.403727,-12545
14:05:53.403727,-1
14:05:53.403727,-50
14:05:53.403727,-12033
14:05:53.403727,-1
14:05:53.403727,-52
14:05:53.403727,-13057
14:05:53.403727,-1
14:05:53.403727,-57
14:05:53.403727,-16897
14:05:53.403727,-1
14:05:53.403727,-67
14:05:53.403727,-17409
14:05:53.403727,-1
14:05:53.403727,-86
14:05:53.403727,-21249
14:05:53.403727,-1
14:05:53.403727,-62
14:05:53.403727,-14337
14:05:53.403727,-1
14:05:53.403727,-69
14:05:53.403727,-17409
14:05:53.403727,-1
14:05:53.403727,-60
14:05:53.403727,-16897
14:05:53.403727,-1
14:05:53.403727,-67
14:05:53.403727,-15617
14:05:53.403727,-1
14:05:53.403727,-60
14:05:53.403727,-13057
14:05:53.403727,-1
14:05:53.403727,-52
14:05:53.988416,-55
14:05:53.988416,-13057
14:05:53.988416,-1
14:05:53.988416,-52
14:05:53.988416,-9985
14:05:53.988416,-1
14:05:53.988416,-26
14:05:53.988416,-8193
14:05:53.988416,-1
14:05:53.988416,-38
14:05:53.988416,-8193
14:05:53.988416,-1
14:05:53.988416,-28
14:05:53.988416,-8193
14:05:53.988416,-1
14:05:53.988416,-21
14:05:53.988416,-2049
14:05:53.988416,-1
14:05:53.988416,-31
14:05:53.988416,-13825
14:05:53.988416,-1
14:05:53.988416,-62
14:05:53.988416,-15617
14:05:53.988416,-1
14:05:53.988416,-43
14:05:53.988416,-2817
14:05:53.988416,-1
14:05:53.988416,12
14:05:53.988416,1024
14:05:53.988416,0
14:05:53.988416,-24
14:05:53.988416,-5121
14:05:53.988416,-1
14:05:53.988416,4
14:05:53.988416,3584
14:05:53.988416,0
14:05:53.988416,12
14:05:53.988416,1024
14:05:53.988416,0
14:05:53.988416,-38
14:05:53.988416,-15105
14:05:53.988416,-1
14:05:53.988416,267
14:05:53.988416,-6912
14:05:53.988416,3
14:05:53.988416,1144
14:05:53.988416,16384
14:05:53.988416,1
14:05:53.988416,-178
14:05:53.988416,7423
14:05:53.988416,0
14:05:53.988416,31
14:05:53.988416,-32512
14:05:53.988416,-1
14:05:53.988416,-65
14:05:53.988416,-4609
14:05:53.988416,-1
14:05:53.988416,-67
14:05:53.988416,-12033
14:05:53.988416,-1
14:05:53.988416,-14
14:05:53.988416,-7681
14:05:53.988416,-1
14:05:53.988416,-28
14:05:53.988416,-1537
14:05:53.988416,-1
14:05:53.988416,4
14:05:53.988416,3584
14:05:53.988416,0
14:05:53.988416,16
14:05:53.988416,2304
14:05:53.988416,0
14:05:53.988416,21
14:05:53.988416,9216
14:05:53.988416,0
14:05:53.988416,36
14:05:53.988416,7168
14:05:53.988416,0
14:05:53.988416,33
14:05:53.988416,9216
14:05:53.988416,0
14:05:53.988416,21
14:05:53.988416,5376
14:05:53.988416,0
14:05:53.988416,36
14:05:53.988416,9728
14:05:53.988416,0
14:05:53.988416,24
14:05:53.988416,3072
14:05:53.988416,0
14:05:53.988416,12
14:05:53.988416,3072
14:05:53.988416,0
14:05:53.988416,7
14:05:53.988416,3072
14:05:53.988416,0
14:05:53.988416,4
14:05:53.988416,-1792
14:05:53.988416,-1
14:05:53.988416,-2
14:05:53.988416,-769
14:05:53.988416,-1
14:05:53.988416,-7
14:05:53.988416,255
14:05:53.988416,0
14:05:53.988416,2
14:05:53.988416,0
14:05:53.988416,0
14:05:53.988416,-2
14:05:54.618181,2
14:05:54.618181,1024
14:05:54.618181,0
14:05:54.618181,16
14:05:54.618181,7168
14:05:54.618181,0
14:05:54.618181,24
14:05:54.618181,7168
14:05:54.618181,0
14:05:54.618181,40
14:05:54.618181,11008
14:05:54.618181,0
14:05:54.618181,50
14:05:54.618181,12800
14:05:54.618181,0
14:05:54.618181,43
14:05:54.618181,11520
14:05:54.618181,0
14:05:54.618181,40
14:05:54.618181,9216
14:05:54.618181,0
14:05:54.618181,38
14:05:54.618181,9728
14:05:54.618181,0
14:05:54.618181,40
14:05:54.618181,9728
14:05:54.618181,0
14:05:54.618181,24
14:05:54.618181,1024
14:05:54.618181,0
14:05:54.618181,-7
14:05:54.618181,1279
14:05:54.618181,0
14:05:54.618181,31
14:05:54.618181,15360
14:05:54.618181,0
14:05:54.618181,67
14:05:54.618181,11008
14:05:54.618181,0
14:05:54.618181,31
14:05:54.618181,11008
14:05:54.618181,0
14:05:54.618181,55
14:05:54.618181,15872
14:05:54.618181,0
14:05:54.618181,57
14:05:54.618181,7168
14:05:54.618181,0
14:05:54.618181,-16
14:05:54.618181,29183
14:05:54.618181,0
14:05:54.618181,741
14:05:54.618181,16896
14:05:54.618181,5
14:05:54.618181,869
14:05:54.618181,-10240
14:05:54.618181,-1
14:05:54.618181,-113
14:05:54.618181,26111
14:05:54.618181,0
14:05:54.618181,-55
14:05:54.618181,32511
14:05:54.618181,-1
14:05:54.618181,-28
14:05:54.618181,-10753
14:05:54.618181,-1
14:05:54.618181,-79
14:05:54.618181,-8961
14:05:54.618181,-1
14:05:54.618181,-24
14:05:54.618181,-6401
14:05:54.618181,-1
14:05:54.618181,-7
14:05:54.618181,-1537
14:05:54.618181,-1
14:05:54.618181,-7
14:05:54.618181,1279
14:05:54.618181,0
14:05:54.618181,4
14:05:54.618181,512
14:05:54.618181,0
14:05:54.618181,4
14:05:54.618181,1792
14:05:54.618181,0
14:05:54.618181,7
14:05:54.618181,512
14:05:54.618181,0
14:05:54.618181,0
14:05:54.618181,-3072
14:05:54.618181,-1
14:05:54.618181,-16
14:05:54.618181,-2049
14:05:54.618181,-1
14:05:54.618181,0
14:05:54.618181,0
14:05:54.618181,0
14:05:54.618181,-9
14:05:54.618181,-3329
14:05:54.618181,-1
14:05:54.618181,-16
14:05:54.618181,-3841
14:05:54.618181,-1
14:05:54.618181,-21
14:05:54.618181,-8193
14:05:54.618181,-1
14:05:54.618181,-26
14:05:54.618181,-4609
14:05:54.618181,-1
14:05:54.618181,-33
14:05:55.112851,-26
14:05:55.112851,-4609
14:05:55.112851,-1
14:05:55.112851,-31
14:05:55.112851,-8193
14:05:55.112851,-1
14:05:55.112851,-21
14:05:55.112851,-3329
14:05:55.112851,-1
14:05:55.112851,-16
14:05:55.112851,-5121
14:05:55.112851,-1
14:05:55.112851,-16
14:05:55.112851,-2817
14:05:55.112851,-1
14:05:55.112851,-9
14:05:55.112851,-257
14:05:55.112851,-1
14:05:55.112851,-9
14:05:55.112851,-2817
14:05:55.112851,-1
14:05:55.112851,-4
14:05:55.112851,1279
14:05:55.112851,0
14:05:55.112851,19
14:05:55.112851,4864
14:05:55.112851,0
14:05:55.112851,14
14:05:55.112851,4864
14:05:55.112851,0
14:05:55.112851,14
14:05:55.112851,3584
14:05:55.112851,0
14:05:55.112851,12
14:05:55.112851,-3072
14:05:55.112851,-1
14:05:55.112851,-28
14:05:55.112851,-5121
14:05:55.112851,-1
14:05:55.112851,-7
14:05:55.112851,6399
14:05:55.112851,0
14:05:55.112851,52
14:05:55.112851,12288
14:05:55.112851,0
14:05:55.112851,19
14:05:55.112851,3584
14:05:55.112851,0
14:05:55.112851,31
14:05:55.112851,8448
14:05:55.112851,0
14:05:55.112851,28
14:05:55.112851,6144
14:05:55.112851,0
14:05:55.112851,-16
14:05:55.112851,-3841
14:05:55.112851,-1
14:05:55.112851,342
14:05:55.112851,15872
14:05:55.112851,4
14:05:55.112851,1221
14:05:55.112851,23808
14:05:55.112851,1
14:05:55.112851,-195
14:05:55.112851,4351
14:05:55.112851,0
14:05:55.112851,33
14:05:55.112851,28160
14:05:55.112851,-1
14:05:55.112851,-93
14:05:55.112851,-5121
14:05:55.112851,-1
14:05:55.112851,-62
14:05:55.112851,-18177
14:05:55.112851,-1
14:05:55.112851,-36
14:05:55.112851,-4609
14:05:55.112851,-1
14:05:55.112851,-21
14:05:55.112851,-6401
14:05:55.112851,-1
14:05:55.112851,-24
14:05:55.112851,-769
14:05:55.112851,-1
14:05:55.112851,4
14:05:55.112851,-1024
14:05:55.112851,-1
14:05:55.112851,-4
14:05:55.112851,2047
14:05:55.112851,0
14:05:55.112851,14
14:05:55.112851,1024
14:05:55.112851,0
14:05:55.112851,-2
14:05:55.112851,-257
14:05:55.112851,-1
14:05:55.112851,-2
14:05:55.112851,-769
14:05:55.112851,-1
14:05:55.112851,-14
14:05:55.112851,-4609
14:05:55.112851,-1
14:05:55.112851,-19
14:05:55.112851,-6913
14:05:55.112851,-1
14:05:55.112851,-28
14:05:55.112851,-5889
14:05:55.112851,-1
14:05:55.112851,-33
14:05:55.698104,-43
14:05:55.698104,-9985
14:05:55.698104,-1
14:05:55.698104,-38
14:05:55.698104,-9985
14:05:55.698104,-1
14:05:55.698104,-43
14:05:55.698104,-8193
14:05:55.698104,-1
14:05:55.698104,-28
14:05:55.698104,-6401
14:05:55.698104,-1
14:05:55.698104,-14
14:05:55.698104,-3329
14:05:55.698104,-1
14:05:55.698104,-14
14:05:55.698104,-2049
14:05:55.698104,-1
14:05:55.698104,-14
14:05:55.698104,-2817
14:05:55.698104,-1
14:05:55.698104,-12
14:05:55.698104,-2049
14:05:55.698104,-1
14:05:55.698104,-4
14:05:55.698104,-3329
14:05:55.698104,-1
14:05:55.698104,-14
14:05:55.698104,2047
14:05:55.698104,0
14:05:55.698104,4
14:05:55.698104,-2304
14:05:55.698104,-1
14:05:55.698104,-9
14:05:55.698104,255
14:05:55.698104,0
14:05:55.698104,-4
14:05:55.698104,-2817
14:05:55.698104,-1
14:05:55.698104,0
14:05:55.698104,-1792
14:05:55.698104,-1
14:05:55.698104,-45
14:05:55.698104,-16385
14:05:55.698104,-1
14:05:55.698104,-48
14:05:55.698104,-5121
14:05:55.698104,-1
14:05:55.698104,4
14:05:55.698104,8448
14:05:55.698104,0
14:05:55.698104,31
14:05:55.698104,-1792
14:05:55.698104,-1
14:05:55.698104,-14
14:05:55.698104,3327
14:05:55.698104,0
14:05:55.698104,14
14:05:55.698104,0
14:05:55.698104,0
14:05:55.698104,-12
14:05:55.698104,-12033
14:05:55.698104,-1
14:05:55.698104,-26
14:05:55.698104,-31745
14:05:55.698104,1
14:05:55.698104,1110
14:05:55.698104,18944
14:05:55.698104,4
14:05:55.698104,178
14:05:55.698104,4608
14:05:55.698104,-1
14:05:55.698104,12
14:05:55.698104,-4096
14:05:55.698104,-1
14:05:55.698104,-173
14:05:55.698104,-26625
14:05:55.698104,-1
14:05:55.698104,-69
14:05:55.698104,-27393
14:05:55.698104,-1
14:05:55.698104,-89
14:05:55.698104,-15105
14:05:55.698104,-1
14:05:55.698104,-67
14:05:55.698104,-15617
14:05:55.698104,-1
14:05:55.698104,-48
14:05:55.698104,-13057
14:05:55.698104,-1
14:05:55.698104,-48
14:05:55.698104,-8961
14:05:55.698104,-1
14:05:55.698104,-31
14:05:55.698104,-8193
14:05:55.698104,-1
14:05:55.698104,-26
14:05:55.698104,-3841
14:05:55.698104,-1
14:05:55.698104,-16
14:05:55.698104,-5889
14:05:55.698104,-1
14:05:55.698104,-26
14:05:55.698104,-8961
14:05:55.698104,-1
14:05:55.698104,-45
14:05:55.698104,-10753
14:05:55.698104,-1
14:05:55.698104,-40
14:05:56.238639,-43
14:05:56.238639,-13825
14:05:56.238639,-1
14:05:56.238639,-55
14:05:56.238639,-12545
14:05:56.238639,-1
14:05:56.238639,-67
14:05:56.238639,-20481
14:05:56.238639,-1
14:05:56.238639,-77
14:05:56.238639,-18177
14:05:56.238639,-1
14:05:56.238639,-72
14:05:56.238639,-21249
14:05:56.238639,-1
14:05:56.238639,-72
14:05:56.238639,-12545
14:05:56.238639,-1
14:05:56.238639,-50
14:05:56.238639,-14337
14:05:56.238639,-1
14:05:56.238639,-60
14:05:56.238639,-12545
14:05:56.238639,-1
14:05:56.238639,-31
14:05:56.238639,-9985
14:05:56.238639,-1
14:05:56.238639,-57
14:05:56.238639,-13057
14:05:56.238639,-1
14:05:56.238639,-45
14:05:56.238639,-11265
14:05:56.238639,-1
14:05:56.238639,-48
14:05:56.238639,-12545
14:05:56.238639,-1
14:05:56.238639,-50
14:05:56.238639,-13057
14:05:56.238639,-1
14:05:56.238639,-43
14:05:56.238639,-8193
14:05:56.238639,-1
14:05:56.238639,-36
14:05:56.238639,-9473
14:05:56.238639,-1
14:05:56.238639,-40
14:05:56.238639,-12545
14:05:56.238639,-1
14:05:56.238639,-62
14:05:56.238639,-19457
14:05:56.238639,-1
14:05:56.238639,-79
14:05:56.238639,-16385
14:05:56.238639,-1
14:05:56.238639,-33
14:05:56.238639,-1537
14:05:56.238639,-1
14:05:56.238639,-21
14:05:56.238639,-10753
14:05:56.238639,-1
14:05:56.238639,-33
14:05:56.238639,-3841
14:05:56.238639,-1
14:05:56.238639,-14
14:05:56.238639,-4609
14:05:56.238639,-1
14:05:56.238639,-26
14:05:56.238639,-16897
14:05:56.238639,-1
14:05:56.238639,-98
14:05:56.238639,-11265
14:05:56.238639,0
14:05:56.238639,927
14:05:56.238639,20736
14:05:56.238639,4
14:05:56.238639,310
14:05:56.238639,8192
14:05:56.238639,-1
14:05:56.238639,-21
14:05:56.238639,3327
14:05:56.238639,0
14:05:56.238639,-158
14:05:56.238639,-29185
14:05:56.238639,-1
14:05:56.238639,-57
14:05:56.238639,-24321
14:05:56.238639,-1
14:05:56.238639,-91
14:05:56.238639,-14337
14:05:56.238639,-1
14:05:56.238639,-57
14:05:56.238639,-16385
14:05:56.238639,-1
14:05:56.238639,-57
14:05:56.238639,-10753
14:05:56.238639,-1
14:05:56.238639,-31
14:05:56.238639,-3841
14:05:56.238639,-1
14:05:56.238639,-14
14:05:56.238639,-3841
14:05:56.238639,-1
14:05:56.238639,-7
14:05:56.238639,255
14:05:56.238639,0
14:05:56.238639,2
14:05:56.238639,0
14:05:56.238639,0
14:05:56.238639,-2
14:05:56.778042,-2
14:05:56.778042,-769
14:05:56.778042,-1
14:05:56.778042,-12
14:05:56.778042,-3841
14:05:56.778042,-1
14:05:56.778042,-12
14:05:56.778042,-1537
14:05:56.778042,-1
14:05:56.778042,-19
14:05:56.778042,-7681
14:05:56.778042,-1
14:05:56.778042,-21
14:05:56.778042,-3841
14:05:56.778042,-1
14:05:56.778042,-26
14:05:56.778042,-8961
14:05:56.778042,-1
14:05:56.778042,-38
14:05:56.778042,-7681
14:05:56.778042,-1
14:05:56.778042,-24
14:05:56.778042,-4609
14:05:56.778042,-1
14:05:56.778042,-19
14:05:56.778042,-3841
14:05:56.778042,-1
14:05:56.778042,-4
14:05:56.778042,767
14:05:56.778042,0
14:05:56.778042,2
14:05:56.778042,1024
14:05:56.778042,0
14:05:56.778042,4
14:05:56.778042,3072
14:05:56.778042,0
14:05:56.778042,19
14:05:56.778042,5376
14:05:56.778042,0
14:05:56.778042,19
14:05:56.778042,5376
14:05:56.778042,0
14:05:56.778042,28
14:05:56.778042,9216
14:05:56.778042,0
14:05:56.778042,33
14:05:56.778042,9216
14:05:56.778042,0
14:05:56.778042,36
14:05:56.778042,8448
14:05:56.778042,0
14:05:56.778042,33
14:05:56.778042,7936
14:05:56.778042,0
14:05:56.778042,21
14:05:56.778042,1024
14:05:56.778042,0
14:05:56.778042,-9
14:05:56.778042,2559
14:05:56.778042,0
14:05:56.778042,36
14:05:56.778042,14592
14:05:56.778042,0
14:05:56.778042,84
14:05:56.778042,22016
14:05:56.778042,0
14:05:56.778042,60
14:05:56.778042,12800
14:05:56.778042,0
14:05:56.778042,65
14:05:56.778042,17664
14:05:56.778042,0
14:05:56.778042,62
14:05:56.778042,14080
14:05:56.778042,0
14:05:56.778042,19
14:05:56.778042,512
14:05:56.778042,0
14:05:56.778042,373
14:05:56.778042,28672
14:05:56.778042,4
14:05:56.778042,1245
14:05:56.778042,25088
14:05:56.778042,1
14:05:56.778042,-173
14:05:56.778042,11775
14:05:56.778042,0
14:05:56.778042,60
14:05:56.778042,-28928
14:05:56.778042,-1
14:05:56.778042,-55
14:05:56.778042,-769
14:05:56.778042,-1
14:05:56.778042,-52
14:05:56.778042,-9985
14:05:56.778042,-1
14:05:56.778042,-9
14:05:56.778042,-5121
14:05:56.778042,-1
14:05:56.778042,-16
14:05:56.778042,2559
14:05:56.778042,0
14:05:56.778042,16
14:05:56.778042,1792
14:05:56.778042,0
14:05:56.778042,12
14:05:56.778042,4864
14:05:56.778042,0
14:05:56.778042,21
14:05:57.363945,31
14:05:57.363945,9216
14:05:57.363945,0
14:05:57.363945,31
14:05:57.363945,6656
14:05:57.363945,0
14:05:57.363945,21
14:05:57.363945,7168
14:05:57.363945,0
14:05:57.363945,36
14:05:57.363945,9216
14:05:57.363945,0
14:05:57.363945,28
14:05:57.363945,5376
14:05:57.363945,0
14:05:57.363945,16
14:05:57.363945,4864
14:05:57.363945,0
14:05:57.363945,12
14:05:57.363945,-1792
14:05:57.363945,-1
14:05:57.363945,-16
14:05:57.363945,-769
14:05:57.363945,-1
14:05:57.363945,-2
14:05:57.363945,-3841
14:05:57.363945,-1
14:05:57.363945,-21
14:05:57.363945,-1537
14:05:57.363945,-1
14:05:57.363945,2
14:05:57.363945,-3072
14:05:57.363945,-1
14:05:57.363945,-16
14:05:57.363945,2047
14:05:57.363945,0
14:05:57.363945,12
14:05:57.363945,-1792
14:05:57.363945,-1
14:05:57.363945,-9
14:05:57.363945,-257
14:05:57.363945,-1
14:05:57.363945,7
14:05:57.363945,2304
14:05:57.363945,0
14:05:57.363945,2
14:05:57.363945,0
14:05:57.363945,0
14:05:57.363945,4
14:05:57.363945,2304
14:05:57.363945,0
14:05:57.363945,21
14:05:57.363945,6144
14:05:57.363945,0
14:05:57.363945,24
14:05:57.363945,5376
14:05:57.363945,0
14:05:57.363945,14
14:05:57.363945,4096
14:05:57.363945,0
14:05:57.363945,19
14:05:57.363945,6144
14:05:57.363945,0
14:05:57.363945,28
14:05:57.363945,2304
14:05:57.363945,0
14:05:57.363945,-9
14:05:57.363945,-4609
14:05:57.363945,-1
14:05:57.363945,-19
14:05:57.363945,-769
14:05:57.363945,-1
14:05:57.363945,24
14:05:57.363945,13312
14:05:57.363945,0
14:05:57.363945,48
14:05:57.363945,3072
14:05:57.363945,0
14:05:57.363945,12
14:05:57.363945,9728
14:05:57.363945,0
14:05:57.363945,36
14:05:57.363945,6144
14:05:57.363945,0
14:05:57.363945,21
14:05:57.363945,-1792
14:05:57.363945,-1
14:05:57.363945,-33
14:05:57.363945,3071
14:05:57.363945,1
14:05:57.363945,1009
14:05:57.363945,-5376
14:05:57.363945,4
14:05:57.363945,448
14:05:57.363945,15104
14:05:57.363945,-1
14:05:57.363945,-26
14:05:57.363945,10495
14:05:57.363945,0
14:05:57.363945,-144
14:05:57.363945,-29185
14:05:57.363945,-1
14:05:57.363945,-45
14:05:57.363945,-21249
14:05:57.363945,-1
14:05:57.363945,-74
14:05:57.363945,-9473
14:05:57.363945,-1
14:05:57.363945,-45
14:05:57.949192,-48
14:05:57.949192,-6913
14:05:57.949192,-1
14:05:57.949192,-24
14:05:57.949192,-4609
14:05:57.949192,-1
14:05:57.949192,-9
14:05:57.949192,255
14:05:57.949192,0
14:05:57.949192,-2
14:05:57.949192,-257
14:05:57.949192,-1
14:05:57.949192,12
14:05:57.949192,6144
14:05:57.949192,0
14:05:57.949192,21
14:05:57.949192,3072
14:05:57.949192,0
14:05:57.949192,12
14:05:57.949192,1792
14:05:57.949192,0
14:05:57.949192,-4
14:05:57.949192,-257
14:05:57.949192,-1
14:05:57.949192,-2
14:05:57.949192,-2817
14:05:57.949192,-1
14:05:57.949192,-16
14:05:57.949192,-4609
14:05:57.949192,-1
14:05:57.949192,-26
14:05:57.949192,-5889
14:05:57.949192,-1
14:05:57.949192,-31
14:05:57.949192,-10753
14:05:57.949192,-1
14:05:57.949192,-48
14:05:57.949192,-8961
14:05:57.949192,-1
14:05:57.949192,-14
14:05:57.949192,-5121
14:05:57.949192,-1
14:05:57.949192,-33
14:05:57.949192,-6401
14:05:57.949192,-1
14:05:57.949192,-21
14:05:57.949192,-5889
14:05:57.949192,-1
14:05:57.949192,-33
14:05:57.949192,-8961
14:05:57.949192,-1
14:05:57.949192,-28
14:05:57.949192,-6913
14:05:57.949192,-1
14:05:57.949192,-31
14:05:57.949192,-5889
14:05:57.949192,-1
14:05:57.949192,-26
14:05:57.949192,-8193
14:05:57.949192,-1
14:05:57.949192,-28
14:05:57.949192,-2817
14:05:57.949192,-1
14:05:57.949192,-19
14:05:57.949192,-8193
14:05:57.949192,-1
14:05:57.949192,-24
14:05:57.949192,-6401
14:05:57.949192,-1
14:05:57.949192,-33
14:05:57.949192,-5889
14:05:57.949192,-1
14:05:57.949192,-26
14:05:57.949192,-9473
14:05:57.949192,-1
14:05:57.949192,-31
14:05:57.949192,-5889
14:05:57.949192,-1
14:05:57.949192,-33
14:05:57.949192,-12545
14:05:57.949192,-1
14:05:57.949192,-67
14:05:57.949192,-17409
14:05:57.949192,-1
14:05:57.949192,-65
14:05:57.949192,-12033
14:05:57.949192,-1
14:05:57.949192,-16
14:05:57.949192,767
14:05:57.949192,0
14:05:57.949192,-12
14:05:57.949192,-10753
14:05:57.949192,-1
14:05:57.949192,-33
14:05:57.949192,-2049
14:05:57.949192,-1
14:05:57.949192,-14
14:05:57.949192,-4609
14:05:57.949192,-1
14:05:57.949192,-28
14:05:57.949192,-19969
14:05:57.949192,-1
14:05:57.949192,-40
14:05:57.949192,-12545
14:05:57.949192,1
14:05:57.949192,1187
14:05:57.949192,-4608
14:05:57.949192,3
14:05:57.949192,60
14:05:58.488086,-224
14:05:58.488086,5119
14:05:58.488086,0
14:05:58.488086,-67
14:05:58.488086,15871
14:05:58.488086,-1
14:05:58.488086,-105
14:05:58.488086,-20481
14:05:58.488086,-1
14:05:58.488086,-127
14:05:58.488086,-24833
14:05:58.488086,-1
14:05:58.488086,-72
14:05:58.488086,-22529
14:05:58.488086,-1
14:05:58.488086,-81
14:05:58.488086,-14337
14:05:58.488086,-1
14:05:58.488086,-43
14:05:58.488086,-8193
14:05:58.488086,-1
14:05:58.488086,-28
14:05:58.488086,-6913
14:05:58.488086,-1
14:05:58.488086,-31
14:05:58.488086,-6401
14:05:58.488086,-1
14:05:58.488086,-4
14:05:58.488086,-769
14:05:58.488086,-1
14:05:58.488086,-21
14:05:58.488086,-5889
14:05:58.488086,-1
14:05:58.488086,-16
14:05:58.488086,-5121
14:05:58.488086,-1
14:05:58.488086,-45
14:05:58.488086,-11265
14:05:58.488086,-1
14:05:58.488086,-16
14:05:58.488086,-5121
14:05:58.488086,-1
14:05:58.488086,-45
14:05:58.488086,-11265
14:05:58.488086,-1
14:05:58.488086,-45
14:05:58.488086,-12033
14:05:58.488086,-1
14:05:58.488086,-55
14:05:58.488086,-15105
14:05:58.488086,-1
14:05:58.488086,-60
14:05:58.488086,-16897
14:05:58.488086,-1
14:05:58.488086,-62
14:05:58.488086,-15105
14:05:58.488086,-1
14:05:58.488086,-65
14:05:58.488086,-16897
14:05:58.488086,-1
14:05:58.488086,-65
14:05:58.488086,-13057
14:05:58.488086,-1
14:05:58.488086,-52
14:05:58.488086,-15105
14:05:58.488086,-1
14:05:58.488086,-52
14:05:58.488086,-12033
14:05:58.488086,-1
14:05:58.488086,-50
14:05:58.488086,-12033
14:05:58.488086,-1
14:05:58.488086,-50
14:05:58.488086,-12033
14:05:58.488086,-1
14:05:58.488086,-45
14:05:58.488086,-12033
14:05:58.488086,-1
14:05:58.488086,-45
14:05:58.488086,-10753
14:05:58.488086,-1
14:05:58.488086,-43
14:05:58.488086,-9473
14:05:58.488086,-1
14:05:58.488086,-38
14:05:58.488086,-11265
14:05:58.488086,-1
14:05:58.488086,-43
14:05:58.488086,-6913
14:05:58.488086,-1
14:05:58.488086,-31
14:05:58.488086,-10753
14:05:58.488086,-1
14:05:58.488086,-40
14:05:58.488086,-12033
14:05:58.488086,-1
14:05:58.488086,-74
14:05:58.488086,-18177
14:05:58.488086,-1
14:05:58.488086,-52
14:05:58.488086,-4609
14:05:58.488086,-1
14:05:58.488086,19
14:05:58.488086,4864
14:05:58.488086,0
14:05:58.488086,-14
14:05:58.488086,-5121
14:05:58.488086,-1
14:05:58.488086,2
14:05:59.027978,16
14:05:59.027978,1792
14:05:59.027978,0
14:05:59.027978,2
14:05:59.027978,-7936
14:05:59.027978,-1
14:05:59.027978,-67
14:05:59.027978,-2561
14:05:59.027978,0
14:05:59.027978,987
14:05:59.027978,-25088
14:05:59.027978,4
14:05:59.027978,370
14:05:59.027978,21760
14:05:59.027978,-1
14:05:59.027978,31
14:05:59.027978,15360
14:05:59.027978,0
14:05:59.027978,-105
14:05:59.027978,-13057
14:05:59.027978,-1
14:05:59.027978,0
14:05:59.027978,-9728
14:05:59.027978,-1
14:05:59.027978,-21
14:05:59.027978,2047
14:05:59.027978,0
14:05:59.027978,-2
14:05:59.027978,767
14:05:59.027978,0
14:05:59.027978,24
14:05:59.027978,5376
14:05:59.027978,0
14:05:59.027978,16
14:05:59.027978,7936
14:05:59.027978,0
14:05:59.027978,45
14:05:59.027978,12800
14:05:59.027978,0
14:05:59.027978,50
14:05:59.027978,11520
14:05:59.027978,0
14:05:59.027978,45
14:05:59.027978,12288
14:05:59.027978,0
14:05:59.027978,43
14:05:59.027978,9216
14:05:59.027978,0
14:05:59.027978,38
14:05:59.027978,11008
14:05:59.027978,0
14:05:59.027978,36
14:05:59.027978,6656
14:05:59.027978,0
14:05:59.027978,26
14:05:59.027978,4864
14:05:59.027978,0
14:05:59.027978,9
14:05:59.027978,1792
14:05:59.027978,0
14:05:59.027978,2
14:05:59.027978,512
14:05:59.027978,0
14:05:59.027978,2
14:05:59.027978,-1792
14:05:59.027978,-1
14:05:59.027978,-9
14:05:59.027978,-769
14:05:59.027978,-1
14:05:59.027978,0
14:05:59.027978,0
14:05:59.027978,0
14:05:59.027978,-4
14:05:59.027978,767
14:05:59.027978,0
14:05:59.027978,16
14:05:59.027978,3584
14:05:59.027978,0
14:05:59.027978,2
14:05:59.027978,512
14:05:59.027978,0
14:05:59.027978,14
14:05:59.027978,4864
14:05:59.027978,0
14:05:59.027978,12
14:05:59.027978,5376
14:05:59.027978,0
14:05:59.027978,24
14:05:59.027978,3072
14:05:59.027978,0
14:05:59.027978,14
14:05:59.027978,7168
14:05:59.027978,0
14:05:59.027978,31
14:05:59.027978,4864
14:05:59.027978,0
14:05:59.027978,19
14:05:59.027978,6656
14:05:59.027978,0
14:05:59.027978,24
14:05:59.027978,6656
14:05:59.027978,0
14:05:59.027978,24
14:05:59.027978,3584
14:05:59.027978,0
14:05:59.027978,16
14:05:59.027978,5376
14:05:59.027978,0
14:05:59.027978,21
14:05:59.613653,19
14:05:59.613653,512
14:05:59.613653,0
14:05:59.613653,-14
14:05:59.613653,-4609
14:05:59.613653,-1
14:05:59.613653,-7
14:05:59.613653,8703
14:05:59.613653,0
14:05:59.613653,74
14:05:59.613653,20224
14:05:59.613653,0
14:05:59.613653,43
14:05:59.613653,6656
14:05:59.613653,0
14:05:59.613653,48
14:05:59.613653,14592
14:05:59.613653,0
14:05:59.613653,43
14:05:59.613653,11520
14:05:59.613653,0
14:05:59.613653,26
14:05:59.613653,-6656
14:05:59.613653,-1
14:05:59.613653,137
14:05:59.613653,13056
14:05:59.613653,3
14:05:59.613653,1370
14:05:59.613653,7424
14:05:59.613653,3
14:05:59.613653,-91
14:05:59.613653,-28673
14:05:59.613653,-1
14:05:59.613653,74
14:05:59.613653,-19712
14:05:59.613653,-1
14:05:59.613653,-115
14:05:59.613653,-6913
14:05:59.613653,-1
14:05:59.613653,-45
14:05:59.613653,-16897
14:05:59.613653,-1
14:05:59.613653,-36
14:05:59.613653,-6913
14:05:59.613653,-1
14:05:59.613653,-40
14:05:59.613653,-5889
14:05:59.613653,-1
14:05:59.613653,-19
14:05:59.613653,-6913
14:05:59.613653,-1
14:05:59.613653,-7
14:05:59.613653,2559
14:05:59.613653,0
14:05:59.613653,-9
14:05:59.613653,-3841
14:05:59.613653,-1
14:05:59.613653,9
14:05:59.613653,4864
14:05:59.613653,0
14:05:59.613653,4
14:05:59.613653,-512
14:05:59.613653,-1
14:05:59.613653,-12
14:05:59.613653,-6401
14:05:59.613653,-1
14:05:59.613653,-21
14:05:59.613653,-4609
14:05:59.613653,-1
14:05:59.613653,-24
14:05:59.613653,-6401
14:05:59.613653,-1
14:05:59.613653,-28
14:05:59.613653,-6913
14:05:59.613653,-1
14:05:59.613653,-28
14:05:59.613653,-7681
14:05:59.613653,-1
14:05:59.613653,-36
14:05:59.613653,-9985
14:05:59.613653,-1
14:05:59.613653,-31
14:05:59.613653,-7681
14:05:59.613653,-1
14:05:59.613653,-45
14:05:59.613653,-12545
14:05:59.613653,-1
14:05:59.613653,-31
14:05:59.613653,-2817
14:05:59.613653,-1
14:05:59.613653,-26
14:05:59.613653,-11265
14:05:59.613653,-1
14:05:59.613653,-36
14:05:59.613653,-6401
14:05:59.613653,-1
14:05:59.613653,-14
14:05:59.613653,-257
14:05:59.613653,-1
14:05:59.613653,-16
14:05:59.613653,-4609
14:05:59.613653,-1
14:05:59.613653,-7
14:05:59.613653,-257
14:05:59.613653,-1
14:05:59.613653,2
14:05:59.613653,2304
14:05:59.613653,0
14:05:59.613653,14
14:06:00.152679,14
14:06:00.152679,1792
14:06:00.152679,0
14:06:00.152679,2
14:06:00.152679,0
14:06:00.152679,0
14:06:00.152679,4
14:06:00.152679,1024
14:06:00.152679,0
14:06:00.152679,2
14:06:00.152679,4096
14:06:00.152679,0
14:06:00.152679,26
14:06:00.152679,5376
14:06:00.152679,0
14:06:00.152679,31
14:06:00.152679,7168
14:06:00.152679,0
14:06:00.152679,16
14:06:00.152679,5376
14:06:00.152679,0
14:06:00.152679,26
14:06:00.152679,1024
14:06:00.152679,0
14:06:00.152679,-28
14:06:00.152679,-8961
14:06:00.152679,-1
14:06:00.152679,-16
14:06:00.152679,2559
14:06:00.152679,0
14:06:00.152679,45
14:06:00.152679,12800
14:06:00.152679,0
14:06:00.152679,14
14:06:00.152679,0
14:06:00.152679,0
14:06:00.152679,12
14:06:00.152679,5376
14:06:00.152679,0
14:06:00.152679,21
14:06:00.152679,3072
14:06:00.152679,0
14:06:00.152679,-14
14:06:00.152679,-16385
14:06:00.152679,-1
14:06:00.152679,134
14:06:00.152679,17152
14:06:00.152679,3
14:06:00.152679,1305
14:06:00.152679,-25856
14:06:00.152679,2
14:06:00.152679,-151
14:06:00.152679,-27905
14:06:00.152679,-1
14:06:00.152679,40
14:06:00.152679,28672
14:06:00.152679,-1
14:06:00.152679,-163
14:06:00.152679,-15617
14:06:00.152679,-1
14:06:00.152679,-98
14:06:00.152679,-30465
14:06:00.152679,-1
14:06:00.152679,-69
14:06:00.152679,-17409
14:06:00.152679,-1
14:06:00.152679,-86
14:06:00.152679,-18689
14:06:00.152679,-1
14:06:00.152679,-62
14:06:00.152679,-14337
14:06:00.152679,-1
14:06:00.152679,-55
14:06:00.152679,-12545
14:06:00.152679,-1
14:06:00.152679,-50
14:06:00.152679,-11265
14:06:00.152679,-1
14:06:00.152679,-43
14:06:00.152679,-11265
14:06:00.152679,-1
14:06:00.152679,-36
14:06:00.152679,-7681
14:06:00.152679,-1
14:06:00.152679,-45
14:06:00.152679,-12033
14:06:00.152679,-1
14:06:00.152679,-45
14:06:00.152679,-12033
14:06:00.152679,-1
14:06:00.152679,-52
14:06:00.152679,-12545
14:06:00.152679,-1
14:06:00.152679,-48
14:06:00.152679,-14337
14:06:00.152679,-1
14:06:00.152679,-60
14:06:00.152679,-13057
14:06:00.152679,-1
14:06:00.152679,-60
14:06:00.152679,-16897
14:06:00.152679,-1
14:06:00.152679,-67
14:06:00.152679,-17409
14:06:00.152679,-1
14:06:00.152679,-57
14:06:00.152679,-13825
14:06:00.152679,-1
14:06:00.152679,-74
14:06:00.692747,-72
14:06:00.692747,-13057
14:06:00.692747,-1
14:06:00.692747,-55
14:06:00.692747,-17409
14:06:00.692747,-1
14:06:00.692747,-57
14:06:00.692747,-9985
14:06:00.692747,-1
14:06:00.692747,-45
14:06:00.692747,-8961
14:06:00.692747,-1
14:06:00.692747,-26
14:06:00.692747,-8193
14:06:00.692747,-1
14:06:00.692747,-36
14:06:00.692747,-8193
14:06:00.692747,-1
14:06:00.692747,-28
14:06:00.692747,-7681
14:06:00.692747,-1
14:06:00.692747,-40
14:06:00.692747,-8193
14:06:00.692747,-1
14:06:00.692747,-28
14:06:00.692747,-8193
14:06:00.692747,-1
14:06:00.692747,-40
14:06:00.692747,-8961
14:06:00.692747,-1
14:06:00.692747,-24
14:06:00.692747,-6401
14:06:00.692747,-1
14:06:00.692747,-33
14:06:00.692747,-6401
14:06:00.692747,-1
14:06:00.692747,-26
14:06:00.692747,-8961
14:06:00.692747,-1
14:06:00.692747,-43
14:06:00.692747,-13057
14:06:00.692747,-1
14:06:00.692747,-62
14:06:00.692747,-15105
14:06:00.692747,-1
14:06:00.692747,-33
14:06:00.692747,767
14:06:00.692747,0
14:06:00.692747,16
14:06:00.692747,-1024
14:06:00.692747,-1
14:06:00.692747,-31
14:06:00.692747,-5121
14:06:00.692747,-1
14:06:00.692747,7
14:06:00.692747,1792
14:06:00.692747,0
14:06:00.692747,-7
14:06:00.692747,-4609
14:06:00.692747,-1
14:06:00.692747,-69
14:06:00.692747,2559
14:06:00.692747,0
14:06:00.692747,573
14:06:00.692747,-19968
14:06:00.692747,4
14:06:00.692747,833
14:06:00.692747,-12288
14:06:00.692747,-1
14:06:00.692747,-149
14:06:00.692747,16127
14:06:00.692747,0
14:06:00.692747,-86
14:06:00.692747,24575
14:06:00.692747,-1
14:06:00.692747,-60
14:06:00.692747,-16385
14:06:00.692747,-1
14:06:00.692747,-98
14:06:00.692747,-16385
14:06:00.692747,-1
14:06:00.692747,-43
14:06:00.692747,-13825
14:06:00.692747,-1
14:06:00.692747,-52
14:06:00.692747,-8961
14:06:00.692747,-1
14:06:00.692747,-33
14:06:00.692747,-6913
14:06:00.692747,-1
14:06:00.692747,-24
14:06:00.692747,-5121
14:06:00.692747,-1
14:06:00.692747,-14
14:06:00.692747,-1537
14:06:00.692747,-1
14:06:00.692747,-2
14:06:00.692747,767
14:06:00.692747,0
14:06:00.692747,0
14:06:00.692747,512
14:06:00.692747,0
14:06:00.692747,-2
14:06:00.692747,-2817
14:06:00.692747,-1
14:06:00.692747,-9
14:06:00.692747,-1537
14:06:00.692747,-1
14:06:00.692747,-12
14:06:01.323737,-21
14:06:01.323737,-6913
14:06:01.323737,-1
14:06:01.323737,-28
14:06:01.323737,-5889
14:06:01.323737,-1
14:06:01.323737,-16
14:06:01.323737,-2817
14:06:01.323737,-1
14:06:01.323737,-24
14:06:01.323737,-6401
14:06:01.323737,-1
14:06:01.323737,-16
14:06:01.323737,-3329
14:06:01.323737,-1
14:06:01.323737,-12
14:06:01.323737,-2817
14:06:01.323737,-1
14:06:01.323737,-2
14:06:01.323737,255
14:06:01.323737,0
14:06:01.323737,-2
14:06:01.323737,1279
14:06:01.323737,0
14:06:01.323737,12
14:06:01.323737,3584
14:06:01.323737,0
14:06:01.323737,12
14:06:01.323737,4096
14:06:01.323737,0
14:06:01.323737,31
14:06:01.323737,9728
14:06:01.323737,0
14:06:01.323737,36
14:06:01.323737,9728
14:06:01.323737,0
14:06:01.323737,36
14:06:01.323737,9216
14:06:01.323737,0
14:06:01.323737,38
14:06:01.323737,10240
14:06:01.323737,0
14:06:01.323737,45
14:06:01.323737,11008
14:06:01.323737,0
14:06:01.323737,31
14:06:01.323737,10240
14:06:01.323737,0
14:06:01.323737,62
14:06:01.323737,17152
14:06:01.323737,0
14:06:01.323737,52
14:06:01.323737,12800
14:06:01.323737,0
14:06:01.323737,50
14:06:01.323737,9216
14:06:01.323737,0
14:06:01.323737,19
14:06:01.323737,1792
14:06:01.323737,0
14:06:01.323737,21
14:06:01.323737,15360
14:06:01.323737,0
14:06:01.323737,84
14:06:01.323737,22784
14:06:01.323737,0
14:06:01.323737,77
14:06:01.323737,15360
14:06:01.323737,0
14:06:01.323737,67
14:06:01.323737,22016
14:06:01.323737,0
14:06:01.323737,84
14:06:01.323737,18944
14:06:01.323737,0
14:06:01.323737,45
14:06:01.323737,-512
14:06:01.323737,-1
14:06:01.323737,163
14:06:01.323737,17920
14:06:01.323737,3
14:06:01.323737,1394
14:06:01.323737,17152
14:06:01.323737,3
14:06:01.323737,-57
14:06:01.323737,-20481
14:06:01.323737,-1
14:06:01.323737,108
14:06:01.323737,-14592
14:06:01.323737,-1
14:06:01.323737,-108
14:06:01.323737,-2817
14:06:01.323737,-1
14:06:01.323737,-28
14:06:01.323737,-15105
14:06:01.323737,-1
14:06:01.323737,-26
14:06:01.323737,-3841
14:06:01.323737,-1
14:06:01.323737,-28
14:06:01.323737,-3329
14:06:01.323737,-1
14:06:01.323737,0
14:06:01.323737,2304
14:06:01.323737,0
14:06:01.323737,19
14:06:01.323737,3072
14:06:01.323737,0
14:06:01.323737,7
14:06:01.863120,14
14:06:01.863120,4096
14:06:01.863120,0
14:06:01.863120,12
14:06:01.863120,1024
14:06:01.863120,0
14:06:01.863120,9
14:06:01.863120,2304
14:06:01.863120,0
14:06:01.863120,-4
14:06:01.863120,-2817
14:06:01.863120,-1
14:06:01.863120,-4
14:06:01.863120,255
14:06:01.863120,0
14:06:01.863120,-7
14:06:01.863120,-4609
14:06:01.863120,-1
14:06:01.863120,-16
14:06:01.863120,767
14:06:01.863120,0
14:06:01.863120,7
14:06:01.863120,-2304
14:06:01.863120,-1
14:06:01.863120,-24
14:06:01.863120,-5889
14:06:01.863120,-1
14:06:01.863120,-12
14:06:01.863120,-2049
14:06:01.863120,-1
14:06:01.863120,-14
14:06:01.863120,-3841
14:06:01.863120,-1
14:06:01.863120,-12
14:06:01.863120,-2817
14:06:01.863120,-1
14:06:01.863120,-19
14:06:01.863120,-2049
14:06:01.863120,-1
14:06:01.863120,-2
14:06:01.863120,-2817
14:06:01.863120,-1
14:06:01.863120,-14
14:06:01.863120,-1537
14:06:01.863120,-1
14:06:01.863120,0
14:06:01.863120,0
14:06:01.863120,0
14:06:01.863120,2
14:06:01.863120,2304
14:06:01.863120,0
14:06:01.863120,7
14:06:01.863120,1024
14:06:01.863120,0
14:06:01.863120,12
14:06:01.863120,3072
14:06:01.863120,0
14:06:01.863120,12
14:06:01.863120,3072
14:06:01.863120,0
14:06:01.863120,21
14:06:01.863120,7168
14:06:01.863120,0
14:06:01.863120,26
14:06:01.863120,7168
14:06:01.863120,0
14:06:01.863120,28
14:06:01.863120,5376
14:06:01.863120,0
14:06:01.863120,19
14:06:01.863120,512
14:06:01.863120,0
14:06:01.863120,-21
14:06:01.863120,-4609
14:06:01.863120,-1
14:06:01.863120,-4
14:06:01.863120,6399
14:06:01.863120,0
14:06:01.863120,62
14:06:01.863120,15872
14:06:01.863120,0
14:06:01.863120,24
14:06:01.863120,2304
14:06:01.863120,0
14:06:01.863120,31
14:06:01.863120,11008
14:06:01.863120,0
14:06:01.863120,38
14:06:01.863120,7168
14:06:01.863120,0
14:06:01.863120,-12
14:06:01.863120,-8961
14:06:01.863120,-1
14:06:01.863120,281
14:06:01.863120,2304
14:06:01.863120,4
14:06:01.863120,1271
14:06:01.863120,-18944
14:06:01.863120,1
14:06:01.863120,-202
14:06:01.863120,-2817
14:06:01.863120,-1
14:06:01.863120,52
14:06:01.863120,29184
14:06:01.863120,-1
14:06:01.863120,-110
14:06:01.863120,-8193
14:06:01.863120,-1
14:06:01.863120,-77
14:06:02.402688,-81
14:06:02.402688,-10753
14:06:02.402688,-1
14:06:02.402688,-43
14:06:02.402688,-13057
14:06:02.402688,-1
14:06:02.402688,-33
14:06:02.402688,-4609
14:06:02.402688,-1
14:06:02.402688,-26
14:06:02.402688,-5889
14:06:02.402688,-1
14:06:02.402688,-21
14:06:02.402688,-4609
14:06:02.402688,-1
14:06:02.402688,-4
14:06:02.402688,1279
14:06:02.402688,0
14:06:02.402688,4
14:06:02.402688,-1024
14:06:02.402688,-1
14:06:02.402688,-16
14:06:02.402688,-2817
14:06:02.402688,-1
14:06:02.402688,-7
14:06:02.402688,-4609
14:06:02.402688,-1
14:06:02.402688,-31
14:06:02.402688,-6401
14:06:02.402688,-1
14:06:02.402688,-28
14:06:02.402688,-10753
14:06:02.402688,-1
14:06:02.402688,-48
14:06:02.402688,-10753
14:06:02.402688,-1
14:06:02.402688,-52
14:06:02.402688,-14337
14:06:02.402688,-1
14:06:02.402688,-60
14:06:02.402688,-16897
14:06:02.402688,-1
14:06:02.402688,-62
14:06:02.402688,-13825
14:06:02.402688,-1
14:06:02.402688,-60
14:06:02.402688,-14337
14:06:02.402688,-1
14:06:02.402688,-45
14:06:02.402688,-9473
14:06:02.402688,-1
14:06:02.402688,-45
14:06:02.402688,-11265
14:06:02.402688,-1
14:06:02.402688,-38
14:06:02.402688,-11265
14:06:02.402688,-1
14:06:02.402688,-50
14:06:02.402688,-12033
14:06:02.402688,-1
14:06:02.402688,-43
14:06:02.402688,-10753
14:06:02.402688,-1
14:06:02.402688,-48
14:06:02.402688,-10753
14:06:02.402688,-1
14:06:02.402688,-36
14:06:02.402688,-8193
14:06:02.402688,-1
14:06:02.402688,-36
14:06:02.402688,-9985
14:06:02.402688,-1
14:06:02.402688,-36
14:06:02.402688,-5889
14:06:02.402688,-1
14:06:02.402688,-33
14:06:02.402688,-9473
14:06:02.402688,-1
14:06:02.402688,-26
14:06:02.402688,-6913
14:06:02.402688,-1
14:06:02.402688,-40
14:06:02.402688,-13825
14:06:02.402688,-1
14:06:02.402688,-67
14:06:02.402688,-17409
14:06:02.402688,-1
14:06:02.402688,-55
14:06:02.402688,-5121
14:06:02.402688,-1
14:06:02.402688,4
14:06:02.402688,1792
14:06:02.402688,0
14:06:02.402688,-14
14:06:02.402688,-6401
14:06:02.402688,-1
14:06:02.402688,-14
14:06:02.402688,-1537
14:06:02.402688,-1
14:06:02.402688,-9
14:06:02.402688,-3329
14:06:02.402688,-1
14:06:02.402688,-50
14:06:02.402688,-24833
14:06:02.402688,-1
14:06:02.402688,89
14:06:02.402688,-3840
14:06:02.402688,2
14:06:02.402688,1226
14:06:02.987673,614
14:06:02.987673,21760
14:06:02.987673,-1
14:06:02.987673,-113
14:06:02.987673,5631
14:06:02.987673,0
14:06:02.987673,-163
14:06:02.987673,22783
14:06:02.987673,-1
14:06:02.987673,-74
14:06:02.987673,-24833
14:06:02.987673,-1
14:06:02.987673,-103
14:06:02.987673,-17409
14:06:02.987673,-1
14:06:02.987673,-79
14:06:02.987673,-20481
14:06:02.987673,-1
14:06:02.987673,-57
14:06:02.987673,-13825
14:06:02.987673,-1
14:06:02.987673,-55
14:06:02.987673,-10753
14:06:02.987673,-1
14:06:02.987673,-48
14:06:02.987673,-12033
14:06:02.987673,-1
14:06:02.987673,-38
14:06:02.987673,-6913
14:06:02.987673,-1
14:06:02.987673,-16
14:06:02.987673,-3329
14:06:02.987673,-1
14:06:02.987673,-24
14:06:02.987673,-7681
14:06:02.987673,-1
14:06:02.987673,-38
14:06:02.987673,-10753
14:06:02.987673,-1
14:06:02.987673,-31
14:06:02.987673,-5121
14:06:02.987673,-1
14:06:02.987673,-36
14:06:02.987673,-13057
14:06:02.987673,-1
14:06:02.987673,-52
14:06:02.987673,-13825
14:06:02.987673,-1
14:06:02.987673,-65
14:06:02.987673,-16897
14:06:02.987673,-1
14:06:02.987673,-69
14:06:02.987673,-16897
14:06:02.987673,-1
14:06:02.987673,-65
14:06:02.987673,-16385
14:06:02.987673,-1
14:06:02.987673,-62
14:06:02.987673,-18177
14:06:02.987673,-1
14:06:02.987673,-67
14:06:02.987673,-13825
14:06:02.987673,-1
14:06:02.987673,-57
14:06:02.987673,-15617
14:06:02.987673,-1
14:06:02.987673,-65
14:06:02.987673,-15105
14:06:02.987673,-1
14:06:02.987673,-40
14:06:02.987673,-9985
14:06:02.987673,-1
14:06:02.987673,-45
14:06:02.987673,-8193
14:06:02.987673,-1
14:06:02.987673,-36
14:06:02.987673,-9985
14:06:02.987673,-1
14:06:02.987673,-40
14:06:02.987673,-8961
14:06:02.987673,-1
14:06:02.987673,-28
14:06:02.987673,-7681
14:06:02.987673,-1
14:06:02.987673,-26
14:06:02.987673,-6401
14:06:02.987673,-1
14:06:02.987673,-26
14:06:02.987673,-6401
14:06:02.987673,-1
14:06:02.987673,-43
14:06:02.987673,-15105
14:06:02.987673,-1
14:06:02.987673,-50
14:06:02.987673,-6401
14:06:02.987673,-1
14:06:02.987673,4
14:06:02.987673,6656
14:06:02.987673,0
14:06:02.987673,24
14:06:02.987673,2304
14:06:02.987673,0
14:06:02.987673,7
14:06:02.987673,4864
14:06:02.987673,0
14:06:02.987673,24
14:06:02.987673,7168
14:06:02.987673,0
14:06:02.987673,33
14:06:03.528270,-4
14:06:03.528270,-12033
14:06:03.528270,-1
14:06:03.528270,183
14:06:03.528270,28416
14:06:03.528270,3
14:06:03.528270,1262
14:06:03.528270,17408
14:06:03.528270,2
14:06:03.528270,-137
14:06:03.528270,-6401
14:06:03.528270,-1
14:06:03.528270,86
14:06:03.528270,-23296
14:06:03.528270,-1
14:06:03.528270,-81
14:06:03.528270,2559
14:06:03.528270,0
14:06:03.528270,-14
14:06:03.528270,-6401
14:06:03.528270,-1
14:06:03.528270,4
14:06:03.528270,2304
14:06:03.528270,0
14:06:03.528270,7
14:06:03.528270,6656
14:06:03.528270,0
14:06:03.528270,36
14:06:03.528270,8448
14:06:03.528270,0
14:06:03.528270,40
14:06:03.528270,12288
14:06:03.528270,0
14:06:03.528270,50
14:06:03.528270,12288
14:06:03.528270,0
14:06:03.528270,52
14:06:03.528270,16640
14:06:03.528270,0
14:06:03.528270,60
14:06:03.528270,12800
14:06:03.528270,0
14:06:03.528270,50
14:06:03.528270,11008
14:06:03.528270,0
14:06:03.528270,38
14:06:03.528270,11008
14:06:03.528270,0
14:06:03.528270,40
14:06:03.528270,7936
14:06:03.528270,0
14:06:03.528270,26
14:06:03.528270,6656
14:06:03.528270,0
14:06:03.528270,16
14:06:03.528270,2304
14:06:03.528270,0
14:06:03.528270,16
14:06:03.528270,3072
14:06:03.528270,0
14:06:03.528270,4
14:06:03.528270,2304
14:06:03.528270,0
14:06:03.528270,9
14:06:03.528270,1792
14:06:03.528270,0
14:06:03.528270,2
14:06:03.528270,512
14:06:03.528270,0
14:06:03.528270,14
14:06:03.528270,3584
14:06:03.528270,0
14:06:03.528270,12
14:06:03.528270,4096
14:06:03.528270,0
14:06:03.528270,14
14:06:03.528270,2304
14:06:03.528270,0
14:06:03.528270,21
14:06:03.528270,9216
14:06:03.528270,0
14:06:03.528270,31
14:06:03.528270,6144
14:06:03.528270,0
14:06:03.528270,28
14:06:03.528270,7168
14:06:03.528270,0
14:06:03.528270,24
14:06:03.528270,7168
14:06:03.528270,0
14:06:03.528270,28
14:06:03.528270,7168
14:06:03.528270,0
14:06:03.528270,28
14:06:03.528270,6144
14:06:03.528270,0
14:06:03.528270,26
14:06:03.528270,4864
14:06:03.528270,0
14:06:03.528270,-4
14:06:03.528270,-4609
14:06:03.528270,-1
14:06:03.528270,-9
14:06:03.528270,5119
14:06:03.528270,0
14:06:03.528270,50
14:06:03.528270,18432
14:06:03.528270,0
14:06:03.528270,57
14:06:04.069448,28
14:06:04.069448,9728
14:06:04.069448,0
14:06:04.069448,62
14:06:04.069448,13312
14:06:04.069448,0
14:06:04.069448,48
14:06:04.069448,11520
14:06:04.069448,0
14:06:04.069448,2
14:06:04.069448,512
14:06:04.069448,0
14:06:04.069448,402
14:06:04.069448,-27392
14:06:04.069448,4
14:06:04.069448,1252
14:06:04.069448,21248
14:06:04.069448,1
14:06:04.069448,-173
14:06:04.069448,11775
14:06:04.069448,0
14:06:04.069448,48
14:06:04.069448,-29440
14:06:04.069448,-1
14:06:04.069448,-55
14:06:04.069448,-2049
14:06:04.069448,-1
14:06:04.069448,-57
14:06:04.069448,-11265
14:06:04.069448,-1
14:06:04.069448,-14
14:06:04.069448,-6913
14:06:04.069448,-1
14:06:04.069448,-24
14:06:04.069448,-769
14:06:04.069448,-1
14:06:04.069448,-2
14:06:04.069448,767
14:06:04.069448,0
14:06:04.069448,4
14:06:04.069448,0
14:06:04.069448,0
14:06:04.069448,4
14:06:04.069448,1024
14:06:04.069448,0
14:06:04.069448,12
14:06:04.069448,4096
14:06:04.069448,0
14:06:04.069448,12
14:06:04.069448,1024
14:06:04.069448,0
14:06:04.069448,-7
14:06:04.069448,-2817
14:06:04.069448,-1
14:06:04.069448,-9
14:06:04.069448,-1537
14:06:04.069448,-1
14:06:04.069448,-12
14:06:04.069448,-5121
14:06:04.069448,-1
14:06:04.069448,-19
14:06:04.069448,-5121
14:06:04.069448,-1
14:06:04.069448,-33
14:06:04.069448,-8193
14:06:04.069448,-1
14:06:04.069448,-26
14:06:04.069448,-6913
14:06:04.069448,-1
14:06:04.069448,-31
14:06:04.069448,-6913
14:06:04.069448,-1
14:06:04.069448,-26
14:06:04.069448,-7681
14:06:04.069448,-1
14:06:04.069448,-31
14:06:04.069448,-5121
14:06:04.069448,-1
14:06:04.069448,-21
14:06:04.069448,-5889
14:06:04.069448,-1
14:06:04.069448,-26
14:06:04.069448,-6401
14:06:04.069448,-1
14:06:04.069448,-19
14:06:04.069448,-5121
14:06:04.069448,-1
14:06:04.069448,-31
14:06:04.069448,-4609
14:06:04.069448,-1
14:06:04.069448,-4
14:06:04.069448,-257
14:06:04.069448,-1
14:06:04.069448,-7
14:06:04.069448,-2049
14:06:04.069448,-1
14:06:04.069448,-4
14:06:04.069448,255
14:06:04.069448,0
14:06:04.069448,-2
14:06:04.069448,-1537
14:06:04.069448,-1
14:06:04.069448,-2
14:06:04.069448,2047
14:06:04.069448,0
14:06:04.069448,0
14:06:04.069448,-4096
14:06:04.069448,-1
14:06:04.069448,-36
14:06:04.654372,-52
14:06:04.654372,-9473
14:06:04.654372,-1
14:06:04.654372,-9
14:06:04.654372,5119
14:06:04.654372,0
14:06:04.654372,50
14:06:04.654372,12800
14:06:04.654372,0
14:06:04.654372,36
14:06:04.654372,9728
14:06:04.654372,0
14:06:04.654372,43
14:06:04.654372,11008
14:06:04.654372,0
14:06:04.654372,45
14:06:04.654372,9728
14:06:04.654372,0
14:06:04.654372,-9
14:06:04.654372,-2817
14:06:04.654372,-1
14:06:04.654372,399
14:06:04.654372,-31232
14:06:04.654372,4
14:06:04.654372,1192
14:06:04.654372,5376
14:06:04.654372,1
14:06:04.654372,-195
14:06:04.654372,9471
14:06:04.654372,0
14:06:04.654372,28
14:06:04.654372,31744
14:06:04.654372,-1
14:06:04.654372,-65
14:06:04.654372,-5121
14:06:04.654372,-1
14:06:04.654372,-67
14:06:04.654372,-13825
14:06:04.654372,-1
14:06:04.654372,-31
14:06:04.654372,-9985
14:06:04.654372,-1
14:06:04.654372,-28
14:06:04.654372,-1537
14:06:04.654372,-1
14:06:04.654372,-9
14:06:04.654372,-4609
14:06:04.654372,-1
14:06:04.654372,-9
14:06:04.654372,255
14:06:04.654372,0
14:06:04.654372,0
14:06:04.654372,512
14:06:04.654372,0
14:06:04.654372,4
14:06:04.654372,0
14:06:04.654372,0
14:06:04.654372,-4
14:06:04.654372,-2049
14:06:04.654372,-1
14:06:04.654372,-7
14:06:04.654372,-2817
14:06:04.654372,-1
14:06:04.654372,-21
14:06:04.654372,-4609
14:06:04.654372,-1
14:06:04.654372,-24
14:06:04.654372,-8193
14:06:04.654372,-1
14:06:04.654372,-33
14:06:04.654372,-7681
14:06:04.654372,-1
14:06:04.654372,-33
14:06:04.654372,-10753
14:06:04.654372,-1
14:06:04.654372,-48
14:06:04.654372,-12033
14:06:04.654372,-1
14:06:04.654372,-55
14:06:04.654372,-13057
14:06:04.654372,-1
14:06:04.654372,-40
14:06:04.654372,-10753
14:06:04.654372,-1
14:06:04.654372,-43
14:06:04.654372,-9985
14:06:04.654372,-1
14:06:04.654372,-43
14:06:04.654372,-11265
14:06:04.654372,-1
14:06:04.654372,-43
14:06:04.654372,-8961
14:06:04.654372,-1
14:06:04.654372,-40
14:06:04.654372,-10753
14:06:04.654372,-1
14:06:04.654372,-31
14:06:04.654372,-9473
14:06:04.654372,-1
14:06:04.654372,-40
14:06:04.654372,-8193
14:06:04.654372,-1
14:06:04.654372,-38
14:06:04.654372,-9473
14:06:04.654372,-1
14:06:04.654372,-31
14:06:04.654372,-3841
14:06:04.654372,-1
14:06:04.654372,-16
14:06:05.238214,-31
14:06:05.238214,-6401
14:06:05.238214,-1
14:06:05.238214,-16
14:06:05.238214,-5889
14:06:05.238214,-1
14:06:05.238214,-36
14:06:05.238214,-11265
14:06:05.238214,-1
14:06:05.238214,-60
14:06:05.238214,-16897
14:06:05.238214,-1
14:06:05.238214,-52
14:06:05.238214,-3841
14:06:05.238214,-1
14:06:05.238214,19
14:06:05.238214,6656
14:06:05.238214,0
14:06:05.238214,2
14:06:05.238214,-3072
14:06:05.238214,-1
14:06:05.238214,4
14:06:05.238214,4096
14:06:05.238214,0
14:06:05.238214,7
14:06:05.238214,1024
14:06:05.238214,0
14:06:05.238214,-9
14:06:05.238214,-13825
14:06:05.238214,-1
14:06:05.238214,24
14:06:05.238214,14848
14:06:05.238214,2
14:06:05.238214,1226
14:06:05.238214,-32256
14:06:05.238214,3
14:06:05.238214,-12
14:06:05.238214,24063
14:06:05.238214,-1
14:06:05.238214,62
14:06:05.238214,-18944
14:06:05.238214,-1
14:06:05.238214,-168
14:06:05.238214,-18689
14:06:05.238214,-1
14:06:05.238214,-77
14:06:05.238214,-29185
14:06:05.238214,-1
14:06:05.238214,-79
14:06:05.238214,-15617
14:06:05.238214,-1
14:06:05.238214,-77
14:06:05.238214,-15617
14:06:05.238214,-1
14:06:05.238214,-55
14:06:05.238214,-13825
14:06:05.238214,-1
14:06:05.238214,-40
14:06:05.238214,-9473
14:06:05.238214,-1
14:06:05.238214,-40
14:06:05.238214,-8193
14:06:05.238214,-1
14:06:05.238214,-31
14:06:05.238214,-4609
14:06:05.238214,-1
14:06:05.238214,-12
14:06:05.238214,-3841
14:06:05.238214,-1
14:06:05.238214,-28
14:06:05.238214,-9473
14:06:05.238214,-1
14:06:05.238214,-38
14:06:05.238214,-9473
14:06:05.238214,-1
14:06:05.238214,-40
14:06:05.238214,-10753
14:06:05.238214,-1
14:06:05.238214,-52
14:06:05.238214,-13057
14:06:05.238214,-1
14:06:05.238214,-55
14:06:05.238214,-16897
14:06:05.238214,-1
14:06:05.238214,-74
14:06:05.238214,-19457
14:06:05.238214,-1
14:06:05.238214,-79
14:06:05.238214,-19457
14:06:05.238214,-1
14:06:05.238214,-79
14:06:05.238214,-18689
14:06:05.238214,-1
14:06:05.238214,-72
14:06:05.238214,-16385
14:06:05.238214,-1
14:06:05.238214,-52
14:06:05.238214,-15105
14:06:05.238214,-1
14:06:05.238214,-62
14:06:05.238214,-12545
14:06:05.238214,-1
14:06:05.238214,-48
14:06:05.238214,-13057
14:06:05.238214,-1
14:06:05.238214,-50
14:06:05.238214,-12033
14:06:05.238214,-1
14:06:05.238214,-48
14:06:05.777727,-50
14:06:05.777727,-12033
14:06:05.777727,-1
14:06:05.777727,-48
14:06:05.777727,-12033
14:06:05.777727,-1
14:06:05.777727,-36
14:06:05.777727,-8193
14:06:05.777727,-1
14:06:05.777727,-40
14:06:05.777727,-9985
14:06:05.777727,-1
14:06:05.777727,-40
14:06:05.777727,-11265
14:06:05.777727,-1
14:06:05.777727,-48
14:06:05.777727,-9985
14:06:05.777727,-1
14:06:05.777727,-45
14:06:05.777727,-16385
14:06:05.777727,-1
14:06:05.777727,-57
14:06:05.777727,-6913
14:06:05.777727,-1
14:06:05.777727,9
14:06:05.777727,4096
14:06:05.777727,0
14:06:05.777727,-16
14:06:05.777727,-8193
14:06:05.777727,-1
14:06:05.777727,-12
14:06:05.777727,-769
14:06:05.777727,-1
14:06:05.777727,-9
14:06:05.777727,-2817
14:06:05.777727,-1
14:06:05.777727,-31
14:06:05.777727,-20481
14:06:05.777727,-1
14:06:05.777727,45
14:06:05.777727,-24576
14:06:05.777727,2
14:06:05.777727,1197
14:06:05.777727,-22784
14:06:05.777727,2
14:06:05.777727,-115
14:06:05.777727,-24321
14:06:05.777727,-1
14:06:05.777727,74
14:06:05.777727,-24576
14:06:05.777727,-1
14:06:05.777727,-130
14:06:05.777727,-9473
14:06:05.777727,-1
14:06:05.777727,-62
14:06:05.777727,-17409
14:06:05.777727,-1
14:06:05.777727,-21
14:06:05.777727,-6913
14:06:05.777727,-1
14:06:05.777727,-38
14:06:05.777727,-3841
14:06:05.777727,-1
14:06:05.777727,-4
14:06:05.777727,-257
14:06:05.777727,-1
14:06:05.777727,7
14:06:05.777727,4096
14:06:05.777727,0
14:06:05.777727,12
14:06:05.777727,1792
14:06:05.777727,0
14:06:05.777727,24
14:06:05.777727,6656
14:06:05.777727,0
14:06:05.777727,21
14:06:05.777727,7168
14:06:05.777727,0
14:06:05.777727,31
14:06:05.777727,6144
14:06:05.777727,0
14:06:05.777727,19
14:06:05.777727,6144
14:06:05.777727,0
14:06:05.777727,33
14:06:05.777727,7168
14:06:05.777727,0
14:06:05.777727,26
14:06:05.777727,6144
14:06:05.777727,0
14:06:05.777727,7
14:06:05.777727,1792
14:06:05.777727,0
14:06:05.777727,9
14:06:05.777727,0
14:06:05.777727,0
14:06:05.777727,-2
14:06:05.777727,-257
14:06:05.777727,-1
14:06:05.777727,0
14:06:05.777727,1792
14:06:05.777727,0
14:06:05.777727,9
14:06:05.777727,1792
14:06:05.777727,0
14:06:05.777727,9
14:06:05.777727,3072
14:06:05.777727,0
14:06:05.777727,14
14:06:06.318659,16
14:06:06.318659,6656
14:06:06.318659,0
14:06:06.318659,28
14:06:06.318659,7936
14:06:06.318659,0
14:06:06.318659,36
14:06:06.318659,8448
14:06:06.318659,0
14:06:06.318659,33
14:06:06.318659,7936
14:06:06.318659,0
14:06:06.318659,33
14:06:06.318659,12800
14:06:06.318659,0
14:06:06.318659,57
14:06:06.318659,13312
14:06:06.318659,0
14:06:06.318659,57
14:06:06.318659,14080
14:06:06.318659,0
14:06:06.318659,48
14:06:06.318659,11008
14:06:06.318659,0
14:06:06.318659,43
14:06:06.318659,12288
14:06:06.318659,0
14:06:06.318659,40
14:06:06.318659,1792
14:06:06.318659,0
14:06:06.318659,-14
14:06:06.318659,2047
14:06:06.318659,0
14:06:06.318659,45
14:06:06.318659,17152
14:06:06.318659,0
14:06:06.318659,72
14:06:06.318659,14592
14:06:06.318659,0
14:06:06.318659,43
14:06:06.318659,14592
14:06:06.318659,0
14:06:06.318659,62
14:06:06.318659,15360
14:06:06.318659,0
14:06:06.318659,69
14:06:06.318659,12288
14:06:06.318659,0
14:06:06.318659,-14
14:06:06.318659,20479
14:06:06.318659,0
14:06:06.318659,655
14:06:06.318659,10240
14:06:06.318659,5
14:06:06.318659,982
14:06:06.318659,9728
14:06:06.318659,0
14:06:06.318659,-142
14:06:06.318659,23551
14:06:06.318659,0
14:06:06.318659,-28
14:06:06.318659,-32257
14:06:06.318659,-1
14:06:06.318659,-31
14:06:06.318659,-5121
14:06:06.318659,-1
14:06:06.318659,-57
14:06:06.318659,-5889
14:06:06.318659,-1
14:06:06.318659,-12
14:06:06.318659,-5889
14:06:06.318659,-1
14:06:06.318659,-2
14:06:06.318659,3327
14:06:06.318659,0
14:06:06.318659,9
14:06:06.318659,1792
14:06:06.318659,0
14:06:06.318659,9
14:06:06.318659,4864
14:06:06.318659,0
14:06:06.318659,19
14:06:06.318659,2304
14:06:06.318659,0
14:06:06.318659,14
14:06:06.318659,5376
14:06:06.318659,0
14:06:06.318659,14
14:06:06.318659,3072
14:06:06.318659,0
14:06:06.318659,7
14:06:06.318659,0
14:06:06.318659,0
14:06:06.318659,-2
14:06:06.318659,767
14:06:06.318659,0
14:06:06.318659,2
14:06:06.318659,-1792
14:06:06.318659,-1
14:06:06.318659,-12
14:06:06.318659,-2817
14:06:06.318659,-1
14:06:06.318659,-9
14:06:06.318659,-2049
14:06:06.318659,-1
14:06:06.318659,-24
14:06:06.318659,-6913
14:06:06.318659,-1
14:06:06.318659,-21
14:06:06.903192,-21
14:06:06.903192,-5889
14:06:06.903192,-1
14:06:06.903192,-19
14:06:06.903192,-3329
14:06:06.903192,-1
14:06:06.903192,-16
14:06:06.903192,-4609
14:06:06.903192,-1
14:06:06.903192,-2
14:06:06.903192,2559
14:06:06.903192,0
14:06:06.903192,2
14:06:06.903192,0
14:06:06.903192,0
14:06:06.903192,7
14:06:06.903192,2304
14:06:06.903192,0
14:06:06.903192,4
14:06:06.903192,512
14:06:06.903192,0
14:06:06.903192,9
14:06:06.903192,2304
14:06:06.903192,0
14:06:06.903192,9
14:06:06.903192,3584
14:06:06.903192,0
14:06:06.903192,19
14:06:06.903192,5376
14:06:06.903192,0
14:06:06.903192,16
14:06:06.903192,3072
14:06:06.903192,0
14:06:06.903192,14
14:06:06.903192,3072
14:06:06.903192,0
14:06:06.903192,14
14:06:06.903192,3584
14:06:06.903192,0
14:06:06.903192,-7
14:06:06.903192,-6913
14:06:06.903192,-1
14:06:06.903192,-36
14:06:06.903192,-4609
14:06:06.903192,-1
14:06:06.903192,12
14:06:06.903192,10240
14:06:06.903192,0
14:06:06.903192,50
14:06:06.903192,5376
14:06:06.903192,0
14:06:06.903192,0
14:06:06.903192,3584
14:06:06.903192,0
14:06:06.903192,24
14:06:06.903192,5376
14:06:06.903192,0
14:06:06.903192,19
14:06:06.903192,0
14:06:06.903192,0
14:06:06.903192,-38
14:06:06.903192,32255
14:06:06.903192,0
14:06:06.903192,792
14:06:06.903192,10240
14:06:06.903192,5
14:06:06.903192,732
14:06:06.903192,-32000
14:06:06.903192,-1
14:06:06.903192,-110
14:06:06.903192,17919
14:06:06.903192,0
14:06:06.903192,-96
14:06:06.903192,-32257
14:06:06.903192,-1
14:06:06.903192,-40
14:06:06.903192,-16897
14:06:06.903192,-1
14:06:06.903192,-79
14:06:06.903192,-8193
14:06:06.903192,-1
14:06:06.903192,-31
14:06:06.903192,-10753
14:06:06.903192,-1
14:06:06.903192,-26
14:06:06.903192,-5121
14:06:06.903192,-1
14:06:06.903192,-24
14:06:06.903192,-3329
14:06:06.903192,-1
14:06:06.903192,-9
14:06:06.903192,-2049
14:06:06.903192,-1
14:06:06.903192,-9
14:06:06.903192,-1537
14:06:06.903192,-1
14:06:06.903192,-7
14:06:06.903192,-3329
14:06:06.903192,-1
14:06:06.903192,-12
14:06:06.903192,-2817
14:06:06.903192,-1
14:06:06.903192,-21
14:06:06.903192,-6913
14:06:06.903192,-1
14:06:06.903192,-31
14:06:06.903192,-4609
14:06:06.903192,-1
14:06:06.903192,-24
14:06:07.444629,-38
14:06:07.444629,-7681
14:06:07.444629,-1
14:06:07.444629,-24
14:06:07.444629,-8961
14:06:07.444629,-1
14:06:07.444629,-43
14:06:07.444629,-10753
14:06:07.444629,-1
14:06:07.444629,-45
14:06:07.444629,-13825
14:06:07.444629,-1
14:06:07.444629,-50
14:06:07.444629,-5121
14:06:07.444629,-1
14:06:07.444629,-7
14:06:07.444629,-3329
14:06:07.444629,-1
14:06:07.444629,-28
14:06:07.444629,-8193
14:06:07.444629,-1
14:06:07.444629,-26
14:06:07.444629,-5889
14:06:07.444629,-1
14:06:07.444629,-26
14:06:07.444629,-6913
14:06:07.444629,-1
14:06:07.444629,-28
14:06:07.444629,-5889
14:06:07.444629,-1
14:06:07.444629,-26
14:06:07.444629,-6401
14:06:07.444629,-1
14:06:07.444629,-31
14:06:07.444629,-10753
14:06:07.444629,-1
14:06:07.444629,-28
14:06:07.444629,-3329
14:06:07.444629,-1
14:06:07.444629,-28
14:06:07.444629,-9473
14:06:07.444629,-1
14:06:07.444629,-33
14:06:07.444629,-8961
14:06:07.444629,-1
14:06:07.444629,-38
14:06:07.444629,-9473
14:06:07.444629,-1
14:06:07.444629,-33
14:06:07.444629,-7681
14:06:07.444629,-1
14:06:07.444629,-38
14:06:07.444629,-14337
14:06:07.444629,-1
14:06:07.444629,-81
14:06:07.444629,-18689
14:06:07.444629,-1
14:06:07.444629,-45
14:06:07.444629,-4609
14:06:07.444629,-1
14:06:07.444629,4
14:06:07.444629,-512
14:06:07.444629,-1
14:06:07.444629,-33
14:06:07.444629,-8961
14:06:07.444629,-1
14:06:07.444629,-14
14:06:07.444629,255
14:06:07.444629,0
14:06:07.444629,-12
14:06:07.444629,-6913
14:06:07.444629,-1
14:06:07.444629,-67
14:06:07.444629,-14337
14:06:07.444629,-1
14:06:07.444629,363
14:06:07.444629,20224
14:06:07.444629,4
14:06:07.444629,1067
14:06:07.444629,-25600
14:06:07.444629,0
14:06:07.444629,-228
14:06:07.444629,5119
14:06:07.444629,0
14:06:07.444629,-33
14:06:07.444629,18431
14:06:07.444629,-1
14:06:07.444629,-98
14:06:07.444629,-16897
14:06:07.444629,-1
14:06:07.444629,-122
14:06:07.444629,-24833
14:06:07.444629,-1
14:06:07.444629,-67
14:06:07.444629,-18689
14:06:07.444629,-1
14:06:07.444629,-67
14:06:07.444629,-13825
14:06:07.444629,-1
14:06:07.444629,-60
14:06:07.444629,-15105
14:06:07.444629,-1
14:06:07.444629,-48
14:06:07.444629,-10753
14:06:07.444629,-1
14:06:07.444629,-48
14:06:07.444629,-9473
14:06:07.444629,-1
14:06:07.444629,-26
14:06:08.028214,-24
14:06:08.028214,-6401
14:06:08.028214,-1
14:06:08.028214,-31
14:06:08.028214,-8193
14:06:08.028214,-1
14:06:08.028214,-40
14:06:08.028214,-12033
14:06:08.028214,-1
14:06:08.028214,-40
14:06:08.028214,-6913
14:06:08.028214,-1
14:06:08.028214,-31
14:06:08.028214,-9985
14:06:08.028214,-1
14:06:08.028214,-45
14:06:08.028214,-12033
14:06:08.028214,-1
14:06:08.028214,-55
14:06:08.028214,-14337
14:06:08.028214,-1
14:06:08.028214,-57
14:06:08.028214,-16385
14:06:08.028214,-1
14:06:08.028214,-60
14:06:08.028214,-13825
14:06:08.028214,-1
14:06:08.028214,-60
14:06:08.028214,-15617
14:06:08.028214,-1
14:06:08.028214,-60
14:06:08.028214,-12545
14:06:08.028214,-1
14:06:08.028214,-50
14:06:08.028214,-14337
14:06:08.028214,-1
14:06:08.028214,-50
14:06:08.028214,-11265
14:06:08.028214,-1
14:06:08.028214,-40
14:06:08.028214,-6401
14:06:08.028214,-1
14:06:08.028214,-33
14:06:08.028214,-10753
14:06:08.028214,-1
14:06:08.028214,-36
14:06:08.028214,-9473
14:06:08.028214,-1
14:06:08.028214,-43
14:06:08.028214,-12545
14:06:08.028214,-1
14:06:08.028214,-43
14:06:08.028214,-8193
14:06:08.028214,-1
14:06:08.028214,-43
14:06:08.028214,-11265
14:06:08.028214,-1
14:06:08.028214,-31
14:06:08.028214,-6913
14:06:08.028214,-1
14:06:08.028214,-38
14:06:08.028214,-10753
14:06:08.028214,-1
14:06:08.028214,-50
14:06:08.028214,-17409
14:06:08.028214,-1
14:06:08.028214,-77
14:06:08.028214,-14337
14:06:08.028214,-1
14:06:08.028214,-26
14:06:08.028214,767
14:06:08.028214,0
14:06:08.028214,2
14:06:08.028214,-5376
14:06:08.028214,-1
14:06:08.028214,-19
14:06:08.028214,255
14:06:08.028214,0
14:06:08.028214,7
14:06:08.028214,1792
14:06:08.028214,0
14:06:08.028214,2
14:06:08.028214,-8448
14:06:08.028214,-1
14:06:08.028214,-74
14:06:08.028214,-24833
14:06:08.028214,0
14:06:08.028214,852
14:06:08.028214,-22528
14:06:08.028214,4
14:06:08.028214,493
14:06:08.028214,25088
14:06:08.028214,-1
14:06:08.028214,-21
14:06:08.028214,19199
14:06:08.028214,0
14:06:08.028214,-93
14:06:08.028214,-18177
14:06:08.028214,-1
14:06:08.028214,0
14:06:08.028214,-12288
14:06:08.028214,-1
14:06:08.028214,-50
14:06:08.028214,-1537
14:06:08.028214,-1
14:06:08.028214,-7
14:06:08.028214,-769
14:06:08.028214,-1
14:06:08.028214,12
14:06:08.568469,19
14:06:08.568469,4096
14:06:08.568469,0
14:06:08.568469,21
14:06:08.568469,9728
14:06:08.568469,0
14:06:08.568469,43
14:06:08.568469,9728
14:06:08.568469,0
14:06:08.568469,40
14:06:08.568469,10240
14:06:08.568469,0
14:06:08.568469,40
14:06:08.568469,11520
14:06:08.568469,0
14:06:08.568469,50
14:06:08.568469,15360
14:06:08.568469,0
14:06:08.568469,55
14:06:08.568469,12800
14:06:08.568469,0
14:06:08.568469,52
14:06:08.568469,11008
14:06:08.568469,0
14:06:08.568469,40
14:06:08.568469,11008
14:06:08.568469,0
14:06:08.568469,31
14:06:08.568469,7168
14:06:08.568469,0
14:06:08.568469,26
14:06:08.568469,4864
14:06:08.568469,0
14:06:08.568469,19
14:06:08.568469,4096
14:06:08.568469,0
14:06:08.568469,14
14:06:08.568469,2304
14:06:08.568469,0
14:06:08.568469,9
14:06:08.568469,6656
14:06:08.568469,0
14:06:08.568469,24
14:06:08.568469,3584
14:06:08.568469,0
14:06:08.568469,21
14:06:08.568469,7168
14:06:08.568469,0
14:06:08.568469,28
14:06:08.568469,7936
14:06:08.568469,0
14:06:08.568469,33
14:06:08.568469,7936
14:06:08.568469,0
14:06:08.568469,33
14:06:08.568469,10240
14:06:08.568469,0
14:06:08.568469,38
14:06:08.568469,8448
14:06:08.568469,0
14:06:08.568469,36
14:06:08.568469,9216
14:06:08.568469,0
14:06:08.568469,43
14:06:08.568469,11520
14:06:08.568469,0
14:06:08.568469,33
14:06:08.568469,8448
14:06:08.568469,0
14:06:08.568469,38
14:06:08.568469,9728
14:06:08.568469,0
14:06:08.568469,33
14:06:08.568469,4096
14:06:08.568469,0
14:06:08.568469,-4
14:06:08.568469,-3841
14:06:08.568469,-1
14:06:08.568469,-4
14:06:08.568469,8191
14:06:08.568469,0
14:06:08.568469,67
14:06:08.568469,19712
14:06:08.568469,0
14:06:08.568469,55
14:06:08.568469,8448
14:06:08.568469,0
14:06:08.568469,43
14:06:08.568469,12800
14:06:08.568469,0
14:06:08.568469,45
14:06:08.568469,12800
14:06:08.568469,0
14:06:08.568469,31
14:06:08.568469,-5376
14:06:08.568469,-1
14:06:08.568469,67
14:06:08.568469,-31488
14:06:08.568469,2
14:06:08.568469,1312
14:06:08.568469,-15616
14:06:08.568469,3
14:06:08.568469,24
14:06:08.568469,28672
14:06:08.568469,-1
14:06:08.568469,89
14:06:08.568469,-8448
14:06:08.568469,-1
14:06:08.568469,-127
14:06:09.153217,-33
14:06:09.153217,-7681
14:06:09.153217,-1
14:06:09.153217,-72
14:06:09.153217,-9985
14:06:09.153217,-1
14:06:09.153217,-16
14:06:09.153217,-6401
14:06:09.153217,-1
14:06:09.153217,-19
