timestamp,ecg
16:42:53.674332,56
16:42:53.674332,24064
16:42:53.674332,0
16:42:53.674332,56
16:42:53.674332,6656
16:42:53.674332,0
16:42:53.674332,66
16:42:53.674332,17408
16:42:53.674332,0
16:42:53.674332,42
16:42:53.674332,10240
16:42:53.674332,0
16:42:53.674332,33
16:42:53.674332,32512
16:42:53.674332,0
16:42:53.674332,191
16:42:53.674332,23552
16:42:53.674332,0
16:42:53.674332,59
16:42:53.674332,20480
16:42:53.674332,0
16:42:53.674332,33
16:42:53.674332,6656
16:42:53.674332,0
16:42:53.674332,49
16:42:53.674332,4608
16:42:53.674332,0
16:42:53.674332,-2
16:42:53.674332,3071
16:42:53.674332,0
16:42:53.674332,-44
16:42:53.674332,16895
16:42:53.674332,-1
16:42:53.674332,-278
16:42:53.674332,-20225
16:42:53.674332,-1
16:42:53.674332,548
16:42:53.674332,20480
16:42:53.674332,4
16:42:53.674332,893
16:42:53.674332,19712
16:42:53.674332,1
16:42:53.674332,151
16:42:53.674332,-28672
16:42:53.674332,0
16:42:53.674332,33
16:42:53.674332,-3584
16:42:53.674332,-1
16:42:53.674332,18
16:42:53.674332,-7680
16:42:53.674332,-1
16:42:53.674332,-66
16:42:53.674332,10495
16:42:53.674332,0
16:42:53.674332,85
16:42:53.674332,-1792
16:42:53.674332,-1
16:42:53.674332,-26
16:42:53.674332,3071
16:42:53.674332,0
16:42:53.674332,4
16:42:53.674332,512
16:42:53.674332,0
16:42:53.674332,18
16:42:53.674332,7168
16:42:53.674332,0
16:42:53.674332,35
16:42:53.674332,11264
16:42:53.674332,0
16:42:53.674332,56
16:42:53.674332,17408
16:42:53.674332,0
16:42:53.674332,75
16:42:53.674332,23552
16:42:53.674332,0
16:42:53.674332,115
16:42:53.674332,-32256
16:42:53.674332,0
16:42:53.674332,137
16:42:53.674332,-27648
16:42:53.674332,0
16:42:53.674332,146
16:42:53.674332,31232
16:42:53.674332,0
16:42:53.674332,87
16:42:53.674332,10752
16:42:53.674332,0
16:42:53.674332,-2
16:42:53.674332,-9985
16:42:53.674332,-1
16:42:53.674332,-70
16:42:53.674332,-20225
16:42:53.674332,-1
16:42:53.674332,-80
16:42:53.674332,-22017
16:42:53.674332,-1
16:42:53.674332,-89
16:42:53.674332,-20737
16:42:53.674332,-1
16:42:53.674332,-82
16:42:53.674332,-21505
16:42:53.674332,-1
16:42:53.674332,-80
16:42:53.674332,-17153
16:42:53.674332,-1
16:42:53.674332,-59
16:42:53.674332,-15361
16:42:53.674332,-1
16:42:53.674332,-56
16:42:53.861217,-44
16:42:53.861217,-9985
16:42:53.861217,-1
16:42:53.861217,-40
16:42:53.861217,-9217
16:42:53.861217,-1
16:42:53.861217,-28
16:42:53.861217,-3841
16:42:53.861217,-1
16:42:53.861217,-7
16:42:53.861217,-257
16:42:53.861217,-1
16:42:53.861217,0
16:42:53.861217,1792
16:42:53.861217,0
16:42:53.861217,9
16:42:53.861217,2304
16:42:53.861217,0
16:42:53.861217,4
16:42:53.861217,1024
16:42:53.861217,0
16:42:53.861217,9
16:42:53.861217,3584
16:42:53.861217,0
16:42:53.861217,14
16:42:53.861217,4096
16:42:53.861217,0
16:42:53.861217,18
16:42:53.861217,2816
16:42:53.861217,0
16:42:53.861217,11
16:42:53.861217,4608
16:42:53.861217,0
16:42:53.861217,21
16:42:53.861217,4096
16:42:53.861217,0
16:42:53.861217,11
16:42:53.861217,2304
16:42:53.861217,0
16:42:53.861217,4
16:42:53.861217,2816
16:42:53.861217,0
16:42:53.861217,18
16:42:53.861217,3584
16:42:53.861217,0
16:42:53.861217,7
16:42:53.861217,4096
16:42:53.861217,0
16:42:53.861217,42
16:42:53.861217,14336
16:42:53.861217,0
16:42:53.861217,61
16:42:53.861217,17408
16:42:53.861217,0
16:42:53.861217,66
16:42:53.861217,16128
16:42:53.861217,0
16:42:53.861217,54
16:42:53.861217,5888
16:42:53.861217,0
16:42:53.861217,9
16:42:53.861217,4608
16:42:53.861217,0
16:42:53.861217,23
16:42:53.861217,4096
16:42:53.861217,0
16:42:53.861217,7
16:42:53.861217,-2816
16:42:53.861217,-1
16:42:53.861217,-70
16:42:53.861217,15103
16:42:53.861217,-1
16:42:53.861217,-274
16:42:53.861217,-14081
16:42:53.861217,-1
16:42:53.861217,557
16:42:53.861217,-768
16:42:53.861217,3
16:42:53.861217,695
16:42:53.861217,-29440
16:42:53.861217,0
16:42:53.861217,101
16:42:53.861217,-23808
16:42:53.861217,0
16:42:53.861217,-11
16:42:53.861217,-20225
16:42:53.861217,-1
16:42:53.861217,-14
16:42:53.861217,-5633
16:42:53.861217,-1
16:42:53.861217,-56
16:42:53.861217,-7425
16:42:53.861217,-1
16:42:53.861217,-2
16:42:53.861217,-1537
16:42:53.861217,-1
16:42:53.861217,-4
16:42:53.861217,3071
16:42:53.861217,0
16:42:53.861217,26
16:42:53.861217,8960
16:42:53.861217,0
16:42:53.861217,42
16:42:53.861217,12032
16:42:53.861217,0
16:42:53.861217,59
16:42:53.861217,19200
16:42:53.861217,0
16:42:53.861217,89
16:42:54.445855,101
16:42:54.445855,32512
16:42:54.445855,0
16:42:54.445855,151
16:42:54.445855,-25088
16:42:54.445855,0
16:42:54.445855,174
16:42:54.445855,-15360
16:42:54.445855,0
16:42:54.445855,189
16:42:54.445855,-18944
16:42:54.445855,0
16:42:54.445855,186
16:42:54.445855,-28160
16:42:54.445855,0
16:42:54.445855,70
16:42:54.445855,5888
16:42:54.445855,0
16:42:54.445855,2
16:42:54.445855,-5376
16:42:54.445855,-1
16:42:54.445855,-40
16:42:54.445855,-11009
16:42:54.445855,-1
16:42:54.445855,-52
16:42:54.445855,-14849
16:42:54.445855,-1
16:42:54.445855,-59
16:42:54.445855,-13569
16:42:54.445855,-1
16:42:54.445855,-49
16:42:54.445855,-11777
16:42:54.445855,-1
16:42:54.445855,-37
16:42:54.445855,-8705
16:42:54.445855,-1
16:42:54.445855,-35
16:42:54.445855,-6913
16:42:54.445855,-1
16:42:54.445855,-21
16:42:54.445855,-6401
16:42:54.445855,-1
16:42:54.445855,-23
16:42:54.445855,-3329
16:42:54.445855,-1
16:42:54.445855,-7
16:42:54.445855,767
16:42:54.445855,0
16:42:54.445855,9
16:42:54.445855,1024
16:42:54.445855,0
16:42:54.445855,7
16:42:54.445855,3584
16:42:54.445855,0
16:42:54.445855,14
16:42:54.445855,4096
16:42:54.445855,0
16:42:54.445855,14
16:42:54.445855,512
16:42:54.445855,0
16:42:54.445855,-4
16:42:54.445855,255
16:42:54.445855,0
16:42:54.445855,18
16:42:54.445855,6656
16:42:54.445855,0
16:42:54.445855,7
16:42:54.445855,1024
16:42:54.445855,0
16:42:54.445855,26
16:42:54.445855,12544
16:42:54.445855,0
16:42:54.445855,59
16:42:54.445855,17408
16:42:54.445855,0
16:42:54.445855,70
16:42:54.445855,15616
16:42:54.445855,0
16:42:54.445855,42
16:42:54.445855,4096
16:42:54.445855,0
16:42:54.445855,-2
16:42:54.445855,-257
16:42:54.445855,-1
16:42:54.445855,11
16:42:54.445855,4096
16:42:54.445855,0
16:42:54.445855,7
16:42:54.445855,512
16:42:54.445855,0
16:42:54.445855,-14
16:42:54.445855,-28161
16:42:54.445855,-1
16:42:54.445855,-231
16:42:54.445855,10239
16:42:54.445855,-1
16:42:54.445855,130
16:42:54.445855,-27392
16:42:54.445855,2
16:42:54.445855,721
16:42:54.445855,-6400
16:42:54.445855,0
16:42:54.445855,16
16:42:54.445855,-17920
16:42:54.445855,0
16:42:54.445855,139
16:42:54.445855,-10240
16:42:54.445855,-1
16:42:54.445855,-21
16:42:54.985518,23
16:42:54.985518,-4096
16:42:54.985518,-1
16:42:54.985518,-16
16:42:54.985518,3071
16:42:54.985518,0
16:42:54.985518,14
16:42:54.985518,3584
16:42:54.985518,0
16:42:54.985518,26
16:42:54.985518,9472
16:42:54.985518,0
16:42:54.985518,44
16:42:54.985518,13824
16:42:54.985518,0
16:42:54.985518,59
16:42:54.985518,17408
16:42:54.985518,0
16:42:54.985518,99
16:42:54.985518,30208
16:42:54.985518,0
16:42:54.985518,122
16:42:54.985518,-29952
16:42:54.985518,0
16:42:54.985518,165
16:42:54.985518,-18944
16:42:54.985518,0
16:42:54.985518,189
16:42:54.985518,-14336
16:42:54.985518,0
16:42:54.985518,217
16:42:54.985518,-9984
16:42:54.985518,0
16:42:54.985518,186
16:42:54.985518,-31744
16:42:54.985518,0
16:42:54.985518,82
16:42:54.985518,11264
16:42:54.985518,0
16:42:54.985518,4
16:42:54.985518,-7680
16:42:54.985518,-1
16:42:54.985518,-44
16:42:54.985518,-12289
16:42:54.985518,-1
16:42:54.985518,-54
16:42:54.985518,-14081
16:42:54.985518,-1
16:42:54.985518,-54
16:42:54.985518,-13057
16:42:54.985518,-1
16:42:54.985518,-52
16:42:54.985518,-13569
16:42:54.985518,-1
16:42:54.985518,-49
16:42:54.985518,-10497
16:42:54.985518,-1
16:42:54.985518,-35
16:42:54.985518,-7425
16:42:54.985518,-1
16:42:54.985518,-26
16:42:54.985518,-5121
16:42:54.985518,-1
16:42:54.985518,-16
16:42:54.985518,-2049
16:42:54.985518,-1
16:42:54.985518,-7
16:42:54.985518,-769
16:42:54.985518,-1
16:42:54.985518,4
16:42:54.985518,1792
16:42:54.985518,0
16:42:54.985518,9
16:42:54.985518,2304
16:42:54.985518,0
16:42:54.985518,4
16:42:54.985518,1024
16:42:54.985518,0
16:42:54.985518,14
16:42:54.985518,4608
16:42:54.985518,0
16:42:54.985518,14
16:42:54.985518,2816
16:42:54.985518,0
16:42:54.985518,16
16:42:54.985518,4096
16:42:54.985518,0
16:42:54.985518,7
16:42:54.985518,5888
16:42:54.985518,0
16:42:54.985518,49
16:42:54.985518,15104
16:42:54.985518,0
16:42:54.985518,68
16:42:54.985518,17920
16:42:54.985518,0
16:42:54.985518,68
16:42:54.985518,17408
16:42:54.985518,0
16:42:54.985518,59
16:42:54.985518,7680
16:42:54.985518,0
16:42:54.985518,11
16:42:54.985518,8960
16:42:54.985518,0
16:42:54.985518,33
16:42:54.985518,1024
16:42:54.985518,0
16:42:54.985518,33
16:42:55.526183,9
16:42:55.526183,-27648
16:42:55.526183,-1
16:42:55.526183,-217
16:42:55.526183,8447
16:42:55.526183,-1
16:42:55.526183,108
16:42:55.526183,-2560
16:42:55.526183,2
16:42:55.526183,1014
16:42:55.526183,9216
16:42:55.526183,2
16:42:55.526183,127
16:42:55.526183,-24576
16:42:55.526183,0
16:42:55.526183,130
16:42:55.526183,-13312
16:42:55.526183,-1
16:42:55.526183,-68
16:42:55.526183,-2049
16:42:55.526183,-1
16:42:55.526183,4
16:42:55.526183,2304
16:42:55.526183,0
16:42:55.526183,-4
16:42:55.526183,-2561
16:42:55.526183,-1
16:42:55.526183,11
16:42:55.526183,6656
16:42:55.526183,0
16:42:55.526183,21
16:42:55.526183,7680
16:42:55.526183,0
16:42:55.526183,40
16:42:55.526183,6656
16:42:55.526183,0
16:42:55.526183,18
16:42:55.526183,18688
16:42:55.526183,0
16:42:55.526183,139
16:42:55.526183,-29440
16:42:55.526183,0
16:42:55.526183,132
16:42:55.526183,-27648
16:42:55.526183,0
16:42:55.526183,174
16:42:55.526183,-18944
16:42:55.526183,0
16:42:55.526183,184
16:42:55.526183,-17920
16:42:55.526183,0
16:42:55.526183,177
16:42:55.526183,-16640
16:42:55.526183,0
16:42:55.526183,172
16:42:55.526183,22272
16:42:55.526183,0
16:42:55.526183,42
16:42:55.526183,8960
16:42:55.526183,0
16:42:55.526183,-9
16:42:55.526183,-12289
16:42:55.526183,-1
16:42:55.526183,-35
16:42:55.526183,-7425
16:42:55.526183,-1
16:42:55.526183,-63
16:42:55.526183,-14849
16:42:55.526183,-1
16:42:55.526183,-9
16:42:55.526183,-6401
16:42:55.526183,-1
16:42:55.526183,-54
16:42:55.526183,-5633
16:42:55.526183,-1
16:42:55.526183,-14
16:42:55.526183,-6913
16:42:55.526183,-1
16:42:55.526183,-14
16:42:55.526183,-4353
16:42:55.526183,-1
16:42:55.526183,-30
16:42:55.526183,-1537
16:42:55.526183,-1
16:42:55.526183,14
16:42:55.526183,-3584
16:42:55.526183,-1
16:42:55.526183,-23
16:42:55.526183,2559
16:42:55.526183,0
16:42:55.526183,18
16:42:55.526183,2816
16:42:55.526183,0
16:42:55.526183,26
16:42:55.526183,5888
16:42:55.526183,0
16:42:55.526183,7
16:42:55.526183,1792
16:42:55.526183,0
16:42:55.526183,16
16:42:55.526183,4096
16:42:55.526183,0
16:42:55.526183,11
16:42:55.526183,7168
16:42:55.526183,0
16:42:55.526183,33
16:42:55.526183,5376
16:42:55.526183,0
16:42:55.526183,23
16:42:56.199766,26
16:42:56.199766,5888
16:42:56.199766,0
16:42:56.199766,37
16:42:56.199766,15104
16:42:56.199766,0
16:42:56.199766,75
16:42:56.199766,22784
16:42:56.199766,0
16:42:56.199766,96
16:42:56.199766,24064
16:42:56.199766,0
16:42:56.199766,75
16:42:56.199766,10240
16:42:56.199766,0
16:42:56.199766,26
16:42:56.199766,16128
16:42:56.199766,0
16:42:56.199766,68
16:42:56.199766,5888
16:42:56.199766,0
16:42:56.199766,28
16:42:56.199766,7680
16:42:56.199766,0
16:42:56.199766,-66
16:42:56.199766,10751
16:42:56.199766,-1
16:42:56.199766,-257
16:42:56.199766,15871
16:42:56.199766,0
16:42:56.199766,775
16:42:56.199766,-16640
16:42:56.199766,4
16:42:56.199766,827
16:42:56.199766,-8704
16:42:56.199766,0
16:42:56.199766,101
16:42:56.199766,-32256
16:42:56.199766,0
16:42:56.199766,-18
16:42:56.199766,-17665
16:42:56.199766,-1
16:42:56.199766,-16
16:42:56.199766,-9217
16:42:56.199766,-1
16:42:56.199766,-47
16:42:56.199766,-257
16:42:56.199766,-1
16:42:56.199766,-23
16:42:56.199766,-9217
16:42:56.199766,-1
16:42:56.199766,23
16:42:56.199766,10752
16:42:56.199766,0
16:42:56.199766,2
16:42:56.199766,3584
16:42:56.199766,0
16:42:56.199766,52
16:42:56.199766,10240
16:42:56.199766,0
16:42:56.199766,44
16:42:56.199766,21760
16:42:56.199766,0
16:42:56.199766,89
16:42:56.199766,24576
16:42:56.199766,0
16:42:56.199766,127
16:42:56.199766,-29440
16:42:56.199766,0
16:42:56.199766,153
16:42:56.199766,-22784
16:42:56.199766,0
16:42:56.199766,172
16:42:56.199766,-18944
16:42:56.199766,0
16:42:56.199766,174
16:42:56.199766,-30464
16:42:56.199766,0
16:42:56.199766,92
16:42:56.199766,12032
16:42:56.199766,0
16:42:56.199766,4
16:42:56.199766,-7680
16:42:56.199766,-1
16:42:56.199766,-47
16:42:56.199766,-14081
16:42:56.199766,-1
16:42:56.199766,-61
16:42:56.199766,-14081
16:42:56.199766,-1
16:42:56.199766,-44
16:42:56.199766,-9985
16:42:56.199766,-1
16:42:56.199766,-40
16:42:56.199766,-8705
16:42:56.199766,-1
16:42:56.199766,-30
16:42:56.199766,-7425
16:42:56.199766,-1
16:42:56.199766,-28
16:42:56.199766,-5633
16:42:56.199766,-1
16:42:56.199766,-21
16:42:56.199766,-5633
16:42:56.199766,-1
16:42:56.199766,-23
16:42:56.199766,-5121
16:42:56.199766,-1
16:42:56.199766,-11
16:42:56.650486,-11
16:42:56.650486,-3329
16:42:56.650486,-1
16:42:56.650486,-7
16:42:56.650486,767
16:42:56.650486,0
16:42:56.650486,9
16:42:56.650486,1792
16:42:56.650486,0
16:42:56.650486,7
16:42:56.650486,1792
16:42:56.650486,0
16:42:56.650486,4
16:42:56.650486,2304
16:42:56.650486,0
16:42:56.650486,11
16:42:56.650486,1024
16:42:56.650486,0
16:42:56.650486,2
16:42:56.650486,1792
16:42:56.650486,0
16:42:56.650486,7
16:42:56.650486,1024
16:42:56.650486,0
16:42:56.650486,14
16:42:56.650486,8448
16:42:56.650486,0
16:42:56.650486,49
16:42:56.650486,15616
16:42:56.650486,0
16:42:56.650486,75
16:42:56.650486,22784
16:42:56.650486,0
16:42:56.650486,85
16:42:56.650486,14336
16:42:56.650486,0
16:42:56.650486,28
16:42:56.650486,4608
16:42:56.650486,0
16:42:56.650486,18
16:42:56.650486,4608
16:42:56.650486,0
16:42:56.650486,26
16:42:56.650486,7168
16:42:56.650486,0
16:42:56.650486,18
16:42:56.650486,-9472
16:42:56.650486,-1
16:42:56.650486,-167
16:42:56.650486,-5377
16:42:56.650486,-2
16:42:56.650486,-125
16:42:56.650486,-6145
16:42:56.650486,1
16:42:56.650486,1144
16:42:56.650486,1024
16:42:56.650486,4
16:42:56.650486,375
16:42:56.650486,24576
16:42:56.650486,0
16:42:56.650486,134
16:42:56.650486,5376
16:42:56.650486,0
16:42:56.650486,-82
16:42:56.650486,-9217
16:42:56.650486,-1
16:42:56.650486,-26
16:42:56.650486,-13569
16:42:56.650486,-1
16:42:56.650486,-37
16:42:56.650486,-6401
16:42:56.650486,-1
16:42:56.650486,-30
16:42:56.650486,-5633
16:42:56.650486,-1
16:42:56.650486,-11
16:42:56.650486,255
16:42:56.650486,0
16:42:56.650486,11
16:42:56.650486,5376
16:42:56.650486,0
16:42:56.650486,30
16:42:56.650486,10752
16:42:56.650486,0
16:42:56.650486,56
16:42:56.650486,18688
16:42:56.650486,0
16:42:56.650486,92
16:42:56.650486,28928
16:42:56.650486,0
16:42:56.650486,125
16:42:56.650486,-32256
16:42:56.650486,0
16:42:56.650486,148
16:42:56.650486,-23808
16:42:56.650486,0
16:42:56.650486,167
16:42:56.650486,-23808
16:42:56.650486,0
16:42:56.650486,137
16:42:56.650486,23552
16:42:56.650486,0
16:42:56.650486,47
16:42:56.650486,2304
16:42:56.650486,0
16:42:56.650486,-28
16:42:56.650486,-14081
16:42:56.650486,-1
16:42:56.650486,-66
16:42:57.235123,-63
16:42:57.235123,-15361
16:42:57.235123,-1
16:42:57.235123,-59
16:42:57.235123,-14081
16:42:57.235123,-1
16:42:57.235123,-49
16:42:57.235123,-11777
16:42:57.235123,-1
16:42:57.235123,-42
16:42:57.235123,-8193
16:42:57.235123,-1
16:42:57.235123,-33
16:42:57.235123,-7425
16:42:57.235123,-1
16:42:57.235123,-30
16:42:57.235123,-8705
16:42:57.235123,-1
16:42:57.235123,-30
16:42:57.235123,-6401
16:42:57.235123,-1
16:42:57.235123,-23
16:42:57.235123,-4353
16:42:57.235123,-1
16:42:57.235123,-14
16:42:57.235123,-2049
16:42:57.235123,-1
16:42:57.235123,-7
16:42:57.235123,-2561
16:42:57.235123,-1
16:42:57.235123,-7
16:42:57.235123,-769
16:42:57.235123,-1
16:42:57.235123,-7
16:42:57.235123,-257
16:42:57.235123,-1
16:42:57.235123,0
16:42:57.235123,0
16:42:57.235123,0
16:42:57.235123,-2
16:42:57.235123,-769
16:42:57.235123,-1
16:42:57.235123,0
16:42:57.235123,1792
16:42:57.235123,0
16:42:57.235123,23
16:42:57.235123,13312
16:42:57.235123,0
16:42:57.235123,56
16:42:57.235123,11264
16:42:57.235123,0
16:42:57.235123,54
16:42:57.235123,13312
16:42:57.235123,0
16:42:57.235123,16
16:42:57.235123,0
16:42:57.235123,0
16:42:57.235123,7
16:42:57.235123,2304
16:42:57.235123,0
16:42:57.235123,7
16:42:57.235123,2304
16:42:57.235123,0
16:42:57.235123,7
16:42:57.235123,-10240
16:42:57.235123,-1
16:42:57.235123,-163
16:42:57.235123,-7937
16:42:57.235123,-2
16:42:57.235123,-196
16:42:57.235123,19199
16:42:57.235123,1
16:42:57.235123,990
16:42:57.235123,-14848
16:42:57.235123,3
16:42:57.235123,354
16:42:57.235123,20992
16:42:57.235123,0
16:42:57.235123,160
16:42:57.235123,14336
16:42:57.235123,0
16:42:57.235123,-80
16:42:57.235123,-10497
16:42:57.235123,-1
16:42:57.235123,-16
16:42:57.235123,-11009
16:42:57.235123,-1
16:42:57.235123,-37
16:42:57.235123,-3841
16:42:57.235123,-1
16:42:57.235123,-21
16:42:57.235123,-4353
16:42:57.235123,-1
16:42:57.235123,0
16:42:57.235123,2304
16:42:57.235123,0
16:42:57.235123,16
16:42:57.235123,7168
16:42:57.235123,0
16:42:57.235123,42
16:42:57.235123,13824
16:42:57.235123,0
16:42:57.235123,68
16:42:57.235123,22272
16:42:57.235123,0
16:42:57.235123,104
16:42:57.235123,30720
16:42:57.235123,0
16:42:57.235123,141
16:42:57.775789,160
16:42:57.775789,-19712
16:42:57.775789,0
16:42:57.775789,193
16:42:57.775789,-16128
16:42:57.775789,0
16:42:57.775789,179
16:42:57.775789,-28160
16:42:57.775789,0
16:42:57.775789,94
16:42:57.775789,10240
16:42:57.775789,0
16:42:57.775789,-2
16:42:57.775789,-7425
16:42:57.775789,-1
16:42:57.775789,-44
16:42:57.775789,-14849
16:42:57.775789,-1
16:42:57.775789,-68
16:42:57.775789,-16641
16:42:57.775789,-1
16:42:57.775789,-56
16:42:57.775789,-14081
16:42:57.775789,-1
16:42:57.775789,-56
16:42:57.775789,-13569
16:42:57.775789,-1
16:42:57.775789,-54
16:42:57.775789,-13057
16:42:57.775789,-1
16:42:57.775789,-44
16:42:57.775789,-11009
16:42:57.775789,-1
16:42:57.775789,-42
16:42:57.775789,-8705
16:42:57.775789,-1
16:42:57.775789,-30
16:42:57.775789,-7425
16:42:57.775789,-1
16:42:57.775789,-26
16:42:57.775789,-3841
16:42:57.775789,-1
16:42:57.775789,-14
16:42:57.775789,-4353
16:42:57.775789,-1
16:42:57.775789,-18
16:42:57.775789,-2561
16:42:57.775789,-1
16:42:57.775789,-2
16:42:57.775789,-257
16:42:57.775789,-1
16:42:57.775789,0
16:42:57.775789,0
16:42:57.775789,0
16:42:57.775789,0
16:42:57.775789,-512
16:42:57.775789,-1
16:42:57.775789,-9
16:42:57.775789,-3841
16:42:57.775789,-1
16:42:57.775789,-7
16:42:57.775789,3071
16:42:57.775789,0
16:42:57.775789,33
16:42:57.775789,12544
16:42:57.775789,0
16:42:57.775789,56
16:42:57.775789,16128
16:42:57.775789,0
16:42:57.775789,52
16:42:57.775789,4608
16:42:57.775789,0
16:42:57.775789,4
16:42:57.775789,2816
16:42:57.775789,0
16:42:57.775789,11
16:42:57.775789,3584
16:42:57.775789,0
16:42:57.775789,16
16:42:57.775789,1792
16:42:57.775789,0
16:42:57.775789,-23
16:42:57.775789,-28673
16:42:57.775789,-1
16:42:57.775789,-245
16:42:57.775789,511
16:42:57.775789,-1
16:42:57.775789,167
16:42:57.775789,-24320
16:42:57.775789,3
16:42:57.775789,1198
16:42:57.775789,-31488
16:42:57.775789,2
16:42:57.775789,139
16:42:57.775789,32512
16:42:57.775789,0
16:42:57.775789,96
16:42:57.775789,-16128
16:42:57.775789,-1
16:42:57.775789,-68
16:42:57.775789,-6401
16:42:57.775789,-1
16:42:57.775789,-52
16:42:57.775789,-13569
16:42:57.775789,-1
16:42:57.775789,-30
16:42:57.775789,-6913
16:42:57.775789,-1
16:42:57.775789,-26
16:42:58.360425,-11
16:42:58.360425,-769
16:42:58.360425,-1
16:42:58.360425,4
16:42:58.360425,5888
16:42:58.360425,0
16:42:58.360425,30
16:42:58.360425,10240
16:42:58.360425,0
16:42:58.360425,66
16:42:58.360425,22272
16:42:58.360425,0
16:42:58.360425,96
16:42:58.360425,28928
16:42:58.360425,0
16:42:58.360425,134
16:42:58.360425,-25600
16:42:58.360425,0
16:42:58.360425,172
16:42:58.360425,-17920
16:42:58.360425,0
16:42:58.360425,191
16:42:58.360425,-17152
16:42:58.360425,0
16:42:58.360425,163
16:42:58.360425,28928
16:42:58.360425,0
16:42:58.360425,56
16:42:58.360425,3584
16:42:58.360425,0
16:42:58.360425,-16
16:42:58.360425,-10497
16:42:58.360425,-1
16:42:58.360425,-54
16:42:58.360425,-15873
16:42:58.360425,-1
16:42:58.360425,-68
16:42:58.360425,-14849
16:42:58.360425,-1
16:42:58.360425,-52
16:42:58.360425,-11777
16:42:58.360425,-1
16:42:58.360425,-37
16:42:58.360425,-9217
16:42:58.360425,-1
16:42:58.360425,-42
16:42:58.360425,-10497
16:42:58.360425,-1
16:42:58.360425,-35
16:42:58.360425,-8193
16:42:58.360425,-1
16:42:58.360425,-33
16:42:58.360425,-8193
16:42:58.360425,-1
16:42:58.360425,-26
16:42:58.360425,-5633
16:42:58.360425,-1
16:42:58.360425,-21
16:42:58.360425,-3841
16:42:58.360425,-1
16:42:58.360425,-14
16:42:58.360425,-2049
16:42:58.360425,-1
16:42:58.360425,-2
16:42:58.360425,-257
16:42:58.360425,-1
16:42:58.360425,-4
16:42:58.360425,255
16:42:58.360425,0
16:42:58.360425,4
16:42:58.360425,1792
16:42:58.360425,0
16:42:58.360425,9
16:42:58.360425,1024
16:42:58.360425,0
16:42:58.360425,0
16:42:58.360425,-1024
16:42:58.360425,-1
16:42:58.360425,-7
16:42:58.360425,255
16:42:58.360425,0
16:42:58.360425,14
16:42:58.360425,8960
16:42:58.360425,0
16:42:58.360425,56
16:42:58.360425,16896
16:42:58.360425,0
16:42:58.360425,70
16:42:58.360425,17408
16:42:58.360425,0
16:42:58.360425,44
16:42:58.360425,4608
16:42:58.360425,0
16:42:58.360425,9
16:42:58.360425,3584
16:42:58.360425,0
16:42:58.360425,18
16:42:58.360425,4608
16:42:58.360425,0
16:42:58.360425,14
16:42:58.360425,-1024
16:42:58.360425,-1
16:42:58.360425,-75
16:42:58.360425,10751
16:42:58.360425,-1
16:42:58.360425,-290
16:42:58.360425,-9217
16:42:58.360425,-1
16:42:58.360425,638
16:42:58.900095,1144
16:42:58.900095,14592
16:42:58.900095,3
16:42:58.900095,219
16:42:58.900095,25344
16:42:58.900095,0
16:42:58.900095,134
16:42:58.900095,-3584
16:42:58.900095,-1
16:42:58.900095,-78
16:42:58.900095,-6401
16:42:58.900095,-1
16:42:58.900095,-37
16:42:58.900095,-14081
16:42:58.900095,-1
16:42:58.900095,-18
16:42:58.900095,255
16:42:58.900095,0
16:42:58.900095,-7
16:42:58.900095,-257
16:42:58.900095,-1
16:42:58.900095,7
16:42:58.900095,3584
16:42:58.900095,0
16:42:58.900095,28
16:42:58.900095,12032
16:42:58.900095,0
16:42:58.900095,56
16:42:58.900095,16896
16:42:58.900095,0
16:42:58.900095,82
16:42:58.900095,26624
16:42:58.900095,0
16:42:58.900095,125
16:42:58.900095,-28160
16:42:58.900095,0
16:42:58.900095,165
16:42:58.900095,-18944
16:42:58.900095,0
16:42:58.900095,196
16:42:58.900095,-11776
16:42:58.900095,0
16:42:58.900095,215
16:42:58.900095,-16128
16:42:58.900095,0
16:42:58.900095,148
16:42:58.900095,22784
16:42:58.900095,0
16:42:58.900095,35
16:42:58.900095,-1024
16:42:58.900095,-1
16:42:58.900095,-35
16:42:58.900095,-12289
16:42:58.900095,-1
16:42:58.900095,-52
16:42:58.900095,-14849
16:42:58.900095,-1
16:42:58.900095,-56
16:42:58.900095,-12289
16:42:58.900095,-1
16:42:58.900095,-52
16:42:58.900095,-13569
16:42:58.900095,-1
16:42:58.900095,-44
16:42:58.900095,-9217
16:42:58.900095,-1
16:42:58.900095,-40
16:42:58.900095,-11009
16:42:58.900095,-1
16:42:58.900095,-40
16:42:58.900095,-8705
16:42:58.900095,-1
16:42:58.900095,-33
16:42:58.900095,-6913
16:42:58.900095,-1
16:42:58.900095,-28
16:42:58.900095,-6401
16:42:58.900095,-1
16:42:58.900095,-14
16:42:58.900095,-769
16:42:58.900095,-1
16:42:58.900095,-2
16:42:58.900095,-769
16:42:58.900095,-1
16:42:58.900095,-4
16:42:58.900095,255
16:42:58.900095,0
16:42:58.900095,-4
16:42:58.900095,255
16:42:58.900095,0
16:42:58.900095,7
16:42:58.900095,1024
16:42:58.900095,0
16:42:58.900095,2
16:42:58.900095,1024
16:42:58.900095,0
16:42:58.900095,-2
16:42:58.900095,255
16:42:58.900095,0
16:42:58.900095,18
16:42:58.900095,8960
16:42:58.900095,0
16:42:58.900095,44
16:42:58.900095,14336
16:42:58.900095,0
16:42:58.900095,61
16:42:58.900095,16896
16:42:58.900095,0
16:42:58.900095,54
16:42:59.440757,18
16:42:59.440757,0
16:42:59.440757,0
16:42:59.440757,9
16:42:59.440757,4096
16:42:59.440757,0
16:42:59.440757,9
16:42:59.440757,512
16:42:59.440757,0
16:42:59.440757,9
16:42:59.440757,-1024
16:42:59.440757,-1
16:42:59.440757,-106
16:42:59.440757,3583
16:42:59.440757,-1
16:42:59.440757,-219
16:42:59.440757,-16897
16:42:59.440757,0
16:42:59.440757,787
16:42:59.440757,15104
16:42:59.440757,3
16:42:59.440757,297
16:42:59.440757,15616
16:42:59.440757,0
16:42:59.440757,191
16:42:59.440757,30720
16:42:59.440757,0
16:42:59.440757,-42
16:42:59.440757,-5121
16:42:59.440757,-1
16:42:59.440757,18
16:42:59.440757,-2816
16:42:59.440757,-1
16:42:59.440757,-11
16:42:59.440757,3071
16:42:59.440757,0
16:42:59.440757,11
16:42:59.440757,4096
16:42:59.440757,0
16:42:59.440757,28
16:42:59.440757,8960
16:42:59.440757,0
16:42:59.440757,40
16:42:59.440757,14336
16:42:59.440757,0
16:42:59.440757,78
16:42:59.440757,24064
16:42:59.440757,0
16:42:59.440757,106
16:42:59.440757,30720
16:42:59.440757,0
16:42:59.440757,141
16:42:59.440757,-21504
16:42:59.440757,0
16:42:59.440757,196
16:42:59.440757,-11776
16:42:59.440757,0
16:42:59.440757,224
16:42:59.440757,-4608
16:42:59.440757,0
16:42:59.440757,245
16:42:59.440757,-5632
16:42:59.440757,0
16:42:59.440757,196
16:42:59.440757,-28672
16:42:59.440757,0
16:42:59.440757,82
16:42:59.440757,7168
16:42:59.440757,0
16:42:59.440757,-11
16:42:59.440757,-8705
16:42:59.440757,-1
16:42:59.440757,-49
16:42:59.440757,-14849
16:42:59.440757,-1
16:42:59.440757,-61
16:42:59.440757,-14849
16:42:59.440757,-1
16:42:59.440757,-54
16:42:59.440757,-13569
16:42:59.440757,-1
16:42:59.440757,-54
16:42:59.440757,-13569
16:42:59.440757,-1
16:42:59.440757,-54
16:42:59.440757,-13057
16:42:59.440757,-1
16:42:59.440757,-49
16:42:59.440757,-10497
16:42:59.440757,-1
16:42:59.440757,-37
16:42:59.440757,-8193
16:42:59.440757,-1
16:42:59.440757,-28
16:42:59.440757,-5633
16:42:59.440757,-1
16:42:59.440757,-14
16:42:59.440757,-1537
16:42:59.440757,-1
16:42:59.440757,-4
16:42:59.440757,-1537
16:42:59.440757,-1
16:42:59.440757,-11
16:42:59.440757,-1537
16:42:59.440757,-1
16:42:59.440757,-2
16:42:59.440757,767
16:42:59.440757,0
16:42:59.440757,7
16:43:00.026394,7
16:43:00.026394,2304
16:43:00.026394,0
16:43:00.026394,4
16:43:00.026394,1024
16:43:00.026394,0
16:43:00.026394,11
16:43:00.026394,2304
16:43:00.026394,0
16:43:00.026394,2
16:43:00.026394,2304
16:43:00.026394,0
16:43:00.026394,23
16:43:00.026394,11264
16:43:00.026394,0
16:43:00.026394,61
16:43:00.026394,16128
16:43:00.026394,0
16:43:00.026394,68
16:43:00.026394,16896
16:43:00.026394,0
16:43:00.026394,40
16:43:00.026394,4608
16:43:00.026394,0
16:43:00.026394,16
16:43:00.026394,6656
16:43:00.026394,0
16:43:00.026394,26
16:43:00.026394,4096
16:43:00.026394,0
16:43:00.026394,14
16:43:00.026394,-1792
16:43:00.026394,-1
16:43:00.026394,-101
16:43:00.026394,3583
16:43:00.026394,-1
16:43:00.026394,-267
16:43:00.026394,24831
16:43:00.026394,0
16:43:00.026394,801
16:43:00.026394,21504
16:43:00.026394,4
16:43:00.026394,624
16:43:00.026394,-29952
16:43:00.026394,0
16:43:00.026394,146
16:43:00.026394,-31744
16:43:00.026394,0
16:43:00.026394,-44
16:43:00.026394,-15361
16:43:00.026394,-1
16:43:00.026394,-7
16:43:00.026394,-8193
16:43:00.026394,-1
16:43:00.026394,-44
16:43:00.026394,-4353
16:43:00.026394,-1
16:43:00.026394,-16
16:43:00.026394,-4353
16:43:00.026394,-1
16:43:00.026394,-2
16:43:00.026394,2559
16:43:00.026394,0
16:43:00.026394,14
16:43:00.026394,6656
16:43:00.026394,0
16:43:00.026394,35
16:43:00.026394,11264
16:43:00.026394,0
16:43:00.026394,61
16:43:00.026394,19200
16:43:00.026394,0
16:43:00.026394,94
16:43:00.026394,28928
16:43:00.026394,0
16:43:00.026394,132
16:43:00.026394,-25600
16:43:00.026394,0
16:43:00.026394,172
16:43:00.026394,-18432
16:43:00.026394,0
16:43:00.026394,198
16:43:00.026394,-14848
16:43:00.026394,0
16:43:00.026394,172
16:43:00.026394,31232
16:43:00.026394,0
16:43:00.026394,68
16:43:00.026394,5888
16:43:00.026394,0
16:43:00.026394,-9
16:43:00.026394,-8705
16:43:00.026394,-1
16:43:00.026394,-52
16:43:00.026394,-14081
16:43:00.026394,-1
16:43:00.026394,-49
16:43:00.026394,-12289
16:43:00.026394,-1
16:43:00.026394,-47
16:43:00.026394,-9217
16:43:00.026394,-1
16:43:00.026394,-40
16:43:00.026394,-11009
16:43:00.026394,-1
16:43:00.026394,-42
16:43:00.026394,-9217
16:43:00.026394,-1
16:43:00.026394,-35
16:43:00.655006,-33
16:43:00.655006,-6913
16:43:00.655006,-1
16:43:00.655006,-26
16:43:00.655006,-6401
16:43:00.655006,-1
16:43:00.655006,-23
16:43:00.655006,-3841
16:43:00.655006,-1
16:43:00.655006,-9
16:43:00.655006,-1537
16:43:00.655006,-1
16:43:00.655006,-2
16:43:00.655006,2047
16:43:00.655006,0
16:43:00.655006,9
16:43:00.655006,2304
16:43:00.655006,0
16:43:00.655006,14
16:43:00.655006,4096
16:43:00.655006,0
16:43:00.655006,14
16:43:00.655006,1792
16:43:00.655006,0
16:43:00.655006,9
16:43:00.655006,5376
16:43:00.655006,0
16:43:00.655006,23
16:43:00.655006,4608
16:43:00.655006,0
16:43:00.655006,26
16:43:00.655006,8960
16:43:00.655006,0
16:43:00.655006,30
16:43:00.655006,5376
16:43:00.655006,0
16:43:00.655006,21
16:43:00.655006,6656
16:43:00.655006,0
16:43:00.655006,26
16:43:00.655006,8448
16:43:00.655006,0
16:43:00.655006,30
16:43:00.655006,5376
16:43:00.655006,0
16:43:00.655006,26
16:43:00.655006,10240
16:43:00.655006,0
16:43:00.655006,37
16:43:00.655006,5888
16:43:00.655006,0
16:43:00.655006,18
16:43:00.655006,7680
16:43:00.655006,0
16:43:00.655006,33
16:43:00.655006,5888
16:43:00.655006,0
16:43:00.655006,26
16:43:00.655006,8448
16:43:00.655006,0
16:43:00.655006,37
16:43:00.655006,12032
16:43:00.655006,0
16:43:00.655006,56
16:43:00.655006,17920
16:43:00.655006,0
16:43:00.655006,78
16:43:00.655006,16896
16:43:00.655006,0
16:43:00.655006,42
16:43:00.655006,5888
16:43:00.655006,0
16:43:00.655006,26
16:43:00.655006,7680
16:43:00.655006,0
16:43:00.655006,28
16:43:00.655006,4608
16:43:00.655006,0
16:43:00.655006,-21
16:43:00.655006,-32257
16:43:00.655006,-1
16:43:00.655006,-255
16:43:00.655006,11519
16:43:00.655006,-1
16:43:00.655006,288
16:43:00.655006,512
16:43:00.655006,4
16:43:00.655006,1144
16:43:00.655006,6144
16:43:00.655006,2
16:43:00.655006,120
16:43:00.655006,-28672
16:43:00.655006,0
16:43:00.655006,75
16:43:00.655006,-18688
16:43:00.655006,-1
16:43:00.655006,-54
16:43:00.655006,-5121
16:43:00.655006,-1
16:43:00.655006,-52
16:43:00.655006,-13057
16:43:00.655006,-1
16:43:00.655006,-28
16:43:00.655006,-5121
16:43:00.655006,-1
16:43:00.655006,-18
16:43:00.655006,-3329
16:43:00.655006,-1
16:43:00.655006,-14
16:43:01.195670,4
16:43:01.195670,7680
16:43:01.195670,0
16:43:01.195670,37
16:43:01.195670,8960
16:43:01.195670,0
16:43:01.195670,44
16:43:01.195670,17408
16:43:01.195670,0
16:43:01.195670,87
16:43:01.195670,22784
16:43:01.195670,0
16:43:01.195670,101
16:43:01.195670,-29952
16:43:01.195670,0
16:43:01.195670,177
16:43:01.195670,-17920
16:43:01.195670,0
16:43:01.195670,182
16:43:01.195670,-17920
16:43:01.195670,0
16:43:01.195670,184
16:43:01.195670,-26880
16:43:01.195670,0
16:43:01.195670,101
16:43:01.195670,15104
16:43:01.195670,0
16:43:01.195670,16
16:43:01.195670,-4608
16:43:01.195670,-1
16:43:01.195670,-33
16:43:01.195670,-9985
16:43:01.195670,-1
16:43:01.195670,-44
16:43:01.195670,-11009
16:43:01.195670,-1
16:43:01.195670,-49
16:43:01.195670,-13057
16:43:01.195670,-1
16:43:01.195670,-42
16:43:01.195670,-10497
16:43:01.195670,-1
16:43:01.195670,-40
16:43:01.195670,-8705
16:43:01.195670,-1
16:43:01.195670,-35
16:43:01.195670,-8705
16:43:01.195670,-1
16:43:01.195670,-28
16:43:01.195670,-5121
16:43:01.195670,-1
16:43:01.195670,-21
16:43:01.195670,-4353
16:43:01.195670,-1
16:43:01.195670,-14
16:43:01.195670,-2049
16:43:01.195670,-1
16:43:01.195670,-4
16:43:01.195670,-1537
16:43:01.195670,-1
16:43:01.195670,-7
16:43:01.195670,-769
16:43:01.195670,-1
16:43:01.195670,-7
16:43:01.195670,255
16:43:01.195670,0
16:43:01.195670,11
16:43:01.195670,3584
16:43:01.195670,0
16:43:01.195670,11
16:43:01.195670,4096
16:43:01.195670,0
16:43:01.195670,16
16:43:01.195670,2816
16:43:01.195670,0
16:43:01.195670,11
16:43:01.195670,4096
16:43:01.195670,0
16:43:01.195670,14
16:43:01.195670,2304
16:43:01.195670,0
16:43:01.195670,14
16:43:01.195670,4096
16:43:01.195670,0
16:43:01.195670,18
16:43:01.195670,4608
16:43:01.195670,0
16:43:01.195670,23
16:43:01.195670,5888
16:43:01.195670,0
16:43:01.195670,18
16:43:01.195670,6656
16:43:01.195670,0
16:43:01.195670,37
16:43:01.195670,10752
16:43:01.195670,0
16:43:01.195670,18
16:43:01.195670,-1024
16:43:01.195670,-1
16:43:01.195670,14
16:43:01.195670,8960
16:43:01.195670,0
16:43:01.195670,40
16:43:01.195670,14336
16:43:01.195670,0
16:43:01.195670,70
16:43:01.195670,18688
16:43:01.195670,0
16:43:01.195670,75
16:43:01.735334,61
16:43:01.735334,8448
16:43:01.735334,0
16:43:01.735334,23
16:43:01.735334,8448
16:43:01.735334,0
16:43:01.735334,40
16:43:01.735334,8448
16:43:01.735334,0
16:43:01.735334,26
16:43:01.735334,-4096
16:43:01.735334,-1
16:43:01.735334,-139
16:43:01.735334,1791
16:43:01.735334,-1
16:43:01.735334,-144
16:43:01.735334,30719
16:43:01.735334,1
16:43:01.735334,959
16:43:01.735334,17408
16:43:01.735334,3
16:43:01.735334,269
16:43:01.735334,29440
16:43:01.735334,0
16:43:01.735334,212
16:43:01.735334,21760
16:43:01.735334,0
16:43:01.735334,-44
16:43:01.735334,-2561
16:43:01.735334,-1
16:43:01.735334,-2
16:43:01.735334,-5633
16:43:01.735334,-1
16:43:01.735334,-9
16:43:01.735334,255
16:43:01.735334,0
16:43:01.735334,-7
16:43:01.735334,767
16:43:01.735334,0
16:43:01.735334,21
16:43:01.735334,6656
16:43:01.735334,0
16:43:01.735334,30
16:43:01.735334,10240
16:43:01.735334,0
16:43:01.735334,49
16:43:01.735334,15616
16:43:01.735334,0
16:43:01.735334,80
16:43:01.735334,22784
16:43:01.735334,0
16:43:01.735334,99
16:43:01.735334,31232
16:43:01.735334,0
16:43:01.735334,144
16:43:01.735334,-22784
16:43:01.735334,0
16:43:01.735334,182
16:43:01.735334,-19712
16:43:01.735334,0
16:43:01.735334,182
16:43:01.735334,-17920
16:43:01.735334,0
16:43:01.735334,167
16:43:01.735334,30208
16:43:01.735334,0
16:43:01.735334,66
16:43:01.735334,5376
16:43:01.735334,0
16:43:01.735334,-14
16:43:01.735334,-8193
16:43:01.735334,-1
16:43:01.735334,-44
16:43:01.735334,-13569
16:43:01.735334,-1
16:43:01.735334,-56
16:43:01.735334,-14081
16:43:01.735334,-1
16:43:01.735334,-56
16:43:01.735334,-14849
16:43:01.735334,-1
16:43:01.735334,-54
16:43:01.735334,-12289
16:43:01.735334,-1
16:43:01.735334,-54
16:43:01.735334,-14081
16:43:01.735334,-1
16:43:01.735334,-49
16:43:01.735334,-10497
16:43:01.735334,-1
16:43:01.735334,-37
16:43:01.735334,-7425
16:43:01.735334,-1
16:43:01.735334,-28
16:43:01.735334,-6913
16:43:01.735334,-1
16:43:01.735334,-21
16:43:01.735334,-3329
16:43:01.735334,-1
16:43:01.735334,-11
16:43:01.735334,-2049
16:43:01.735334,-1
16:43:01.735334,0
16:43:01.735334,1792
16:43:01.735334,0
16:43:01.735334,2
16:43:01.735334,-1024
16:43:01.735334,-1
16:43:01.735334,2
16:43:02.276002,11
16:43:02.276002,2816
16:43:02.276002,0
16:43:02.276002,11
16:43:02.276002,2816
16:43:02.276002,0
16:43:02.276002,9
16:43:02.276002,2304
16:43:02.276002,0
16:43:02.276002,14
16:43:02.276002,4096
16:43:02.276002,0
16:43:02.276002,16
16:43:02.276002,4608
16:43:02.276002,0
16:43:02.276002,18
16:43:02.276002,5888
16:43:02.276002,0
16:43:02.276002,35
16:43:02.276002,8960
16:43:02.276002,0
16:43:02.276002,30
16:43:02.276002,8448
16:43:02.276002,0
16:43:02.276002,33
16:43:02.276002,8448
16:43:02.276002,0
16:43:02.276002,33
16:43:02.276002,8448
16:43:02.276002,0
16:43:02.276002,37
16:43:02.276002,12544
16:43:02.276002,0
16:43:02.276002,66
16:43:02.276002,17920
16:43:02.276002,0
16:43:02.276002,75
16:43:02.276002,20992
16:43:02.276002,0
16:43:02.276002,70
16:43:02.276002,9472
16:43:02.276002,0
16:43:02.276002,23
16:43:02.276002,8448
16:43:02.276002,0
16:43:02.276002,37
16:43:02.276002,7168
16:43:02.276002,0
16:43:02.276002,26
16:43:02.276002,-5888
16:43:02.276002,-1
16:43:02.276002,-163
16:43:02.276002,-7425
16:43:02.276002,-2
16:43:02.276002,-132
16:43:02.276002,-5121
16:43:02.276002,1
16:43:02.276002,1146
16:43:02.276002,512
16:43:02.276002,4
16:43:02.276002,380
16:43:02.276002,27648
16:43:02.276002,0
16:43:02.276002,141
16:43:02.276002,5376
16:43:02.276002,0
16:43:02.276002,-80
16:43:02.276002,-8705
16:43:02.276002,-1
16:43:02.276002,-28
16:43:02.276002,-15361
16:43:02.276002,-1
16:43:02.276002,-44
16:43:02.276002,-5633
16:43:02.276002,-1
16:43:02.276002,-28
16:43:02.276002,-6401
16:43:02.276002,-1
16:43:02.276002,-9
16:43:02.276002,-1537
16:43:02.276002,-1
16:43:02.276002,-4
16:43:02.276002,2559
16:43:02.276002,0
16:43:02.276002,26
16:43:02.276002,9472
16:43:02.276002,0
16:43:02.276002,49
16:43:02.276002,16896
16:43:02.276002,0
16:43:02.276002,82
16:43:02.276002,24576
16:43:02.276002,0
16:43:02.276002,113
16:43:02.276002,-31744
16:43:02.276002,0
16:43:02.276002,148
16:43:02.276002,-24576
16:43:02.276002,0
16:43:02.276002,172
16:43:02.276002,-21504
16:43:02.276002,0
16:43:02.276002,151
16:43:02.276002,28416
16:43:02.276002,0
16:43:02.276002,56
16:43:02.276002,2304
16:43:02.276002,0
16:43:02.276002,-16
16:43:02.815664,-40
16:43:02.815664,-14081
16:43:02.815664,-1
16:43:02.815664,-66
16:43:02.815664,-17153
16:43:02.815664,-1
16:43:02.815664,-63
16:43:02.815664,-14849
16:43:02.815664,-1
16:43:02.815664,-56
16:43:02.815664,-13569
16:43:02.815664,-1
16:43:02.815664,-44
16:43:02.815664,-9217
16:43:02.815664,-1
16:43:02.815664,-40
16:43:02.815664,-9985
16:43:02.815664,-1
16:43:02.815664,-37
16:43:02.815664,-8193
16:43:02.815664,-1
16:43:02.815664,-28
16:43:02.815664,-6401
16:43:02.815664,-1
16:43:02.815664,-23
16:43:02.815664,-4353
16:43:02.815664,-1
16:43:02.815664,-16
16:43:02.815664,-2049
16:43:02.815664,-1
16:43:02.815664,-2
16:43:02.815664,-257
16:43:02.815664,-1
16:43:02.815664,0
16:43:02.815664,512
16:43:02.815664,0
16:43:02.815664,2
16:43:02.815664,1024
16:43:02.815664,0
16:43:02.815664,7
16:43:02.815664,2304
16:43:02.815664,0
16:43:02.815664,14
16:43:02.815664,3584
16:43:02.815664,0
16:43:02.815664,11
16:43:02.815664,3584
16:43:02.815664,0
16:43:02.815664,16
16:43:02.815664,3584
16:43:02.815664,0
16:43:02.815664,14
16:43:02.815664,4608
16:43:02.815664,0
16:43:02.815664,16
16:43:02.815664,4608
16:43:02.815664,0
16:43:02.815664,21
16:43:02.815664,5888
16:43:02.815664,0
16:43:02.815664,21
16:43:02.815664,3584
16:43:02.815664,0
16:43:02.815664,11
16:43:02.815664,4608
16:43:02.815664,0
16:43:02.815664,18
16:43:02.815664,4096
16:43:02.815664,0
16:43:02.815664,18
16:43:02.815664,4608
16:43:02.815664,0
16:43:02.815664,23
16:43:02.815664,6656
16:43:02.815664,0
16:43:02.815664,30
16:43:02.815664,11264
16:43:02.815664,0
16:43:02.815664,61
16:43:02.815664,17920
16:43:02.815664,0
16:43:02.815664,75
16:43:02.815664,15616
16:43:02.815664,0
16:43:02.815664,35
16:43:02.815664,5376
16:43:02.815664,0
16:43:02.815664,23
16:43:02.815664,5376
16:43:02.815664,0
16:43:02.815664,16
16:43:02.815664,5376
16:43:02.815664,0
16:43:02.815664,-9
16:43:02.815664,-30465
16:43:02.815664,-1
16:43:02.815664,-262
16:43:02.815664,4863
16:43:02.815664,-1
16:43:02.815664,219
16:43:02.815664,-17152
16:43:02.815664,3
16:43:02.815664,1153
16:43:02.815664,18944
16:43:02.815664,2
16:43:02.815664,120
16:43:02.815664,31232
16:43:02.815664,0
16:43:02.815664,78
16:43:03.355333,-78
16:43:03.355333,-18433
16:43:03.355333,-1
16:43:03.355333,-33
16:43:03.355333,-14849
16:43:03.355333,-1
16:43:03.355333,-59
16:43:03.355333,-8705
16:43:03.355333,-1
16:43:03.355333,-28
16:43:03.355333,-5633
16:43:03.355333,-1
16:43:03.355333,-14
16:43:03.355333,-769
16:43:03.355333,-1
16:43:03.355333,4
16:43:03.355333,3584
16:43:03.355333,0
16:43:03.355333,21
16:43:03.355333,7168
16:43:03.355333,0
16:43:03.355333,40
16:43:03.355333,13824
16:43:03.355333,0
16:43:03.355333,75
16:43:03.355333,24064
16:43:03.355333,0
16:43:03.355333,99
16:43:03.355333,29440
16:43:03.355333,0
16:43:03.355333,141
16:43:03.355333,-26368
16:43:03.355333,0
16:43:03.355333,153
16:43:03.355333,-25088
16:43:03.355333,0
16:43:03.355333,156
16:43:03.355333,-32256
16:43:03.355333,0
16:43:03.355333,80
16:43:03.355333,8448
16:43:03.355333,0
16:43:03.355333,-2
16:43:03.355333,-6913
16:43:03.355333,-1
16:43:03.355333,-49
16:43:03.355333,-15873
16:43:03.355333,-1
16:43:03.355333,-61
16:43:03.355333,-14081
16:43:03.355333,-1
16:43:03.355333,-61
16:43:03.355333,-14849
16:43:03.355333,-1
16:43:03.355333,-52
16:43:03.355333,-11777
16:43:03.355333,-1
16:43:03.355333,-52
16:43:03.355333,-13569
16:43:03.355333,-1
16:43:03.355333,-42
16:43:03.355333,-7425
16:43:03.355333,-1
16:43:03.355333,-28
16:43:03.355333,-7425
16:43:03.355333,-1
16:43:03.355333,-26
16:43:03.355333,-3841
16:43:03.355333,-1
16:43:03.355333,-7
16:43:03.355333,-769
16:43:03.355333,-1
16:43:03.355333,-2
16:43:03.355333,255
16:43:03.355333,0
16:43:03.355333,-2
16:43:03.355333,255
16:43:03.355333,0
16:43:03.355333,9
16:43:03.355333,3584
16:43:03.355333,0
16:43:03.355333,9
16:43:03.355333,2304
16:43:03.355333,0
16:43:03.355333,11
16:43:03.355333,3584
16:43:03.355333,0
16:43:03.355333,14
16:43:03.355333,4096
16:43:03.355333,0
16:43:03.355333,16
16:43:03.355333,4608
16:43:03.355333,0
16:43:03.355333,16
16:43:03.355333,4096
16:43:03.355333,0
16:43:03.355333,18
16:43:03.355333,5376
16:43:03.355333,0
16:43:03.355333,21
16:43:03.355333,4096
16:43:03.355333,0
16:43:03.355333,16
16:43:03.355333,5888
16:43:03.355333,0
16:43:03.355333,33
16:43:03.355333,8448
16:43:03.355333,0
16:43:03.355333,26
16:43:04.028916,21
16:43:04.028916,5888
16:43:04.028916,0
16:43:04.028916,26
16:43:04.028916,8448
16:43:04.028916,0
16:43:04.028916,40
16:43:04.028916,8960
16:43:04.028916,0
16:43:04.028916,35
16:43:04.028916,11264
16:43:04.028916,0
16:43:04.028916,52
16:43:04.028916,14336
16:43:04.028916,0
16:43:04.028916,63
16:43:04.028916,19200
16:43:04.028916,0
16:43:04.028916,85
16:43:04.028916,20480
16:43:04.028916,0
16:43:04.028916,59
16:43:04.028916,7680
16:43:04.028916,0
16:43:04.028916,23
16:43:04.028916,7680
16:43:04.028916,0
16:43:04.028916,28
16:43:04.028916,5888
16:43:04.028916,0
16:43:04.028916,21
16:43:04.028916,-7168
16:43:04.028916,-1
16:43:04.028916,-158
16:43:04.028916,-3585
16:43:04.028916,-2
16:43:04.028916,-137
16:43:04.028916,-19713
16:43:04.028916,1
16:43:04.028916,1052
16:43:04.028916,-23808
16:43:04.028916,3
16:43:04.028916,309
16:43:04.028916,21760
16:43:04.028916,0
16:43:04.028916,156
16:43:04.028916,8960
16:43:04.028916,0
16:43:04.028916,-75
16:43:04.028916,-5121
16:43:04.028916,-1
16:43:04.028916,-14
16:43:04.028916,-12289
16:43:04.028916,-1
16:43:04.028916,-33
16:43:04.028916,-3841
16:43:04.028916,-1
16:43:04.028916,-21
16:43:04.028916,-2561
16:43:04.028916,-1
16:43:04.028916,0
16:43:04.028916,512
16:43:04.028916,0
16:43:04.028916,14
16:43:04.028916,7168
16:43:04.028916,0
16:43:04.028916,37
16:43:04.028916,12032
16:43:04.028916,0
16:43:04.028916,61
16:43:04.028916,17920
16:43:04.028916,0
16:43:04.028916,80
16:43:04.028916,24064
16:43:04.028916,0
16:43:04.028916,113
16:43:04.028916,-32256
16:43:04.028916,0
16:43:04.028916,141
16:43:04.028916,-26368
16:43:04.028916,0
16:43:04.028916,165
16:43:04.028916,-23296
16:43:04.028916,0
16:43:04.028916,158
16:43:04.028916,32512
16:43:04.028916,0
16:43:04.028916,80
16:43:04.028916,10240
16:43:04.028916,0
16:43:04.028916,7
16:43:04.028916,-7680
16:43:04.028916,-1
16:43:04.028916,-52
16:43:04.028916,-11777
16:43:04.028916,-1
16:43:04.028916,-44
16:43:04.028916,-11777
16:43:04.028916,-1
16:43:04.028916,-47
16:43:04.028916,-10497
16:43:04.028916,-1
16:43:04.028916,-40
16:43:04.028916,-9985
16:43:04.028916,-1
16:43:04.028916,-37
16:43:04.028916,-8193
16:43:04.028916,-1
16:43:04.028916,-30
16:43:04.526607,-33
16:43:04.526607,-7425
16:43:04.526607,-1
16:43:04.526607,-16
16:43:04.526607,-769
16:43:04.526607,-1
16:43:04.526607,-9
16:43:04.526607,-3841
16:43:04.526607,-1
16:43:04.526607,-4
16:43:04.526607,2047
16:43:04.526607,0
16:43:04.526607,9
16:43:04.526607,1024
16:43:04.526607,0
16:43:04.526607,2
16:43:04.526607,1792
16:43:04.526607,0
16:43:04.526607,11
16:43:04.526607,2816
16:43:04.526607,0
16:43:04.526607,16
16:43:04.526607,4608
16:43:04.526607,0
16:43:04.526607,18
16:43:04.526607,4608
16:43:04.526607,0
16:43:04.526607,21
16:43:04.526607,5376
16:43:04.526607,0
16:43:04.526607,18
16:43:04.526607,4608
16:43:04.526607,0
16:43:04.526607,21
16:43:04.526607,6656
16:43:04.526607,0
16:43:04.526607,30
16:43:04.526607,7168
16:43:04.526607,0
16:43:04.526607,23
16:43:04.526607,6656
16:43:04.526607,0
16:43:04.526607,26
16:43:04.526607,5376
16:43:04.526607,0
16:43:04.526607,28
16:43:04.526607,10240
16:43:04.526607,0
16:43:04.526607,35
16:43:04.526607,5888
16:43:04.526607,0
16:43:04.526607,26
16:43:04.526607,9472
16:43:04.526607,0
16:43:04.526607,44
16:43:04.526607,12032
16:43:04.526607,0
16:43:04.526607,56
16:43:04.526607,16896
16:43:04.526607,0
16:43:04.526607,75
16:43:04.526607,20480
16:43:04.526607,0
16:43:04.526607,70
16:43:04.526607,10240
16:43:04.526607,0
16:43:04.526607,16
16:43:04.526607,5888
16:43:04.526607,0
16:43:04.526607,30
16:43:04.526607,6656
16:43:04.526607,0
16:43:04.526607,21
16:43:04.526607,-512
16:43:04.526607,-1
16:43:04.526607,-106
16:43:04.526607,1279
16:43:04.526607,-1
16:43:04.526607,-238
16:43:04.526607,-14081
16:43:04.526607,0
16:43:04.526607,931
16:43:04.526607,-28160
16:43:04.526607,4
16:43:04.526607,617
16:43:04.526607,30720
16:43:04.526607,0
16:43:04.526607,125
16:43:04.526607,25344
16:43:04.526607,0
16:43:04.526607,-61
16:43:04.526607,-13569
16:43:04.526607,-1
16:43:04.526607,-2
16:43:04.526607,-9985
16:43:04.526607,-1
16:43:04.526607,-49
16:43:04.526607,-4353
16:43:04.526607,-1
16:43:04.526607,-18
16:43:04.526607,-4353
16:43:04.526607,-1
16:43:04.526607,2
16:43:04.526607,1792
16:43:04.526607,0
16:43:04.526607,4
16:43:04.526607,4608
16:43:04.526607,0
16:43:04.526607,40
16:43:05.065270,49
16:43:05.065270,12544
16:43:05.065270,0
16:43:05.065270,61
16:43:05.065270,22272
16:43:05.065270,0
16:43:05.065270,99
16:43:05.065270,27648
16:43:05.065270,0
16:43:05.065270,130
16:43:05.065270,-27648
16:43:05.065270,0
16:43:05.065270,158
16:43:05.065270,-21504
16:43:05.065270,0
16:43:05.065270,179
16:43:05.065270,-22016
16:43:05.065270,0
16:43:05.065270,146
16:43:05.065270,28416
16:43:05.065270,0
16:43:05.065270,61
16:43:05.065270,2816
16:43:05.065270,0
16:43:05.065270,-11
16:43:05.065270,-7425
16:43:05.065270,-1
16:43:05.065270,-47
16:43:05.065270,-11009
16:43:05.065270,-1
16:43:05.065270,-40
16:43:05.065270,-11009
16:43:05.065270,-1
16:43:05.065270,-44
16:43:05.065270,-8193
16:43:05.065270,-1
16:43:05.065270,-26
16:43:05.065270,-6401
16:43:05.065270,-1
16:43:05.065270,-23
16:43:05.065270,-4353
16:43:05.065270,-1
16:43:05.065270,-18
16:43:05.065270,-4353
16:43:05.065270,-1
16:43:05.065270,-18
16:43:05.065270,-4353
16:43:05.065270,-1
16:43:05.065270,-9
16:43:05.065270,767
16:43:05.065270,0
16:43:05.065270,2
16:43:05.065270,0
16:43:05.065270,0
16:43:05.065270,4
16:43:05.065270,1792
16:43:05.065270,0
16:43:05.065270,2
16:43:05.065270,512
16:43:05.065270,0
16:43:05.065270,11
16:43:05.065270,4096
16:43:05.065270,0
16:43:05.065270,16
16:43:05.065270,2304
16:43:05.065270,0
16:43:05.065270,9
16:43:05.065270,4096
16:43:05.065270,0
16:43:05.065270,16
16:43:05.065270,2816
16:43:05.065270,0
16:43:05.065270,21
16:43:05.065270,8960
16:43:05.065270,0
16:43:05.065270,30
16:43:05.065270,5888
16:43:05.065270,0
16:43:05.065270,26
16:43:05.065270,5376
16:43:05.065270,0
16:43:05.065270,9
16:43:05.065270,5888
16:43:05.065270,0
16:43:05.065270,42
16:43:05.065270,8448
16:43:05.065270,0
16:43:05.065270,23
16:43:05.065270,5888
16:43:05.065270,0
16:43:05.065270,26
16:43:05.065270,6656
16:43:05.065270,0
16:43:05.065270,37
16:43:05.065270,13824
16:43:05.065270,0
16:43:05.065270,61
16:43:05.065270,16896
16:43:05.065270,0
16:43:05.065270,75
16:43:05.065270,21760
16:43:05.065270,0
16:43:05.065270,85
16:43:05.065270,16896
16:43:05.065270,0
16:43:05.065270,35
16:43:05.065270,5376
16:43:05.065270,0
16:43:05.065270,26
16:43:05.649916,28
16:43:05.649916,5888
16:43:05.649916,0
16:43:05.649916,21
16:43:05.649916,-1024
16:43:05.649916,-1
16:43:05.649916,-101
16:43:05.649916,6655
16:43:05.649916,-1
16:43:05.649916,-210
16:43:05.649916,-12033
16:43:05.649916,0
16:43:05.649916,853
16:43:05.649916,-20224
16:43:05.649916,3
16:43:05.649916,385
16:43:05.649916,13824
16:43:05.649916,0
16:43:05.649916,165
16:43:05.649916,32512
16:43:05.649916,0
16:43:05.649916,-37
16:43:05.649916,-4353
16:43:05.649916,-1
16:43:05.649916,26
16:43:05.649916,-3584
16:43:05.649916,-1
16:43:05.649916,-18
16:43:05.649916,3839
16:43:05.649916,0
16:43:05.649916,18
16:43:05.649916,3584
16:43:05.649916,0
16:43:05.649916,18
16:43:05.649916,6656
16:43:05.649916,0
16:43:05.649916,37
16:43:05.649916,13824
16:43:05.649916,0
16:43:05.649916,66
16:43:05.649916,19968
16:43:05.649916,0
16:43:05.649916,87
16:43:05.649916,25344
16:43:05.649916,0
16:43:05.649916,115
16:43:05.649916,-31232
16:43:05.649916,0
16:43:05.649916,151
16:43:05.649916,-23808
16:43:05.649916,0
16:43:05.649916,172
16:43:05.649916,-19712
16:43:05.649916,0
16:43:05.649916,193
16:43:05.649916,-12288
16:43:05.649916,0
16:43:05.649916,198
16:43:05.649916,-24576
16:43:05.649916,0
16:43:05.649916,113
16:43:05.649916,16896
16:43:05.649916,0
16:43:05.649916,23
16:43:05.649916,-2816
16:43:05.649916,-1
16:43:05.649916,-30
16:43:05.649916,-10497
16:43:05.649916,-1
16:43:05.649916,-52
16:43:05.649916,-12289
16:43:05.649916,-1
16:43:05.649916,-44
16:43:05.649916,-13057
16:43:05.649916,-1
16:43:05.649916,-52
16:43:05.649916,-11009
16:43:05.649916,-1
16:43:05.649916,-42
16:43:05.649916,-9217
16:43:05.649916,-1
16:43:05.649916,-28
16:43:05.649916,-6913
16:43:05.649916,-1
16:43:05.649916,-28
16:43:05.649916,-5633
16:43:05.649916,-1
16:43:05.649916,-16
16:43:05.649916,-2561
16:43:05.649916,-1
16:43:05.649916,-4
16:43:05.649916,255
16:43:05.649916,0
16:43:05.649916,-2
16:43:05.649916,255
16:43:05.649916,0
16:43:05.649916,4
16:43:05.649916,1024
16:43:05.649916,0
16:43:05.649916,7
16:43:05.649916,2304
16:43:05.649916,0
16:43:05.649916,9
16:43:05.649916,1792
16:43:05.649916,0
16:43:05.649916,9
16:43:05.649916,2304
16:43:05.649916,0
16:43:05.649916,9
16:43:06.190575,16
16:43:06.190575,4608
16:43:06.190575,0
16:43:06.190575,14
16:43:06.190575,3584
16:43:06.190575,0
16:43:06.190575,16
16:43:06.190575,4096
16:43:06.190575,0
16:43:06.190575,26
16:43:06.190575,7168
16:43:06.190575,0
16:43:06.190575,18
16:43:06.190575,6656
16:43:06.190575,0
16:43:06.190575,40
16:43:06.190575,9472
16:43:06.190575,0
16:43:06.190575,28
16:43:06.190575,8448
16:43:06.190575,0
16:43:06.190575,30
16:43:06.190575,5888
16:43:06.190575,0
16:43:06.190575,37
16:43:06.190575,15616
16:43:06.190575,0
16:43:06.190575,68
16:43:06.190575,17408
16:43:06.190575,0
16:43:06.190575,80
16:43:06.190575,22272
16:43:06.190575,0
16:43:06.190575,78
16:43:06.190575,13312
16:43:06.190575,0
16:43:06.190575,28
16:43:06.190575,6656
16:43:06.190575,0
16:43:06.190575,35
16:43:06.190575,8960
16:43:06.190575,0
16:43:06.190575,33
16:43:06.190575,3584
16:43:06.190575,0
16:43:06.190575,-56
16:43:06.190575,17407
16:43:06.190575,-1
16:43:06.190575,-271
16:43:06.190575,-14849
16:43:06.190575,-1
16:43:06.190575,591
16:43:06.190575,28928
16:43:06.190575,4
16:43:06.190575,862
16:43:06.190575,-5120
16:43:06.190575,0
16:43:06.190575,94
16:43:06.190575,-26880
16:43:06.190575,0
16:43:06.190575,4
16:43:06.190575,-19200
16:43:06.190575,-1
16:43:06.190575,-21
16:43:06.190575,-5633
16:43:06.190575,-1
16:43:06.190575,-47
16:43:06.190575,-5633
16:43:06.190575,-1
16:43:06.190575,-11
16:43:06.190575,-5121
16:43:06.190575,-1
16:43:06.190575,-9
16:43:06.190575,767
16:43:06.190575,0
16:43:06.190575,7
16:43:06.190575,4608
16:43:06.190575,0
16:43:06.190575,30
16:43:06.190575,10240
16:43:06.190575,0
16:43:06.190575,49
16:43:06.190575,15616
16:43:06.190575,0
16:43:06.190575,73
16:43:06.190575,22784
16:43:06.190575,0
16:43:06.190575,111
16:43:06.190575,32000
16:43:06.190575,0
16:43:06.190575,134
16:43:06.190575,-26880
16:43:06.190575,0
16:43:06.190575,170
16:43:06.190575,-20224
16:43:06.190575,0
16:43:06.190575,174
16:43:06.190575,-24576
16:43:06.190575,0
16:43:06.190575,125
16:43:06.190575,16128
16:43:06.190575,0
16:43:06.190575,16
16:43:06.190575,-1024
16:43:06.190575,-1
16:43:06.190575,-26
16:43:06.190575,-12289
16:43:06.190575,-1
16:43:06.190575,-59
16:43:06.730241,-52
16:43:06.730241,-11009
16:43:06.730241,-1
16:43:06.730241,-42
16:43:06.730241,-9217
16:43:06.730241,-1
16:43:06.730241,-35
16:43:06.730241,-8705
16:43:06.730241,-1
16:43:06.730241,-37
16:43:06.730241,-7425
16:43:06.730241,-1
16:43:06.730241,-18
16:43:06.730241,-4353
16:43:06.730241,-1
16:43:06.730241,-16
16:43:06.730241,-2561
16:43:06.730241,-1
16:43:06.730241,-9
16:43:06.730241,-2561
16:43:06.730241,-1
16:43:06.730241,-4
16:43:06.730241,1279
16:43:06.730241,0
16:43:06.730241,11
16:43:06.730241,1792
16:43:06.730241,0
16:43:06.730241,2
16:43:06.730241,1792
16:43:06.730241,0
16:43:06.730241,14
16:43:06.730241,4608
16:43:06.730241,0
16:43:06.730241,18
16:43:06.730241,4096
16:43:06.730241,0
16:43:06.730241,9
16:43:06.730241,2304
16:43:06.730241,0
16:43:06.730241,16
16:43:06.730241,4096
16:43:06.730241,0
16:43:06.730241,14
16:43:06.730241,3584
16:43:06.730241,0
16:43:06.730241,14
16:43:06.730241,4096
16:43:06.730241,0
16:43:06.730241,23
16:43:06.730241,5888
16:43:06.730241,0
16:43:06.730241,21
16:43:06.730241,5888
16:43:06.730241,0
16:43:06.730241,26
16:43:06.730241,5888
16:43:06.730241,0
16:43:06.730241,14
16:43:06.730241,1792
16:43:06.730241,0
16:43:06.730241,14
16:43:06.730241,8448
16:43:06.730241,0
16:43:06.730241,52
16:43:06.730241,16896
16:43:06.730241,0
16:43:06.730241,73
16:43:06.730241,20992
16:43:06.730241,0
16:43:06.730241,75
16:43:06.730241,13312
16:43:06.730241,0
16:43:06.730241,33
16:43:06.730241,7168
16:43:06.730241,0
16:43:06.730241,28
16:43:06.730241,5888
16:43:06.730241,0
16:43:06.730241,16
16:43:06.730241,4608
16:43:06.730241,0
16:43:06.730241,4
16:43:06.730241,-19200
16:43:06.730241,-1
16:43:06.730241,-203
16:43:06.730241,5887
16:43:06.730241,-1
16:43:06.730241,54
16:43:06.730241,-28416
16:43:06.730241,2
16:43:06.730241,933
16:43:06.730241,-7168
16:43:06.730241,1
16:43:06.730241,54
16:43:06.730241,-31744
16:43:06.730241,0
16:43:06.730241,160
16:43:06.730241,-3584
16:43:06.730241,-1
16:43:06.730241,-44
16:43:06.730241,2047
16:43:06.730241,0
16:43:06.730241,-4
16:43:06.730241,-3841
16:43:06.730241,-1
16:43:06.730241,2
16:43:06.730241,1024
16:43:06.730241,0
16:43:06.730241,7
16:43:07.314878,21
16:43:07.314878,7168
16:43:07.314878,0
16:43:07.314878,35
16:43:07.314878,13824
16:43:07.314878,0
16:43:07.314878,75
16:43:07.314878,22272
16:43:07.314878,0
16:43:07.314878,85
16:43:07.314878,22272
16:43:07.314878,0
16:43:07.314878,115
16:43:07.314878,-29952
16:43:07.314878,0
16:43:07.314878,156
16:43:07.314878,-20992
16:43:07.314878,0
16:43:07.314878,186
16:43:07.314878,-15360
16:43:07.314878,0
16:43:07.314878,215
16:43:07.314878,-9472
16:43:07.314878,0
16:43:07.314878,205
16:43:07.314878,-22016
16:43:07.314878,0
16:43:07.314878,125
16:43:07.314878,19200
16:43:07.314878,0
16:43:07.314878,26
16:43:07.314878,-2304
16:43:07.314878,-1
16:43:07.314878,-33
16:43:07.314878,-11777
16:43:07.314878,-1
16:43:07.314878,-52
16:43:07.314878,-13569
16:43:07.314878,-1
16:43:07.314878,-52
16:43:07.314878,-12289
16:43:07.314878,-1
16:43:07.314878,-49
16:43:07.314878,-13569
16:43:07.314878,-1
16:43:07.314878,-52
16:43:07.314878,-10497
16:43:07.314878,-1
16:43:07.314878,-37
16:43:07.314878,-9985
16:43:07.314878,-1
16:43:07.314878,-35
16:43:07.314878,-7425
16:43:07.314878,-1
16:43:07.314878,-26
16:43:07.314878,-4353
16:43:07.314878,-1
16:43:07.314878,-11
16:43:07.314878,-769
16:43:07.314878,-1
16:43:07.314878,0
16:43:07.314878,-1024
16:43:07.314878,-1
16:43:07.314878,-2
16:43:07.314878,1279
16:43:07.314878,0
16:43:07.314878,4
16:43:07.314878,512
16:43:07.314878,0
16:43:07.314878,7
16:43:07.314878,2304
16:43:07.314878,0
16:43:07.314878,4
16:43:07.314878,1792
16:43:07.314878,0
16:43:07.314878,11
16:43:07.314878,2304
16:43:07.314878,0
16:43:07.314878,7
16:43:07.314878,4096
16:43:07.314878,0
16:43:07.314878,16
16:43:07.314878,2816
16:43:07.314878,0
16:43:07.314878,11
16:43:07.314878,3584
16:43:07.314878,0
16:43:07.314878,21
16:43:07.314878,5888
16:43:07.314878,0
16:43:07.314878,21
16:43:07.314878,4096
16:43:07.314878,0
16:43:07.314878,18
16:43:07.314878,4608
16:43:07.314878,0
16:43:07.314878,16
16:43:07.314878,7168
16:43:07.314878,0
16:43:07.314878,47
16:43:07.314878,14336
16:43:07.314878,0
16:43:07.314878,63
16:43:07.314878,17920
16:43:07.314878,0
16:43:07.314878,73
16:43:07.314878,17920
16:43:07.314878,0
16:43:07.314878,54
16:43:07.900513,28
16:43:07.900513,4096
16:43:07.900513,0
16:43:07.900513,26
16:43:07.900513,7680
16:43:07.900513,0
16:43:07.900513,21
16:43:07.900513,4608
16:43:07.900513,0
16:43:07.900513,-14
16:43:07.900513,32511
16:43:07.900513,-1
16:43:07.900513,-255
16:43:07.900513,15103
16:43:07.900513,-1
16:43:07.900513,274
16:43:07.900513,-19456
16:43:07.900513,3
16:43:07.900513,1021
16:43:07.900513,-16896
16:43:07.900513,1
16:43:07.900513,108
16:43:07.900513,-23296
16:43:07.900513,0
16:43:07.900513,85
16:43:07.900513,-17408
16:43:07.900513,-1
16:43:07.900513,-40
16:43:07.900513,-2049
16:43:07.900513,-1
16:43:07.900513,-44
16:43:07.900513,-8705
16:43:07.900513,-1
16:43:07.900513,-11
16:43:07.900513,-3841
16:43:07.900513,-1
16:43:07.900513,-11
16:43:07.900513,255
16:43:07.900513,0
16:43:07.900513,-2
16:43:07.900513,2047
16:43:07.900513,0
16:43:07.900513,28
16:43:07.900513,8960
16:43:07.900513,0
16:43:07.900513,37
16:43:07.900513,13824
16:43:07.900513,0
16:43:07.900513,68
16:43:07.900513,20480
16:43:07.900513,0
16:43:07.900513,99
16:43:07.900513,29440
16:43:07.900513,0
16:43:07.900513,125
16:43:07.900513,-28672
16:43:07.900513,0
16:43:07.900513,165
16:43:07.900513,-20224
16:43:07.900513,0
16:43:07.900513,174
16:43:07.900513,-25600
16:43:07.900513,0
16:43:07.900513,122
16:43:07.900513,20480
16:43:07.900513,0
16:43:07.900513,37
16:43:07.900513,-512
16:43:07.900513,-1
16:43:07.900513,-28
16:43:07.900513,-8705
16:43:07.900513,-1
16:43:07.900513,-47
16:43:07.900513,-14081
16:43:07.900513,-1
16:43:07.900513,-54
16:43:07.900513,-11009
16:43:07.900513,-1
16:43:07.900513,-37
16:43:07.900513,-8193
16:43:07.900513,-1
16:43:07.900513,-35
16:43:07.900513,-8193
16:43:07.900513,-1
16:43:07.900513,-28
16:43:07.900513,-5633
16:43:07.900513,-1
16:43:07.900513,-16
16:43:07.900513,-3841
16:43:07.900513,-1
16:43:07.900513,-16
16:43:07.900513,-2561
16:43:07.900513,-1
16:43:07.900513,-4
16:43:07.900513,767
16:43:07.900513,0
16:43:07.900513,2
16:43:07.900513,-512
16:43:07.900513,-1
16:43:07.900513,7
16:43:07.900513,4608
16:43:07.900513,0
16:43:07.900513,16
16:43:07.900513,2304
16:43:07.900513,0
16:43:07.900513,14
16:43:07.900513,5376
16:43:07.900513,0
16:43:07.900513,18
16:43:08.440180,16
16:43:08.440180,5376
16:43:08.440180,0
16:43:08.440180,16
16:43:08.440180,3584
16:43:08.440180,0
16:43:08.440180,18
16:43:08.440180,5376
16:43:08.440180,0
16:43:08.440180,23
16:43:08.440180,5888
16:43:08.440180,0
16:43:08.440180,26
16:43:08.440180,5888
16:43:08.440180,0
16:43:08.440180,26
16:43:08.440180,7168
16:43:08.440180,0
16:43:08.440180,35
16:43:08.440180,10240
16:43:08.440180,0
16:43:08.440180,33
16:43:08.440180,7680
16:43:08.440180,0
16:43:08.440180,35
16:43:08.440180,8960
16:43:08.440180,0
16:43:08.440180,33
16:43:08.440180,8448
16:43:08.440180,0
16:43:08.440180,35
16:43:08.440180,9472
16:43:08.440180,0
16:43:08.440180,35
16:43:08.440180,7680
16:43:08.440180,0
16:43:08.440180,35
16:43:08.440180,8960
16:43:08.440180,0
16:43:08.440180,35
16:43:08.440180,12544
16:43:08.440180,0
16:43:08.440180,66
16:43:08.440180,18688
16:43:08.440180,0
16:43:08.440180,75
16:43:08.440180,20480
16:43:08.440180,0
16:43:08.440180,82
16:43:08.440180,19200
16:43:08.440180,0
16:43:08.440180,52
16:43:08.440180,6656
16:43:08.440180,0
16:43:08.440180,23
16:43:08.440180,8448
16:43:08.440180,0
16:43:08.440180,33
16:43:08.440180,5888
16:43:08.440180,0
16:43:08.440180,4
16:43:08.440180,-21760
16:43:08.440180,-1
16:43:08.440180,-236
16:43:08.440180,-3585
16:43:08.440180,-2
16:43:08.440180,99
16:43:08.440180,18688
16:43:08.440180,3
16:43:08.440180,1193
16:43:08.440180,-15872
16:43:08.440180,2
16:43:08.440180,158
16:43:08.440180,32000
16:43:08.440180,0
16:43:08.440180,122
16:43:08.440180,-11264
16:43:08.440180,-1
16:43:08.440180,-68
16:43:08.440180,-3841
16:43:08.440180,-1
16:43:08.440180,-40
16:43:08.440180,-13057
16:43:08.440180,-1
16:43:08.440180,-30
16:43:08.440180,-6913
16:43:08.440180,-1
16:43:08.440180,-21
16:43:08.440180,-1537
16:43:08.440180,-1
16:43:08.440180,-2
16:43:08.440180,767
16:43:08.440180,0
16:43:08.440180,16
16:43:08.440180,7168
16:43:08.440180,0
16:43:08.440180,35
16:43:08.440180,12032
16:43:08.440180,0
16:43:08.440180,59
16:43:08.440180,17920
16:43:08.440180,0
16:43:08.440180,85
16:43:08.440180,26624
16:43:08.440180,0
16:43:08.440180,118
16:43:08.440180,-31744
16:43:08.440180,0
16:43:08.440180,151
16:43:08.980850,163
16:43:08.980850,-21504
16:43:08.980850,0
16:43:08.980850,167
16:43:08.980850,-26880
16:43:08.980850,0
16:43:08.980850,113
16:43:08.980850,16128
16:43:08.980850,0
16:43:08.980850,21
16:43:08.980850,-2304
16:43:08.980850,-1
16:43:08.980850,-28
16:43:08.980850,-8705
16:43:08.980850,-1
16:43:08.980850,-42
16:43:08.980850,-11777
16:43:08.980850,-1
16:43:08.980850,-42
16:43:08.980850,-9217
16:43:08.980850,-1
16:43:08.980850,-35
16:43:08.980850,-8193
16:43:08.980850,-1
16:43:08.980850,-30
16:43:08.980850,-6913
16:43:08.980850,-1
16:43:08.980850,-26
16:43:08.980850,-5121
16:43:08.980850,-1
16:43:08.980850,-14
16:43:08.980850,-2561
16:43:08.980850,-1
16:43:08.980850,-14
16:43:08.980850,-3329
16:43:08.980850,-1
16:43:08.980850,-9
16:43:08.980850,-1537
16:43:08.980850,-1
16:43:08.980850,-2
16:43:08.980850,-257
16:43:08.980850,-1
16:43:08.980850,-2
16:43:08.980850,767
16:43:08.980850,0
16:43:08.980850,7
16:43:08.980850,2816
16:43:08.980850,0
16:43:08.980850,11
16:43:08.980850,1792
16:43:08.980850,0
16:43:08.980850,11
16:43:08.980850,4096
16:43:08.980850,0
16:43:08.980850,11
16:43:08.980850,1792
16:43:08.980850,0
16:43:08.980850,11
16:43:08.980850,3584
16:43:08.980850,0
16:43:08.980850,11
16:43:08.980850,3584
16:43:08.980850,0
16:43:08.980850,23
16:43:08.980850,6656
16:43:08.980850,0
16:43:08.980850,18
16:43:08.980850,3584
16:43:08.980850,0
16:43:08.980850,18
16:43:08.980850,6656
16:43:08.980850,0
16:43:08.980850,23
16:43:08.980850,4608
16:43:08.980850,0
16:43:08.980850,18
16:43:08.980850,4608
16:43:08.980850,0
16:43:08.980850,18
16:43:08.980850,4608
16:43:08.980850,0
16:43:08.980850,28
16:43:08.980850,8960
16:43:08.980850,0
16:43:08.980850,33
16:43:08.980850,7168
16:43:08.980850,0
16:43:08.980850,28
16:43:08.980850,5888
16:43:08.980850,0
16:43:08.980850,21
16:43:08.980850,6656
16:43:08.980850,0
16:43:08.980850,23
16:43:08.980850,5376
16:43:08.980850,0
16:43:08.980850,23
16:43:08.980850,5888
16:43:08.980850,0
16:43:08.980850,40
16:43:08.980850,15616
16:43:08.980850,0
16:43:08.980850,70
16:43:08.980850,20992
16:43:08.980850,0
16:43:08.980850,87
16:43:08.980850,19968
16:43:08.980850,0
16:43:08.980850,66
16:43:09.565483,49
16:43:09.565483,7680
16:43:09.565483,0
16:43:09.565483,16
16:43:09.565483,4096
16:43:09.565483,0
16:43:09.565483,21
16:43:09.565483,6656
16:43:09.565483,0
16:43:09.565483,28
16:43:09.565483,-7168
16:43:09.565483,-1
16:43:09.565483,-167
16:43:09.565483,-1793
16:43:09.565483,-2
16:43:09.565483,-92
16:43:09.565483,-6145
16:43:09.565483,1
16:43:09.565483,1007
16:43:09.565483,512
16:43:09.565483,3
16:43:09.565483,191
16:43:09.565483,22272
16:43:09.565483,0
16:43:09.565483,182
16:43:09.565483,9472
16:43:09.565483,0
16:43:09.565483,-61
16:43:09.565483,-257
16:43:09.565483,-1
16:43:09.565483,0
16:43:09.565483,-8448
16:43:09.565483,-1
16:43:09.565483,-11
16:43:09.565483,2559
16:43:09.565483,0
16:43:09.565483,4
16:43:09.565483,1792
16:43:09.565483,0
16:43:09.565483,16
16:43:09.565483,6656
16:43:09.565483,0
16:43:09.565483,33
16:43:09.565483,10752
16:43:09.565483,0
16:43:09.565483,54
16:43:09.565483,19200
16:43:09.565483,0
16:43:09.565483,89
16:43:09.565483,23552
16:43:09.565483,0
16:43:09.565483,108
16:43:09.565483,-31232
16:43:09.565483,0
16:43:09.565483,151
16:43:09.565483,-23296
16:43:09.565483,0
16:43:09.565483,182
16:43:09.565483,-16128
16:43:09.565483,0
16:43:09.565483,200
16:43:09.565483,-14336
16:43:09.565483,0
16:43:09.565483,193
16:43:09.565483,-23808
16:43:09.565483,0
16:43:09.565483,104
16:43:09.565483,12544
16:43:09.565483,0
16:43:09.565483,14
16:43:09.565483,-2816
16:43:09.565483,-1
16:43:09.565483,-40
16:43:09.565483,-12289
16:43:09.565483,-1
16:43:09.565483,-52
16:43:09.565483,-15361
16:43:09.565483,-1
16:43:09.565483,-63
16:43:09.565483,-13057
16:43:09.565483,-1
16:43:09.565483,-49
16:43:09.565483,-13569
16:43:09.565483,-1
16:43:09.565483,-52
16:43:09.565483,-11009
16:43:09.565483,-1
16:43:09.565483,-42
16:43:09.565483,-9985
16:43:09.565483,-1
16:43:09.565483,-35
16:43:09.565483,-8193
16:43:09.565483,-1
16:43:09.565483,-28
16:43:09.565483,-4353
16:43:09.565483,-1
16:43:09.565483,-18
16:43:09.565483,-3329
16:43:09.565483,-1
16:43:09.565483,-7
16:43:09.565483,-2049
16:43:09.565483,-1
16:43:09.565483,-11
16:43:09.565483,-1537
16:43:09.565483,-1
16:43:09.565483,-2
16:43:09.565483,2047
16:43:09.565483,0
16:43:09.565483,9
16:43:10.196092,4
16:43:10.196092,512
16:43:10.196092,0
16:43:10.196092,4
16:43:10.196092,2816
16:43:10.196092,0
16:43:10.196092,14
16:43:10.196092,2816
16:43:10.196092,0
16:43:10.196092,11
16:43:10.196092,2816
16:43:10.196092,0
16:43:10.196092,14
16:43:10.196092,4096
16:43:10.196092,0
16:43:10.196092,18
16:43:10.196092,5376
16:43:10.196092,0
16:43:10.196092,21
16:43:10.196092,5376
16:43:10.196092,0
16:43:10.196092,21
16:43:10.196092,5888
16:43:10.196092,0
16:43:10.196092,26
16:43:10.196092,5376
16:43:10.196092,0
16:43:10.196092,21
16:43:10.196092,6656
16:43:10.196092,0
16:43:10.196092,23
16:43:10.196092,4608
16:43:10.196092,0
16:43:10.196092,16
16:43:10.196092,5376
16:43:10.196092,0
16:43:10.196092,26
16:43:10.196092,7680
16:43:10.196092,0
16:43:10.196092,47
16:43:10.196092,16896
16:43:10.196092,0
16:43:10.196092,78
16:43:10.196092,19968
16:43:10.196092,0
16:43:10.196092,75
16:43:10.196092,19200
16:43:10.196092,0
16:43:10.196092,70
16:43:10.196092,10752
16:43:10.196092,0
16:43:10.196092,16
16:43:10.196092,5376
16:43:10.196092,0
16:43:10.196092,30
16:43:10.196092,5376
16:43:10.196092,0
16:43:10.196092,11
16:43:10.196092,1024
16:43:10.196092,0
16:43:10.196092,-68
16:43:10.196092,12031
16:43:10.196092,-1
16:43:10.196092,-269
16:43:10.196092,3839
16:43:10.196092,0
16:43:10.196092,695
16:43:10.196092,27648
16:43:10.196092,4
16:43:10.196092,744
16:43:10.196092,-20992
16:43:10.196092,0
16:43:10.196092,113
16:43:10.196092,-29440
16:43:10.196092,0
16:43:10.196092,-23
16:43:10.196092,-17665
16:43:10.196092,-1
16:43:10.196092,-14
16:43:10.196092,-7425
16:43:10.196092,-1
16:43:10.196092,-47
16:43:10.196092,-4353
16:43:10.196092,-1
16:43:10.196092,-21
16:43:10.196092,-8193
16:43:10.196092,-1
16:43:10.196092,-7
16:43:10.196092,3839
16:43:10.196092,0
16:43:10.196092,7
16:43:10.196092,3584
16:43:10.196092,0
16:43:10.196092,35
16:43:10.196092,12032
16:43:10.196092,0
16:43:10.196092,56
16:43:10.196092,18688
16:43:10.196092,0
16:43:10.196092,87
16:43:10.196092,25856
16:43:10.196092,0
16:43:10.196092,122
16:43:10.196092,-28672
16:43:10.196092,0
16:43:10.196092,158
16:43:10.196092,-22784
16:43:10.196092,0
16:43:10.196092,179
16:43:10.780730,191
16:43:10.780730,-17152
16:43:10.780730,0
16:43:10.780730,165
16:43:10.780730,32512
16:43:10.780730,0
16:43:10.780730,80
16:43:10.780730,5888
16:43:10.780730,0
16:43:10.780730,-21
16:43:10.780730,-10497
16:43:10.780730,-1
16:43:10.780730,-52
16:43:10.780730,-15873
16:43:10.780730,-1
16:43:10.780730,-66
16:43:10.780730,-15361
16:43:10.780730,-1
16:43:10.780730,-56
16:43:10.780730,-13569
16:43:10.780730,-1
16:43:10.780730,-49
16:43:10.780730,-11777
16:43:10.780730,-1
16:43:10.780730,-44
16:43:10.780730,-9217
16:43:10.780730,-1
16:43:10.780730,-30
16:43:10.780730,-8193
16:43:10.780730,-1
16:43:10.780730,-30
16:43:10.780730,-4353
16:43:10.780730,-1
16:43:10.780730,-16
16:43:10.780730,-2049
16:43:10.780730,-1
16:43:10.780730,4
16:43:10.780730,-1024
16:43:10.780730,-1
16:43:10.780730,-11
16:43:10.780730,-257
16:43:10.780730,-1
16:43:10.780730,4
16:43:10.780730,512
16:43:10.780730,0
16:43:10.780730,4
16:43:10.780730,1024
16:43:10.780730,0
16:43:10.780730,9
16:43:10.780730,2816
16:43:10.780730,0
16:43:10.780730,11
16:43:10.780730,2304
16:43:10.780730,0
16:43:10.780730,16
16:43:10.780730,4608
16:43:10.780730,0
16:43:10.780730,14
16:43:10.780730,1792
16:43:10.780730,0
16:43:10.780730,7
16:43:10.780730,2816
16:43:10.780730,0
16:43:10.780730,18
16:43:10.780730,4608
16:43:10.780730,0
16:43:10.780730,16
16:43:10.780730,4608
16:43:10.780730,0
16:43:10.780730,23
16:43:10.780730,4608
16:43:10.780730,0
16:43:10.780730,14
16:43:10.780730,4096
16:43:10.780730,0
16:43:10.780730,23
16:43:10.780730,4096
16:43:10.780730,0
16:43:10.780730,16
16:43:10.780730,5888
16:43:10.780730,0
16:43:10.780730,26
16:43:10.780730,6656
16:43:10.780730,0
16:43:10.780730,26
16:43:10.780730,5888
16:43:10.780730,0
16:43:10.780730,21
16:43:10.780730,5376
16:43:10.780730,0
16:43:10.780730,18
16:43:10.780730,5376
16:43:10.780730,0
16:43:10.780730,42
16:43:10.780730,15616
16:43:10.780730,0
16:43:10.780730,70
16:43:10.780730,20480
16:43:10.780730,0
16:43:10.780730,80
16:43:10.780730,17920
16:43:10.780730,0
16:43:10.780730,56
16:43:10.780730,8448
16:43:10.780730,0
16:43:10.780730,16
16:43:10.780730,4608
16:43:10.780730,0
16:43:10.780730,26
16:43:11.276423,23
16:43:11.276423,4608
16:43:11.276423,0
16:43:11.276423,2
16:43:11.276423,-20480
16:43:11.276423,-1
16:43:11.276423,-226
16:43:11.276423,-3073
16:43:11.276423,-2
16:43:11.276423,63
16:43:11.276423,3584
16:43:11.276423,3
16:43:11.276423,1200
16:43:11.276423,512
16:43:11.276423,3
16:43:11.276423,179
16:43:11.276423,28416
16:43:11.276423,0
16:43:11.276423,125
16:43:11.276423,-9472
16:43:11.276423,-1
16:43:11.276423,-75
16:43:11.276423,-2049
16:43:11.276423,-1
16:43:11.276423,-28
16:43:11.276423,-12289
16:43:11.276423,-1
16:43:11.276423,-23
16:43:11.276423,-2049
16:43:11.276423,-1
16:43:11.276423,-9
16:43:11.276423,767
16:43:11.276423,0
16:43:11.276423,4
16:43:11.276423,1792
16:43:11.276423,0
16:43:11.276423,26
16:43:11.276423,10752
16:43:11.276423,0
16:43:11.276423,49
16:43:11.276423,14336
16:43:11.276423,0
16:43:11.276423,68
16:43:11.276423,22272
16:43:11.276423,0
16:43:11.276423,106
16:43:11.276423,31232
16:43:11.276423,0
16:43:11.276423,141
16:43:11.276423,-23296
16:43:11.276423,0
16:43:11.276423,177
16:43:11.276423,-18432
16:43:11.276423,0
16:43:11.276423,196
16:43:11.276423,-15360
16:43:11.276423,0
16:43:11.276423,170
16:43:11.276423,32000
16:43:11.276423,0
16:43:11.276423,75
16:43:11.276423,8448
16:43:11.276423,0
16:43:11.276423,-2
16:43:11.276423,-8705
16:43:11.276423,-1
16:43:11.276423,-56
16:43:11.276423,-14081
16:43:11.276423,-1
16:43:11.276423,-52
16:43:11.276423,-12289
16:43:11.276423,-1
16:43:11.276423,-52
16:43:11.276423,-13569
16:43:11.276423,-1
16:43:11.276423,-52
16:43:11.276423,-11009
16:43:11.276423,-1
16:43:11.276423,-37
16:43:11.276423,-8193
16:43:11.276423,-1
16:43:11.276423,-33
16:43:11.276423,-8705
16:43:11.276423,-1
16:43:11.276423,-35
16:43:11.276423,-7425
16:43:11.276423,-1
16:43:11.276423,-28
16:43:11.276423,-6401
16:43:11.276423,-1
16:43:11.276423,-18
16:43:11.276423,-3329
16:43:11.276423,-1
16:43:11.276423,-7
16:43:11.276423,-769
16:43:11.276423,-1
16:43:11.276423,-7
16:43:11.276423,255
16:43:11.276423,0
16:43:11.276423,9
16:43:11.276423,1024
16:43:11.276423,0
16:43:11.276423,4
16:43:11.276423,2816
16:43:11.276423,0
16:43:11.276423,7
16:43:11.276423,0
16:43:11.276423,0
16:43:11.276423,9
16:43:11.816088,16
16:43:11.816088,3584
16:43:11.816088,0
16:43:11.816088,14
16:43:11.816088,5376
16:43:11.816088,0
16:43:11.816088,21
16:43:11.816088,5888
16:43:11.816088,0
16:43:11.816088,30
16:43:11.816088,8960
16:43:11.816088,0
16:43:11.816088,26
16:43:11.816088,4608
16:43:11.816088,0
16:43:11.816088,30
16:43:11.816088,8448
16:43:11.816088,0
16:43:11.816088,35
16:43:11.816088,11264
16:43:11.816088,0
16:43:11.816088,40
16:43:11.816088,7168
16:43:11.816088,0
16:43:11.816088,30
16:43:11.816088,10240
16:43:11.816088,0
16:43:11.816088,42
16:43:11.816088,9472
16:43:11.816088,0
16:43:11.816088,35
16:43:11.816088,8960
16:43:11.816088,0
16:43:11.816088,30
16:43:11.816088,8448
16:43:11.816088,0
16:43:11.816088,54
16:43:11.816088,19200
16:43:11.816088,0
16:43:11.816088,82
16:43:11.816088,22272
16:43:11.816088,0
16:43:11.816088,87
16:43:11.816088,21760
16:43:11.816088,0
16:43:11.816088,80
16:43:11.816088,16128
16:43:11.816088,0
16:43:11.816088,35
16:43:11.816088,4096
16:43:11.816088,0
16:43:11.816088,23
16:43:11.816088,8448
16:43:11.816088,0
16:43:11.816088,30
16:43:11.816088,7168
16:43:11.816088,0
16:43:11.816088,-14
16:43:11.816088,30719
16:43:11.816088,-1
16:43:11.816088,-250
16:43:11.816088,29695
16:43:11.816088,-1
16:43:11.816088,380
16:43:11.816088,-9984
16:43:11.816088,3
16:43:11.816088,891
16:43:11.816088,7680
16:43:11.816088,1
16:43:11.816088,80
16:43:11.816088,-17920
16:43:11.816088,0
16:43:11.816088,75
16:43:11.816088,-15104
16:43:11.816088,-1
16:43:11.816088,-9
16:43:11.816088,3071
16:43:11.816088,0
16:43:11.816088,-28
16:43:11.816088,-5633
16:43:11.816088,-1
16:43:11.816088,-2
16:43:11.816088,-257
16:43:11.816088,-1
16:43:11.816088,4
16:43:11.816088,4608
16:43:11.816088,0
16:43:11.816088,26
16:43:11.816088,8448
16:43:11.816088,0
16:43:11.816088,44
16:43:11.816088,13824
16:43:11.816088,0
16:43:11.816088,61
16:43:11.816088,19200
16:43:11.816088,0
16:43:11.816088,96
16:43:11.816088,29440
16:43:11.816088,0
16:43:11.816088,137
16:43:11.816088,-25088
16:43:11.816088,0
16:43:11.816088,167
16:43:11.816088,-18944
16:43:11.816088,0
16:43:11.816088,203
16:43:11.816088,-11264
16:43:11.816088,0
16:43:11.816088,208
16:43:12.355751,196
16:43:12.355751,-24576
16:43:12.355751,0
16:43:12.355751,104
16:43:12.355751,12544
16:43:12.355751,0
16:43:12.355751,7
16:43:12.355751,-5376
16:43:12.355751,-1
16:43:12.355751,-42
16:43:12.355751,-14081
16:43:12.355751,-1
16:43:12.355751,-59
16:43:12.355751,-13057
16:43:12.355751,-1
16:43:12.355751,-44
16:43:12.355751,-11009
16:43:12.355751,-1
16:43:12.355751,-47
16:43:12.355751,-10497
16:43:12.355751,-1
16:43:12.355751,-40
16:43:12.355751,-9985
16:43:12.355751,-1
16:43:12.355751,-35
16:43:12.355751,-8705
16:43:12.355751,-1
16:43:12.355751,-37
16:43:12.355751,-8193
16:43:12.355751,-1
16:43:12.355751,-21
16:43:12.355751,-3329
16:43:12.355751,-1
16:43:12.355751,-14
16:43:12.355751,-2049
16:43:12.355751,-1
16:43:12.355751,0
16:43:12.355751,512
16:43:12.355751,0
16:43:12.355751,2
16:43:12.355751,1792
16:43:12.355751,0
16:43:12.355751,9
16:43:12.355751,1792
16:43:12.355751,0
16:43:12.355751,9
16:43:12.355751,3584
16:43:12.355751,0
16:43:12.355751,14
16:43:12.355751,3584
16:43:12.355751,0
16:43:12.355751,16
16:43:12.355751,2816
16:43:12.355751,0
16:43:12.355751,11
16:43:12.355751,3584
16:43:12.355751,0
16:43:12.355751,16
16:43:12.355751,4096
16:43:12.355751,0
16:43:12.355751,18
16:43:12.355751,6656
16:43:12.355751,0
16:43:12.355751,23
16:43:12.355751,3584
16:43:12.355751,0
16:43:12.355751,21
16:43:12.355751,7168
16:43:12.355751,0
16:43:12.355751,21
16:43:12.355751,4096
16:43:12.355751,0
16:43:12.355751,26
16:43:12.355751,7168
16:43:12.355751,0
16:43:12.355751,21
16:43:12.355751,5376
16:43:12.355751,0
16:43:12.355751,30
16:43:12.355751,7680
16:43:12.355751,0
16:43:12.355751,26
16:43:12.355751,8448
16:43:12.355751,0
16:43:12.355751,35
16:43:12.355751,8448
16:43:12.355751,0
16:43:12.355751,30
16:43:12.355751,9472
16:43:12.355751,0
16:43:12.355751,49
16:43:12.355751,10752
16:43:12.355751,0
16:43:12.355751,35
16:43:12.355751,9472
16:43:12.355751,0
16:43:12.355751,35
16:43:12.355751,8448
16:43:12.355751,0
16:43:12.355751,42
16:43:12.355751,15616
16:43:12.355751,0
16:43:12.355751,73
16:43:12.355751,21760
16:43:12.355751,0
16:43:12.355751,92
16:43:12.355751,22784
16:43:12.355751,0
16:43:12.355751,85
16:43:12.896418,73
16:43:12.896418,13312
16:43:12.896418,0
16:43:12.896418,42
16:43:12.896418,10240
16:43:12.896418,0
16:43:12.896418,33
16:43:12.896418,8960
16:43:12.896418,0
16:43:12.896418,40
16:43:12.896418,3584
16:43:12.896418,0
16:43:12.896418,-94
16:43:12.896418,3071
16:43:12.896418,-1
16:43:12.896418,-219
16:43:12.896418,4863
16:43:12.896418,1
16:43:12.896418,1037
16:43:12.896418,-8192
16:43:12.896418,4
16:43:12.896418,666
16:43:12.896418,-26368
16:43:12.896418,0
16:43:12.896418,125
16:43:12.896418,22272
16:43:12.896418,0
16:43:12.896418,-63
16:43:12.896418,-14849
16:43:12.896418,-1
16:43:12.896418,-16
16:43:12.896418,-12289
16:43:12.896418,-1
16:43:12.896418,-47
16:43:12.896418,-4353
16:43:12.896418,-1
16:43:12.896418,-23
16:43:12.896418,-5633
16:43:12.896418,-1
16:43:12.896418,-4
16:43:12.896418,-257
16:43:12.896418,-1
16:43:12.896418,0
16:43:12.896418,2816
16:43:12.896418,0
16:43:12.896418,23
16:43:12.896418,7680
16:43:12.896418,0
16:43:12.896418,40
16:43:12.896418,13312
16:43:12.896418,0
16:43:12.896418,70
16:43:12.896418,21760
16:43:12.896418,0
16:43:12.896418,101
16:43:12.896418,29440
16:43:12.896418,0
16:43:12.896418,132
16:43:12.896418,-26368
16:43:12.896418,0
16:43:12.896418,167
16:43:12.896418,-22784
16:43:12.896418,0
16:43:12.896418,165
16:43:12.896418,-26880
16:43:12.896418,0
16:43:12.896418,111
16:43:12.896418,16896
16:43:12.896418,0
16:43:12.896418,26
16:43:12.896418,-1792
16:43:12.896418,-1
16:43:12.896418,-30
16:43:12.896418,-11777
16:43:12.896418,-1
16:43:12.896418,-49
16:43:12.896418,-10497
16:43:12.896418,-1
16:43:12.896418,-40
16:43:12.896418,-10497
16:43:12.896418,-1
16:43:12.896418,-35
16:43:12.896418,-7425
16:43:12.896418,-1
16:43:12.896418,-30
16:43:12.896418,-6913
16:43:12.896418,-1
16:43:12.896418,-23
16:43:12.896418,-5121
16:43:12.896418,-1
16:43:12.896418,-21
16:43:12.896418,-6401
16:43:12.896418,-1
16:43:12.896418,-23
16:43:12.896418,-5121
16:43:12.896418,-1
16:43:12.896418,-14
16:43:12.896418,-1537
16:43:12.896418,-1
16:43:12.896418,-7
16:43:12.896418,-2049
16:43:12.896418,-1
16:43:12.896418,-4
16:43:12.896418,-257
16:43:12.896418,-1
16:43:12.896418,2
16:43:12.896418,2304
16:43:12.896418,0
16:43:12.896418,9
16:43:13.480056,9
16:43:13.480056,2304
16:43:13.480056,0
16:43:13.480056,9
16:43:13.480056,3584
16:43:13.480056,0
16:43:13.480056,21
16:43:13.480056,5888
16:43:13.480056,0
16:43:13.480056,21
16:43:13.480056,5376
16:43:13.480056,0
16:43:13.480056,28
16:43:13.480056,7680
16:43:13.480056,0
16:43:13.480056,33
16:43:13.480056,8448
16:43:13.480056,0
16:43:13.480056,28
16:43:13.480056,7168
16:43:13.480056,0
16:43:13.480056,30
16:43:13.480056,7680
16:43:13.480056,0
16:43:13.480056,33
16:43:13.480056,7680
16:43:13.480056,0
16:43:13.480056,26
16:43:13.480056,7680
16:43:13.480056,0
16:43:13.480056,33
16:43:13.480056,8448
16:43:13.480056,0
16:43:13.480056,33
16:43:13.480056,8960
16:43:13.480056,0
16:43:13.480056,35
16:43:13.480056,8960
16:43:13.480056,0
16:43:13.480056,33
16:43:13.480056,7680
16:43:13.480056,0
16:43:13.480056,37
16:43:13.480056,10240
16:43:13.480056,0
16:43:13.480056,33
16:43:13.480056,8448
16:43:13.480056,0
16:43:13.480056,40
16:43:13.480056,9472
16:43:13.480056,0
16:43:13.480056,35
16:43:13.480056,7168
16:43:13.480056,0
16:43:13.480056,28
16:43:13.480056,13312
16:43:13.480056,0
16:43:13.480056,70
16:43:13.480056,19968
16:43:13.480056,0
16:43:13.480056,87
16:43:13.480056,24064
16:43:13.480056,0
16:43:13.480056,92
16:43:13.480056,20480
16:43:13.480056,0
16:43:13.480056,59
16:43:13.480056,10240
16:43:13.480056,0
16:43:13.480056,37
16:43:13.480056,9472
16:43:13.480056,0
16:43:13.480056,35
16:43:13.480056,9472
16:43:13.480056,0
16:43:13.480056,28
16:43:13.480056,-7680
16:43:13.480056,-1
16:43:13.480056,-167
16:43:13.480056,-2561
16:43:13.480056,-2
16:43:13.480056,-66
16:43:13.480056,20479
16:43:13.480056,2
16:43:13.480056,1196
16:43:13.480056,-11008
16:43:13.480056,3
16:43:13.480056,309
16:43:13.480056,21760
16:43:13.480056,0
16:43:13.480056,144
16:43:13.480056,3584
16:43:13.480056,0
16:43:13.480056,-89
16:43:13.480056,-6913
16:43:13.480056,-1
16:43:13.480056,-18
16:43:13.480056,-14081
16:43:13.480056,-1
16:43:13.480056,-42
16:43:13.480056,-3841
16:43:13.480056,-1
16:43:13.480056,-16
16:43:13.480056,-2561
16:43:13.480056,-1
16:43:13.480056,-2
16:43:13.480056,255
16:43:13.480056,0
16:43:13.480056,9
16:43:14.065691,28
16:43:14.065691,9472
16:43:14.065691,0
16:43:14.065691,44
16:43:14.065691,15104
16:43:14.065691,0
16:43:14.065691,73
16:43:14.065691,22272
16:43:14.065691,0
16:43:14.065691,104
16:43:14.065691,-31744
16:43:14.065691,0
16:43:14.065691,160
16:43:14.065691,-22784
16:43:14.065691,0
16:43:14.065691,177
16:43:14.065691,-16640
16:43:14.065691,0
16:43:14.065691,193
16:43:14.065691,-18432
16:43:14.065691,0
16:43:14.065691,151
16:43:14.065691,24576
16:43:14.065691,0
16:43:14.065691,54
16:43:14.065691,4096
16:43:14.065691,0
16:43:14.065691,-26
16:43:14.065691,-13057
16:43:14.065691,-1
16:43:14.065691,-52
16:43:14.065691,-13569
16:43:14.065691,-1
16:43:14.065691,-59
16:43:14.065691,-14849
16:43:14.065691,-1
16:43:14.065691,-52
16:43:14.065691,-9217
16:43:14.065691,-1
16:43:14.065691,-33
16:43:14.065691,-11009
16:43:14.065691,-1
16:43:14.065691,-44
16:43:14.065691,-8705
16:43:14.065691,-1
16:43:14.065691,-33
16:43:14.065691,-8193
16:43:14.065691,-1
16:43:14.065691,-26
16:43:14.065691,-4353
16:43:14.065691,-1
16:43:14.065691,-23
16:43:14.065691,-6401
16:43:14.065691,-1
16:43:14.065691,-16
16:43:14.065691,-769
16:43:14.065691,-1
16:43:14.065691,0
16:43:14.065691,512
16:43:14.065691,0
16:43:14.065691,4
16:43:14.065691,512
16:43:14.065691,0
16:43:14.065691,7
16:43:14.065691,3584
16:43:14.065691,0
16:43:14.065691,16
16:43:14.065691,2816
16:43:14.065691,0
16:43:14.065691,9
16:43:14.065691,3584
16:43:14.065691,0
16:43:14.065691,16
16:43:14.065691,4096
16:43:14.065691,0
16:43:14.065691,11
16:43:14.065691,1024
16:43:14.065691,0
16:43:14.065691,14
16:43:14.065691,5888
16:43:14.065691,0
16:43:14.065691,23
16:43:14.065691,5376
16:43:14.065691,0
16:43:14.065691,26
16:43:14.065691,7680
16:43:14.065691,0
16:43:14.065691,28
16:43:14.065691,5888
16:43:14.065691,0
16:43:14.065691,26
16:43:14.065691,7168
16:43:14.065691,0
16:43:14.065691,28
16:43:14.065691,7680
16:43:14.065691,0
16:43:14.065691,26
16:43:14.065691,5888
16:43:14.065691,0
16:43:14.065691,33
16:43:14.065691,8960
16:43:14.065691,0
16:43:14.065691,33
16:43:14.065691,8960
16:43:14.065691,0
16:43:14.065691,40
16:43:14.065691,9472
16:43:14.065691,0
16:43:14.065691,33
16:43:14.605359,37
16:43:14.605359,9472
16:43:14.605359,0
16:43:14.605359,37
16:43:14.605359,13824
16:43:14.605359,0
16:43:14.605359,75
16:43:14.605359,20992
16:43:14.605359,0
16:43:14.605359,85
16:43:14.605359,22272
16:43:14.605359,0
16:43:14.605359,89
16:43:14.605359,21760
16:43:14.605359,0
16:43:14.605359,68
16:43:14.605359,10240
16:43:14.605359,0
16:43:14.605359,28
16:43:14.605359,9472
16:43:14.605359,0
16:43:14.605359,37
16:43:14.605359,7680
16:43:14.605359,0
16:43:14.605359,28
16:43:14.605359,-1792
16:43:14.605359,-1
16:43:14.605359,-130
16:43:14.605359,511
16:43:14.605359,-1
16:43:14.605359,-163
16:43:14.605359,23551
16:43:14.605359,1
16:43:14.605359,959
16:43:14.605359,-30976
16:43:14.605359,3
16:43:14.605359,295
16:43:14.605359,15616
16:43:14.605359,0
16:43:14.605359,184
16:43:14.605359,22784
16:43:14.605359,0
16:43:14.605359,-61
16:43:14.605359,-4353
16:43:14.605359,-1
16:43:14.605359,9
16:43:14.605359,-7680
16:43:14.605359,-1
16:43:14.605359,-23
16:43:14.605359,767
16:43:14.605359,0
16:43:14.605359,2
16:43:14.605359,1792
16:43:14.605359,0
16:43:14.605359,16
16:43:14.605359,4608
16:43:14.605359,0
16:43:14.605359,26
16:43:14.605359,10752
16:43:14.605359,0
16:43:14.605359,52
16:43:14.605359,16128
16:43:14.605359,0
16:43:14.605359,75
16:43:14.605359,20992
16:43:14.605359,0
16:43:14.605359,96
16:43:14.605359,29440
16:43:14.605359,0
16:43:14.605359,134
16:43:14.605359,-25600
16:43:14.605359,0
16:43:14.605359,170
16:43:14.605359,-18944
16:43:14.605359,0
16:43:14.605359,191
16:43:14.605359,-14848
16:43:14.605359,0
16:43:14.605359,193
16:43:14.605359,-24576
16:43:14.605359,0
16:43:14.605359,108
16:43:14.605359,15104
16:43:14.605359,0
16:43:14.605359,18
16:43:14.605359,-2816
16:43:14.605359,-1
16:43:14.605359,-40
16:43:14.605359,-15361
16:43:14.605359,-1
16:43:14.605359,-59
16:43:14.605359,-13569
16:43:14.605359,-1
16:43:14.605359,-54
16:43:14.605359,-13569
16:43:14.605359,-1
16:43:14.605359,-54
16:43:14.605359,-13569
16:43:14.605359,-1
16:43:14.605359,-54
16:43:14.605359,-12289
16:43:14.605359,-1
16:43:14.605359,-47
16:43:14.605359,-10497
16:43:14.605359,-1
16:43:14.605359,-33
16:43:14.605359,-8193
16:43:14.605359,-1
16:43:14.605359,-30
16:43:15.190993,-21
16:43:15.190993,-5121
16:43:15.190993,-1
16:43:15.190993,-21
16:43:15.190993,-2561
16:43:15.190993,-1
16:43:15.190993,-4
16:43:15.190993,-769
16:43:15.190993,-1
16:43:15.190993,2
16:43:15.190993,2816
16:43:15.190993,0
16:43:15.190993,14
16:43:15.190993,1792
16:43:15.190993,0
16:43:15.190993,11
16:43:15.190993,3584
16:43:15.190993,0
16:43:15.190993,4
16:43:15.190993,512
16:43:15.190993,0
16:43:15.190993,11
16:43:15.190993,4096
16:43:15.190993,0
16:43:15.190993,14
16:43:15.190993,4096
16:43:15.190993,0
16:43:15.190993,21
16:43:15.190993,5888
16:43:15.190993,0
16:43:15.190993,26
16:43:15.190993,6656
16:43:15.190993,0
16:43:15.190993,23
16:43:15.190993,6656
16:43:15.190993,0
16:43:15.190993,28
16:43:15.190993,7168
16:43:15.190993,0
16:43:15.190993,30
16:43:15.190993,7168
16:43:15.190993,0
16:43:15.190993,26
16:43:15.190993,7168
16:43:15.190993,0
16:43:15.190993,35
16:43:15.190993,8960
16:43:15.190993,0
16:43:15.190993,33
16:43:15.190993,8960
16:43:15.190993,0
16:43:15.190993,35
16:43:15.190993,7168
16:43:15.190993,0
16:43:15.190993,28
16:43:15.190993,8448
16:43:15.190993,0
16:43:15.190993,42
16:43:15.190993,16128
16:43:15.190993,0
16:43:15.190993,73
16:43:15.190993,18688
16:43:15.190993,0
16:43:15.190993,82
16:43:15.190993,22784
16:43:15.190993,0
16:43:15.190993,85
16:43:15.190993,17408
16:43:15.190993,0
16:43:15.190993,44
16:43:15.190993,7168
16:43:15.190993,0
16:43:15.190993,30
16:43:15.190993,9472
16:43:15.190993,0
16:43:15.190993,33
16:43:15.190993,7168
16:43:15.190993,0
16:43:15.190993,11
16:43:15.190993,-17408
16:43:15.190993,-1
16:43:15.190993,-210
16:43:15.190993,-1793
16:43:15.190993,-2
16:43:15.190993,30
16:43:15.190993,-9216
16:43:15.190993,2
16:43:15.190993,1186
16:43:15.190993,6656
16:43:15.190993,3
16:43:15.190993,196
16:43:15.190993,27136
16:43:15.190993,0
16:43:15.190993,134
16:43:15.190993,-5888
16:43:15.190993,-1
16:43:15.190993,-73
16:43:15.190993,-3841
16:43:15.190993,-1
16:43:15.190993,-28
16:43:15.190993,-13057
16:43:15.190993,-1
16:43:15.190993,-35
16:43:15.190993,-5633
16:43:15.190993,-1
16:43:15.190993,-18
16:43:15.190993,-2561
16:43:15.190993,-1
16:43:15.190993,0
16:43:15.776637,9
16:43:15.776637,5376
16:43:15.776637,0
16:43:15.776637,28
16:43:15.776637,9472
16:43:15.776637,0
16:43:15.776637,49
16:43:15.776637,15616
16:43:15.776637,0
16:43:15.776637,78
16:43:15.776637,24576
16:43:15.776637,0
16:43:15.776637,111
16:43:15.776637,-31232
16:43:15.776637,0
16:43:15.776637,160
16:43:15.776637,-19712
16:43:15.776637,0
16:43:15.776637,191
16:43:15.776637,-14336
16:43:15.776637,0
16:43:15.776637,198
16:43:15.776637,-20224
16:43:15.776637,0
16:43:15.776637,139
16:43:15.776637,24576
16:43:15.776637,0
16:43:15.776637,47
16:43:15.776637,0
16:43:15.776637,0
16:43:15.776637,-26
16:43:15.776637,-9985
16:43:15.776637,-1
16:43:15.776637,-52
16:43:15.776637,-13057
16:43:15.776637,-1
16:43:15.776637,-52
16:43:15.776637,-13057
16:43:15.776637,-1
16:43:15.776637,-49
16:43:15.776637,-10497
16:43:15.776637,-1
16:43:15.776637,-40
16:43:15.776637,-10497
16:43:15.776637,-1
16:43:15.776637,-37
16:43:15.776637,-8705
16:43:15.776637,-1
16:43:15.776637,-33
16:43:15.776637,-7425
16:43:15.776637,-1
16:43:15.776637,-26
16:43:15.776637,-5633
16:43:15.776637,-1
16:43:15.776637,-21
16:43:15.776637,-3329
16:43:15.776637,-1
16:43:15.776637,-4
16:43:15.776637,-257
16:43:15.776637,-1
16:43:15.776637,-7
16:43:15.776637,-257
16:43:15.776637,-1
16:43:15.776637,2
16:43:15.776637,512
16:43:15.776637,0
16:43:15.776637,7
16:43:15.776637,3584
16:43:15.776637,0
16:43:15.776637,11
16:43:15.776637,1024
16:43:15.776637,0
16:43:15.776637,7
16:43:15.776637,2816
16:43:15.776637,0
16:43:15.776637,9
16:43:15.776637,2304
16:43:15.776637,0
16:43:15.776637,14
16:43:15.776637,4096
16:43:15.776637,0
16:43:15.776637,21
16:43:15.776637,5888
16:43:15.776637,0
16:43:15.776637,21
16:43:15.776637,5376
16:43:15.776637,0
16:43:15.776637,23
16:43:15.776637,5376
16:43:15.776637,0
16:43:15.776637,23
16:43:15.776637,7168
16:43:15.776637,0
16:43:15.776637,28
16:43:15.776637,6656
16:43:15.776637,0
16:43:15.776637,26
16:43:15.776637,5888
16:43:15.776637,0
16:43:15.776637,26
16:43:15.776637,9472
16:43:15.776637,0
16:43:15.776637,35
16:43:15.776637,7168
16:43:15.776637,0
16:43:15.776637,30
16:43:15.776637,8960
16:43:15.776637,0
16:43:15.776637,35
16:43:16.270327,30
16:43:16.270327,7680
16:43:16.270327,0
16:43:16.270327,49
16:43:16.270327,17408
16:43:16.270327,0
16:43:16.270327,75
16:43:16.270327,22272
16:43:16.270327,0
16:43:16.270327,89
16:43:16.270327,19968
16:43:16.270327,0
16:43:16.270327,70
16:43:16.270327,16128
16:43:16.270327,0
16:43:16.270327,40
16:43:16.270327,6656
16:43:16.270327,0
16:43:16.270327,37
16:43:16.270327,9472
16:43:16.270327,0
16:43:16.270327,33
16:43:16.270327,9472
16:43:16.270327,0
16:43:16.270327,0
16:43:16.270327,-32512
16:43:16.270327,-1
16:43:16.270327,-255
16:43:16.270327,23551
16:43:16.270327,-1
16:43:16.270327,378
16:43:16.270327,13824
16:43:16.270327,4
16:43:16.270327,1096
16:43:16.270327,-15616
16:43:16.270327,1
16:43:16.270327,89
16:43:16.270327,-28160
16:43:16.270327,0
16:43:16.270327,66
16:43:16.270327,-19968
16:43:16.270327,-1
16:43:16.270327,-40
16:43:16.270327,-1537
16:43:16.270327,-1
16:43:16.270327,-47
16:43:16.270327,-8705
16:43:16.270327,-1
16:43:16.270327,-7
16:43:16.270327,-3329
16:43:16.270327,-1
16:43:16.270327,-14
16:43:16.270327,2047
16:43:16.270327,0
16:43:16.270327,14
16:43:16.270327,3584
16:43:16.270327,0
16:43:16.270327,26
16:43:16.270327,10240
16:43:16.270327,0
16:43:16.270327,44
16:43:16.270327,15104
16:43:16.270327,0
16:43:16.270327,75
16:43:16.270327,23552
16:43:16.270327,0
16:43:16.270327,104
16:43:16.270327,31232
16:43:16.270327,0
16:43:16.270327,146
16:43:16.270327,-24576
16:43:16.270327,0
16:43:16.270327,170
16:43:16.270327,-18432
16:43:16.270327,0
16:43:16.270327,196
16:43:16.270327,-16640
16:43:16.270327,0
16:43:16.270327,163
16:43:16.270327,27136
16:43:16.270327,0
16:43:16.270327,49
16:43:16.270327,3584
16:43:16.270327,0
16:43:16.270327,-16
16:43:16.270327,-11009
16:43:16.270327,-1
16:43:16.270327,-59
16:43:16.270327,-13569
16:43:16.270327,-1
16:43:16.270327,-56
16:43:16.270327,-15873
16:43:16.270327,-1
16:43:16.270327,-59
16:43:16.270327,-13057
16:43:16.270327,-1
16:43:16.270327,-49
16:43:16.270327,-11009
16:43:16.270327,-1
16:43:16.270327,-40
16:43:16.270327,-9985
16:43:16.270327,-1
16:43:16.270327,-37
16:43:16.270327,-8193
16:43:16.270327,-1
16:43:16.270327,-33
16:43:16.270327,-7425
16:43:16.270327,-1
16:43:16.270327,-21
16:43:16.810992,-16
16:43:16.810992,-5121
16:43:16.810992,-1
16:43:16.810992,-18
16:43:16.810992,255
16:43:16.810992,0
16:43:16.810992,7
16:43:16.810992,1024
16:43:16.810992,0
16:43:16.810992,14
16:43:16.810992,4096
16:43:16.810992,0
16:43:16.810992,11
16:43:16.810992,2816
16:43:16.810992,0
16:43:16.810992,16
16:43:16.810992,5376
16:43:16.810992,0
16:43:16.810992,23
16:43:16.810992,3584
16:43:16.810992,0
16:43:16.810992,7
16:43:16.810992,5376
16:43:16.810992,0
16:43:16.810992,28
16:43:16.810992,5376
16:43:16.810992,0
16:43:16.810992,18
16:43:16.810992,5888
16:43:16.810992,0
16:43:16.810992,26
16:43:16.810992,5888
16:43:16.810992,0
16:43:16.810992,26
16:43:16.810992,8448
16:43:16.810992,0
16:43:16.810992,37
16:43:16.810992,10240
16:43:16.810992,0
16:43:16.810992,33
16:43:16.810992,6656
16:43:16.810992,0
16:43:16.810992,28
16:43:16.810992,8448
16:43:16.810992,0
16:43:16.810992,35
16:43:16.810992,8960
16:43:16.810992,0
16:43:16.810992,33
16:43:16.810992,8960
16:43:16.810992,0
16:43:16.810992,35
16:43:16.810992,8448
16:43:16.810992,0
16:43:16.810992,35
16:43:16.810992,9472
16:43:16.810992,0
16:43:16.810992,40
16:43:16.810992,10752
16:43:16.810992,0
16:43:16.810992,42
16:43:16.810992,9472
16:43:16.810992,0
16:43:16.810992,37
16:43:16.810992,8960
16:43:16.810992,0
16:43:16.810992,30
16:43:16.810992,10752
16:43:16.810992,0
16:43:16.810992,68
16:43:16.810992,21760
16:43:16.810992,0
16:43:16.810992,87
16:43:16.810992,24064
16:43:16.810992,0
16:43:16.810992,89
16:43:16.810992,20480
16:43:16.810992,0
16:43:16.810992,70
16:43:16.810992,11264
16:43:16.810992,0
16:43:16.810992,30
16:43:16.810992,8960
16:43:16.810992,0
16:43:16.810992,33
16:43:16.810992,7168
16:43:16.810992,0
16:43:16.810992,30
16:43:16.810992,-512
16:43:16.810992,-1
16:43:16.810992,-120
16:43:16.810992,-1
16:43:16.810992,-2
16:43:16.810992,-198
16:43:16.810992,16895
16:43:16.810992,1
16:43:16.810992,1049
16:43:16.810992,28928
16:43:16.810992,4
16:43:16.810992,508
16:43:16.810992,24576
16:43:16.810992,0
16:43:16.810992,141
16:43:16.810992,20992
16:43:16.810992,0
16:43:16.810992,-70
16:43:16.810992,-14081
16:43:16.810992,-1
16:43:16.810992,-18
16:43:17.440602,-47
16:43:17.440602,-11009
16:43:17.440602,-1
16:43:17.440602,-14
16:43:17.440602,-2049
16:43:17.440602,-1
16:43:17.440602,-7
16:43:17.440602,767
16:43:17.440602,0
16:43:17.440602,4
16:43:17.440602,2304
16:43:17.440602,0
16:43:17.440602,26
16:43:17.440602,10240
16:43:17.440602,0
16:43:17.440602,49
16:43:17.440602,14336
16:43:17.440602,0
16:43:17.440602,70
16:43:17.440602,22784
16:43:17.440602,0
16:43:17.440602,104
16:43:17.440602,31232
16:43:17.440602,0
16:43:17.440602,141
16:43:17.440602,-24576
16:43:17.440602,0
16:43:17.440602,174
16:43:17.440602,-17920
16:43:17.440602,0
16:43:17.440602,191
16:43:17.440602,-18432
16:43:17.440602,0
16:43:17.440602,163
16:43:17.440602,31232
16:43:17.440602,0
16:43:17.440602,68
16:43:17.440602,5376
16:43:17.440602,0
16:43:17.440602,-11
16:43:17.440602,-8705
16:43:17.440602,-1
16:43:17.440602,-49
16:43:17.440602,-14081
16:43:17.440602,-1
16:43:17.440602,-56
16:43:17.440602,-13569
16:43:17.440602,-1
16:43:17.440602,-52
16:43:17.440602,-11777
16:43:17.440602,-1
16:43:17.440602,-44
16:43:17.440602,-11777
16:43:17.440602,-1
16:43:17.440602,-47
16:43:17.440602,-10497
16:43:17.440602,-1
16:43:17.440602,-37
16:43:17.440602,-8193
16:43:17.440602,-1
16:43:17.440602,-30
16:43:17.440602,-6913
16:43:17.440602,-1
16:43:17.440602,-23
16:43:17.440602,-5121
16:43:17.440602,-1
16:43:17.440602,-18
16:43:17.440602,-2049
16:43:17.440602,-1
16:43:17.440602,-2
16:43:17.440602,-1537
16:43:17.440602,-1
16:43:17.440602,-4
16:43:17.440602,767
16:43:17.440602,0
16:43:17.440602,0
16:43:17.440602,0
16:43:17.440602,0
16:43:17.440602,11
16:43:17.440602,2816
16:43:17.440602,0
16:43:17.440602,9
16:43:17.440602,2816
16:43:17.440602,0
16:43:17.440602,14
16:43:17.440602,2304
16:43:17.440602,0
16:43:17.440602,11
16:43:17.440602,5376
16:43:17.440602,0
16:43:17.440602,23
16:43:17.440602,4096
16:43:17.440602,0
16:43:17.440602,11
16:43:17.440602,4096
16:43:17.440602,0
16:43:17.440602,23
16:43:17.440602,8448
16:43:17.440602,0
16:43:17.440602,30
16:43:17.440602,6656
16:43:17.440602,0
16:43:17.440602,30
16:43:17.440602,8448
16:43:17.440602,0
16:43:17.440602,30
16:43:17.440602,7168
16:43:17.440602,0
16:43:17.440602,28
16:43:17.980267,28
16:43:17.980267,8448
16:43:17.980267,0
16:43:17.980267,40
16:43:17.980267,9472
16:43:17.980267,0
16:43:17.980267,33
16:43:17.980267,8960
16:43:17.980267,0
16:43:17.980267,37
16:43:17.980267,8960
16:43:17.980267,0
16:43:17.980267,42
16:43:17.980267,16128
16:43:17.980267,0
16:43:17.980267,78
16:43:17.980267,23552
16:43:17.980267,0
16:43:17.980267,106
16:43:17.980267,25856
16:43:17.980267,0
16:43:17.980267,87
16:43:17.980267,19200
16:43:17.980267,0
16:43:17.980267,52
16:43:17.980267,8960
16:43:17.980267,0
16:43:17.980267,37
16:43:17.980267,9472
16:43:17.980267,0
16:43:17.980267,33
16:43:17.980267,7168
16:43:17.980267,0
16:43:17.980267,14
16:43:17.980267,-15616
16:43:17.980267,-1
16:43:17.980267,-198
16:43:17.980267,3583
16:43:17.980267,-1
16:43:17.980267,54
16:43:17.980267,-16384
16:43:17.980267,2
16:43:17.980267,1037
16:43:17.980267,17664
16:43:17.980267,2
16:43:17.980267,85
16:43:17.980267,32512
16:43:17.980267,0
16:43:17.980267,165
16:43:17.980267,-4096
16:43:17.980267,-1
16:43:17.980267,-54
16:43:17.980267,3839
16:43:17.980267,0
16:43:17.980267,-4
16:43:17.980267,-7425
16:43:17.980267,-1
16:43:17.980267,-4
16:43:17.980267,767
16:43:17.980267,0
16:43:17.980267,-2
16:43:17.980267,3839
16:43:17.980267,0
16:43:17.980267,23
16:43:17.980267,7168
16:43:17.980267,0
16:43:17.980267,40
16:43:17.980267,13312
16:43:17.980267,0
16:43:17.980267,63
16:43:17.980267,20480
16:43:17.980267,0
16:43:17.980267,87
16:43:17.980267,25856
16:43:17.980267,0
16:43:17.980267,122
16:43:17.980267,-28672
16:43:17.980267,0
16:43:17.980267,170
16:43:17.980267,-16640
16:43:17.980267,0
16:43:17.980267,205
16:43:17.980267,-10496
16:43:17.980267,0
16:43:17.980267,226
16:43:17.980267,-8192
16:43:17.980267,0
16:43:17.980267,193
16:43:17.980267,-28160
16:43:17.980267,0
16:43:17.980267,89
16:43:17.980267,9472
16:43:17.980267,0
16:43:17.980267,-4
16:43:17.980267,-8705
16:43:17.980267,-1
16:43:17.980267,-59
16:43:17.980267,-18433
16:43:17.980267,-1
16:43:17.980267,-73
16:43:17.980267,-15361
16:43:17.980267,-1
16:43:17.980267,-54
16:43:17.980267,-14081
16:43:17.980267,-1
16:43:17.980267,-54
16:43:17.980267,-12289
16:43:17.980267,-1
16:43:17.980267,-52
16:43:18.519932,-61
16:43:18.519932,-14849
16:43:18.519932,-1
16:43:18.519932,-49
16:43:18.519932,-9217
16:43:18.519932,-1
16:43:18.519932,-23
16:43:18.519932,-6401
16:43:18.519932,-1
16:43:18.519932,-30
16:43:18.519932,-5633
16:43:18.519932,-1
16:43:18.519932,-14
16:43:18.519932,-2049
16:43:18.519932,-1
16:43:18.519932,4
16:43:18.519932,2304
16:43:18.519932,0
16:43:18.519932,7
16:43:18.519932,1792
16:43:18.519932,0
16:43:18.519932,9
16:43:18.519932,2816
16:43:18.519932,0
16:43:18.519932,9
16:43:18.519932,2304
16:43:18.519932,0
16:43:18.519932,18
16:43:18.519932,3584
16:43:18.519932,0
16:43:18.519932,2
16:43:18.519932,2816
16:43:18.519932,0
16:43:18.519932,26
16:43:18.519932,3584
16:43:18.519932,0
16:43:18.519932,2
16:43:18.519932,4608
16:43:18.519932,0
16:43:18.519932,23
16:43:18.519932,4608
16:43:18.519932,0
16:43:18.519932,23
16:43:18.519932,7680
16:43:18.519932,0
16:43:18.519932,30
16:43:18.519932,4608
16:43:18.519932,0
16:43:18.519932,14
16:43:18.519932,7680
16:43:18.519932,0
16:43:18.519932,40
16:43:18.519932,7680
16:43:18.519932,0
16:43:18.519932,28
16:43:18.519932,5376
16:43:18.519932,0
16:43:18.519932,18
16:43:18.519932,11264
16:43:18.519932,0
16:43:18.519932,68
16:43:18.519932,17408
16:43:18.519932,0
16:43:18.519932,70
16:43:18.519932,21760
16:43:18.519932,0
16:43:18.519932,82
16:43:18.519932,17408
16:43:18.519932,0
16:43:18.519932,49
16:43:18.519932,6656
16:43:18.519932,0
16:43:18.519932,16
16:43:18.519932,8448
16:43:18.519932,0
16:43:18.519932,35
16:43:18.519932,5888
16:43:18.519932,0
16:43:18.519932,18
16:43:18.519932,512
16:43:18.519932,0
16:43:18.519932,-78
16:43:18.519932,13311
16:43:18.519932,-1
16:43:18.519932,-224
16:43:18.519932,28671
16:43:18.519932,0
16:43:18.519932,692
16:43:18.519932,15616
16:43:18.519932,3
16:43:18.519932,330
16:43:18.519932,6656
16:43:18.519932,0
16:43:18.519932,172
16:43:18.519932,-25600
16:43:18.519932,0
16:43:18.519932,-30
16:43:18.519932,-7425
16:43:18.519932,-1
16:43:18.519932,21
16:43:18.519932,-1024
16:43:18.519932,-1
16:43:18.519932,-11
16:43:18.519932,3071
16:43:18.519932,0
16:43:18.519932,14
16:43:18.519932,3584
16:43:18.519932,0
16:43:18.519932,28
16:43:19.105569,37
16:43:19.105569,10752
16:43:19.105569,0
16:43:19.105569,52
16:43:19.105569,16128
16:43:19.105569,0
16:43:19.105569,75
16:43:19.105569,23552
16:43:19.105569,0
16:43:19.105569,120
16:43:19.105569,-28672
16:43:19.105569,0
16:43:19.105569,148
16:43:19.105569,-23808
16:43:19.105569,0
16:43:19.105569,196
16:43:19.105569,-9472
16:43:19.105569,0
16:43:19.105569,236
16:43:19.105569,-1024
16:43:19.105569,0
16:43:19.105569,257
16:43:19.105569,-2816
16:43:19.105569,0
16:43:19.105569,205
16:43:19.105569,-28160
16:43:19.105569,0
16:43:19.105569,92
16:43:19.105569,8960
16:43:19.105569,0
16:43:19.105569,-23
16:43:19.105569,-14081
16:43:19.105569,-1
16:43:19.105569,-66
16:43:19.105569,-17153
16:43:19.105569,-1
16:43:19.105569,-70
16:43:19.105569,-17665
16:43:19.105569,-1
16:43:19.105569,-73
16:43:19.105569,-18433
16:43:19.105569,-1
16:43:19.105569,-66
16:43:19.105569,-17153
16:43:19.105569,-1
16:43:19.105569,-73
16:43:19.105569,-15873
16:43:19.105569,-1
16:43:19.105569,-59
16:43:19.105569,-14849
16:43:19.105569,-1
16:43:19.105569,-56
16:43:19.105569,-11777
16:43:19.105569,-1
16:43:19.105569,-37
16:43:19.105569,-8193
16:43:19.105569,-1
16:43:19.105569,-26
16:43:19.105569,-5121
16:43:19.105569,-1
16:43:19.105569,-18
16:43:19.105569,-3841
16:43:19.105569,-1
16:43:19.105569,-11
16:43:19.105569,-257
16:43:19.105569,-1
16:43:19.105569,-4
16:43:19.105569,-1537
16:43:19.105569,-1
16:43:19.105569,-4
16:43:19.105569,-769
16:43:19.105569,-1
16:43:19.105569,-7
16:43:19.105569,-257
16:43:19.105569,-1
16:43:19.105569,2
16:43:19.105569,1024
16:43:19.105569,0
16:43:19.105569,4
16:43:19.105569,1024
16:43:19.105569,0
16:43:19.105569,7
16:43:19.105569,1792
16:43:19.105569,0
16:43:19.105569,7
16:43:19.105569,2304
16:43:19.105569,0
16:43:19.105569,4
16:43:19.105569,1024
16:43:19.105569,0
16:43:19.105569,9
16:43:19.105569,2816
16:43:19.105569,0
16:43:19.105569,7
16:43:19.105569,0
16:43:19.105569,0
16:43:19.105569,18
16:43:19.105569,11264
16:43:19.105569,0
16:43:19.105569,56
16:43:19.105569,17408
16:43:19.105569,0
16:43:19.105569,70
16:43:19.105569,15104
16:43:19.105569,0
16:43:19.105569,54
16:43:19.105569,10240
16:43:19.105569,0
16:43:19.105569,16
16:43:19.690207,7
16:43:19.690207,2816
16:43:19.690207,0
16:43:19.690207,16
16:43:19.690207,3584
16:43:19.690207,0
16:43:19.690207,11
16:43:19.690207,-4096
16:43:19.690207,-1
16:43:19.690207,-120
16:43:19.690207,2303
16:43:19.690207,-1
16:43:19.690207,-236
16:43:19.690207,-21249
16:43:19.690207,0
16:43:19.690207,874
16:43:19.690207,13824
16:43:19.690207,4
16:43:19.690207,531
16:43:19.690207,29440
16:43:19.690207,0
16:43:19.690207,160
16:43:19.690207,28928
16:43:19.690207,0
16:43:19.690207,-52
16:43:19.690207,-11009
16:43:19.690207,-1
16:43:19.690207,-7
16:43:19.690207,-9985
16:43:19.690207,-1
16:43:19.690207,-37
16:43:19.690207,-3841
16:43:19.690207,-1
16:43:19.690207,-21
16:43:19.690207,-4353
16:43:19.690207,-1
16:43:19.690207,0
16:43:19.690207,2304
16:43:19.690207,0
16:43:19.690207,11
16:43:19.690207,6656
16:43:19.690207,0
16:43:19.690207,40
16:43:19.690207,12032
16:43:19.690207,0
16:43:19.690207,59
16:43:19.690207,20992
16:43:19.690207,0
16:43:19.690207,101
16:43:19.690207,30208
16:43:19.690207,0
16:43:19.690207,144
16:43:19.690207,-22784
16:43:19.690207,0
16:43:19.690207,186
16:43:19.690207,-13056
16:43:19.690207,0
16:43:19.690207,222
16:43:19.690207,-6400
16:43:19.690207,0
16:43:19.690207,215
16:43:19.690207,-23296
16:43:19.690207,0
16:43:19.690207,108
16:43:19.690207,15104
16:43:19.690207,0
16:43:19.690207,7
16:43:19.690207,-8448
16:43:19.690207,-1
16:43:19.690207,-49
16:43:19.690207,-14081
16:43:19.690207,-1
16:43:19.690207,-66
16:43:19.690207,-16641
16:43:19.690207,-1
16:43:19.690207,-63
16:43:19.690207,-14849
16:43:19.690207,-1
16:43:19.690207,-54
16:43:19.690207,-13569
16:43:19.690207,-1
16:43:19.690207,-52
16:43:19.690207,-12289
16:43:19.690207,-1
16:43:19.690207,-47
16:43:19.690207,-11009
16:43:19.690207,-1
16:43:19.690207,-40
16:43:19.690207,-9985
16:43:19.690207,-1
16:43:19.690207,-42
16:43:19.690207,-8705
16:43:19.690207,-1
16:43:19.690207,-28
16:43:19.690207,-6913
16:43:19.690207,-1
16:43:19.690207,-26
16:43:19.690207,-4353
16:43:19.690207,-1
16:43:19.690207,-18
16:43:19.690207,-3841
16:43:19.690207,-1
16:43:19.690207,-9
16:43:19.690207,-769
16:43:19.690207,-1
16:43:19.690207,-4
16:43:19.690207,-769
16:43:19.690207,-1
16:43:19.690207,0
16:43:20.185899,2
16:43:20.185899,1024
16:43:20.185899,0
16:43:20.185899,4
16:43:20.185899,512
16:43:20.185899,0
16:43:20.185899,11
16:43:20.185899,3584
16:43:20.185899,0
16:43:20.185899,9
16:43:20.185899,4096
16:43:20.185899,0
16:43:20.185899,23
16:43:20.185899,5888
16:43:20.185899,0
16:43:20.185899,18
16:43:20.185899,5376
16:43:20.185899,0
16:43:20.185899,23
16:43:20.185899,7680
16:43:20.185899,0
16:43:20.185899,33
16:43:20.185899,7168
16:43:20.185899,0
16:43:20.185899,26
16:43:20.185899,7168
16:43:20.185899,0
16:43:20.185899,30
16:43:20.185899,7168
16:43:20.185899,0
16:43:20.185899,28
16:43:20.185899,7680
16:43:20.185899,0
16:43:20.185899,37
16:43:20.185899,10240
16:43:20.185899,0
16:43:20.185899,37
16:43:20.185899,8960
16:43:20.185899,0
16:43:20.185899,37
16:43:20.185899,10240
16:43:20.185899,0
16:43:20.185899,35
16:43:20.185899,5376
16:43:20.185899,0
16:43:20.185899,26
16:43:20.185899,8448
16:43:20.185899,0
16:43:20.185899,37
16:43:20.185899,14336
16:43:20.185899,0
16:43:20.185899,78
16:43:20.185899,23552
16:43:20.185899,0
16:43:20.185899,94
16:43:20.185899,21760
16:43:20.185899,0
16:43:20.185899,78
16:43:20.185899,16896
16:43:20.185899,0
16:43:20.185899,40
16:43:20.185899,6656
16:43:20.185899,0
16:43:20.185899,28
16:43:20.185899,6656
16:43:20.185899,0
16:43:20.185899,30
16:43:20.185899,7168
16:43:20.185899,0
16:43:20.185899,-14
16:43:20.185899,30719
16:43:20.185899,-1
16:43:20.185899,-274
16:43:20.185899,16895
16:43:20.185899,-1
16:43:20.185899,373
16:43:20.185899,25088
16:43:20.185899,4
16:43:20.185899,1191
16:43:20.185899,9216
16:43:20.185899,2
16:43:20.185899,125
16:43:20.185899,-29952
16:43:20.185899,0
16:43:20.185899,59
16:43:20.185899,-24064
16:43:20.185899,-1
16:43:20.185899,-70
16:43:20.185899,-6401
16:43:20.185899,-1
16:43:20.185899,-52
16:43:20.185899,-13569
16:43:20.185899,-1
16:43:20.185899,-33
16:43:20.185899,-6401
16:43:20.185899,-1
16:43:20.185899,-21
16:43:20.185899,-2561
16:43:20.185899,-1
16:43:20.185899,-9
16:43:20.185899,-257
16:43:20.185899,-1
16:43:20.185899,9
16:43:20.185899,4096
16:43:20.185899,0
16:43:20.185899,23
16:43:20.185899,10752
16:43:20.185899,0
16:43:20.185899,63
16:43:20.905453,75
16:43:20.905453,22272
16:43:20.905453,0
16:43:20.905453,111
16:43:20.905453,-30464
16:43:20.905453,0
16:43:20.905453,163
16:43:20.905453,-19712
16:43:20.905453,0
16:43:20.905453,189
16:43:20.905453,-14848
16:43:20.905453,0
16:43:20.905453,196
16:43:20.905453,-21504
16:43:20.905453,0
16:43:20.905453,127
16:43:20.905453,17408
16:43:20.905453,0
16:43:20.905453,21
16:43:20.905453,-4096
16:43:20.905453,-1
16:43:20.905453,-44
16:43:20.905453,-14081
16:43:20.905453,-1
16:43:20.905453,-54
16:43:20.905453,-12289
16:43:20.905453,-1
16:43:20.905453,-49
16:43:20.905453,-13569
16:43:20.905453,-1
16:43:20.905453,-54
16:43:20.905453,-11777
16:43:20.905453,-1
16:43:20.905453,-35
16:43:20.905453,-7425
16:43:20.905453,-1
16:43:20.905453,-33
16:43:20.905453,-8705
16:43:20.905453,-1
16:43:20.905453,-33
16:43:20.905453,-6401
16:43:20.905453,-1
16:43:20.905453,-23
16:43:20.905453,-6401
16:43:20.905453,-1
16:43:20.905453,-23
16:43:20.905453,-4353
16:43:20.905453,-1
16:43:20.905453,-16
16:43:20.905453,-3329
16:43:20.905453,-1
16:43:20.905453,-4
16:43:20.905453,-257
16:43:20.905453,-1
16:43:20.905453,-7
16:43:20.905453,-1537
16:43:20.905453,-1
16:43:20.905453,4
16:43:20.905453,512
16:43:20.905453,0
16:43:20.905453,-2
16:43:20.905453,2559
16:43:20.905453,0
16:43:20.905453,14
16:43:20.905453,1792
16:43:20.905453,0
16:43:20.905453,7
16:43:20.905453,3584
16:43:20.905453,0
16:43:20.905453,18
16:43:20.905453,5376
16:43:20.905453,0
16:43:20.905453,21
16:43:20.905453,3584
16:43:20.905453,0
16:43:20.905453,18
16:43:20.905453,8448
16:43:20.905453,0
16:43:20.905453,26
16:43:20.905453,4096
16:43:20.905453,0
16:43:20.905453,21
16:43:20.905453,5376
16:43:20.905453,0
16:43:20.905453,18
16:43:20.905453,7168
16:43:20.905453,0
16:43:20.905453,33
16:43:20.905453,7680
16:43:20.905453,0
16:43:20.905453,28
16:43:20.905453,6656
16:43:20.905453,0
16:43:20.905453,30
16:43:20.905453,8960
16:43:20.905453,0
16:43:20.905453,33
16:43:20.905453,7168
16:43:20.905453,0
16:43:20.905453,28
16:43:20.905453,7680
16:43:20.905453,0
16:43:20.905453,30
16:43:20.905453,8960
16:43:20.905453,0
16:43:20.905453,37
16:43:20.905453,8960
16:43:20.905453,0
16:43:20.905453,33
16:43:21.400147,33
16:43:21.400147,9472
16:43:21.400147,0
16:43:21.400147,37
16:43:21.400147,8960
16:43:21.400147,0
16:43:21.400147,40
16:43:21.400147,10240
16:43:21.400147,0
16:43:21.400147,40
16:43:21.400147,10240
16:43:21.400147,0
16:43:21.400147,47
16:43:21.400147,13824
16:43:21.400147,0
16:43:21.400147,52
16:43:21.400147,11264
16:43:21.400147,0
16:43:21.400147,37
16:43:21.400147,8960
16:43:21.400147,0
16:43:21.400147,37
16:43:21.400147,10240
16:43:21.400147,0
16:43:21.400147,59
16:43:21.400147,20480
16:43:21.400147,0
16:43:21.400147,89
16:43:21.400147,24576
16:43:21.400147,0
16:43:21.400147,99
16:43:21.400147,23552
16:43:21.400147,0
16:43:21.400147,85
16:43:21.400147,16128
16:43:21.400147,0
16:43:21.400147,37
16:43:21.400147,11264
16:43:21.400147,0
16:43:21.400147,56
16:43:21.400147,13312
16:43:21.400147,0
16:43:21.400147,44
16:43:21.400147,7680
16:43:21.400147,0
16:43:21.400147,-52
16:43:21.400147,14591
16:43:21.400147,-1
16:43:21.400147,-262
16:43:21.400147,12799
16:43:21.400147,0
16:43:21.400147,765
16:43:21.400147,-20480
16:43:21.400147,4
16:43:21.400147,784
16:43:21.400147,-17920
16:43:21.400147,0
16:43:21.400147,122
16:43:21.400147,-26880
16:43:21.400147,0
16:43:21.400147,-18
16:43:21.400147,-17153
16:43:21.400147,-1
16:43:21.400147,-9
16:43:21.400147,-6913
16:43:21.400147,-1
16:43:21.400147,-49
16:43:21.400147,-6401
16:43:21.400147,-1
16:43:21.400147,-14
16:43:21.400147,-5121
16:43:21.400147,-1
16:43:21.400147,-14
16:43:21.400147,-257
16:43:21.400147,-1
16:43:21.400147,7
16:43:21.400147,5376
16:43:21.400147,0
16:43:21.400147,30
16:43:21.400147,8448
16:43:21.400147,0
16:43:21.400147,42
16:43:21.400147,14336
16:43:21.400147,0
16:43:21.400147,70
16:43:21.400147,21760
16:43:21.400147,0
16:43:21.400147,108
16:43:21.400147,-31744
16:43:21.400147,0
16:43:21.400147,146
16:43:21.400147,-25088
16:43:21.400147,0
16:43:21.400147,174
16:43:21.400147,-16640
16:43:21.400147,0
16:43:21.400147,200
16:43:21.400147,-17152
16:43:21.400147,0
16:43:21.400147,153
16:43:21.400147,27136
16:43:21.400147,0
16:43:21.400147,63
16:43:21.400147,5376
16:43:21.400147,0
16:43:21.400147,-16
16:43:21.400147,-9985
16:43:21.400147,-1
16:43:21.400147,-49
16:43:21.895837,-56
16:43:21.895837,-13057
16:43:21.895837,-1
16:43:21.895837,-42
16:43:21.895837,-10497
16:43:21.895837,-1
16:43:21.895837,-40
16:43:21.895837,-7425
16:43:21.895837,-1
16:43:21.895837,-26
16:43:21.895837,-6401
16:43:21.895837,-1
16:43:21.895837,-28
16:43:21.895837,-6401
16:43:21.895837,-1
16:43:21.895837,-23
16:43:21.895837,-5121
16:43:21.895837,-1
16:43:21.895837,-18
16:43:21.895837,-4353
16:43:21.895837,-1
16:43:21.895837,-14
16:43:21.895837,-2049
16:43:21.895837,-1
16:43:21.895837,-11
16:43:21.895837,-769
16:43:21.895837,-1
16:43:21.895837,4
16:43:21.895837,1792
16:43:21.895837,0
16:43:21.895837,9
16:43:21.895837,3584
16:43:21.895837,0
16:43:21.895837,11
16:43:21.895837,2304
16:43:21.895837,0
16:43:21.895837,11
16:43:21.895837,4608
16:43:21.895837,0
16:43:21.895837,26
16:43:21.895837,4096
16:43:21.895837,0
16:43:21.895837,7
16:43:21.895837,3584
16:43:21.895837,0
16:43:21.895837,23
16:43:21.895837,5376
16:43:21.895837,0
16:43:21.895837,14
16:43:21.895837,2816
16:43:21.895837,0
16:43:21.895837,18
16:43:21.895837,7168
16:43:21.895837,0
16:43:21.895837,30
16:43:21.895837,7168
16:43:21.895837,0
16:43:21.895837,33
16:43:21.895837,8448
16:43:21.895837,0
16:43:21.895837,30
16:43:21.895837,7680
16:43:21.895837,0
16:43:21.895837,28
16:43:21.895837,5888
16:43:21.895837,0
16:43:21.895837,28
16:43:21.895837,8960
16:43:21.895837,0
16:43:21.895837,33
16:43:21.895837,7168
16:43:21.895837,0
16:43:21.895837,33
16:43:21.895837,8448
16:43:21.895837,0
16:43:21.895837,33
16:43:21.895837,8960
16:43:21.895837,0
16:43:21.895837,35
16:43:21.895837,8448
16:43:21.895837,0
16:43:21.895837,35
16:43:21.895837,9472
16:43:21.895837,0
16:43:21.895837,40
16:43:21.895837,10240
16:43:21.895837,0
16:43:21.895837,42
16:43:21.895837,10240
16:43:21.895837,0
16:43:21.895837,37
16:43:21.895837,9472
16:43:21.895837,0
16:43:21.895837,44
16:43:21.895837,12032
16:43:21.895837,0
16:43:21.895837,35
16:43:21.895837,7168
16:43:21.895837,0
16:43:21.895837,40
16:43:21.895837,12544
16:43:21.895837,0
16:43:21.895837,49
16:43:21.895837,12544
16:43:21.895837,0
16:43:21.895837,47
16:43:21.895837,10752
16:43:21.895837,0
16:43:21.895837,40
16:43:22.480475,42
16:43:22.480475,10240
16:43:22.480475,0
16:43:22.480475,49
16:43:22.480475,16896
16:43:22.480475,0
16:43:22.480475,78
16:43:22.480475,23552
16:43:22.480475,0
16:43:22.480475,94
16:43:22.480475,22784
16:43:22.480475,0
16:43:22.480475,89
16:43:22.480475,19200
16:43:22.480475,0
16:43:22.480475,40
16:43:22.480475,7168
16:43:22.480475,0
16:43:22.480475,42
16:43:22.480475,12032
16:43:22.480475,0
16:43:22.480475,37
16:43:22.480475,6656
16:43:22.480475,0
16:43:22.480475,-30
16:43:22.480475,23039
16:43:22.480475,-1
16:43:22.480475,-281
16:43:22.480475,-22017
16:43:22.480475,-1
16:43:22.480475,579
16:43:22.480475,-16128
16:43:22.480475,4
16:43:22.480475,1052
16:43:22.480475,29952
16:43:22.480475,1
16:43:22.480475,89
16:43:22.480475,-32256
16:43:22.480475,0
16:43:22.480475,11
16:43:22.480475,-24064
16:43:22.480475,-1
16:43:22.480475,-44
16:43:22.480475,-8193
16:43:22.480475,-1
16:43:22.480475,-61
16:43:22.480475,-10497
16:43:22.480475,-1
16:43:22.480475,-28
16:43:22.480475,-9217
16:43:22.480475,-1
16:43:22.480475,-33
16:43:22.480475,-3841
16:43:22.480475,-1
16:43:22.480475,-9
16:43:22.480475,-1537
16:43:22.480475,-1
16:43:22.480475,7
16:43:22.480475,6656
16:43:22.480475,0
16:43:22.480475,35
16:43:22.480475,9472
16:43:22.480475,0
16:43:22.480475,52
16:43:22.480475,18688
16:43:22.480475,0
16:43:22.480475,85
16:43:22.480475,26624
16:43:22.480475,0
16:43:22.480475,132
16:43:22.480475,-26880
16:43:22.480475,0
16:43:22.480475,158
16:43:22.480475,-21504
16:43:22.480475,0
16:43:22.480475,189
16:43:22.480475,-16128
16:43:22.480475,0
16:43:22.480475,165
16:43:22.480475,28928
16:43:22.480475,0
16:43:22.480475,63
16:43:22.480475,7168
16:43:22.480475,0
16:43:22.480475,-2
16:43:22.480475,-6913
16:43:22.480475,-1
16:43:22.480475,-52
16:43:22.480475,-15361
16:43:22.480475,-1
16:43:22.480475,-54
16:43:22.480475,-10497
16:43:22.480475,-1
16:43:22.480475,-44
16:43:22.480475,-14081
16:43:22.480475,-1
16:43:22.480475,-56
16:43:22.480475,-9985
16:43:22.480475,-1
16:43:22.480475,-28
16:43:22.480475,-8193
16:43:22.480475,-1
16:43:22.480475,-28
16:43:22.480475,-6401
16:43:22.480475,-1
16:43:22.480475,-30
16:43:22.480475,-5633
16:43:22.480475,-1
16:43:22.480475,-11
16:43:23.021139,-14
16:43:23.021139,-4353
16:43:23.021139,-1
16:43:23.021139,-16
16:43:23.021139,-2561
16:43:23.021139,-1
16:43:23.021139,-4
16:43:23.021139,767
16:43:23.021139,0
16:43:23.021139,11
16:43:23.021139,3584
16:43:23.021139,0
16:43:23.021139,9
16:43:23.021139,2816
16:43:23.021139,0
16:43:23.021139,23
16:43:23.021139,8448
16:43:23.021139,0
16:43:23.021139,30
16:43:23.021139,7680
16:43:23.021139,0
16:43:23.021139,35
16:43:23.021139,8448
16:43:23.021139,0
16:43:23.021139,37
16:43:23.021139,9472
16:43:23.021139,0
16:43:23.021139,30
16:43:23.021139,8448
16:43:23.021139,0
16:43:23.021139,37
16:43:23.021139,8448
16:43:23.021139,0
16:43:23.021139,40
16:43:23.021139,11264
16:43:23.021139,0
16:43:23.021139,40
16:43:23.021139,9472
16:43:23.021139,0
16:43:23.021139,40
16:43:23.021139,9472
16:43:23.021139,0
16:43:23.021139,37
16:43:23.021139,9472
16:43:23.021139,0
16:43:23.021139,42
16:43:23.021139,10752
16:43:23.021139,0
16:43:23.021139,37
16:43:23.021139,8960
16:43:23.021139,0
16:43:23.021139,37
16:43:23.021139,10752
16:43:23.021139,0
16:43:23.021139,37
16:43:23.021139,8448
16:43:23.021139,0
16:43:23.021139,35
16:43:23.021139,9472
16:43:23.021139,0
16:43:23.021139,40
16:43:23.021139,9472
16:43:23.021139,0
16:43:23.021139,37
16:43:23.021139,9472
16:43:23.021139,0
16:43:23.021139,28
16:43:23.021139,5888
16:43:23.021139,0
16:43:23.021139,35
16:43:23.021139,13824
16:43:23.021139,0
16:43:23.021139,63
16:43:23.021139,17920
16:43:23.021139,0
16:43:23.021139,82
16:43:23.021139,22784
16:43:23.021139,0
16:43:23.021139,89
16:43:23.021139,19968
16:43:23.021139,0
16:43:23.021139,42
16:43:23.021139,5376
16:43:23.021139,0
16:43:23.021139,28
16:43:23.021139,7168
16:43:23.021139,0
16:43:23.021139,21
16:43:23.021139,5888
16:43:23.021139,0
16:43:23.021139,14
16:43:23.021139,-13312
16:43:23.021139,-1
16:43:23.021139,-184
16:43:23.021139,-3585
16:43:23.021139,-2
16:43:23.021139,-75
16:43:23.021139,10751
16:43:23.021139,2
16:43:23.021139,1092
16:43:23.021139,13824
16:43:23.021139,3
16:43:23.021139,208
16:43:23.021139,23552
16:43:23.021139,0
16:43:23.021139,172
16:43:23.021139,5376
16:43:23.021139,0
16:43:23.021139,-78
16:43:23.560807,-28
16:43:23.560807,-6401
16:43:23.560807,-1
16:43:23.560807,-54
16:43:23.560807,-8193
16:43:23.560807,-1
16:43:23.560807,-16
16:43:23.560807,-5633
16:43:23.560807,-1
16:43:23.560807,-11
16:43:23.560807,-257
16:43:23.560807,-1
16:43:23.560807,11
16:43:23.560807,10240
16:43:23.560807,0
16:43:23.560807,44
16:43:23.560807,7680
16:43:23.560807,0
16:43:23.560807,47
16:43:23.560807,17920
16:43:23.560807,0
16:43:23.560807,82
16:43:23.560807,25856
16:43:23.560807,0
16:43:23.560807,132
16:43:23.560807,-28672
16:43:23.560807,0
16:43:23.560807,151
16:43:23.560807,-21504
16:43:23.560807,0
16:43:23.560807,198
16:43:23.560807,-11264
16:43:23.560807,0
16:43:23.560807,217
16:43:23.560807,-12288
16:43:23.560807,0
16:43:23.560807,172
16:43:23.560807,30720
16:43:23.560807,0
16:43:23.560807,68
16:43:23.560807,6656
16:43:23.560807,0
16:43:23.560807,-7
16:43:23.560807,-9217
16:43:23.560807,-1
16:43:23.560807,-56
16:43:23.560807,-14081
16:43:23.560807,-1
16:43:23.560807,-49
16:43:23.560807,-14849
16:43:23.560807,-1
16:43:23.560807,-61
16:43:23.560807,-11777
16:43:23.560807,-1
16:43:23.560807,-42
16:43:23.560807,-11009
16:43:23.560807,-1
16:43:23.560807,-37
16:43:23.560807,-8705
16:43:23.560807,-1
16:43:23.560807,-30
16:43:23.560807,-6401
16:43:23.560807,-1
16:43:23.560807,-26
16:43:23.560807,-5633
16:43:23.560807,-1
16:43:23.560807,-18
16:43:23.560807,-2561
16:43:23.560807,-1
16:43:23.560807,-7
16:43:23.560807,-257
16:43:23.560807,-1
16:43:23.560807,2
16:43:23.560807,1024
16:43:23.560807,0
16:43:23.560807,9
16:43:23.560807,3584
16:43:23.560807,0
16:43:23.560807,14
16:43:23.560807,3584
16:43:23.560807,0
16:43:23.560807,16
16:43:23.560807,5376
16:43:23.560807,0
16:43:23.560807,21
16:43:23.560807,2816
16:43:23.560807,0
16:43:23.560807,9
16:43:23.560807,3584
16:43:23.560807,0
16:43:23.560807,16
16:43:23.560807,4608
16:43:23.560807,0
16:43:23.560807,18
16:43:23.560807,4608
16:43:23.560807,0
16:43:23.560807,23
16:43:23.560807,6656
16:43:23.560807,0
16:43:23.560807,28
16:43:23.560807,7168
16:43:23.560807,0
16:43:23.560807,23
16:43:23.560807,3584
16:43:23.560807,0
16:43:23.560807,11
16:43:23.560807,5376
16:43:23.560807,0
16:43:23.560807,26
16:43:24.145446,21
16:43:24.145446,6656
16:43:24.145446,0
16:43:24.145446,28
16:43:24.145446,7168
16:43:24.145446,0
16:43:24.145446,30
16:43:24.145446,8448
16:43:24.145446,0
16:43:24.145446,35
16:43:24.145446,8448
16:43:24.145446,0
16:43:24.145446,37
16:43:24.145446,10752
16:43:24.145446,0
16:43:24.145446,40
16:43:24.145446,9472
16:43:24.145446,0
16:43:24.145446,35
16:43:24.145446,8448
16:43:24.145446,0
16:43:24.145446,40
16:43:24.145446,10240
16:43:24.145446,0
16:43:24.145446,28
16:43:24.145446,4608
16:43:24.145446,0
16:43:24.145446,26
16:43:24.145446,8448
16:43:24.145446,0
16:43:24.145446,44
16:43:24.145446,15616
16:43:24.145446,0
16:43:24.145446,66
16:43:24.145446,17920
16:43:24.145446,0
16:43:24.145446,78
16:43:24.145446,19968
16:43:24.145446,0
16:43:24.145446,75
16:43:24.145446,15616
16:43:24.145446,0
16:43:24.145446,28
16:43:24.145446,3584
16:43:24.145446,0
16:43:24.145446,26
16:43:24.145446,7168
16:43:24.145446,0
16:43:24.145446,23
16:43:24.145446,5376
16:43:24.145446,0
16:43:24.145446,-21
16:43:24.145446,28415
16:43:24.145446,-1
16:43:24.145446,-278
16:43:24.145446,18175
16:43:24.145446,-1
16:43:24.145446,390
16:43:24.145446,22272
16:43:24.145446,4
16:43:24.145446,1127
