timestamp,ecg,reconstructed_time
2025-11-07 17:08:50.353024,128,2025-11-07 17:08:50.353024000
2025-11-07 17:08:50.353024,-32768,2025-11-07 17:08:50.360716308
2025-11-07 17:08:50.353024,0,2025-11-07 17:08:50.368408615
2025-11-07 17:08:50.353024,133,2025-11-07 17:08:50.376100923
2025-11-07 17:08:50.353024,-29184,2025-11-07 17:08:50.383793231
2025-11-07 17:08:50.353024,0,2025-11-07 17:08:50.391485538
2025-11-07 17:08:50.353024,168,2025-11-07 17:08:50.399177846
2025-11-07 17:08:50.353024,-18944,2025-11-07 17:08:50.406870154
2025-11-07 17:08:50.353024,0,2025-11-07 17:08:50.414562462
2025-11-07 17:08:50.353024,185,2025-11-07 17:08:50.422254769
2025-11-07 17:08:50.353024,-15104,2025-11-07 17:08:50.429947077
2025-11-07 17:08:50.353024,0,2025-11-07 17:08:50.437639385
2025-11-07 17:08:50.353024,213,2025-11-07 17:08:50.445331692
2025-11-07 17:08:50.353024,-11520,2025-11-07 17:08:50.453024000
2025-11-07 17:08:50.353024,0,2025-11-07 17:08:50.460716308
2025-11-07 17:08:50.353024,199,2025-11-07 17:08:50.468408615
2025-11-07 17:08:50.353024,-18944,2025-11-07 17:08:50.476100923
2025-11-07 17:08:50.353024,0,2025-11-07 17:08:50.483793231
2025-11-07 17:08:50.353024,149,2025-11-07 17:08:50.491485538
2025-11-07 17:08:50.353024,27904,2025-11-07 17:08:50.499177846
2025-11-07 17:08:50.353024,0,2025-11-07 17:08:50.506870154
2025-11-07 17:08:50.353024,78,2025-11-07 17:08:50.514562462
2025-11-07 17:08:50.353024,15104,2025-11-07 17:08:50.522254769
2025-11-07 17:08:50.353024,0,2025-11-07 17:08:50.529947077
2025-11-07 17:08:50.353024,47,2025-11-07 17:08:50.537639385
2025-11-07 17:08:50.353024,10240,2025-11-07 17:08:50.545331692
2025-11-07 17:08:50.353024,0,2025-11-07 17:08:50.553024000
2025-11-07 17:08:50.353024,35,2025-11-07 17:08:50.560716308
2025-11-07 17:08:50.353024,8448,2025-11-07 17:08:50.568408615
2025-11-07 17:08:50.353024,0,2025-11-07 17:08:50.576100923
2025-11-07 17:08:50.353024,33,2025-11-07 17:08:50.583793231
2025-11-07 17:08:50.353024,8448,2025-11-07 17:08:50.591485538
2025-11-07 17:08:50.353024,0,2025-11-07 17:08:50.599177846
2025-11-07 17:08:50.353024,28,2025-11-07 17:08:50.606870154
2025-11-07 17:08:50.353024,7168,2025-11-07 17:08:50.614562462
2025-11-07 17:08:50.353024,0,2025-11-07 17:08:50.622254769
2025-11-07 17:08:50.353024,28,2025-11-07 17:08:50.629947077
2025-11-07 17:08:50.353024,7168,2025-11-07 17:08:50.637639385
2025-11-07 17:08:50.353024,0,2025-11-07 17:08:50.645331692
2025-11-07 17:08:50.353024,33,2025-11-07 17:08:50.653024000
2025-11-07 17:08:50.353024,8448,2025-11-07 17:08:50.660716308
2025-11-07 17:08:50.353024,0,2025-11-07 17:08:50.668408615
2025-11-07 17:08:50.353024,30,2025-11-07 17:08:50.676100923
2025-11-07 17:08:50.353024,7168,2025-11-07 17:08:50.683793231
2025-11-07 17:08:50.353024,0,2025-11-07 17:08:50.691485538
2025-11-07 17:08:50.353024,30,2025-11-07 17:08:50.699177846
2025-11-07 17:08:50.353024,8448,2025-11-07 17:08:50.706870154
2025-11-07 17:08:50.353024,0,2025-11-07 17:08:50.714562462
2025-11-07 17:08:50.353024,30,2025-11-07 17:08:50.722254769
2025-11-07 17:08:50.353024,8448,2025-11-07 17:08:50.729947077
2025-11-07 17:08:50.353024,0,2025-11-07 17:08:50.737639385
2025-11-07 17:08:50.353024,38,2025-11-07 17:08:50.745331692
2025-11-07 17:08:50.353024,9728,2025-11-07 17:08:50.753024000
2025-11-07 17:08:50.353024,0,2025-11-07 17:08:50.760716308
2025-11-07 17:08:50.353024,35,2025-11-07 17:08:50.768408615
2025-11-07 17:08:50.353024,7680,2025-11-07 17:08:50.776100923
2025-11-07 17:08:50.353024,0,2025-11-07 17:08:50.783793231
2025-11-07 17:08:50.353024,28,2025-11-07 17:08:50.791485538
2025-11-07 17:08:50.353024,7680,2025-11-07 17:08:50.799177846
2025-11-07 17:08:50.353024,0,2025-11-07 17:08:50.806870154
2025-11-07 17:08:50.353024,30,2025-11-07 17:08:50.814562462
2025-11-07 17:08:50.353024,7680,2025-11-07 17:08:50.822254769
2025-11-07 17:08:50.353024,0,2025-11-07 17:08:50.829947077
2025-11-07 17:08:50.353024,30,2025-11-07 17:08:50.837639385
2025-11-07 17:08:50.353024,8448,2025-11-07 17:08:50.845331692
2025-11-07 17:08:50.353024,0,2025-11-07 17:08:50.853024000
2025-11-07 17:08:50.353024,30,2025-11-07 17:08:50.860716308
2025-11-07 17:08:50.353024,7168,2025-11-07 17:08:50.868408615
2025-11-07 17:08:50.353024,0,2025-11-07 17:08:50.876100923
2025-11-07 17:08:50.353024,35,2025-11-07 17:08:50.883793230
2025-11-07 17:08:50.353024,11520,2025-11-07 17:08:50.891485538
2025-11-07 17:08:50.353024,0,2025-11-07 17:08:50.899177846
2025-11-07 17:08:50.353024,49,2025-11-07 17:08:50.906870154
2025-11-07 17:08:50.353024,11520,2025-11-07 17:08:50.914562462
2025-11-07 17:08:50.353024,0,2025-11-07 17:08:50.922254769
2025-11-07 17:08:50.353024,30,2025-11-07 17:08:50.929947077
2025-11-07 17:08:50.353024,1024,2025-11-07 17:08:50.937639385
2025-11-07 17:08:50.353024,0,2025-11-07 17:08:50.945331692
2025-11-07 17:08:50.353024,-9,2025-11-07 17:08:50.953024000
2025-11-07 17:08:50.353024,255,2025-11-07 17:08:50.960716308
2025-11-07 17:08:50.353024,0,2025-11-07 17:08:50.968408615
2025-11-07 17:08:50.353024,14,2025-11-07 17:08:50.976100923
2025-11-07 17:08:50.353024,5376,2025-11-07 17:08:50.983793231
2025-11-07 17:08:50.353024,0,2025-11-07 17:08:50.991485538
2025-11-07 17:08:50.353024,21,2025-11-07 17:08:50.999177846
2025-11-07 17:08:50.353024,5376,2025-11-07 17:08:51.006870154
2025-11-07 17:08:50.353024,0,2025-11-07 17:08:51.014562462
2025-11-07 17:08:50.353024,21,2025-11-07 17:08:51.022254769
2025-11-07 17:08:50.353024,6656,2025-11-07 17:08:51.029947077
2025-11-07 17:08:50.353024,0,2025-11-07 17:08:51.037639385
2025-11-07 17:08:50.353024,42,2025-11-07 17:08:51.045331692
2025-11-07 17:08:50.353024,21248,2025-11-07 17:08:51.053024000
2025-11-07 17:08:50.353024,0,2025-11-07 17:08:51.060716308
2025-11-07 17:08:50.353024,121,2025-11-07 17:08:51.068408615
2025-11-07 17:08:50.353024,-8448,2025-11-07 17:08:51.076100923
2025-11-07 17:08:50.353024,-1,2025-11-07 17:08:51.083793231
2025-11-07 17:08:50.353024,-632,2025-11-07 17:08:51.091485538
2025-11-07 17:08:50.353024,5119,2025-11-07 17:08:51.099177846
2025-11-07 17:08:50.353024,-5,2025-11-07 17:08:51.106870154
2025-11-07 17:08:50.353024,-1069,2025-11-07 17:08:51.114562462
2025-11-07 17:08:50.353024,-15617,2025-11-07 17:08:51.122254769
2025-11-07 17:08:50.353024,-2,2025-11-07 17:08:51.129947077
2025-11-07 17:08:50.353024,64,2025-11-07 17:08:51.137639385
2025-11-07 17:08:50.353024,19968,2025-11-07 17:08:51.145331692
2025-11-07 17:08:50.353024,0,2025-11-07 17:08:51.153024000
2025-11-07 17:08:50.353024,121,2025-11-07 17:08:51.160716308
2025-11-07 17:08:50.353024,-21248,2025-11-07 17:08:51.168408615
2025-11-07 17:08:50.353024,0,2025-11-07 17:08:51.176100923
2025-11-07 17:08:50.353024,161,2025-11-07 17:08:51.183793231
2025-11-07 17:08:50.922254,156,2025-11-07 17:08:51.191485538
2025-11-07 17:08:50.922254,-21760,2025-11-07 17:08:51.199177846
2025-11-07 17:08:50.922254,0,2025-11-07 17:08:51.206870154
2025-11-07 17:08:50.922254,166,2025-11-07 17:08:51.214562462
2025-11-07 17:08:50.922254,-27392,2025-11-07 17:08:51.222254769
2025-11-07 17:08:50.922254,0,2025-11-07 17:08:51.229947077
2025-11-07 17:08:50.922254,147,2025-11-07 17:08:51.237639385
2025-11-07 17:08:50.922254,-27904,2025-11-07 17:08:51.245331692
2025-11-07 17:08:50.922254,0,2025-11-07 17:08:51.253024000
2025-11-07 17:08:50.922254,144,2025-11-07 17:08:51.260716308
2025-11-07 17:08:50.922254,-29184,2025-11-07 17:08:51.268408615
2025-11-07 17:08:50.922254,0,2025-11-07 17:08:51.276100923
2025-11-07 17:08:50.922254,144,2025-11-07 17:08:51.283793231
2025-11-07 17:08:50.922254,-26624,2025-11-07 17:08:51.291485538
2025-11-07 17:08:50.922254,0,2025-11-07 17:08:51.299177846
2025-11-07 17:08:50.922254,156,2025-11-07 17:08:51.306870154
2025-11-07 17:08:50.922254,-25600,2025-11-07 17:08:51.314562462
2025-11-07 17:08:50.922254,0,2025-11-07 17:08:51.322254769
2025-11-07 17:08:50.922254,161,2025-11-07 17:08:51.329947077
2025-11-07 17:08:50.922254,-22528,2025-11-07 17:08:51.337639385
2025-11-07 17:08:50.922254,0,2025-11-07 17:08:51.345331692
2025-11-07 17:08:50.922254,175,2025-11-07 17:08:51.353024000
2025-11-07 17:08:50.922254,-19456,2025-11-07 17:08:51.360716308
2025-11-07 17:08:50.922254,0,2025-11-07 17:08:51.368408615
2025-11-07 17:08:50.922254,187,2025-11-07 17:08:51.376100923
2025-11-07 17:08:50.922254,-14080,2025-11-07 17:08:51.383793231
2025-11-07 17:08:50.922254,0,2025-11-07 17:08:51.391485538
2025-11-07 17:08:50.922254,206,2025-11-07 17:08:51.399177846
2025-11-07 17:08:50.922254,-11520,2025-11-07 17:08:51.406870154
2025-11-07 17:08:50.922254,0,2025-11-07 17:08:51.414562462
2025-11-07 17:08:50.922254,204,2025-11-07 17:08:51.422254769
2025-11-07 17:08:50.922254,-19968,2025-11-07 17:08:51.429947077
2025-11-07 17:08:50.922254,0,2025-11-07 17:08:51.437639385
2025-11-07 17:08:50.922254,137,2025-11-07 17:08:51.445331692
2025-11-07 17:08:50.922254,25344,2025-11-07 17:08:51.453024000
2025-11-07 17:08:50.922254,0,2025-11-07 17:08:51.460716308
2025-11-07 17:08:50.922254,68,2025-11-07 17:08:51.468408615
2025-11-07 17:08:50.922254,13824,2025-11-07 17:08:51.476100923
2025-11-07 17:08:50.922254,0,2025-11-07 17:08:51.483793231
2025-11-07 17:08:50.922254,45,2025-11-07 17:08:51.491485538
2025-11-07 17:08:50.922254,9728,2025-11-07 17:08:51.499177846
2025-11-07 17:08:50.922254,0,2025-11-07 17:08:51.506870154
2025-11-07 17:08:50.922254,38,2025-11-07 17:08:51.514562462
2025-11-07 17:08:50.922254,9728,2025-11-07 17:08:51.522254769
2025-11-07 17:08:50.922254,0,2025-11-07 17:08:51.529947077
2025-11-07 17:08:50.922254,33,2025-11-07 17:08:51.537639385
2025-11-07 17:08:50.922254,8448,2025-11-07 17:08:51.545331692
2025-11-07 17:08:50.922254,0,2025-11-07 17:08:51.553024000
2025-11-07 17:08:50.922254,38,2025-11-07 17:08:51.560716308
2025-11-07 17:08:50.922254,9728,2025-11-07 17:08:51.568408615
2025-11-07 17:08:50.922254,0,2025-11-07 17:08:51.576100923
2025-11-07 17:08:50.922254,35,2025-11-07 17:08:51.583793231
2025-11-07 17:08:50.922254,8960,2025-11-07 17:08:51.591485538
2025-11-07 17:08:50.922254,0,2025-11-07 17:08:51.599177846
2025-11-07 17:08:50.922254,38,2025-11-07 17:08:51.606870154
2025-11-07 17:08:50.922254,8960,2025-11-07 17:08:51.614562462
2025-11-07 17:08:50.922254,0,2025-11-07 17:08:51.622254769
2025-11-07 17:08:50.922254,35,2025-11-07 17:08:51.629947077
2025-11-07 17:08:50.922254,10240,2025-11-07 17:08:51.637639385
2025-11-07 17:08:50.922254,0,2025-11-07 17:08:51.645331692
2025-11-07 17:08:50.922254,40,2025-11-07 17:08:51.653024000
2025-11-07 17:08:50.922254,9728,2025-11-07 17:08:51.660716308
2025-11-07 17:08:50.922254,0,2025-11-07 17:08:51.668408615
2025-11-07 17:08:50.922254,42,2025-11-07 17:08:51.676100923
2025-11-07 17:08:50.922254,10752,2025-11-07 17:08:51.683793231
2025-11-07 17:08:50.922254,0,2025-11-07 17:08:51.691485538
2025-11-07 17:08:50.922254,40,2025-11-07 17:08:51.699177846
2025-11-07 17:08:50.922254,10240,2025-11-07 17:08:51.706870154
2025-11-07 17:08:50.922254,0,2025-11-07 17:08:51.714562462
2025-11-07 17:08:50.922254,42,2025-11-07 17:08:51.722254769
2025-11-07 17:08:50.922254,10752,2025-11-07 17:08:51.729947077
2025-11-07 17:08:50.922254,0,2025-11-07 17:08:51.737639385
2025-11-07 17:08:50.922254,40,2025-11-07 17:08:51.745331692
2025-11-07 17:08:50.922254,9728,2025-11-07 17:08:51.753024000
2025-11-07 17:08:50.922254,0,2025-11-07 17:08:51.760716308
2025-11-07 17:08:50.922254,40,2025-11-07 17:08:51.768408615
2025-11-07 17:08:50.922254,10752,2025-11-07 17:08:51.776100923
2025-11-07 17:08:50.922254,0,2025-11-07 17:08:51.783793231
2025-11-07 17:08:50.922254,42,2025-11-07 17:08:51.791485538
2025-11-07 17:08:50.922254,10240,2025-11-07 17:08:51.799177846
2025-11-07 17:08:50.922254,0,2025-11-07 17:08:51.806870154
2025-11-07 17:08:50.922254,40,2025-11-07 17:08:51.814562462
2025-11-07 17:08:50.922254,11520,2025-11-07 17:08:51.822254769
2025-11-07 17:08:50.922254,0,2025-11-07 17:08:51.829947077
2025-11-07 17:08:50.922254,57,2025-11-07 17:08:51.837639385
2025-11-07 17:08:50.922254,15104,2025-11-07 17:08:51.845331692
2025-11-07 17:08:50.922254,0,2025-11-07 17:08:51.853024000
2025-11-07 17:08:50.922254,57,2025-11-07 17:08:51.860716308
2025-11-07 17:08:50.922254,10752,2025-11-07 17:08:51.868408615
2025-11-07 17:08:50.922254,0,2025-11-07 17:08:51.876100923
2025-11-07 17:08:50.922254,19,2025-11-07 17:08:51.883793230
2025-11-07 17:08:50.922254,512,2025-11-07 17:08:51.891485538
2025-11-07 17:08:50.922254,0,2025-11-07 17:08:51.899177846
2025-11-07 17:08:50.922254,7,2025-11-07 17:08:51.906870154
2025-11-07 17:08:50.922254,6656,2025-11-07 17:08:51.914562462
2025-11-07 17:08:50.922254,0,2025-11-07 17:08:51.922254769
2025-11-07 17:08:50.922254,38,2025-11-07 17:08:51.929947077
2025-11-07 17:08:50.922254,10752,2025-11-07 17:08:51.937639385
2025-11-07 17:08:50.922254,0,2025-11-07 17:08:51.945331692
2025-11-07 17:08:50.922254,45,2025-11-07 17:08:51.953024000
2025-11-07 17:08:50.922254,10752,2025-11-07 17:08:51.960716308
2025-11-07 17:08:50.922254,0,2025-11-07 17:08:51.968408615
2025-11-07 17:08:50.922254,45,2025-11-07 17:08:51.976100923
2025-11-07 17:08:50.922254,16384,2025-11-07 17:08:51.983793231
2025-11-07 17:08:50.922254,0,2025-11-07 17:08:51.991485538
2025-11-07 17:08:50.922254,106,2025-11-07 17:08:51.999177846
2025-11-07 17:08:50.922254,-30464,2025-11-07 17:08:52.006870154
2025-11-07 17:08:50.922254,0,2025-11-07 17:08:52.014562462
2025-11-07 17:08:50.922254,-54,2025-11-07 17:08:52.022254769
2025-11-07 17:08:51.458672,-670,2025-11-07 17:08:52.029947077
2025-11-07 17:08:51.458672,19711,2025-11-07 17:08:52.037639385
2025-11-07 17:08:51.458672,-5,2025-11-07 17:08:52.045331692
2025-11-07 17:08:51.458672,-879,2025-11-07 17:08:52.053024000
2025-11-07 17:08:51.458672,29439,2025-11-07 17:08:52.060716308
2025-11-07 17:08:51.458672,-1,2025-11-07 17:08:52.068408615
2025-11-07 17:08:51.458672,109,2025-11-07 17:08:52.076100923
2025-11-07 17:08:51.458672,13824,2025-11-07 17:08:52.083793231
2025-11-07 17:08:51.458672,0,2025-11-07 17:08:52.091485538
2025-11-07 17:08:51.458672,121,2025-11-07 17:08:52.099177846
2025-11-07 17:08:51.458672,-18176,2025-11-07 17:08:52.106870154
2025-11-07 17:08:51.458672,0,2025-11-07 17:08:52.114562462
2025-11-07 17:08:51.458672,163,2025-11-07 17:08:52.122254769
2025-11-07 17:08:51.458672,-23808,2025-11-07 17:08:52.129947077
2025-11-07 17:08:51.458672,0,2025-11-07 17:08:52.137639385
2025-11-07 17:08:51.458672,190,2025-11-07 17:08:52.145331692
2025-11-07 17:08:51.458672,-18176,2025-11-07 17:08:52.153024000
2025-11-07 17:08:51.458672,0,2025-11-07 17:08:52.160716308
2025-11-07 17:08:51.458672,168,2025-11-07 17:08:52.168408615
2025-11-07 17:08:51.458672,-23040,2025-11-07 17:08:52.176100923
2025-11-07 17:08:51.458672,0,2025-11-07 17:08:52.183793231
2025-11-07 17:08:51.458672,166,2025-11-07 17:08:52.191485538
2025-11-07 17:08:51.458672,-24320,2025-11-07 17:08:52.199177846
2025-11-07 17:08:51.458672,0,2025-11-07 17:08:52.206870154
2025-11-07 17:08:51.458672,156,2025-11-07 17:08:52.214562462
2025-11-07 17:08:51.458672,-26112,2025-11-07 17:08:52.222254769
2025-11-07 17:08:51.458672,0,2025-11-07 17:08:52.229947077
2025-11-07 17:08:51.458672,159,2025-11-07 17:08:52.237639385
2025-11-07 17:08:51.458672,-21248,2025-11-07 17:08:52.245331692
2025-11-07 17:08:51.458672,0,2025-11-07 17:08:52.253024000
2025-11-07 17:08:51.458672,173,2025-11-07 17:08:52.260716308
2025-11-07 17:08:51.458672,-24832,2025-11-07 17:08:52.268408615
2025-11-07 17:08:51.458672,0,2025-11-07 17:08:52.276100923
2025-11-07 17:08:51.458672,159,2025-11-07 17:08:52.283793231
2025-11-07 17:08:51.458672,-22528,2025-11-07 17:08:52.291485538
2025-11-07 17:08:51.458672,0,2025-11-07 17:08:52.299177846
2025-11-07 17:08:51.458672,168,2025-11-07 17:08:52.306870154
2025-11-07 17:08:51.458672,-19968,2025-11-07 17:08:52.314562462
2025-11-07 17:08:51.458672,0,2025-11-07 17:08:52.322254769
2025-11-07 17:08:51.458672,190,2025-11-07 17:08:52.329947077
2025-11-07 17:08:51.458672,-15872,2025-11-07 17:08:52.337639385
2025-11-07 17:08:51.458672,0,2025-11-07 17:08:52.345331692
2025-11-07 17:08:51.458672,199,2025-11-07 17:08:52.353024000
2025-11-07 17:08:51.458672,-15872,2025-11-07 17:08:52.360716308
2025-11-07 17:08:51.458672,0,2025-11-07 17:08:52.368408615
2025-11-07 17:08:51.458672,171,2025-11-07 17:08:52.376100923
2025-11-07 17:08:51.458672,-32768,2025-11-07 17:08:52.383793231
2025-11-07 17:08:51.458672,0,2025-11-07 17:08:52.391485538
2025-11-07 17:08:51.458672,95,2025-11-07 17:08:52.399177846
2025-11-07 17:08:51.458672,20480,2025-11-07 17:08:52.406870154
2025-11-07 17:08:51.458672,0,2025-11-07 17:08:52.414562462
2025-11-07 17:08:51.458672,73,2025-11-07 17:08:52.422254769
2025-11-07 17:08:51.458672,16384,2025-11-07 17:08:52.429947077
2025-11-07 17:08:51.458672,0,2025-11-07 17:08:52.437639385
2025-11-07 17:08:51.458672,52,2025-11-07 17:08:52.445331692
2025-11-07 17:08:51.458672,10752,2025-11-07 17:08:52.453024000
2025-11-07 17:08:51.458672,0,2025-11-07 17:08:52.460716308
2025-11-07 17:08:51.458672,42,2025-11-07 17:08:52.468408615
2025-11-07 17:08:51.458672,12544,2025-11-07 17:08:52.476100923
2025-11-07 17:08:51.458672,0,2025-11-07 17:08:52.483793231
2025-11-07 17:08:51.458672,52,2025-11-07 17:08:52.491485538
2025-11-07 17:08:51.458672,12032,2025-11-07 17:08:52.499177846
2025-11-07 17:08:51.458672,0,2025-11-07 17:08:52.506870154
2025-11-07 17:08:51.458672,52,2025-11-07 17:08:52.514562462
2025-11-07 17:08:51.458672,13824,2025-11-07 17:08:52.522254769
2025-11-07 17:08:51.458672,0,2025-11-07 17:08:52.529947077
2025-11-07 17:08:51.458672,52,2025-11-07 17:08:52.537639385
2025-11-07 17:08:51.458672,14592,2025-11-07 17:08:52.545331692
2025-11-07 17:08:51.458672,0,2025-11-07 17:08:52.553024000
2025-11-07 17:08:51.458672,57,2025-11-07 17:08:52.560716308
2025-11-07 17:08:51.458672,15104,2025-11-07 17:08:52.568408615
2025-11-07 17:08:51.458672,0,2025-11-07 17:08:52.576100923
2025-11-07 17:08:51.458672,59,2025-11-07 17:08:52.583793231
2025-11-07 17:08:51.458672,13312,2025-11-07 17:08:52.591485538
2025-11-07 17:08:51.458672,0,2025-11-07 17:08:52.599177846
2025-11-07 17:08:51.458672,49,2025-11-07 17:08:52.606870154
2025-11-07 17:08:51.458672,14592,2025-11-07 17:08:52.614562462
2025-11-07 17:08:51.458672,0,2025-11-07 17:08:52.622254769
2025-11-07 17:08:51.458672,54,2025-11-07 17:08:52.629947077
2025-11-07 17:08:51.458672,13312,2025-11-07 17:08:52.637639385
2025-11-07 17:08:51.458672,0,2025-11-07 17:08:52.645331692
2025-11-07 17:08:51.458672,59,2025-11-07 17:08:52.653024000
2025-11-07 17:08:51.458672,15104,2025-11-07 17:08:52.660716308
2025-11-07 17:08:51.458672,0,2025-11-07 17:08:52.668408615
2025-11-07 17:08:51.458672,57,2025-11-07 17:08:52.676100923
2025-11-07 17:08:51.458672,17408,2025-11-07 17:08:52.683793231
2025-11-07 17:08:51.458672,0,2025-11-07 17:08:52.691485538
2025-11-07 17:08:51.458672,76,2025-11-07 17:08:52.699177846
2025-11-07 17:08:51.458672,15616,2025-11-07 17:08:52.706870154
2025-11-07 17:08:51.458672,0,2025-11-07 17:08:52.714562462
2025-11-07 17:08:51.458672,66,2025-11-07 17:08:52.722254769
2025-11-07 17:08:51.458672,24320,2025-11-07 17:08:52.729947077
2025-11-07 17:08:51.458672,0,2025-11-07 17:08:52.737639385
2025-11-07 17:08:51.458672,97,2025-11-07 17:08:52.745331692
2025-11-07 17:08:51.458672,17408,2025-11-07 17:08:52.753024000
2025-11-07 17:08:51.458672,0,2025-11-07 17:08:52.760716308
2025-11-07 17:08:51.458672,35,2025-11-07 17:08:52.768408615
2025-11-07 17:08:51.458672,1792,2025-11-07 17:08:52.776100923
2025-11-07 17:08:51.458672,0,2025-11-07 17:08:52.783793231
2025-11-07 17:08:51.458672,4,2025-11-07 17:08:52.791485538
2025-11-07 17:08:51.458672,5888,2025-11-07 17:08:52.799177846
2025-11-07 17:08:51.458672,0,2025-11-07 17:08:52.806870154
2025-11-07 17:08:51.458672,38,2025-11-07 17:08:52.814562462
2025-11-07 17:08:51.458672,9728,2025-11-07 17:08:52.822254769
2025-11-07 17:08:51.458672,0,2025-11-07 17:08:52.829947077
2025-11-07 17:08:51.458672,42,2025-11-07 17:08:52.837639385
2025-11-07 17:08:51.458672,12032,2025-11-07 17:08:52.845331692
2025-11-07 17:08:51.458672,0,2025-11-07 17:08:52.853024000
2025-11-07 17:08:51.458672,42,2025-11-07 17:08:52.860716308
2025-11-07 17:08:52.032995,49,2025-11-07 17:08:52.868408615
2025-11-07 17:08:52.032995,23040,2025-11-07 17:08:52.876100923
2025-11-07 17:08:52.032995,0,2025-11-07 17:08:52.883793230
2025-11-07 17:08:52.032995,140,2025-11-07 17:08:52.891485538
2025-11-07 17:08:52.032995,22272,2025-11-07 17:08:52.899177846
2025-11-07 17:08:52.032995,0,2025-11-07 17:08:52.906870154
2025-11-07 17:08:52.032995,-342,2025-11-07 17:08:52.914562462
2025-11-07 17:08:52.032995,-1537,2025-11-07 17:08:52.922254769
2025-11-07 17:08:52.032995,-5,2025-11-07 17:08:52.929947077
2025-11-07 17:08:52.032995,-1102,2025-11-07 17:08:52.937639385
2025-11-07 17:08:52.032995,-28417,2025-11-07 17:08:52.945331692
2025-11-07 17:08:52.032995,-2,2025-11-07 17:08:52.953024000
2025-11-07 17:08:52.032995,140,2025-11-07 17:08:52.960716308
2025-11-07 17:08:52.032995,24320,2025-11-07 17:08:52.968408615
2025-11-07 17:08:52.032995,0,2025-11-07 17:08:52.976100923
2025-11-07 17:08:52.032995,87,2025-11-07 17:08:52.983793231
2025-11-07 17:08:52.032995,-14080,2025-11-07 17:08:52.991485538
2025-11-07 17:08:52.032995,0,2025-11-07 17:08:52.999177846
2025-11-07 17:08:52.032995,187,2025-11-07 17:08:53.006870154
2025-11-07 17:08:52.032995,-27904,2025-11-07 17:08:53.014562462
2025-11-07 17:08:52.032995,0,2025-11-07 17:08:53.022254769
2025-11-07 17:08:52.032995,175,2025-11-07 17:08:53.029947077
2025-11-07 17:08:52.032995,-19456,2025-11-07 17:08:53.037639385
2025-11-07 17:08:52.032995,0,2025-11-07 17:08:53.045331692
2025-11-07 17:08:52.032995,154,2025-11-07 17:08:53.053024000
2025-11-07 17:08:52.032995,-27392,2025-11-07 17:08:53.060716308
2025-11-07 17:08:52.032995,0,2025-11-07 17:08:53.068408615
2025-11-07 17:08:52.032995,159,2025-11-07 17:08:53.076100923
2025-11-07 17:08:52.032995,-27392,2025-11-07 17:08:53.083793231
2025-11-07 17:08:52.032995,0,2025-11-07 17:08:53.091485538
2025-11-07 17:08:52.032995,137,2025-11-07 17:08:53.099177846
2025-11-07 17:08:52.032995,-30976,2025-11-07 17:08:53.106870154
2025-11-07 17:08:52.032995,0,2025-11-07 17:08:53.114562462
2025-11-07 17:08:52.032995,133,2025-11-07 17:08:53.122254769
2025-11-07 17:08:52.032995,-32256,2025-11-07 17:08:53.129947077
2025-11-07 17:08:52.032995,0,2025-11-07 17:08:53.137639385
2025-11-07 17:08:52.032995,133,2025-11-07 17:08:53.145331692
2025-11-07 17:08:52.032995,-31488,2025-11-07 17:08:53.153024000
2025-11-07 17:08:52.032995,0,2025-11-07 17:08:53.160716308
2025-11-07 17:08:52.032995,137,2025-11-07 17:08:53.168408615
2025-11-07 17:08:52.032995,-29696,2025-11-07 17:08:53.176100923
2025-11-07 17:08:52.032995,0,2025-11-07 17:08:53.183793231
2025-11-07 17:08:52.032995,140,2025-11-07 17:08:53.191485538
2025-11-07 17:08:52.032995,-27392,2025-11-07 17:08:53.199177846
2025-11-07 17:08:52.032995,0,2025-11-07 17:08:53.206870154
2025-11-07 17:08:52.032995,168,2025-11-07 17:08:53.214562462
2025-11-07 17:08:52.032995,-19968,2025-11-07 17:08:53.222254769
2025-11-07 17:08:52.032995,0,2025-11-07 17:08:53.229947077
2025-11-07 17:08:52.032995,171,2025-11-07 17:08:53.237639385
2025-11-07 17:08:52.032995,-23808,2025-11-07 17:08:53.245331692
2025-11-07 17:08:52.032995,0,2025-11-07 17:08:53.253024000
2025-11-07 17:08:52.032995,144,2025-11-07 17:08:53.260716308
2025-11-07 17:08:52.032995,29696,2025-11-07 17:08:53.268408615
2025-11-07 17:08:52.032995,0,2025-11-07 17:08:53.276100923
2025-11-07 17:08:52.032995,95,2025-11-07 17:08:53.283793231
2025-11-07 17:08:52.032995,18688,2025-11-07 17:08:53.291485538
2025-11-07 17:08:52.032995,0,2025-11-07 17:08:53.299177846
2025-11-07 17:08:52.032995,57,2025-11-07 17:08:53.306870154
2025-11-07 17:08:52.032995,15616,2025-11-07 17:08:53.314562462
2025-11-07 17:08:52.032995,0,2025-11-07 17:08:53.322254769
2025-11-07 17:08:52.032995,64,2025-11-07 17:08:53.329947077
2025-11-07 17:08:52.032995,12544,2025-11-07 17:08:53.337639385
2025-11-07 17:08:52.032995,0,2025-11-07 17:08:53.345331692
2025-11-07 17:08:52.032995,59,2025-11-07 17:08:53.353024000
2025-11-07 17:08:52.032995,17408,2025-11-07 17:08:53.360716308
2025-11-07 17:08:52.032995,0,2025-11-07 17:08:53.368408615
2025-11-07 17:08:52.032995,54,2025-11-07 17:08:53.376100923
2025-11-07 17:08:52.032995,12544,2025-11-07 17:08:53.383793231
2025-11-07 17:08:52.032995,0,2025-11-07 17:08:53.391485538
2025-11-07 17:08:52.032995,61,2025-11-07 17:08:53.399177846
2025-11-07 17:08:52.032995,15104,2025-11-07 17:08:53.406870154
2025-11-07 17:08:52.032995,0,2025-11-07 17:08:53.414562462
2025-11-07 17:08:52.032995,49,2025-11-07 17:08:53.422254769
2025-11-07 17:08:52.032995,15104,2025-11-07 17:08:53.429947077
2025-11-07 17:08:52.032995,0,2025-11-07 17:08:53.437639385
2025-11-07 17:08:52.032995,68,2025-11-07 17:08:53.445331692
2025-11-07 17:08:52.032995,10240,2025-11-07 17:08:53.453024000
2025-11-07 17:08:52.032995,0,2025-11-07 17:08:53.460716308
2025-11-07 17:08:52.032995,26,2025-11-07 17:08:53.468408615
2025-11-07 17:08:52.032995,12544,2025-11-07 17:08:53.476100923
2025-11-07 17:08:52.032995,0,2025-11-07 17:08:53.483793231
2025-11-07 17:08:52.032995,54,2025-11-07 17:08:53.491485538
2025-11-07 17:08:52.032995,7168,2025-11-07 17:08:53.499177846
2025-11-07 17:08:52.032995,0,2025-11-07 17:08:53.506870154
2025-11-07 17:08:52.032995,30,2025-11-07 17:08:53.514562462
2025-11-07 17:08:52.032995,12032,2025-11-07 17:08:53.522254769
2025-11-07 17:08:52.032995,0,2025-11-07 17:08:53.529947077
2025-11-07 17:08:52.032995,35,2025-11-07 17:08:53.537639385
2025-11-07 17:08:52.032995,7680,2025-11-07 17:08:53.545331692
2025-11-07 17:08:52.032995,0,2025-11-07 17:08:53.553024000
2025-11-07 17:08:52.032995,47,2025-11-07 17:08:53.560716308
2025-11-07 17:08:52.032995,11520,2025-11-07 17:08:53.568408615
2025-11-07 17:08:52.032995,0,2025-11-07 17:08:53.576100923
2025-11-07 17:08:52.032995,28,2025-11-07 17:08:53.583793231
2025-11-07 17:08:52.032995,10752,2025-11-07 17:08:53.591485538
2025-11-07 17:08:52.032995,0,2025-11-07 17:08:53.599177846
2025-11-07 17:08:52.032995,71,2025-11-07 17:08:53.606870154
2025-11-07 17:08:52.032995,14592,2025-11-07 17:08:53.614562462
2025-11-07 17:08:52.032995,0,2025-11-07 17:08:53.622254769
2025-11-07 17:08:52.032995,26,2025-11-07 17:08:53.629947077
2025-11-07 17:08:52.032995,2816,2025-11-07 17:08:53.637639385
2025-11-07 17:08:52.032995,0,2025-11-07 17:08:53.645331692
2025-11-07 17:08:52.032995,4,2025-11-07 17:08:53.653024000
2025-11-07 17:08:52.032995,2816,2025-11-07 17:08:53.660716308
2025-11-07 17:08:52.032995,0,2025-11-07 17:08:53.668408615
2025-11-07 17:08:52.032995,38,2025-11-07 17:08:53.676100923
2025-11-07 17:08:52.032995,9728,2025-11-07 17:08:53.683793231
2025-11-07 17:08:52.032995,0,2025-11-07 17:08:53.691485538
2025-11-07 17:08:52.032995,23,2025-11-07 17:08:53.699177846
2025-11-07 17:08:52.568443,33,2025-11-07 17:08:53.706870154
2025-11-07 17:08:52.568443,11520,2025-11-07 17:08:53.714562462
2025-11-07 17:08:52.568443,0,2025-11-07 17:08:53.722254769
2025-11-07 17:08:52.568443,40,2025-11-07 17:08:53.729947077
2025-11-07 17:08:52.568443,18688,2025-11-07 17:08:53.737639385
2025-11-07 17:08:52.568443,0,2025-11-07 17:08:53.745331692
2025-11-07 17:08:52.568443,135,2025-11-07 17:08:53.753024000
2025-11-07 17:08:52.568443,19968,2025-11-07 17:08:53.760716308
2025-11-07 17:08:52.568443,0,2025-11-07 17:08:53.768408615
2025-11-07 17:08:52.568443,-356,2025-11-07 17:08:53.776100923
2025-11-07 17:08:52.568443,1023,2025-11-07 17:08:53.783793231
2025-11-07 17:08:52.568443,-4,2025-11-07 17:08:53.791485538
2025-11-07 17:08:52.568443,-1076,2025-11-07 17:08:53.799177846
2025-11-07 17:08:52.568443,-24833,2025-11-07 17:08:53.806870154
2025-11-07 17:08:52.568443,-2,2025-11-07 17:08:53.814562462
2025-11-07 17:08:52.568443,152,2025-11-07 17:08:53.822254769
2025-11-07 17:08:52.568443,26624,2025-11-07 17:08:53.829947077
2025-11-07 17:08:52.568443,0,2025-11-07 17:08:53.837639385
2025-11-07 17:08:52.568443,73,2025-11-07 17:08:53.845331692
2025-11-07 17:08:52.568443,-22528,2025-11-07 17:08:53.853024000
2025-11-07 17:08:52.568443,0,2025-11-07 17:08:53.860716308
2025-11-07 17:08:52.568443,168,2025-11-07 17:08:53.868408615
2025-11-07 17:08:52.568443,-29696,2025-11-07 17:08:53.876100923
2025-11-07 17:08:52.568443,0,2025-11-07 17:08:53.883793230
2025-11-07 17:08:52.568443,163,2025-11-07 17:08:53.891485538
2025-11-07 17:08:52.568443,-19968,2025-11-07 17:08:53.899177846
2025-11-07 17:08:52.568443,0,2025-11-07 17:08:53.906870154
2025-11-07 17:08:52.568443,159,2025-11-07 17:08:53.914562462
2025-11-07 17:08:52.568443,-29696,2025-11-07 17:08:53.922254769
2025-11-07 17:08:52.568443,0,2025-11-07 17:08:53.929947077
2025-11-07 17:08:52.568443,137,2025-11-07 17:08:53.937639385
2025-11-07 17:08:52.568443,-30976,2025-11-07 17:08:53.945331692
2025-11-07 17:08:52.568443,0,2025-11-07 17:08:53.953024000
2025-11-07 17:08:52.568443,125,2025-11-07 17:08:53.960716308
2025-11-07 17:08:52.568443,-30976,2025-11-07 17:08:53.968408615
2025-11-07 17:08:52.568443,0,2025-11-07 17:08:53.976100923
2025-11-07 17:08:52.568443,135,2025-11-07 17:08:53.983793231
2025-11-07 17:08:52.568443,30208,2025-11-07 17:08:53.991485538
2025-11-07 17:08:52.568443,0,2025-11-07 17:08:53.999177846
2025-11-07 17:08:52.568443,130,2025-11-07 17:08:54.006870154
2025-11-07 17:08:52.568443,-29184,2025-11-07 17:08:54.014562462
2025-11-07 17:08:52.568443,0,2025-11-07 17:08:54.022254769
2025-11-07 17:08:52.568443,121,2025-11-07 17:08:54.029947077
2025-11-07 17:08:52.568443,-32768,2025-11-07 17:08:54.037639385
2025-11-07 17:08:52.568443,0,2025-11-07 17:08:54.045331692
2025-11-07 17:08:52.568443,166,2025-11-07 17:08:54.053024000
2025-11-07 17:08:52.568443,-23808,2025-11-07 17:08:54.060716308
2025-11-07 17:08:52.568443,0,2025-11-07 17:08:54.068408615
2025-11-07 17:08:52.568443,152,2025-11-07 17:08:54.076100923
2025-11-07 17:08:52.568443,-22528,2025-11-07 17:08:54.083793231
2025-11-07 17:08:52.568443,0,2025-11-07 17:08:54.091485538
2025-11-07 17:08:52.568443,166,2025-11-07 17:08:54.099177846
2025-11-07 17:08:52.568443,-29696,2025-11-07 17:08:54.106870154
2025-11-07 17:08:52.568443,0,2025-11-07 17:08:54.114562462
2025-11-07 17:08:52.568443,123,2025-11-07 17:08:54.122254769
2025-11-07 17:08:52.568443,27136,2025-11-07 17:08:54.129947077
2025-11-07 17:08:52.568443,0,2025-11-07 17:08:54.137639385
2025-11-07 17:08:52.568443,76,2025-11-07 17:08:54.145331692
2025-11-07 17:08:52.568443,12544,2025-11-07 17:08:54.153024000
2025-11-07 17:08:52.568443,0,2025-11-07 17:08:54.160716308
2025-11-07 17:08:52.568443,40,2025-11-07 17:08:54.168408615
2025-11-07 17:08:52.568443,11520,2025-11-07 17:08:54.176100923
2025-11-07 17:08:52.568443,0,2025-11-07 17:08:54.183793231
2025-11-07 17:08:52.568443,38,2025-11-07 17:08:54.191485538
2025-11-07 17:08:52.568443,7680,2025-11-07 17:08:54.199177846
2025-11-07 17:08:52.568443,0,2025-11-07 17:08:54.206870154
2025-11-07 17:08:52.568443,38,2025-11-07 17:08:54.214562462
2025-11-07 17:08:52.568443,10752,2025-11-07 17:08:54.222254769
2025-11-07 17:08:52.568443,0,2025-11-07 17:08:54.229947077
2025-11-07 17:08:52.568443,42,2025-11-07 17:08:54.237639385
2025-11-07 17:08:52.568443,11520,2025-11-07 17:08:54.245331692
2025-11-07 17:08:52.568443,0,2025-11-07 17:08:54.253024000
2025-11-07 17:08:52.568443,40,2025-11-07 17:08:54.260716308
2025-11-07 17:08:52.568443,6656,2025-11-07 17:08:54.268408615
2025-11-07 17:08:52.568443,0,2025-11-07 17:08:54.276100923
2025-11-07 17:08:52.568443,26,2025-11-07 17:08:54.283793231
2025-11-07 17:08:52.568443,7680,2025-11-07 17:08:54.291485538
2025-11-07 17:08:52.568443,0,2025-11-07 17:08:54.299177846
2025-11-07 17:08:52.568443,26,2025-11-07 17:08:54.306870154
2025-11-07 17:08:52.568443,5376,2025-11-07 17:08:54.314562462
2025-11-07 17:08:52.568443,0,2025-11-07 17:08:54.322254769
2025-11-07 17:08:52.568443,19,2025-11-07 17:08:54.329947077
2025-11-07 17:08:52.568443,4096,2025-11-07 17:08:54.337639385
2025-11-07 17:08:52.568443,0,2025-11-07 17:08:54.345331692
2025-11-07 17:08:52.568443,11,2025-11-07 17:08:54.353024000
2025-11-07 17:08:52.568443,3584,2025-11-07 17:08:54.360716308
2025-11-07 17:08:52.568443,0,2025-11-07 17:08:54.368408615
2025-11-07 17:08:52.568443,23,2025-11-07 17:08:54.376100923
2025-11-07 17:08:52.568443,4864,2025-11-07 17:08:54.383793231
2025-11-07 17:08:52.568443,0,2025-11-07 17:08:54.391485538
2025-11-07 17:08:52.568443,11,2025-11-07 17:08:54.399177846
2025-11-07 17:08:52.568443,4096,2025-11-07 17:08:54.406870154
2025-11-07 17:08:52.568443,0,2025-11-07 17:08:54.414562462
2025-11-07 17:08:52.568443,26,2025-11-07 17:08:54.422254769
2025-11-07 17:08:52.568443,7168,2025-11-07 17:08:54.429947077
2025-11-07 17:08:52.568443,0,2025-11-07 17:08:54.437639385
2025-11-07 17:08:52.568443,30,2025-11-07 17:08:54.445331692
2025-11-07 17:08:52.568443,7168,2025-11-07 17:08:54.453024000
2025-11-07 17:08:52.568443,0,2025-11-07 17:08:54.460716308
2025-11-07 17:08:52.568443,16,2025-11-07 17:08:54.468408615
2025-11-07 17:08:52.568443,-512,2025-11-07 17:08:54.476100923
2025-11-07 17:08:52.568443,-1,2025-11-07 17:08:54.483793231
2025-11-07 17:08:52.568443,-19,2025-11-07 17:08:54.491485538
2025-11-07 17:08:52.568443,-2561,2025-11-07 17:08:54.499177846
2025-11-07 17:08:52.568443,-1,2025-11-07 17:08:54.506870154
2025-11-07 17:08:52.568443,7,2025-11-07 17:08:54.514562462
2025-11-07 17:08:52.568443,3584,2025-11-07 17:08:54.522254769
2025-11-07 17:08:52.568443,0,2025-11-07 17:08:54.529947077
2025-11-07 17:08:52.568443,7,2025-11-07 17:08:54.537639385
2025-11-07 17:08:53.113118,11,2025-11-07 17:08:54.545331692
2025-11-07 17:08:53.113118,4096,2025-11-07 17:08:54.553024000
2025-11-07 17:08:53.113118,0,2025-11-07 17:08:54.560716308
2025-11-07 17:08:53.113118,16,2025-11-07 17:08:54.568408615
2025-11-07 17:08:53.113118,10240,2025-11-07 17:08:54.576100923
2025-11-07 17:08:53.113118,0,2025-11-07 17:08:54.583793231
2025-11-07 17:08:53.113118,97,2025-11-07 17:08:54.591485538
2025-11-07 17:08:53.113118,23040,2025-11-07 17:08:54.599177846
2025-11-07 17:08:53.113118,0,2025-11-07 17:08:54.606870154
2025-11-07 17:08:53.113118,-266,2025-11-07 17:08:54.614562462
2025-11-07 17:08:53.113118,17919,2025-11-07 17:08:54.622254769
2025-11-07 17:08:53.113118,-4,2025-11-07 17:08:54.629947077
2025-11-07 17:08:53.113118,-1159,2025-11-07 17:08:54.637639385
2025-11-07 17:08:53.113118,3071,2025-11-07 17:08:54.645331692
2025-11-07 17:08:53.113118,-2,2025-11-07 17:08:54.653024000
2025-11-07 17:08:53.113118,80,2025-11-07 17:08:54.660716308
2025-11-07 17:08:53.113118,24320,2025-11-07 17:08:54.668408615
2025-11-07 17:08:53.113118,0,2025-11-07 17:08:54.676100923
2025-11-07 17:08:53.113118,64,2025-11-07 17:08:54.683793231
2025-11-07 17:08:53.113118,-24832,2025-11-07 17:08:54.691485538
2025-11-07 17:08:53.113118,0,2025-11-07 17:08:54.699177846
2025-11-07 17:08:53.113118,168,2025-11-07 17:08:54.706870154
2025-11-07 17:08:53.113118,-30464,2025-11-07 17:08:54.714562462
2025-11-07 17:08:53.113118,0,2025-11-07 17:08:54.722254769
2025-11-07 17:08:53.113118,156,2025-11-07 17:08:54.729947077
2025-11-07 17:08:53.113118,-25600,2025-11-07 17:08:54.737639385
2025-11-07 17:08:53.113118,0,2025-11-07 17:08:54.745331692
2025-11-07 17:08:53.113118,135,2025-11-07 17:08:54.753024000
2025-11-07 17:08:53.113118,-30976,2025-11-07 17:08:54.760716308
2025-11-07 17:08:53.113118,0,2025-11-07 17:08:54.768408615
2025-11-07 17:08:53.113118,135,2025-11-07 17:08:54.776100923
2025-11-07 17:08:53.113118,-32768,2025-11-07 17:08:54.783793231
2025-11-07 17:08:53.113118,0,2025-11-07 17:08:54.791485538
2025-11-07 17:08:53.113118,130,2025-11-07 17:08:54.799177846
2025-11-07 17:08:53.113118,32000,2025-11-07 17:08:54.806870154
2025-11-07 17:08:53.113118,0,2025-11-07 17:08:54.814562462
2025-11-07 17:08:53.113118,121,2025-11-07 17:08:54.822254769
2025-11-07 17:08:53.113118,-32768,2025-11-07 17:08:54.829947077
2025-11-07 17:08:53.113118,0,2025-11-07 17:08:54.837639385
2025-11-07 17:08:53.113118,135,2025-11-07 17:08:54.845331692
2025-11-07 17:08:53.113118,-29696,2025-11-07 17:08:54.853024000
2025-11-07 17:08:53.113118,0,2025-11-07 17:08:54.860716308
2025-11-07 17:08:53.113118,147,2025-11-07 17:08:54.868408615
2025-11-07 17:08:53.113118,-24832,2025-11-07 17:08:54.876100923
2025-11-07 17:08:53.113118,0,2025-11-07 17:08:54.883793230
2025-11-07 17:08:53.113118,171,2025-11-07 17:08:54.891485538
2025-11-07 17:08:53.113118,-19456,2025-11-07 17:08:54.899177846
2025-11-07 17:08:53.113118,0,2025-11-07 17:08:54.906870154
2025-11-07 17:08:53.113118,187,2025-11-07 17:08:54.914562462
2025-11-07 17:08:53.113118,-15104,2025-11-07 17:08:54.922254769
2025-11-07 17:08:53.113118,0,2025-11-07 17:08:54.929947077
2025-11-07 17:08:53.113118,201,2025-11-07 17:08:54.937639385
2025-11-07 17:08:53.113118,-16384,2025-11-07 17:08:54.945331692
2025-11-07 17:08:53.113118,0,2025-11-07 17:08:54.953024000
2025-11-07 17:08:53.113118,159,2025-11-07 17:08:54.960716308
2025-11-07 17:08:53.113118,30208,2025-11-07 17:08:54.968408615
2025-11-07 17:08:53.113118,0,2025-11-07 17:08:54.976100923
2025-11-07 17:08:53.113118,83,2025-11-07 17:08:54.983793231
2025-11-07 17:08:53.113118,14592,2025-11-07 17:08:54.991485538
2025-11-07 17:08:53.113118,0,2025-11-07 17:08:54.999177846
2025-11-07 17:08:53.113118,38,2025-11-07 17:08:55.006870154
2025-11-07 17:08:53.113118,7168,2025-11-07 17:08:55.014562462
2025-11-07 17:08:53.113118,0,2025-11-07 17:08:55.022254769
2025-11-07 17:08:53.113118,26,2025-11-07 17:08:55.029947077
2025-11-07 17:08:53.113118,5888,2025-11-07 17:08:55.037639385
2025-11-07 17:08:53.113118,0,2025-11-07 17:08:55.045331692
2025-11-07 17:08:53.113118,21,2025-11-07 17:08:55.053024000
2025-11-07 17:08:53.113118,5376,2025-11-07 17:08:55.060716308
2025-11-07 17:08:53.113118,0,2025-11-07 17:08:55.068408615
2025-11-07 17:08:53.113118,28,2025-11-07 17:08:55.076100923
2025-11-07 17:08:53.113118,7680,2025-11-07 17:08:55.083793231
2025-11-07 17:08:53.113118,0,2025-11-07 17:08:55.091485538
2025-11-07 17:08:53.113118,26,2025-11-07 17:08:55.099177846
2025-11-07 17:08:53.113118,5888,2025-11-07 17:08:55.106870154
2025-11-07 17:08:53.113118,0,2025-11-07 17:08:55.114562462
2025-11-07 17:08:53.113118,26,2025-11-07 17:08:55.122254769
2025-11-07 17:08:53.113118,7168,2025-11-07 17:08:55.129947077
2025-11-07 17:08:53.113118,0,2025-11-07 17:08:55.137639385
2025-11-07 17:08:53.113118,30,2025-11-07 17:08:55.145331692
2025-11-07 17:08:53.113118,7680,2025-11-07 17:08:55.153024000
2025-11-07 17:08:53.113118,0,2025-11-07 17:08:55.160716308
2025-11-07 17:08:53.113118,26,2025-11-07 17:08:55.168408615
2025-11-07 17:08:53.113118,5888,2025-11-07 17:08:55.176100923
2025-11-07 17:08:53.113118,0,2025-11-07 17:08:55.183793231
2025-11-07 17:08:53.113118,26,2025-11-07 17:08:55.191485538
2025-11-07 17:08:53.113118,7168,2025-11-07 17:08:55.199177846
2025-11-07 17:08:53.113118,0,2025-11-07 17:08:55.206870154
2025-11-07 17:08:53.113118,28,2025-11-07 17:08:55.214562462
2025-11-07 17:08:53.113118,7168,2025-11-07 17:08:55.222254769
2025-11-07 17:08:53.113118,0,2025-11-07 17:08:55.229947077
2025-11-07 17:08:53.113118,30,2025-11-07 17:08:55.237639385
2025-11-07 17:08:53.113118,8960,2025-11-07 17:08:55.245331692
2025-11-07 17:08:53.113118,0,2025-11-07 17:08:55.253024000
2025-11-07 17:08:53.113118,38,2025-11-07 17:08:55.260716308
2025-11-07 17:08:53.113118,10240,2025-11-07 17:08:55.268408615
2025-11-07 17:08:53.113118,0,2025-11-07 17:08:55.276100923
2025-11-07 17:08:53.113118,42,2025-11-07 17:08:55.283793231
2025-11-07 17:08:53.113118,6656,2025-11-07 17:08:55.291485538
2025-11-07 17:08:53.113118,0,2025-11-07 17:08:55.299177846
2025-11-07 17:08:53.113118,0,2025-11-07 17:08:55.306870154
2025-11-07 17:08:53.113118,-4096,2025-11-07 17:08:55.314562462
2025-11-07 17:08:53.113118,-1,2025-11-07 17:08:55.322254769
2025-11-07 17:08:53.113118,0,2025-11-07 17:08:55.329947077
2025-11-07 17:08:53.113118,4864,2025-11-07 17:08:55.337639385
2025-11-07 17:08:53.113118,0,2025-11-07 17:08:55.345331692
2025-11-07 17:08:53.113118,19,2025-11-07 17:08:55.353024000
2025-11-07 17:08:53.113118,3584,2025-11-07 17:08:55.360716308
2025-11-07 17:08:53.113118,0,2025-11-07 17:08:55.368408615
2025-11-07 17:08:53.113118,16,2025-11-07 17:08:55.376100923
2025-11-07 17:08:53.708628,19,2025-11-07 17:08:55.383793231
2025-11-07 17:08:53.708628,6656,2025-11-07 17:08:55.391485538
2025-11-07 17:08:53.708628,0,2025-11-07 17:08:55.399177846
2025-11-07 17:08:53.708628,59,2025-11-07 17:08:55.406870154
2025-11-07 17:08:53.708628,-31488,2025-11-07 17:08:55.414562462
2025-11-07 17:08:53.708628,0,2025-11-07 17:08:55.422254769
2025-11-07 17:08:53.708628,137,2025-11-07 17:08:55.429947077
2025-11-07 17:08:53.708628,4864,2025-11-07 17:08:55.437639385
2025-11-07 17:08:53.708628,-1,2025-11-07 17:08:55.445331692
2025-11-07 17:08:53.708628,-983,2025-11-07 17:08:55.453024000
2025-11-07 17:08:53.708628,9983,2025-11-07 17:08:55.460716308
2025-11-07 17:08:53.708628,-5,2025-11-07 17:08:55.468408615
2025-11-07 17:08:53.708628,-589,2025-11-07 17:08:55.476100923
2025-11-07 17:08:53.708628,13567,2025-11-07 17:08:55.483793231
2025-11-07 17:08:53.708628,0,2025-11-07 17:08:55.491485538
2025-11-07 17:08:53.708628,111,2025-11-07 17:08:55.499177846
2025-11-07 17:08:53.708628,19456,2025-11-07 17:08:55.506870154
2025-11-07 17:08:53.708628,0,2025-11-07 17:08:55.514562462
2025-11-07 17:08:53.708628,168,2025-11-07 17:08:55.522254769
2025-11-07 17:08:53.708628,-18944,2025-11-07 17:08:55.529947077
2025-11-07 17:08:53.708628,0,2025-11-07 17:08:55.537639385
2025-11-07 17:08:53.708628,144,2025-11-07 17:08:55.545331692
2025-11-07 17:08:53.708628,-24832,2025-11-07 17:08:55.553024000
2025-11-07 17:08:53.708628,0,2025-11-07 17:08:55.560716308
2025-11-07 17:08:53.708628,163,2025-11-07 17:08:55.568408615
2025-11-07 17:08:53.708628,-29696,2025-11-07 17:08:55.576100923
2025-11-07 17:08:53.708628,0,2025-11-07 17:08:55.583793231
2025-11-07 17:08:53.708628,133,2025-11-07 17:08:55.591485538
2025-11-07 17:08:53.708628,-30976,2025-11-07 17:08:55.599177846
2025-11-07 17:08:53.708628,0,2025-11-07 17:08:55.606870154
2025-11-07 17:08:53.708628,128,2025-11-07 17:08:55.614562462
2025-11-07 17:08:53.708628,31488,2025-11-07 17:08:55.622254769
2025-11-07 17:08:53.708628,0,2025-11-07 17:08:55.629947077
2025-11-07 17:08:53.708628,123,2025-11-07 17:08:55.637639385
2025-11-07 17:08:53.708628,30976,2025-11-07 17:08:55.645331692
2025-11-07 17:08:53.708628,0,2025-11-07 17:08:55.653024000
2025-11-07 17:08:53.708628,118,2025-11-07 17:08:55.660716308
2025-11-07 17:08:53.708628,30208,2025-11-07 17:08:55.668408615
2025-11-07 17:08:53.708628,0,2025-11-07 17:08:55.676100923
2025-11-07 17:08:53.708628,125,2025-11-07 17:08:55.683793231
2025-11-07 17:08:53.708628,-30464,2025-11-07 17:08:55.691485538
2025-11-07 17:08:53.708628,0,2025-11-07 17:08:55.699177846
2025-11-07 17:08:53.708628,144,2025-11-07 17:08:55.706870154
2025-11-07 17:08:53.708628,-26624,2025-11-07 17:08:55.714562462
2025-11-07 17:08:53.708628,0,2025-11-07 17:08:55.722254769
2025-11-07 17:08:53.708628,161,2025-11-07 17:08:55.729947077
2025-11-07 17:08:53.708628,-22528,2025-11-07 17:08:55.737639385
2025-11-07 17:08:53.708628,0,2025-11-07 17:08:55.745331692
2025-11-07 17:08:53.708628,166,2025-11-07 17:08:55.753024000
2025-11-07 17:08:53.708628,-23808,2025-11-07 17:08:55.760716308
2025-11-07 17:08:53.708628,0,2025-11-07 17:08:55.768408615
2025-11-07 17:08:53.708628,152,2025-11-07 17:08:55.776100923
2025-11-07 17:08:53.708628,30976,2025-11-07 17:08:55.783793231
2025-11-07 17:08:53.708628,0,2025-11-07 17:08:55.791485538
2025-11-07 17:08:53.708628,83,2025-11-07 17:08:55.799177846
2025-11-07 17:08:53.708628,11520,2025-11-07 17:08:55.806870154
2025-11-07 17:08:53.708628,0,2025-11-07 17:08:55.814562462
2025-11-07 17:08:53.708628,19,2025-11-07 17:08:55.822254769
2025-11-07 17:08:53.708628,512,2025-11-07 17:08:55.829947077
2025-11-07 17:08:53.708628,0,2025-11-07 17:08:55.837639385
2025-11-07 17:08:53.708628,-7,2025-11-07 17:08:55.845331692
2025-11-07 17:08:53.708628,-2561,2025-11-07 17:08:55.853024000
2025-11-07 17:08:53.708628,-1,2025-11-07 17:08:55.860716308
2025-11-07 17:08:53.708628,-9,2025-11-07 17:08:55.868408615
2025-11-07 17:08:53.708628,-2561,2025-11-07 17:08:55.876100923
2025-11-07 17:08:53.708628,-1,2025-11-07 17:08:55.883793230
2025-11-07 17:08:53.708628,-16,2025-11-07 17:08:55.891485538
2025-11-07 17:08:53.708628,-3841,2025-11-07 17:08:55.899177846
2025-11-07 17:08:53.708628,-1,2025-11-07 17:08:55.906870154
2025-11-07 17:08:53.708628,-16,2025-11-07 17:08:55.914562462
2025-11-07 17:08:53.708628,-4609,2025-11-07 17:08:55.922254769
2025-11-07 17:08:53.708628,-1,2025-11-07 17:08:55.929947077
2025-11-07 17:08:53.708628,-23,2025-11-07 17:08:55.937639385
2025-11-07 17:08:53.708628,-6401,2025-11-07 17:08:55.945331692
2025-11-07 17:08:53.708628,-1,2025-11-07 17:08:55.953024000
2025-11-07 17:08:53.708628,-26,2025-11-07 17:08:55.960716308
2025-11-07 17:08:53.708628,-6913,2025-11-07 17:08:55.968408615
2025-11-07 17:08:53.708628,-1,2025-11-07 17:08:55.976100923
2025-11-07 17:08:53.708628,-30,2025-11-07 17:08:55.983793231
2025-11-07 17:08:53.708628,-8193,2025-11-07 17:08:55.991485538
2025-11-07 17:08:53.708628,-1,2025-11-07 17:08:55.999177846
2025-11-07 17:08:53.708628,-33,2025-11-07 17:08:56.006870154
2025-11-07 17:08:53.708628,-8705,2025-11-07 17:08:56.014562462
2025-11-07 17:08:53.708628,-1,2025-11-07 17:08:56.022254769
2025-11-07 17:08:53.708628,-33,2025-11-07 17:08:56.029947077
2025-11-07 17:08:53.708628,-7425,2025-11-07 17:08:56.037639385
2025-11-07 17:08:53.708628,-1,2025-11-07 17:08:56.045331692
2025-11-07 17:08:53.708628,-30,2025-11-07 17:08:56.053024000
2025-11-07 17:08:53.708628,-6401,2025-11-07 17:08:56.060716308
2025-11-07 17:08:53.708628,-1,2025-11-07 17:08:56.068408615
2025-11-07 17:08:53.708628,-19,2025-11-07 17:08:56.076100923
2025-11-07 17:08:53.708628,-3329,2025-11-07 17:08:56.083793231
2025-11-07 17:08:53.708628,-1,2025-11-07 17:08:56.091485538
2025-11-07 17:08:53.708628,-9,2025-11-07 17:08:56.099177846
2025-11-07 17:08:53.708628,-3329,2025-11-07 17:08:56.106870154
2025-11-07 17:08:53.708628,-1,2025-11-07 17:08:56.114562462
2025-11-07 17:08:53.708628,-38,2025-11-07 17:08:56.122254769
2025-11-07 17:08:53.708628,-14849,2025-11-07 17:08:56.129947077
2025-11-07 17:08:53.708628,-1,2025-11-07 17:08:56.137639385
2025-11-07 17:08:53.708628,-59,2025-11-07 17:08:56.145331692
2025-11-07 17:08:53.708628,-11265,2025-11-07 17:08:56.153024000
2025-11-07 17:08:53.708628,-1,2025-11-07 17:08:56.160716308
2025-11-07 17:08:53.708628,-35,2025-11-07 17:08:56.168408615
2025-11-07 17:08:53.708628,-8193,2025-11-07 17:08:56.176100923
2025-11-07 17:08:53.708628,-1,2025-11-07 17:08:56.183793231
2025-11-07 17:08:53.708628,-33,2025-11-07 17:08:56.191485538
2025-11-07 17:08:53.708628,-7425,2025-11-07 17:08:56.199177846
2025-11-07 17:08:53.708628,-1,2025-11-07 17:08:56.206870154
2025-11-07 17:08:53.708628,-28,2025-11-07 17:08:56.214562462
2025-11-07 17:08:54.313101,-16,2025-11-07 17:08:56.222254769
2025-11-07 17:08:54.313101,7423,2025-11-07 17:08:56.229947077
2025-11-07 17:08:54.313101,0,2025-11-07 17:08:56.237639385
2025-11-07 17:08:54.313101,85,2025-11-07 17:08:56.245331692
2025-11-07 17:08:54.313101,-8960,2025-11-07 17:08:56.253024000
2025-11-07 17:08:54.313101,-1,2025-11-07 17:08:56.260716308
2025-11-07 17:08:54.313101,-620,2025-11-07 17:08:56.268408615
2025-11-07 17:08:54.313101,-15617,2025-11-07 17:08:56.276100923
2025-11-07 17:08:54.313101,-6,2025-11-07 17:08:56.283793231
2025-11-07 17:08:54.313101,-1268,2025-11-07 17:08:56.291485538
2025-11-07 17:08:54.313101,9727,2025-11-07 17:08:56.299177846
2025-11-07 17:08:54.313101,-2,2025-11-07 17:08:56.306870154
2025-11-07 17:08:54.313101,33,2025-11-07 17:08:56.314562462
2025-11-07 17:08:54.313101,18176,2025-11-07 17:08:56.322254769
2025-11-07 17:08:54.313101,0,2025-11-07 17:08:56.329947077
2025-11-07 17:08:54.313101,83,2025-11-07 17:08:56.337639385
2025-11-07 17:08:54.313101,-30464,2025-11-07 17:08:56.345331692
2025-11-07 17:08:54.313101,0,2025-11-07 17:08:56.353024000
2025-11-07 17:08:54.313101,135,2025-11-07 17:08:56.360716308
2025-11-07 17:08:54.313101,30976,2025-11-07 17:08:56.368408615
2025-11-07 17:08:54.313101,0,2025-11-07 17:08:56.376100923
2025-11-07 17:08:54.313101,125,2025-11-07 17:08:56.383793231
2025-11-07 17:08:54.313101,30976,2025-11-07 17:08:56.391485538
2025-11-07 17:08:54.313101,0,2025-11-07 17:08:56.399177846
2025-11-07 17:08:54.313101,109,2025-11-07 17:08:56.406870154
2025-11-07 17:08:54.313101,27136,2025-11-07 17:08:56.414562462
2025-11-07 17:08:54.313101,0,2025-11-07 17:08:56.422254769
2025-11-07 17:08:54.313101,104,2025-11-07 17:08:56.429947077
2025-11-07 17:08:54.313101,26112,2025-11-07 17:08:56.437639385
2025-11-07 17:08:54.313101,0,2025-11-07 17:08:56.445331692
2025-11-07 17:08:54.313101,104,2025-11-07 17:08:56.453024000
2025-11-07 17:08:54.313101,25344,2025-11-07 17:08:56.460716308
2025-11-07 17:08:54.313101,0,2025-11-07 17:08:56.468408615
2025-11-07 17:08:54.313101,95,2025-11-07 17:08:56.476100923
2025-11-07 17:08:54.313101,24832,2025-11-07 17:08:56.483793231
2025-11-07 17:08:54.313101,0,2025-11-07 17:08:56.491485538
2025-11-07 17:08:54.313101,99,2025-11-07 17:08:56.499177846
2025-11-07 17:08:54.313101,26112,2025-11-07 17:08:56.506870154
2025-11-07 17:08:54.313101,0,2025-11-07 17:08:56.514562462
2025-11-07 17:08:54.313101,106,2025-11-07 17:08:56.522254769
2025-11-07 17:08:54.313101,29696,2025-11-07 17:08:56.529947077
2025-11-07 17:08:54.313101,0,2025-11-07 17:08:56.537639385
2025-11-07 17:08:54.313101,121,2025-11-07 17:08:56.545331692
2025-11-07 17:08:54.313101,-32256,2025-11-07 17:08:56.553024000
2025-11-07 17:08:54.313101,0,2025-11-07 17:08:56.560716308
2025-11-07 17:08:54.313101,135,2025-11-07 17:08:56.568408615
2025-11-07 17:08:54.313101,-30464,2025-11-07 17:08:56.576100923
2025-11-07 17:08:54.313101,0,2025-11-07 17:08:56.583793231
2025-11-07 17:08:54.313101,133,2025-11-07 17:08:56.591485538
2025-11-07 17:08:54.313101,29696,2025-11-07 17:08:56.599177846
2025-11-07 17:08:54.313101,0,2025-11-07 17:08:56.606870154
2025-11-07 17:08:54.313101,83,2025-11-07 17:08:56.614562462
2025-11-07 17:08:54.313101,12032,2025-11-07 17:08:56.622254769
2025-11-07 17:08:54.313101,0,2025-11-07 17:08:56.629947077
2025-11-07 17:08:54.313101,16,2025-11-07 17:08:56.637639385
2025-11-07 17:08:54.313101,-2304,2025-11-07 17:08:56.645331692
2025-11-07 17:08:54.313101,-1,2025-11-07 17:08:56.653024000
2025-11-07 17:08:54.313101,-21,2025-11-07 17:08:56.660716308
2025-11-07 17:08:54.313101,-5633,2025-11-07 17:08:56.668408615
2025-11-07 17:08:54.313101,-1,2025-11-07 17:08:56.676100923
2025-11-07 17:08:54.313101,-26,2025-11-07 17:08:56.683793231
2025-11-07 17:08:54.313101,-8193,2025-11-07 17:08:56.691485538
2025-11-07 17:08:54.313101,-1,2025-11-07 17:08:56.699177846
2025-11-07 17:08:54.313101,-33,2025-11-07 17:08:56.706870154
2025-11-07 17:08:54.313101,-7425,2025-11-07 17:08:56.714562462
2025-11-07 17:08:54.313101,-1,2025-11-07 17:08:56.722254769
2025-11-07 17:08:54.313101,-33,2025-11-07 17:08:56.729947077
2025-11-07 17:08:54.313101,-8705,2025-11-07 17:08:56.737639385
2025-11-07 17:08:54.313101,-1,2025-11-07 17:08:56.745331692
2025-11-07 17:08:54.313101,-38,2025-11-07 17:08:56.753024000
2025-11-07 17:08:54.313101,-8705,2025-11-07 17:08:56.760716308
2025-11-07 17:08:54.313101,-1,2025-11-07 17:08:56.768408615
2025-11-07 17:08:54.313101,-35,2025-11-07 17:08:56.776100923
2025-11-07 17:08:54.313101,-9473,2025-11-07 17:08:56.783793231
2025-11-07 17:08:54.313101,-1,2025-11-07 17:08:56.791485538
2025-11-07 17:08:54.313101,-40,2025-11-07 17:08:56.799177846
2025-11-07 17:08:54.313101,-9473,2025-11-07 17:08:56.806870154
2025-11-07 17:08:54.313101,-1,2025-11-07 17:08:56.814562462
2025-11-07 17:08:54.313101,-38,2025-11-07 17:08:56.822254769
2025-11-07 17:08:54.313101,-9473,2025-11-07 17:08:56.829947077
2025-11-07 17:08:54.313101,-1,2025-11-07 17:08:56.837639385
2025-11-07 17:08:54.313101,-38,2025-11-07 17:08:56.845331692
2025-11-07 17:08:54.313101,-8705,2025-11-07 17:08:56.853024000
2025-11-07 17:08:54.313101,-1,2025-11-07 17:08:56.860716308
2025-11-07 17:08:54.313101,-35,2025-11-07 17:08:56.868408615
2025-11-07 17:08:54.313101,-8705,2025-11-07 17:08:56.876100923
2025-11-07 17:08:54.313101,-1,2025-11-07 17:08:56.883793230
2025-11-07 17:08:54.313101,-33,2025-11-07 17:08:56.891485538
2025-11-07 17:08:54.313101,-5633,2025-11-07 17:08:56.899177846
2025-11-07 17:08:54.313101,-1,2025-11-07 17:08:56.906870154
2025-11-07 17:08:54.313101,-16,2025-11-07 17:08:56.914562462
2025-11-07 17:08:54.313101,-3329,2025-11-07 17:08:56.922254769
2025-11-07 17:08:54.313101,-1,2025-11-07 17:08:56.929947077
2025-11-07 17:08:54.313101,-21,2025-11-07 17:08:56.937639385
2025-11-07 17:08:54.313101,-12289,2025-11-07 17:08:56.945331692
2025-11-07 17:08:54.313101,-1,2025-11-07 17:08:56.953024000
2025-11-07 17:08:54.313101,-68,2025-11-07 17:08:56.960716308
2025-11-07 17:08:54.313101,-14849,2025-11-07 17:08:56.968408615
2025-11-07 17:08:54.313101,-1,2025-11-07 17:08:56.976100923
2025-11-07 17:08:54.313101,-42,2025-11-07 17:08:56.983793231
2025-11-07 17:08:54.313101,-9985,2025-11-07 17:08:56.991485538
2025-11-07 17:08:54.313101,-1,2025-11-07 17:08:56.999177846
2025-11-07 17:08:54.313101,-33,2025-11-07 17:08:57.006870154
2025-11-07 17:08:54.313101,-6913,2025-11-07 17:08:57.014562462
2025-11-07 17:08:54.313101,-1,2025-11-07 17:08:57.022254769
2025-11-07 17:08:54.313101,-28,2025-11-07 17:08:57.029947077
2025-11-07 17:08:54.313101,-5633,2025-11-07 17:08:57.037639385
2025-11-07 17:08:54.313101,-1,2025-11-07 17:08:57.045331692
2025-11-07 17:08:54.313101,-2,2025-11-07 17:08:57.053024000
2025-11-07 17:08:54.823307,49,2025-11-07 17:08:57.060716308
2025-11-07 17:08:54.823307,22272,2025-11-07 17:08:57.068408615
2025-11-07 17:08:54.823307,0,2025-11-07 17:08:57.076100923
2025-11-07 17:08:54.823307,-130,2025-11-07 17:08:57.083793231
2025-11-07 17:08:54.823307,-13569,2025-11-07 17:08:57.091485538
2025-11-07 17:08:54.823307,-4,2025-11-07 17:08:57.099177846
2025-11-07 17:08:54.823307,-1413,2025-11-07 17:08:57.106870154
2025-11-07 17:08:54.823307,-19201,2025-11-07 17:08:57.114562462
2025-11-07 17:08:54.823307,-5,2025-11-07 17:08:57.122254769
2025-11-07 17:08:54.823307,-316,2025-11-07 17:08:57.129947077
2025-11-07 17:08:54.823307,14079,2025-11-07 17:08:57.137639385
2025-11-07 17:08:54.823307,0,2025-11-07 17:08:57.145331692
2025-11-07 17:08:54.823307,66,2025-11-07 17:08:57.153024000
2025-11-07 17:08:54.823307,23552,2025-11-07 17:08:57.160716308
2025-11-07 17:08:54.823307,0,2025-11-07 17:08:57.168408615
2025-11-07 17:08:54.823307,140,2025-11-07 17:08:57.176100923
2025-11-07 17:08:54.823307,-30464,2025-11-07 17:08:57.183793231
2025-11-07 17:08:54.823307,0,2025-11-07 17:08:57.191485538
2025-11-07 17:08:54.823307,130,2025-11-07 17:08:57.199177846
2025-11-07 17:08:54.823307,-28672,2025-11-07 17:08:57.206870154
2025-11-07 17:08:54.823307,0,2025-11-07 17:08:57.214562462
2025-11-07 17:08:54.823307,152,2025-11-07 17:08:57.222254769
2025-11-07 17:08:54.823307,-29184,2025-11-07 17:08:57.229947077
2025-11-07 17:08:54.823307,0,2025-11-07 17:08:57.237639385
2025-11-07 17:08:54.823307,135,2025-11-07 17:08:57.245331692
2025-11-07 17:08:54.823307,-30976,2025-11-07 17:08:57.253024000
2025-11-07 17:08:54.823307,0,2025-11-07 17:08:57.260716308
2025-11-07 17:08:54.823307,133,2025-11-07 17:08:57.268408615
2025-11-07 17:08:54.823307,-32768,2025-11-07 17:08:57.276100923
2025-11-07 17:08:54.823307,0,2025-11-07 17:08:57.283793231
2025-11-07 17:08:54.823307,128,2025-11-07 17:08:57.291485538
2025-11-07 17:08:54.823307,-32256,2025-11-07 17:08:57.299177846
2025-11-07 17:08:54.823307,0,2025-11-07 17:08:57.306870154
2025-11-07 17:08:54.823307,130,2025-11-07 17:08:57.314562462
2025-11-07 17:08:54.823307,-32768,2025-11-07 17:08:57.322254769
2025-11-07 17:08:54.823307,0,2025-11-07 17:08:57.329947077
2025-11-07 17:08:54.823307,133,2025-11-07 17:08:57.337639385
2025-11-07 17:08:54.823307,-29184,2025-11-07 17:08:57.345331692
2025-11-07 17:08:54.823307,0,2025-11-07 17:08:57.353024000
2025-11-07 17:08:54.823307,147,2025-11-07 17:08:57.360716308
2025-11-07 17:08:54.823307,-26624,2025-11-07 17:08:57.368408615
2025-11-07 17:08:54.823307,0,2025-11-07 17:08:57.376100923
2025-11-07 17:08:54.823307,159,2025-11-07 17:08:57.383793231
2025-11-07 17:08:54.823307,-23808,2025-11-07 17:08:57.391485538
2025-11-07 17:08:54.823307,0,2025-11-07 17:08:57.399177846
2025-11-07 17:08:54.823307,163,2025-11-07 17:08:57.406870154
2025-11-07 17:08:54.823307,-26112,2025-11-07 17:08:57.414562462
2025-11-07 17:08:54.823307,0,2025-11-07 17:08:57.422254769
2025-11-07 17:08:54.823307,135,2025-11-07 17:08:57.429947077
2025-11-07 17:08:54.823307,26624,2025-11-07 17:08:57.437639385
2025-11-07 17:08:54.823307,0,2025-11-07 17:08:57.445331692
2025-11-07 17:08:54.823307,71,2025-11-07 17:08:57.453024000
2025-11-07 17:08:54.823307,10752,2025-11-07 17:08:57.460716308
2025-11-07 17:08:54.823307,0,2025-11-07 17:08:57.468408615
2025-11-07 17:08:54.823307,23,2025-11-07 17:08:57.476100923
2025-11-07 17:08:54.823307,3584,2025-11-07 17:08:57.483793231
2025-11-07 17:08:54.823307,0,2025-11-07 17:08:57.491485538
2025-11-07 17:08:54.823307,9,2025-11-07 17:08:57.499177846
2025-11-07 17:08:54.823307,1792,2025-11-07 17:08:57.506870154
2025-11-07 17:08:54.823307,0,2025-11-07 17:08:57.514562462
2025-11-07 17:08:54.823307,4,2025-11-07 17:08:57.522254769
2025-11-07 17:08:54.823307,512,2025-11-07 17:08:57.529947077
2025-11-07 17:08:54.823307,0,2025-11-07 17:08:57.537639385
2025-11-07 17:08:54.823307,0,2025-11-07 17:08:57.545331692
2025-11-07 17:08:54.823307,0,2025-11-07 17:08:57.553024000
2025-11-07 17:08:54.823307,0,2025-11-07 17:08:57.560716308
2025-11-07 17:08:54.823307,-2,2025-11-07 17:08:57.568408615
2025-11-07 17:08:54.823307,-257,2025-11-07 17:08:57.576100923
2025-11-07 17:08:54.823307,-1,2025-11-07 17:08:57.583793231
2025-11-07 17:08:54.823307,-2,2025-11-07 17:08:57.591485538
2025-11-07 17:08:54.823307,-769,2025-11-07 17:08:57.599177846
2025-11-07 17:08:54.823307,-1,2025-11-07 17:08:57.606870154
2025-11-07 17:08:54.823307,-7,2025-11-07 17:08:57.614562462
2025-11-07 17:08:54.823307,-769,2025-11-07 17:08:57.622254769
2025-11-07 17:08:54.823307,-1,2025-11-07 17:08:57.629947077
2025-11-07 17:08:54.823307,-7,2025-11-07 17:08:57.637639385
2025-11-07 17:08:54.823307,-1537,2025-11-07 17:08:57.645331692
2025-11-07 17:08:54.823307,-1,2025-11-07 17:08:57.653024000
2025-11-07 17:08:54.823307,-4,2025-11-07 17:08:57.660716308
2025-11-07 17:08:54.823307,-257,2025-11-07 17:08:57.668408615
2025-11-07 17:08:54.823307,-1,2025-11-07 17:08:57.676100923
2025-11-07 17:08:54.823307,-2,2025-11-07 17:08:57.683793231
2025-11-07 17:08:54.823307,255,2025-11-07 17:08:57.691485538
2025-11-07 17:08:54.823307,0,2025-11-07 17:08:57.699177846
2025-11-07 17:08:54.823307,2,2025-11-07 17:08:57.706870154
2025-11-07 17:08:54.823307,0,2025-11-07 17:08:57.714562462
2025-11-07 17:08:54.823307,0,2025-11-07 17:08:57.722254769
2025-11-07 17:08:54.823307,0,2025-11-07 17:08:57.729947077
2025-11-07 17:08:54.823307,1024,2025-11-07 17:08:57.737639385
2025-11-07 17:08:54.823307,0,2025-11-07 17:08:57.745331692
2025-11-07 17:08:54.823307,11,2025-11-07 17:08:57.753024000
2025-11-07 17:08:54.823307,4096,2025-11-07 17:08:57.760716308
2025-11-07 17:08:54.823307,0,2025-11-07 17:08:57.768408615
2025-11-07 17:08:54.823307,7,2025-11-07 17:08:57.776100923
2025-11-07 17:08:54.823307,-4096,2025-11-07 17:08:57.783793231
2025-11-07 17:08:54.823307,-1,2025-11-07 17:08:57.791485538
2025-11-07 17:08:54.823307,-38,2025-11-07 17:08:57.799177846
2025-11-07 17:08:54.823307,-8193,2025-11-07 17:08:57.806870154
2025-11-07 17:08:54.823307,-1,2025-11-07 17:08:57.814562462
2025-11-07 17:08:54.823307,-14,2025-11-07 17:08:57.822254769
2025-11-07 17:08:54.823307,-1537,2025-11-07 17:08:57.829947077
2025-11-07 17:08:54.823307,-1,2025-11-07 17:08:57.837639385
2025-11-07 17:08:54.823307,-4,2025-11-07 17:08:57.845331692
2025-11-07 17:08:54.823307,-769,2025-11-07 17:08:57.853024000
2025-11-07 17:08:54.823307,-1,2025-11-07 17:08:57.860716308
2025-11-07 17:08:54.823307,-2,2025-11-07 17:08:57.868408615
2025-11-07 17:08:54.823307,255,2025-11-07 17:08:57.876100923
2025-11-07 17:08:54.823307,0,2025-11-07 17:08:57.883793230
2025-11-07 17:08:54.823307,16,2025-11-07 17:08:57.891485538
2025-11-07 17:08:55.392551,66,2025-11-07 17:08:57.899177846
2025-11-07 17:08:55.392551,29696,2025-11-07 17:08:57.906870154
2025-11-07 17:08:55.392551,0,2025-11-07 17:08:57.914562462
2025-11-07 17:08:55.392551,-21,2025-11-07 17:08:57.922254769
2025-11-07 17:08:55.392551,-24833,2025-11-07 17:08:57.929947077
2025-11-07 17:08:55.392551,-3,2025-11-07 17:08:57.937639385
2025-11-07 17:08:55.392551,-1264,2025-11-07 17:08:57.945331692
2025-11-07 17:08:55.392551,-19713,2025-11-07 17:08:57.953024000
2025-11-07 17:08:55.392551,-5,2025-11-07 17:08:57.960716308
2025-11-07 17:08:55.392551,-330,2025-11-07 17:08:57.968408615
2025-11-07 17:08:55.392551,23807,2025-11-07 17:08:57.976100923
2025-11-07 17:08:55.392551,0,2025-11-07 17:08:57.983793231
2025-11-07 17:08:55.392551,106,2025-11-07 17:08:57.991485538
2025-11-07 17:08:55.392551,-30464,2025-11-07 17:08:57.999177846
2025-11-07 17:08:55.392551,0,2025-11-07 17:08:58.006870154
2025-11-07 17:08:55.392551,194,2025-11-07 17:08:58.014562462
2025-11-07 17:08:55.392551,-18176,2025-11-07 17:08:58.022254769
2025-11-07 17:08:55.392551,0,2025-11-07 17:08:58.029947077
2025-11-07 17:08:55.392551,175,2025-11-07 17:08:58.037639385
2025-11-07 17:08:55.392551,-18176,2025-11-07 17:08:58.045331692
2025-11-07 17:08:55.392551,0,2025-11-07 17:08:58.053024000
2025-11-07 17:08:55.392551,175,2025-11-07 17:08:58.060716308
2025-11-07 17:08:55.392551,-23808,2025-11-07 17:08:58.068408615
2025-11-07 17:08:55.392551,0,2025-11-07 17:08:58.076100923
2025-11-07 17:08:55.392551,163,2025-11-07 17:08:58.083793231
2025-11-07 17:08:55.392551,-24320,2025-11-07 17:08:58.091485538
2025-11-07 17:08:55.392551,0,2025-11-07 17:08:58.099177846
2025-11-07 17:08:55.392551,159,2025-11-07 17:08:58.106870154
2025-11-07 17:08:55.392551,-25600,2025-11-07 17:08:58.114562462
2025-11-07 17:08:55.392551,0,2025-11-07 17:08:58.122254769
2025-11-07 17:08:55.392551,152,2025-11-07 17:08:58.129947077
2025-11-07 17:08:55.392551,-27904,2025-11-07 17:08:58.137639385
2025-11-07 17:08:55.392551,0,2025-11-07 17:08:58.145331692
2025-11-07 17:08:55.392551,147,2025-11-07 17:08:58.153024000
2025-11-07 17:08:55.392551,-27392,2025-11-07 17:08:58.160716308
2025-11-07 17:08:55.392551,0,2025-11-07 17:08:58.168408615
2025-11-07 17:08:55.392551,154,2025-11-07 17:08:58.176100923
2025-11-07 17:08:55.392551,-24832,2025-11-07 17:08:58.183793231
2025-11-07 17:08:55.392551,0,2025-11-07 17:08:58.191485538
2025-11-07 17:08:55.392551,163,2025-11-07 17:08:58.199177846
2025-11-07 17:08:55.392551,-21760,2025-11-07 17:08:58.206870154
2025-11-07 17:08:55.392551,0,2025-11-07 17:08:58.214562462
2025-11-07 17:08:55.392551,178,2025-11-07 17:08:58.222254769
2025-11-07 17:08:55.392551,-18176,2025-11-07 17:08:58.229947077
2025-11-07 17:08:55.392551,0,2025-11-07 17:08:58.237639385
2025-11-07 17:08:55.392551,187,2025-11-07 17:08:58.245331692
2025-11-07 17:08:55.392551,-18944,2025-11-07 17:08:58.253024000
2025-11-07 17:08:55.392551,0,2025-11-07 17:08:58.260716308
2025-11-07 17:08:55.392551,166,2025-11-07 17:08:58.268408615
2025-11-07 17:08:55.392551,-29696,2025-11-07 17:08:58.276100923
2025-11-07 17:08:55.392551,0,2025-11-07 17:08:58.283793231
2025-11-07 17:08:55.392551,106,2025-11-07 17:08:58.291485538
2025-11-07 17:08:55.392551,19968,2025-11-07 17:08:58.299177846
2025-11-07 17:08:55.392551,0,2025-11-07 17:08:58.306870154
2025-11-07 17:08:55.392551,59,2025-11-07 17:08:58.314562462
2025-11-07 17:08:55.392551,12032,2025-11-07 17:08:58.322254769
2025-11-07 17:08:55.392551,0,2025-11-07 17:08:58.329947077
2025-11-07 17:08:55.392551,45,2025-11-07 17:08:58.337639385
2025-11-07 17:08:55.392551,9728,2025-11-07 17:08:58.345331692
2025-11-07 17:08:55.392551,0,2025-11-07 17:08:58.353024000
2025-11-07 17:08:55.392551,30,2025-11-07 17:08:58.360716308
2025-11-07 17:08:55.392551,8448,2025-11-07 17:08:58.368408615
2025-11-07 17:08:55.392551,0,2025-11-07 17:08:58.376100923
2025-11-07 17:08:55.392551,38,2025-11-07 17:08:58.383793231
2025-11-07 17:08:55.392551,7680,2025-11-07 17:08:58.391485538
2025-11-07 17:08:55.392551,0,2025-11-07 17:08:58.399177846
2025-11-07 17:08:55.392551,30,2025-11-07 17:08:58.406870154
2025-11-07 17:08:55.392551,8960,2025-11-07 17:08:58.414562462
2025-11-07 17:08:55.392551,0,2025-11-07 17:08:58.422254769
2025-11-07 17:08:55.392551,35,2025-11-07 17:08:58.429947077
2025-11-07 17:08:55.392551,7680,2025-11-07 17:08:58.437639385
2025-11-07 17:08:55.392551,0,2025-11-07 17:08:58.445331692
2025-11-07 17:08:55.392551,28,2025-11-07 17:08:58.453024000
2025-11-07 17:08:55.392551,7680,2025-11-07 17:08:58.460716308
2025-11-07 17:08:55.392551,0,2025-11-07 17:08:58.468408615
2025-11-07 17:08:55.392551,30,2025-11-07 17:08:58.476100923
2025-11-07 17:08:55.392551,7168,2025-11-07 17:08:58.483793231
2025-11-07 17:08:55.392551,0,2025-11-07 17:08:58.491485538
2025-11-07 17:08:55.392551,26,2025-11-07 17:08:58.499177846
2025-11-07 17:08:55.392551,6656,2025-11-07 17:08:58.506870154
2025-11-07 17:08:55.392551,0,2025-11-07 17:08:58.514562462
2025-11-07 17:08:55.392551,26,2025-11-07 17:08:58.522254769
2025-11-07 17:08:55.392551,5888,2025-11-07 17:08:58.529947077
2025-11-07 17:08:55.392551,0,2025-11-07 17:08:58.537639385
2025-11-07 17:08:55.392551,21,2025-11-07 17:08:58.545331692
2025-11-07 17:08:55.392551,5376,2025-11-07 17:08:58.553024000
2025-11-07 17:08:55.392551,0,2025-11-07 17:08:58.560716308
2025-11-07 17:08:55.392551,21,2025-11-07 17:08:58.568408615
2025-11-07 17:08:55.392551,5376,2025-11-07 17:08:58.576100923
2025-11-07 17:08:55.392551,0,2025-11-07 17:08:58.583793231
2025-11-07 17:08:55.392551,26,2025-11-07 17:08:58.591485538
2025-11-07 17:08:55.392551,7168,2025-11-07 17:08:58.599177846
2025-11-07 17:08:55.392551,0,2025-11-07 17:08:58.606870154
2025-11-07 17:08:55.392551,30,2025-11-07 17:08:58.614562462
2025-11-07 17:08:55.392551,8448,2025-11-07 17:08:58.622254769
2025-11-07 17:08:55.392551,0,2025-11-07 17:08:58.629947077
2025-11-07 17:08:55.392551,30,2025-11-07 17:08:58.637639385
2025-11-07 17:08:55.392551,3584,2025-11-07 17:08:58.645331692
2025-11-07 17:08:55.392551,0,2025-11-07 17:08:58.653024000
2025-11-07 17:08:55.392551,-9,2025-11-07 17:08:58.660716308
2025-11-07 17:08:55.392551,-4609,2025-11-07 17:08:58.668408615
2025-11-07 17:08:55.392551,-1,2025-11-07 17:08:58.676100923
2025-11-07 17:08:55.392551,-4,2025-11-07 17:08:58.683793231
2025-11-07 17:08:55.392551,3071,2025-11-07 17:08:58.691485538
2025-11-07 17:08:55.392551,0,2025-11-07 17:08:58.699177846
2025-11-07 17:08:55.392551,16,2025-11-07 17:08:58.706870154
2025-11-07 17:08:55.392551,4864,2025-11-07 17:08:58.714562462
2025-11-07 17:08:55.392551,0,2025-11-07 17:08:58.722254769
2025-11-07 17:08:55.392551,21,2025-11-07 17:08:58.729947077
2025-11-07 17:08:55.929807,26,2025-11-07 17:08:58.737639385
2025-11-07 17:08:55.929807,9728,2025-11-07 17:08:58.745331692
2025-11-07 17:08:55.929807,0,2025-11-07 17:08:58.753024000
2025-11-07 17:08:55.929807,68,2025-11-07 17:08:58.760716308
2025-11-07 17:08:55.929807,-32768,2025-11-07 17:08:58.768408615
2025-11-07 17:08:55.929807,0,2025-11-07 17:08:58.776100923
2025-11-07 17:08:55.929807,92,2025-11-07 17:08:58.783793231
2025-11-07 17:08:55.929807,-18944,2025-11-07 17:08:58.791485538
2025-11-07 17:08:55.929807,-2,2025-11-07 17:08:58.799177846
2025-11-07 17:08:55.929807,-1050,2025-11-07 17:08:58.806870154
2025-11-07 17:08:55.929807,20223,2025-11-07 17:08:58.814562462
2025-11-07 17:08:55.929807,-5,2025-11-07 17:08:58.822254769
2025-11-07 17:08:55.929807,-501,2025-11-07 17:08:58.829947077
2025-11-07 17:08:55.929807,22527,2025-11-07 17:08:58.837639385
2025-11-07 17:08:55.929807,0,2025-11-07 17:08:58.845331692
2025-11-07 17:08:55.929807,118,2025-11-07 17:08:58.853024000
2025-11-07 17:08:55.929807,27904,2025-11-07 17:08:58.860716308
2025-11-07 17:08:55.929807,0,2025-11-07 17:08:58.868408615
2025-11-07 17:08:55.929807,204,2025-11-07 17:08:58.876100923
2025-11-07 17:08:55.929807,-12800,2025-11-07 17:08:58.883793230
2025-11-07 17:08:55.929807,0,2025-11-07 17:08:58.891485538
2025-11-07 17:08:55.929807,175,2025-11-07 17:08:58.899177846
2025-11-07 17:08:55.929807,-16384,2025-11-07 17:08:58.906870154
2025-11-07 17:08:55.929807,0,2025-11-07 17:08:58.914562462
2025-11-07 17:08:55.929807,192,2025-11-07 17:08:58.922254769
2025-11-07 17:08:55.929807,-20736,2025-11-07 17:08:58.929947077
2025-11-07 17:08:55.929807,0,2025-11-07 17:08:58.937639385
2025-11-07 17:08:55.929807,171,2025-11-07 17:08:58.945331692
2025-11-07 17:08:55.929807,-21248,2025-11-07 17:08:58.953024000
2025-11-07 17:08:55.929807,0,2025-11-07 17:08:58.960716308
2025-11-07 17:08:55.929807,168,2025-11-07 17:08:58.968408615
2025-11-07 17:08:55.929807,-23808,2025-11-07 17:08:58.976100923
2025-11-07 17:08:55.929807,0,2025-11-07 17:08:58.983793231
2025-11-07 17:08:55.929807,161,2025-11-07 17:08:58.991485538
2025-11-07 17:08:55.929807,-24320,2025-11-07 17:08:58.999177846
2025-11-07 17:08:55.929807,0,2025-11-07 17:08:59.006870154
2025-11-07 17:08:55.929807,161,2025-11-07 17:08:59.014562462
2025-11-07 17:08:55.929807,-24320,2025-11-07 17:08:59.022254769
2025-11-07 17:08:55.929807,0,2025-11-07 17:08:59.029947077
2025-11-07 17:08:55.929807,163,2025-11-07 17:08:59.037639385
2025-11-07 17:08:55.929807,-22528,2025-11-07 17:08:59.045331692
2025-11-07 17:08:55.929807,0,2025-11-07 17:08:59.053024000
2025-11-07 17:08:55.929807,175,2025-11-07 17:08:59.060716308
2025-11-07 17:08:55.929807,-17664,2025-11-07 17:08:59.068408615
2025-11-07 17:08:55.929807,0,2025-11-07 17:08:59.076100923
2025-11-07 17:08:55.929807,197,2025-11-07 17:08:59.083793231
2025-11-07 17:08:55.929807,-12800,2025-11-07 17:08:59.091485538
2025-11-07 17:08:55.929807,0,2025-11-07 17:08:59.099177846
2025-11-07 17:08:55.929807,213,2025-11-07 17:08:59.106870154
2025-11-07 17:08:55.929807,-12032,2025-11-07 17:08:59.114562462
2025-11-07 17:08:55.929807,0,2025-11-07 17:08:59.122254769
2025-11-07 17:08:55.929807,199,2025-11-07 17:08:59.129947077
2025-11-07 17:08:55.929807,-19456,2025-11-07 17:08:59.137639385
2025-11-07 17:08:55.929807,0,2025-11-07 17:08:59.145331692
2025-11-07 17:08:55.929807,147,2025-11-07 17:08:59.153024000
2025-11-07 17:08:55.929807,27904,2025-11-07 17:08:59.160716308
2025-11-07 17:08:55.929807,0,2025-11-07 17:08:59.168408615
2025-11-07 17:08:55.929807,80,2025-11-07 17:08:59.176100923
2025-11-07 17:08:55.929807,15616,2025-11-07 17:08:59.183793231
2025-11-07 17:08:55.929807,0,2025-11-07 17:08:59.191485538
2025-11-07 17:08:55.929807,52,2025-11-07 17:08:59.199177846
2025-11-07 17:08:55.929807,12032,2025-11-07 17:08:59.206870154
2025-11-07 17:08:55.929807,0,2025-11-07 17:08:59.214562462
2025-11-07 17:08:55.929807,45,2025-11-07 17:08:59.222254769
2025-11-07 17:08:55.929807,11520,2025-11-07 17:08:59.229947077
2025-11-07 17:08:55.929807,0,2025-11-07 17:08:59.237639385
2025-11-07 17:08:55.929807,45,2025-11-07 17:08:59.245331692
2025-11-07 17:08:55.929807,10752,2025-11-07 17:08:59.253024000
2025-11-07 17:08:55.929807,0,2025-11-07 17:08:59.260716308
2025-11-07 17:08:55.929807,40,2025-11-07 17:08:59.268408615
2025-11-07 17:08:55.929807,10752,2025-11-07 17:08:59.276100923
2025-11-07 17:08:55.929807,0,2025-11-07 17:08:59.283793231
2025-11-07 17:08:55.929807,38,2025-11-07 17:08:59.291485538
2025-11-07 17:08:55.929807,7680,2025-11-07 17:08:59.299177846
2025-11-07 17:08:55.929807,0,2025-11-07 17:08:59.306870154
2025-11-07 17:08:55.929807,30,2025-11-07 17:08:59.314562462
2025-11-07 17:08:55.929807,7680,2025-11-07 17:08:59.322254769
2025-11-07 17:08:55.929807,0,2025-11-07 17:08:59.329947077
2025-11-07 17:08:55.929807,28,2025-11-07 17:08:59.337639385
2025-11-07 17:08:55.929807,7168,2025-11-07 17:08:59.345331692
2025-11-07 17:08:55.929807,0,2025-11-07 17:08:59.353024000
2025-11-07 17:08:55.929807,28,2025-11-07 17:08:59.360716308
2025-11-07 17:08:55.929807,7168,2025-11-07 17:08:59.368408615
2025-11-07 17:08:55.929807,0,2025-11-07 17:08:59.376100923
2025-11-07 17:08:55.929807,28,2025-11-07 17:08:59.383793231
2025-11-07 17:08:55.929807,6656,2025-11-07 17:08:59.391485538
2025-11-07 17:08:55.929807,0,2025-11-07 17:08:59.399177846
2025-11-07 17:08:55.929807,26,2025-11-07 17:08:59.406870154
2025-11-07 17:08:55.929807,7168,2025-11-07 17:08:59.414562462
2025-11-07 17:08:55.929807,0,2025-11-07 17:08:59.422254769
2025-11-07 17:08:55.929807,28,2025-11-07 17:08:59.429947077
2025-11-07 17:08:55.929807,7168,2025-11-07 17:08:59.437639385
2025-11-07 17:08:55.929807,0,2025-11-07 17:08:59.445331692
2025-11-07 17:08:55.929807,35,2025-11-07 17:08:59.453024000
2025-11-07 17:08:55.929807,9728,2025-11-07 17:08:59.460716308
2025-11-07 17:08:55.929807,0,2025-11-07 17:08:59.468408615
2025-11-07 17:08:55.929807,35,2025-11-07 17:08:59.476100923
2025-11-07 17:08:55.929807,9728,2025-11-07 17:08:59.483793231
2025-11-07 17:08:55.929807,0,2025-11-07 17:08:59.491485538
2025-11-07 17:08:55.929807,47,2025-11-07 17:08:59.499177846
2025-11-07 17:08:55.929807,13312,2025-11-07 17:08:59.506870154
2025-11-07 17:08:55.929807,0,2025-11-07 17:08:59.514562462
2025-11-07 17:08:55.929807,52,2025-11-07 17:08:59.522254769
2025-11-07 17:08:55.929807,12032,2025-11-07 17:08:59.529947077
2025-11-07 17:08:55.929807,0,2025-11-07 17:08:59.537639385
2025-11-07 17:08:55.929807,26,2025-11-07 17:08:59.545331692
2025-11-07 17:08:55.929807,1024,2025-11-07 17:08:59.553024000
2025-11-07 17:08:55.929807,0,2025-11-07 17:08:59.560716308
2025-11-07 17:08:55.929807,9,2025-11-07 17:08:59.568408615
2025-11-07 17:08:56.498574,26,2025-11-07 17:08:59.576100923
2025-11-07 17:08:56.498574,8960,2025-11-07 17:08:59.583793231
2025-11-07 17:08:56.498574,0,2025-11-07 17:08:59.591485538
2025-11-07 17:08:56.498574,35,2025-11-07 17:08:59.599177846
2025-11-07 17:08:56.498574,10240,2025-11-07 17:08:59.606870154
2025-11-07 17:08:56.498574,0,2025-11-07 17:08:59.614562462
2025-11-07 17:08:56.498574,42,2025-11-07 17:08:59.622254769
2025-11-07 17:08:56.498574,14592,2025-11-07 17:08:59.629947077
2025-11-07 17:08:56.498574,0,2025-11-07 17:08:59.637639385
2025-11-07 17:08:56.498574,87,2025-11-07 17:08:59.645331692
2025-11-07 17:08:56.498574,-32256,2025-11-07 17:08:59.653024000
2025-11-07 17:08:56.498574,0,2025-11-07 17:08:59.660716308
2025-11-07 17:08:56.498574,168,2025-11-07 17:08:59.668408615
2025-11-07 17:08:56.498574,2816,2025-11-07 17:08:59.676100923
2025-11-07 17:08:56.498574,0,2025-11-07 17:08:59.683793231
2025-11-07 17:08:56.498574,-596,2025-11-07 17:08:59.691485538
2025-11-07 17:08:56.498574,14079,2025-11-07 17:08:59.699177846
2025-11-07 17:08:56.498574,-5,2025-11-07 17:08:59.706870154
2025-11-07 17:08:56.498574,-1000,2025-11-07 17:08:59.714562462
2025-11-07 17:08:56.498574,11263,2025-11-07 17:08:59.722254769
2025-11-07 17:08:56.498574,-1,2025-11-07 17:08:59.729947077
2025-11-07 17:08:56.498574,133,2025-11-07 17:08:59.737639385
2025-11-07 17:08:56.498574,24832,2025-11-07 17:08:59.745331692
2025-11-07 17:08:56.498574,0,2025-11-07 17:08:59.753024000
2025-11-07 17:08:56.498574,152,2025-11-07 17:08:59.760716308
2025-11-07 17:08:56.498574,-9728,2025-11-07 17:08:59.768408615
2025-11-07 17:08:56.498574,0,2025-11-07 17:08:59.776100923
2025-11-07 17:08:56.498574,187,2025-11-07 17:08:59.783793231
2025-11-07 17:08:56.498574,-20736,2025-11-07 17:08:59.791485538
2025-11-07 17:08:56.498574,0,2025-11-07 17:08:59.799177846
2025-11-07 17:08:56.498574,192,2025-11-07 17:08:59.806870154
2025-11-07 17:08:56.498574,-18944,2025-11-07 17:08:59.814562462
2025-11-07 17:08:56.498574,0,2025-11-07 17:08:59.822254769
2025-11-07 17:08:56.498574,171,2025-11-07 17:08:59.829947077
2025-11-07 17:08:56.498574,-22528,2025-11-07 17:08:59.837639385
2025-11-07 17:08:56.498574,0,2025-11-07 17:08:59.845331692
2025-11-07 17:08:56.498574,166,2025-11-07 17:08:59.853024000
2025-11-07 17:08:56.498574,-23808,2025-11-07 17:08:59.860716308
2025-11-07 17:08:56.498574,0,2025-11-07 17:08:59.868408615
2025-11-07 17:08:56.498574,161,2025-11-07 17:08:59.876100923
2025-11-07 17:08:56.498574,-24320,2025-11-07 17:08:59.883793230
2025-11-07 17:08:56.498574,0,2025-11-07 17:08:59.891485538
2025-11-07 17:08:56.498574,159,2025-11-07 17:08:59.899177846
2025-11-07 17:08:56.498574,-24320,2025-11-07 17:08:59.906870154
2025-11-07 17:08:56.498574,0,2025-11-07 17:08:59.914562462
2025-11-07 17:08:56.498574,163,2025-11-07 17:08:59.922254769
2025-11-07 17:08:56.498574,-22528,2025-11-07 17:08:59.929947077
2025-11-07 17:08:56.498574,0,2025-11-07 17:08:59.937639385
2025-11-07 17:08:56.498574,175,2025-11-07 17:08:59.945331692
2025-11-07 17:08:56.498574,-18944,2025-11-07 17:08:59.953024000
2025-11-07 17:08:56.498574,0,2025-11-07 17:08:59.960716308
2025-11-07 17:08:56.498574,190,2025-11-07 17:08:59.968408615
2025-11-07 17:08:56.498574,-15872,2025-11-07 17:08:59.976100923
2025-11-07 17:08:56.498574,0,2025-11-07 17:08:59.983793231
2025-11-07 17:08:56.498574,201,2025-11-07 17:08:59.991485538
2025-11-07 17:08:56.498574,-12032,2025-11-07 17:08:59.999177846
2025-11-07 17:08:56.498574,0,2025-11-07 17:09:00.006870154
2025-11-07 17:08:56.498574,204,2025-11-07 17:09:00.014562462
2025-11-07 17:08:56.498574,-16896,2025-11-07 17:09:00.022254769
2025-11-07 17:08:56.498574,0,2025-11-07 17:09:00.029947077
2025-11-07 17:08:56.498574,163,2025-11-07 17:09:00.037639385
2025-11-07 17:08:56.498574,31488,2025-11-07 17:09:00.045331692
2025-11-07 17:08:56.498574,0,2025-11-07 17:09:00.053024000
2025-11-07 17:08:56.498574,85,2025-11-07 17:09:00.060716308
2025-11-07 17:08:56.498574,15104,2025-11-07 17:09:00.068408615
2025-11-07 17:08:56.498574,0,2025-11-07 17:09:00.076100923
2025-11-07 17:08:56.498574,47,2025-11-07 17:09:00.083793231
2025-11-07 17:08:56.498574,10240,2025-11-07 17:09:00.091485538
2025-11-07 17:08:56.498574,0,2025-11-07 17:09:00.099177846
2025-11-07 17:08:56.498574,35,2025-11-07 17:09:00.106870154
2025-11-07 17:08:56.498574,8448,2025-11-07 17:09:00.114562462
2025-11-07 17:08:56.498574,0,2025-11-07 17:09:00.122254769
2025-11-07 17:08:56.498574,35,2025-11-07 17:09:00.129947077
2025-11-07 17:08:56.498574,7680,2025-11-07 17:09:00.137639385
2025-11-07 17:08:56.498574,0,2025-11-07 17:09:00.145331692
2025-11-07 17:08:56.498574,26,2025-11-07 17:09:00.153024000
2025-11-07 17:08:56.498574,6656,2025-11-07 17:09:00.160716308
2025-11-07 17:08:56.498574,0,2025-11-07 17:09:00.168408615
2025-11-07 17:08:56.498574,30,2025-11-07 17:09:00.176100923
2025-11-07 17:08:56.498574,7680,2025-11-07 17:09:00.183793231
2025-11-07 17:08:56.498574,0,2025-11-07 17:09:00.191485538
2025-11-07 17:08:56.498574,28,2025-11-07 17:09:00.199177846
2025-11-07 17:08:56.498574,7680,2025-11-07 17:09:00.206870154
2025-11-07 17:08:56.498574,0,2025-11-07 17:09:00.214562462
2025-11-07 17:08:56.498574,33,2025-11-07 17:09:00.222254769
2025-11-07 17:08:56.498574,8448,2025-11-07 17:09:00.229947077
2025-11-07 17:08:56.498574,0,2025-11-07 17:09:00.237639385
2025-11-07 17:08:56.498574,38,2025-11-07 17:09:00.245331692
2025-11-07 17:08:56.498574,9728,2025-11-07 17:09:00.253024000
2025-11-07 17:08:56.498574,0,2025-11-07 17:09:00.260716308
2025-11-07 17:08:56.498574,33,2025-11-07 17:09:00.268408615
2025-11-07 17:08:56.498574,8448,2025-11-07 17:09:00.276100923
2025-11-07 17:08:56.498574,0,2025-11-07 17:09:00.283793231
2025-11-07 17:08:56.498574,33,2025-11-07 17:09:00.291485538
2025-11-07 17:08:56.498574,8448,2025-11-07 17:09:00.299177846
2025-11-07 17:08:56.498574,0,2025-11-07 17:09:00.306870154
2025-11-07 17:08:56.498574,33,2025-11-07 17:09:00.314562462
2025-11-07 17:08:56.498574,7680,2025-11-07 17:09:00.322254769
2025-11-07 17:08:56.498574,0,2025-11-07 17:09:00.329947077
2025-11-07 17:08:56.498574,28,2025-11-07 17:09:00.337639385
2025-11-07 17:08:56.498574,7168,2025-11-07 17:09:00.345331692
2025-11-07 17:08:56.498574,0,2025-11-07 17:09:00.353024000
2025-11-07 17:08:56.498574,26,2025-11-07 17:09:00.360716308
2025-11-07 17:08:56.498574,6656,2025-11-07 17:09:00.368408615
2025-11-07 17:08:56.498574,0,2025-11-07 17:09:00.376100923
2025-11-07 17:08:56.498574,28,2025-11-07 17:09:00.383793231
2025-11-07 17:08:56.498574,7680,2025-11-07 17:09:00.391485538
2025-11-07 17:08:56.498574,0,2025-11-07 17:09:00.399177846
2025-11-07 17:08:56.498574,28,2025-11-07 17:09:00.406870154
2025-11-07 17:08:57.099275,26,2025-11-07 17:09:00.414562462
2025-11-07 17:08:57.099275,7680,2025-11-07 17:09:00.422254769
2025-11-07 17:08:57.099275,0,2025-11-07 17:09:00.429947077
2025-11-07 17:08:57.099275,35,2025-11-07 17:09:00.437639385
2025-11-07 17:08:57.099275,10240,2025-11-07 17:09:00.445331692
2025-11-07 17:08:57.099275,0,2025-11-07 17:09:00.453024000
2025-11-07 17:08:57.099275,49,2025-11-07 17:09:00.460716308
2025-11-07 17:08:57.099275,14592,2025-11-07 17:09:00.468408615
2025-11-07 17:08:57.099275,0,2025-11-07 17:09:00.476100923
2025-11-07 17:08:57.099275,68,2025-11-07 17:09:00.483793231
2025-11-07 17:08:57.099275,20480,2025-11-07 17:09:00.491485538
2025-11-07 17:08:57.099275,0,2025-11-07 17:09:00.499177846
2025-11-07 17:08:57.099275,61,2025-11-07 17:09:00.506870154
2025-11-07 17:08:57.099275,7168,2025-11-07 17:09:00.514562462
2025-11-07 17:08:57.099275,0,2025-11-07 17:09:00.522254769
2025-11-07 17:08:57.099275,26,2025-11-07 17:09:00.529947077
2025-11-07 17:08:57.099275,10752,2025-11-07 17:09:00.537639385
2025-11-07 17:08:57.099275,0,2025-11-07 17:09:00.545331692
2025-11-07 17:08:57.099275,47,2025-11-07 17:09:00.553024000
2025-11-07 17:08:57.099275,12032,2025-11-07 17:09:00.560716308
2025-11-07 17:08:57.099275,0,2025-11-07 17:09:00.568408615
2025-11-07 17:08:57.099275,49,2025-11-07 17:09:00.576100923
2025-11-07 17:08:57.099275,12544,2025-11-07 17:09:00.583793231
2025-11-07 17:08:57.099275,0,2025-11-07 17:09:00.591485538
2025-11-07 17:08:57.099275,49,2025-11-07 17:09:00.599177846
2025-11-07 17:08:57.099275,15104,2025-11-07 17:09:00.606870154
2025-11-07 17:08:57.099275,0,2025-11-07 17:09:00.614562462
2025-11-07 17:08:57.099275,92,2025-11-07 17:09:00.622254769
2025-11-07 17:08:57.099275,-28672,2025-11-07 17:09:00.629947077
2025-11-07 17:08:57.099275,0,2025-11-07 17:09:00.637639385
2025-11-07 17:08:57.099275,92,2025-11-07 17:09:00.645331692
2025-11-07 17:08:57.099275,-27392,2025-11-07 17:09:00.653024000
2025-11-07 17:08:57.099275,-2,2025-11-07 17:09:00.660716308
2025-11-07 17:08:57.099275,-1116,2025-11-07 17:09:00.668408615
2025-11-07 17:08:57.099275,767,2025-11-07 17:09:00.676100923
2025-11-07 17:08:57.099275,-5,2025-11-07 17:09:00.683793231
2025-11-07 17:08:57.099275,-582,2025-11-07 17:09:00.691485538
2025-11-07 17:08:57.099275,5119,2025-11-07 17:09:00.699177846
2025-11-07 17:08:57.099275,0,2025-11-07 17:09:00.706870154
2025-11-07 17:08:57.099275,111,2025-11-07 17:09:00.714562462
2025-11-07 17:08:57.099275,30976,2025-11-07 17:09:00.722254769
2025-11-07 17:08:57.099275,0,2025-11-07 17:09:00.729947077
2025-11-07 17:08:57.099275,185,2025-11-07 17:09:00.737639385
2025-11-07 17:08:57.099275,-16384,2025-11-07 17:09:00.745331692
2025-11-07 17:08:57.099275,0,2025-11-07 17:09:00.753024000
2025-11-07 17:08:57.099275,175,2025-11-07 17:09:00.760716308
2025-11-07 17:08:57.099275,-18944,2025-11-07 17:09:00.768408615
2025-11-07 17:08:57.099275,0,2025-11-07 17:09:00.776100923
2025-11-07 17:08:57.099275,180,2025-11-07 17:09:00.783793231
2025-11-07 17:08:57.099275,-23040,2025-11-07 17:09:00.791485538
2025-11-07 17:08:57.099275,0,2025-11-07 17:09:00.799177846
2025-11-07 17:08:57.099275,163,2025-11-07 17:09:00.806870154
2025-11-07 17:08:57.099275,-24320,2025-11-07 17:09:00.814562462
2025-11-07 17:08:57.099275,0,2025-11-07 17:09:00.822254769
2025-11-07 17:08:57.099275,154,2025-11-07 17:09:00.829947077
2025-11-07 17:08:57.099275,-26624,2025-11-07 17:09:00.837639385
2025-11-07 17:08:57.099275,0,2025-11-07 17:09:00.845331692
2025-11-07 17:08:57.099275,152,2025-11-07 17:09:00.853024000
2025-11-07 17:08:57.099275,-27392,2025-11-07 17:09:00.860716308
2025-11-07 17:08:57.099275,0,2025-11-07 17:09:00.868408615
2025-11-07 17:08:57.099275,149,2025-11-07 17:09:00.876100923
2025-11-07 17:08:57.099275,-26624,2025-11-07 17:09:00.883793230
2025-11-07 17:08:57.099275,0,2025-11-07 17:09:00.891485538
2025-11-07 17:08:57.099275,156,2025-11-07 17:09:00.899177846
2025-11-07 17:08:57.099275,-24320,2025-11-07 17:09:00.906870154
2025-11-07 17:08:57.099275,0,2025-11-07 17:09:00.914562462
2025-11-07 17:08:57.099275,168,2025-11-07 17:09:00.922254769
2025-11-07 17:08:57.099275,-19456,2025-11-07 17:09:00.929947077
2025-11-07 17:08:57.099275,0,2025-11-07 17:09:00.937639385
2025-11-07 17:08:57.099275,187,2025-11-07 17:09:00.945331692
2025-11-07 17:08:57.099275,-14592,2025-11-07 17:09:00.953024000
2025-11-07 17:08:57.099275,0,2025-11-07 17:09:00.960716308
2025-11-07 17:08:57.099275,216,2025-11-07 17:09:00.968408615
2025-11-07 17:08:57.099275,-9216,2025-11-07 17:09:00.976100923
2025-11-07 17:08:57.099275,0,2025-11-07 17:09:00.983793231
2025-11-07 17:08:57.099275,211,2025-11-07 17:09:00.991485538
2025-11-07 17:08:57.099275,-17664,2025-11-07 17:09:00.999177846
2025-11-07 17:08:57.099275,0,2025-11-07 17:09:01.006870154
2025-11-07 17:08:57.099275,152,2025-11-07 17:09:01.014562462
2025-11-07 17:08:57.099275,27904,2025-11-07 17:09:01.022254769
2025-11-07 17:08:57.099275,0,2025-11-07 17:09:01.029947077
2025-11-07 17:08:57.099275,76,2025-11-07 17:09:01.037639385
2025-11-07 17:08:57.099275,12544,2025-11-07 17:09:01.045331692
2025-11-07 17:08:57.099275,0,2025-11-07 17:09:01.053024000
2025-11-07 17:08:57.099275,35,2025-11-07 17:09:01.060716308
2025-11-07 17:08:57.099275,7680,2025-11-07 17:09:01.068408615
2025-11-07 17:08:57.099275,0,2025-11-07 17:09:01.076100923
2025-11-07 17:08:57.099275,28,2025-11-07 17:09:01.083793231
2025-11-07 17:08:57.099275,5888,2025-11-07 17:09:01.091485538
2025-11-07 17:08:57.099275,0,2025-11-07 17:09:01.099177846
2025-11-07 17:08:57.099275,21,2025-11-07 17:09:01.106870154
2025-11-07 17:08:57.099275,5376,2025-11-07 17:09:01.114562462
2025-11-07 17:08:57.099275,0,2025-11-07 17:09:01.122254769
2025-11-07 17:08:57.099275,21,2025-11-07 17:09:01.129947077
2025-11-07 17:08:57.099275,4864,2025-11-07 17:09:01.137639385
2025-11-07 17:08:57.099275,0,2025-11-07 17:09:01.145331692
2025-11-07 17:08:57.099275,16,2025-11-07 17:09:01.153024000
2025-11-07 17:08:57.099275,4096,2025-11-07 17:09:01.160716308
2025-11-07 17:08:57.099275,0,2025-11-07 17:09:01.168408615
2025-11-07 17:08:57.099275,16,2025-11-07 17:09:01.176100923
2025-11-07 17:08:57.099275,4096,2025-11-07 17:09:01.183793231
2025-11-07 17:08:57.099275,0,2025-11-07 17:09:01.191485538
2025-11-07 17:08:57.099275,19,2025-11-07 17:09:01.199177846
2025-11-07 17:08:57.099275,5376,2025-11-07 17:09:01.206870154
2025-11-07 17:08:57.099275,0,2025-11-07 17:09:01.214562462
2025-11-07 17:08:57.099275,21,2025-11-07 17:09:01.222254769
2025-11-07 17:08:57.099275,4864,2025-11-07 17:09:01.229947077
2025-11-07 17:08:57.099275,0,2025-11-07 17:09:01.237639385
2025-11-07 17:08:57.099275,19,2025-11-07 17:09:01.245331692
2025-11-07 17:08:57.642765,26,2025-11-07 17:09:01.253024000
2025-11-07 17:08:57.642765,6656,2025-11-07 17:09:01.260716308
2025-11-07 17:08:57.642765,0,2025-11-07 17:09:01.268408615
2025-11-07 17:08:57.642765,23,2025-11-07 17:09:01.276100923
2025-11-07 17:08:57.642765,6656,2025-11-07 17:09:01.283793231
2025-11-07 17:08:57.642765,0,2025-11-07 17:09:01.291485538
2025-11-07 17:08:57.642765,28,2025-11-07 17:09:01.299177846
2025-11-07 17:08:57.642765,7168,2025-11-07 17:09:01.306870154
2025-11-07 17:08:57.642765,0,2025-11-07 17:09:01.314562462
2025-11-07 17:08:57.642765,26,2025-11-07 17:09:01.322254769
2025-11-07 17:08:57.642765,7168,2025-11-07 17:09:01.329947077
2025-11-07 17:08:57.642765,0,2025-11-07 17:09:01.337639385
2025-11-07 17:08:57.642765,30,2025-11-07 17:09:01.345331692
2025-11-07 17:08:57.642765,7168,2025-11-07 17:09:01.353024000
2025-11-07 17:08:57.642765,0,2025-11-07 17:09:01.360716308
2025-11-07 17:08:57.642765,28,2025-11-07 17:09:01.368408615
2025-11-07 17:08:57.642765,8960,2025-11-07 17:09:01.376100923
2025-11-07 17:08:57.642765,0,2025-11-07 17:09:01.383793231
2025-11-07 17:08:57.642765,49,2025-11-07 17:09:01.391485538
2025-11-07 17:08:57.642765,13824,2025-11-07 17:09:01.399177846
2025-11-07 17:08:57.642765,0,2025-11-07 17:09:01.406870154
2025-11-07 17:08:57.642765,49,2025-11-07 17:09:01.414562462
2025-11-07 17:08:57.642765,12544,2025-11-07 17:09:01.422254769
2025-11-07 17:08:57.642765,0,2025-11-07 17:09:01.429947077
2025-11-07 17:08:57.642765,49,2025-11-07 17:09:01.437639385
2025-11-07 17:08:57.642765,11520,2025-11-07 17:09:01.445331692
2025-11-07 17:08:57.642765,0,2025-11-07 17:09:01.453024000
2025-11-07 17:08:57.642765,42,2025-11-07 17:09:01.460716308
2025-11-07 17:08:57.642765,10752,2025-11-07 17:09:01.468408615
2025-11-07 17:08:57.642765,0,2025-11-07 17:09:01.476100923
2025-11-07 17:08:57.642765,42,2025-11-07 17:09:01.483793231
2025-11-07 17:08:57.642765,10240,2025-11-07 17:09:01.491485538
2025-11-07 17:08:57.642765,0,2025-11-07 17:09:01.499177846
2025-11-07 17:08:57.642765,35,2025-11-07 17:09:01.506870154
2025-11-07 17:08:57.642765,8960,2025-11-07 17:09:01.514562462
2025-11-07 17:08:57.642765,0,2025-11-07 17:09:01.522254769
2025-11-07 17:08:57.642765,35,2025-11-07 17:09:01.529947077
2025-11-07 17:08:57.642765,8448,2025-11-07 17:09:01.537639385
2025-11-07 17:08:57.642765,0,2025-11-07 17:09:01.545331692
2025-11-07 17:08:57.642765,33,2025-11-07 17:09:01.553024000
2025-11-07 17:08:57.642765,8448,2025-11-07 17:09:01.560716308
2025-11-07 17:08:57.642765,0,2025-11-07 17:09:01.568408615
2025-11-07 17:08:57.642765,30,2025-11-07 17:09:01.576100923
2025-11-07 17:08:57.642765,6656,2025-11-07 17:09:01.583793231
2025-11-07 17:08:57.642765,0,2025-11-07 17:09:01.591485538
2025-11-07 17:08:57.642765,26,2025-11-07 17:09:01.599177846
2025-11-07 17:08:57.642765,6656,2025-11-07 17:09:01.606870154
2025-11-07 17:08:57.642765,0,2025-11-07 17:09:01.614562462
2025-11-07 17:08:57.642765,26,2025-11-07 17:09:01.622254769
2025-11-07 17:08:57.642765,7680,2025-11-07 17:09:01.629947077
2025-11-07 17:08:57.642765,0,2025-11-07 17:09:01.637639385
2025-11-07 17:08:57.642765,38,2025-11-07 17:09:01.645331692
2025-11-07 17:08:57.642765,10240,2025-11-07 17:09:01.653024000
2025-11-07 17:08:57.642765,0,2025-11-07 17:09:01.660716308
2025-11-07 17:08:57.642765,38,2025-11-07 17:09:01.668408615
2025-11-07 17:08:57.642765,7168,2025-11-07 17:09:01.676100923
2025-11-07 17:08:57.642765,0,2025-11-07 17:09:01.683793231
2025-11-07 17:08:57.642765,4,2025-11-07 17:09:01.691485538
2025-11-07 17:08:57.642765,-2304,2025-11-07 17:09:01.699177846
2025-11-07 17:08:57.642765,-1,2025-11-07 17:09:01.706870154
2025-11-07 17:08:57.642765,0,2025-11-07 17:09:01.714562462
2025-11-07 17:08:57.642765,3584,2025-11-07 17:09:01.722254769
2025-11-07 17:08:57.642765,0,2025-11-07 17:09:01.729947077
2025-11-07 17:08:57.642765,19,2025-11-07 17:09:01.737639385
2025-11-07 17:08:57.642765,6656,2025-11-07 17:09:01.745331692
2025-11-07 17:08:57.642765,0,2025-11-07 17:09:01.753024000
2025-11-07 17:08:57.642765,23,2025-11-07 17:09:01.760716308
2025-11-07 17:08:57.642765,4864,2025-11-07 17:09:01.768408615
2025-11-07 17:08:57.642765,0,2025-11-07 17:09:01.776100923
2025-11-07 17:08:57.642765,23,2025-11-07 17:09:01.783793231
2025-11-07 17:08:57.642765,10240,2025-11-07 17:09:01.791485538
2025-11-07 17:08:57.642765,0,2025-11-07 17:09:01.799177846
2025-11-07 17:08:57.642765,83,2025-11-07 17:09:01.806870154
2025-11-07 17:08:57.642765,-31488,2025-11-07 17:09:01.814562462
2025-11-07 17:08:57.642765,0,2025-11-07 17:09:01.822254769
2025-11-07 17:08:57.642765,-14,2025-11-07 17:09:01.829947077
2025-11-07 17:08:57.642765,-29185,2025-11-07 17:09:01.837639385
2025-11-07 17:08:57.642765,-3,2025-11-07 17:09:01.845331692
2025-11-07 17:08:57.642765,-1304,2025-11-07 17:09:01.853024000
2025-11-07 17:08:57.642765,28159,2025-11-07 17:09:01.860716308
2025-11-07 17:08:57.642765,-5,2025-11-07 17:09:01.868408615
2025-11-07 17:08:57.642765,-408,2025-11-07 17:09:01.876100923
2025-11-07 17:08:57.642765,12287,2025-11-07 17:09:01.883793230
2025-11-07 17:08:57.642765,0,2025-11-07 17:09:01.891485538
2025-11-07 17:08:57.642765,87,2025-11-07 17:09:01.899177846
2025-11-07 17:08:57.642765,29696,2025-11-07 17:09:01.906870154
2025-11-07 17:08:57.642765,0,2025-11-07 17:09:01.914562462
2025-11-07 17:08:57.642765,171,2025-11-07 17:09:01.922254769
2025-11-07 17:08:57.642765,-22528,2025-11-07 17:09:01.929947077
2025-11-07 17:08:57.642765,0,2025-11-07 17:09:01.937639385
2025-11-07 17:08:57.642765,154,2025-11-07 17:09:01.945331692
2025-11-07 17:08:57.642765,-23808,2025-11-07 17:09:01.953024000
2025-11-07 17:08:57.642765,0,2025-11-07 17:09:01.960716308
2025-11-07 17:08:57.642765,161,2025-11-07 17:09:01.968408615
2025-11-07 17:08:57.642765,-26624,2025-11-07 17:09:01.976100923
2025-11-07 17:08:57.642765,0,2025-11-07 17:09:01.983793231
2025-11-07 17:08:57.642765,147,2025-11-07 17:09:01.991485538
2025-11-07 17:08:57.642765,-28672,2025-11-07 17:09:01.999177846
2025-11-07 17:08:57.642765,0,2025-11-07 17:09:02.006870154
2025-11-07 17:08:57.642765,140,2025-11-07 17:09:02.014562462
2025-11-07 17:08:57.642765,-29696,2025-11-07 17:09:02.022254769
2025-11-07 17:08:57.642765,0,2025-11-07 17:09:02.029947077
2025-11-07 17:08:57.642765,140,2025-11-07 17:09:02.037639385
2025-11-07 17:08:57.642765,-29696,2025-11-07 17:09:02.045331692
2025-11-07 17:08:57.642765,0,2025-11-07 17:09:02.053024000
2025-11-07 17:08:57.642765,140,2025-11-07 17:09:02.060716308
2025-11-07 17:08:57.642765,-29184,2025-11-07 17:09:02.068408615
2025-11-07 17:08:57.642765,0,2025-11-07 17:09:02.076100923
2025-11-07 17:08:57.642765,149,2025-11-07 17:09:02.083793231
2025-11-07 17:08:58.182113,161,2025-11-07 17:09:02.091485538
2025-11-07 17:08:58.182113,-21760,2025-11-07 17:09:02.099177846
2025-11-07 17:08:58.182113,0,2025-11-07 17:09:02.106870154
2025-11-07 17:08:58.182113,180,2025-11-07 17:09:02.114562462
2025-11-07 17:08:58.182113,-16896,2025-11-07 17:09:02.122254769
2025-11-07 17:08:58.182113,0,2025-11-07 17:09:02.129947077
2025-11-07 17:08:58.182113,197,2025-11-07 17:09:02.137639385
2025-11-07 17:08:58.182113,-12032,2025-11-07 17:09:02.145331692
2025-11-07 17:08:58.182113,0,2025-11-07 17:09:02.153024000
2025-11-07 17:08:58.182113,216,2025-11-07 17:09:02.160716308
2025-11-07 17:08:58.182113,-11520,2025-11-07 17:09:02.168408615
2025-11-07 17:08:58.182113,0,2025-11-07 17:09:02.176100923
2025-11-07 17:08:58.182113,199,2025-11-07 17:09:02.183793231
2025-11-07 17:08:58.182113,-19456,2025-11-07 17:09:02.191485538
2025-11-07 17:08:58.182113,0,2025-11-07 17:09:02.199177846
2025-11-07 17:08:58.182113,147,2025-11-07 17:09:02.206870154
2025-11-07 17:08:58.182113,25344,2025-11-07 17:09:02.214562462
2025-11-07 17:08:58.182113,0,2025-11-07 17:09:02.222254769
2025-11-07 17:08:58.182113,66,2025-11-07 17:09:02.229947077
2025-11-07 17:08:58.182113,13824,2025-11-07 17:09:02.237639385
2025-11-07 17:08:58.182113,0,2025-11-07 17:09:02.245331692
2025-11-07 17:08:58.182113,40,2025-11-07 17:09:02.253024000
2025-11-07 17:08:58.182113,7680,2025-11-07 17:09:02.260716308
2025-11-07 17:08:58.182113,0,2025-11-07 17:09:02.268408615
2025-11-07 17:08:58.182113,30,2025-11-07 17:09:02.276100923
2025-11-07 17:08:58.182113,7680,2025-11-07 17:09:02.283793231
2025-11-07 17:08:58.182113,0,2025-11-07 17:09:02.291485538
2025-11-07 17:08:58.182113,26,2025-11-07 17:09:02.299177846
2025-11-07 17:08:58.182113,6656,2025-11-07 17:09:02.306870154
2025-11-07 17:08:58.182113,0,2025-11-07 17:09:02.314562462
2025-11-07 17:08:58.182113,26,2025-11-07 17:09:02.322254769
2025-11-07 17:08:58.182113,5888,2025-11-07 17:09:02.329947077
2025-11-07 17:08:58.182113,0,2025-11-07 17:09:02.337639385
2025-11-07 17:08:58.182113,21,2025-11-07 17:09:02.345331692
2025-11-07 17:08:58.182113,5376,2025-11-07 17:09:02.353024000
2025-11-07 17:08:58.182113,0,2025-11-07 17:09:02.360716308
2025-11-07 17:08:58.182113,21,2025-11-07 17:09:02.368408615
2025-11-07 17:08:58.182113,5376,2025-11-07 17:09:02.376100923
2025-11-07 17:08:58.182113,0,2025-11-07 17:09:02.383793231
2025-11-07 17:08:58.182113,21,2025-11-07 17:09:02.391485538
2025-11-07 17:08:58.182113,5376,2025-11-07 17:09:02.399177846
2025-11-07 17:08:58.182113,0,2025-11-07 17:09:02.406870154
2025-11-07 17:08:58.182113,21,2025-11-07 17:09:02.414562462
2025-11-07 17:08:58.182113,5376,2025-11-07 17:09:02.422254769
2025-11-07 17:08:58.182113,0,2025-11-07 17:09:02.429947077
2025-11-07 17:08:58.182113,21,2025-11-07 17:09:02.437639385
2025-11-07 17:08:58.182113,5888,2025-11-07 17:09:02.445331692
2025-11-07 17:08:58.182113,0,2025-11-07 17:09:02.453024000
2025-11-07 17:08:58.182113,26,2025-11-07 17:09:02.460716308
2025-11-07 17:08:58.182113,6656,2025-11-07 17:09:02.468408615
2025-11-07 17:08:58.182113,0,2025-11-07 17:09:02.476100923
2025-11-07 17:08:58.182113,28,2025-11-07 17:09:02.483793231
2025-11-07 17:08:58.182113,6656,2025-11-07 17:09:02.491485538
2025-11-07 17:08:58.182113,0,2025-11-07 17:09:02.499177846
2025-11-07 17:08:58.182113,26,2025-11-07 17:09:02.506870154
2025-11-07 17:08:58.182113,6656,2025-11-07 17:09:02.514562462
2025-11-07 17:08:58.182113,0,2025-11-07 17:09:02.522254769
2025-11-07 17:08:58.182113,23,2025-11-07 17:09:02.529947077
2025-11-07 17:08:58.182113,5376,2025-11-07 17:09:02.537639385
2025-11-07 17:08:58.182113,0,2025-11-07 17:09:02.545331692
2025-11-07 17:08:58.182113,19,2025-11-07 17:09:02.553024000
2025-11-07 17:08:58.182113,5376,2025-11-07 17:09:02.560716308
2025-11-07 17:08:58.182113,0,2025-11-07 17:09:02.568408615
2025-11-07 17:08:58.182113,19,2025-11-07 17:09:02.576100923
2025-11-07 17:08:58.182113,4096,2025-11-07 17:09:02.583793231
2025-11-07 17:08:58.182113,0,2025-11-07 17:09:02.591485538
2025-11-07 17:08:58.182113,16,2025-11-07 17:09:02.599177846
2025-11-07 17:08:58.182113,4096,2025-11-07 17:09:02.606870154
2025-11-07 17:08:58.182113,0,2025-11-07 17:09:02.614562462
2025-11-07 17:08:58.182113,14,2025-11-07 17:09:02.622254769
2025-11-07 17:08:58.182113,2816,2025-11-07 17:09:02.629947077
2025-11-07 17:08:58.182113,0,2025-11-07 17:09:02.637639385
2025-11-07 17:08:58.182113,11,2025-11-07 17:09:02.645331692
2025-11-07 17:08:58.182113,3584,2025-11-07 17:09:02.653024000
2025-11-07 17:08:58.182113,0,2025-11-07 17:09:02.660716308
2025-11-07 17:08:58.182113,14,2025-11-07 17:09:02.668408615
2025-11-07 17:08:58.182113,3584,2025-11-07 17:09:02.676100923
2025-11-07 17:08:58.182113,0,2025-11-07 17:09:02.683793231
2025-11-07 17:08:58.182113,21,2025-11-07 17:09:02.691485538
2025-11-07 17:08:58.182113,6656,2025-11-07 17:09:02.699177846
2025-11-07 17:08:58.182113,0,2025-11-07 17:09:02.706870154
2025-11-07 17:08:58.182113,23,2025-11-07 17:09:02.714562462
2025-11-07 17:08:58.182113,4864,2025-11-07 17:09:02.722254769
2025-11-07 17:08:58.182113,0,2025-11-07 17:09:02.729947077
2025-11-07 17:08:58.182113,4,2025-11-07 17:09:02.737639385
2025-11-07 17:08:58.182113,-4096,2025-11-07 17:09:02.745331692
2025-11-07 17:08:58.182113,-1,2025-11-07 17:09:02.753024000
2025-11-07 17:08:58.182113,-19,2025-11-07 17:09:02.760716308
2025-11-07 17:08:58.182113,-2049,2025-11-07 17:09:02.768408615
2025-11-07 17:08:58.182113,-1,2025-11-07 17:09:02.776100923
2025-11-07 17:08:58.182113,-2,2025-11-07 17:09:02.783793231
2025-11-07 17:08:58.182113,1279,2025-11-07 17:09:02.791485538
2025-11-07 17:08:58.182113,0,2025-11-07 17:09:02.799177846
2025-11-07 17:08:58.182113,4,2025-11-07 17:09:02.806870154
2025-11-07 17:08:58.182113,512,2025-11-07 17:09:02.814562462
2025-11-07 17:08:58.182113,0,2025-11-07 17:09:02.822254769
2025-11-07 17:08:58.182113,11,2025-11-07 17:09:02.829947077
2025-11-07 17:08:58.182113,5376,2025-11-07 17:09:02.837639385
2025-11-07 17:08:58.182113,0,2025-11-07 17:09:02.845331692
2025-11-07 17:08:58.182113,52,2025-11-07 17:09:02.853024000
2025-11-07 17:08:58.182113,29184,2025-11-07 17:09:02.860716308
2025-11-07 17:08:58.182113,0,2025-11-07 17:09:02.868408615
2025-11-07 17:08:58.182113,64,2025-11-07 17:09:02.876100923
2025-11-07 17:08:58.182113,31488,2025-11-07 17:09:02.883793230
2025-11-07 17:08:58.182113,-2,2025-11-07 17:09:02.891485538
2025-11-07 17:08:58.182113,-1133,2025-11-07 17:09:02.899177846
2025-11-07 17:08:58.182113,-2305,2025-11-07 17:09:02.906870154
2025-11-07 17:08:58.182113,-6,2025-11-07 17:09:02.914562462
2025-11-07 17:08:58.182113,-613,2025-11-07 17:09:02.922254769
2025-11-07 17:08:58.749291,-16,2025-11-07 17:09:02.929947077
2025-11-07 17:08:58.749291,23295,2025-11-07 17:09:02.937639385
2025-11-07 17:08:58.749291,0,2025-11-07 17:09:02.945331692
2025-11-07 17:08:58.749291,102,2025-11-07 17:09:02.953024000
2025-11-07 17:08:58.749291,-22528,2025-11-07 17:09:02.960716308
2025-11-07 17:08:58.749291,0,2025-11-07 17:09:02.968408615
2025-11-07 17:08:58.749291,178,2025-11-07 17:09:02.976100923
2025-11-07 17:08:58.749291,-23808,2025-11-07 17:09:02.983793231
2025-11-07 17:08:58.749291,0,2025-11-07 17:09:02.991485538
2025-11-07 17:08:58.749291,185,2025-11-07 17:09:02.999177846
2025-11-07 17:08:58.749291,-15104,2025-11-07 17:09:03.006870154
2025-11-07 17:08:58.749291,0,2025-11-07 17:09:03.014562462
2025-11-07 17:08:58.749291,180,2025-11-07 17:09:03.022254769
2025-11-07 17:08:58.749291,-21248,2025-11-07 17:09:03.029947077
2025-11-07 17:08:58.749291,0,2025-11-07 17:09:03.037639385
2025-11-07 17:08:58.749291,173,2025-11-07 17:09:03.045331692
2025-11-07 17:08:58.749291,-23040,2025-11-07 17:09:03.053024000
2025-11-07 17:08:58.749291,0,2025-11-07 17:09:03.060716308
2025-11-07 17:08:58.749291,161,2025-11-07 17:09:03.068408615
2025-11-07 17:08:58.749291,-24320,2025-11-07 17:09:03.076100923
2025-11-07 17:08:58.749291,0,2025-11-07 17:09:03.083793231
2025-11-07 17:08:58.749291,159,2025-11-07 17:09:03.091485538
2025-11-07 17:08:58.749291,-26112,2025-11-07 17:09:03.099177846
2025-11-07 17:08:58.749291,0,2025-11-07 17:09:03.106870154
2025-11-07 17:08:58.749291,156,2025-11-07 17:09:03.114562462
2025-11-07 17:08:58.749291,-24832,2025-11-07 17:09:03.122254769
2025-11-07 17:08:58.749291,0,2025-11-07 17:09:03.129947077
2025-11-07 17:08:58.749291,166,2025-11-07 17:09:03.137639385
2025-11-07 17:08:58.749291,-21760,2025-11-07 17:09:03.145331692
2025-11-07 17:08:58.749291,0,2025-11-07 17:09:03.153024000
2025-11-07 17:08:58.749291,175,2025-11-07 17:09:03.160716308
2025-11-07 17:08:58.749291,-18944,2025-11-07 17:09:03.168408615
2025-11-07 17:08:58.749291,0,2025-11-07 17:09:03.176100923
2025-11-07 17:08:58.749291,192,2025-11-07 17:09:03.183793231
2025-11-07 17:08:58.749291,-14592,2025-11-07 17:09:03.191485538
2025-11-07 17:08:58.749291,0,2025-11-07 17:09:03.199177846
2025-11-07 17:08:58.749291,201,2025-11-07 17:09:03.206870154
2025-11-07 17:08:58.749291,-14592,2025-11-07 17:09:03.214562462
2025-11-07 17:08:58.749291,0,2025-11-07 17:09:03.222254769
2025-11-07 17:08:58.749291,187,2025-11-07 17:09:03.229947077
2025-11-07 17:08:58.749291,-24832,2025-11-07 17:09:03.237639385
2025-11-07 17:08:58.749291,0,2025-11-07 17:09:03.245331692
2025-11-07 17:08:58.749291,118,2025-11-07 17:09:03.253024000
2025-11-07 17:08:58.749291,21760,2025-11-07 17:09:03.260716308
2025-11-07 17:08:58.749291,0,2025-11-07 17:09:03.268408615
2025-11-07 17:08:58.749291,64,2025-11-07 17:09:03.276100923
2025-11-07 17:08:58.749291,12032,2025-11-07 17:09:03.283793231
2025-11-07 17:08:58.749291,0,2025-11-07 17:09:03.291485538
2025-11-07 17:08:58.749291,38,2025-11-07 17:09:03.299177846
2025-11-07 17:08:58.749291,8960,2025-11-07 17:09:03.306870154
2025-11-07 17:08:58.749291,0,2025-11-07 17:09:03.314562462
2025-11-07 17:08:58.749291,30,2025-11-07 17:09:03.322254769
2025-11-07 17:08:58.749291,7680,2025-11-07 17:09:03.329947077
2025-11-07 17:08:58.749291,0,2025-11-07 17:09:03.337639385
2025-11-07 17:08:58.749291,30,2025-11-07 17:09:03.345331692
2025-11-07 17:08:58.749291,7168,2025-11-07 17:09:03.353024000
2025-11-07 17:08:58.749291,0,2025-11-07 17:09:03.360716308
2025-11-07 17:08:58.749291,26,2025-11-07 17:09:03.368408615
2025-11-07 17:08:58.749291,5888,2025-11-07 17:09:03.376100923
2025-11-07 17:08:58.749291,0,2025-11-07 17:09:03.383793231
2025-11-07 17:08:58.749291,23,2025-11-07 17:09:03.391485538
2025-11-07 17:08:58.749291,5888,2025-11-07 17:09:03.399177846
2025-11-07 17:08:58.749291,0,2025-11-07 17:09:03.406870154
2025-11-07 17:08:58.749291,23,2025-11-07 17:09:03.414562462
2025-11-07 17:08:58.749291,5376,2025-11-07 17:09:03.422254769
2025-11-07 17:08:58.749291,0,2025-11-07 17:09:03.429947077
2025-11-07 17:08:58.749291,19,2025-11-07 17:09:03.437639385
2025-11-07 17:08:58.749291,4864,2025-11-07 17:09:03.445331692
2025-11-07 17:08:58.749291,0,2025-11-07 17:09:03.453024000
2025-11-07 17:08:58.749291,19,2025-11-07 17:09:03.460716308
2025-11-07 17:08:58.749291,4096,2025-11-07 17:09:03.468408615
2025-11-07 17:08:58.749291,0,2025-11-07 17:09:03.476100923
2025-11-07 17:08:58.749291,16,2025-11-07 17:09:03.483793231
2025-11-07 17:08:58.749291,3584,2025-11-07 17:09:03.491485538
2025-11-07 17:08:58.749291,0,2025-11-07 17:09:03.499177846
2025-11-07 17:08:58.749291,11,2025-11-07 17:09:03.506870154
2025-11-07 17:08:58.749291,2304,2025-11-07 17:09:03.514562462
2025-11-07 17:08:58.749291,0,2025-11-07 17:09:03.522254769
2025-11-07 17:08:58.749291,9,2025-11-07 17:09:03.529947077
2025-11-07 17:08:58.749291,2816,2025-11-07 17:09:03.537639385
2025-11-07 17:08:58.749291,0,2025-11-07 17:09:03.545331692
2025-11-07 17:08:58.749291,14,2025-11-07 17:09:03.553024000
2025-11-07 17:08:58.749291,3584,2025-11-07 17:09:03.560716308
2025-11-07 17:08:58.749291,0,2025-11-07 17:09:03.568408615
2025-11-07 17:08:58.749291,14,2025-11-07 17:09:03.576100923
2025-11-07 17:08:58.749291,3584,2025-11-07 17:09:03.583793231
2025-11-07 17:08:58.749291,0,2025-11-07 17:09:03.591485538
2025-11-07 17:08:58.749291,14,2025-11-07 17:09:03.599177846
2025-11-07 17:08:58.749291,2816,2025-11-07 17:09:03.606870154
2025-11-07 17:08:58.749291,0,2025-11-07 17:09:03.614562462
2025-11-07 17:08:58.749291,11,2025-11-07 17:09:03.622254769
2025-11-07 17:08:58.749291,2816,2025-11-07 17:09:03.629947077
2025-11-07 17:08:58.749291,0,2025-11-07 17:09:03.637639385
2025-11-07 17:08:58.749291,11,2025-11-07 17:09:03.645331692
2025-11-07 17:08:58.749291,2304,2025-11-07 17:09:03.653024000
2025-11-07 17:08:58.749291,0,2025-11-07 17:09:03.660716308
2025-11-07 17:08:58.749291,9,2025-11-07 17:09:03.668408615
2025-11-07 17:08:58.749291,2816,2025-11-07 17:09:03.676100923
2025-11-07 17:08:58.749291,0,2025-11-07 17:09:03.683793231
2025-11-07 17:08:58.749291,9,2025-11-07 17:09:03.691485538
2025-11-07 17:08:58.749291,2304,2025-11-07 17:09:03.699177846
2025-11-07 17:08:58.749291,0,2025-11-07 17:09:03.706870154
2025-11-07 17:08:58.749291,11,2025-11-07 17:09:03.714562462
2025-11-07 17:08:58.749291,4096,2025-11-07 17:09:03.722254769
2025-11-07 17:08:58.749291,0,2025-11-07 17:09:03.729947077
2025-11-07 17:08:58.749291,26,2025-11-07 17:09:03.737639385
2025-11-07 17:08:58.749291,7680,2025-11-07 17:09:03.745331692
2025-11-07 17:08:58.749291,0,2025-11-07 17:09:03.753024000
2025-11-07 17:08:58.749291,33,2025-11-07 17:09:03.760716308
2025-11-07 17:08:59.322367,26,2025-11-07 17:09:03.768408615
2025-11-07 17:08:59.322367,3584,2025-11-07 17:09:03.776100923
2025-11-07 17:08:59.322367,0,2025-11-07 17:09:03.783793231
2025-11-07 17:08:59.322367,-2,2025-11-07 17:09:03.791485538
2025-11-07 17:08:59.322367,-769,2025-11-07 17:09:03.799177846
2025-11-07 17:08:59.322367,-1,2025-11-07 17:09:03.806870154
2025-11-07 17:08:59.322367,4,2025-11-07 17:09:03.814562462
2025-11-07 17:08:59.322367,4096,2025-11-07 17:09:03.822254769
2025-11-07 17:08:59.322367,0,2025-11-07 17:09:03.829947077
2025-11-07 17:08:59.322367,26,2025-11-07 17:09:03.837639385
2025-11-07 17:08:59.322367,8448,2025-11-07 17:09:03.845331692
2025-11-07 17:08:59.322367,0,2025-11-07 17:09:03.853024000
2025-11-07 17:08:59.322367,45,2025-11-07 17:09:03.860716308
2025-11-07 17:08:59.322367,12544,2025-11-07 17:09:03.868408615
2025-11-07 17:08:59.322367,0,2025-11-07 17:09:03.876100923
2025-11-07 17:08:59.322367,57,2025-11-07 17:09:03.883793230
2025-11-07 17:08:59.322367,24320,2025-11-07 17:09:03.891485538
2025-11-07 17:08:59.322367,0,2025-11-07 17:09:03.899177846
2025-11-07 17:08:59.322367,152,2025-11-07 17:09:03.906870154
2025-11-07 17:08:59.322367,18688,2025-11-07 17:09:03.914562462
2025-11-07 17:08:59.322367,0,2025-11-07 17:09:03.922254769
2025-11-07 17:08:59.322367,-430,2025-11-07 17:09:03.929947077
2025-11-07 17:08:59.322367,-30721,2025-11-07 17:09:03.937639385
2025-11-07 17:08:59.322367,-5,2025-11-07 17:09:03.945331692
2025-11-07 17:08:59.322367,-1190,2025-11-07 17:09:03.953024000
2025-11-07 17:08:59.322367,11519,2025-11-07 17:09:03.960716308
2025-11-07 17:08:59.322367,-2,2025-11-07 17:09:03.968408615
2025-11-07 17:08:59.322367,61,2025-11-07 17:09:03.976100923
2025-11-07 17:08:59.322367,28416,2025-11-07 17:09:03.983793231
2025-11-07 17:08:59.322367,0,2025-11-07 17:09:03.991485538
2025-11-07 17:08:59.322367,128,2025-11-07 17:09:03.999177846
2025-11-07 17:08:59.322367,-15104,2025-11-07 17:09:04.006870154
2025-11-07 17:08:59.322367,0,2025-11-07 17:09:04.014562462
2025-11-07 17:08:59.322367,197,2025-11-07 17:09:04.022254769
2025-11-07 17:08:59.322367,-19456,2025-11-07 17:09:04.029947077
2025-11-07 17:08:59.322367,0,2025-11-07 17:09:04.037639385
2025-11-07 17:08:59.322367,190,2025-11-07 17:09:04.045331692
2025-11-07 17:08:59.322367,-18944,2025-11-07 17:09:04.053024000
2025-11-07 17:08:59.322367,0,2025-11-07 17:09:04.060716308
2025-11-07 17:08:59.322367,168,2025-11-07 17:09:04.068408615
2025-11-07 17:08:59.322367,-23040,2025-11-07 17:09:04.076100923
2025-11-07 17:08:59.322367,0,2025-11-07 17:09:04.083793231
2025-11-07 17:08:59.322367,163,2025-11-07 17:09:04.091485538
2025-11-07 17:08:59.322367,-25600,2025-11-07 17:09:04.099177846
2025-11-07 17:08:59.322367,0,2025-11-07 17:09:04.106870154
2025-11-07 17:08:59.322367,152,2025-11-07 17:09:04.114562462
2025-11-07 17:08:59.322367,-27392,2025-11-07 17:09:04.122254769
2025-11-07 17:08:59.322367,0,2025-11-07 17:09:04.129947077
2025-11-07 17:08:59.322367,144,2025-11-07 17:09:04.137639385
2025-11-07 17:08:59.322367,-29184,2025-11-07 17:09:04.145331692
2025-11-07 17:08:59.322367,0,2025-11-07 17:09:04.153024000
2025-11-07 17:08:59.322367,144,2025-11-07 17:09:04.160716308
2025-11-07 17:08:59.322367,-27392,2025-11-07 17:09:04.168408615
2025-11-07 17:08:59.322367,0,2025-11-07 17:09:04.176100923
2025-11-07 17:08:59.322367,152,2025-11-07 17:09:04.183793231
2025-11-07 17:08:59.322367,-26112,2025-11-07 17:09:04.191485538
2025-11-07 17:08:59.322367,0,2025-11-07 17:09:04.199177846
2025-11-07 17:08:59.322367,163,2025-11-07 17:09:04.206870154
2025-11-07 17:08:59.322367,-21248,2025-11-07 17:09:04.214562462
2025-11-07 17:08:59.322367,0,2025-11-07 17:09:04.222254769
2025-11-07 17:08:59.322367,178,2025-11-07 17:09:04.229947077
2025-11-07 17:08:59.322367,-18176,2025-11-07 17:09:04.237639385
2025-11-07 17:08:59.322367,0,2025-11-07 17:09:04.245331692
2025-11-07 17:08:59.322367,190,2025-11-07 17:09:04.253024000
2025-11-07 17:08:59.322367,-18176,2025-11-07 17:09:04.260716308
2025-11-07 17:08:59.322367,0,2025-11-07 17:09:04.268408615
2025-11-07 17:08:59.322367,166,2025-11-07 17:09:04.276100923
2025-11-07 17:08:59.322367,-30464,2025-11-07 17:09:04.283793231
2025-11-07 17:08:59.322367,0,2025-11-07 17:09:04.291485538
2025-11-07 17:08:59.322367,106,2025-11-07 17:09:04.299177846
2025-11-07 17:08:59.322367,18688,2025-11-07 17:09:04.306870154
2025-11-07 17:08:59.322367,0,2025-11-07 17:09:04.314562462
2025-11-07 17:08:59.322367,47,2025-11-07 17:09:04.322254769
2025-11-07 17:08:59.322367,8448,2025-11-07 17:09:04.329947077
2025-11-07 17:08:59.322367,0,2025-11-07 17:09:04.337639385
2025-11-07 17:08:59.322367,28,2025-11-07 17:09:04.345331692
2025-11-07 17:08:59.322367,6656,2025-11-07 17:09:04.353024000
2025-11-07 17:08:59.322367,0,2025-11-07 17:09:04.360716308
2025-11-07 17:08:59.322367,26,2025-11-07 17:09:04.368408615
2025-11-07 17:08:59.322367,6656,2025-11-07 17:09:04.376100923
2025-11-07 17:08:59.322367,0,2025-11-07 17:09:04.383793231
2025-11-07 17:08:59.322367,26,2025-11-07 17:09:04.391485538
2025-11-07 17:08:59.322367,5376,2025-11-07 17:09:04.399177846
2025-11-07 17:08:59.322367,0,2025-11-07 17:09:04.406870154
2025-11-07 17:08:59.322367,16,2025-11-07 17:09:04.414562462
2025-11-07 17:08:59.322367,4096,2025-11-07 17:09:04.422254769
2025-11-07 17:08:59.322367,0,2025-11-07 17:09:04.429947077
2025-11-07 17:08:59.322367,21,2025-11-07 17:09:04.437639385
2025-11-07 17:08:59.322367,4864,2025-11-07 17:09:04.445331692
2025-11-07 17:08:59.322367,0,2025-11-07 17:09:04.453024000
2025-11-07 17:08:59.322367,16,2025-11-07 17:09:04.460716308
2025-11-07 17:08:59.322367,3584,2025-11-07 17:09:04.468408615
2025-11-07 17:08:59.322367,0,2025-11-07 17:09:04.476100923
2025-11-07 17:08:59.322367,16,2025-11-07 17:09:04.483793231
2025-11-07 17:08:59.322367,3584,2025-11-07 17:09:04.491485538
2025-11-07 17:08:59.322367,0,2025-11-07 17:09:04.499177846
2025-11-07 17:08:59.322367,11,2025-11-07 17:09:04.506870154
2025-11-07 17:08:59.322367,2816,2025-11-07 17:09:04.514562462
2025-11-07 17:08:59.322367,0,2025-11-07 17:09:04.522254769
2025-11-07 17:08:59.322367,11,2025-11-07 17:09:04.529947077
2025-11-07 17:08:59.322367,2816,2025-11-07 17:09:04.537639385
2025-11-07 17:08:59.322367,0,2025-11-07 17:09:04.545331692
2025-11-07 17:08:59.322367,11,2025-11-07 17:09:04.553024000
2025-11-07 17:08:59.322367,2304,2025-11-07 17:09:04.560716308
2025-11-07 17:08:59.322367,0,2025-11-07 17:09:04.568408615
2025-11-07 17:08:59.322367,11,2025-11-07 17:09:04.576100923
2025-11-07 17:08:59.322367,2816,2025-11-07 17:09:04.583793231
2025-11-07 17:08:59.322367,0,2025-11-07 17:09:04.591485538
2025-11-07 17:08:59.322367,9,2025-11-07 17:09:04.599177846
2025-11-07 17:08:59.862414,7,2025-11-07 17:09:04.606870154
2025-11-07 17:08:59.862414,2304,2025-11-07 17:09:04.614562462
2025-11-07 17:08:59.862414,0,2025-11-07 17:09:04.622254769
2025-11-07 17:08:59.862414,11,2025-11-07 17:09:04.629947077
2025-11-07 17:08:59.862414,2816,2025-11-07 17:09:04.637639385
2025-11-07 17:08:59.862414,0,2025-11-07 17:09:04.645331692
2025-11-07 17:08:59.862414,14,2025-11-07 17:09:04.653024000
2025-11-07 17:08:59.862414,4096,2025-11-07 17:09:04.660716308
2025-11-07 17:08:59.862414,0,2025-11-07 17:09:04.668408615
2025-11-07 17:08:59.862414,16,2025-11-07 17:09:04.676100923
2025-11-07 17:08:59.862414,4096,2025-11-07 17:09:04.683793231
2025-11-07 17:08:59.862414,0,2025-11-07 17:09:04.691485538
2025-11-07 17:08:59.862414,26,2025-11-07 17:09:04.699177846
2025-11-07 17:08:59.862414,10752,2025-11-07 17:09:04.706870154
2025-11-07 17:08:59.862414,0,2025-11-07 17:09:04.714562462
2025-11-07 17:08:59.862414,52,2025-11-07 17:09:04.722254769
2025-11-07 17:08:59.862414,13824,2025-11-07 17:09:04.729947077
2025-11-07 17:08:59.862414,0,2025-11-07 17:09:04.737639385
2025-11-07 17:08:59.862414,64,2025-11-07 17:09:04.745331692
2025-11-07 17:08:59.862414,16384,2025-11-07 17:09:04.753024000
2025-11-07 17:08:59.862414,0,2025-11-07 17:09:04.760716308
2025-11-07 17:08:59.862414,57,2025-11-07 17:09:04.768408615
2025-11-07 17:08:59.862414,10752,2025-11-07 17:09:04.776100923
2025-11-07 17:08:59.862414,0,2025-11-07 17:09:04.783793231
2025-11-07 17:08:59.862414,26,2025-11-07 17:09:04.791485538
2025-11-07 17:08:59.862414,4864,2025-11-07 17:09:04.799177846
2025-11-07 17:08:59.862414,0,2025-11-07 17:09:04.806870154
2025-11-07 17:08:59.862414,21,2025-11-07 17:09:04.814562462
2025-11-07 17:08:59.862414,7680,2025-11-07 17:09:04.822254769
2025-11-07 17:08:59.862414,0,2025-11-07 17:09:04.829947077
2025-11-07 17:08:59.862414,38,2025-11-07 17:09:04.837639385
2025-11-07 17:08:59.862414,9728,2025-11-07 17:09:04.845331692
2025-11-07 17:08:59.862414,0,2025-11-07 17:09:04.853024000
2025-11-07 17:08:59.862414,33,2025-11-07 17:09:04.860716308
2025-11-07 17:08:59.862414,8960,2025-11-07 17:09:04.868408615
2025-11-07 17:08:59.862414,0,2025-11-07 17:09:04.876100923
2025-11-07 17:08:59.862414,42,2025-11-07 17:09:04.883793230
2025-11-07 17:08:59.862414,18176,2025-11-07 17:09:04.891485538
2025-11-07 17:08:59.862414,0,2025-11-07 17:09:04.899177846
2025-11-07 17:08:59.862414,128,2025-11-07 17:09:04.906870154
2025-11-07 17:08:59.862414,27136,2025-11-07 17:09:04.914562462
2025-11-07 17:08:59.862414,0,2025-11-07 17:09:04.922254769
2025-11-07 17:08:59.862414,-282,2025-11-07 17:09:04.929947077
2025-11-07 17:08:59.862414,4607,2025-11-07 17:09:04.937639385
2025-11-07 17:08:59.862414,-4,2025-11-07 17:09:04.945331692
2025-11-07 17:08:59.862414,-1247,2025-11-07 17:09:04.953024000
2025-11-07 17:08:59.862414,-26625,2025-11-07 17:09:04.960716308
2025-11-07 17:08:59.862414,-3,2025-11-07 17:09:04.968408615
2025-11-07 17:08:59.862414,2,2025-11-07 17:09:04.976100923
2025-11-07 17:08:59.862414,21760,2025-11-07 17:09:04.983793231
2025-11-07 17:08:59.862414,0,2025-11-07 17:09:04.991485538
2025-11-07 17:08:59.862414,68,2025-11-07 17:09:04.999177846
2025-11-07 17:08:59.862414,-24832,2025-11-07 17:09:05.006870154
2025-11-07 17:08:59.862414,0,2025-11-07 17:09:05.014562462
2025-11-07 17:08:59.862414,178,2025-11-07 17:09:05.022254769
2025-11-07 17:08:59.862414,-27392,2025-11-07 17:09:05.029947077
2025-11-07 17:08:59.862414,0,2025-11-07 17:09:05.037639385
2025-11-07 17:08:59.862414,159,2025-11-07 17:09:05.045331692
2025-11-07 17:08:59.862414,-23808,2025-11-07 17:09:05.053024000
2025-11-07 17:08:59.862414,0,2025-11-07 17:09:05.060716308
2025-11-07 17:08:59.862414,147,2025-11-07 17:09:05.068408615
2025-11-07 17:08:59.862414,-29184,2025-11-07 17:09:05.076100923
2025-11-07 17:08:59.862414,0,2025-11-07 17:09:05.083793231
2025-11-07 17:08:59.862414,140,2025-11-07 17:09:05.091485538
2025-11-07 17:08:59.862414,-32256,2025-11-07 17:09:05.099177846
2025-11-07 17:08:59.862414,0,2025-11-07 17:09:05.106870154
2025-11-07 17:08:59.862414,128,2025-11-07 17:09:05.114562462
2025-11-07 17:08:59.862414,-32768,2025-11-07 17:09:05.122254769
2025-11-07 17:08:59.862414,0,2025-11-07 17:09:05.129947077
2025-11-07 17:08:59.862414,123,2025-11-07 17:09:05.137639385
2025-11-07 17:08:59.862414,30976,2025-11-07 17:09:05.145331692
2025-11-07 17:08:59.862414,0,2025-11-07 17:09:05.153024000
2025-11-07 17:08:59.862414,123,2025-11-07 17:09:05.160716308
2025-11-07 17:08:59.862414,31488,2025-11-07 17:09:05.168408615
2025-11-07 17:08:59.862414,0,2025-11-07 17:09:05.176100923
2025-11-07 17:08:59.862414,128,2025-11-07 17:09:05.183793231
2025-11-07 17:08:59.862414,-30976,2025-11-07 17:09:05.191485538
2025-11-07 17:08:59.862414,0,2025-11-07 17:09:05.199177846
2025-11-07 17:08:59.862414,142,2025-11-07 17:09:05.206870154
2025-11-07 17:08:59.862414,-27392,2025-11-07 17:09:05.214562462
2025-11-07 17:08:59.862414,0,2025-11-07 17:09:05.222254769
2025-11-07 17:08:59.862414,154,2025-11-07 17:09:05.229947077
2025-11-07 17:08:59.862414,-24320,2025-11-07 17:09:05.237639385
2025-11-07 17:08:59.862414,0,2025-11-07 17:09:05.245331692
2025-11-07 17:08:59.862414,163,2025-11-07 17:09:05.253024000
2025-11-07 17:08:59.862414,-25600,2025-11-07 17:09:05.260716308
2025-11-07 17:08:59.862414,0,2025-11-07 17:09:05.268408615
2025-11-07 17:08:59.862414,142,2025-11-07 17:09:05.276100923
2025-11-07 17:08:59.862414,30208,2025-11-07 17:09:05.283793231
2025-11-07 17:08:59.862414,0,2025-11-07 17:09:05.291485538
2025-11-07 17:08:59.862414,87,2025-11-07 17:09:05.299177846
2025-11-07 17:08:59.862414,14592,2025-11-07 17:09:05.306870154
2025-11-07 17:08:59.862414,0,2025-11-07 17:09:05.314562462
2025-11-07 17:08:59.862414,38,2025-11-07 17:09:05.322254769
2025-11-07 17:08:59.862414,7680,2025-11-07 17:09:05.329947077
2025-11-07 17:08:59.862414,0,2025-11-07 17:09:05.337639385
2025-11-07 17:08:59.862414,26,2025-11-07 17:09:05.345331692
2025-11-07 17:08:59.862414,5376,2025-11-07 17:09:05.353024000
2025-11-07 17:08:59.862414,0,2025-11-07 17:09:05.360716308
2025-11-07 17:08:59.862414,21,2025-11-07 17:09:05.368408615
2025-11-07 17:08:59.862414,5888,2025-11-07 17:09:05.376100923
2025-11-07 17:08:59.862414,0,2025-11-07 17:09:05.383793231
2025-11-07 17:08:59.862414,23,2025-11-07 17:09:05.391485538
2025-11-07 17:08:59.862414,5888,2025-11-07 17:09:05.399177846
2025-11-07 17:08:59.862414,0,2025-11-07 17:09:05.406870154
2025-11-07 17:08:59.862414,23,2025-11-07 17:09:05.414562462
2025-11-07 17:08:59.862414,5888,2025-11-07 17:09:05.422254769
2025-11-07 17:08:59.862414,0,2025-11-07 17:09:05.429947077
2025-11-07 17:08:59.862414,23,2025-11-07 17:09:05.437639385
2025-11-07 17:09:00.459806,19,2025-11-07 17:09:05.445331692
2025-11-07 17:09:00.459806,4864,2025-11-07 17:09:05.453024000
2025-11-07 17:09:00.459806,0,2025-11-07 17:09:05.460716308
2025-11-07 17:09:00.459806,21,2025-11-07 17:09:05.468408615
2025-11-07 17:09:00.459806,5888,2025-11-07 17:09:05.476100923
2025-11-07 17:09:00.459806,0,2025-11-07 17:09:05.483793231
2025-11-07 17:09:00.459806,26,2025-11-07 17:09:05.491485538
2025-11-07 17:09:00.459806,8448,2025-11-07 17:09:05.499177846
2025-11-07 17:09:00.459806,0,2025-11-07 17:09:05.506870154
