timestamp,ecg
01:09:03.129446,30
01:09:03.129446,7680
01:09:03.129446,0
01:09:03.129446,26
01:09:03.129446,7168
01:09:03.129446,0
01:09:03.129446,30
01:09:03.129446,8960
01:09:03.129446,0
01:09:03.129446,54
01:09:03.129446,18688
01:09:03.129446,0
01:09:03.129446,80
01:09:03.129446,18688
01:09:03.129446,0
01:09:03.129446,54
01:09:03.129446,11520
01:09:03.129446,0
01:09:03.129446,47
01:09:03.129446,12032
01:09:03.129446,0
01:09:03.129446,42
01:09:03.129446,10752
01:09:03.129446,0
01:09:03.129446,42
01:09:03.129446,9728
01:09:03.129446,0
01:09:03.129446,26
01:09:03.129446,-12032
01:09:03.129446,-1
01:09:03.129446,-187
01:09:03.129446,13055
01:09:03.129446,-1
01:09:03.129446,61
01:09:03.129446,-24064
01:09:03.129446,1
01:09:03.129446,468
01:09:03.129446,1280
01:09:03.129446,1
01:09:03.129446,106
01:09:03.129446,8960
01:09:03.129446,0
01:09:03.129446,0
01:09:03.129446,0
01:09:03.129446,0
01:09:03.129446,7
01:09:03.129446,512
01:09:03.129446,0
01:09:03.129446,7
01:09:03.129446,2304
01:09:03.129446,0
01:09:03.129446,2
01:09:03.129446,0
01:09:03.129446,0
01:09:03.129446,0
01:09:03.129446,512
01:09:03.129446,0
01:09:03.129446,7
01:09:03.129446,1792
01:09:03.129446,0
01:09:03.129446,2
01:09:03.129446,1792
01:09:03.129446,0
01:09:03.129446,21
01:09:03.129446,8448
01:09:03.129446,0
01:09:03.129446,38
01:09:03.129446,12032
01:09:03.129446,0
01:09:03.129446,57
01:09:03.129446,16384
01:09:03.129446,0
01:09:03.129446,78
01:09:03.129446,23040
01:09:03.129446,0
01:09:03.129446,83
01:09:03.129446,16384
01:09:03.129446,0
01:09:03.129446,40
01:09:03.129446,6656
01:09:03.129446,0
01:09:03.129446,23
01:09:03.129446,4096
01:09:03.129446,0
01:09:03.129446,11
01:09:03.129446,2816
01:09:03.129446,0
01:09:03.129446,16
01:09:03.129446,4096
01:09:03.129446,0
01:09:03.129446,14
01:09:03.129446,3584
01:09:03.129446,0
01:09:03.129446,11
01:09:03.129446,2816
01:09:03.129446,0
01:09:03.129446,19
01:09:03.129446,5376
01:09:03.129446,0
01:09:03.129446,16
01:09:03.129446,4864
01:09:03.129446,0
01:09:03.129446,26
01:09:03.129446,5376
01:09:03.129446,0
01:09:03.129446,16
01:09:03.129446,6656
01:09:03.129446,0
01:09:03.129446,30
01:09:03.669289,26
01:09:03.669289,7680
01:09:03.669289,0
01:09:03.669289,38
01:09:03.669289,10240
01:09:03.669289,0
01:09:03.669289,35
01:09:03.669289,8448
01:09:03.669289,0
01:09:03.669289,40
01:09:03.669289,10752
01:09:03.669289,0
01:09:03.669289,33
01:09:03.669289,6656
01:09:03.669289,0
01:09:03.669289,30
01:09:03.669289,8960
01:09:03.669289,0
01:09:03.669289,49
01:09:03.669289,18176
01:09:03.669289,0
01:09:03.669289,83
01:09:03.669289,19968
01:09:03.669289,0
01:09:03.669289,64
01:09:03.669289,12032
01:09:03.669289,0
01:09:03.669289,42
01:09:03.669289,11520
01:09:03.669289,0
01:09:03.669289,45
01:09:03.669289,10240
01:09:03.669289,0
01:09:03.669289,40
01:09:03.669289,10240
01:09:03.669289,0
01:09:03.669289,35
01:09:03.669289,-4096
01:09:03.669289,-1
01:09:03.669289,-144
01:09:03.669289,10495
01:09:03.669289,-1
01:09:03.669289,-38
01:09:03.669289,13055
01:09:03.669289,1
01:09:03.669289,461
01:09:03.669289,16384
01:09:03.669289,1
01:09:03.669289,135
01:09:03.669289,11520
01:09:03.669289,0
01:09:03.669289,9
01:09:03.669289,2304
01:09:03.669289,0
01:09:03.669289,14
01:09:03.669289,1792
01:09:03.669289,0
01:09:03.669289,9
01:09:03.669289,2304
01:09:03.669289,0
01:09:03.669289,9
01:09:03.669289,3584
01:09:03.669289,0
01:09:03.669289,14
01:09:03.669289,1792
01:09:03.669289,0
01:09:03.669289,7
01:09:03.669289,1792
01:09:03.669289,0
01:09:03.669289,7
01:09:03.669289,2304
01:09:03.669289,0
01:09:03.669289,19
01:09:03.669289,5888
01:09:03.669289,0
01:09:03.669289,30
01:09:03.669289,9728
01:09:03.669289,0
01:09:03.669289,47
01:09:03.669289,14592
01:09:03.669289,0
01:09:03.669289,68
01:09:03.669289,19456
01:09:03.669289,0
01:09:03.669289,78
01:09:03.669289,16896
01:09:03.669289,0
01:09:03.669289,47
01:09:03.669289,7680
01:09:03.669289,0
01:09:03.669289,16
01:09:03.669289,1792
01:09:03.669289,0
01:09:03.669289,4
01:09:03.669289,1024
01:09:03.669289,0
01:09:03.669289,4
01:09:03.669289,2304
01:09:03.669289,0
01:09:03.669289,7
01:09:03.669289,1792
01:09:03.669289,0
01:09:03.669289,11
01:09:03.669289,1792
01:09:03.669289,0
01:09:03.669289,7
01:09:03.669289,2816
01:09:03.669289,0
01:09:03.669289,9
01:09:04.208963,4
01:09:04.208963,2816
01:09:04.208963,0
01:09:04.208963,16
01:09:04.208963,4096
01:09:04.208963,0
01:09:04.208963,14
01:09:04.208963,3584
01:09:04.208963,0
01:09:04.208963,16
01:09:04.208963,6656
01:09:04.208963,0
01:09:04.208963,26
01:09:04.208963,6656
01:09:04.208963,0
01:09:04.208963,33
01:09:04.208963,8960
01:09:04.208963,0
01:09:04.208963,35
01:09:04.208963,10240
01:09:04.208963,0
01:09:04.208963,40
01:09:04.208963,10752
01:09:04.208963,0
01:09:04.208963,47
01:09:04.208963,11520
01:09:04.208963,0
01:09:04.208963,42
01:09:04.208963,12032
01:09:04.208963,0
01:09:04.208963,47
01:09:04.208963,10752
01:09:04.208963,0
01:09:04.208963,42
01:09:04.208963,11520
01:09:04.208963,0
01:09:04.208963,42
01:09:04.208963,10240
01:09:04.208963,0
01:09:04.208963,38
01:09:04.208963,8448
01:09:04.208963,0
01:09:04.208963,30
01:09:04.208963,10752
01:09:04.208963,0
01:09:04.208963,57
01:09:04.208963,18688
01:09:04.208963,0
01:09:04.208963,83
01:09:04.208963,19456
01:09:04.208963,0
01:09:04.208963,64
01:09:04.208963,13824
01:09:04.208963,0
01:09:04.208963,52
01:09:04.208963,12544
01:09:04.208963,0
01:09:04.208963,49
01:09:04.208963,12032
01:09:04.208963,0
01:09:04.208963,42
01:09:04.208963,10240
01:09:04.208963,0
01:09:04.208963,30
01:09:04.208963,-11520
01:09:04.208963,-1
01:09:04.208963,-173
01:09:04.208963,21503
01:09:04.208963,-1
01:09:04.208963,80
01:09:04.208963,-32768
01:09:04.208963,1
01:09:04.208963,420
01:09:04.208963,-1280
01:09:04.208963,0
01:09:04.208963,116
01:09:04.208963,8960
01:09:04.208963,0
01:09:04.208963,9
01:09:04.208963,5888
01:09:04.208963,0
01:09:04.208963,21
01:09:04.208963,1792
01:09:04.208963,0
01:09:04.208963,14
01:09:04.208963,4096
01:09:04.208963,0
01:09:04.208963,7
01:09:04.208963,2304
01:09:04.208963,0
01:09:04.208963,14
01:09:04.208963,3584
01:09:04.208963,0
01:09:04.208963,19
01:09:04.208963,5888
01:09:04.208963,0
01:09:04.208963,19
01:09:04.208963,4864
01:09:04.208963,0
01:09:04.208963,23
01:09:04.208963,7680
01:09:04.208963,0
01:09:04.208963,40
01:09:04.208963,12032
01:09:04.208963,0
01:09:04.208963,52
01:09:04.208963,16384
01:09:04.208963,0
01:09:04.208963,73
01:09:04.794335,83
01:09:04.794335,22272
01:09:04.794335,0
01:09:04.794335,83
01:09:04.794335,15616
01:09:04.794335,0
01:09:04.794335,35
01:09:04.794335,5888
01:09:04.794335,0
01:09:04.794335,23
01:09:04.794335,6656
01:09:04.794335,0
01:09:04.794335,19
01:09:04.794335,3584
01:09:04.794335,0
01:09:04.794335,16
01:09:04.794335,5376
01:09:04.794335,0
01:09:04.794335,23
01:09:04.794335,5376
01:09:04.794335,0
01:09:04.794335,19
01:09:04.794335,5888
01:09:04.794335,0
01:09:04.794335,30
01:09:04.794335,8448
01:09:04.794335,0
01:09:04.794335,30
01:09:04.794335,8448
01:09:04.794335,0
01:09:04.794335,35
01:09:04.794335,9728
01:09:04.794335,0
01:09:04.794335,42
01:09:04.794335,12544
01:09:04.794335,0
01:09:04.794335,54
01:09:04.794335,13312
01:09:04.794335,0
01:09:04.794335,49
01:09:04.794335,12544
01:09:04.794335,0
01:09:04.794335,49
01:09:04.794335,13824
01:09:04.794335,0
01:09:04.794335,57
01:09:04.794335,13824
01:09:04.794335,0
01:09:04.794335,52
01:09:04.794335,13312
01:09:04.794335,0
01:09:04.794335,52
01:09:04.794335,13824
01:09:04.794335,0
01:09:04.794335,61
01:09:04.794335,15104
01:09:04.794335,0
01:09:04.794335,54
01:09:04.794335,13824
01:09:04.794335,0
01:09:04.794335,52
01:09:04.794335,13824
01:09:04.794335,0
01:09:04.794335,59
01:09:04.794335,13312
01:09:04.794335,0
01:09:04.794335,45
01:09:04.794335,10240
01:09:04.794335,0
01:09:04.794335,30
01:09:04.794335,7168
01:09:04.794335,0
01:09:04.794335,47
01:09:04.794335,17408
01:09:04.794335,0
01:09:04.794335,76
01:09:04.794335,19456
01:09:04.794335,0
01:09:04.794335,71
01:09:04.794335,15616
01:09:04.794335,0
01:09:04.794335,54
01:09:04.794335,12544
01:09:04.794335,0
01:09:04.794335,47
01:09:04.794335,12032
01:09:04.794335,0
01:09:04.794335,49
01:09:04.794335,12544
01:09:04.794335,0
01:09:04.794335,40
01:09:04.794335,0
01:09:04.794335,0
01:09:04.794335,-111
01:09:04.794335,14335
01:09:04.794335,-1
01:09:04.794335,-66
01:09:04.794335,255
01:09:04.794335,1
01:09:04.794335,444
01:09:04.794335,22016
01:09:04.794335,1
01:09:04.794335,171
01:09:04.794335,18176
01:09:04.794335,0
01:09:04.794335,19
01:09:04.794335,4096
01:09:04.794335,0
01:09:04.794335,23
01:09:05.379915,11
01:09:05.379915,1792
01:09:05.379915,0
01:09:05.379915,9
01:09:05.379915,2816
01:09:05.379915,0
01:09:05.379915,14
01:09:05.379915,4096
01:09:05.379915,0
01:09:05.379915,14
01:09:05.379915,2816
01:09:05.379915,0
01:09:05.379915,11
01:09:05.379915,4096
01:09:05.379915,0
01:09:05.379915,19
01:09:05.379915,4864
01:09:05.379915,0
01:09:05.379915,28
01:09:05.379915,10240
01:09:05.379915,0
01:09:05.379915,52
01:09:05.379915,15616
01:09:05.379915,0
01:09:05.379915,73
01:09:05.379915,21760
01:09:05.379915,0
01:09:05.379915,90
01:09:05.379915,24832
01:09:05.379915,0
01:09:05.379915,99
01:09:05.379915,22272
01:09:05.379915,0
01:09:05.379915,64
01:09:05.379915,11520
01:09:05.379915,0
01:09:05.379915,33
01:09:05.379915,7680
01:09:05.379915,0
01:09:05.379915,30
01:09:05.379915,7168
01:09:05.379915,0
01:09:05.379915,28
01:09:05.379915,7680
01:09:05.379915,0
01:09:05.379915,30
01:09:05.379915,7168
01:09:05.379915,0
01:09:05.379915,30
01:09:05.379915,8448
01:09:05.379915,0
01:09:05.379915,28
01:09:05.379915,7680
01:09:05.379915,0
01:09:05.379915,38
01:09:05.379915,9728
01:09:05.379915,0
01:09:05.379915,33
01:09:05.379915,8960
01:09:05.379915,0
01:09:05.379915,40
01:09:05.379915,10240
01:09:05.379915,0
01:09:05.379915,40
01:09:05.379915,10240
01:09:05.379915,0
01:09:05.379915,45
01:09:05.379915,13824
01:09:05.379915,0
01:09:05.379915,54
01:09:05.379915,13312
01:09:05.379915,0
01:09:05.379915,59
01:09:05.379915,15616
01:09:05.379915,0
01:09:05.379915,59
01:09:05.379915,13824
01:09:05.379915,0
01:09:05.379915,54
01:09:05.379915,14592
01:09:05.379915,0
01:09:05.379915,57
01:09:05.379915,13824
01:09:05.379915,0
01:09:05.379915,54
01:09:05.379915,15104
01:09:05.379915,0
01:09:05.379915,59
01:09:05.379915,13312
01:09:05.379915,0
01:09:05.379915,49
01:09:05.379915,13312
01:09:05.379915,0
01:09:05.379915,52
01:09:05.379915,12544
01:09:05.379915,0
01:09:05.379915,42
01:09:05.379915,7680
01:09:05.379915,0
01:09:05.379915,28
01:09:05.379915,9728
01:09:05.379915,0
01:09:05.379915,57
01:09:05.379915,18688
01:09:05.379915,0
01:09:05.379915,80
01:09:05.379915,18688
01:09:05.379915,0
01:09:05.379915,61
01:09:05.875180,49
01:09:05.875180,12032
01:09:05.875180,0
01:09:05.875180,54
01:09:05.875180,14592
01:09:05.875180,0
01:09:05.875180,49
01:09:05.875180,12032
01:09:05.875180,0
01:09:05.875180,45
01:09:05.875180,7680
01:09:05.875180,0
01:09:05.875180,-47
01:09:05.875180,22783
01:09:05.875180,-1
01:09:05.875180,-161
01:09:05.875180,21503
01:09:05.875180,0
01:09:05.875180,356
01:09:05.875180,-32768
01:09:05.875180,1
01:09:05.875180,256
01:09:05.875180,-29184
01:09:05.875180,0
01:09:05.875180,45
01:09:05.875180,2816
01:09:05.875180,0
01:09:05.875180,33
01:09:05.875180,7680
01:09:05.875180,0
01:09:05.875180,14
01:09:05.875180,5888
01:09:05.875180,0
01:09:05.875180,26
01:09:05.875180,4864
01:09:05.875180,0
01:09:05.875180,21
01:09:05.875180,6656
01:09:05.875180,0
01:09:05.875180,28
01:09:05.875180,8448
01:09:05.875180,0
01:09:05.875180,30
01:09:05.875180,7168
01:09:05.875180,0
01:09:05.875180,30
01:09:05.875180,8448
01:09:05.875180,0
01:09:05.875180,38
01:09:05.875180,12544
01:09:05.875180,0
01:09:05.875180,61
01:09:05.875180,18176
01:09:05.875180,0
01:09:05.875180,83
01:09:05.875180,23552
01:09:05.875180,0
01:09:05.875180,97
01:09:05.875180,25344
01:09:05.875180,0
01:09:05.875180,92
01:09:05.875180,18176
01:09:05.875180,0
01:09:05.875180,40
01:09:05.875180,6656
01:09:05.875180,0
01:09:05.875180,21
01:09:05.875180,4096
01:09:05.875180,0
01:09:05.875180,14
01:09:05.875180,4096
01:09:05.875180,0
01:09:05.875180,14
01:09:05.875180,3584
01:09:05.875180,0
01:09:05.875180,14
01:09:05.875180,2816
01:09:05.875180,0
01:09:05.875180,11
01:09:05.875180,4096
01:09:05.875180,0
01:09:05.875180,19
01:09:05.875180,4864
01:09:05.875180,0
01:09:05.875180,21
01:09:05.875180,4864
01:09:05.875180,0
01:09:05.875180,21
01:09:05.875180,6656
01:09:05.875180,0
01:09:05.875180,30
01:09:05.875180,7680
01:09:05.875180,0
01:09:05.875180,30
01:09:05.875180,7680
01:09:05.875180,0
01:09:05.875180,30
01:09:05.875180,8960
01:09:05.875180,0
01:09:05.875180,40
01:09:05.875180,11520
01:09:05.875180,0
01:09:05.875180,45
01:09:05.875180,11520
01:09:05.875180,0
01:09:05.875180,42
01:09:05.875180,10752
01:09:05.875180,0
01:09:05.875180,45
01:09:06.504514,49
01:09:06.504514,12032
01:09:06.504514,0
01:09:06.504514,47
01:09:06.504514,12544
01:09:06.504514,0
01:09:06.504514,57
01:09:06.504514,13824
01:09:06.504514,0
01:09:06.504514,42
01:09:06.504514,9728
01:09:06.504514,0
01:09:06.504514,33
01:09:06.504514,7168
01:09:06.504514,0
01:09:06.504514,33
01:09:06.504514,13312
01:09:06.504514,0
01:09:06.504514,71
01:09:06.504514,19456
01:09:06.504514,0
01:09:06.504514,66
01:09:06.504514,13824
01:09:06.504514,0
01:09:06.504514,47
01:09:06.504514,12032
01:09:06.504514,0
01:09:06.504514,45
01:09:06.504514,10752
01:09:06.504514,0
01:09:06.504514,42
01:09:06.504514,10752
01:09:06.504514,0
01:09:06.504514,42
01:09:06.504514,3584
01:09:06.504514,0
01:09:06.504514,-90
01:09:06.504514,13055
01:09:06.504514,-1
01:09:06.504514,-116
01:09:06.504514,-11265
01:09:06.504514,0
01:09:06.504514,465
01:09:06.504514,-28928
01:09:06.504514,1
01:09:06.504514,209
01:09:06.504514,24832
01:09:06.504514,0
01:09:06.504514,33
01:09:06.504514,3584
01:09:06.504514,0
01:09:06.504514,23
01:09:06.504514,4864
01:09:06.504514,0
01:09:06.504514,11
01:09:06.504514,4096
01:09:06.504514,0
01:09:06.504514,16
01:09:06.504514,4096
01:09:06.504514,0
01:09:06.504514,19
01:09:06.504514,4864
01:09:06.504514,0
01:09:06.504514,16
01:09:06.504514,4096
01:09:06.504514,0
01:09:06.504514,14
01:09:06.504514,4096
01:09:06.504514,0
01:09:06.504514,19
01:09:06.504514,4864
01:09:06.504514,0
01:09:06.504514,23
01:09:06.504514,8960
01:09:06.504514,0
01:09:06.504514,47
01:09:06.504514,14592
01:09:06.504514,0
01:09:06.504514,68
01:09:06.504514,18688
01:09:06.504514,0
01:09:06.504514,78
01:09:06.504514,19456
01:09:06.504514,0
01:09:06.504514,64
01:09:06.504514,12032
01:09:06.504514,0
01:09:06.504514,35
01:09:06.504514,4864
01:09:06.504514,0
01:09:06.504514,7
01:09:06.504514,2304
01:09:06.504514,0
01:09:06.504514,11
01:09:06.504514,1024
01:09:06.504514,0
01:09:06.504514,4
01:09:06.504514,2304
01:09:06.504514,0
01:09:06.504514,14
01:09:06.504514,5376
01:09:06.504514,0
01:09:06.504514,19
01:09:06.504514,3584
01:09:06.504514,0
01:09:06.504514,16
01:09:06.504514,4864
01:09:06.504514,0
01:09:06.504514,16
01:09:07.044326,14
01:09:07.044326,3584
01:09:07.044326,0
01:09:07.044326,19
01:09:07.044326,5888
01:09:07.044326,0
01:09:07.044326,21
01:09:07.044326,5888
01:09:07.044326,0
01:09:07.044326,28
01:09:07.044326,7680
01:09:07.044326,0
01:09:07.044326,28
01:09:07.044326,6656
01:09:07.044326,0
01:09:07.044326,26
01:09:07.044326,7680
01:09:07.044326,0
01:09:07.044326,38
01:09:07.044326,9728
01:09:07.044326,0
01:09:07.044326,33
01:09:07.044326,8448
01:09:07.044326,0
01:09:07.044326,38
01:09:07.044326,9728
01:09:07.044326,0
01:09:07.044326,38
01:09:07.044326,10240
01:09:07.044326,0
01:09:07.044326,40
01:09:07.044326,10240
01:09:07.044326,0
01:09:07.044326,40
01:09:07.044326,8960
01:09:07.044326,0
01:09:07.044326,35
01:09:07.044326,9728
01:09:07.044326,0
01:09:07.044326,30
01:09:07.044326,5888
01:09:07.044326,0
01:09:07.044326,30
01:09:07.044326,12544
01:09:07.044326,0
01:09:07.044326,71
01:09:07.044326,20480
01:09:07.044326,0
01:09:07.044326,76
01:09:07.044326,15616
01:09:07.044326,0
01:09:07.044326,49
01:09:07.044326,11520
01:09:07.044326,0
01:09:07.044326,45
01:09:07.044326,10752
01:09:07.044326,0
01:09:07.044326,42
01:09:07.044326,10752
01:09:07.044326,0
01:09:07.044326,42
01:09:07.044326,6656
01:09:07.044326,0
01:09:07.044326,-54
01:09:07.044326,20991
01:09:07.044326,-1
01:09:07.044326,-163
01:09:07.044326,25087
01:09:07.044326,0
01:09:07.044326,396
01:09:07.044326,-24064
01:09:07.044326,1
01:09:07.044326,242
01:09:07.044326,27904
01:09:07.044326,0
01:09:07.044326,35
01:09:07.044326,1792
01:09:07.044326,0
01:09:07.044326,11
01:09:07.044326,2304
01:09:07.044326,0
01:09:07.044326,4
01:09:07.044326,2304
01:09:07.044326,0
01:09:07.044326,9
01:09:07.044326,512
01:09:07.044326,0
01:09:07.044326,9
01:09:07.044326,4864
01:09:07.044326,0
01:09:07.044326,16
01:09:07.044326,2816
01:09:07.044326,0
01:09:07.044326,14
01:09:07.044326,3584
01:09:07.044326,0
01:09:07.044326,11
01:09:07.044326,4864
01:09:07.044326,0
01:09:07.044326,28
01:09:07.044326,8448
01:09:07.044326,0
01:09:07.044326,40
01:09:07.044326,12032
01:09:07.044326,0
01:09:07.044326,57
01:09:07.044326,17408
01:09:07.044326,0
01:09:07.044326,78
01:09:07.585028,78
01:09:07.585028,17408
01:09:07.585028,0
01:09:07.585028,49
01:09:07.585028,7168
01:09:07.585028,0
01:09:07.585028,16
01:09:07.585028,2816
01:09:07.585028,0
01:09:07.585028,7
01:09:07.585028,1792
01:09:07.585028,0
01:09:07.585028,11
01:09:07.585028,3584
01:09:07.585028,0
01:09:07.585028,11
01:09:07.585028,2816
01:09:07.585028,0
01:09:07.585028,16
01:09:07.585028,3584
01:09:07.585028,0
01:09:07.585028,11
01:09:07.585028,3584
01:09:07.585028,0
01:09:07.585028,14
01:09:07.585028,4864
01:09:07.585028,0
01:09:07.585028,19
01:09:07.585028,4096
01:09:07.585028,0
01:09:07.585028,14
01:09:07.585028,4096
01:09:07.585028,0
01:09:07.585028,14
01:09:07.585028,4864
01:09:07.585028,0
01:09:07.585028,21
01:09:07.585028,5888
01:09:07.585028,0
01:09:07.585028,26
01:09:07.585028,6656
01:09:07.585028,0
01:09:07.585028,26
01:09:07.585028,7680
01:09:07.585028,0
01:09:07.585028,28
01:09:07.585028,6656
01:09:07.585028,0
01:09:07.585028,28
01:09:07.585028,7680
01:09:07.585028,0
01:09:07.585028,28
01:09:07.585028,7680
01:09:07.585028,0
01:09:07.585028,33
01:09:07.585028,7680
01:09:07.585028,0
01:09:07.585028,26
01:09:07.585028,7680
01:09:07.585028,0
01:09:07.585028,38
01:09:07.585028,8960
01:09:07.585028,0
01:09:07.585028,23
01:09:07.585028,4864
01:09:07.585028,0
01:09:07.585028,26
01:09:07.585028,10240
01:09:07.585028,0
01:09:07.585028,59
01:09:07.585028,18176
01:09:07.585028,0
01:09:07.585028,68
01:09:07.585028,14592
01:09:07.585028,0
01:09:07.585028,45
01:09:07.585028,11520
01:09:07.585028,0
01:09:07.585028,52
01:09:07.585028,12032
01:09:07.585028,0
01:09:07.585028,45
01:09:07.585028,12032
01:09:07.585028,0
01:09:07.585028,40
01:09:07.585028,7680
01:09:07.585028,0
01:09:07.585028,-30
01:09:07.585028,25855
01:09:07.585028,-1
01:09:07.585028,-194
01:09:07.585028,5631
01:09:07.585028,0
01:09:07.585028,346
01:09:07.585028,-17408
01:09:07.585028,1
01:09:07.585028,289
01:09:07.585028,-32256
01:09:07.585028,0
01:09:07.585028,45
01:09:07.585028,1792
01:09:07.585028,0
01:09:07.585028,7
01:09:07.585028,2304
01:09:07.585028,0
01:09:07.585028,2
01:09:07.585028,512
01:09:07.585028,0
01:09:07.585028,9
01:09:08.125233,14
01:09:08.125233,2304
01:09:08.125233,0
01:09:08.125233,9
01:09:08.125233,2816
01:09:08.125233,0
01:09:08.125233,11
01:09:08.125233,1792
01:09:08.125233,0
01:09:08.125233,9
01:09:08.125233,5376
01:09:08.125233,0
01:09:08.125233,28
01:09:08.125233,5888
01:09:08.125233,0
01:09:08.125233,28
01:09:08.125233,10240
01:09:08.125233,0
01:09:08.125233,52
01:09:08.125233,16384
01:09:08.125233,0
01:09:08.125233,76
01:09:08.125233,19968
01:09:08.125233,0
01:09:08.125233,80
01:09:08.125233,19968
01:09:08.125233,0
01:09:08.125233,59
01:09:08.125233,9728
01:09:08.125233,0
01:09:08.125233,28
01:09:08.125233,4864
01:09:08.125233,0
01:09:08.125233,14
01:09:08.125233,4864
01:09:08.125233,0
01:09:08.125233,16
01:09:08.125233,2304
01:09:08.125233,0
01:09:08.125233,9
01:09:08.125233,3584
01:09:08.125233,0
01:09:08.125233,16
01:09:08.125233,3584
01:09:08.125233,0
01:09:08.125233,14
01:09:08.125233,4096
01:09:08.125233,0
01:09:08.125233,21
01:09:08.125233,5888
01:09:08.125233,0
01:09:08.125233,23
01:09:08.125233,6656
01:09:08.125233,0
01:09:08.125233,28
01:09:08.125233,5888
01:09:08.125233,0
01:09:08.125233,26
01:09:08.125233,8448
01:09:08.125233,0
01:09:08.125233,33
01:09:08.125233,8448
01:09:08.125233,0
01:09:08.125233,38
01:09:08.125233,11520
01:09:08.125233,0
01:09:08.125233,45
01:09:08.125233,12032
01:09:08.125233,0
01:09:08.125233,49
01:09:08.125233,12544
01:09:08.125233,0
01:09:08.125233,47
01:09:08.125233,12032
01:09:08.125233,0
01:09:08.125233,45
01:09:08.125233,10752
01:09:08.125233,0
01:09:08.125233,47
01:09:08.125233,12032
01:09:08.125233,0
01:09:08.125233,40
01:09:08.125233,7680
01:09:08.125233,0
01:09:08.125233,28
01:09:08.125233,8960
01:09:08.125233,0
01:09:08.125233,47
01:09:08.125233,16896
01:09:08.125233,0
01:09:08.125233,83
01:09:08.125233,19968
01:09:08.125233,0
01:09:08.125233,66
01:09:08.125233,14592
01:09:08.125233,0
01:09:08.125233,54
01:09:08.125233,14592
01:09:08.125233,0
01:09:08.125233,61
01:09:08.125233,14592
01:09:08.125233,0
01:09:08.125233,49
01:09:08.125233,13312
01:09:08.125233,0
01:09:08.125233,47
01:09:08.125233,-2304
01:09:08.125233,-1
01:09:08.125233,-133
01:09:08.709565,-190
01:09:08.709565,-2049
01:09:08.709565,-1
01:09:08.709565,297
01:09:08.709565,-25856
01:09:08.709565,1
01:09:08.709565,304
01:09:08.709565,-18944
01:09:08.709565,0
01:09:08.709565,80
01:09:08.709565,4096
01:09:08.709565,0
01:09:08.709565,28
01:09:08.709565,9728
01:09:08.709565,0
01:09:08.709565,19
01:09:08.709565,4864
01:09:08.709565,0
01:09:08.709565,26
01:09:08.709565,5888
01:09:08.709565,0
01:09:08.709565,21
01:09:08.709565,5888
01:09:08.709565,0
01:09:08.709565,26
01:09:08.709565,6656
01:09:08.709565,0
01:09:08.709565,26
01:09:08.709565,6656
01:09:08.709565,0
01:09:08.709565,28
01:09:08.709565,7680
01:09:08.709565,0
01:09:08.709565,35
01:09:08.709565,11520
01:09:08.709565,0
01:09:08.709565,54
01:09:08.709565,15616
01:09:08.709565,0
01:09:08.709565,76
01:09:08.709565,22272
01:09:08.709565,0
01:09:08.709565,95
01:09:08.709565,24832
01:09:08.709565,0
01:09:08.709565,87
01:09:08.709565,16896
01:09:08.709565,0
01:09:08.709565,42
01:09:08.709565,5888
01:09:08.709565,0
01:09:08.709565,14
01:09:08.709565,3584
01:09:08.709565,0
01:09:08.709565,11
01:09:08.709565,1792
01:09:08.709565,0
01:09:08.709565,14
01:09:08.709565,5888
01:09:08.709565,0
01:09:08.709565,19
01:09:08.709565,2816
01:09:08.709565,0
01:09:08.709565,14
01:09:08.709565,2816
01:09:08.709565,0
01:09:08.709565,9
01:09:08.709565,3584
01:09:08.709565,0
01:09:08.709565,19
01:09:08.709565,4864
01:09:08.709565,0
01:09:08.709565,19
01:09:08.709565,5376
01:09:08.709565,0
01:09:08.709565,23
01:09:08.709565,6656
01:09:08.709565,0
01:09:08.709565,23
01:09:08.709565,7680
01:09:08.709565,0
01:09:08.709565,35
01:09:08.709565,6656
01:09:08.709565,0
01:09:08.709565,21
01:09:08.709565,8448
01:09:08.709565,0
01:09:08.709565,38
01:09:08.709565,8448
01:09:08.709565,0
01:09:08.709565,28
01:09:08.709565,7168
01:09:08.709565,0
01:09:08.709565,23
01:09:08.709565,4864
01:09:08.709565,0
01:09:08.709565,21
01:09:08.709565,8448
01:09:08.709565,0
01:09:08.709565,52
01:09:08.709565,17408
01:09:08.709565,0
01:09:08.709565,66
01:09:08.709565,15616
01:09:08.709565,0
01:09:08.709565,52
01:09:08.709565,7168
01:09:08.709565,0
01:09:08.709565,16
01:09:09.295560,28
01:09:09.295560,8960
01:09:09.295560,0
01:09:09.295560,30
01:09:09.295560,7168
01:09:09.295560,0
01:09:09.295560,40
01:09:09.295560,2304
01:09:09.295560,0
01:09:09.295560,-125
01:09:09.295560,-1025
01:09:09.295560,-2
01:09:09.295560,-175
01:09:09.295560,-32001
01:09:09.295560,0
01:09:09.295560,373
01:09:09.295560,26880
01:09:09.295560,1
01:09:09.295560,237
01:09:09.295560,29184
01:09:09.295560,0
01:09:09.295560,16
01:09:09.295560,2816
01:09:09.295560,0
01:09:09.295560,26
01:09:09.295560,1792
01:09:09.295560,0
01:09:09.295560,-2
01:09:09.295560,1279
01:09:09.295560,0
01:09:09.295560,11
01:09:09.295560,2304
01:09:09.295560,0
01:09:09.295560,7
01:09:09.295560,1792
01:09:09.295560,0
01:09:09.295560,9
01:09:09.295560,1024
01:09:09.295560,0
01:09:09.295560,7
01:09:09.295560,3584
01:09:09.295560,0
01:09:09.295560,14
01:09:09.295560,4096
01:09:09.295560,0
01:09:09.295560,33
01:09:09.295560,12032
01:09:09.295560,0
01:09:09.295560,54
01:09:09.295560,16896
01:09:09.295560,0
01:09:09.295560,78
01:09:09.295560,22272
01:09:09.295560,0
01:09:09.295560,95
01:09:09.295560,22272
01:09:09.295560,0
01:09:09.295560,71
01:09:09.295560,12544
01:09:09.295560,0
01:09:09.295560,23
01:09:09.295560,1792
01:09:09.295560,0
01:09:09.295560,7
01:09:09.295560,1792
01:09:09.295560,0
01:09:09.295560,0
01:09:09.295560,0
01:09:09.295560,0
01:09:09.295560,9
01:09:09.295560,2816
01:09:09.295560,0
01:09:09.295560,2
01:09:09.295560,0
01:09:09.295560,0
01:09:09.295560,4
01:09:09.295560,1792
01:09:09.295560,0
01:09:09.295560,11
01:09:09.295560,2304
01:09:09.295560,0
01:09:09.295560,7
01:09:09.295560,2304
01:09:09.295560,0
01:09:09.295560,7
01:09:09.295560,1792
01:09:09.295560,0
01:09:09.295560,14
01:09:09.295560,4864
01:09:09.295560,0
01:09:09.295560,19
01:09:09.295560,4864
01:09:09.295560,0
01:09:09.295560,21
01:09:09.295560,5376
01:09:09.295560,0
01:09:09.295560,21
01:09:09.295560,4096
01:09:09.295560,0
01:09:09.295560,7
01:09:09.295560,2816
01:09:09.295560,0
01:09:09.295560,28
01:09:09.295560,8960
01:09:09.295560,0
01:09:09.295560,38
01:09:09.295560,14592
01:09:09.295560,0
01:09:09.295560,66
01:09:09.833993,47
01:09:09.833993,7680
01:09:09.833993,0
01:09:09.833993,30
01:09:09.833993,8448
01:09:09.833993,0
01:09:09.833993,38
01:09:09.833993,9728
01:09:09.833993,0
01:09:09.833993,33
01:09:09.833993,8448
01:09:09.833993,0
01:09:09.833993,28
01:09:09.833993,-11520
01:09:09.833993,-1
01:09:09.833993,-211
01:09:09.833993,-10241
01:09:09.833993,-2
01:09:09.833993,-76
01:09:09.833993,11263
01:09:09.833993,1
01:09:09.833993,449
01:09:09.833993,26112
01:09:09.833993,1
01:09:09.833993,204
01:09:09.833993,11520
01:09:09.833993,0
01:09:09.833993,-19
01:09:09.833993,3071
01:09:09.833993,0
01:09:09.833993,11
01:09:09.833993,-2304
01:09:09.833993,-1
01:09:09.833993,0
01:09:09.833993,1792
01:09:09.833993,0
01:09:09.833993,0
01:09:09.833993,2304
01:09:09.833993,0
01:09:09.833993,9
01:09:09.833993,1792
01:09:09.833993,0
01:09:09.833993,9
01:09:09.833993,2304
01:09:09.833993,0
01:09:09.833993,9
01:09:09.833993,3584
01:09:09.833993,0
01:09:09.833993,11
01:09:09.833993,2816
01:09:09.833993,0
01:09:09.833993,23
01:09:09.833993,10752
01:09:09.833993,0
01:09:09.833993,57
01:09:09.833993,16896
01:09:09.833993,0
01:09:09.833993,80
01:09:09.833993,25344
01:09:09.833993,0
01:09:09.833993,106
01:09:09.833993,21760
01:09:09.833993,0
01:09:09.833993,59
01:09:09.833993,10752
01:09:09.833993,0
01:09:09.833993,30
01:09:09.833993,6656
01:09:09.833993,0
01:09:09.833993,26
01:09:09.833993,5888
01:09:09.833993,0
01:09:09.833993,21
01:09:09.833993,7168
01:09:09.833993,0
01:09:09.833993,28
01:09:09.833993,4864
01:09:09.833993,0
01:09:09.833993,23
01:09:09.833993,7680
01:09:09.833993,0
01:09:09.833993,21
01:09:09.833993,4096
01:09:09.833993,0
01:09:09.833993,21
01:09:09.833993,2816
01:09:09.833993,0
01:09:09.833993,11
01:09:09.833993,6656
01:09:09.833993,0
01:09:09.833993,26
01:09:09.833993,4096
01:09:09.833993,0
01:09:09.833993,26
01:09:09.833993,7680
01:09:09.833993,0
01:09:09.833993,23
01:09:09.833993,3584
01:09:09.833993,0
01:09:09.833993,2
01:09:09.833993,-512
01:09:09.833993,-1
01:09:09.833993,9
01:09:09.833993,7168
01:09:09.833993,0
01:09:09.833993,54
01:09:09.833993,15616
01:09:09.833993,0
01:09:09.833993,54
01:09:10.419409,57
01:09:10.419409,11520
01:09:10.419409,0
01:09:10.419409,14
01:09:10.419409,2304
01:09:10.419409,0
01:09:10.419409,23
01:09:10.419409,5888
01:09:10.419409,0
01:09:10.419409,30
01:09:10.419409,8448
01:09:10.419409,0
01:09:10.419409,7
01:09:10.419409,-25344
01:09:10.419409,-1
01:09:10.419409,-285
01:09:10.419409,-19969
01:09:10.419409,-2
01:09:10.419409,-47
01:09:10.419409,22783
01:09:10.419409,1
01:09:10.419409,451
01:09:10.419409,15872
01:09:10.419409,1
01:09:10.419409,135
01:09:10.419409,-2304
01:09:10.419409,-1
01:09:10.419409,-21
01:09:10.419409,1279
01:09:10.419409,0
01:09:10.419409,-23
01:09:10.419409,-6913
01:09:10.419409,-1
01:09:10.419409,-19
01:09:10.419409,-7425
01:09:10.419409,-1
01:09:10.419409,-33
01:09:10.419409,-5121
01:09:10.419409,-1
01:09:10.419409,-28
01:09:10.419409,-8705
01:09:10.419409,-1
01:09:10.419409,-26
01:09:10.419409,-6401
01:09:10.419409,-1
01:09:10.419409,-16
01:09:10.419409,-2561
01:09:10.419409,-1
01:09:10.419409,-23
01:09:10.419409,-6401
01:09:10.419409,-1
01:09:10.419409,-14
01:09:10.419409,2047
01:09:10.419409,0
01:09:10.419409,21
01:09:10.419409,6656
01:09:10.419409,0
01:09:10.419409,47
01:09:10.419409,18176
01:09:10.419409,0
01:09:10.419409,57
01:09:10.419409,9728
01:09:10.419409,0
01:09:10.419409,38
01:09:10.419409,8448
01:09:10.419409,0
01:09:10.419409,16
01:09:10.419409,4096
01:09:10.419409,0
01:09:10.419409,23
01:09:10.419409,5888
01:09:10.419409,0
01:09:10.419409,30
01:09:10.419409,8960
01:09:10.419409,0
01:09:10.419409,26
01:09:10.419409,8960
01:09:10.419409,0
01:09:10.419409,38
01:09:10.419409,5376
01:09:10.419409,0
01:09:10.419409,28
01:09:10.419409,10752
01:09:10.419409,0
01:09:10.419409,23
01:09:10.419409,3584
01:09:10.419409,0
01:09:10.419409,38
01:09:10.419409,11520
01:09:10.419409,0
01:09:10.419409,33
01:09:10.419409,8960
01:09:10.419409,0
01:09:10.419409,45
01:09:10.419409,10752
01:09:10.419409,0
01:09:10.419409,40
01:09:10.419409,10240
01:09:10.419409,0
01:09:10.419409,28
01:09:10.419409,8448
01:09:10.419409,0
01:09:10.419409,45
01:09:10.419409,13824
01:09:10.419409,0
01:09:10.419409,78
01:09:10.419409,24832
01:09:10.419409,0
01:09:10.419409,85
01:09:10.959752,61
01:09:10.959752,12544
01:09:10.959752,0
01:09:10.959752,57
01:09:10.959752,14592
01:09:10.959752,0
01:09:10.959752,47
01:09:10.959752,13312
01:09:10.959752,0
01:09:10.959752,57
01:09:10.959752,9728
01:09:10.959752,0
01:09:10.959752,-33
01:09:10.959752,16127
01:09:10.959752,-1
01:09:10.959752,-311
01:09:10.959752,-32513
01:09:10.959752,-1
01:09:10.959752,263
01:09:10.959752,-12544
01:09:10.959752,1
01:09:10.959752,384
01:09:10.959752,-11520
01:09:10.959752,0
01:09:10.959752,38
01:09:10.959752,-4096
01:09:10.959752,-1
01:09:10.959752,23
01:09:10.959752,4864
01:09:10.959752,0
01:09:10.959752,-9
01:09:10.959752,767
01:09:10.959752,0
01:09:10.959752,11
01:09:10.959752,-512
01:09:10.959752,-1
01:09:10.959752,-4
01:09:10.959752,767
01:09:10.959752,0
01:09:10.959752,0
01:09:10.959752,-1792
01:09:10.959752,-1
01:09:10.959752,-7
01:09:10.959752,-769
01:09:10.959752,-1
01:09:10.959752,-4
01:09:10.959752,-257
01:09:10.959752,-1
01:09:10.959752,0
01:09:10.959752,1792
01:09:10.959752,0
01:09:10.959752,23
01:09:10.959752,9728
01:09:10.959752,0
01:09:10.959752,57
01:09:10.959752,17408
01:09:10.959752,0
01:09:10.959752,76
01:09:10.959752,19968
01:09:10.959752,0
01:09:10.959752,71
01:09:10.959752,13824
01:09:10.959752,0
01:09:10.959752,38
01:09:10.959752,10240
01:09:10.959752,0
01:09:10.959752,40
01:09:10.959752,8960
01:09:10.959752,0
01:09:10.959752,33
01:09:10.959752,8960
01:09:10.959752,0
01:09:10.959752,38
01:09:10.959752,9728
01:09:10.959752,0
01:09:10.959752,35
01:09:10.959752,8960
01:09:10.959752,0
01:09:10.959752,42
01:09:10.959752,11520
01:09:10.959752,0
01:09:10.959752,42
01:09:10.959752,12032
01:09:10.959752,0
01:09:10.959752,54
01:09:10.959752,13824
01:09:10.959752,0
01:09:10.959752,47
01:09:10.959752,12544
01:09:10.959752,0
01:09:10.959752,59
01:09:10.959752,16384
01:09:10.959752,0
01:09:10.959752,59
01:09:10.959752,15104
01:09:10.959752,0
01:09:10.959752,68
01:09:10.959752,17408
01:09:10.959752,0
01:09:10.959752,64
01:09:10.959752,17408
01:09:10.959752,0
01:09:10.959752,64
01:09:10.959752,13312
01:09:10.959752,0
01:09:10.959752,47
01:09:10.959752,13824
01:09:10.959752,0
01:09:10.959752,73
01:09:11.499606,97
01:09:11.499606,27904
01:09:11.499606,0
01:09:11.499606,106
01:09:11.499606,24320
01:09:11.499606,0
01:09:11.499606,80
01:09:11.499606,19968
01:09:11.499606,0
01:09:11.499606,80
01:09:11.499606,21248
01:09:11.499606,0
01:09:11.499606,85
01:09:11.499606,21248
01:09:11.499606,0
01:09:11.499606,71
01:09:11.499606,512
01:09:11.499606,0
01:09:11.499606,-161
01:09:11.499606,-2305
01:09:11.499606,-2
01:09:11.499606,-78
01:09:11.499606,9471
01:09:11.499606,1
01:09:11.499606,463
01:09:11.499606,-31488
01:09:11.499606,1
01:09:11.499606,242
01:09:11.499606,19968
01:09:11.499606,0
01:09:11.499606,9
01:09:11.499606,11520
01:09:11.499606,0
01:09:11.499606,47
01:09:11.499606,6656
01:09:11.499606,0
01:09:11.499606,38
01:09:11.499606,10240
01:09:11.499606,0
01:09:11.499606,26
01:09:11.499606,6656
01:09:11.499606,0
01:09:11.499606,33
01:09:11.499606,7168
01:09:11.499606,0
01:09:11.499606,26
01:09:11.499606,5888
01:09:11.499606,0
01:09:11.499606,21
01:09:11.499606,5888
01:09:11.499606,0
01:09:11.499606,21
01:09:11.499606,6656
01:09:11.499606,0
01:09:11.499606,33
01:09:11.499606,10752
01:09:11.499606,0
01:09:11.499606,57
01:09:11.499606,18176
01:09:11.499606,0
01:09:11.499606,80
01:09:11.499606,23552
01:09:11.499606,0
01:09:11.499606,99
01:09:11.499606,24832
01:09:11.499606,0
01:09:11.499606,78
01:09:11.499606,15104
01:09:11.499606,0
01:09:11.499606,52
01:09:11.499606,13312
01:09:11.499606,0
01:09:11.499606,47
01:09:11.499606,12032
01:09:11.499606,0
01:09:11.499606,54
01:09:11.499606,12544
01:09:11.499606,0
01:09:11.499606,42
01:09:11.499606,10240
01:09:11.499606,0
01:09:11.499606,42
01:09:11.499606,10752
01:09:11.499606,0
01:09:11.499606,42
01:09:11.499606,10240
01:09:11.499606,0
01:09:11.499606,40
01:09:11.499606,12032
01:09:11.499606,0
01:09:11.499606,47
01:09:11.499606,12544
01:09:11.499606,0
01:09:11.499606,52
01:09:11.499606,13824
01:09:11.499606,0
01:09:11.499606,54
01:09:11.499606,12544
01:09:11.499606,0
01:09:11.499606,47
01:09:11.499606,14592
01:09:11.499606,0
01:09:11.499606,61
01:09:11.499606,12544
01:09:11.499606,0
01:09:11.499606,38
01:09:11.499606,9728
01:09:11.499606,0
01:09:11.499606,40
01:09:12.084995,52
01:09:12.084995,19968
01:09:12.084995,0
01:09:12.084995,90
01:09:12.084995,22272
01:09:12.084995,0
01:09:12.084995,78
01:09:12.084995,16384
01:09:12.084995,0
01:09:12.084995,61
01:09:12.084995,18176
01:09:12.084995,0
01:09:12.084995,68
01:09:12.084995,16384
01:09:12.084995,0
01:09:12.084995,61
01:09:12.084995,15616
01:09:12.084995,0
01:09:12.084995,30
01:09:12.084995,-26112
01:09:12.084995,-1
01:09:12.084995,-270
01:09:12.084995,14335
01:09:12.084995,-1
01:09:12.084995,182
01:09:12.084995,-512
01:09:12.084995,1
01:09:12.084995,475
01:09:12.084995,3584
01:09:12.084995,1
01:09:12.084995,109
01:09:12.084995,4864
01:09:12.084995,0
01:09:12.084995,11
01:09:12.084995,5888
01:09:12.084995,0
01:09:12.084995,7
01:09:12.084995,512
01:09:12.084995,0
01:09:12.084995,7
01:09:12.084995,1792
01:09:12.084995,0
01:09:12.084995,7
01:09:12.084995,1024
01:09:12.084995,0
01:09:12.084995,4
01:09:12.084995,512
01:09:12.084995,0
01:09:12.084995,-2
01:09:12.084995,-769
01:09:12.084995,-1
01:09:12.084995,0
01:09:12.084995,1792
01:09:12.084995,0
01:09:12.084995,9
01:09:12.084995,2304
01:09:12.084995,0
01:09:12.084995,16
01:09:12.084995,8448
01:09:12.084995,0
01:09:12.084995,47
01:09:12.084995,15616
01:09:12.084995,0
01:09:12.084995,76
01:09:12.084995,21248
01:09:12.084995,0
01:09:12.084995,78
01:09:12.084995,16896
01:09:12.084995,0
01:09:12.084995,49
01:09:12.084995,8960
01:09:12.084995,0
01:09:12.084995,26
01:09:12.084995,5888
01:09:12.084995,0
01:09:12.084995,28
01:09:12.084995,7168
01:09:12.084995,0
01:09:12.084995,28
01:09:12.084995,7680
01:09:12.084995,0
01:09:12.084995,33
01:09:12.084995,7168
01:09:12.084995,0
01:09:12.084995,26
01:09:12.084995,6656
01:09:12.084995,0
01:09:12.084995,28
01:09:12.084995,8448
01:09:12.084995,0
01:09:12.084995,40
01:09:12.084995,9728
01:09:12.084995,0
01:09:12.084995,30
01:09:12.084995,8448
01:09:12.084995,0
01:09:12.084995,38
01:09:12.084995,10752
01:09:12.084995,0
01:09:12.084995,45
01:09:12.084995,10752
01:09:12.084995,0
01:09:12.084995,35
01:09:12.084995,6656
01:09:12.084995,0
01:09:12.084995,21
01:09:12.084995,6656
01:09:12.084995,0
01:09:12.084995,26
01:09:12.625928,33
01:09:12.625928,14592
01:09:12.625928,0
01:09:12.625928,76
01:09:12.625928,19968
01:09:12.625928,0
01:09:12.625928,68
01:09:12.625928,13312
01:09:12.625928,0
01:09:12.625928,42
01:09:12.625928,13312
01:09:12.625928,0
01:09:12.625928,57
01:09:12.625928,14592
01:09:12.625928,0
01:09:12.625928,59
01:09:12.625928,14592
01:09:12.625928,0
01:09:12.625928,38
01:09:12.625928,-15616
01:09:12.625928,-1
01:09:12.625928,-242
01:09:12.625928,-5889
01:09:12.625928,-2
01:09:12.625928,49
01:09:12.625928,-8960
01:09:12.625928,1
01:09:12.625928,541
01:09:12.625928,17152
01:09:12.625928,1
01:09:12.625928,135
01:09:12.625928,6656
01:09:12.625928,0
01:09:12.625928,-2
01:09:12.625928,2559
01:09:12.625928,0
01:09:12.625928,4
01:09:12.625928,-512
01:09:12.625928,-1
01:09:12.625928,4
01:09:12.625928,2304
01:09:12.625928,0
01:09:12.625928,4
01:09:12.625928,512
01:09:12.625928,0
01:09:12.625928,2
01:09:12.625928,0
01:09:12.625928,0
01:09:12.625928,-4
01:09:12.625928,-769
01:09:12.625928,-1
01:09:12.625928,-2
01:09:12.625928,-257
01:09:12.625928,-1
01:09:12.625928,2
01:09:12.625928,2816
01:09:12.625928,0
01:09:12.625928,23
01:09:12.625928,8960
01:09:12.625928,0
01:09:12.625928,49
01:09:12.625928,16384
01:09:12.625928,0
01:09:12.625928,76
01:09:12.625928,21760
01:09:12.625928,0
01:09:12.625928,83
01:09:12.625928,19456
01:09:12.625928,0
01:09:12.625928,64
01:09:12.625928,12032
01:09:12.625928,0
01:09:12.625928,38
01:09:12.625928,8448
01:09:12.625928,0
01:09:12.625928,30
01:09:12.625928,7680
01:09:12.625928,0
01:09:12.625928,35
01:09:12.625928,9728
01:09:12.625928,0
01:09:12.625928,35
01:09:12.625928,8448
01:09:12.625928,0
01:09:12.625928,35
01:09:12.625928,9728
01:09:12.625928,0
01:09:12.625928,38
01:09:12.625928,8960
01:09:12.625928,0
01:09:12.625928,35
01:09:12.625928,8960
01:09:12.625928,0
01:09:12.625928,38
01:09:12.625928,10240
01:09:12.625928,0
01:09:12.625928,40
01:09:12.625928,10240
01:09:12.625928,0
01:09:12.625928,35
01:09:12.625928,8448
01:09:12.625928,0
01:09:12.625928,40
01:09:12.625928,12032
01:09:12.625928,0
01:09:12.625928,38
01:09:12.625928,7168
01:09:12.625928,0
01:09:12.625928,26
01:09:13.210623,26
01:09:13.210623,8448
01:09:13.210623,0
01:09:13.210623,54
01:09:13.210623,18176
01:09:13.210623,0
01:09:13.210623,78
01:09:13.210623,19968
01:09:13.210623,0
01:09:13.210623,68
01:09:13.210623,13312
01:09:13.210623,0
01:09:13.210623,54
01:09:13.210623,15104
01:09:13.210623,0
01:09:13.210623,52
01:09:13.210623,12032
01:09:13.210623,0
01:09:13.210623,47
01:09:13.210623,12544
01:09:13.210623,0
01:09:13.210623,0
01:09:13.210623,26112
01:09:13.210623,-1
01:09:13.210623,-278
01:09:13.210623,-24577
01:09:13.210623,-1
01:09:13.210623,337
01:09:13.210623,13056
01:09:13.210623,2
01:09:13.210623,413
01:09:13.210623,-16384
01:09:13.210623,0
01:09:13.210623,66
01:09:13.210623,1792
01:09:13.210623,0
01:09:13.210623,7
01:09:13.210623,3584
01:09:13.210623,0
01:09:13.210623,4
01:09:13.210623,512
01:09:13.210623,0
01:09:13.210623,4
01:09:13.210623,1792
01:09:13.210623,0
01:09:13.210623,7
01:09:13.210623,1024
01:09:13.210623,0
01:09:13.210623,0
01:09:13.210623,-512
01:09:13.210623,-1
01:09:13.210623,-4
01:09:13.210623,-769
01:09:13.210623,-1
01:09:13.210623,0
01:09:13.210623,-512
01:09:13.210623,-1
01:09:13.210623,2
01:09:13.210623,4096
01:09:13.210623,0
01:09:13.210623,30
01:09:13.210623,10752
01:09:13.210623,0
01:09:13.210623,57
01:09:13.210623,18176
01:09:13.210623,0
01:09:13.210623,78
01:09:13.210623,22272
01:09:13.210623,0
01:09:13.210623,87
01:09:13.210623,18176
01:09:13.210623,0
01:09:13.210623,49
01:09:13.210623,10240
01:09:13.210623,0
01:09:13.210623,30
01:09:13.210623,5888
01:09:13.210623,0
01:09:13.210623,26
01:09:13.210623,5888
01:09:13.210623,0
01:09:13.210623,21
01:09:13.210623,5376
01:09:13.210623,0
01:09:13.210623,23
01:09:13.210623,4864
01:09:13.210623,0
01:09:13.210623,14
01:09:13.210623,4864
01:09:13.210623,0
01:09:13.210623,21
01:09:13.210623,4864
01:09:13.210623,0
01:09:13.210623,19
01:09:13.210623,5376
01:09:13.210623,0
01:09:13.210623,19
01:09:13.210623,4096
01:09:13.210623,0
01:09:13.210623,21
01:09:13.210623,5888
01:09:13.210623,0
01:09:13.210623,21
01:09:13.210623,5888
01:09:13.210623,0
01:09:13.210623,28
01:09:13.210623,7168
01:09:13.210623,0
01:09:13.210623,23
01:09:13.749658,21
01:09:13.749658,4864
01:09:13.749658,0
01:09:13.749658,14
01:09:13.749658,2816
01:09:13.749658,0
01:09:13.749658,19
01:09:13.749658,7168
01:09:13.749658,0
01:09:13.749658,42
01:09:13.749658,16384
01:09:13.749658,0
01:09:13.749658,73
01:09:13.749658,17408
01:09:13.749658,0
01:09:13.749658,57
01:09:13.749658,12032
01:09:13.749658,0
01:09:13.749658,40
01:09:13.749658,10752
01:09:13.749658,0
01:09:13.749658,49
01:09:13.749658,13312
01:09:13.749658,0
01:09:13.749658,47
01:09:13.749658,10240
01:09:13.749658,0
01:09:13.749658,2
01:09:13.749658,-30976
01:09:13.749658,-1
01:09:13.749658,-263
01:09:13.749658,22015
01:09:13.749658,-1
01:09:13.749658,223
01:09:13.749658,5120
01:09:13.749658,2
01:09:13.749658,446
01:09:13.749658,-12032
01:09:13.749658,0
01:09:13.749658,71
01:09:13.749658,2304
01:09:13.749658,0
01:09:13.749658,-4
01:09:13.749658,1279
01:09:13.749658,0
01:09:13.749658,-7
01:09:13.749658,-3329
01:09:13.749658,-1
01:09:13.749658,-4
01:09:13.749658,-257
01:09:13.749658,-1
01:09:13.749658,-11
01:09:13.749658,-3329
01:09:13.749658,-1
01:09:13.749658,-9
01:09:13.749658,-1537
01:09:13.749658,-1
01:09:13.749658,0
01:09:13.749658,512
01:09:13.749658,0
01:09:13.749658,0
01:09:13.749658,0
01:09:13.749658,0
01:09:13.749658,4
01:09:13.749658,3584
01:09:13.749658,0
01:09:13.749658,28
01:09:13.749658,10240
01:09:13.749658,0
01:09:13.749658,54
01:09:13.749658,16384
01:09:13.749658,0
01:09:13.749658,73
01:09:13.749658,21248
01:09:13.749658,0
01:09:13.749658,83
01:09:13.749658,15616
01:09:13.749658,0
01:09:13.749658,42
01:09:13.749658,7680
01:09:13.749658,0
01:09:13.749658,19
01:09:13.749658,2816
01:09:13.749658,0
01:09:13.749658,11
01:09:13.749658,3584
01:09:13.749658,0
01:09:13.749658,16
01:09:13.749658,2816
01:09:13.749658,0
01:09:13.749658,4
01:09:13.749658,2816
01:09:13.749658,0
01:09:13.749658,19
01:09:13.749658,4864
01:09:13.749658,0
01:09:13.749658,16
01:09:13.749658,4864
01:09:13.749658,0
01:09:13.749658,19
01:09:13.749658,3584
01:09:13.749658,0
01:09:13.749658,16
01:09:13.749658,4864
01:09:13.749658,0
01:09:13.749658,21
01:09:13.749658,5888
01:09:13.749658,0
01:09:13.749658,23
01:09:14.335901,28
01:09:14.335901,8448
01:09:14.335901,0
01:09:14.335901,30
01:09:14.335901,7168
01:09:14.335901,0
01:09:14.335901,30
01:09:14.335901,7680
01:09:14.335901,0
01:09:14.335901,26
01:09:14.335901,7168
01:09:14.335901,0
01:09:14.335901,28
01:09:14.335901,7168
01:09:14.335901,0
01:09:14.335901,42
01:09:14.335901,16896
01:09:14.335901,0
01:09:14.335901,76
01:09:14.335901,19456
01:09:14.335901,0
01:09:14.335901,66
01:09:14.335901,13312
01:09:14.335901,0
01:09:14.335901,49
01:09:14.335901,12544
01:09:14.335901,0
01:09:14.335901,45
01:09:14.335901,12032
01:09:14.335901,0
01:09:14.335901,49
01:09:14.335901,10752
01:09:14.335901,0
01:09:14.335901,14
01:09:14.335901,-24832
01:09:14.335901,-1
01:09:14.335901,-242
01:09:14.335901,20223
01:09:14.335901,-1
01:09:14.335901,187
01:09:14.335901,2048
01:09:14.335901,2
01:09:14.335901,470
01:09:14.335901,-7936
01:09:14.335901,0
01:09:14.335901,90
01:09:14.335901,9728
01:09:14.335901,0
01:09:14.335901,14
01:09:14.335901,3584
01:09:14.335901,0
01:09:14.335901,9
01:09:14.335901,512
01:09:14.335901,0
01:09:14.335901,9
01:09:14.335901,3584
01:09:14.335901,0
01:09:14.335901,9
01:09:14.335901,512
01:09:14.335901,0
01:09:14.335901,4
01:09:14.335901,1792
01:09:14.335901,0
01:09:14.335901,2
01:09:14.335901,0
01:09:14.335901,0
01:09:14.335901,2
01:09:14.335901,1792
01:09:14.335901,0
01:09:14.335901,14
01:09:14.335901,5888
01:09:14.335901,0
01:09:14.335901,35
01:09:14.335901,12032
01:09:14.335901,0
01:09:14.335901,54
01:09:14.335901,16896
01:09:14.335901,0
01:09:14.335901,83
01:09:14.335901,22272
01:09:14.335901,0
01:09:14.335901,80
01:09:14.335901,17408
01:09:14.335901,0
01:09:14.335901,49
01:09:14.335901,7680
01:09:14.335901,0
01:09:14.335901,21
01:09:14.335901,4096
01:09:14.335901,0
01:09:14.335901,11
01:09:14.335901,2816
01:09:14.335901,0
01:09:14.335901,16
01:09:14.335901,4864
01:09:14.335901,0
01:09:14.335901,21
01:09:14.335901,4096
01:09:14.335901,0
01:09:14.335901,14
01:09:14.335901,4096
01:09:14.335901,0
01:09:14.335901,21
01:09:14.335901,5376
01:09:14.335901,0
01:09:14.335901,19
01:09:14.335901,5376
01:09:14.335901,0
01:09:14.335901,21
01:09:14.877463,21
01:09:14.877463,6656
01:09:14.877463,0
01:09:14.877463,28
01:09:14.877463,6656
01:09:14.877463,0
01:09:14.877463,30
01:09:14.877463,7680
01:09:14.877463,0
01:09:14.877463,28
01:09:14.877463,7680
01:09:14.877463,0
01:09:14.877463,33
01:09:14.877463,8960
01:09:14.877463,0
01:09:14.877463,35
01:09:14.877463,10240
01:09:14.877463,0
01:09:14.877463,42
01:09:14.877463,11520
01:09:14.877463,0
01:09:14.877463,47
01:09:14.877463,12032
01:09:14.877463,0
01:09:14.877463,45
01:09:14.877463,10752
01:09:14.877463,0
01:09:14.877463,38
01:09:14.877463,7680
01:09:14.877463,0
01:09:14.877463,30
01:09:14.877463,12032
01:09:14.877463,0
01:09:14.877463,76
01:09:14.877463,23040
01:09:14.877463,0
01:09:14.877463,85
01:09:14.877463,18688
01:09:14.877463,0
01:09:14.877463,59
01:09:14.877463,14592
01:09:14.877463,0
01:09:14.877463,57
01:09:14.877463,12032
01:09:14.877463,0
01:09:14.877463,49
01:09:14.877463,14592
01:09:14.877463,0
01:09:14.877463,52
01:09:14.877463,2304
01:09:14.877463,0
01:09:14.877463,-111
01:09:14.877463,5119
01:09:14.877463,-1
01:09:14.877463,-125
01:09:14.877463,-1025
01:09:14.877463,0
01:09:14.877463,525
01:09:14.877463,-21760
01:09:14.877463,1
01:09:14.877463,201
01:09:14.877463,20480
01:09:14.877463,0
01:09:14.877463,21
01:09:14.877463,0
01:09:14.877463,0
01:09:14.877463,11
01:09:14.877463,2304
01:09:14.877463,0
01:09:14.877463,-2
01:09:14.877463,255
01:09:14.877463,0
01:09:14.877463,9
01:09:14.877463,1792
01:09:14.877463,0
01:09:14.877463,2
01:09:14.877463,-512
01:09:14.877463,-1
01:09:14.877463,-4
01:09:14.877463,255
01:09:14.877463,0
01:09:14.877463,7
01:09:14.877463,1024
01:09:14.877463,0
01:09:14.877463,7
01:09:14.877463,2816
01:09:14.877463,0
01:09:14.877463,16
01:09:14.877463,7680
01:09:14.877463,0
01:09:14.877463,42
01:09:14.877463,12544
01:09:14.877463,0
01:09:14.877463,61
01:09:14.877463,19456
01:09:14.877463,0
01:09:14.877463,83
01:09:14.877463,19968
01:09:14.877463,0
01:09:14.877463,68
01:09:14.877463,12544
01:09:14.877463,0
01:09:14.877463,26
01:09:14.877463,3584
01:09:14.877463,0
01:09:14.877463,9
01:09:14.877463,1792
01:09:14.877463,0
01:09:14.877463,9
01:09:15.415777,9
01:09:15.415777,1024
01:09:15.415777,0
01:09:15.415777,2
01:09:15.415777,1024
01:09:15.415777,0
01:09:15.415777,14
01:09:15.415777,4096
01:09:15.415777,0
01:09:15.415777,14
01:09:15.415777,4864
01:09:15.415777,0
01:09:15.415777,26
01:09:15.415777,5888
01:09:15.415777,0
01:09:15.415777,21
01:09:15.415777,5888
01:09:15.415777,0
01:09:15.415777,30
01:09:15.415777,7680
01:09:15.415777,0
01:09:15.415777,28
01:09:15.415777,8960
01:09:15.415777,0
01:09:15.415777,42
01:09:15.415777,11520
01:09:15.415777,0
01:09:15.415777,47
01:09:15.415777,12032
01:09:15.415777,0
01:09:15.415777,52
01:09:15.415777,14592
01:09:15.415777,0
01:09:15.415777,49
01:09:15.415777,10752
01:09:15.415777,0
01:09:15.415777,47
01:09:15.415777,13312
01:09:15.415777,0
01:09:15.415777,52
01:09:15.415777,12544
01:09:15.415777,0
01:09:15.415777,47
01:09:15.415777,10240
01:09:15.415777,0
01:09:15.415777,33
01:09:15.415777,7168
01:09:15.415777,0
01:09:15.415777,23
01:09:15.415777,8960
01:09:15.415777,0
01:09:15.415777,64
01:09:15.415777,20480
01:09:15.415777,0
01:09:15.415777,71
01:09:15.415777,15616
01:09:15.415777,0
01:09:15.415777,52
01:09:15.415777,10752
01:09:15.415777,0
01:09:15.415777,40
01:09:15.415777,10752
01:09:15.415777,0
01:09:15.415777,45
01:09:15.415777,8960
01:09:15.415777,0
01:09:15.415777,30
01:09:15.415777,4864
01:09:15.415777,0
01:09:15.415777,-78
01:09:15.415777,8703
01:09:15.415777,-1
01:09:15.415777,-185
01:09:15.415777,-28929
01:09:15.415777,0
01:09:15.415777,468
01:09:15.415777,-14336
01:09:15.415777,1
01:09:15.415777,237
01:09:15.415777,22272
01:09:15.415777,0
01:09:15.415777,16
01:09:15.415777,-512
01:09:15.415777,-1
01:09:15.415777,7
01:09:15.415777,1024
01:09:15.415777,0
01:09:15.415777,2
01:09:15.415777,512
01:09:15.415777,0
01:09:15.415777,-2
01:09:15.415777,-769
01:09:15.415777,-1
01:09:15.415777,-4
01:09:15.415777,-769
01:09:15.415777,-1
01:09:15.415777,-2
01:09:15.415777,-769
01:09:15.415777,-1
01:09:15.415777,-7
01:09:15.415777,-257
01:09:15.415777,-1
01:09:15.415777,0
01:09:15.415777,512
01:09:15.415777,0
01:09:15.415777,9
01:09:15.415777,5376
01:09:15.415777,0
01:09:15.415777,30
01:09:15.999667,42
01:09:15.999667,14592
01:09:15.999667,0
01:09:15.999667,66
01:09:15.999667,19456
01:09:15.999667,0
01:09:15.999667,83
01:09:15.999667,19456
01:09:15.999667,0
01:09:15.999667,57
01:09:15.999667,9728
01:09:15.999667,0
01:09:15.999667,26
01:09:15.999667,5376
01:09:15.999667,0
01:09:15.999667,26
01:09:15.999667,7168
01:09:15.999667,0
01:09:15.999667,23
01:09:15.999667,6656
01:09:15.999667,0
01:09:15.999667,26
01:09:15.999667,5888
01:09:15.999667,0
01:09:15.999667,28
01:09:15.999667,7680
01:09:15.999667,0
01:09:15.999667,30
01:09:15.999667,8960
01:09:15.999667,0
01:09:15.999667,38
01:09:15.999667,9728
01:09:15.999667,0
01:09:15.999667,40
01:09:15.999667,10240
01:09:15.999667,0
01:09:15.999667,40
01:09:15.999667,10240
01:09:15.999667,0
01:09:15.999667,40
01:09:15.999667,11520
01:09:15.999667,0
01:09:15.999667,45
01:09:15.999667,11520
01:09:15.999667,0
01:09:15.999667,45
01:09:15.999667,12032
01:09:15.999667,0
01:09:15.999667,49
01:09:15.999667,12544
01:09:15.999667,0
01:09:15.999667,49
01:09:15.999667,12032
01:09:15.999667,0
01:09:15.999667,49
01:09:15.999667,12544
01:09:15.999667,0
01:09:15.999667,45
01:09:15.999667,12544
01:09:15.999667,0
01:09:15.999667,54
01:09:15.999667,10752
01:09:15.999667,0
01:09:15.999667,33
01:09:15.999667,7680
01:09:15.999667,0
01:09:15.999667,35
01:09:15.999667,14592
01:09:15.999667,0
01:09:15.999667,78
01:09:15.999667,19968
01:09:15.999667,0
01:09:15.999667,73
01:09:15.999667,15616
01:09:15.999667,0
01:09:15.999667,47
01:09:15.999667,11520
01:09:15.999667,0
01:09:15.999667,47
01:09:15.999667,11520
01:09:15.999667,0
01:09:15.999667,42
01:09:15.999667,9728
01:09:15.999667,0
01:09:15.999667,28
01:09:15.999667,-10752
01:09:15.999667,-1
01:09:15.999667,-187
01:09:15.999667,9983
01:09:15.999667,-1
01:09:15.999667,47
01:09:15.999667,-24832
01:09:15.999667,1
01:09:15.999667,487
01:09:15.999667,8448
01:09:15.999667,1
01:09:15.999667,118
01:09:15.999667,8448
01:09:15.999667,0
01:09:15.999667,2
01:09:15.999667,2304
01:09:15.999667,0
01:09:15.999667,11
01:09:15.999667,1792
01:09:15.999667,0
01:09:15.999667,9
01:09:15.999667,1792
01:09:15.999667,0
01:09:15.999667,4
01:09:16.584945,4
01:09:16.584945,1024
01:09:16.584945,0
01:09:16.584945,4
01:09:16.584945,2304
01:09:16.584945,0
01:09:16.584945,9
01:09:16.584945,1792
01:09:16.584945,0
01:09:16.584945,11
01:09:16.584945,4096
01:09:16.584945,0
01:09:16.584945,19
01:09:16.584945,7680
01:09:16.584945,0
01:09:16.584945,38
01:09:16.584945,12032
01:09:16.584945,0
01:09:16.584945,64
01:09:16.584945,19456
01:09:16.584945,0
01:09:16.584945,83
01:09:16.584945,22272
01:09:16.584945,0
01:09:16.584945,85
01:09:16.584945,16896
01:09:16.584945,0
01:09:16.584945,47
01:09:16.584945,8448
01:09:16.584945,0
01:09:16.584945,28
01:09:16.584945,7168
01:09:16.584945,0
01:09:16.584945,23
01:09:16.584945,4864
01:09:16.584945,0
01:09:16.584945,19
01:09:16.584945,6656
01:09:16.584945,0
01:09:16.584945,28
01:09:16.584945,5888
01:09:16.584945,0
01:09:16.584945,23
01:09:16.584945,6656
01:09:16.584945,0
01:09:16.584945,23
01:09:16.584945,5376
01:09:16.584945,0
01:09:16.584945,26
01:09:16.584945,6656
01:09:16.584945,0
01:09:16.584945,30
01:09:16.584945,7680
01:09:16.584945,0
01:09:16.584945,26
01:09:16.584945,6656
01:09:16.584945,0
01:09:16.584945,38
01:09:16.584945,9728
01:09:16.584945,0
01:09:16.584945,28
01:09:16.584945,7168
01:09:16.584945,0
01:09:16.584945,35
01:09:16.584945,9728
01:09:16.584945,0
01:09:16.584945,38
01:09:16.584945,10240
01:09:16.584945,0
01:09:16.584945,38
01:09:16.584945,9728
01:09:16.584945,0
01:09:16.584945,38
01:09:16.584945,8960
01:09:16.584945,0
01:09:16.584945,33
01:09:16.584945,7680
01:09:16.584945,0
01:09:16.584945,33
01:09:16.584945,7168
01:09:16.584945,0
01:09:16.584945,14
01:09:16.584945,4864
01:09:16.584945,0
01:09:16.584945,42
01:09:16.584945,16384
01:09:16.584945,0
01:09:16.584945,66
01:09:16.584945,16384
01:09:16.584945,0
01:09:16.584945,54
01:09:16.584945,10752
01:09:16.584945,0
01:09:16.584945,40
01:09:16.584945,10752
01:09:16.584945,0
01:09:16.584945,40
01:09:16.584945,8960
01:09:16.584945,0
01:09:16.584945,33
01:09:16.584945,5888
01:09:16.584945,0
01:09:16.584945,-35
01:09:16.584945,22015
01:09:16.584945,-1
01:09:16.584945,-230
01:09:16.584945,-769
01:09:16.584945,-1
01:09:16.584945,365
01:09:17.169731,484
01:09:17.169731,14080
01:09:17.169731,1
01:09:17.169731,128
01:09:17.169731,8960
01:09:17.169731,0
01:09:17.169731,0
01:09:17.169731,1792
01:09:17.169731,0
01:09:17.169731,9
01:09:17.169731,-1792
01:09:17.169731,-1
01:09:17.169731,-7
01:09:17.169731,255
01:09:17.169731,0
01:09:17.169731,-2
01:09:17.169731,767
01:09:17.169731,0
01:09:17.169731,4
01:09:17.169731,0
01:09:17.169731,0
01:09:17.169731,-2
01:09:17.169731,767
01:09:17.169731,0
01:09:17.169731,4
01:09:17.169731,1024
01:09:17.169731,0
01:09:17.169731,11
01:09:17.169731,4096
01:09:17.169731,0
01:09:17.169731,21
01:09:17.169731,7680
01:09:17.169731,0
01:09:17.169731,42
01:09:17.169731,13824
01:09:17.169731,0
01:09:17.169731,64
01:09:17.169731,18176
01:09:17.169731,0
01:09:17.169731,80
01:09:17.169731,20480
01:09:17.169731,0
01:09:17.169731,66
01:09:17.169731,12544
01:09:17.169731,0
01:09:17.169731,33
01:09:17.169731,5888
01:09:17.169731,0
01:09:17.169731,19
01:09:17.169731,3584
01:09:17.169731,0
01:09:17.169731,14
01:09:17.169731,3584
01:09:17.169731,0
01:09:17.169731,11
01:09:17.169731,4096
01:09:17.169731,0
01:09:17.169731,19
01:09:17.169731,3584
01:09:17.169731,0
01:09:17.169731,11
01:09:17.169731,4864
01:09:17.169731,0
01:09:17.169731,19
01:09:17.169731,4096
01:09:17.169731,0
01:09:17.169731,19
01:09:17.169731,4864
01:09:17.169731,0
01:09:17.169731,16
01:09:17.169731,4864
01:09:17.169731,0
01:09:17.169731,21
01:09:17.169731,6656
01:09:17.169731,0
01:09:17.169731,33
01:09:17.169731,8448
01:09:17.169731,0
01:09:17.169731,30
01:09:17.169731,7680
01:09:17.169731,0
01:09:17.169731,28
01:09:17.169731,5888
01:09:17.169731,0
01:09:17.169731,30
01:09:17.169731,8960
01:09:17.169731,0
01:09:17.169731,33
01:09:17.169731,8960
01:09:17.169731,0
01:09:17.169731,38
01:09:17.169731,8960
01:09:17.169731,0
01:09:17.169731,33
01:09:17.169731,6656
01:09:17.169731,0
01:09:17.169731,16
01:09:17.169731,4096
01:09:17.169731,0
01:09:17.169731,26
01:09:17.169731,10752
01:09:17.169731,0
01:09:17.169731,61
01:09:17.169731,16384
01:09:17.169731,0
01:09:17.169731,54
01:09:17.169731,10752
01:09:17.169731,0
01:09:17.169731,30
01:09:17.665931,30
01:09:17.665931,9728
01:09:17.665931,0
01:09:17.665931,38
01:09:17.665931,8448
01:09:17.665931,0
01:09:17.665931,26
01:09:17.665931,3584
01:09:17.665931,0
01:09:17.665931,-66
01:09:17.665931,12287
01:09:17.665931,-1
01:09:17.665931,-213
01:09:17.665931,17663
01:09:17.665931,0
01:09:17.665931,413
01:09:17.665931,-15616
01:09:17.665931,1
01:09:17.665931,256
01:09:17.665931,27136
01:09:17.665931,0
01:09:17.665931,28
01:09:17.665931,512
01:09:17.665931,0
01:09:17.665931,9
01:09:17.665931,1792
01:09:17.665931,0
01:09:17.665931,2
01:09:17.665931,2304
01:09:17.665931,0
01:09:17.665931,11
01:09:17.665931,1792
01:09:17.665931,0
01:09:17.665931,7
01:09:17.665931,1792
01:09:17.665931,0
01:09:17.665931,4
01:09:17.665931,1024
01:09:17.665931,0
01:09:17.665931,9
01:09:17.665931,2816
01:09:17.665931,0
01:09:17.665931,14
01:09:17.665931,4864
01:09:17.665931,0
01:09:17.665931,21
01:09:17.665931,7680
01:09:17.665931,0
01:09:17.665931,40
01:09:17.665931,12544
01:09:17.665931,0
01:09:17.665931,61
01:09:17.665931,18176
01:09:17.665931,0
01:09:17.665931,78
01:09:17.665931,20480
01:09:17.665931,0
01:09:17.665931,76
01:09:17.665931,15616
01:09:17.665931,0
01:09:17.665931,45
01:09:17.665931,8960
01:09:17.665931,0
01:09:17.665931,26
01:09:17.665931,5888
01:09:17.665931,0
01:09:17.665931,26
01:09:17.665931,5376
01:09:17.665931,0
01:09:17.665931,19
01:09:17.665931,5376
01:09:17.665931,0
01:09:17.665931,21
01:09:17.665931,5888
01:09:17.665931,0
01:09:17.665931,26
01:09:17.665931,5376
01:09:17.665931,0
01:09:17.665931,21
01:09:17.665931,7168
01:09:17.665931,0
01:09:17.665931,35
01:09:17.665931,8960
01:09:17.665931,0
01:09:17.665931,33
01:09:17.665931,9728
01:09:17.665931,0
01:09:17.665931,38
01:09:17.665931,7680
01:09:17.665931,0
01:09:17.665931,26
01:09:17.665931,8448
01:09:17.665931,0
01:09:17.665931,38
01:09:17.665931,9728
01:09:17.665931,0
01:09:17.665931,35
01:09:17.665931,8448
01:09:17.665931,0
01:09:17.665931,35
01:09:17.665931,9728
01:09:17.665931,0
01:09:17.665931,35
01:09:17.665931,6656
01:09:17.665931,0
01:09:17.665931,23
01:09:17.665931,7680
01:09:17.665931,0
01:09:17.665931,49
01:09:18.250068,68
01:09:18.250068,18688
01:09:18.250068,0
01:09:18.250068,68
01:09:18.250068,15104
01:09:18.250068,0
01:09:18.250068,45
01:09:18.250068,10240
01:09:18.250068,0
01:09:18.250068,42
01:09:18.250068,10752
01:09:18.250068,0
01:09:18.250068,40
01:09:18.250068,9728
01:09:18.250068,0
01:09:18.250068,35
01:09:18.250068,1792
01:09:18.250068,0
01:09:18.250068,-99
01:09:18.250068,9471
01:09:18.250068,-1
01:09:18.250068,-140
01:09:18.250068,-14849
01:09:18.250068,0
01:09:18.250068,470
01:09:18.250068,-26624
01:09:18.250068,1
01:09:18.250068,206
01:09:18.250068,19968
01:09:18.250068,0
01:09:18.250068,14
01:09:18.250068,512
01:09:18.250068,0
01:09:18.250068,11
01:09:18.250068,2304
01:09:18.250068,0
01:09:18.250068,2
01:09:18.250068,512
01:09:18.250068,0
01:09:18.250068,4
01:09:18.250068,1024
01:09:18.250068,0
01:09:18.250068,7
01:09:18.250068,2816
01:09:18.250068,0
01:09:18.250068,9
01:09:18.250068,1024
01:09:18.250068,0
01:09:18.250068,4
01:09:18.250068,1792
01:09:18.250068,0
01:09:18.250068,4
01:09:18.250068,3584
01:09:18.250068,0
01:09:18.250068,28
01:09:18.250068,8960
01:09:18.250068,0
01:09:18.250068,42
01:09:18.250068,14592
01:09:18.250068,0
01:09:18.250068,66
01:09:18.250068,21248
01:09:18.250068,0
01:09:18.250068,92
01:09:18.250068,21760
01:09:18.250068,0
01:09:18.250068,71
01:09:18.250068,14592
01:09:18.250068,0
01:09:18.250068,49
01:09:18.250068,11520
01:09:18.250068,0
01:09:18.250068,33
01:09:18.250068,7680
01:09:18.250068,0
01:09:18.250068,28
01:09:18.250068,7168
01:09:18.250068,0
01:09:18.250068,23
01:09:18.250068,6656
01:09:18.250068,0
01:09:18.250068,30
01:09:18.250068,7168
01:09:18.250068,0
01:09:18.250068,23
01:09:18.250068,7168
01:09:18.250068,0
01:09:18.250068,30
01:09:18.250068,6656
01:09:18.250068,0
01:09:18.250068,23
01:09:18.250068,7168
01:09:18.250068,0
01:09:18.250068,33
01:09:18.250068,7680
01:09:18.250068,0
01:09:18.250068,30
01:09:18.250068,8448
01:09:18.250068,0
01:09:18.250068,38
01:09:18.250068,8960
01:09:18.250068,0
01:09:18.250068,33
01:09:18.250068,8960
01:09:18.250068,0
01:09:18.250068,38
01:09:18.250068,8960
01:09:18.250068,0
01:09:18.250068,33
01:09:18.790287,33
01:09:18.790287,7168
01:09:18.790287,0
01:09:18.790287,23
01:09:18.790287,6656
01:09:18.790287,0
01:09:18.790287,35
01:09:18.790287,13824
01:09:18.790287,0
01:09:18.790287,71
01:09:18.790287,18688
01:09:18.790287,0
01:09:18.790287,68
01:09:18.790287,15616
01:09:18.790287,0
01:09:18.790287,47
01:09:18.790287,10752
01:09:18.790287,0
01:09:18.790287,45
01:09:18.790287,11520
01:09:18.790287,0
01:09:18.790287,35
01:09:18.790287,8448
01:09:18.790287,0
01:09:18.790287,28
01:09:18.790287,-4096
01:09:18.790287,-1
01:09:18.790287,-142
01:09:18.790287,8191
01:09:18.790287,-1
01:09:18.790287,-54
01:09:18.790287,14335
01:09:18.790287,1
01:09:18.790287,482
01:09:18.790287,20224
01:09:18.790287,1
01:09:18.790287,144
01:09:18.790287,12032
01:09:18.790287,0
01:09:18.790287,11
01:09:18.790287,2304
01:09:18.790287,0
01:09:18.790287,9
01:09:18.790287,512
01:09:18.790287,0
01:09:18.790287,7
01:09:18.790287,2816
01:09:18.790287,0
01:09:18.790287,7
01:09:18.790287,1024
01:09:18.790287,0
01:09:18.790287,9
01:09:18.790287,2304
01:09:18.790287,0
01:09:18.790287,4
01:09:18.790287,-512
01:09:18.790287,-1
01:09:18.790287,2
01:09:18.790287,1792
01:09:18.790287,0
01:09:18.790287,9
01:09:18.790287,2304
01:09:18.790287,0
01:09:18.790287,19
01:09:18.790287,8448
01:09:18.790287,0
01:09:18.790287,42
01:09:18.790287,13312
01:09:18.790287,0
01:09:18.790287,64
01:09:18.790287,18688
01:09:18.790287,0
01:09:18.790287,76
01:09:18.790287,19456
01:09:18.790287,0
01:09:18.790287,64
01:09:18.790287,11520
01:09:18.790287,0
01:09:18.790287,33
01:09:18.790287,6656
01:09:18.790287,0
01:09:18.790287,23
01:09:18.790287,5888
01:09:18.790287,0
01:09:18.790287,23
01:09:18.790287,5888
01:09:18.790287,0
01:09:18.790287,23
01:09:18.790287,4864
01:09:18.790287,0
01:09:18.790287,19
01:09:18.790287,5376
01:09:18.790287,0
01:09:18.790287,21
01:09:18.790287,5376
01:09:18.790287,0
01:09:18.790287,23
01:09:18.790287,5888
01:09:18.790287,0
01:09:18.790287,23
01:09:18.790287,7168
01:09:18.790287,0
01:09:18.790287,33
01:09:18.790287,7680
01:09:18.790287,0
01:09:18.790287,28
01:09:18.790287,8448
01:09:18.790287,0
01:09:18.790287,33
01:09:19.329157,33
01:09:19.329157,8960
01:09:19.329157,0
01:09:19.329157,35
01:09:19.329157,9728
01:09:19.329157,0
01:09:19.329157,40
01:09:19.329157,9728
01:09:19.329157,0
01:09:19.329157,38
01:09:19.329157,10240
01:09:19.329157,0
01:09:19.329157,35
01:09:19.329157,7680
01:09:19.329157,0
01:09:19.329157,26
01:09:19.329157,8448
01:09:19.329157,0
01:09:19.329157,57
01:09:19.329157,19456
01:09:19.329157,0
01:09:19.329157,78
01:09:19.329157,18688
01:09:19.329157,0
01:09:19.329157,57
01:09:19.329157,10752
01:09:19.329157,0
01:09:19.329157,42
01:09:19.329157,10752
01:09:19.329157,0
01:09:19.329157,40
01:09:19.329157,8960
01:09:19.329157,0
01:09:19.329157,35
01:09:19.329157,8448
01:09:19.329157,0
01:09:19.329157,-33
01:09:19.329157,21503
01:09:19.329157,-1
01:09:19.329157,-216
01:09:19.329157,3839
01:09:19.329157,0
01:09:19.329157,368
01:09:19.329157,-11264
01:09:19.329157,1
01:09:19.329157,294
01:09:19.329157,32000
01:09:19.329157,0
01:09:19.329157,42
01:09:19.329157,1792
01:09:19.329157,0
01:09:19.329157,9
01:09:19.329157,2304
01:09:19.329157,0
01:09:19.329157,0
01:09:19.329157,1792
01:09:19.329157,0
01:09:19.329157,14
01:09:19.329157,1792
01:09:19.329157,0
01:09:19.329157,0
01:09:19.329157,512
01:09:19.329157,0
01:09:19.329157,4
01:09:19.329157,0
01:09:19.329157,0
01:09:19.329157,0
01:09:19.329157,0
01:09:19.329157,0
01:09:19.329157,2
01:09:19.329157,3584
01:09:19.329157,0
01:09:19.329157,19
01:09:19.329157,4096
01:09:19.329157,0
01:09:19.329157,28
01:09:19.329157,10752
01:09:19.329157,0
01:09:19.329157,52
01:09:19.329157,15616
01:09:19.329157,0
01:09:19.329157,71
01:09:19.329157,19968
01:09:19.329157,0
01:09:19.329157,78
01:09:19.329157,15616
01:09:19.329157,0
01:09:19.329157,42
01:09:19.329157,8448
01:09:19.329157,0
01:09:19.329157,26
01:09:19.329157,4864
01:09:19.329157,0
01:09:19.329157,19
01:09:19.329157,4864
01:09:19.329157,0
01:09:19.329157,16
01:09:19.329157,4864
01:09:19.329157,0
01:09:19.329157,19
01:09:19.329157,4096
01:09:19.329157,0
01:09:19.329157,16
01:09:19.329157,4096
01:09:19.329157,0
01:09:19.329157,23
01:09:19.329157,7168
01:09:19.329157,0
01:09:19.329157,26
01:09:19.959680,26
01:09:19.959680,6656
01:09:19.959680,0
01:09:19.959680,33
01:09:19.959680,10240
01:09:19.959680,0
01:09:19.959680,42
01:09:19.959680,10752
01:09:19.959680,0
01:09:19.959680,45
01:09:19.959680,11520
01:09:19.959680,0
01:09:19.959680,45
01:09:19.959680,11520
01:09:19.959680,0
01:09:19.959680,47
01:09:19.959680,10752
01:09:19.959680,0
01:09:19.959680,35
01:09:19.959680,8448
01:09:19.959680,0
01:09:19.959680,33
01:09:19.959680,8960
01:09:19.959680,0
01:09:19.959680,52
01:09:19.959680,19456
01:09:19.959680,0
01:09:19.959680,83
01:09:19.959680,19456
01:09:19.959680,0
01:09:19.959680,59
01:09:19.959680,11520
01:09:19.959680,0
01:09:19.959680,42
01:09:19.959680,12032
01:09:19.959680,0
01:09:19.959680,52
01:09:19.959680,13312
01:09:19.959680,0
01:09:19.959680,47
01:09:19.959680,10240
01:09:19.959680,0
01:09:19.959680,-9
01:09:19.959680,30719
01:09:19.959680,-1
01:09:19.959680,-220
01:09:19.959680,-13569
01:09:19.959680,-1
01:09:19.959680,301
01:09:19.959680,-8960
01:09:19.959680,1
01:09:19.959680,342
01:09:19.959680,-25600
01:09:19.959680,0
01:09:19.959680,57
01:09:19.959680,3584
01:09:19.959680,0
01:09:19.959680,16
01:09:19.959680,6656
01:09:19.959680,0
01:09:19.959680,11
01:09:19.959680,1024
01:09:19.959680,0
01:09:19.959680,9
01:09:19.959680,2304
01:09:19.959680,0
01:09:19.959680,7
01:09:19.959680,3584
01:09:19.959680,0
01:09:19.959680,11
01:09:19.959680,0
01:09:19.959680,0
01:09:19.959680,-2
01:09:19.959680,767
01:09:19.959680,0
01:09:19.959680,9
01:09:19.959680,2304
01:09:19.959680,0
01:09:19.959680,7
01:09:19.959680,3584
01:09:19.959680,0
01:09:19.959680,21
01:09:19.959680,7680
01:09:19.959680,0
01:09:19.959680,45
01:09:19.959680,13824
01:09:19.959680,0
01:09:19.959680,59
01:09:19.959680,17408
01:09:19.959680,0
01:09:19.959680,68
01:09:19.959680,12544
01:09:19.959680,0
01:09:19.959680,33
01:09:19.959680,5888
01:09:19.959680,0
01:09:19.959680,14
01:09:19.959680,2304
01:09:19.959680,0
01:09:19.959680,9
01:09:19.959680,1792
01:09:19.959680,0
01:09:19.959680,11
01:09:19.959680,4096
01:09:19.959680,0
01:09:19.959680,14
01:09:19.959680,2816
01:09:19.959680,0
01:09:19.959680,21
01:09:20.500027,30
01:09:20.500027,7168
01:09:20.500027,0
01:09:20.500027,23
01:09:20.500027,5888
01:09:20.500027,0
01:09:20.500027,26
01:09:20.500027,7168
01:09:20.500027,0
01:09:20.500027,30
01:09:20.500027,7168
01:09:20.500027,0
01:09:20.500027,33
01:09:20.500027,8448
01:09:20.500027,0
01:09:20.500027,28
01:09:20.500027,7680
01:09:20.500027,0
01:09:20.500027,38
01:09:20.500027,10240
01:09:20.500027,0
01:09:20.500027,38
01:09:20.500027,8960
01:09:20.500027,0
01:09:20.500027,38
01:09:20.500027,8960
01:09:20.500027,0
01:09:20.500027,33
01:09:20.500027,10240
01:09:20.500027,0
01:09:20.500027,61
01:09:20.500027,19456
01:09:20.500027,0
01:09:20.500027,73
01:09:20.500027,16896
01:09:20.500027,0
01:09:20.500027,54
01:09:20.500027,10752
01:09:20.500027,0
01:09:20.500027,40
01:09:20.500027,10240
01:09:20.500027,0
01:09:20.500027,42
01:09:20.500027,10752
01:09:20.500027,0
01:09:20.500027,38
01:09:20.500027,7168
01:09:20.500027,0
01:09:20.500027,-38
01:09:20.500027,20991
01:09:20.500027,-1
01:09:20.500027,-211
01:09:20.500027,7423
01:09:20.500027,0
01:09:20.500027,377
01:09:20.500027,-13056
01:09:20.500027,1
01:09:20.500027,275
01:09:20.500027,27136
01:09:20.500027,0
01:09:20.500027,28
01:09:20.500027,-1024
01:09:20.500027,-1
01:09:20.500027,0
01:09:20.500027,512
01:09:20.500027,0
01:09:20.500027,-2
01:09:20.500027,255
01:09:20.500027,0
01:09:20.500027,-2
01:09:20.500027,-1537
01:09:20.500027,-1
01:09:20.500027,-2
01:09:20.500027,-257
01:09:20.500027,-1
01:09:20.500027,-9
01:09:20.500027,-2561
01:09:20.500027,-1
01:09:20.500027,-4
01:09:20.500027,-769
01:09:20.500027,-1
01:09:20.500027,-7
01:09:20.500027,255
01:09:20.500027,0
01:09:20.500027,9
01:09:20.500027,3584
01:09:20.500027,0
01:09:20.500027,19
01:09:20.500027,6656
01:09:20.500027,0
01:09:20.500027,38
01:09:20.500027,12544
01:09:20.500027,0
01:09:20.500027,54
01:09:20.500027,14592
01:09:20.500027,0
01:09:20.500027,57
01:09:20.500027,11520
01:09:20.500027,0
01:09:20.500027,21
01:09:20.500027,2304
01:09:20.500027,0
01:09:20.500027,9
01:09:20.500027,512
01:09:20.500027,0
01:09:20.500027,0
01:09:20.500027,512
01:09:20.500027,0
01:09:20.500027,0
01:09:21.041743,-2
01:09:21.041743,255
01:09:21.041743,0
01:09:21.041743,0
01:09:21.041743,1792
01:09:21.041743,0
01:09:21.041743,11
01:09:21.041743,1792
01:09:21.041743,0
01:09:21.041743,7
01:09:21.041743,2304
01:09:21.041743,0
01:09:21.041743,19
01:09:21.041743,7168
01:09:21.041743,0
01:09:21.041743,28
01:09:21.041743,7168
01:09:21.041743,0
01:09:21.041743,30
01:09:21.041743,8448
01:09:21.041743,0
01:09:21.041743,35
01:09:21.041743,8960
01:09:21.041743,0
01:09:21.041743,30
01:09:21.041743,5888
01:09:21.041743,0
01:09:21.041743,19
01:09:21.041743,4096
01:09:21.041743,0
01:09:21.041743,16
01:09:21.041743,7168
01:09:21.041743,0
01:09:21.041743,52
01:09:21.041743,16384
01:09:21.041743,0
01:09:21.041743,59
01:09:21.041743,13312
01:09:21.041743,0
01:09:21.041743,38
01:09:21.041743,5888
01:09:21.041743,0
01:09:21.041743,21
01:09:21.041743,5888
01:09:21.041743,0
01:09:21.041743,26
01:09:21.041743,7168
01:09:21.041743,0
01:09:21.041743,28
01:09:21.041743,2816
01:09:21.041743,0
01:09:21.041743,-90
01:09:21.041743,4351
01:09:21.041743,-1
01:09:21.041743,-225
01:09:21.041743,16639
01:09:21.041743,0
01:09:21.041743,365
01:09:21.041743,31744
01:09:21.041743,1
01:09:21.041743,244
01:09:21.041743,-30464
01:09:21.041743,0
01:09:21.041743,35
01:09:21.041743,1024
01:09:21.041743,0
01:09:21.041743,30
01:09:21.041743,5888
01:09:21.041743,0
01:09:21.041743,9
01:09:21.041743,3584
01:09:21.041743,0
01:09:21.041743,14
01:09:21.041743,2304
01:09:21.041743,0
01:09:21.041743,11
01:09:21.041743,3584
01:09:21.041743,0
01:09:21.041743,11
01:09:21.041743,2816
01:09:21.041743,0
01:09:21.041743,7
01:09:21.041743,512
01:09:21.041743,0
01:09:21.041743,4
01:09:21.041743,1792
01:09:21.041743,0
01:09:21.041743,14
01:09:21.041743,8448
01:09:21.041743,0
01:09:21.041743,40
01:09:21.041743,13312
01:09:21.041743,0
01:09:21.041743,76
01:09:21.041743,22272
01:09:21.041743,0
01:09:21.041743,90
01:09:21.041743,23040
01:09:21.041743,0
01:09:21.041743,83
01:09:21.041743,13824
01:09:21.041743,0
01:09:21.041743,30
01:09:21.041743,5376
01:09:21.041743,0
01:09:21.041743,14
01:09:21.041743,1792
01:09:21.041743,0
01:09:21.041743,7
01:09:21.624733,4
01:09:21.624733,-512
01:09:21.624733,-1
01:09:21.624733,-4
01:09:21.624733,-257
01:09:21.624733,-1
01:09:21.624733,4
01:09:21.624733,3584
01:09:21.624733,0
01:09:21.624733,21
01:09:21.624733,5888
01:09:21.624733,0
01:09:21.624733,26
01:09:21.624733,8448
01:09:21.624733,0
01:09:21.624733,40
01:09:21.624733,10752
01:09:21.624733,0
01:09:21.624733,45
01:09:21.624733,12032
01:09:21.624733,0
01:09:21.624733,49
01:09:21.624733,12544
01:09:21.624733,0
01:09:21.624733,42
01:09:21.624733,9728
01:09:21.624733,0
01:09:21.624733,38
01:09:21.624733,9728
01:09:21.624733,0
01:09:21.624733,52
01:09:21.624733,19456
01:09:21.624733,0
01:09:21.624733,76
01:09:21.624733,15104
01:09:21.624733,0
01:09:21.624733,54
01:09:21.624733,14592
01:09:21.624733,0
01:09:21.624733,54
01:09:21.624733,12544
01:09:21.624733,0
01:09:21.624733,49
01:09:21.624733,12544
01:09:21.624733,0
01:09:21.624733,47
01:09:21.624733,11520
01:09:21.624733,0
01:09:21.624733,33
01:09:21.624733,-12544
01:09:21.624733,-1
01:09:21.624733,-175
01:09:21.624733,25087
01:09:21.624733,-1
01:09:21.624733,114
01:09:21.624733,-25344
01:09:21.624733,1
01:09:21.624733,418
01:09:21.624733,-4096
01:09:21.624733,0
01:09:21.624733,111
01:09:21.624733,9728
01:09:21.624733,0
01:09:21.624733,11
01:09:21.624733,5376
01:09:21.624733,0
01:09:21.624733,16
01:09:21.624733,1792
01:09:21.624733,0
01:09:21.624733,9
01:09:21.624733,2816
01:09:21.624733,0
01:09:21.624733,11
01:09:21.624733,4096
01:09:21.624733,0
01:09:21.624733,19
01:09:21.624733,2816
01:09:21.624733,0
01:09:21.624733,9
01:09:21.624733,2816
01:09:21.624733,0
01:09:21.624733,11
01:09:21.624733,4096
01:09:21.624733,0
01:09:21.624733,28
01:09:21.624733,8448
01:09:21.624733,0
01:09:21.624733,35
01:09:21.624733,10240
01:09:21.624733,0
01:09:21.624733,54
01:09:21.624733,16896
01:09:21.624733,0
01:09:21.624733,71
01:09:21.624733,18688
01:09:21.624733,0
01:09:21.624733,76
01:09:21.624733,16896
01:09:21.624733,0
01:09:21.624733,47
01:09:21.624733,9728
01:09:21.624733,0
01:09:21.624733,33
01:09:21.624733,5376
01:09:21.624733,0
01:09:21.624733,11
01:09:21.624733,4096
01:09:21.624733,0
01:09:21.624733,23
01:09:22.165947,14
01:09:22.165947,2304
01:09:22.165947,0
01:09:22.165947,14
01:09:22.165947,4864
01:09:22.165947,0
01:09:22.165947,16
01:09:22.165947,4864
01:09:22.165947,0
01:09:22.165947,23
01:09:22.165947,5888
01:09:22.165947,0
01:09:22.165947,21
01:09:22.165947,5888
01:09:22.165947,0
01:09:22.165947,30
01:09:22.165947,8960
01:09:22.165947,0
01:09:22.165947,35
01:09:22.165947,7680
01:09:22.165947,0
01:09:22.165947,28
01:09:22.165947,5376
01:09:22.165947,0
01:09:22.165947,21
01:09:22.165947,7680
01:09:22.165947,0
01:09:22.165947,54
01:09:22.165947,19968
01:09:22.165947,0
01:09:22.165947,80
01:09:22.165947,19456
01:09:22.165947,0
01:09:22.165947,68
01:09:22.165947,15104
01:09:22.165947,0
01:09:22.165947,52
01:09:22.165947,13312
01:09:22.165947,0
01:09:22.165947,52
01:09:22.165947,13312
01:09:22.165947,0
01:09:22.165947,54
01:09:22.165947,12032
01:09:22.165947,0
01:09:22.165947,4
01:09:22.165947,-30976
01:09:22.165947,-1
01:09:22.165947,-232
01:09:22.165947,-22017
01:09:22.165947,-1
01:09:22.165947,297
01:09:22.165947,768
01:09:22.165947,2
01:09:22.165947,377
01:09:22.165947,-23808
01:09:22.165947,0
01:09:22.165947,66
01:09:22.165947,5376
01:09:22.165947,0
01:09:22.165947,11
01:09:22.165947,4864
01:09:22.165947,0
01:09:22.165947,14
01:09:22.165947,2304
01:09:22.165947,0
01:09:22.165947,19
01:09:22.165947,5376
01:09:22.165947,0
01:09:22.165947,14
01:09:22.165947,2816
01:09:22.165947,0
01:09:22.165947,11
01:09:22.165947,1024
01:09:22.165947,0
01:09:22.165947,4
01:09:22.165947,2304
01:09:22.165947,0
01:09:22.165947,11
01:09:22.165947,3584
01:09:22.165947,0
01:09:22.165947,16
01:09:22.165947,5888
01:09:22.165947,0
01:09:22.165947,38
01:09:22.165947,11520
01:09:22.165947,0
01:09:22.165947,54
01:09:22.165947,17408
01:09:22.165947,0
01:09:22.165947,83
01:09:22.165947,20480
01:09:22.165947,0
01:09:22.165947,73
01:09:22.165947,16384
01:09:22.165947,0
01:09:22.165947,47
01:09:22.165947,7680
01:09:22.165947,0
01:09:22.165947,28
01:09:22.165947,7168
01:09:22.165947,0
01:09:22.165947,23
01:09:22.165947,5888
01:09:22.165947,0
01:09:22.165947,23
01:09:22.165947,4096
01:09:22.165947,0
01:09:22.165947,14
01:09:22.707124,19
01:09:22.707124,3584
01:09:22.707124,0
01:09:22.707124,11
01:09:22.707124,4096
01:09:22.707124,0
01:09:22.707124,19
01:09:22.707124,5376
01:09:22.707124,0
01:09:22.707124,21
01:09:22.707124,6656
01:09:22.707124,0
01:09:22.707124,33
01:09:22.707124,8960
01:09:22.707124,0
01:09:22.707124,33
01:09:22.707124,8448
01:09:22.707124,0
01:09:22.707124,33
01:09:22.707124,7168
01:09:22.707124,0
01:09:22.707124,23
01:09:22.707124,4864
01:09:22.707124,0
01:09:22.707124,19
01:09:22.707124,7168
01:09:22.707124,0
01:09:22.707124,52
01:09:22.707124,18176
01:09:22.707124,0
01:09:22.707124,73
01:09:22.707124,18176
01:09:22.707124,0
01:09:22.707124,61
01:09:22.707124,12032
01:09:22.707124,0
01:09:22.707124,45
01:09:22.707124,13824
01:09:22.707124,0
01:09:22.707124,57
01:09:22.707124,13824
01:09:22.707124,0
01:09:22.707124,54
01:09:22.707124,12032
01:09:22.707124,0
01:09:22.707124,2
01:09:22.707124,-30976
01:09:22.707124,-1
01:09:22.707124,-220
01:09:22.707124,-18433
01:09:22.707124,-1
01:09:22.707124,301
01:09:22.707124,768
01:09:22.707124,2
01:09:22.707124,380
01:09:22.707124,-21760
01:09:22.707124,0
01:09:22.707124,66
01:09:22.707124,4096
01:09:22.707124,0
01:09:22.707124,9
01:09:22.707124,5376
01:09:22.707124,0
01:09:22.707124,19
01:09:22.707124,4096
01:09:22.707124,0
01:09:22.707124,19
01:09:22.707124,4096
01:09:22.707124,0
01:09:22.707124,14
01:09:22.707124,4096
01:09:22.707124,0
01:09:22.707124,16
01:09:22.707124,2816
01:09:22.707124,0
01:09:22.707124,7
01:09:22.707124,1024
01:09:22.707124,0
01:09:22.707124,9
01:09:22.707124,5888
01:09:22.707124,0
01:09:22.707124,30
01:09:22.707124,7168
01:09:22.707124,0
01:09:22.707124,33
01:09:22.707124,13312
01:09:22.707124,0
01:09:22.707124,66
01:09:22.707124,19456
01:09:22.707124,0
01:09:22.707124,80
01:09:22.707124,21248
01:09:22.707124,0
01:09:22.707124,78
01:09:22.707124,16384
01:09:22.707124,0
01:09:22.707124,45
01:09:22.707124,8960
01:09:22.707124,0
01:09:22.707124,28
01:09:22.707124,4864
01:09:22.707124,0
01:09:22.707124,21
01:09:22.707124,5888
01:09:22.707124,0
01:09:22.707124,16
01:09:22.707124,2816
01:09:22.707124,0
01:09:22.707124,19
01:09:23.290293,23
01:09:23.290293,4096
01:09:23.290293,0
01:09:23.290293,16
01:09:23.290293,5376
01:09:23.290293,0
01:09:23.290293,21
01:09:23.290293,5376
01:09:23.290293,0
01:09:23.290293,21
01:09:23.290293,5376
01:09:23.290293,0
01:09:23.290293,26
01:09:23.290293,7680
01:09:23.290293,0
01:09:23.290293,28
01:09:23.290293,7168
01:09:23.290293,0
01:09:23.290293,28
01:09:23.290293,7168
01:09:23.290293,0
01:09:23.290293,26
01:09:23.290293,7168
01:09:23.290293,0
01:09:23.290293,33
01:09:23.290293,8960
01:09:23.290293,0
01:09:23.290293,38
01:09:23.290293,8960
01:09:23.290293,0
01:09:23.290293,23
01:09:23.290293,4096
01:09:23.290293,0
01:09:23.290293,19
01:09:23.290293,8960
01:09:23.290293,0
01:09:23.290293,57
01:09:23.290293,16896
01:09:23.290293,0
01:09:23.290293,64
01:09:23.290293,14592
01:09:23.290293,0
01:09:23.290293,49
01:09:23.290293,11520
01:09:23.290293,0
01:09:23.290293,38
01:09:23.290293,9728
01:09:23.290293,0
01:09:23.290293,40
01:09:23.290293,10752
01:09:23.290293,0
01:09:23.290293,40
01:09:23.290293,3584
01:09:23.290293,0
01:09:23.290293,-83
01:09:23.290293,13055
01:09:23.290293,-1
01:09:23.290293,-161
01:09:23.290293,-24577
01:09:23.290293,0
01:09:23.290293,475
01:09:23.290293,-18688
01:09:23.290293,1
01:09:23.290293,220
01:09:23.290293,23040
01:09:23.290293,0
01:09:23.290293,26
01:09:23.290293,512
01:09:23.290293,0
01:09:23.290293,19
01:09:23.290293,5376
01:09:23.290293,0
01:09:23.290293,11
01:09:23.290293,4864
01:09:23.290293,0
01:09:23.290293,23
01:09:23.290293,4864
01:09:23.290293,0
01:09:23.290293,14
01:09:23.290293,3584
01:09:23.290293,0
01:09:23.290293,9
01:09:23.290293,1792
01:09:23.290293,0
01:09:23.290293,7
01:09:23.290293,2816
01:09:23.290293,0
01:09:23.290293,11
01:09:23.290293,1792
01:09:23.290293,0
01:09:23.290293,16
01:09:23.290293,7168
01:09:23.290293,0
01:09:23.290293,35
01:09:23.290293,12544
01:09:23.290293,0
01:09:23.290293,64
01:09:23.290293,18176
01:09:23.290293,0
01:09:23.290293,68
01:09:23.290293,18176
01:09:23.290293,0
01:09:23.290293,71
01:09:23.290293,13824
01:09:23.290293,0
01:09:23.290293,35
01:09:23.290293,6656
01:09:23.290293,0
01:09:23.290293,21
01:09:23.875241,16
01:09:23.875241,4096
01:09:23.875241,0
01:09:23.875241,14
01:09:23.875241,2816
01:09:23.875241,0
01:09:23.875241,16
01:09:23.875241,3584
01:09:23.875241,0
01:09:23.875241,9
01:09:23.875241,4096
01:09:23.875241,0
01:09:23.875241,28
01:09:23.875241,5888
01:09:23.875241,0
01:09:23.875241,21
01:09:23.875241,5888
01:09:23.875241,0
01:09:23.875241,28
01:09:23.875241,7680
01:09:23.875241,0
01:09:23.875241,33
01:09:23.875241,7680
01:09:23.875241,0
01:09:23.875241,28
01:09:23.875241,7680
01:09:23.875241,0
01:09:23.875241,35
01:09:23.875241,8960
01:09:23.875241,0
01:09:23.875241,38
01:09:23.875241,10240
01:09:23.875241,0
01:09:23.875241,42
01:09:23.875241,11520
01:09:23.875241,0
01:09:23.875241,42
01:09:23.875241,10752
01:09:23.875241,0
01:09:23.875241,38
01:09:23.875241,7168
01:09:23.875241,0
01:09:23.875241,28
01:09:23.875241,8960
01:09:23.875241,0
01:09:23.875241,52
01:09:23.875241,18688
01:09:23.875241,0
01:09:23.875241,80
01:09:23.875241,18688
01:09:23.875241,0
01:09:23.875241,59
01:09:23.875241,11520
01:09:23.875241,0
01:09:23.875241,45
01:09:23.875241,13312
01:09:23.875241,0
01:09:23.875241,49
01:09:23.875241,13312
01:09:23.875241,0
01:09:23.875241,57
01:09:23.875241,12032
01:09:23.875241,0
01:09:23.875241,9
01:09:23.875241,-27136
01:09:23.875241,-1
01:09:23.875241,-211
01:09:23.875241,-18433
01:09:23.875241,-1
01:09:23.875241,289
01:09:23.875241,-2816
01:09:23.875241,1
01:09:23.875241,377
01:09:23.875241,-20736
01:09:23.875241,0
01:09:23.875241,73
01:09:23.875241,7168
01:09:23.875241,0
01:09:23.875241,19
01:09:23.875241,5888
01:09:23.875241,0
01:09:23.875241,14
01:09:23.875241,3584
01:09:23.875241,0
01:09:23.875241,16
01:09:23.875241,3584
01:09:23.875241,0
01:09:23.875241,14
01:09:23.875241,2816
01:09:23.875241,0
01:09:23.875241,4
01:09:23.875241,1024
01:09:23.875241,0
01:09:23.875241,7
01:09:23.875241,1792
01:09:23.875241,0
01:09:23.875241,4
01:09:23.875241,1792
01:09:23.875241,0
01:09:23.875241,9
01:09:23.875241,4096
01:09:23.875241,0
01:09:23.875241,23
01:09:23.875241,7168
01:09:23.875241,0
01:09:23.875241,40
01:09:23.875241,13312
01:09:23.875241,0
01:09:23.875241,61
01:09:24.416177,66
01:09:24.416177,17408
01:09:24.416177,0
01:09:24.416177,61
01:09:24.416177,10240
01:09:24.416177,0
01:09:24.416177,23
01:09:24.416177,4864
01:09:24.416177,0
01:09:24.416177,19
01:09:24.416177,4096
01:09:24.416177,0
01:09:24.416177,14
01:09:24.416177,1792
01:09:24.416177,0
01:09:24.416177,7
01:09:24.416177,4096
01:09:24.416177,0
01:09:24.416177,19
01:09:24.416177,3584
01:09:24.416177,0
01:09:24.416177,19
01:09:24.416177,4864
01:09:24.416177,0
01:09:24.416177,19
01:09:24.416177,5376
01:09:24.416177,0
01:09:24.416177,26
01:09:24.416177,7168
01:09:24.416177,0
01:09:24.416177,28
01:09:24.416177,6656
01:09:24.416177,0
01:09:24.416177,26
01:09:24.416177,8448
01:09:24.416177,0
01:09:24.416177,35
01:09:24.416177,7168
01:09:24.416177,0
01:09:24.416177,30
01:09:24.416177,9728
01:09:24.416177,0
01:09:24.416177,45
01:09:24.416177,10752
01:09:24.416177,0
01:09:24.416177,47
01:09:24.416177,15104
01:09:24.416177,0
01:09:24.416177,59
01:09:24.416177,13312
01:09:24.416177,0
01:09:24.416177,49
01:09:24.416177,12032
01:09:24.416177,0
01:09:24.416177,42
01:09:24.416177,11520
01:09:24.416177,0
01:09:24.416177,47
01:09:24.416177,15104
01:09:24.416177,0
01:09:24.416177,83
01:09:24.416177,23040
01:09:24.416177,0
01:09:24.416177,83
01:09:24.416177,18688
01:09:24.416177,0
01:09:24.416177,57
01:09:24.416177,13312
01:09:24.416177,0
01:09:24.416177,57
01:09:24.416177,14592
01:09:24.416177,0
01:09:24.416177,49
01:09:24.416177,13312
01:09:24.416177,0
01:09:24.416177,49
01:09:24.416177,1024
01:09:24.416177,0
01:09:24.416177,-116
01:09:24.416177,11263
01:09:24.416177,-1
01:09:24.416177,-71
01:09:24.416177,6911
01:09:24.416177,1
01:09:24.416177,487
01:09:24.416177,28672
01:09:24.416177,1
01:09:24.416177,171
01:09:24.416177,17408
01:09:24.416177,0
01:09:24.416177,23
01:09:24.416177,3584
01:09:24.416177,0
01:09:24.416177,19
01:09:24.416177,3584
01:09:24.416177,0
01:09:24.416177,14
01:09:24.416177,4096
01:09:24.416177,0
01:09:24.416177,16
01:09:24.416177,3584
01:09:24.416177,0
01:09:24.416177,14
01:09:24.416177,2816
01:09:24.416177,0
01:09:24.416177,9
01:09:24.416177,1024
01:09:24.416177,0
01:09:24.416177,2
01:09:24.954594,7
01:09:24.954594,2816
01:09:24.954594,0
01:09:24.954594,9
01:09:24.954594,3584
01:09:24.954594,0
01:09:24.954594,23
01:09:24.954594,8448
01:09:24.954594,0
01:09:24.954594,42
01:09:24.954594,13824
01:09:24.954594,0
01:09:24.954594,66
01:09:24.954594,19456
01:09:24.954594,0
01:09:24.954594,78
01:09:24.954594,16896
01:09:24.954594,0
01:09:24.954594,47
01:09:24.954594,8448
01:09:24.954594,0
01:09:24.954594,21
01:09:24.954594,2816
01:09:24.954594,0
01:09:24.954594,11
01:09:24.954594,2816
01:09:24.954594,0
01:09:24.954594,14
01:09:24.954594,2304
01:09:24.954594,0
01:09:24.954594,7
01:09:24.954594,3584
01:09:24.954594,0
01:09:24.954594,14
01:09:24.954594,1792
01:09:24.954594,0
01:09:24.954594,11
01:09:24.954594,4864
01:09:24.954594,0
01:09:24.954594,21
01:09:24.954594,5888
01:09:24.954594,0
01:09:24.954594,23
01:09:24.954594,6656
01:09:24.954594,0
01:09:24.954594,30
01:09:24.954594,8960
01:09:24.954594,0
01:09:24.954594,35
01:09:24.954594,7680
01:09:24.954594,0
01:09:24.954594,30
01:09:24.954594,8960
01:09:24.954594,0
01:09:24.954594,38
01:09:24.954594,10240
01:09:24.954594,0
01:09:24.954594,40
01:09:24.954594,8448
01:09:24.954594,0
01:09:24.954594,28
01:09:24.954594,8960
01:09:24.954594,0
01:09:24.954594,35
01:09:24.954594,7680
01:09:24.954594,0
01:09:24.954594,26
01:09:24.954594,5888
01:09:24.954594,0
01:09:24.954594,33
01:09:24.954594,13824
01:09:24.954594,0
01:09:24.954594,64
01:09:24.954594,15616
01:09:24.954594,0
01:09:24.954594,49
01:09:24.954594,8960
01:09:24.954594,0
01:09:24.954594,30
01:09:24.954594,8448
01:09:24.954594,0
01:09:24.954594,35
01:09:24.954594,8448
01:09:24.954594,0
01:09:24.954594,33
01:09:24.954594,5888
01:09:24.954594,0
01:09:24.954594,-33
01:09:24.954594,25087
01:09:24.954594,-1
01:09:24.954594,-230
01:09:24.954594,-14849
01:09:24.954594,-1
01:09:24.954594,261
01:09:24.954594,-29696
01:09:24.954594,1
01:09:24.954594,287
01:09:24.954594,-26112
01:09:24.954594,0
01:09:24.954594,52
01:09:24.954594,-1792
01:09:24.954594,-1
01:09:24.954594,0
01:09:24.954594,1024
01:09:24.954594,0
01:09:24.954594,-11
01:09:24.954594,-1537
01:09:24.954594,-1
01:09:24.954594,7
01:09:25.584757,4
01:09:25.584757,512
01:09:25.584757,0
01:09:25.584757,4
01:09:25.584757,1024
01:09:25.584757,0
01:09:25.584757,-4
01:09:25.584757,-257
01:09:25.584757,-1
01:09:25.584757,7
01:09:25.584757,1792
01:09:25.584757,0
01:09:25.584757,4
01:09:25.584757,3584
01:09:25.584757,0
01:09:25.584757,23
01:09:25.584757,7680
01:09:25.584757,0
01:09:25.584757,42
01:09:25.584757,14592
01:09:25.584757,0
01:09:25.584757,66
01:09:25.584757,18688
01:09:25.584757,0
01:09:25.584757,85
01:09:25.584757,22272
01:09:25.584757,0
01:09:25.584757,71
01:09:25.584757,12032
01:09:25.584757,0
01:09:25.584757,30
01:09:25.584757,4864
01:09:25.584757,0
01:09:25.584757,11
01:09:25.584757,1792
01:09:25.584757,0
01:09:25.584757,9
01:09:25.584757,2816
01:09:25.584757,0
01:09:25.584757,11
01:09:25.584757,1792
01:09:25.584757,0
01:09:25.584757,9
01:09:25.584757,3584
01:09:25.584757,0
01:09:25.584757,16
01:09:25.584757,2816
01:09:25.584757,0
01:09:25.584757,14
01:09:25.584757,5888
01:09:25.584757,0
01:09:25.584757,28
01:09:25.584757,6656
01:09:25.584757,0
01:09:25.584757,30
01:09:25.584757,9728
01:09:25.584757,0
01:09:25.584757,40
01:09:25.584757,9728
01:09:25.584757,0
01:09:25.584757,38
01:09:25.584757,11520
01:09:25.584757,0
01:09:25.584757,42
01:09:25.584757,7680
01:09:25.584757,0
01:09:25.584757,30
01:09:25.584757,8960
01:09:25.584757,0
01:09:25.584757,30
01:09:25.584757,10752
01:09:25.584757,0
01:09:25.584757,73
01:09:25.584757,21248
01:09:25.584757,0
01:09:25.584757,76
01:09:25.584757,16896
01:09:25.584757,0
01:09:25.584757,57
01:09:25.584757,12544
01:09:25.584757,0
01:09:25.584757,47
01:09:25.584757,11520
01:09:25.584757,0
01:09:25.584757,35
01:09:25.584757,7680
01:09:25.584757,0
01:09:25.584757,38
01:09:25.584757,2816
01:09:25.584757,0
01:09:25.584757,-111
01:09:25.584757,5119
01:09:25.584757,-1
01:09:25.584757,-135
01:09:25.584757,-5889
01:09:25.584757,0
01:09:25.584757,499
01:09:25.584757,-28416
01:09:25.584757,1
01:09:25.584757,187
01:09:25.584757,18176
01:09:25.584757,0
01:09:25.584757,9
01:09:25.584757,-1792
01:09:25.584757,-1
01:09:25.584757,7
01:09:25.584757,1792
01:09:25.584757,0
01:09:25.584757,-2
01:09:26.080640,-4
01:09:26.080640,-257
01:09:26.080640,-1
01:09:26.080640,-4
01:09:26.080640,-1537
01:09:26.080640,-1
01:09:26.080640,-4
01:09:26.080640,-257
01:09:26.080640,-1
01:09:26.080640,-2
01:09:26.080640,-1537
01:09:26.080640,-1
01:09:26.080640,-11
01:09:26.080640,255
01:09:26.080640,0
01:09:26.080640,11
01:09:26.080640,2816
01:09:26.080640,0
01:09:26.080640,16
01:09:26.080640,7680
01:09:26.080640,0
01:09:26.080640,45
01:09:26.080640,14592
01:09:26.080640,0
01:09:26.080640,68
01:09:26.080640,18688
01:09:26.080640,0
01:09:26.080640,71
01:09:26.080640,15104
01:09:26.080640,0
01:09:26.080640,45
01:09:26.080640,8448
01:09:26.080640,0
01:09:26.080640,21
01:09:26.080640,2304
01:09:26.080640,0
01:09:26.080640,4
01:09:26.080640,2304
01:09:26.080640,0
01:09:26.080640,14
01:09:26.080640,4096
01:09:26.080640,0
01:09:26.080640,14
01:09:26.080640,2304
01:09:26.080640,0
01:09:26.080640,9
01:09:26.080640,2816
01:09:26.080640,0
01:09:26.080640,11
01:09:26.080640,4864
01:09:26.080640,0
01:09:26.080640,26
01:09:26.080640,6656
01:09:26.080640,0
01:09:26.080640,30
01:09:26.080640,8960
01:09:26.080640,0
01:09:26.080640,30
01:09:26.080640,7168
01:09:26.080640,0
01:09:26.080640,33
01:09:26.080640,8448
01:09:26.080640,0
01:09:26.080640,33
01:09:26.080640,8960
01:09:26.080640,0
01:09:26.080640,35
01:09:26.080640,7680
01:09:26.080640,0
01:09:26.080640,28
01:09:26.080640,10240
01:09:26.080640,0
01:09:26.080640,59
01:09:26.080640,16896
01:09:26.080640,0
01:09:26.080640,68
01:09:26.080640,17408
01:09:26.080640,0
01:09:26.080640,52
01:09:26.080640,9728
01:09:26.080640,0
01:09:26.080640,35
01:09:26.080640,10752
01:09:26.080640,0
01:09:26.080640,47
01:09:26.080640,10752
01:09:26.080640,0
01:09:26.080640,35
01:09:26.080640,5376
01:09:26.080640,0
01:09:26.080640,-54
01:09:26.080640,17151
01:09:26.080640,-1
01:09:26.080640,-211
01:09:26.080640,17663
01:09:26.080640,0
01:09:26.080640,432
01:09:26.080640,-10752
01:09:26.080640,1
01:09:26.080640,251
01:09:26.080640,25344
01:09:26.080640,0
01:09:26.080640,35
01:09:26.080640,512
01:09:26.080640,0
01:09:26.080640,2
01:09:26.080640,512
01:09:26.080640,0
01:09:26.080640,-2
01:09:26.665007,7
01:09:26.665007,2304
01:09:26.665007,0
01:09:26.665007,7
01:09:26.665007,2304
01:09:26.665007,0
01:09:26.665007,9
01:09:26.665007,1792
01:09:26.665007,0
01:09:26.665007,4
01:09:26.665007,1024
01:09:26.665007,0
01:09:26.665007,7
01:09:26.665007,1024
01:09:26.665007,0
01:09:26.665007,2
01:09:26.665007,2816
01:09:26.665007,0
01:09:26.665007,26
01:09:26.665007,8960
01:09:26.665007,0
01:09:26.665007,45
01:09:26.665007,14592
01:09:26.665007,0
01:09:26.665007,64
01:09:26.665007,17408
01:09:26.665007,0
01:09:26.665007,76
01:09:26.665007,16896
01:09:26.665007,0
01:09:26.665007,47
01:09:26.665007,7680
01:09:26.665007,0
01:09:26.665007,21
01:09:26.665007,4864
01:09:26.665007,0
01:09:26.665007,19
01:09:26.665007,4096
01:09:26.665007,0
01:09:26.665007,11
01:09:26.665007,4096
01:09:26.665007,0
01:09:26.665007,19
01:09:26.665007,2816
01:09:26.665007,0
01:09:26.665007,11
01:09:26.665007,5376
01:09:26.665007,0
01:09:26.665007,23
01:09:26.665007,5376
01:09:26.665007,0
01:09:26.665007,19
01:09:26.665007,4864
01:09:26.665007,0
01:09:26.665007,23
01:09:26.665007,7168
01:09:26.665007,0
01:09:26.665007,30
01:09:26.665007,8448
01:09:26.665007,0
01:09:26.665007,33
01:09:26.665007,10240
01:09:26.665007,0
01:09:26.665007,45
01:09:26.665007,10240
01:09:26.665007,0
01:09:26.665007,40
01:09:26.665007,12544
01:09:26.665007,0
01:09:26.665007,47
01:09:26.665007,10752
01:09:26.665007,0
01:09:26.665007,40
01:09:26.665007,8448
01:09:26.665007,0
01:09:26.665007,33
01:09:26.665007,10240
01:09:26.665007,0
01:09:26.665007,52
01:09:26.665007,18176
01:09:26.665007,0
01:09:26.665007,83
01:09:26.665007,20480
01:09:26.665007,0
01:09:26.665007,66
01:09:26.665007,12544
01:09:26.665007,0
01:09:26.665007,45
01:09:26.665007,12544
01:09:26.665007,0
01:09:26.665007,47
01:09:26.665007,11520
01:09:26.665007,0
01:09:26.665007,42
01:09:26.665007,10240
01:09:26.665007,0
01:09:26.665007,7
01:09:26.665007,-26624
01:09:26.665007,-1
01:09:26.665007,-218
01:09:26.665007,-26369
01:09:26.665007,-1
01:09:26.665007,256
01:09:26.665007,-2816
01:09:26.665007,1
01:09:26.665007,394
01:09:26.665007,-18944
01:09:26.665007,0
01:09:26.665007,76
01:09:27.251160,23
01:09:27.251160,1792
01:09:27.251160,0
01:09:27.251160,16
01:09:27.251160,3584
01:09:27.251160,0
01:09:27.251160,4
01:09:27.251160,1024
01:09:27.251160,0
01:09:27.251160,7
01:09:27.251160,2816
01:09:27.251160,0
01:09:27.251160,14
01:09:27.251160,2304
01:09:27.251160,0
01:09:27.251160,7
01:09:27.251160,2304
01:09:27.251160,0
01:09:27.251160,9
01:09:27.251160,1792
01:09:27.251160,0
01:09:27.251160,7
01:09:27.251160,3584
01:09:27.251160,0
01:09:27.251160,21
01:09:27.251160,6656
01:09:27.251160,0
01:09:27.251160,38
01:09:27.251160,13312
01:09:27.251160,0
01:09:27.251160,59
01:09:27.251160,16896
01:09:27.251160,0
01:09:27.251160,76
01:09:27.251160,18688
01:09:27.251160,0
01:09:27.251160,61
01:09:27.251160,12032
01:09:27.251160,0
01:09:27.251160,35
01:09:27.251160,6656
01:09:27.251160,0
01:09:27.251160,19
01:09:27.251160,3584
01:09:27.251160,0
01:09:27.251160,9
01:09:27.251160,2304
01:09:27.251160,0
01:09:27.251160,14
01:09:27.251160,3584
01:09:27.251160,0
01:09:27.251160,7
01:09:27.251160,1792
01:09:27.251160,0
01:09:27.251160,9
01:09:27.251160,2304
01:09:27.251160,0
01:09:27.251160,16
01:09:27.251160,5376
01:09:27.251160,0
01:09:27.251160,16
01:09:27.251160,4096
01:09:27.251160,0
01:09:27.251160,23
01:09:27.251160,7680
01:09:27.251160,0
01:09:27.251160,28
01:09:27.251160,7680
01:09:27.251160,0
01:09:27.251160,38
01:09:27.251160,10240
01:09:27.251160,0
01:09:27.251160,42
01:09:27.251160,10752
01:09:27.251160,0
01:09:27.251160,42
01:09:27.251160,11520
01:09:27.251160,0
01:09:27.251160,47
01:09:27.251160,11520
01:09:27.251160,0
01:09:27.251160,38
01:09:27.251160,8960
01:09:27.251160,0
01:09:27.251160,33
01:09:27.251160,8960
01:09:27.251160,0
01:09:27.251160,54
01:09:27.251160,18688
01:09:27.251160,0
01:09:27.251160,78
01:09:27.251160,19968
01:09:27.251160,0
01:09:27.251160,71
01:09:27.251160,14592
01:09:27.251160,0
01:09:27.251160,47
01:09:27.251160,12544
01:09:27.251160,0
01:09:27.251160,52
01:09:27.251160,13824
01:09:27.251160,0
01:09:27.251160,52
01:09:27.251160,10752
01:09:27.251160,0
01:09:27.251160,2
01:09:27.251160,-28416
01:09:27.251160,-1
01:09:27.251160,-211
01:09:27.790287,-80
01:09:27.790287,4607
01:09:27.790287,1
01:09:27.790287,484
01:09:27.790287,27904
01:09:27.790287,1
01:09:27.790287,168
01:09:27.790287,17408
01:09:27.790287,0
01:09:27.790287,21
01:09:27.790287,3584
01:09:27.790287,0
01:09:27.790287,23
01:09:27.790287,3584
01:09:27.790287,0
01:09:27.790287,7
01:09:27.790287,2816
01:09:27.790287,0
01:09:27.790287,19
01:09:27.790287,4864
01:09:27.790287,0
01:09:27.790287,16
01:09:27.790287,4096
01:09:27.790287,0
01:09:27.790287,9
01:09:27.790287,1024
01:09:27.790287,0
01:09:27.790287,9
01:09:27.790287,3584
01:09:27.790287,0
01:09:27.790287,14
01:09:27.790287,3584
01:09:27.790287,0
01:09:27.790287,19
01:09:27.790287,7168
01:09:27.790287,0
01:09:27.790287,40
01:09:27.790287,11520
01:09:27.790287,0
01:09:27.790287,52
01:09:27.790287,16384
01:09:27.790287,0
01:09:27.790287,68
01:09:27.790287,16896
01:09:27.790287,0
01:09:27.790287,61
01:09:27.790287,12032
01:09:27.790287,0
01:09:27.790287,28
01:09:27.790287,3584
01:09:27.790287,0
01:09:27.790287,4
01:09:27.790287,1792
01:09:27.790287,0
01:09:27.790287,11
01:09:27.790287,2816
01:09:27.790287,0
01:09:27.790287,11
01:09:27.790287,1792
01:09:27.790287,0
01:09:27.790287,2
01:09:27.790287,1024
01:09:27.790287,0
01:09:27.790287,14
01:09:27.790287,3584
01:09:27.790287,0
01:09:27.790287,9
01:09:27.790287,2816
01:09:27.790287,0
01:09:27.790287,16
01:09:27.790287,5376
01:09:27.790287,0
01:09:27.790287,26
01:09:27.790287,7168
01:09:27.790287,0
01:09:27.790287,28
01:09:27.790287,7680
01:09:27.790287,0
01:09:27.790287,35
01:09:27.790287,10752
01:09:27.790287,0
01:09:27.790287,52
01:09:27.790287,12544
01:09:27.790287,0
01:09:27.790287,47
01:09:27.790287,12544
01:09:27.790287,0
01:09:27.790287,49
01:09:27.790287,10240
01:09:27.790287,0
01:09:27.790287,35
01:09:27.790287,8960
01:09:27.790287,0
01:09:27.790287,40
01:09:27.790287,15616
01:09:27.790287,0
01:09:27.790287,85
01:09:27.790287,21760
01:09:27.790287,0
01:09:27.790287,73
01:09:27.790287,15616
01:09:27.790287,0
01:09:27.790287,49
01:09:27.790287,12032
01:09:27.790287,0
01:09:27.790287,47
01:09:27.790287,10752
01:09:27.790287,0
01:09:27.790287,40
01:09:28.330290,42
01:09:28.330290,8448
01:09:28.330290,0
01:09:28.330290,-40
01:09:28.330290,22783
01:09:28.330290,-1
01:09:28.330290,-199
01:09:28.330290,4351
01:09:28.330290,0
01:09:28.330290,337
01:09:28.330290,-23040
01:09:28.330290,1
01:09:28.330290,280
01:09:28.330290,-29696
01:09:28.330290,0
01:09:28.330290,47
01:09:28.330290,1792
01:09:28.330290,0
01:09:28.330290,16
01:09:28.330290,5376
01:09:28.330290,0
01:09:28.330290,9
01:09:28.330290,2304
01:09:28.330290,0
01:09:28.330290,16
01:09:28.330290,3584
01:09:28.330290,0
01:09:28.330290,14
01:09:28.330290,4096
01:09:28.330290,0
01:09:28.330290,9
01:09:28.330290,1792
01:09:28.330290,0
01:09:28.330290,11
01:09:28.330290,2816
01:09:28.330290,0
01:09:28.330290,14
01:09:28.330290,3584
01:09:28.330290,0
01:09:28.330290,16
01:09:28.330290,6656
01:09:28.330290,0
01:09:28.330290,38
01:09:28.330290,10752
01:09:28.330290,0
01:09:28.330290,52
01:09:28.330290,16896
01:09:28.330290,0
01:09:28.330290,76
01:09:28.330290,21248
01:09:28.330290,0
01:09:28.330290,76
01:09:28.330290,15104
01:09:28.330290,0
01:09:28.330290,38
01:09:28.330290,5888
01:09:28.330290,0
01:09:28.330290,16
01:09:28.330290,2816
01:09:28.330290,0
01:09:28.330290,9
01:09:28.330290,1024
01:09:28.330290,0
01:09:28.330290,7
01:09:28.330290,2304
01:09:28.330290,0
01:09:28.330290,7
01:09:28.330290,2304
01:09:28.330290,0
01:09:28.330290,11
01:09:28.330290,2816
01:09:28.330290,0
01:09:28.330290,16
01:09:28.330290,5376
01:09:28.330290,0
01:09:28.330290,26
01:09:28.330290,7168
01:09:28.330290,0
01:09:28.330290,30
01:09:28.330290,8960
01:09:28.330290,0
01:09:28.330290,38
01:09:28.330290,8960
01:09:28.330290,0
01:09:28.330290,38
01:09:28.330290,10752
01:09:28.330290,0
01:09:28.330290,42
01:09:28.330290,10752
01:09:28.330290,0
01:09:28.330290,42
01:09:28.330290,11520
01:09:28.330290,0
01:09:28.330290,42
01:09:28.330290,10240
01:09:28.330290,0
01:09:28.330290,45
01:09:28.330290,15616
01:09:28.330290,0
01:09:28.330290,80
01:09:28.330290,23040
01:09:28.330290,0
01:09:28.330290,90
01:09:28.330290,20480
01:09:28.330290,0
01:09:28.330290,64
01:09:28.330290,14592
01:09:28.330290,0
01:09:28.330290,61
01:09:28.870325,59
01:09:28.870325,12544
01:09:28.870325,0
01:09:28.870325,52
01:09:28.870325,14592
01:09:28.870325,0
01:09:28.870325,28
01:09:28.870325,-21248
01:09:28.870325,-1
01:09:28.870325,-211
01:09:28.870325,31231
01:09:28.870325,-1
01:09:28.870325,201
01:09:28.870325,-5376
01:09:28.870325,1
01:09:28.870325,437
01:09:28.870325,-8448
01:09:28.870325,0
01:09:28.870325,97
01:09:28.870325,8448
01:09:28.870325,0
01:09:28.870325,16
01:09:28.870325,7168
01:09:28.870325,0
01:09:28.870325,19
01:09:28.870325,2816
01:09:28.870325,0
01:09:28.870325,21
01:09:28.870325,5376
01:09:28.870325,0
01:09:28.870325,14
01:09:28.870325,3584
01:09:28.870325,0
01:09:28.870325,11
01:09:28.870325,1792
01:09:28.870325,0
01:09:28.870325,9
01:09:28.870325,2816
01:09:28.870325,0
01:09:28.870325,11
01:09:28.870325,3584
01:09:28.870325,0
01:09:28.870325,16
01:09:28.870325,4096
01:09:28.870325,0
01:09:28.870325,23
01:09:28.870325,8960
01:09:28.870325,0
01:09:28.870325,47
01:09:28.870325,14592
01:09:28.870325,0
01:09:28.870325,61
01:09:28.870325,19456
01:09:28.870325,0
01:09:28.870325,80
01:09:28.870325,17408
01:09:28.870325,0
01:09:28.870325,54
01:09:28.870325,10240
01:09:28.870325,0
01:09:28.870325,26
01:09:28.870325,4096
01:09:28.870325,0
01:09:28.870325,19
01:09:28.870325,5376
01:09:28.870325,0
01:09:28.870325,19
01:09:28.870325,3584
01:09:28.870325,0
01:09:28.870325,14
01:09:28.870325,3584
01:09:28.870325,0
01:09:28.870325,14
01:09:28.870325,4096
01:09:28.870325,0
01:09:28.870325,19
01:09:28.870325,4864
01:09:28.870325,0
01:09:28.870325,19
01:09:28.870325,5376
01:09:28.870325,0
01:09:28.870325,23
01:09:28.870325,7680
01:09:28.870325,0
01:09:28.870325,33
01:09:28.870325,8448
01:09:28.870325,0
01:09:28.870325,35
01:09:28.870325,10240
01:09:28.870325,0
01:09:28.870325,40
01:09:28.870325,10752
01:09:28.870325,0
01:09:28.870325,45
01:09:28.870325,12032
01:09:28.870325,0
01:09:28.870325,45
01:09:28.870325,12032
01:09:28.870325,0
01:09:28.870325,54
01:09:28.870325,13312
01:09:28.870325,0
01:09:28.870325,42
01:09:28.870325,10240
01:09:28.870325,0
01:09:28.870325,38
01:09:28.870325,8960
01:09:28.870325,0
01:09:28.870325,40
01:09:29.454711,59
01:09:29.454711,20480
01:09:29.454711,0
01:09:29.454711,85
01:09:29.454711,19968
01:09:29.454711,0
01:09:29.454711,66
01:09:29.454711,13824
01:09:29.454711,0
01:09:29.454711,54
01:09:29.454711,13312
01:09:29.454711,0
01:09:29.454711,47
01:09:29.454711,12544
01:09:29.454711,0
01:09:29.454711,49
01:09:29.454711,9728
01:09:29.454711,0
01:09:29.454711,-23
01:09:29.454711,25855
01:09:29.454711,-1
01:09:29.454711,-204
01:09:29.454711,6911
01:09:29.454711,0
01:09:29.454711,384
01:09:29.454711,-5888
01:09:29.454711,1
01:09:29.454711,311
01:09:29.454711,-31488
01:09:29.454711,0
01:09:29.454711,45
01:09:29.454711,2816
01:09:29.454711,0
01:09:29.454711,16
01:09:29.454711,4864
01:09:29.454711,0
01:09:29.454711,7
01:09:29.454711,1792
01:09:29.454711,0
01:09:29.454711,11
01:09:29.454711,2816
01:09:29.454711,0
01:09:29.454711,7
01:09:29.454711,2816
01:09:29.454711,0
01:09:29.454711,11
01:09:29.454711,1792
01:09:29.454711,0
01:09:29.454711,11
01:09:29.454711,4096
01:09:29.454711,0
01:09:29.454711,14
01:09:29.454711,2304
01:09:29.454711,0
01:09:29.454711,11
01:09:29.454711,5376
01:09:29.454711,0
01:09:29.454711,28
01:09:29.454711,9728
01:09:29.454711,0
01:09:29.454711,49
01:09:29.454711,15104
01:09:29.454711,0
01:09:29.454711,68
01:09:29.454711,19456
01:09:29.454711,0
01:09:29.454711,76
01:09:29.454711,16896
01:09:29.454711,0
01:09:29.454711,49
01:09:29.454711,8448
01:09:29.454711,0
01:09:29.454711,23
01:09:29.454711,5376
01:09:29.454711,0
01:09:29.454711,19
01:09:29.454711,4096
01:09:29.454711,0
01:09:29.454711,23
01:09:29.454711,4864
01:09:29.454711,0
01:09:29.454711,9
01:09:29.454711,4096
01:09:29.454711,0
01:09:29.454711,23
01:09:29.454711,5376
01:09:29.454711,0
01:09:29.454711,21
01:09:29.454711,5888
01:09:29.454711,0
01:09:29.454711,26
01:09:29.454711,7680
01:09:29.454711,0
01:09:29.454711,33
01:09:29.454711,8960
01:09:29.454711,0
01:09:29.454711,40
01:09:29.454711,11520
01:09:29.454711,0
01:09:29.454711,47
01:09:29.454711,11520
01:09:29.454711,0
01:09:29.454711,45
01:09:29.454711,13312
01:09:29.454711,0
01:09:29.454711,54
01:09:29.454711,12544
01:09:29.454711,0
01:09:29.454711,45
01:09:30.040289,49
01:09:30.040289,13312
01:09:30.040289,0
01:09:30.040289,54
01:09:30.040289,13824
01:09:30.040289,0
01:09:30.040289,49
01:09:30.040289,13312
01:09:30.040289,0
01:09:30.040289,54
01:09:30.040289,13312
01:09:30.040289,0
01:09:30.040289,49
01:09:30.040289,10752
01:09:30.040289,0
01:09:30.040289,33
01:09:30.040289,12544
01:09:30.040289,0
01:09:30.040289,78
01:09:30.040289,22272
01:09:30.040289,0
01:09:30.040289,83
01:09:30.040289,18688
01:09:30.040289,0
01:09:30.040289,57
01:09:30.040289,12544
01:09:30.040289,0
01:09:30.040289,54
01:09:30.040289,13824
01:09:30.040289,0
01:09:30.040289,52
01:09:30.040289,13312
01:09:30.040289,0
01:09:30.040289,47
01:09:30.040289,2304
01:09:30.040289,0
01:09:30.040289,-99
01:09:30.040289,13567
01:09:30.040289,-1
01:09:30.040289,-97
01:09:30.040289,-3329
01:09:30.040289,0
01:09:30.040289,477
01:09:30.040289,-31488
01:09:30.040289,1
01:09:30.040289,192
01:09:30.040289,21248
01:09:30.040289,0
01:09:30.040289,28
01:09:30.040289,3584
01:09:30.040289,0
01:09:30.040289,23
01:09:30.040289,4864
01:09:30.040289,0
01:09:30.040289,14
01:09:30.040289,4864
01:09:30.040289,0
01:09:30.040289,19
01:09:30.040289,3584
01:09:30.040289,0
01:09:30.040289,9
01:09:30.040289,2304
01:09:30.040289,0
01:09:30.040289,9
01:09:30.040289,2304
01:09:30.040289,0
01:09:30.040289,7
01:09:30.040289,2304
01:09:30.040289,0
01:09:30.040289,9
01:09:30.040289,2304
01:09:30.040289,0
01:09:30.040289,16
01:09:30.040289,7168
01:09:30.040289,0
01:09:30.040289,35
01:09:30.040289,10240
01:09:30.040289,0
01:09:30.040289,47
01:09:30.040289,15104
01:09:30.040289,0
01:09:30.040289,68
01:09:30.040289,18176
01:09:30.040289,0
01:09:30.040289,64
01:09:30.040289,12544
01:09:30.040289,0
01:09:30.040289,33
01:09:30.040289,4864
01:09:30.040289,0
01:09:30.040289,14
01:09:30.040289,3584
01:09:30.040289,0
01:09:30.040289,19
01:09:30.040289,5376
01:09:30.040289,0
01:09:30.040289,14
01:09:30.040289,2304
01:09:30.040289,0
01:09:30.040289,16
01:09:30.040289,4864
01:09:30.040289,0
01:09:30.040289,16
01:09:30.040289,5888
01:09:30.040289,0
01:09:30.040289,28
01:09:30.040289,7168
01:09:30.040289,0
01:09:30.040289,30
01:09:30.579900,35
01:09:30.579900,10240
01:09:30.579900,0
01:09:30.579900,45
01:09:30.579900,10752
01:09:30.579900,0
01:09:30.579900,38
01:09:30.579900,10240
01:09:30.579900,0
01:09:30.579900,47
01:09:30.579900,12544
01:09:30.579900,0
01:09:30.579900,52
01:09:30.579900,14592
01:09:30.579900,0
01:09:30.579900,59
01:09:30.579900,15616
01:09:30.579900,0
01:09:30.579900,57
01:09:30.579900,13824
01:09:30.579900,0
01:09:30.579900,54
01:09:30.579900,13312
01:09:30.579900,0
01:09:30.579900,52
01:09:30.579900,13824
01:09:30.579900,0
01:09:30.579900,49
01:09:30.579900,11520
01:09:30.579900,0
01:09:30.579900,49
01:09:30.579900,16896
01:09:30.579900,0
01:09:30.579900,85
01:09:30.579900,23040
01:09:30.579900,0
01:09:30.579900,80
01:09:30.579900,16896
01:09:30.579900,0
01:09:30.579900,59
01:09:30.579900,14592
01:09:30.579900,0
01:09:30.579900,54
01:09:30.579900,13824
01:09:30.579900,0
01:09:30.579900,54
01:09:30.579900,13312
01:09:30.579900,0
01:09:30.579900,40
01:09:30.579900,-5888
01:09:30.579900,-1
01:09:30.579900,-156
01:09:30.579900,14335
01:09:30.579900,-1
01:09:30.579900,11
01:09:30.579900,26112
01:09:30.579900,1
01:09:30.579900,472
01:09:30.579900,14080
01:09:30.579900,1
01:09:30.579900,140
01:09:30.579900,12544
01:09:30.579900,0
01:09:30.579900,14
01:09:30.579900,4096
01:09:30.579900,0
01:09:30.579900,21
01:09:30.579900,3584
01:09:30.579900,0
01:09:30.579900,14
01:09:30.579900,3584
01:09:30.579900,0
01:09:30.579900,11
01:09:30.579900,4096
01:09:30.579900,0
01:09:30.579900,14
01:09:30.579900,1024
01:09:30.579900,0
01:09:30.579900,7
01:09:30.579900,3584
01:09:30.579900,0
01:09:30.579900,11
01:09:30.579900,2304
01:09:30.579900,0
01:09:30.579900,11
01:09:30.579900,2816
01:09:30.579900,0
01:09:30.579900,16
01:09:30.579900,7168
01:09:30.579900,0
01:09:30.579900,40
01:09:30.579900,14592
01:09:30.579900,0
01:09:30.579900,66
01:09:30.579900,18176
01:09:30.579900,0
01:09:30.579900,78
01:09:30.579900,18688
01:09:30.579900,0
01:09:30.579900,59
01:09:30.579900,12032
01:09:30.579900,0
01:09:30.579900,33
01:09:30.579900,4864
01:09:30.579900,0
01:09:30.579900,16
01:09:30.579900,3584
01:09:30.579900,0
01:09:30.579900,16
01:09:31.210292,19
01:09:31.210292,5376
01:09:31.210292,0
01:09:31.210292,21
01:09:31.210292,4864
01:09:31.210292,0
01:09:31.210292,16
01:09:31.210292,4864
01:09:31.210292,0
01:09:31.210292,28
01:09:31.210292,8960
01:09:31.210292,0
01:09:31.210292,42
01:09:31.210292,11520
01:09:31.210292,0
01:09:31.210292,49
01:09:31.210292,13312
01:09:31.210292,0
01:09:31.210292,47
01:09:31.210292,12032
01:09:31.210292,0
01:09:31.210292,52
01:09:31.210292,13312
01:09:31.210292,0
01:09:31.210292,57
01:09:31.210292,15104
01:09:31.210292,0
01:09:31.210292,57
01:09:31.210292,14592
01:09:31.210292,0
01:09:31.210292,59
01:09:31.210292,12544
01:09:31.210292,0
01:09:31.210292,42
01:09:31.210292,10240
01:09:31.210292,0
01:09:31.210292,47
01:09:31.210292,16896
01:09:31.210292,0
01:09:31.210292,87
01:09:31.210292,23552
01:09:31.210292,0
01:09:31.210292,87
01:09:31.210292,18176
01:09:31.210292,0
01:09:31.210292,54
01:09:31.210292,15104
01:09:31.210292,0
01:09:31.210292,61
01:09:31.210292,12544
01:09:31.210292,0
01:09:31.210292,47
01:09:31.210292,13312
01:09:31.210292,0
01:09:31.210292,47
01:09:31.210292,1024
01:09:31.210292,0
01:09:31.210292,-114
01:09:31.210292,11263
01:09:31.210292,-1
01:09:31.210292,-87
01:09:31.210292,-1025
01:09:31.210292,0
01:09:31.210292,461
01:09:31.210292,28672
01:09:31.210292,1
01:09:31.210292,187
01:09:31.210292,18688
01:09:31.210292,0
01:09:31.210292,21
01:09:31.210292,5888
01:09:31.210292,0
01:09:31.210292,30
01:09:31.210292,4864
01:09:31.210292,0
01:09:31.210292,21
01:09:31.210292,6656
01:09:31.210292,0
01:09:31.210292,21
01:09:31.210292,5376
01:09:31.210292,0
01:09:31.210292,26
01:09:31.210292,4864
01:09:31.210292,0
01:09:31.210292,11
01:09:31.210292,2304
01:09:31.210292,0
01:09:31.210292,16
01:09:31.210292,4864
01:09:31.210292,0
01:09:31.210292,19
01:09:31.210292,5376
01:09:31.210292,0
01:09:31.210292,23
01:09:31.210292,7680
01:09:31.210292,0
01:09:31.210292,42
01:09:31.210292,13312
01:09:31.210292,0
01:09:31.210292,59
01:09:31.210292,18176
01:09:31.210292,0
01:09:31.210292,80
01:09:31.210292,20480
01:09:31.210292,0
01:09:31.210292,68
01:09:31.210292,13824
01:09:31.210292,0
01:09:31.210292,42
01:09:31.749676,30
01:09:31.749676,4864
01:09:31.749676,0
01:09:31.749676,21
01:09:31.749676,7168
01:09:31.749676,0
01:09:31.749676,28
01:09:31.749676,5888
01:09:31.749676,0
01:09:31.749676,30
01:09:31.749676,8448
01:09:31.749676,0
01:09:31.749676,28
01:09:31.749676,7168
01:09:31.749676,0
01:09:31.749676,33
01:09:31.749676,8960
01:09:31.749676,0
01:09:31.749676,33
01:09:31.749676,9728
01:09:31.749676,0
01:09:31.749676,45
01:09:31.749676,12032
01:09:31.749676,0
01:09:31.749676,47
01:09:31.749676,12544
01:09:31.749676,0
01:09:31.749676,52
01:09:31.749676,13312
01:09:31.749676,0
01:09:31.749676,52
01:09:31.749676,13312
01:09:31.749676,0
01:09:31.749676,52
01:09:31.749676,12544
01:09:31.749676,0
01:09:31.749676,52
01:09:31.749676,15104
01:09:31.749676,0
01:09:31.749676,59
01:09:31.749676,13824
01:09:31.749676,0
01:09:31.749676,47
01:09:31.749676,10752
01:09:31.749676,0
01:09:31.749676,40
01:09:31.749676,10752
01:09:31.749676,0
01:09:31.749676,54
01:09:31.749676,18688
01:09:31.749676,0
01:09:31.749676,83
01:09:31.749676,19456
01:09:31.749676,0
01:09:31.749676,71
01:09:31.749676,15104
01:09:31.749676,0
01:09:31.749676,45
01:09:31.749676,12032
01:09:31.749676,0
01:09:31.749676,52
01:09:31.749676,12032
01:09:31.749676,0
01:09:31.749676,40
01:09:31.749676,11520
01:09:31.749676,0
01:09:31.749676,23
01:09:31.749676,-24320
01:09:31.749676,-1
01:09:31.749676,-213
01:09:31.749676,-28161
01:09:31.749676,-1
01:09:31.749676,225
01:09:31.749676,-10240
01:09:31.749676,1
01:09:31.749676,392
01:09:31.749676,-18944
01:09:31.749676,0
01:09:31.749676,68
01:09:31.749676,5888
01:09:31.749676,0
01:09:31.749676,19
01:09:31.749676,5888
01:09:31.749676,0
01:09:31.749676,11
01:09:31.749676,2304
01:09:31.749676,0
01:09:31.749676,14
01:09:31.749676,2816
01:09:31.749676,0
01:09:31.749676,7
01:09:31.749676,1792
01:09:31.749676,0
01:09:31.749676,9
01:09:31.749676,1024
01:09:31.749676,0
01:09:31.749676,4
01:09:31.749676,2816
01:09:31.749676,0
01:09:31.749676,9
01:09:31.749676,512
01:09:31.749676,0
01:09:31.749676,7
01:09:31.749676,4096
01:09:31.749676,0
01:09:31.749676,23
01:09:31.749676,8960
01:09:31.749676,0
01:09:31.749676,52
01:09:32.245127,59
01:09:32.245127,16384
01:09:32.245127,0
01:09:32.245127,80
01:09:32.245127,22272
01:09:32.245127,0
01:09:32.245127,78
01:09:32.245127,15104
01:09:32.245127,0
01:09:32.245127,40
01:09:32.245127,6656
01:09:32.245127,0
01:09:32.245127,23
01:09:32.245127,8960
01:09:32.245127,0
01:09:32.245127,40
01:09:32.245127,7680
01:09:32.245127,0
01:09:32.245127,23
01:09:32.245127,6656
01:09:32.245127,0
01:09:32.245127,35
01:09:32.245127,10240
01:09:32.245127,0
01:09:32.245127,38
01:09:32.245127,8960
01:09:32.245127,0
01:09:32.245127,33
01:09:32.245127,8960
01:09:32.245127,0
01:09:32.245127,42
01:09:32.245127,11520
01:09:32.245127,0
01:09:32.245127,45
01:09:32.245127,12032
01:09:32.245127,0
01:09:32.245127,49
01:09:32.245127,13824
01:09:32.245127,0
01:09:32.245127,52
01:09:32.245127,12544
01:09:32.245127,0
01:09:32.245127,47
01:09:32.245127,13312
01:09:32.245127,0
01:09:32.245127,54
01:09:32.245127,13312
01:09:32.245127,0
01:09:32.245127,49
01:09:32.245127,12544
01:09:32.245127,0
01:09:32.245127,45
01:09:32.245127,10240
01:09:32.245127,0
01:09:32.245127,40
01:09:32.245127,12032
01:09:32.245127,0
01:09:32.245127,64
01:09:32.245127,20480
01:09:32.245127,0
01:09:32.245127,80
01:09:32.245127,18688
01:09:32.245127,0
01:09:32.245127,59
01:09:32.245127,12544
01:09:32.245127,0
01:09:32.245127,57
01:09:32.245127,14592
01:09:32.245127,0
01:09:32.245127,49
01:09:32.245127,12544
01:09:32.245127,0
01:09:32.245127,47
01:09:32.245127,10240
01:09:32.245127,0
01:09:32.245127,-2
01:09:32.245127,-31233
01:09:32.245127,-1
01:09:32.245127,-218
01:09:32.245127,-19713
01:09:32.245127,-1
01:09:32.245127,263
01:09:32.245127,-11264
01:09:32.245127,1
01:09:32.245127,358
01:09:32.245127,-23808
01:09:32.245127,0
01:09:32.245127,54
01:09:32.245127,1792
01:09:32.245127,0
01:09:32.245127,4
01:09:32.245127,4096
01:09:32.245127,0
01:09:32.245127,9
01:09:32.245127,1024
01:09:32.245127,0
01:09:32.245127,7
01:09:32.245127,1792
01:09:32.245127,0
01:09:32.245127,7
01:09:32.245127,1792
01:09:32.245127,0
01:09:32.245127,4
01:09:32.245127,1024
01:09:32.245127,0
01:09:32.245127,2
01:09:32.245127,0
01:09:32.245127,0
01:09:32.245127,2
01:09:32.784991,7
01:09:32.784991,1024
01:09:32.784991,0
01:09:32.784991,7
01:09:32.784991,5888
01:09:32.784991,0
01:09:32.784991,38
01:09:32.784991,10752
01:09:32.784991,0
01:09:32.784991,49
01:09:32.784991,15616
01:09:32.784991,0
01:09:32.784991,73
01:09:32.784991,19456
01:09:32.784991,0
01:09:32.784991,66
01:09:32.784991,13312
01:09:32.784991,0
01:09:32.784991,35
01:09:32.784991,5376
01:09:32.784991,0
01:09:32.784991,16
01:09:32.784991,4096
01:09:32.784991,0
01:09:32.784991,16
01:09:32.784991,4864
01:09:32.784991,0
01:09:32.784991,21
01:09:32.784991,5376
01:09:32.784991,0
01:09:32.784991,23
01:09:32.784991,5888
01:09:32.784991,0
01:09:32.784991,21
01:09:32.784991,5376
01:09:32.784991,0
01:09:32.784991,23
01:09:32.784991,5888
01:09:32.784991,0
01:09:32.784991,30
01:09:32.784991,8448
01:09:32.784991,0
01:09:32.784991,33
01:09:32.784991,8448
01:09:32.784991,0
01:09:32.784991,35
01:09:32.784991,9728
01:09:32.784991,0
01:09:32.784991,35
01:09:32.784991,8448
01:09:32.784991,0
01:09:32.784991,35
01:09:32.784991,8448
01:09:32.784991,0
01:09:32.784991,33
01:09:32.784991,8448
01:09:32.784991,0
01:09:32.784991,30
01:09:32.784991,6656
01:09:32.784991,0
01:09:32.784991,21
01:09:32.784991,5376
01:09:32.784991,0
01:09:32.784991,35
01:09:32.784991,14592
01:09:32.784991,0
01:09:32.784991,61
01:09:32.784991,14592
01:09:32.784991,0
01:09:32.784991,54
01:09:32.784991,9728
01:09:32.784991,0
01:09:32.784991,28
01:09:32.784991,7680
01:09:32.784991,0
01:09:32.784991,30
01:09:32.784991,7168
01:09:32.784991,0
01:09:32.784991,28
01:09:32.784991,7168
01:09:32.784991,0
01:09:32.784991,4
01:09:32.784991,-23552
01:09:32.784991,-1
01:09:32.784991,-211
01:09:32.784991,25855
01:09:32.784991,-1
01:09:32.784991,147
01:09:32.784991,-20992
01:09:32.784991,1
01:09:32.784991,406
01:09:32.784991,-10240
01:09:32.784991,0
01:09:32.784991,80
01:09:32.784991,2816
01:09:32.784991,0
01:09:32.784991,0
01:09:32.784991,1792
01:09:32.784991,0
01:09:32.784991,0
01:09:32.784991,0
01:09:32.784991,0
01:09:32.784991,4
01:09:32.784991,1024
01:09:32.784991,0
01:09:32.784991,4
01:09:32.784991,1024
01:09:32.784991,0
01:09:32.784991,-2
01:09:33.414979,-7
01:09:33.414979,-2049
01:09:33.414979,-1
01:09:33.414979,-4
01:09:33.414979,2047
01:09:33.414979,0
01:09:33.414979,14
01:09:33.414979,1792
01:09:33.414979,0
01:09:33.414979,7
01:09:33.414979,3584
01:09:33.414979,0
01:09:33.414979,28
01:09:33.414979,9728
01:09:33.414979,0
01:09:33.414979,52
01:09:33.414979,16384
01:09:33.414979,0
01:09:33.414979,68
01:09:33.414979,16896
01:09:33.414979,0
01:09:33.414979,59
01:09:33.414979,12032
01:09:33.414979,0
01:09:33.414979,33
01:09:33.414979,4864
01:09:33.414979,0
01:09:33.414979,4
01:09:33.414979,1024
01:09:33.414979,0
01:09:33.414979,14
01:09:33.414979,2816
01:09:33.414979,0
01:09:33.414979,7
01:09:33.414979,1792
01:09:33.414979,0
01:09:33.414979,9
01:09:33.414979,2816
01:09:33.414979,0
01:09:33.414979,19
01:09:33.414979,5376
01:09:33.414979,0
01:09:33.414979,21
01:09:33.414979,5376
01:09:33.414979,0
01:09:33.414979,21
01:09:33.414979,6656
01:09:33.414979,0
01:09:33.414979,30
01:09:33.414979,8448
01:09:33.414979,0
01:09:33.414979,35
01:09:33.414979,10240
01:09:33.414979,0
01:09:33.414979,42
01:09:33.414979,9728
01:09:33.414979,0
01:09:33.414979,38
01:09:33.414979,9728
01:09:33.414979,0
01:09:33.414979,38
01:09:33.414979,10240
01:09:33.414979,0
01:09:33.414979,35
01:09:33.414979,5888
01:09:33.414979,0
01:09:33.414979,21
01:09:33.414979,7168
01:09:33.414979,0
01:09:33.414979,47
01:09:33.414979,18176
01:09:33.414979,0
01:09:33.414979,83
01:09:33.414979,19968
01:09:33.414979,0
01:09:33.414979,68
01:09:33.414979,13824
01:09:33.414979,0
01:09:33.414979,49
01:09:33.414979,13312
01:09:33.414979,0
01:09:33.414979,52
01:09:33.414979,12544
01:09:33.414979,0
01:09:33.414979,47
01:09:33.414979,10752
01:09:33.414979,0
01:09:33.414979,21
01:09:33.414979,-18688
01:09:33.414979,-1
01:09:33.414979,-199
01:09:33.414979,23295
01:09:33.414979,-1
01:09:33.414979,123
01:09:33.414979,-24832
01:09:33.414979,1
01:09:33.414979,411
01:09:33.414979,-5376
01:09:33.414979,0
01:09:33.414979,109
01:09:33.414979,8448
01:09:33.414979,0
01:09:33.414979,7
01:09:33.414979,5888
01:09:33.414979,0
01:09:33.414979,21
01:09:33.414979,2304
01:09:33.414979,0
01:09:33.414979,14
01:09:33.957056,16
01:09:33.957056,2816
01:09:33.957056,0
01:09:33.957056,11
01:09:33.957056,3584
01:09:33.957056,0
01:09:33.957056,11
01:09:33.957056,2304
01:09:33.957056,0
01:09:33.957056,9
01:09:33.957056,2816
01:09:33.957056,0
01:09:33.957056,14
01:09:33.957056,2816
01:09:33.957056,0
01:09:33.957056,16
01:09:33.957056,8448
01:09:33.957056,0
01:09:33.957056,40
01:09:33.957056,10752
01:09:33.957056,0
01:09:33.957056,59
01:09:33.957056,18176
01:09:33.957056,0
01:09:33.957056,73
01:09:33.957056,21248
01:09:33.957056,0
01:09:33.957056,78
01:09:33.957056,13824
01:09:33.957056,0
01:09:33.957056,33
01:09:33.957056,5888
01:09:33.957056,0
01:09:33.957056,11
01:09:33.957056,1792
01:09:33.957056,0
01:09:33.957056,11
01:09:33.957056,4096
01:09:33.957056,0
01:09:33.957056,16
01:09:33.957056,2816
01:09:33.957056,0
01:09:33.957056,7
01:09:33.957056,3584
01:09:33.957056,0
01:09:33.957056,23
01:09:33.957056,5888
01:09:33.957056,0
01:09:33.957056,19
01:09:33.957056,4864
01:09:33.957056,0
01:09:33.957056,21
01:09:33.957056,6656
01:09:33.957056,0
01:09:33.957056,33
01:09:33.957056,8960
01:09:33.957056,0
01:09:33.957056,38
01:09:33.957056,10752
01:09:33.957056,0
01:09:33.957056,45
01:09:33.957056,11520
01:09:33.957056,0
01:09:33.957056,47
01:09:33.957056,12032
01:09:33.957056,0
01:09:33.957056,45
01:09:33.957056,10752
01:09:33.957056,0
01:09:33.957056,38
01:09:33.957056,8960
01:09:33.957056,0
01:09:33.957056,33
01:09:33.957056,10752
01:09:33.957056,0
01:09:33.957056,66
01:09:33.957056,20480
01:09:33.957056,0
01:09:33.957056,78
01:09:33.957056,17408
01:09:33.957056,0
01:09:33.957056,54
01:09:33.957056,12032
01:09:33.957056,0
01:09:33.957056,49
01:09:33.957056,12032
01:09:33.957056,0
01:09:33.957056,42
01:09:33.957056,10240
01:09:33.957056,0
01:09:33.957056,38
01:09:33.957056,8960
01:09:33.957056,0
01:09:33.957056,-21
01:09:33.957056,26367
01:09:33.957056,-1
01:09:33.957056,-218
01:09:33.957056,-5121
01:09:33.957056,-1
01:09:33.957056,337
01:09:33.957056,-8960
01:09:33.957056,1
01:09:33.957056,318
01:09:33.957056,-31488
01:09:33.957056,0
01:09:33.957056,42
01:09:33.957056,2816
01:09:33.957056,0
01:09:33.957056,11
01:09:34.494752,9
01:09:34.494752,512
01:09:34.494752,0
01:09:34.494752,7
01:09:34.494752,2816
01:09:34.494752,0
01:09:34.494752,9
01:09:34.494752,2304
01:09:34.494752,0
01:09:34.494752,7
01:09:34.494752,512
01:09:34.494752,0
01:09:34.494752,2
01:09:34.494752,1792
01:09:34.494752,0
01:09:34.494752,9
01:09:34.494752,1024
01:09:34.494752,0
01:09:34.494752,2
01:09:34.494752,2304
01:09:34.494752,0
01:09:34.494752,23
01:09:34.494752,8448
01:09:34.494752,0
01:09:34.494752,35
01:09:34.494752,10752
01:09:34.494752,0
01:09:34.494752,57
01:09:34.494752,16384
01:09:34.494752,0
01:09:34.494752,68
01:09:34.494752,18176
01:09:34.494752,0
01:09:34.494752,57
01:09:34.494752,8960
01:09:34.494752,0
01:09:34.494752,23
01:09:34.494752,4864
01:09:34.494752,0
01:09:34.494752,16
01:09:34.494752,2816
01:09:34.494752,0
01:09:34.494752,7
01:09:34.494752,2304
01:09:34.494752,0
01:09:34.494752,14
01:09:34.494752,4096
01:09:34.494752,0
01:09:34.494752,19
01:09:34.494752,4864
01:09:34.494752,0
