timestamp,ecg
14:23:35.167524,-143
14:23:35.167524,29951
14:23:35.167524,-1
14:23:35.167524,-133
14:23:35.167524,-32513
14:23:35.167524,-1
14:23:35.167524,-126
14:23:35.167524,-32513
14:23:35.167524,-1
14:23:35.167524,-128
14:23:35.167524,-32001
14:23:35.167524,-1
14:23:35.167524,-128
14:23:35.167524,-32513
14:23:35.167524,-1
14:23:35.167524,-128
14:23:35.167524,-32001
14:23:35.167524,-1
14:23:35.167524,-128
14:23:35.167524,-32513
14:23:35.167524,-1
14:23:35.167524,-124
14:23:35.167524,-30721
14:23:35.167524,-1
14:23:35.167524,-126
14:23:35.167524,-32001
14:23:35.167524,-1
14:23:35.167524,-121
14:23:35.167524,-30209
14:23:35.167524,-1
14:23:35.167524,-119
14:23:35.167524,-30721
14:23:35.167524,-1
14:23:35.167524,-119
14:23:35.167524,-29697
14:23:35.167524,-1
14:23:35.167524,-117
14:23:35.167524,-30721
14:23:35.167524,-1
14:23:35.167524,-124
14:23:35.167524,-31489
14:23:35.167524,-1
14:23:35.167524,-128
14:23:35.167524,32255
14:23:35.167524,-1
14:23:35.167524,-133
14:23:35.167524,32255
14:23:35.167524,-1
14:23:35.167524,-114
14:23:35.167524,-24577
14:23:35.167524,-1
14:23:35.167524,-90
14:23:35.167524,-23553
14:23:35.167524,-1
14:23:35.167524,-97
14:23:35.167524,-25857
14:23:35.167524,-1
14:23:35.167524,-105
14:23:35.167524,-26625
14:23:35.167524,-1
14:23:35.167524,-102
14:23:35.167524,-25345
14:23:35.167524,-1
14:23:35.167524,-97
14:23:35.167524,-25345
14:23:35.167524,-1
14:23:35.167524,-121
14:23:35.167524,-20481
14:23:35.167524,-1
14:23:35.167524,193
14:23:35.167524,2560
14:23:35.167524,3
14:23:35.167524,1435
14:23:35.167524,32256
14:23:35.167524,5
14:23:35.167524,437
14:23:35.167524,-13824
14:23:35.167524,-2
14:23:35.167524,-212
14:23:35.167524,30975
14:23:35.167524,-1
14:23:35.167524,-317
14:23:35.167524,-11777
14:23:35.167524,-2
14:23:35.167524,-229
14:23:35.167524,-2561
14:23:35.167524,-2
14:23:35.167524,-269
14:23:35.167524,6655
14:23:35.167524,-1
14:23:35.167524,-231
14:23:35.167524,5887
14:23:35.167524,-1
14:23:35.167524,-214
14:23:35.167524,14591
14:23:35.167524,-1
14:23:35.167524,-193
14:23:35.167524,19967
14:23:35.167524,-1
14:23:35.167524,-164
14:23:35.167524,27391
14:23:35.167524,-1
14:23:35.167524,-133
14:23:35.167524,-28929
14:23:35.167524,-1
14:23:35.167524,-97
14:23:35.167524,-22273
14:23:35.167524,-1
14:23:35.167524,-74
14:23:35.795127,-50
14:23:35.795127,-10497
14:23:35.795127,-1
14:23:35.795127,-57
14:23:35.795127,-19201
14:23:35.795127,-1
14:23:35.795127,-97
14:23:35.795127,-32513
14:23:35.795127,-1
14:23:35.795127,-157
14:23:35.795127,19455
14:23:35.795127,-1
14:23:35.795127,-191
14:23:35.795127,18175
14:23:35.795127,-1
14:23:35.795127,-188
14:23:35.795127,15103
14:23:35.795127,-1
14:23:35.795127,-198
14:23:35.795127,16895
14:23:35.795127,-1
14:23:35.795127,-186
14:23:35.795127,19455
14:23:35.795127,-1
14:23:35.795127,-174
14:23:35.795127,23807
14:23:35.795127,-1
14:23:35.795127,-160
14:23:35.795127,26879
14:23:35.795127,-1
14:23:35.795127,-143
14:23:35.795127,30975
14:23:35.795127,-1
14:23:35.795127,-131
14:23:35.795127,-32513
14:23:35.795127,-1
14:23:35.795127,-128
14:23:35.795127,-32001
14:23:35.795127,-1
14:23:35.795127,-124
14:23:35.795127,-30721
14:23:35.795127,-1
14:23:35.795127,-121
14:23:35.795127,-32001
14:23:35.795127,-1
14:23:35.795127,-126
14:23:35.795127,-30209
14:23:35.795127,-1
14:23:35.795127,-112
14:23:35.795127,-28417
14:23:35.795127,-1
14:23:35.795127,-114
14:23:35.795127,-28929
14:23:35.795127,-1
14:23:35.795127,-117
14:23:35.795127,-30209
14:23:35.795127,-1
14:23:35.795127,-114
14:23:35.795127,-28417
14:23:35.795127,-1
14:23:35.795127,-112
14:23:35.795127,-28417
14:23:35.795127,-1
14:23:35.795127,-109
14:23:35.795127,-28417
14:23:35.795127,-1
14:23:35.795127,-114
14:23:35.795127,-29697
14:23:35.795127,-1
14:23:35.795127,-124
14:23:35.795127,32255
14:23:35.795127,-1
14:23:35.795127,-133
14:23:35.795127,-32513
14:23:35.795127,-1
14:23:35.795127,-112
14:23:35.795127,-24065
14:23:35.795127,-1
14:23:35.795127,-88
14:23:35.795127,-21505
14:23:35.795127,-1
14:23:35.795127,-88
14:23:35.795127,-24577
14:23:35.795127,-1
14:23:35.795127,-100
14:23:35.795127,-22785
14:23:35.795127,-1
14:23:35.795127,-90
14:23:35.795127,-24577
14:23:35.795127,-1
14:23:35.795127,-95
14:23:35.795127,-27137
14:23:35.795127,-1
14:23:35.795127,-119
14:23:35.795127,255
14:23:35.795127,0
14:23:35.795127,415
14:23:35.795127,25088
14:23:35.795127,4
14:23:35.795127,1614
14:23:35.795127,17152
14:23:35.795127,4
14:23:35.795127,21
14:23:35.795127,-16384
14:23:35.795127,-2
14:23:35.795127,-126
14:23:35.795127,10239
14:23:35.795127,-1
14:23:35.795127,-346
14:23:36.297050,-260
14:23:36.297050,8959
14:23:36.297050,-1
14:23:36.297050,-257
14:23:36.297050,2815
14:23:36.297050,-1
14:23:36.297050,-231
14:23:36.297050,5375
14:23:36.297050,-1
14:23:36.297050,-214
14:23:36.297050,16383
14:23:36.297050,-1
14:23:36.297050,-195
14:23:36.297050,16895
14:23:36.297050,-1
14:23:36.297050,-169
14:23:36.297050,26111
14:23:36.297050,-1
14:23:36.297050,-138
14:23:36.297050,-27649
14:23:36.297050,-1
14:23:36.297050,-88
14:23:36.297050,-18689
14:23:36.297050,-1
14:23:36.297050,-52
14:23:36.297050,-5633
14:23:36.297050,-1
14:23:36.297050,-7
14:23:36.297050,-3329
14:23:36.297050,-1
14:23:36.297050,-31
14:23:36.297050,-13057
14:23:36.297050,-1
14:23:36.297050,-78
14:23:36.297050,-27649
14:23:36.297050,-1
14:23:36.297050,-133
14:23:36.297050,27391
14:23:36.297050,-1
14:23:36.297050,-162
14:23:36.297050,23807
14:23:36.297050,-1
14:23:36.297050,-162
14:23:36.297050,24831
14:23:36.297050,-1
14:23:36.297050,-160
14:23:36.297050,26111
14:23:36.297050,-1
14:23:36.297050,-148
14:23:36.297050,30463
14:23:36.297050,-1
14:23:36.297050,-136
14:23:36.297050,32255
14:23:36.297050,-1
14:23:36.297050,-124
14:23:36.297050,-30209
14:23:36.297050,-1
14:23:36.297050,-119
14:23:36.297050,-30209
14:23:36.297050,-1
14:23:36.297050,-117
14:23:36.297050,-28929
14:23:36.297050,-1
14:23:36.297050,-109
14:23:36.297050,-26625
14:23:36.297050,-1
14:23:36.297050,-100
14:23:36.297050,-24065
14:23:36.297050,-1
14:23:36.297050,-95
14:23:36.297050,-24065
14:23:36.297050,-1
14:23:36.297050,-93
14:23:36.297050,-23553
14:23:36.297050,-1
14:23:36.297050,-93
14:23:36.297050,-24065
14:23:36.297050,-1
14:23:36.297050,-93
14:23:36.297050,-22785
14:23:36.297050,-1
14:23:36.297050,-88
14:23:36.297050,-21505
14:23:36.297050,-1
14:23:36.297050,-85
14:23:36.297050,-21505
14:23:36.297050,-1
14:23:36.297050,-85
14:23:36.297050,-20993
14:23:36.297050,-1
14:23:36.297050,-88
14:23:36.297050,-24065
14:23:36.297050,-1
14:23:36.297050,-100
14:23:36.297050,-25857
14:23:36.297050,-1
14:23:36.297050,-93
14:23:36.297050,-17921
14:23:36.297050,-1
14:23:36.297050,-54
14:23:36.297050,-13057
14:23:36.297050,-1
14:23:36.297050,-54
14:23:36.297050,-14337
14:23:36.297050,-1
14:23:36.297050,-62
14:23:36.297050,-17921
14:23:36.297050,-1
14:23:36.297050,-69
14:23:36.829740,-62
14:23:36.829740,-16129
14:23:36.829740,-1
14:23:36.829740,-64
14:23:36.829740,-17921
14:23:36.829740,-1
14:23:36.829740,-95
14:23:36.829740,-10497
14:23:36.829740,-1
14:23:36.829740,250
14:23:36.829740,16640
14:23:36.829740,3
14:23:36.829740,1452
14:23:36.829740,25088
14:23:36.829740,5
14:23:36.829740,415
14:23:36.829740,-2816
14:23:36.829740,-2
14:23:36.829740,-148
14:23:36.829740,-22785
14:23:36.829740,-1
14:23:36.829740,-267
14:23:36.829740,4863
14:23:36.829740,-1
14:23:36.829740,-167
14:23:36.829740,13823
14:23:36.829740,-1
14:23:36.829740,-200
14:23:36.829740,23039
14:23:36.829740,-1
14:23:36.829740,-167
14:23:36.829740,23807
14:23:36.829740,-1
14:23:36.829740,-145
14:23:36.829740,30975
14:23:36.829740,-1
14:23:36.829740,-128
14:23:36.829740,-28929
14:23:36.829740,-1
14:23:36.829740,-100
14:23:36.829740,-20993
14:23:36.829740,-1
14:23:36.829740,-64
14:23:36.829740,-11777
14:23:36.829740,-1
14:23:36.829740,-26
14:23:36.829740,-257
14:23:36.829740,-1
14:23:36.829740,16
14:23:36.829740,6656
14:23:36.829740,0
14:23:36.829740,21
14:23:36.829740,2304
14:23:36.829740,0
14:23:36.829740,-7
14:23:36.829740,-8193
14:23:36.829740,-1
14:23:36.829740,-64
14:23:36.829740,-24577
14:23:36.829740,-1
14:23:36.829740,-126
14:23:36.829740,29951
14:23:36.829740,-1
14:23:36.829740,-143
14:23:36.829740,28671
14:23:36.829740,-1
14:23:36.829740,-150
14:23:36.829740,27903
14:23:36.829740,-1
14:23:36.829740,-145
14:23:36.829740,30463
14:23:36.829740,-1
14:23:36.829740,-131
14:23:36.829740,-32001
14:23:36.829740,-1
14:23:36.829740,-119
14:23:36.829740,-29697
14:23:36.829740,-1
14:23:36.829740,-114
14:23:36.829740,-27649
14:23:36.829740,-1
14:23:36.829740,-107
14:23:36.829740,-26625
14:23:36.829740,-1
14:23:36.829740,-100
14:23:36.829740,-24065
14:23:36.829740,-1
14:23:36.829740,-95
14:23:36.829740,-23553
14:23:36.829740,-1
14:23:36.829740,-88
14:23:36.829740,-21505
14:23:36.829740,-1
14:23:36.829740,-85
14:23:36.829740,-21505
14:23:36.829740,-1
14:23:36.829740,-85
14:23:36.829740,-22273
14:23:36.829740,-1
14:23:36.829740,-83
14:23:36.829740,-20481
14:23:36.829740,-1
14:23:36.829740,-81
14:23:36.829740,-20481
14:23:36.829740,-1
14:23:36.829740,-81
14:23:36.829740,-21505
14:23:36.829740,-1
14:23:36.829740,-85
14:23:37.411269,-90
14:23:37.411269,-24065
14:23:37.411269,-1
14:23:37.411269,-97
14:23:37.411269,-22273
14:23:37.411269,-1
14:23:37.411269,-66
14:23:37.411269,-11265
14:23:37.411269,-1
14:23:37.411269,-31
14:23:37.411269,-5121
14:23:37.411269,-1
14:23:37.411269,-31
14:23:37.411269,-11265
14:23:37.411269,-1
14:23:37.411269,-47
14:23:37.411269,-10497
14:23:37.411269,-1
14:23:37.411269,-42
14:23:37.411269,-11265
14:23:37.411269,-1
14:23:37.411269,-42
14:23:37.411269,-13569
14:23:37.411269,-1
14:23:37.411269,-74
14:23:37.411269,5119
14:23:37.411269,0
14:23:37.411269,372
14:23:37.411269,-10240
14:23:37.411269,3
14:23:37.411269,1509
14:23:37.411269,-18944
14:23:37.411269,4
14:23:37.411269,200
14:23:37.411269,-4096
14:23:37.411269,-2
14:23:37.411269,-93
14:23:37.411269,-32001
14:23:37.411269,-1
14:23:37.411269,-279
14:23:37.411269,11519
14:23:37.411269,-1
14:23:37.411269,-167
14:23:37.411269,12799
14:23:37.411269,-1
14:23:37.411269,-188
14:23:37.411269,25599
14:23:37.411269,-1
14:23:37.411269,-164
14:23:37.411269,25599
14:23:37.411269,-1
14:23:37.411269,-138
14:23:37.411269,-32001
14:23:37.411269,-1
14:23:37.411269,-114
14:23:37.411269,-25345
14:23:37.411269,-1
14:23:37.411269,-83
14:23:37.411269,-15617
14:23:37.411269,-1
14:23:37.411269,-35
14:23:37.411269,-2561
14:23:37.411269,-1
14:23:37.411269,9
14:23:37.411269,8448
14:23:37.411269,0
14:23:37.411269,47
14:23:37.411269,12032
14:23:37.411269,0
14:23:37.411269,42
14:23:37.411269,6656
14:23:37.411269,0
14:23:37.411269,-2
14:23:37.411269,-8193
14:23:37.411269,-1
14:23:37.411269,-66
14:23:37.411269,-25857
14:23:37.411269,-1
14:23:37.411269,-128
14:23:37.411269,30975
14:23:37.411269,-1
14:23:37.411269,-138
14:23:37.411269,29183
14:23:37.411269,-1
14:23:37.411269,-145
14:23:37.411269,29183
14:23:37.411269,-1
14:23:37.411269,-136
14:23:37.411269,-31489
14:23:37.411269,-1
14:23:37.411269,-114
14:23:37.411269,-27649
14:23:37.411269,-1
14:23:37.411269,-102
14:23:37.411269,-25857
14:23:37.411269,-1
14:23:37.411269,-97
14:23:37.411269,-23553
14:23:37.411269,-1
14:23:37.411269,-93
14:23:37.411269,-22785
14:23:37.411269,-1
14:23:37.411269,-81
14:23:37.411269,-19713
14:23:37.411269,-1
14:23:37.411269,-81
14:23:37.411269,-19713
14:23:37.411269,-1
14:23:37.411269,-76
14:23:37.963227,-71
14:23:37.963227,-17409
14:23:37.963227,-1
14:23:37.963227,-66
14:23:37.963227,-16129
14:23:37.963227,-1
14:23:37.963227,-62
14:23:37.963227,-14337
14:23:37.963227,-1
14:23:37.963227,-57
14:23:37.963227,-16129
14:23:37.963227,-1
14:23:37.963227,-74
14:23:37.963227,-17409
14:23:37.963227,-1
14:23:37.963227,-62
14:23:37.963227,-14849
14:23:37.963227,-1
14:23:37.963227,-52
14:23:37.963227,-8705
14:23:37.963227,-1
14:23:37.963227,-23
14:23:37.963227,-5121
14:23:37.963227,-1
14:23:37.963227,-21
14:23:37.963227,-5633
14:23:37.963227,-1
14:23:37.963227,-31
14:23:37.963227,-9473
14:23:37.963227,-1
14:23:37.963227,-35
14:23:37.963227,-6913
14:23:37.963227,-1
14:23:37.963227,-28
14:23:37.963227,-8193
14:23:37.963227,-1
14:23:37.963227,-40
14:23:37.963227,-13569
14:23:37.963227,-1
14:23:37.963227,57
14:23:37.963227,-17408
14:23:37.963227,1
14:23:37.963227,1036
14:23:37.963227,-15360
14:23:37.963227,5
14:23:37.963227,1124
14:23:37.963227,-27136
14:23:37.963227,0
14:23:37.963227,-272
14:23:37.963227,-20481
14:23:37.963227,-1
14:23:37.963227,-119
14:23:37.963227,-2049
14:23:37.963227,-2
14:23:37.963227,-200
14:23:37.963227,23039
14:23:37.963227,-1
14:23:37.963227,-210
14:23:37.963227,16895
14:23:37.963227,-1
14:23:37.963227,-160
14:23:37.963227,23807
14:23:37.963227,-1
14:23:37.963227,-152
14:23:37.963227,32255
14:23:37.963227,-1
14:23:37.963227,-121
14:23:37.963227,-28417
14:23:37.963227,-1
14:23:37.963227,-95
14:23:37.963227,-19201
14:23:37.963227,-1
14:23:37.963227,-57
14:23:37.963227,-8193
14:23:37.963227,-1
14:23:37.963227,-2
14:23:37.963227,6911
14:23:37.963227,0
14:23:37.963227,47
14:23:37.963227,15872
14:23:37.963227,0
14:23:37.963227,64
14:23:37.963227,12800
14:23:37.963227,0
14:23:37.963227,28
14:23:37.963227,512
14:23:37.963227,0
14:23:37.963227,-33
14:23:37.963227,-18689
14:23:37.963227,-1
14:23:37.963227,-109
14:23:37.963227,-32513
14:23:37.963227,-1
14:23:37.963227,-138
14:23:37.963227,27903
14:23:37.963227,-1
14:23:37.963227,-152
14:23:37.963227,26879
14:23:37.963227,-1
14:23:37.963227,-150
14:23:37.963227,28671
14:23:37.963227,-1
14:23:37.963227,-136
14:23:37.963227,-32001
14:23:37.963227,-1
14:23:37.963227,-119
14:23:37.963227,-29697
14:23:37.963227,-1
14:23:37.963227,-112
14:23:38.542142,-105
14:23:38.542142,-25345
14:23:38.542142,-1
14:23:38.542142,-95
14:23:38.542142,-22273
14:23:38.542142,-1
14:23:38.542142,-85
14:23:38.542142,-21505
14:23:38.542142,-1
14:23:38.542142,-78
14:23:38.542142,-17409
14:23:38.542142,-1
14:23:38.542142,-64
14:23:38.542142,-16641
14:23:38.542142,-1
14:23:38.542142,-66
14:23:38.542142,-16641
14:23:38.542142,-1
14:23:38.542142,-69
14:23:38.542142,-17921
14:23:38.542142,-1
14:23:38.542142,-71
14:23:38.542142,-17409
14:23:38.542142,-1
14:23:38.542142,-69
14:23:38.542142,-17921
14:23:38.542142,-1
14:23:38.542142,-74
14:23:38.542142,-17921
14:23:38.542142,-1
14:23:38.542142,-71
14:23:38.542142,-17921
14:23:38.542142,-1
14:23:38.542142,-76
14:23:38.542142,-20481
14:23:38.542142,-1
14:23:38.542142,-88
14:23:38.542142,-23553
14:23:38.542142,-1
14:23:38.542142,-90
14:23:38.542142,-18689
14:23:38.542142,-1
14:23:38.542142,-54
14:23:38.542142,-11777
14:23:38.542142,-1
14:23:38.542142,-47
14:23:38.542142,-12545
14:23:38.542142,-1
14:23:38.542142,-54
14:23:38.542142,-16641
14:23:38.542142,-1
14:23:38.542142,-71
14:23:38.542142,-16641
14:23:38.542142,-1
14:23:38.542142,-66
14:23:38.542142,-17409
14:23:38.542142,-1
14:23:38.542142,-69
14:23:38.542142,-20993
14:23:38.542142,-1
14:23:38.542142,-97
14:23:38.542142,7423
14:23:38.542142,0
14:23:38.542142,432
14:23:38.542142,18432
14:23:38.542142,4
14:23:38.542142,1585
14:23:38.542142,26368
14:23:38.542142,4
14:23:38.542142,64
14:23:38.542142,-16384
14:23:38.542142,-2
14:23:38.542142,-119
14:23:38.542142,17663
14:23:38.542142,-1
14:23:38.542142,-322
14:23:38.542142,2815
14:23:38.542142,-1
14:23:38.542142,-217
14:23:38.542142,-769
14:23:38.542142,-2
14:23:38.542142,-238
14:23:38.542142,11519
14:23:38.542142,-1
14:23:38.542142,-219
14:23:38.542142,12031
14:23:38.542142,-1
14:23:38.542142,-191
14:23:38.542142,19455
14:23:38.542142,-1
14:23:38.542142,-169
14:23:38.542142,27391
14:23:38.542142,-1
14:23:38.542142,-133
14:23:38.542142,-30209
14:23:38.542142,-1
14:23:38.542142,-97
14:23:38.542142,-19201
14:23:38.542142,-1
14:23:38.542142,-52
14:23:38.542142,-7681
14:23:38.542142,-1
14:23:38.542142,-11
14:23:38.542142,-769
14:23:38.542142,-1
14:23:38.542142,-9
14:23:38.542142,-6401
14:23:38.542142,-1
14:23:38.542142,-47
14:23:39.074453,-74
14:23:39.074453,-26625
14:23:39.074453,-1
14:23:39.074453,-133
14:23:39.074453,26111
14:23:39.074453,-1
14:23:39.074453,-164
14:23:39.074453,23039
14:23:39.074453,-1
14:23:39.074453,-169
14:23:39.074453,22527
14:23:39.074453,-1
14:23:39.074453,-167
14:23:39.074453,25599
14:23:39.074453,-1
14:23:39.074453,-140
14:23:39.074453,-32001
14:23:39.074453,-1
14:23:39.074453,-124
14:23:39.074453,-31489
14:23:39.074453,-1
14:23:39.074453,-119
14:23:39.074453,-29697
14:23:39.074453,-1
14:23:39.074453,-114
14:23:39.074453,-28417
14:23:39.074453,-1
14:23:39.074453,-109
14:23:39.074453,-27137
14:23:39.074453,-1
14:23:39.074453,-102
14:23:39.074453,-24577
14:23:39.074453,-1
14:23:39.074453,-97
14:23:39.074453,-24577
14:23:39.074453,-1
14:23:39.074453,-97
14:23:39.074453,-24065
14:23:39.074453,-1
14:23:39.074453,-93
14:23:39.074453,-23553
14:23:39.074453,-1
14:23:39.074453,-93
14:23:39.074453,-22785
14:23:39.074453,-1
14:23:39.074453,-93
14:23:39.074453,-23553
14:23:39.074453,-1
14:23:39.074453,-85
14:23:39.074453,-20993
14:23:39.074453,-1
14:23:39.074453,-85
14:23:39.074453,-22273
14:23:39.074453,-1
14:23:39.074453,-85
14:23:39.074453,-21505
14:23:39.074453,-1
14:23:39.074453,-83
14:23:39.074453,-20481
14:23:39.074453,-1
14:23:39.074453,-81
14:23:39.074453,-20993
14:23:39.074453,-1
14:23:39.074453,-81
14:23:39.074453,-20481
14:23:39.074453,-1
14:23:39.074453,-81
14:23:39.074453,-19713
14:23:39.074453,-1
14:23:39.074453,-78
14:23:39.074453,-19713
14:23:39.074453,-1
14:23:39.074453,-81
14:23:39.074453,-21505
14:23:39.074453,-1
14:23:39.074453,-90
14:23:39.074453,-23553
14:23:39.074453,-1
14:23:39.074453,-97
14:23:39.074453,-22785
14:23:39.074453,-1
14:23:39.074453,-69
14:23:39.074453,-13057
14:23:39.074453,-1
14:23:39.074453,-47
14:23:39.074453,-11265
14:23:39.074453,-1
14:23:39.074453,-47
14:23:39.074453,-14849
14:23:39.074453,-1
14:23:39.074453,-69
14:23:39.074453,-16641
14:23:39.074453,-1
14:23:39.074453,-59
14:23:39.074453,-14849
14:23:39.074453,-1
14:23:39.074453,-59
14:23:39.074453,-15617
14:23:39.074453,-1
14:23:39.074453,-83
14:23:39.074453,-19713
14:23:39.074453,-1
14:23:39.074453,100
14:23:39.074453,19200
14:23:39.074453,2
14:23:39.074453,1301
14:23:39.074453,23040
14:23:39.074453,6
14:23:39.074453,898
14:23:39.717220,-121
14:23:39.717220,-6145
14:23:39.717220,-2
14:23:39.717220,-95
14:23:39.717220,5887
14:23:39.717220,-1
14:23:39.717220,-312
14:23:39.717220,8959
14:23:39.717220,-1
14:23:39.717220,-222
14:23:39.717220,2815
14:23:39.717220,-1
14:23:39.717220,-205
14:23:39.717220,17663
14:23:39.717220,-1
14:23:39.717220,-200
14:23:39.717220,18175
14:23:39.717220,-1
14:23:39.717220,-162
14:23:39.717220,27391
14:23:39.717220,-1
14:23:39.717220,-140
14:23:39.717220,-32001
14:23:39.717220,-1
14:23:39.717220,-109
14:23:39.717220,-25345
14:23:39.717220,-1
14:23:39.717220,-85
14:23:39.717220,-15617
14:23:39.717220,-1
14:23:39.717220,-38
14:23:39.717220,-3329
14:23:39.717220,-1
14:23:39.717220,0
14:23:39.717220,1024
14:23:39.717220,0
14:23:39.717220,4
14:23:39.717220,0
14:23:39.717220,0
14:23:39.717220,-23
14:23:39.717220,-13057
14:23:39.717220,-1
14:23:39.717220,-81
14:23:39.717220,-28929
14:23:39.717220,-1
14:23:39.717220,-138
14:23:39.717220,29183
14:23:39.717220,-1
14:23:39.717220,-145
14:23:39.717220,26111
14:23:39.717220,-1
14:23:39.717220,-155
14:23:39.717220,27903
14:23:39.717220,-1
14:23:39.717220,-140
14:23:39.717220,30463
14:23:39.717220,-1
14:23:39.717220,-136
14:23:39.717220,31743
14:23:39.717220,-1
14:23:39.717220,-126
14:23:39.717220,-30721
14:23:39.717220,-1
14:23:39.717220,-121
14:23:39.717220,-30209
14:23:39.717220,-1
14:23:39.717220,-114
14:23:39.717220,-27649
14:23:39.717220,-1
14:23:39.717220,-107
14:23:39.717220,-27137
14:23:39.717220,-1
14:23:39.717220,-102
14:23:39.717220,-24577
14:23:39.717220,-1
14:23:39.717220,-95
14:23:39.717220,-22273
14:23:39.717220,-1
14:23:39.717220,-81
14:23:39.717220,-20993
14:23:39.717220,-1
14:23:39.717220,-85
14:23:39.717220,-20993
14:23:39.717220,-1
14:23:39.717220,-83
14:23:39.717220,-20993
14:23:39.717220,-1
14:23:39.717220,-76
14:23:39.717220,-17921
14:23:39.717220,-1
14:23:39.717220,-74
14:23:39.717220,-19201
14:23:39.717220,-1
14:23:39.717220,-78
14:23:39.717220,-19201
14:23:39.717220,-1
14:23:39.717220,-71
14:23:39.717220,-18689
14:23:39.717220,-1
14:23:39.717220,-78
14:23:39.717220,-17921
14:23:39.717220,-1
14:23:39.717220,-69
14:23:39.717220,-17409
14:23:39.717220,-1
14:23:39.717220,-69
14:23:39.717220,-17409
14:23:39.717220,-1
14:23:39.717220,-66
14:23:40.204181,-66
14:23:40.204181,-17921
14:23:40.204181,-1
14:23:40.204181,-76
14:23:40.204181,-19713
14:23:40.204181,-1
14:23:40.204181,-85
14:23:40.204181,-22785
14:23:40.204181,-1
14:23:40.204181,-93
14:23:40.204181,-20993
14:23:40.204181,-1
14:23:40.204181,-71
14:23:40.204181,-14849
14:23:40.204181,-1
14:23:40.204181,-52
14:23:40.204181,-12545
14:23:40.204181,-1
14:23:40.204181,-50
14:23:40.204181,-14849
14:23:40.204181,-1
14:23:40.204181,-69
14:23:40.204181,-14849
14:23:40.204181,-1
14:23:40.204181,-47
14:23:40.204181,-10497
14:23:40.204181,-1
14:23:40.204181,-45
14:23:40.204181,-11265
14:23:40.204181,-1
14:23:40.204181,-57
14:23:40.204181,-13569
14:23:40.204181,-1
14:23:40.204181,109
14:23:40.204181,14336
14:23:40.204181,2
14:23:40.204181,1253
14:23:40.204181,13824
14:23:40.204181,6
14:23:40.204181,914
14:23:40.204181,-19968
14:23:40.204181,-1
14:23:40.204181,-253
14:23:40.204181,-17921
14:23:40.204181,-1
14:23:40.204181,-195
14:23:40.204181,-2561
14:23:40.204181,-2
14:23:40.204181,-183
14:23:40.204181,16895
14:23:40.204181,-1
14:23:40.204181,-219
14:23:40.204181,18943
14:23:40.204181,-1
14:23:40.204181,-171
14:23:40.204181,20735
14:23:40.204181,-1
14:23:40.204181,-155
14:23:40.204181,29951
14:23:40.204181,-1
14:23:40.204181,-133
14:23:40.204181,-28929
14:23:40.204181,-1
14:23:40.204181,-105
14:23:40.204181,-24577
14:23:40.204181,-1
14:23:40.204181,-64
14:23:40.204181,-8193
14:23:40.204181,-1
14:23:40.204181,-26
14:23:40.204181,-2561
14:23:40.204181,-1
14:23:40.204181,19
14:23:40.204181,10240
14:23:40.204181,0
14:23:40.204181,38
14:23:40.204181,7168
14:23:40.204181,0
14:23:40.204181,21
14:23:40.204181,0
14:23:40.204181,0
14:23:40.204181,-33
14:23:40.204181,-15617
14:23:40.204181,-1
14:23:40.204181,-93
14:23:40.204181,-29697
14:23:40.204181,-1
14:23:40.204181,-128
14:23:40.204181,28671
14:23:40.204181,-1
14:23:40.204181,-148
14:23:40.204181,29951
14:23:40.204181,-1
14:23:40.204181,-138
14:23:40.204181,32255
14:23:40.204181,-1
14:23:40.204181,-133
14:23:40.204181,30975
14:23:40.204181,-1
14:23:40.204181,-117
14:23:40.204181,-25857
14:23:40.204181,-1
14:23:40.204181,-109
14:23:40.204181,-26625
14:23:40.204181,-1
14:23:40.204181,-93
14:23:40.204181,-23553
14:23:40.204181,-1
14:23:40.204181,-93
14:23:40.753230,-85
14:23:40.753230,-20481
14:23:40.753230,-1
14:23:40.753230,-78
14:23:40.753230,-19713
14:23:40.753230,-1
14:23:40.753230,-76
14:23:40.753230,-16129
14:23:40.753230,-1
14:23:40.753230,-54
14:23:40.753230,-14337
14:23:40.753230,-1
14:23:40.753230,-52
14:23:40.753230,-10497
14:23:40.753230,-1
14:23:40.753230,-45
14:23:40.753230,-12545
14:23:40.753230,-1
14:23:40.753230,-50
14:23:40.753230,-11777
14:23:40.753230,-1
14:23:40.753230,-45
14:23:40.753230,-11265
14:23:40.753230,-1
14:23:40.753230,-47
14:23:40.753230,-10497
14:23:40.753230,-1
14:23:40.753230,-38
14:23:40.753230,-9985
14:23:40.753230,-1
14:23:40.753230,-45
14:23:40.753230,-9473
14:23:40.753230,-1
14:23:40.753230,-31
14:23:40.753230,-9985
14:23:40.753230,-1
14:23:40.753230,-52
14:23:40.753230,-13057
14:23:40.753230,-1
14:23:40.753230,-47
14:23:40.753230,-11265
14:23:40.753230,-1
14:23:40.753230,-52
14:23:40.753230,-14849
14:23:40.753230,-1
14:23:40.753230,-57
14:23:40.753230,-13569
14:23:40.753230,-1
14:23:40.753230,-50
14:23:40.753230,-7681
14:23:40.753230,-1
14:23:40.753230,-14
14:23:40.753230,-2561
14:23:40.753230,-1
14:23:40.753230,-14
14:23:40.753230,-3841
14:23:40.753230,-1
14:23:40.753230,-26
14:23:40.753230,-8193
14:23:40.753230,-1
14:23:40.753230,-28
14:23:40.753230,-5121
14:23:40.753230,-1
14:23:40.753230,-21
14:23:40.753230,-6401
14:23:40.753230,-1
14:23:40.753230,-33
14:23:40.753230,-13057
14:23:40.753230,-1
14:23:40.753230,9
14:23:40.753230,13312
14:23:40.753230,1
14:23:40.753230,862
14:23:40.753230,-27136
14:23:40.753230,5
14:23:40.753230,1354
14:23:40.753230,-23040
14:23:40.753230,1
14:23:40.753230,-253
14:23:40.753230,-30721
14:23:40.753230,-1
14:23:40.753230,-59
14:23:40.753230,1023
14:23:40.753230,-1
14:23:40.753230,-238
14:23:40.753230,25599
14:23:40.753230,-1
14:23:40.753230,-191
14:23:40.753230,16383
14:23:40.753230,-1
14:23:40.753230,-155
14:23:40.753230,25599
14:23:40.753230,-1
14:23:40.753230,-162
14:23:40.753230,30975
14:23:40.753230,-1
14:23:40.753230,-124
14:23:40.753230,-29697
14:23:40.753230,-1
14:23:40.753230,-95
14:23:40.753230,-20993
14:23:40.753230,-1
14:23:40.753230,-76
14:23:40.753230,-13057
14:23:40.753230,-1
14:23:40.753230,-21
14:23:40.753230,2047
14:23:40.753230,0
14:23:40.753230,31
14:23:41.333394,47
14:23:41.333394,15104
14:23:41.333394,0
14:23:41.333394,57
14:23:41.333394,11520
14:23:41.333394,0
14:23:41.333394,31
14:23:41.333394,2816
14:23:41.333394,0
14:23:41.333394,-28
14:23:41.333394,-18689
14:23:41.333394,-1
14:23:41.333394,-105
14:23:41.333394,-30209
14:23:41.333394,-1
14:23:41.333394,-128
14:23:41.333394,29951
14:23:41.333394,-1
14:23:41.333394,-145
14:23:41.333394,29183
14:23:41.333394,-1
14:23:41.333394,-136
14:23:41.333394,-32513
14:23:41.333394,-1
14:23:41.333394,-128
14:23:41.333394,32255
14:23:41.333394,-1
14:23:41.333394,-126
14:23:41.333394,-30209
14:23:41.333394,-1
14:23:41.333394,-117
14:23:41.333394,-27649
14:23:41.333394,-1
14:23:41.333394,-95
14:23:41.333394,-22273
14:23:41.333394,-1
14:23:41.333394,-88
14:23:41.333394,-20993
14:23:41.333394,-1
14:23:41.333394,-81
14:23:41.333394,-19713
14:23:41.333394,-1
14:23:41.333394,-74
14:23:41.333394,-17921
14:23:41.333394,-1
14:23:41.333394,-74
14:23:41.333394,-19201
14:23:41.333394,-1
14:23:41.333394,-81
14:23:41.333394,-20481
14:23:41.333394,-1
14:23:41.333394,-78
14:23:41.333394,-19201
14:23:41.333394,-1
14:23:41.333394,-76
14:23:41.333394,-19713
14:23:41.333394,-1
14:23:41.333394,-83
14:23:41.333394,-20481
14:23:41.333394,-1
14:23:41.333394,-76
14:23:41.333394,-18689
14:23:41.333394,-1
14:23:41.333394,-76
14:23:41.333394,-18689
14:23:41.333394,-1
14:23:41.333394,-74
14:23:41.333394,-18689
14:23:41.333394,-1
14:23:41.333394,-69
14:23:41.333394,-16129
14:23:41.333394,-1
14:23:41.333394,-66
14:23:41.333394,-16129
14:23:41.333394,-1
14:23:41.333394,-59
14:23:41.333394,-13569
14:23:41.333394,-1
14:23:41.333394,-57
14:23:41.333394,-13057
14:23:41.333394,-1
14:23:41.333394,-50
14:23:41.333394,-17409
14:23:41.333394,-1
14:23:41.333394,-90
14:23:41.333394,-22785
14:23:41.333394,-1
14:23:41.333394,-90
14:23:41.333394,-21505
14:23:41.333394,-1
14:23:41.333394,-54
14:23:41.333394,-7681
14:23:41.333394,-1
14:23:41.333394,-33
14:23:41.333394,-8705
14:23:41.333394,-1
14:23:41.333394,-35
14:23:41.333394,-11265
14:23:41.333394,-1
14:23:41.333394,-54
14:23:41.333394,-12545
14:23:41.333394,-1
14:23:41.333394,-42
14:23:41.333394,-9985
14:23:41.333394,-1
14:23:41.333394,-40
14:23:41.333394,-12545
14:23:41.333394,-1
14:23:41.333394,-74
14:23:41.959639,-11
14:23:41.959639,9215
14:23:41.959639,1
14:23:41.959639,912
14:23:41.959639,7168
14:23:41.959639,6
14:23:41.959639,1433
14:23:41.959639,-30976
14:23:41.959639,1
14:23:41.959639,-298
14:23:41.959639,25599
14:23:41.959639,-1
14:23:41.959639,-100
14:23:41.959639,-3073
14:23:41.959639,-2
14:23:41.959639,-234
14:23:41.959639,23039
14:23:41.959639,-1
14:23:41.959639,-210
14:23:41.959639,11519
14:23:41.959639,-1
14:23:41.959639,-174
14:23:41.959639,22015
14:23:41.959639,-1
14:23:41.959639,-167
14:23:41.959639,27903
14:23:41.959639,-1
14:23:41.959639,-133
14:23:41.959639,-32513
14:23:41.959639,-1
14:23:41.959639,-121
14:23:41.959639,-27137
14:23:41.959639,-1
14:23:41.959639,-95
14:23:41.959639,-20481
14:23:41.959639,-1
14:23:41.959639,-52
14:23:41.959639,-7681
14:23:41.959639,-1
14:23:41.959639,-11
14:23:41.959639,3839
14:23:41.959639,0
14:23:41.959639,35
14:23:41.959639,10240
14:23:41.959639,0
14:23:41.959639,28
14:23:41.959639,2816
14:23:41.959639,0
14:23:41.959639,-14
14:23:41.959639,-13569
14:23:41.959639,-1
14:23:41.959639,-90
14:23:41.959639,-30209
14:23:41.959639,-1
14:23:41.959639,-143
14:23:41.959639,25599
14:23:41.959639,-1
14:23:41.959639,-160
14:23:41.959639,26111
14:23:41.959639,-1
14:23:41.959639,-152
14:23:41.959639,26879
14:23:41.959639,-1
14:23:41.959639,-145
14:23:41.959639,31743
14:23:41.959639,-1
14:23:41.959639,-119
14:23:41.959639,-28417
14:23:41.959639,-1
14:23:41.959639,-112
14:23:41.959639,-28929
14:23:41.959639,-1
14:23:41.959639,-107
14:23:41.959639,-25857
14:23:41.959639,-1
14:23:41.959639,-100
14:23:41.959639,-22785
14:23:41.959639,-1
14:23:41.959639,-81
14:23:41.959639,-19713
14:23:41.959639,-1
14:23:41.959639,-74
14:23:41.959639,-15617
14:23:41.959639,-1
14:23:41.959639,-54
14:23:41.959639,-14849
14:23:41.959639,-1
14:23:41.959639,-62
14:23:41.959639,-15617
14:23:41.959639,-1
14:23:41.959639,-64
14:23:41.959639,-17409
14:23:41.959639,-1
14:23:41.959639,-71
14:23:41.959639,-17921
14:23:41.959639,-1
14:23:41.959639,-71
14:23:41.959639,-16641
14:23:41.959639,-1
14:23:41.959639,-64
14:23:41.959639,-16641
14:23:41.959639,-1
14:23:41.959639,-66
14:23:41.959639,-15617
14:23:41.959639,-1
14:23:41.959639,-57
14:23:41.959639,-13569
14:23:41.959639,-1
14:23:41.959639,-52
14:23:42.461703,-47
14:23:42.461703,-13057
14:23:42.461703,-1
14:23:42.461703,-57
14:23:42.461703,-13057
14:23:42.461703,-1
14:23:42.461703,-47
14:23:42.461703,-12545
14:23:42.461703,-1
14:23:42.461703,-50
14:23:42.461703,-13057
14:23:42.461703,-1
14:23:42.461703,-57
14:23:42.461703,-14337
14:23:42.461703,-1
14:23:42.461703,-59
14:23:42.461703,-14849
14:23:42.461703,-1
14:23:42.461703,-40
14:23:42.461703,-5633
14:23:42.461703,-1
14:23:42.461703,-19
14:23:42.461703,-4609
14:23:42.461703,-1
14:23:42.461703,-23
14:23:42.461703,-5121
14:23:42.461703,-1
14:23:42.461703,-21
14:23:42.461703,-6401
14:23:42.461703,-1
14:23:42.461703,-28
14:23:42.461703,-6401
14:23:42.461703,-1
14:23:42.461703,-26
14:23:42.461703,-6913
14:23:42.461703,-1
14:23:42.461703,-50
14:23:42.461703,-13569
14:23:42.461703,-1
14:23:42.461703,109
14:23:42.461703,13056
14:23:42.461703,2
14:23:42.461703,1237
14:23:42.461703,15104
14:23:42.461703,6
14:23:42.461703,981
14:23:42.461703,-512
14:23:42.461703,-1
14:23:42.461703,-236
14:23:42.461703,-19201
14:23:42.461703,-1
14:23:42.461703,-186
14:23:42.461703,-3073
14:23:42.461703,-2
14:23:42.461703,-188
14:23:42.461703,18943
14:23:42.461703,-1
14:23:42.461703,-217
14:23:42.461703,17663
14:23:42.461703,-1
14:23:42.461703,-169
14:23:42.461703,20735
14:23:42.461703,-1
14:23:42.461703,-164
14:23:42.461703,29183
14:23:42.461703,-1
14:23:42.461703,-131
14:23:42.461703,-30721
14:23:42.461703,-1
14:23:42.461703,-112
14:23:42.461703,-24577
14:23:42.461703,-1
14:23:42.461703,-81
14:23:42.461703,-14849
14:23:42.461703,-1
14:23:42.461703,-40
14:23:42.461703,-4609
14:23:42.461703,-1
14:23:42.461703,2
14:23:42.461703,4864
14:23:42.461703,0
14:23:42.461703,23
14:23:42.461703,4864
14:23:42.461703,0
14:23:42.461703,9
14:23:42.461703,-2816
14:23:42.461703,-1
14:23:42.461703,-40
14:23:42.461703,-19201
14:23:42.461703,-1
14:23:42.461703,-112
14:23:42.461703,30463
14:23:42.461703,-1
14:23:42.461703,-152
14:23:42.461703,24831
14:23:42.461703,-1
14:23:42.461703,-160
14:23:42.461703,25599
14:23:42.461703,-1
14:23:42.461703,-155
14:23:42.461703,27391
14:23:42.461703,-1
14:23:42.461703,-145
14:23:42.461703,30975
14:23:42.461703,-1
14:23:42.461703,-121
14:23:42.461703,-29697
14:23:42.461703,-1
14:23:42.461703,-119
14:23:42.995262,-112
14:23:42.995262,-25345
14:23:42.995262,-1
14:23:42.995262,-93
14:23:42.995262,-22273
14:23:42.995262,-1
14:23:42.995262,-83
14:23:42.995262,-20481
14:23:42.995262,-1
14:23:42.995262,-76
14:23:42.995262,-18689
14:23:42.995262,-1
14:23:42.995262,-69
14:23:42.995262,-13569
14:23:42.995262,-1
14:23:42.995262,-47
14:23:42.995262,-13569
14:23:42.995262,-1
14:23:42.995262,-57
14:23:42.995262,-13569
14:23:42.995262,-1
14:23:42.995262,-57
14:23:42.995262,-15617
14:23:42.995262,-1
14:23:42.995262,-62
14:23:42.995262,-14337
14:23:42.995262,-1
14:23:42.995262,-59
14:23:42.995262,-14337
14:23:42.995262,-1
14:23:42.995262,-50
14:23:42.995262,-11777
14:23:42.995262,-1
14:23:42.995262,-52
14:23:42.995262,-13569
14:23:42.995262,-1
14:23:42.995262,-52
14:23:42.995262,-13057
14:23:42.995262,-1
14:23:42.995262,-52
14:23:42.995262,-13569
14:23:42.995262,-1
14:23:42.995262,-59
14:23:42.995262,-14337
14:23:42.995262,-1
14:23:42.995262,-62
14:23:42.995262,-17409
14:23:42.995262,-1
14:23:42.995262,-74
14:23:42.995262,-20481
14:23:42.995262,-1
14:23:42.995262,-85
14:23:42.995262,-19713
14:23:42.995262,-1
14:23:42.995262,-59
14:23:42.995262,-11265
14:23:42.995262,-1
14:23:42.995262,-42
14:23:42.995262,-11265
14:23:42.995262,-1
14:23:42.995262,-47
14:23:42.995262,-14337
14:23:42.995262,-1
14:23:42.995262,-71
14:23:42.995262,-17921
14:23:42.995262,-1
14:23:42.995262,-66
14:23:42.995262,-17409
14:23:42.995262,-1
14:23:42.995262,-69
14:23:42.995262,-18689
14:23:42.995262,-1
14:23:42.995262,-102
14:23:42.995262,-16641
14:23:42.995262,-1
14:23:42.995262,200
14:23:42.995262,-7680
14:23:42.995262,2
14:23:42.995262,1325
14:23:42.995262,13312
14:23:42.995262,5
14:23:42.995262,499
14:23:42.995262,9984
14:23:42.995262,-1
14:23:42.995262,-203
14:23:42.995262,31743
14:23:42.995262,-1
14:23:42.995262,-277
14:23:42.995262,-5633
14:23:42.995262,-2
14:23:42.995262,-214
14:23:42.995262,5375
14:23:42.995262,-1
14:23:42.995262,-241
14:23:42.995262,12031
14:23:42.995262,-1
14:23:42.995262,-205
14:23:42.995262,13311
14:23:42.995262,-1
14:23:42.995262,-186
14:23:42.995262,22527
14:23:42.995262,-1
14:23:42.995262,-160
14:23:42.995262,27903
14:23:42.995262,-1
14:23:42.995262,-131
14:23:42.995262,-30209
14:23:42.995262,-1
14:23:42.995262,-102
14:23:43.575777,-81
14:23:43.575777,-15617
14:23:43.575777,-1
14:23:43.575777,-45
14:23:43.575777,-6401
14:23:43.575777,-1
14:23:43.575777,-14
14:23:43.575777,-3329
14:23:43.575777,-1
14:23:43.575777,-11
14:23:43.575777,-5121
14:23:43.575777,-1
14:23:43.575777,-47
14:23:43.575777,-19201
14:23:43.575777,-1
14:23:43.575777,-102
14:23:43.575777,-32001
14:23:43.575777,-1
14:23:43.575777,-140
14:23:43.575777,27391
14:23:43.575777,-1
14:23:43.575777,-155
14:23:43.575777,25599
14:23:43.575777,-1
14:23:43.575777,-155
14:23:43.575777,27391
14:23:43.575777,-1
14:23:43.575777,-140
14:23:43.575777,30975
14:23:43.575777,-1
14:23:43.575777,-136
14:23:43.575777,32255
14:23:43.575777,-1
14:23:43.575777,-124
14:23:43.575777,-30209
14:23:43.575777,-1
14:23:43.575777,-117
14:23:43.575777,-27649
14:23:43.575777,-1
14:23:43.575777,-102
14:23:43.575777,-25345
14:23:43.575777,-1
14:23:43.575777,-100
14:23:43.575777,-24065
14:23:43.575777,-1
14:23:43.575777,-93
14:23:43.575777,-22273
14:23:43.575777,-1
14:23:43.575777,-88
14:23:43.575777,-22273
14:23:43.575777,-1
14:23:43.575777,-83
14:23:43.575777,-20481
14:23:43.575777,-1
14:23:43.575777,-81
14:23:43.575777,-20481
14:23:43.575777,-1
14:23:43.575777,-78
14:23:43.575777,-19713
14:23:43.575777,-1
14:23:43.575777,-78
14:23:43.575777,-18689
14:23:43.575777,-1
14:23:43.575777,-71
14:23:43.575777,-17921
14:23:43.575777,-1
14:23:43.575777,-71
14:23:43.575777,-16641
14:23:43.575777,-1
14:23:43.575777,-62
14:23:43.575777,-14337
14:23:43.575777,-1
14:23:43.575777,-54
14:23:43.575777,-15617
14:23:43.575777,-1
14:23:43.575777,-66
14:23:43.575777,-16129
14:23:43.575777,-1
14:23:43.575777,-66
14:23:43.575777,-18689
14:23:43.575777,-1
14:23:43.575777,-78
14:23:43.575777,-17409
14:23:43.575777,-1
14:23:43.575777,-47
14:23:43.575777,-7681
14:23:43.575777,-1
14:23:43.575777,-23
14:23:43.575777,-5633
14:23:43.575777,-1
14:23:43.575777,-28
14:23:43.575777,-9473
14:23:43.575777,-1
14:23:43.575777,-42
14:23:43.575777,-9473
14:23:43.575777,-1
14:23:43.575777,-33
14:23:43.575777,-8705
14:23:43.575777,-1
14:23:43.575777,-40
14:23:43.575777,-14337
14:23:43.575777,-1
14:23:43.575777,-74
14:23:43.575777,16639
14:23:43.575777,0
14:23:43.575777,494
14:23:43.575777,25088
14:23:43.575777,4
14:23:43.575777,1514
14:23:44.125010,1034
14:23:44.125010,19968
14:23:44.125010,0
14:23:44.125010,-234
14:23:44.125010,-21505
14:23:44.125010,-1
14:23:44.125010,-171
14:23:44.125010,-3841
14:23:44.125010,-2
14:23:44.125010,-200
14:23:44.125010,18943
14:23:44.125010,-1
14:23:44.125010,-210
14:23:44.125010,19967
14:23:44.125010,-1
14:23:44.125010,-148
14:23:44.125010,26879
14:23:44.125010,-1
14:23:44.125010,-143
14:23:44.125010,32255
14:23:44.125010,-1
14:23:44.125010,-131
14:23:44.125010,-32001
14:23:44.125010,-1
14:23:44.125010,-100
14:23:44.125010,-19201
14:23:44.125010,-1
14:23:44.125010,-64
14:23:44.125010,-11777
14:23:44.125010,-1
14:23:44.125010,-21
14:23:44.125010,255
14:23:44.125010,0
14:23:44.125010,16
14:23:44.125010,8448
14:23:44.125010,0
14:23:44.125010,42
14:23:44.125010,7168
14:23:44.125010,0
14:23:44.125010,7
14:23:44.125010,-3584
14:23:44.125010,-1
14:23:44.125010,-35
14:23:44.125010,-16641
14:23:44.125010,-1
14:23:44.125010,-100
14:23:44.125010,-31489
14:23:44.125010,-1
14:23:44.125010,-131
14:23:44.125010,32255
14:23:44.125010,-1
14:23:44.125010,-138
14:23:44.125010,28671
14:23:44.125010,-1
14:23:44.125010,-140
14:23:44.125010,30975
14:23:44.125010,-1
14:23:44.125010,-131
14:23:44.125010,-30721
14:23:44.125010,-1
14:23:44.125010,-114
14:23:44.125010,-27649
14:23:44.125010,-1
14:23:44.125010,-102
14:23:44.125010,-24065
14:23:44.125010,-1
14:23:44.125010,-88
14:23:44.125010,-20993
14:23:44.125010,-1
14:23:44.125010,-78
14:23:44.125010,-18689
14:23:44.125010,-1
14:23:44.125010,-71
14:23:44.125010,-17409
14:23:44.125010,-1
14:23:44.125010,-69
14:23:44.125010,-17409
14:23:44.125010,-1
14:23:44.125010,-66
14:23:44.125010,-16641
14:23:44.125010,-1
14:23:44.125010,-69
14:23:44.125010,-17409
14:23:44.125010,-1
14:23:44.125010,-66
14:23:44.125010,-16129
14:23:44.125010,-1
14:23:44.125010,-64
14:23:44.125010,-16641
14:23:44.125010,-1
14:23:44.125010,-62
14:23:44.125010,-14337
14:23:44.125010,-1
14:23:44.125010,-54
14:23:44.125010,-14337
14:23:44.125010,-1
14:23:44.125010,-59
14:23:44.125010,-15617
14:23:44.125010,-1
14:23:44.125010,-66
14:23:44.125010,-17921
14:23:44.125010,-1
14:23:44.125010,-74
14:23:44.125010,-19713
14:23:44.125010,-1
14:23:44.125010,-66
14:23:44.125010,-10497
14:23:44.125010,-1
14:23:44.125010,-28
14:23:44.657525,-23
14:23:44.657525,-6401
14:23:44.657525,-1
14:23:44.657525,-33
14:23:44.657525,-10497
14:23:44.657525,-1
14:23:44.657525,-47
14:23:44.657525,-11265
14:23:44.657525,-1
14:23:44.657525,-35
14:23:44.657525,-6401
14:23:44.657525,-1
14:23:44.657525,-26
14:23:44.657525,-10497
14:23:44.657525,-1
14:23:44.657525,-64
14:23:44.657525,9983
14:23:44.657525,0
14:23:44.657525,417
14:23:44.657525,6144
14:23:44.657525,4
14:23:44.657525,1538
14:23:44.657525,-22016
14:23:44.657525,4
14:23:44.657525,200
14:23:44.657525,256
14:23:44.657525,-1
14:23:44.657525,-97
14:23:44.657525,30463
14:23:44.657525,-1
14:23:44.657525,-279
14:23:44.657525,8959
14:23:44.657525,-1
14:23:44.657525,-183
14:23:44.657525,8447
14:23:44.657525,-1
14:23:44.657525,-207
14:23:44.657525,19455
14:23:44.657525,-1
14:23:44.657525,-186
14:23:44.657525,19455
14:23:44.657525,-1
14:23:44.657525,-164
14:23:44.657525,25599
14:23:44.657525,-1
14:23:44.657525,-150
14:23:44.657525,30975
14:23:44.657525,-1
14:23:44.657525,-124
14:23:44.657525,-27649
14:23:44.657525,-1
14:23:44.657525,-90
14:23:44.657525,-18689
14:23:44.657525,-1
14:23:44.657525,-54
14:23:44.657525,-8705
14:23:44.657525,-1
14:23:44.657525,-23
14:23:44.657525,-3329
14:23:44.657525,-1
14:23:44.657525,-16
14:23:44.657525,-7681
14:23:44.657525,-1
14:23:44.657525,-50
14:23:44.657525,-18689
14:23:44.657525,-1
14:23:44.657525,-100
14:23:44.657525,-32513
14:23:44.657525,-1
14:23:44.657525,-150
14:23:44.657525,24831
14:23:44.657525,-1
14:23:44.657525,-162
14:23:44.657525,24319
14:23:44.657525,-1
14:23:44.657525,-162
14:23:44.657525,24319
14:23:44.657525,-1
14:23:44.657525,-155
14:23:44.657525,27903
14:23:44.657525,-1
14:23:44.657525,-140
14:23:44.657525,31743
14:23:44.657525,-1
14:23:44.657525,-128
14:23:44.657525,-30721
14:23:44.657525,-1
14:23:44.657525,-117
14:23:44.657525,-28417
14:23:44.657525,-1
14:23:44.657525,-109
14:23:44.657525,-26625
14:23:44.657525,-1
14:23:44.657525,-102
14:23:44.657525,-25345
14:23:44.657525,-1
14:23:44.657525,-95
14:23:44.657525,-22785
14:23:44.657525,-1
14:23:44.657525,-90
14:23:44.657525,-23553
14:23:44.657525,-1
14:23:44.657525,-93
14:23:44.657525,-23553
14:23:44.657525,-1
14:23:44.657525,-93
14:23:44.657525,-22785
14:23:44.657525,-1
14:23:44.657525,-88
14:23:45.284788,-90
14:23:45.284788,-22273
14:23:45.284788,-1
14:23:45.284788,-88
14:23:45.284788,-20481
14:23:45.284788,-1
14:23:45.284788,-69
14:23:45.284788,-16641
14:23:45.284788,-1
14:23:45.284788,-71
14:23:45.284788,-17409
14:23:45.284788,-1
14:23:45.284788,-66
14:23:45.284788,-17921
14:23:45.284788,-1
14:23:45.284788,-76
14:23:45.284788,-21505
14:23:45.284788,-1
14:23:45.284788,-93
14:23:45.284788,-23553
14:23:45.284788,-1
14:23:45.284788,-78
14:23:45.284788,-14337
14:23:45.284788,-1
14:23:45.284788,-45
14:23:45.284788,-10497
14:23:45.284788,-1
14:23:45.284788,-42
14:23:45.284788,-11265
14:23:45.284788,-1
14:23:45.284788,-54
14:23:45.284788,-15617
14:23:45.284788,-1
14:23:45.284788,-57
14:23:45.284788,-13057
14:23:45.284788,-1
14:23:45.284788,-52
14:23:45.284788,-13057
14:23:45.284788,-1
14:23:45.284788,-62
14:23:45.284788,-19713
14:23:45.284788,-1
14:23:45.284788,35
14:23:45.284788,-15616
14:23:45.284788,1
14:23:45.284788,1156
14:23:45.284788,27904
14:23:45.284788,6
14:23:45.284788,1167
14:23:45.284788,31744
14:23:45.284788,0
14:23:45.284788,-277
14:23:45.284788,-31489
14:23:45.284788,-1
14:23:45.284788,-179
14:23:45.284788,-10497
14:23:45.284788,-2
14:23:45.284788,-234
14:23:45.284788,13311
14:23:45.284788,-1
14:23:45.284788,-236
14:23:45.284788,11007
14:23:45.284788,-1
14:23:45.284788,-191
14:23:45.284788,15103
14:23:45.284788,-1
14:23:45.284788,-188
14:23:45.284788,23039
14:23:45.284788,-1
14:23:45.284788,-155
14:23:45.284788,27391
14:23:45.284788,-1
14:23:45.284788,-143
14:23:45.284788,32255
14:23:45.284788,-1
14:23:45.284788,-112
14:23:45.284788,-23553
14:23:45.284788,-1
14:23:45.284788,-83
14:23:45.284788,-18689
14:23:45.284788,-1
14:23:45.284788,-59
14:23:45.284788,-10497
14:23:45.284788,-1
14:23:45.284788,-35
14:23:45.284788,-9985
14:23:45.284788,-1
14:23:45.284788,-54
14:23:45.284788,-17409
14:23:45.284788,-1
14:23:45.284788,-85
14:23:45.284788,-27649
14:23:45.284788,-1
14:23:45.284788,-128
14:23:45.284788,28671
14:23:45.284788,-1
14:23:45.284788,-157
14:23:45.284788,24319
14:23:45.284788,-1
14:23:45.284788,-164
14:23:45.284788,23807
14:23:45.284788,-1
14:23:45.284788,-160
14:23:45.284788,26879
14:23:45.284788,-1
14:23:45.284788,-148
14:23:45.284788,28671
14:23:45.284788,-1
14:23:45.284788,-133
14:23:45.834022,-117
14:23:45.834022,-31489
14:23:45.834022,-1
14:23:45.834022,-145
14:23:45.834022,27903
14:23:45.834022,-1
14:23:45.834022,-133
14:23:45.834022,-30721
14:23:45.834022,-1
14:23:45.834022,-100
14:23:45.834022,-25345
14:23:45.834022,-1
14:23:45.834022,-131
14:23:45.834022,29951
14:23:45.834022,-1
14:23:45.834022,-117
14:23:45.834022,-24065
14:23:45.834022,-1
14:23:45.834022,-88
14:23:45.834022,-20481
14:23:45.834022,-1
14:23:45.834022,-90
14:23:45.834022,-24577
14:23:45.834022,-1
14:23:45.834022,-69
14:23:45.834022,-13569
14:23:45.834022,-1
14:23:45.834022,-78
14:23:45.834022,-20993
14:23:45.834022,-1
14:23:45.834022,-69
14:23:45.834022,-19201
14:23:45.834022,-1
14:23:45.834022,-88
14:23:45.834022,-19713
14:23:45.834022,-1
14:23:45.834022,-66
14:23:45.834022,-16129
14:23:45.834022,-1
14:23:45.834022,-69
14:23:45.834022,-17409
14:23:45.834022,-1
14:23:45.834022,-66
14:23:45.834022,-17409
14:23:45.834022,-1
14:23:45.834022,-78
14:23:45.834022,-22785
14:23:45.834022,-1
14:23:45.834022,-78
14:23:45.834022,-11265
14:23:45.834022,-1
14:23:45.834022,-40
14:23:45.834022,-14849
14:23:45.834022,-1
14:23:45.834022,-50
14:23:45.834022,-7681
14:23:45.834022,-1
14:23:45.834022,-33
14:23:45.834022,-13057
14:23:45.834022,-1
14:23:45.834022,-59
14:23:45.834022,-11777
14:23:45.834022,-1
14:23:45.834022,-42
14:23:45.834022,-13057
14:23:45.834022,-1
14:23:45.834022,-45
14:23:45.834022,-10497
14:23:45.834022,-1
14:23:45.834022,-64
14:23:45.834022,10495
14:23:45.834022,0
14:23:45.834022,432
14:23:45.834022,17152
14:23:45.834022,4
14:23:45.834022,1597
14:23:45.834022,-23808
14:23:45.834022,4
14:23:45.834022,138
14:23:45.834022,-12032
14:23:45.834022,-2
14:23:45.834022,-124
14:23:45.834022,26111
14:23:45.834022,-1
14:23:45.834022,-281
14:23:45.834022,11007
14:23:45.834022,-1
14:23:45.834022,-181
14:23:45.834022,5887
14:23:45.834022,-1
14:23:45.834022,-222
14:23:45.834022,21247
14:23:45.834022,-1
14:23:45.834022,-179
14:23:45.834022,18175
14:23:45.834022,-1
14:23:45.834022,-155
14:23:45.834022,27903
14:23:45.834022,-1
14:23:45.834022,-174
14:23:45.834022,25599
14:23:45.834022,-1
14:23:45.834022,-117
14:23:45.834022,-25345
14:23:45.834022,-1
14:23:45.834022,-85
14:23:45.834022,-16129
14:23:45.834022,-1
14:23:45.834022,-47
14:23:46.367390,-35
14:23:46.367390,-3841
14:23:46.367390,-1
14:23:46.367390,-7
14:23:46.367390,-6913
14:23:46.367390,-1
14:23:46.367390,-57
14:23:46.367390,-14849
14:23:46.367390,-1
14:23:46.367390,-69
14:23:46.367390,-25857
14:23:46.367390,-1
14:23:46.367390,-124
14:23:46.367390,31743
14:23:46.367390,-1
14:23:46.367390,-143
14:23:46.367390,29951
14:23:46.367390,-1
14:23:46.367390,-138
14:23:46.367390,28671
14:23:46.367390,-1
14:23:46.367390,-145
14:23:46.367390,30463
14:23:46.367390,-1
14:23:46.367390,-124
14:23:46.367390,-28929
14:23:46.367390,-1
14:23:46.367390,-114
14:23:46.367390,-30721
14:23:46.367390,-1
14:23:46.367390,-119
14:23:46.367390,-27137
14:23:46.367390,-1
14:23:46.367390,-105
14:23:46.367390,-27649
14:23:46.367390,-1
14:23:46.367390,-107
14:23:46.367390,-24065
14:23:46.367390,-1
14:23:46.367390,-90
14:23:46.367390,-23553
14:23:46.367390,-1
14:23:46.367390,-85
14:23:46.367390,-20481
14:23:46.367390,-1
14:23:46.367390,-83
14:23:46.367390,-20481
14:23:46.367390,-1
14:23:46.367390,-81
14:23:46.367390,-21505
14:23:46.367390,-1
14:23:46.367390,-90
14:23:46.367390,-22273
14:23:46.367390,-1
14:23:46.367390,-88
14:23:46.367390,-22785
14:23:46.367390,-1
14:23:46.367390,-88
14:23:46.367390,-20993
14:23:46.367390,-1
14:23:46.367390,-83
14:23:46.367390,-20481
14:23:46.367390,-1
14:23:46.367390,-81
14:23:46.367390,-23553
14:23:46.367390,-1
14:23:46.367390,-95
14:23:46.367390,-19713
14:23:46.367390,-1
14:23:46.367390,-69
14:23:46.367390,-22273
14:23:46.367390,-1
14:23:46.367390,-100
14:23:46.367390,-20481
14:23:46.367390,-1
14:23:46.367390,-78
14:23:46.367390,-24065
14:23:46.367390,-1
14:23:46.367390,-97
14:23:46.367390,-20993
14:23:46.367390,-1
14:23:46.367390,-69
14:23:46.367390,-15617
14:23:46.367390,-1
14:23:46.367390,-57
14:23:46.367390,-13057
14:23:46.367390,-1
14:23:46.367390,-52
14:23:46.367390,-14849
14:23:46.367390,-1
14:23:46.367390,-69
14:23:46.367390,-17409
14:23:46.367390,-1
14:23:46.367390,-62
14:23:46.367390,-14337
14:23:46.367390,-1
14:23:46.367390,-50
14:23:46.367390,-14337
14:23:46.367390,-1
14:23:46.367390,-90
14:23:46.367390,-14337
14:23:46.367390,-1
14:23:46.367390,229
14:23:46.367390,14336
14:23:46.367390,3
14:23:46.367390,1471
14:23:46.367390,-9472
14:23:46.367390,5
14:23:46.367390,597
14:23:46.996054,-195
14:23:46.996054,22015
14:23:46.996054,-1
14:23:46.996054,-97
14:23:46.996054,-2561
14:23:46.996054,-2
14:23:46.996054,-267
14:23:46.996054,17663
14:23:46.996054,-1
14:23:46.996054,-212
14:23:46.996054,12799
14:23:46.996054,-1
14:23:46.996054,-162
14:23:46.996054,24319
14:23:46.996054,-1
14:23:46.996054,-169
14:23:46.996054,27903
14:23:46.996054,-1
14:23:46.996054,-133
14:23:46.996054,-32001
14:23:46.996054,-1
14:23:46.996054,-112
14:23:46.996054,-24577
14:23:46.996054,-1
14:23:46.996054,-81
14:23:46.996054,-14849
14:23:46.996054,-1
14:23:46.996054,-40
14:23:46.996054,-5633
14:23:46.996054,-1
14:23:46.996054,-9
14:23:46.996054,-257
14:23:46.996054,-1
14:23:46.996054,2
14:23:46.996054,1024
14:23:46.996054,0
14:23:46.996054,-2
14:23:46.996054,-5121
14:23:46.996054,-1
14:23:46.996054,-42
14:23:46.996054,-16129
14:23:46.996054,-1
14:23:46.996054,-88
14:23:46.996054,-27649
14:23:46.996054,-1
14:23:46.996054,-121
14:23:46.996054,-32001
14:23:46.996054,-1
14:23:46.996054,-133
14:23:46.996054,31743
14:23:46.996054,-1
14:23:46.996054,-133
14:23:46.996054,-32513
14:23:46.996054,-1
14:23:46.996054,-121
14:23:46.996054,-27649
14:23:46.996054,-1
14:23:46.996054,-102
14:23:46.996054,-25857
14:23:46.996054,-1
14:23:46.996054,-97
14:23:46.996054,-22273
14:23:46.996054,-1
14:23:46.996054,-85
14:23:46.996054,-20993
14:23:46.996054,-1
14:23:46.996054,-78
14:23:46.996054,-19201
14:23:46.996054,-1
14:23:46.996054,-78
14:23:46.996054,-19713
14:23:46.996054,-1
14:23:46.996054,-76
14:23:46.996054,-19201
14:23:46.996054,-1
14:23:46.996054,-78
14:23:46.996054,-20481
14:23:46.996054,-1
14:23:46.996054,-81
14:23:46.996054,-19713
14:23:46.996054,-1
14:23:46.996054,-76
14:23:46.996054,-19713
14:23:46.996054,-1
14:23:46.996054,-78
14:23:46.996054,-19201
14:23:46.996054,-1
14:23:46.996054,-78
14:23:46.996054,-19713
14:23:46.996054,-1
14:23:46.996054,-76
14:23:46.996054,-19713
14:23:46.996054,-1
14:23:46.996054,-81
14:23:46.996054,-20481
14:23:46.996054,-1
14:23:46.996054,-81
14:23:46.996054,-19713
14:23:46.996054,-1
14:23:46.996054,-81
14:23:46.996054,-22273
14:23:46.996054,-1
14:23:46.996054,-93
14:23:46.996054,-24065
14:23:46.996054,-1
14:23:46.996054,-95
14:23:46.996054,-20481
14:23:46.996054,-1
14:23:46.996054,-62
14:23:47.503354,-50
14:23:47.503354,-13057
14:23:47.503354,-1
14:23:47.503354,-54
14:23:47.503354,-14849
14:23:47.503354,-1
14:23:47.503354,-71
14:23:47.503354,-19201
14:23:47.503354,-1
14:23:47.503354,-69
14:23:47.503354,-17921
14:23:47.503354,-1
14:23:47.503354,-74
14:23:47.503354,-18689
14:23:47.503354,-1
14:23:47.503354,-95
14:23:47.503354,-25857
14:23:47.503354,-1
14:23:47.503354,95
14:23:47.503354,28416
14:23:47.503354,2
14:23:47.503354,1330
14:23:47.503354,18688
14:23:47.503354,6
14:23:47.503354,886
14:23:47.503354,-19456
14:23:47.503354,-1
14:23:47.503354,-236
14:23:47.503354,-24577
14:23:47.503354,-1
14:23:47.503354,-234
14:23:47.503354,-9217
14:23:47.503354,-2
14:23:47.503354,-214
14:23:47.503354,8959
14:23:47.503354,-1
14:23:47.503354,-243
14:23:47.503354,11519
14:23:47.503354,-1
14:23:47.503354,-200
14:23:47.503354,13823
14:23:47.503354,-1
14:23:47.503354,-186
14:23:47.503354,22015
14:23:47.503354,-1
14:23:47.503354,-167
14:23:47.503354,26111
14:23:47.503354,-1
14:23:47.503354,-145
14:23:47.503354,31743
14:23:47.503354,-1
14:23:47.503354,-114
14:23:47.503354,-23553
14:23:47.503354,-1
14:23:47.503354,-74
14:23:47.503354,-13569
14:23:47.503354,-1
14:23:47.503354,-38
14:23:47.503354,-6401
14:23:47.503354,-1
14:23:47.503354,-21
14:23:47.503354,-6913
14:23:47.503354,-1
14:23:47.503354,-42
14:23:47.503354,-15617
14:23:47.503354,-1
14:23:47.503354,-81
14:23:47.503354,-25857
14:23:47.503354,-1
14:23:47.503354,-124
14:23:47.503354,29183
14:23:47.503354,-1
14:23:47.503354,-152
14:23:47.503354,28671
14:23:47.503354,-1
14:23:47.503354,-136
14:23:47.503354,26111
14:23:47.503354,-1
14:23:47.503354,-174
14:23:47.503354,26111
14:23:47.503354,-1
14:23:47.503354,-133
14:23:47.503354,30463
14:23:47.503354,-1
14:23:47.503354,-131
14:23:47.503354,-28417
14:23:47.503354,-1
14:23:47.503354,-102
14:23:47.503354,-24065
14:23:47.503354,-1
14:23:47.503354,-85
14:23:47.503354,-21505
14:23:47.503354,-1
14:23:47.503354,-95
14:23:47.503354,-23553
14:23:47.503354,-1
14:23:47.503354,-76
14:23:47.503354,-19201
14:23:47.503354,-1
14:23:47.503354,-100
14:23:47.503354,-24065
14:23:47.503354,-1
14:23:47.503354,-71
14:23:47.503354,-17409
14:23:47.503354,-1
14:23:47.503354,-71
14:23:47.503354,-17409
14:23:47.503354,-1
14:23:47.503354,-74
14:23:48.043221,-76
14:23:48.043221,-16129
14:23:48.043221,-1
14:23:48.043221,-42
14:23:48.043221,-11777
14:23:48.043221,-1
14:23:48.043221,-78
14:23:48.043221,-22785
14:23:48.043221,-1
14:23:48.043221,-76
14:23:48.043221,-16641
14:23:48.043221,-1
14:23:48.043221,-54
14:23:48.043221,-11265
14:23:48.043221,-1
14:23:48.043221,-50
14:23:48.043221,-13057
14:23:48.043221,-1
14:23:48.043221,-52
14:23:48.043221,-16641
14:23:48.043221,-1
14:23:48.043221,-66
14:23:48.043221,-8193
14:23:48.043221,-1
14:23:48.043221,-7
14:23:48.043221,-3841
14:23:48.043221,-1
14:23:48.043221,-28
14:23:48.043221,-5633
14:23:48.043221,-1
14:23:48.043221,-31
14:23:48.043221,-10497
14:23:48.043221,-1
14:23:48.043221,-33
14:23:48.043221,-5633
14:23:48.043221,-1
14:23:48.043221,-28
14:23:48.043221,-8193
14:23:48.043221,-1
14:23:48.043221,-52
14:23:48.043221,-10497
14:23:48.043221,-1
14:23:48.043221,183
14:23:48.043221,-2304
14:23:48.043221,2
14:23:48.043221,1471
14:23:48.043221,20736
14:23:48.043221,6
14:23:48.043221,754
14:23:48.043221,26624
14:23:48.043221,-1
14:23:48.043221,-210
14:23:48.043221,-19201
14:23:48.043221,-1
14:23:48.043221,-226
14:23:48.043221,-4353
14:23:48.043221,-2
14:23:48.043221,-198
14:23:48.043221,13823
14:23:48.043221,-1
14:23:48.043221,-212
14:23:48.043221,17663
14:23:48.043221,-1
14:23:48.043221,-176
14:23:48.043221,22527
14:23:48.043221,-1
14:23:48.043221,-162
14:23:48.043221,24831
14:23:48.043221,-1
14:23:48.043221,-148
14:23:48.043221,32255
14:23:48.043221,-1
14:23:48.043221,-117
14:23:48.043221,-25345
14:23:48.043221,-1
14:23:48.043221,-83
14:23:48.043221,-14849
14:23:48.043221,-1
14:23:48.043221,-38
14:23:48.043221,-5633
14:23:48.043221,-1
14:23:48.043221,-16
14:23:48.043221,-1537
14:23:48.043221,-1
14:23:48.043221,4
14:23:48.043221,-1024
14:23:48.043221,-1
14:23:48.043221,-31
14:23:48.043221,-11265
14:23:48.043221,-1
14:23:48.043221,-59
14:23:48.043221,-23553
14:23:48.043221,-1
14:23:48.043221,-112
14:23:48.043221,-27137
14:23:48.043221,-1
14:23:48.043221,-121
14:23:48.043221,26879
14:23:48.043221,-1
14:23:48.043221,-152
14:23:48.043221,-32513
14:23:48.043221,-1
14:23:48.043221,-119
14:23:48.043221,-28417
14:23:48.043221,-1
14:23:48.043221,-100
14:23:48.043221,-26625
14:23:48.043221,-1
14:23:48.043221,-105
14:23:48.627647,-88
14:23:48.627647,-19713
14:23:48.627647,-1
14:23:48.627647,-78
14:23:48.627647,-20481
14:23:48.627647,-1
14:23:48.627647,-83
14:23:48.627647,-16641
14:23:48.627647,-1
14:23:48.627647,-42
14:23:48.627647,-8193
14:23:48.627647,-1
14:23:48.627647,-45
14:23:48.627647,-14849
14:23:48.627647,-1
14:23:48.627647,-50
14:23:48.627647,-7681
14:23:48.627647,-1
14:23:48.627647,-42
14:23:48.627647,-13569
14:23:48.627647,-1
14:23:48.627647,-42
14:23:48.627647,-6401
14:23:48.627647,-1
14:23:48.627647,-21
14:23:48.627647,-9985
14:23:48.627647,-1
14:23:48.627647,-69
14:23:48.627647,-16129
14:23:48.627647,-1
14:23:48.627647,-40
14:23:48.627647,-9985
14:23:48.627647,-1
14:23:48.627647,-54
14:23:48.627647,-13057
14:23:48.627647,-1
14:23:48.627647,-47
14:23:48.627647,-12545
14:23:48.627647,-1
14:23:48.627647,-47
14:23:48.627647,-11265
14:23:48.627647,-1
14:23:48.627647,-45
14:23:48.627647,-11777
14:23:48.627647,-1
14:23:48.627647,-54
14:23:48.627647,-16641
14:23:48.627647,-1
14:23:48.627647,-78
14:23:48.627647,-19201
14:23:48.627647,-1
14:23:48.627647,-57
14:23:48.627647,-8705
14:23:48.627647,-1
14:23:48.627647,-23
14:23:48.627647,-6401
14:23:48.627647,-1
14:23:48.627647,-31
14:23:48.627647,-8705
14:23:48.627647,-1
14:23:48.627647,-42
14:23:48.627647,-12545
14:23:48.627647,-1
14:23:48.627647,-47
14:23:48.627647,-9473
14:23:48.627647,-1
14:23:48.627647,-31
14:23:48.627647,-8193
14:23:48.627647,-1
14:23:48.627647,-50
14:23:48.627647,-19201
14:23:48.627647,-1
14:23:48.627647,4
14:23:48.627647,26112
14:23:48.627647,1
14:23:48.627647,988
14:23:48.627647,-3328
14:23:48.627647,5
14:23:48.627647,1237
14:23:48.627647,-1536
14:23:48.627647,0
14:23:48.627647,-253
14:23:48.627647,-30721
14:23:48.627647,-1
14:23:48.627647,-138
14:23:48.627647,-5121
14:23:48.627647,-2
14:23:48.627647,-236
14:23:48.627647,17663
14:23:48.627647,-1
14:23:48.627647,-217
14:23:48.627647,12031
14:23:48.627647,-1
14:23:48.627647,-181
14:23:48.627647,19455
14:23:48.627647,-1
14:23:48.627647,-181
14:23:48.627647,23807
14:23:48.627647,-1
14:23:48.627647,-152
14:23:48.627647,28671
14:23:48.627647,-1
14:23:48.627647,-138
14:23:48.627647,-32001
14:23:48.627647,-1
14:23:48.627647,-107
14:23:48.627647,-21505
14:23:48.627647,-1
14:23:48.627647,-66
14:23:49.207133,-50
14:23:49.207133,-9473
14:23:49.207133,-1
14:23:49.207133,-28
14:23:49.207133,-5121
14:23:49.207133,-1
14:23:49.207133,-16
14:23:49.207133,-5633
14:23:49.207133,-1
14:23:49.207133,-45
14:23:49.207133,-17409
14:23:49.207133,-1
14:23:49.207133,-81
14:23:49.207133,-23553
14:23:49.207133,-1
14:23:49.207133,-117
14:23:49.207133,32255
14:23:49.207133,-1
14:23:49.207133,-131
14:23:49.207133,31743
14:23:49.207133,-1
14:23:49.207133,-138
14:23:49.207133,30463
14:23:49.207133,-1
14:23:49.207133,-128
14:23:49.207133,-30209
14:23:49.207133,-1
14:23:49.207133,-117
14:23:49.207133,-27649
14:23:49.207133,-1
14:23:49.207133,-102
14:23:49.207133,-25857
14:23:49.207133,-1
14:23:49.207133,-105
14:23:49.207133,-25345
14:23:49.207133,-1
14:23:49.207133,-90
14:23:49.207133,-20481
14:23:49.207133,-1
14:23:49.207133,-76
14:23:49.207133,-20993
14:23:49.207133,-1
14:23:49.207133,-83
14:23:49.207133,-19201
14:23:49.207133,-1
14:23:49.207133,-71
14:23:49.207133,-17921
14:23:49.207133,-1
14:23:49.207133,-69
14:23:49.207133,-16641
14:23:49.207133,-1
14:23:49.207133,-66
14:23:49.207133,-16641
14:23:49.207133,-1
14:23:49.207133,-64
14:23:49.207133,-17921
14:23:49.207133,-1
14:23:49.207133,-78
14:23:49.207133,-18689
14:23:49.207133,-1
14:23:49.207133,-64
14:23:49.207133,-17409
14:23:49.207133,-1
14:23:49.207133,-71
14:23:49.207133,-16129
14:23:49.207133,-1
14:23:49.207133,-54
14:23:49.207133,-13569
14:23:49.207133,-1
14:23:49.207133,-59
14:23:49.207133,-14849
14:23:49.207133,-1
14:23:49.207133,-57
14:23:49.207133,-14849
14:23:49.207133,-1
14:23:49.207133,-59
14:23:49.207133,-12545
14:23:49.207133,-1
14:23:49.207133,-50
14:23:49.207133,-13569
14:23:49.207133,-1
14:23:49.207133,-50
14:23:49.207133,-9473
14:23:49.207133,-1
14:23:49.207133,-42
14:23:49.207133,-14849
14:23:49.207133,-1
14:23:49.207133,-62
14:23:49.207133,-14337
14:23:49.207133,-1
14:23:49.207133,-66
14:23:49.207133,-16641
14:23:49.207133,-1
14:23:49.207133,-40
14:23:49.207133,-4609
14:23:49.207133,-1
14:23:49.207133,-19
14:23:49.207133,-5633
14:23:49.207133,-1
14:23:49.207133,-21
14:23:49.207133,-4609
14:23:49.207133,-1
14:23:49.207133,-26
14:23:49.207133,-8705
14:23:49.207133,-1
14:23:49.207133,-28
14:23:49.207133,-4609
14:23:49.207133,-1
14:23:49.207133,-19
14:23:49.740654,-21
14:23:49.740654,-11777
14:23:49.740654,-1
14:23:49.740654,-26
14:23:49.740654,-15361
14:23:49.740654,0
14:23:49.740654,702
14:23:49.740654,10240
14:23:49.740654,5
14:23:49.740654,1411
14:23:49.740654,22784
14:23:49.740654,2
14:23:49.740654,-160
14:23:49.740654,26879
14:23:49.740654,-1
14:23:49.740654,-62
14:23:49.740654,11007
14:23:49.740654,-1
14:23:49.740654,-219
14:23:49.740654,29183
14:23:49.740654,-1
14:23:49.740654,-181
14:23:49.740654,16895
14:23:49.740654,-1
14:23:49.740654,-138
14:23:49.740654,30975
14:23:49.740654,-1
14:23:49.740654,-160
14:23:49.740654,28671
14:23:49.740654,-1
14:23:49.740654,-119
14:23:49.740654,-25857
14:23:49.740654,-1
14:23:49.740654,-95
14:23:49.740654,-22785
14:23:49.740654,-1
14:23:49.740654,-74
14:23:49.740654,-12545
14:23:49.740654,-1
14:23:49.740654,-40
14:23:49.740654,-4609
14:23:49.740654,-1
14:23:49.740654,19
14:23:49.740654,8448
14:23:49.740654,0
14:23:49.740654,31
14:23:49.740654,8448
14:23:49.740654,0
14:23:49.740654,21
14:23:49.740654,-512
14:23:49.740654,-1
14:23:49.740654,-23
14:23:49.740654,-12545
14:23:49.740654,-1
14:23:49.740654,-76
14:23:49.740654,-25345
14:23:49.740654,-1
14:23:49.740654,-124
14:23:49.740654,30463
14:23:49.740654,-1
14:23:49.740654,-140
14:23:49.740654,28671
14:23:49.740654,-1
14:23:49.740654,-160
14:23:49.740654,24831
14:23:49.740654,-1
14:23:49.740654,-145
14:23:49.740654,30975
14:23:49.740654,-1
14:23:49.740654,-133
14:23:49.740654,-32001
14:23:49.740654,-1
14:23:49.740654,-109
14:23:49.740654,-25345
14:23:49.740654,-1
14:23:49.740654,-105
14:23:49.740654,-27137
14:23:49.740654,-1
14:23:49.740654,-90
14:23:49.740654,-19713
14:23:49.740654,-1
14:23:49.740654,-81
14:23:49.740654,-19201
14:23:49.740654,-1
14:23:49.740654,-71
14:23:49.740654,-19201
14:23:49.740654,-1
14:23:49.740654,-74
14:23:49.740654,-16641
14:23:49.740654,-1
14:23:49.740654,-69
14:23:49.740654,-17409
14:23:49.740654,-1
14:23:49.740654,-64
14:23:49.740654,-15617
14:23:49.740654,-1
14:23:49.740654,-66
14:23:49.740654,-16641
14:23:49.740654,-1
14:23:49.740654,-66
14:23:49.740654,-17921
14:23:49.740654,-1
14:23:49.740654,-71
14:23:49.740654,-17921
14:23:49.740654,-1
14:23:49.740654,-69
14:23:49.740654,-14849
14:23:49.740654,-1
14:23:49.740654,-62
14:23:50.336418,-69
14:23:50.336418,-16641
14:23:50.336418,-1
14:23:50.336418,-57
14:23:50.336418,-13569
14:23:50.336418,-1
14:23:50.336418,-57
14:23:50.336418,-13569
14:23:50.336418,-1
14:23:50.336418,-52
14:23:50.336418,-14849
14:23:50.336418,-1
14:23:50.336418,-59
14:23:50.336418,-11265
14:23:50.336418,-1
14:23:50.336418,-47
14:23:50.336418,-13569
14:23:50.336418,-1
14:23:50.336418,-42
14:23:50.336418,-11265
14:23:50.336418,-1
14:23:50.336418,-62
14:23:50.336418,-14849
14:23:50.336418,-1
14:23:50.336418,-42
14:23:50.336418,-6401
14:23:50.336418,-1
14:23:50.336418,-11
14:23:50.336418,-2561
14:23:50.336418,-1
14:23:50.336418,-21
14:23:50.336418,-6913
14:23:50.336418,-1
14:23:50.336418,-35
14:23:50.336418,-6401
14:23:50.336418,-1
14:23:50.336418,-23
14:23:50.336418,-8705
14:23:50.336418,-1
14:23:50.336418,-33
14:23:50.336418,-8705
14:23:50.336418,-1
14:23:50.336418,-71
14:23:50.336418,-17409
14:23:50.336418,-1
14:23:50.336418,124
14:23:50.336418,12544
14:23:50.336418,2
14:23:50.336418,1134
14:23:50.336418,-32000
14:23:50.336418,5
14:23:50.336418,800
14:23:50.336418,-25600
14:23:50.336418,-1
14:23:50.336418,-217
14:23:50.336418,-7681
14:23:50.336418,-1
14:23:50.336418,-186
14:23:50.336418,-2561
14:23:50.336418,-2
14:23:50.336418,-171
14:23:50.336418,19455
14:23:50.336418,-1
14:23:50.336418,-195
14:23:50.336418,28671
14:23:50.336418,-1
14:23:50.336418,-143
14:23:50.336418,24319
14:23:50.336418,-1
14:23:50.336418,-145
14:23:50.336418,-32513
14:23:50.336418,-1
14:23:50.336418,-124
14:23:50.336418,-25857
14:23:50.336418,-1
14:23:50.336418,-76
14:23:50.336418,-17409
14:23:50.336418,-1
14:23:50.336418,-74
14:23:50.336418,-13569
14:23:50.336418,-1
14:23:50.336418,-9
14:23:50.336418,4351
14:23:50.336418,0
14:23:50.336418,28
14:23:50.336418,15104
14:23:50.336418,0
14:23:50.336418,71
14:23:50.336418,10752
14:23:50.336418,0
14:23:50.336418,19
14:23:50.336418,2304
14:23:50.336418,0
14:23:50.336418,-23
14:23:50.336418,-18689
14:23:50.336418,-1
14:23:50.336418,-107
14:23:50.336418,-30721
14:23:50.336418,-1
14:23:50.336418,-140
14:23:50.336418,24319
14:23:50.336418,-1
14:23:50.336418,-160
14:23:50.336418,26111
14:23:50.336418,-1
14:23:50.336418,-167
14:23:50.336418,24319
14:23:50.336418,-1
14:23:50.336418,-150
14:23:50.870206,-155
14:23:50.870206,29183
14:23:50.870206,-1
14:23:50.870206,-121
14:23:50.870206,-32513
14:23:50.870206,-1
14:23:50.870206,-131
14:23:50.870206,-26625
14:23:50.870206,-1
14:23:50.870206,-88
14:23:50.870206,-24065
14:23:50.870206,-1
14:23:50.870206,-97
14:23:50.870206,-20993
14:23:50.870206,-1
14:23:50.870206,-76
14:23:50.870206,-19713
14:23:50.870206,-1
14:23:50.870206,-57
14:23:50.870206,-9473
14:23:50.870206,-1
14:23:50.870206,-52
14:23:50.870206,-14849
14:23:50.870206,-1
14:23:50.870206,-50
14:23:50.870206,-12545
14:23:50.870206,-1
14:23:50.870206,-50
14:23:50.870206,-12545
14:23:50.870206,-1
14:23:50.870206,-59
14:23:50.870206,-16129
14:23:50.870206,-1
14:23:50.870206,-59
14:23:50.870206,-14337
14:23:50.870206,-1
14:23:50.870206,-66
14:23:50.870206,-16129
14:23:50.870206,-1
14:23:50.870206,-52
14:23:50.870206,-11777
14:23:50.870206,-1
14:23:50.870206,-47
14:23:50.870206,-13057
14:23:50.870206,-1
14:23:50.870206,-59
14:23:50.870206,-14849
14:23:50.870206,-1
14:23:50.870206,-38
14:23:50.870206,-7681
14:23:50.870206,-1
14:23:50.870206,-45
14:23:50.870206,-11265
14:23:50.870206,-1
14:23:50.870206,-31
14:23:50.870206,-6913
14:23:50.870206,-1
14:23:50.870206,-28
14:23:50.870206,-6913
14:23:50.870206,-1
14:23:50.870206,-33
14:23:50.870206,-9473
14:23:50.870206,-1
14:23:50.870206,-38
14:23:50.870206,-11265
14:23:50.870206,-1
14:23:50.870206,-42
14:23:50.870206,-5633
14:23:50.870206,-1
14:23:50.870206,-21
14:23:50.870206,-8193
14:23:50.870206,-1
14:23:50.870206,-35
14:23:50.870206,-7681
14:23:50.870206,-1
14:23:50.870206,-38
14:23:50.870206,-9985
14:23:50.870206,-1
14:23:50.870206,-35
14:23:50.870206,-6913
14:23:50.870206,-1
14:23:50.870206,-28
14:23:50.870206,-7681
14:23:50.870206,-1
14:23:50.870206,-31
14:23:50.870206,-6401
14:23:50.870206,-1
14:23:50.870206,-28
14:23:50.870206,-10497
14:23:50.870206,-1
14:23:50.870206,-45
14:23:50.870206,-6913
14:23:50.870206,-1
14:23:50.870206,-35
14:23:50.870206,-12545
14:23:50.870206,-1
14:23:50.870206,-35
14:23:50.870206,-6401
14:23:50.870206,-1
14:23:50.870206,-38
14:23:50.870206,-10497
14:23:50.870206,-1
14:23:50.870206,-38
14:23:50.870206,-9985
14:23:50.870206,-1
14:23:50.870206,-52
14:23:50.870206,-15617
14:23:50.870206,-1
14:23:50.870206,-64
14:23:51.419067,-50
14:23:51.419067,-8705
14:23:51.419067,-1
14:23:51.419067,-35
14:23:51.419067,-5121
14:23:51.419067,-1
14:23:51.419067,-2
14:23:51.419067,-3841
14:23:51.419067,-1
14:23:51.419067,-40
14:23:51.419067,-11265
14:23:51.419067,-1
14:23:51.419067,-38
14:23:51.419067,-6401
14:23:51.419067,-1
14:23:51.419067,-14
14:23:51.419067,-4609
14:23:51.419067,-1
14:23:51.419067,-40
14:23:51.419067,-16129
14:23:51.419067,-1
14:23:51.419067,-4
14:23:51.419067,-1
14:23:51.419067,0
14:23:51.419067,773
14:23:51.419067,23296
14:23:51.419067,5
14:23:51.419067,1387
14:23:51.419067,2816
14:23:51.419067,2
14:23:51.419067,-203
14:23:51.419067,25599
14:23:51.419067,-1
14:23:51.419067,-81
14:23:51.419067,4863
14:23:51.419067,-1
14:23:51.419067,-234
14:23:51.419067,26111
14:23:51.419067,-1
14:23:51.419067,-186
14:23:51.419067,13823
14:23:51.419067,-1
14:23:51.419067,-169
14:23:51.419067,24831
14:23:51.419067,-1
14:23:51.419067,-162
14:23:51.419067,26111
14:23:51.419067,-1
14:23:51.419067,-136
14:23:51.419067,-29697
14:23:51.419067,-1
14:23:51.419067,-109
14:23:51.419067,-25345
14:23:51.419067,-1
14:23:51.419067,-85
14:23:51.419067,-17921
14:23:51.419067,-1
14:23:51.419067,-50
14:23:51.419067,-5121
14:23:51.419067,-1
14:23:51.419067,2
14:23:51.419067,4096
14:23:51.419067,0
14:23:51.419067,33
14:23:51.419067,11520
14:23:51.419067,0
14:23:51.419067,40
14:23:51.419067,7168
14:23:51.419067,0
14:23:51.419067,19
14:23:51.419067,512
14:23:51.419067,0
14:23:51.419067,-35
14:23:51.419067,-19201
14:23:51.419067,-1
14:23:51.419067,-100
14:23:51.419067,-28417
14:23:51.419067,-1
14:23:51.419067,-121
14:23:51.419067,-32513
14:23:51.419067,-1
14:23:51.419067,-136
14:23:51.419067,-32513
14:23:51.419067,-1
14:23:51.419067,-121
14:23:51.419067,-31489
14:23:51.419067,-1
14:23:51.419067,-133
14:23:51.419067,-30209
14:23:51.419067,-1
14:23:51.419067,-93
14:23:51.419067,-23553
14:23:51.419067,-1
14:23:51.419067,-97
14:23:51.419067,-22273
14:23:51.419067,-1
14:23:51.419067,-83
14:23:51.419067,-20993
14:23:51.419067,-1
14:23:51.419067,-76
14:23:51.419067,-17921
14:23:51.419067,-1
14:23:51.419067,-69
14:23:51.419067,-15617
14:23:51.419067,-1
14:23:51.419067,-59
14:23:51.419067,-16129
14:23:51.419067,-1
14:23:51.419067,-62
14:23:52.045467,-45
14:23:52.045467,-10497
14:23:52.045467,-1
14:23:52.045467,-54
14:23:52.045467,-13569
14:23:52.045467,-1
14:23:52.045467,-57
14:23:52.045467,-14849
14:23:52.045467,-1
14:23:52.045467,-50
14:23:52.045467,-8705
14:23:52.045467,-1
14:23:52.045467,-35
14:23:52.045467,-9985
14:23:52.045467,-1
14:23:52.045467,-42
14:23:52.045467,-11777
14:23:52.045467,-1
14:23:52.045467,-50
14:23:52.045467,-10497
14:23:52.045467,-1
14:23:52.045467,-38
14:23:52.045467,-9985
14:23:52.045467,-1
14:23:52.045467,-45
14:23:52.045467,-8705
14:23:52.045467,-1
14:23:52.045467,-33
14:23:52.045467,-10497
14:23:52.045467,-1
14:23:52.045467,-40
14:23:52.045467,-7681
14:23:52.045467,-1
14:23:52.045467,-35
14:23:52.045467,-11265
14:23:52.045467,-1
14:23:52.045467,-40
14:23:52.045467,-9985
14:23:52.045467,-1
14:23:52.045467,-45
14:23:52.045467,-10497
14:23:52.045467,-1
14:23:52.045467,-35
14:23:52.045467,-9985
14:23:52.045467,-1
14:23:52.045467,-47
14:23:52.045467,-10497
14:23:52.045467,-1
14:23:52.045467,-40
14:23:52.045467,-11265
14:23:52.045467,-1
14:23:52.045467,-47
14:23:52.045467,-10497
14:23:52.045467,-1
14:23:52.045467,-45
14:23:52.045467,-12545
14:23:52.045467,-1
14:23:52.045467,-45
14:23:52.045467,-8705
14:23:52.045467,-1
14:23:52.045467,-35
14:23:52.045467,-9985
14:23:52.045467,-1
14:23:52.045467,-35
14:23:52.045467,-8705
14:23:52.045467,-1
14:23:52.045467,-40
14:23:52.045467,-11265
14:23:52.045467,-1
14:23:52.045467,-45
14:23:52.045467,-9473
14:23:52.045467,-1
14:23:52.045467,-31
14:23:52.045467,-10497
14:23:52.045467,-1
14:23:52.045467,-47
14:23:52.045467,-8193
14:23:52.045467,-1
14:23:52.045467,-33
14:23:52.045467,-11265
14:23:52.045467,-1
14:23:52.045467,-35
14:23:52.045467,-6913
14:23:52.045467,-1
14:23:52.045467,-38
14:23:52.045467,-9985
14:23:52.045467,-1
14:23:52.045467,-35
14:23:52.045467,-8705
14:23:52.045467,-1
14:23:52.045467,-42
14:23:52.045467,-12545
14:23:52.045467,-1
14:23:52.045467,-45
14:23:52.045467,-11777
14:23:52.045467,-1
14:23:52.045467,-52
14:23:52.045467,-9985
14:23:52.045467,-1
14:23:52.045467,-19
14:23:52.045467,-1537
14:23:52.045467,-1
14:23:52.045467,-7
14:23:52.045467,-3329
14:23:52.045467,-1
14:23:52.045467,-14
14:23:52.045467,-3841
14:23:52.045467,-1
14:23:52.045467,-21
14:23:52.531894,-21
14:23:52.531894,-5121
14:23:52.531894,-1
14:23:52.531894,-21
14:23:52.531894,-4609
14:23:52.531894,-1
14:23:52.531894,-42
14:23:52.531894,-14849
14:23:52.531894,-1
14:23:52.531894,93
14:23:52.531894,256
14:23:52.531894,2
14:23:52.531894,1127
14:23:52.531894,-4352
14:23:52.531894,5
14:23:52.531894,1024
14:23:52.531894,12032
14:23:52.531894,0
14:23:52.531894,-246
14:23:52.531894,-14849
14:23:52.531894,-1
14:23:52.531894,-145
14:23:52.531894,1791
14:23:52.531894,-1
14:23:52.531894,-152
14:23:52.531894,-32513
14:23:52.531894,-1
14:23:52.531894,-186
14:23:52.531894,23039
14:23:52.531894,-1
14:23:52.531894,-128
14:23:52.531894,31743
14:23:52.531894,-1
14:23:52.531894,-131
14:23:52.531894,-28417
14:23:52.531894,-1
14:23:52.531894,-105
14:23:52.531894,-24577
14:23:52.531894,-1
14:23:52.531894,-74
14:23:52.531894,-14337
14:23:52.531894,-1
14:23:52.531894,-52
14:23:52.531894,-8193
14:23:52.531894,-1
14:23:52.531894,-4
14:23:52.531894,4351
14:23:52.531894,0
14:23:52.531894,35
14:23:52.531894,18176
14:23:52.531894,0
14:23:52.531894,100
14:23:52.531894,24320
14:23:52.531894,0
14:23:52.531894,74
14:23:52.531894,13824
14:23:52.531894,0
14:23:52.531894,21
14:23:52.531894,-2816
14:23:52.531894,-1
14:23:52.531894,-45
14:23:52.531894,-21505
14:23:52.531894,-1
14:23:52.531894,-114
14:23:52.531894,-31489
14:23:52.531894,-1
14:23:52.531894,-133
14:23:52.531894,27903
14:23:52.531894,-1
14:23:52.531894,-152
14:23:52.531894,29183
14:23:52.531894,-1
14:23:52.531894,-131
14:23:52.531894,31743
14:23:52.531894,-1
14:23:52.531894,-136
14:23:52.531894,-29697
14:23:52.531894,-1
14:23:52.531894,-107
14:23:52.531894,-28417
14:23:52.531894,-1
14:23:52.531894,-112
14:23:52.531894,-26625
14:23:52.531894,-1
14:23:52.531894,-100
14:23:52.531894,-24065
14:23:52.531894,-1
14:23:52.531894,-93
14:23:52.531894,-22785
14:23:52.531894,-1
14:23:52.531894,-76
14:23:52.531894,-16641
14:23:52.531894,-1
14:23:52.531894,-71
14:23:52.531894,-17409
14:23:52.531894,-1
14:23:52.531894,-62
14:23:52.531894,-16641
14:23:52.531894,-1
14:23:52.531894,-69
14:23:52.531894,-16641
14:23:52.531894,-1
14:23:52.531894,-62
14:23:52.531894,-16129
14:23:52.531894,-1
14:23:52.531894,-66
14:23:52.531894,-13057
14:23:52.531894,-1
14:23:52.531894,-54
14:23:53.127758,-66
14:23:53.127758,-16129
14:23:53.127758,-1
14:23:53.127758,-52
14:23:53.127758,-13569
14:23:53.127758,-1
14:23:53.127758,-57
14:23:53.127758,-13057
14:23:53.127758,-1
14:23:53.127758,-47
14:23:53.127758,-9473
14:23:53.127758,-1
14:23:53.127758,-33
14:23:53.127758,-8705
14:23:53.127758,-1
14:23:53.127758,-38
14:23:53.127758,-10497
14:23:53.127758,-1
14:23:53.127758,-47
14:23:53.127758,-10497
14:23:53.127758,-1
14:23:53.127758,-40
14:23:53.127758,-11265
14:23:53.127758,-1
14:23:53.127758,-35
14:23:53.127758,-7681
14:23:53.127758,-1
14:23:53.127758,-42
14:23:53.127758,-9985
14:23:53.127758,-1
14:23:53.127758,-26
14:23:53.127758,-6913
14:23:53.127758,-1
14:23:53.127758,-38
14:23:53.127758,-8705
14:23:53.127758,-1
14:23:53.127758,-28
14:23:53.127758,-5633
14:23:53.127758,-1
14:23:53.127758,-26
14:23:53.127758,-7681
14:23:53.127758,-1
14:23:53.127758,-31
14:23:53.127758,-7681
14:23:53.127758,-1
14:23:53.127758,-38
14:23:53.127758,-11777
14:23:53.127758,-1
14:23:53.127758,-50
14:23:53.127758,-9473
14:23:53.127758,-1
14:23:53.127758,-26
14:23:53.127758,-4609
14:23:53.127758,-1
14:23:53.127758,-9
14:23:53.127758,2047
14:23:53.127758,0
14:23:53.127758,14
14:23:53.127758,-1792
14:23:53.127758,-1
14:23:53.127758,-31
14:23:53.127758,-8193
14:23:53.127758,-1
14:23:53.127758,-26
14:23:53.127758,-5121
14:23:53.127758,-1
14:23:53.127758,-23
14:23:53.127758,-7681
14:23:53.127758,-1
14:23:53.127758,-52
14:23:53.127758,-14337
14:23:53.127758,-1
14:23:53.127758,95
14:23:53.127758,-1024
14:23:53.127758,1
14:23:53.127758,1096
14:23:53.127758,-16640
14:23:53.127758,5
14:23:53.127758,991
14:23:53.127758,7168
14:23:53.127758,0
14:23:53.127758,-255
14:23:53.127758,-14849
14:23:53.127758,-1
14:23:53.127758,-133
14:23:53.127758,4863
14:23:53.127758,-1
14:23:53.127758,-169
14:23:53.127758,23807
14:23:53.127758,-1
14:23:53.127758,-193
14:23:53.127758,26111
14:23:53.127758,-1
14:23:53.127758,-136
14:23:53.127758,26879
14:23:53.127758,-1
14:23:53.127758,-148
14:23:53.127758,-30209
14:23:53.127758,-1
14:23:53.127758,-93
14:23:53.127758,-19713
14:23:53.127758,-1
14:23:53.127758,-76
14:23:53.127758,-17409
14:23:53.127758,-1
14:23:53.127758,-42
14:23:53.127758,-3329
14:23:53.127758,-1
14:23:53.127758,-2
14:23:53.755143,14
14:23:53.755143,13312
14:23:53.755143,0
14:23:53.755143,95
14:23:53.755143,28672
14:23:53.755143,0
14:23:53.755143,112
14:23:53.755143,27392
14:23:53.755143,0
14:23:53.755143,88
14:23:53.755143,10240
14:23:53.755143,0
14:23:53.755143,-11
14:23:53.755143,-14337
14:23:53.755143,-1
14:23:53.755143,-95
14:23:53.755143,-30209
14:23:53.755143,-1
14:23:53.755143,-131
14:23:53.755143,27903
14:23:53.755143,-1
14:23:53.755143,-162
14:23:53.755143,25599
14:23:53.755143,-1
14:23:53.755143,-140
14:23:53.755143,28671
14:23:53.755143,-1
14:23:53.755143,-155
14:23:53.755143,28671
14:23:53.755143,-1
14:23:53.755143,-128
14:23:53.755143,-31489
14:23:53.755143,-1
14:23:53.755143,-128
14:23:53.755143,-30721
14:23:53.755143,-1
14:23:53.755143,-100
14:23:53.755143,-21505
14:23:53.755143,-1
14:23:53.755143,-85
14:23:53.755143,-20481
14:23:53.755143,-1
14:23:53.755143,-62
14:23:53.755143,-14849
14:23:53.755143,-1
14:23:53.755143,-66
14:23:53.755143,-14337
14:23:53.755143,-1
14:23:53.755143,-47
14:23:53.755143,-12545
14:23:53.755143,-1
14:23:53.755143,-47
14:23:53.755143,-12545
14:23:53.755143,-1
14:23:53.755143,-59
14:23:53.755143,-13057
14:23:53.755143,-1
14:23:53.755143,-40
14:23:53.755143,-11265
14:23:53.755143,-1
14:23:53.755143,-62
14:23:53.755143,-17409
14:23:53.755143,-1
14:23:53.755143,-64
14:23:53.755143,-16129
14:23:53.755143,-1
14:23:53.755143,-52
14:23:53.755143,-8705
14:23:53.755143,-1
14:23:53.755143,-45
14:23:53.755143,-14849
14:23:53.755143,-1
14:23:53.755143,-64
14:23:53.755143,-17409
14:23:53.755143,-1
14:23:53.755143,-59
14:23:53.755143,-12545
14:23:53.755143,-1
14:23:53.755143,-54
14:23:53.755143,-13569
14:23:53.755143,-1
14:23:53.755143,-40
14:23:53.755143,-11777
14:23:53.755143,-1
14:23:53.755143,-62
14:23:53.755143,-11777
14:23:53.755143,-1
14:23:53.755143,-42
14:23:53.755143,-18689
14:23:53.755143,-1
14:23:53.755143,-76
14:23:53.755143,-8705
14:23:53.755143,-1
14:23:53.755143,-16
14:23:53.755143,-6401
14:23:53.755143,-1
14:23:53.755143,-31
14:23:53.755143,-6913
14:23:53.755143,-1
14:23:53.755143,-40
14:23:53.755143,-14337
14:23:53.755143,-1
14:23:53.755143,-59
14:23:53.755143,-13057
14:23:53.755143,-1
14:23:53.755143,-66
14:23:53.755143,-21505
14:23:53.755143,-1
14:23:53.755143,-95
14:23:54.195204,-109
14:23:54.195204,-11777
14:23:54.195204,-1
14:23:54.195204,205
14:23:54.195204,-15104
14:23:54.195204,2
14:23:54.195204,1328
14:23:54.195204,32256
14:23:54.195204,5
14:23:54.195204,558
14:23:54.195204,8192
14:23:54.195204,-1
14:23:54.195204,-226
14:23:54.195204,23807
14:23:54.195204,-1
14:23:54.195204,-317
14:23:54.195204,-8193
14:23:54.195204,-2
14:23:54.195204,-193
14:23:54.195204,7167
14:23:54.195204,-1
14:23:54.195204,-253
14:23:54.195204,8959
14:23:54.195204,-1
14:23:54.195204,-212
14:23:54.195204,11519
14:23:54.195204,-1
14:23:54.195204,-207
14:23:54.195204,18175
14:23:54.195204,-1
14:23:54.195204,-143
14:23:54.195204,31743
14:23:54.195204,-1
14:23:54.195204,-152
14:23:54.195204,-32513
14:23:54.195204,-1
14:23:54.195204,-102
14:23:54.195204,-20993
14:23:54.195204,-1
14:23:54.195204,-26
14:23:54.195204,255
14:23:54.195204,0
14:23:54.195204,-4
14:23:54.195204,9215
14:23:54.195204,0
14:23:54.195204,64
14:23:54.195204,9728
14:23:54.195204,0
14:23:54.195204,23
14:23:54.195204,2304
14:23:54.195204,0
14:23:54.195204,-45
14:23:54.195204,-17409
14:23:54.195204,-1
14:23:54.195204,-74
14:23:54.195204,-28929
14:23:54.195204,-1
14:23:54.195204,-152
14:23:54.195204,22015
14:23:54.195204,-1
14:23:54.195204,-176
14:23:54.195204,25599
14:23:54.195204,-1
14:23:54.195204,-155
14:23:54.195204,23807
14:23:54.195204,-1
14:23:54.195204,-160
14:23:54.195204,26111
14:23:54.195204,-1
14:23:54.195204,-152
14:23:54.195204,30975
14:23:54.195204,-1
14:23:54.195204,-109
14:23:54.195204,-24065
14:23:54.195204,-1
14:23:54.195204,-124
14:23:54.195204,30463
14:23:54.195204,-1
14:23:54.195204,-95
14:23:54.195204,-17921
14:23:54.195204,-1
14:23:54.195204,-88
14:23:54.195204,-20481
14:23:54.195204,-1
14:23:54.195204,-64
14:23:54.195204,-16641
14:23:54.195204,-1
14:23:54.195204,-64
14:23:54.195204,-14337
14:23:54.195204,-1
14:23:54.195204,-69
14:23:54.195204,-16641
14:23:54.195204,-1
14:23:54.195204,-50
14:23:54.195204,-13569
14:23:54.195204,-1
14:23:54.195204,-69
14:23:54.195204,-15617
14:23:54.195204,-1
14:23:54.195204,-54
14:23:54.195204,-17409
14:23:54.195204,-1
14:23:54.195204,-76
14:23:54.195204,-17409
14:23:54.195204,-1
14:23:54.195204,-74
14:23:54.195204,-21505
14:23:54.195204,-1
14:23:54.195204,-71
14:23:54.789897,-57
14:23:54.789897,-16641
14:23:54.789897,-1
14:23:54.789897,-69
14:23:54.789897,-14337
14:23:54.789897,-1
14:23:54.789897,-64
14:23:54.789897,-16641
14:23:54.789897,-1
14:23:54.789897,-59
14:23:54.789897,-16129
14:23:54.789897,-1
14:23:54.789897,-66
14:23:54.789897,-13569
14:23:54.789897,-1
14:23:54.789897,-47
14:23:54.789897,-13057
14:23:54.789897,-1
14:23:54.789897,-64
14:23:54.789897,-20481
14:23:54.789897,-1
14:23:54.789897,-81
14:23:54.789897,-20481
14:23:54.789897,-1
14:23:54.789897,-93
14:23:54.789897,-21505
14:23:54.789897,-1
14:23:54.789897,-54
14:23:54.789897,-9473
14:23:54.789897,-1
14:23:54.789897,-42
14:23:54.789897,-10497
14:23:54.789897,-1
14:23:54.789897,-42
14:23:54.789897,-14849
14:23:54.789897,-1
14:23:54.789897,-71
14:23:54.789897,-19201
14:23:54.789897,-1
14:23:54.789897,-64
14:23:54.789897,-14337
14:23:54.789897,-1
14:23:54.789897,-76
14:23:54.789897,-20993
14:23:54.789897,-1
14:23:54.789897,-81
14:23:54.789897,-16129
14:23:54.789897,-1
14:23:54.789897,150
14:23:54.789897,-23040
14:23:54.789897,2
14:23:54.789897,1323
14:23:54.789897,-19200
14:23:54.789897,5
14:23:54.789897,666
14:23:54.789897,20480
14:23:54.789897,-1
14:23:54.789897,-212
14:23:54.789897,-22785
14:23:54.789897,-1
14:23:54.789897,-246
14:23:54.789897,-5121
14:23:54.789897,-2
14:23:54.789897,-195
14:23:54.789897,11519
14:23:54.789897,-1
14:23:54.789897,-226
14:23:54.789897,16895
14:23:54.789897,-1
14:23:54.789897,-176
14:23:54.789897,18943
14:23:54.789897,-1
14:23:54.789897,-169
14:23:54.789897,26879
14:23:54.789897,-1
14:23:54.789897,-143
14:23:54.789897,-32513
14:23:54.789897,-1
14:23:54.789897,-109
14:23:54.789897,-25857
14:23:54.789897,-1
14:23:54.789897,-78
14:23:54.789897,-10497
14:23:54.789897,-1
14:23:54.789897,-21
14:23:54.789897,-1537
14:23:54.789897,-1
14:23:54.789897,19
14:23:54.789897,10752
14:23:54.789897,0
14:23:54.789897,57
14:23:54.789897,15104
14:23:54.789897,0
14:23:54.789897,50
14:23:54.789897,7168
14:23:54.789897,0
14:23:54.789897,0
14:23:54.789897,-11520
14:23:54.789897,-1
14:23:54.789897,-95
14:23:54.789897,32255
14:23:54.789897,-1
14:23:54.789897,-143
14:23:54.789897,26879
14:23:54.789897,-1
14:23:54.789897,-162
14:23:54.789897,24319
14:23:54.789897,-1
14:23:54.789897,-157
14:23:55.416167,-155
14:23:55.416167,27391
14:23:55.416167,-1
14:23:55.416167,-145
14:23:55.416167,29951
14:23:55.416167,-1
14:23:55.416167,-131
14:23:55.416167,-31489
14:23:55.416167,-1
14:23:55.416167,-124
14:23:55.416167,-28929
14:23:55.416167,-1
14:23:55.416167,-93
14:23:55.416167,-19201
14:23:55.416167,-1
14:23:55.416167,-71
14:23:55.416167,-16641
14:23:55.416167,-1
14:23:55.416167,-54
14:23:55.416167,-10497
14:23:55.416167,-1
14:23:55.416167,-38
14:23:55.416167,-8705
14:23:55.416167,-1
14:23:55.416167,-33
14:23:55.416167,-8193
14:23:55.416167,-1
14:23:55.416167,-33
14:23:55.416167,-6913
14:23:55.416167,-1
14:23:55.416167,-28
14:23:55.416167,-8705
14:23:55.416167,-1
14:23:55.416167,-33
14:23:55.416167,-8193
14:23:55.416167,-1
14:23:55.416167,-35
14:23:55.416167,-9473
14:23:55.416167,-1
14:23:55.416167,-35
14:23:55.416167,-9473
14:23:55.416167,-1
14:23:55.416167,-35
14:23:55.416167,-7681
14:23:55.416167,-1
14:23:55.416167,-31
14:23:55.416167,-8193
14:23:55.416167,-1
14:23:55.416167,-31
14:23:55.416167,-5633
14:23:55.416167,-1
14:23:55.416167,-21
14:23:55.416167,-6913
14:23:55.416167,-1
14:23:55.416167,-28
14:23:55.416167,-5633
14:23:55.416167,-1
14:23:55.416167,-21
14:23:55.416167,-6401
14:23:55.416167,-1
14:23:55.416167,-28
14:23:55.416167,-7681
14:23:55.416167,-1
14:23:55.416167,-33
14:23:55.416167,-9473
14:23:55.416167,-1
14:23:55.416167,-42
14:23:55.416167,-11265
14:23:55.416167,-1
14:23:55.416167,-50
14:23:55.416167,-9985
14:23:55.416167,-1
14:23:55.416167,-23
14:23:55.416167,-2561
14:23:55.416167,-1
14:23:55.416167,-9
14:23:55.416167,-2049
14:23:55.416167,-1
14:23:55.416167,-16
14:23:55.416167,-6913
14:23:55.416167,-1
14:23:55.416167,-40
14:23:55.416167,-10497
14:23:55.416167,-1
14:23:55.416167,-40
14:23:55.416167,-8705
14:23:55.416167,-1
14:23:55.416167,-31
14:23:55.416167,-8705
14:23:55.416167,-1
14:23:55.416167,-66
14:23:55.416167,-14337
14:23:55.416167,-1
14:23:55.416167,188
14:23:55.416167,-11520
14:23:55.416167,2
14:23:55.416167,1351
14:23:55.416167,-2048
14:23:55.416167,5
14:23:55.416167,769
14:23:55.416167,30720
14:23:55.416167,-1
14:23:55.416167,-212
14:23:55.416167,-17409
14:23:55.416167,-1
14:23:55.416167,-224
14:23:55.416167,-2049
14:23:55.416167,-2
14:23:55.416167,-179
14:23:55.918502,-198
14:23:55.918502,10239
14:23:55.918502,-1
14:23:55.918502,-176
14:23:55.918502,23807
14:23:55.918502,-1
14:23:55.918502,-164
14:23:55.918502,28671
14:23:55.918502,-1
14:23:55.918502,-131
14:23:55.918502,-31489
14:23:55.918502,-1
14:23:55.918502,-105
14:23:55.918502,-20993
14:23:55.918502,-1
14:23:55.918502,-66
14:23:55.918502,-8705
14:23:55.918502,-1
14:23:55.918502,0
14:23:55.918502,5376
14:23:55.918502,0
14:23:55.918502,47
14:23:55.918502,21760
14:23:55.918502,0
14:23:55.918502,121
14:23:55.918502,-29696
14:23:55.918502,0
14:23:55.918502,140
14:23:55.918502,-32768
14:23:55.918502,0
14:23:55.918502,102
14:23:55.918502,15872
14:23:55.918502,0
14:23:55.918502,4
14:23:55.918502,-12032
14:23:55.918502,-1
14:23:55.918502,-90
14:23:55.918502,-30209
14:23:55.918502,-1
14:23:55.918502,-138
14:23:55.918502,29183
14:23:55.918502,-1
14:23:55.918502,-143
14:23:55.918502,30463
14:23:55.918502,-1
14:23:55.918502,-131
14:23:55.918502,-32001
14:23:55.918502,-1
14:23:55.918502,-121
14:23:55.918502,-28929
14:23:55.918502,-1
14:23:55.918502,-109
14:23:55.918502,-25857
14:23:55.918502,-1
14:23:55.918502,-95
14:23:55.918502,-22273
14:23:55.918502,-1
14:23:55.918502,-81
14:23:55.918502,-17409
14:23:55.918502,-1
14:23:55.918502,-62
14:23:55.918502,-13569
14:23:55.918502,-1
14:23:55.918502,-50
14:23:55.918502,-11777
14:23:55.918502,-1
14:23:55.918502,-40
14:23:55.918502,-8705
14:23:55.918502,-1
14:23:55.918502,-35
14:23:55.918502,-8705
14:23:55.918502,-1
14:23:55.918502,-33
14:23:55.918502,-8193
14:23:55.918502,-1
14:23:55.918502,-33
14:23:55.918502,-9473
14:23:55.918502,-1
14:23:55.918502,-38
14:23:55.918502,-8705
14:23:55.918502,-1
14:23:55.918502,-35
14:23:55.918502,-8705
14:23:55.918502,-1
14:23:55.918502,-38
14:23:55.918502,-9473
14:23:55.918502,-1
14:23:55.918502,-38
14:23:55.918502,-9473
14:23:55.918502,-1
14:23:55.918502,-40
14:23:55.918502,-9985
14:23:55.918502,-1
14:23:55.918502,-42
14:23:55.918502,-11777
14:23:55.918502,-1
14:23:55.918502,-52
14:23:55.918502,-14849
14:23:55.918502,-1
14:23:55.918502,-62
14:23:55.918502,-10497
14:23:55.918502,-1
14:23:55.918502,-21
14:23:55.918502,-2561
14:23:55.918502,-1
14:23:55.918502,-11
14:23:55.918502,-3841
14:23:55.918502,-1
14:23:55.918502,-26
14:23:56.503755,-35
14:23:56.503755,-10497
14:23:56.503755,-1
14:23:56.503755,-42
14:23:56.503755,-9985
14:23:56.503755,-1
14:23:56.503755,-42
14:23:56.503755,-11265
14:23:56.503755,-1
14:23:56.503755,-52
14:23:56.503755,-20993
14:23:56.503755,-1
14:23:56.503755,-16
14:23:56.503755,15359
14:23:56.503755,1
14:23:56.503755,926
14:23:56.503755,9728
14:23:56.503755,6
14:23:56.503755,1514
14:23:56.503755,-2816
14:23:56.503755,1
14:23:56.503755,-255
14:23:56.503755,27391
14:23:56.503755,-1
14:23:56.503755,-81
14:23:56.503755,-2049
14:23:56.503755,-2
14:23:56.503755,-246
14:23:56.503755,23039
14:23:56.503755,-1
14:23:56.503755,-207
14:23:56.503755,12031
14:23:56.503755,-1
14:23:56.503755,-167
14:23:56.503755,23807
14:23:56.503755,-1
14:23:56.503755,-167
14:23:56.503755,27903
14:23:56.503755,-1
14:23:56.503755,-133
14:23:56.503755,-32001
14:23:56.503755,-1
14:23:56.503755,-112
14:23:56.503755,-24065
14:23:56.503755,-1
14:23:56.503755,-81
14:23:56.503755,-15617
14:23:56.503755,-1
14:23:56.503755,-33
14:23:56.503755,-769
14:23:56.503755,-1
14:23:56.503755,26
14:23:56.503755,15104
14:23:56.503755,0
14:23:56.503755,88
14:23:56.503755,26112
14:23:56.503755,0
14:23:56.503755,105
14:23:56.503755,22528
14:23:56.503755,0
14:23:56.503755,54
14:23:56.503755,1024
14:23:56.503755,0
14:23:56.503755,-50
14:23:56.503755,-24065
14:23:56.503755,-1
14:23:56.503755,-128
14:23:56.503755,27391
14:23:56.503755,-1
14:23:56.503755,-157
14:23:56.503755,24319
14:23:56.503755,-1
14:23:56.503755,-162
14:23:56.503755,25599
14:23:56.503755,-1
14:23:56.503755,-152
14:23:56.503755,27903
14:23:56.503755,-1
14:23:56.503755,-143
14:23:56.503755,30463
14:23:56.503755,-1
14:23:56.503755,-131
14:23:56.503755,-31489
14:23:56.503755,-1
14:23:56.503755,-114
14:23:56.503755,-27649
14:23:56.503755,-1
14:23:56.503755,-105
14:23:56.503755,-24577
14:23:56.503755,-1
14:23:56.503755,-90
14:23:56.503755,-21505
14:23:56.503755,-1
14:23:56.503755,-81
14:23:56.503755,-18689
14:23:56.503755,-1
14:23:56.503755,-69
14:23:56.503755,-16641
14:23:56.503755,-1
14:23:56.503755,-64
14:23:56.503755,-14849
14:23:56.503755,-1
14:23:56.503755,-59
14:23:56.503755,-15617
14:23:56.503755,-1
14:23:56.503755,-59
14:23:56.503755,-14337
14:23:56.503755,-1
14:23:56.503755,-54
14:23:57.043190,-54
14:23:57.043190,-13569
14:23:57.043190,-1
14:23:57.043190,-52
14:23:57.043190,-13057
14:23:57.043190,-1
14:23:57.043190,-52
14:23:57.043190,-11265
14:23:57.043190,-1
14:23:57.043190,-42
14:23:57.043190,-10497
14:23:57.043190,-1
14:23:57.043190,-42
14:23:57.043190,-10497
14:23:57.043190,-1
14:23:57.043190,-42
14:23:57.043190,-8705
14:23:57.043190,-1
14:23:57.043190,-26
14:23:57.043190,-6913
14:23:57.043190,-1
14:23:57.043190,-35
14:23:57.043190,-9473
14:23:57.043190,-1
14:23:57.043190,-40
14:23:57.043190,-7681
14:23:57.043190,-1
14:23:57.043190,-7
14:23:57.043190,1279
14:23:57.043190,0
14:23:57.043190,2
14:23:57.043190,0
14:23:57.043190,0
14:23:57.043190,-4
14:23:57.043190,-3329
14:23:57.043190,-1
14:23:57.043190,-28
14:23:57.043190,-6913
14:23:57.043190,-1
14:23:57.043190,-26
14:23:57.043190,-7681
14:23:57.043190,-1
14:23:57.043190,-33
14:23:57.043190,-8705
14:23:57.043190,-1
14:23:57.043190,-62
14:23:57.043190,-9473
14:23:57.043190,-1
14:23:57.043190,214
14:23:57.043190,3840
14:23:57.043190,3
14:23:57.043190,1504
14:23:57.043190,31744
14:23:57.043190,6
14:23:57.043190,740
14:23:57.043190,13568
14:23:57.043190,-1
14:23:57.043190,-219
14:23:57.043190,-20481
14:23:57.043190,-1
14:23:57.043190,-255
14:23:57.043190,-6145
14:23:57.043190,-2
14:23:57.043190,-191
14:23:57.043190,10239
14:23:57.043190,-1
14:23:57.043190,-238
14:23:57.043190,15103
14:23:57.043190,-1
14:23:57.043190,-188
14:23:57.043190,16895
14:23:57.043190,-1
14:23:57.043190,-171
14:23:57.043190,25599
14:23:57.043190,-1
14:23:57.043190,-152
14:23:57.043190,30975
14:23:57.043190,-1
14:23:57.043190,-119
14:23:57.043190,-25857
14:23:57.043190,-1
14:23:57.043190,-81
14:23:57.043190,-14337
14:23:57.043190,-1
14:23:57.043190,-31
14:23:57.043190,767
14:23:57.043190,0
14:23:57.043190,35
14:23:57.043190,16384
14:23:57.043190,0
14:23:57.043190,83
14:23:57.043190,21760
14:23:57.043190,0
14:23:57.043190,78
14:23:57.043190,14592
14:23:57.043190,0
14:23:57.043190,16
14:23:57.043190,-8448
14:23:57.043190,-1
14:23:57.043190,-81
14:23:57.043190,-29697
14:23:57.043190,-1
14:23:57.043190,-138
14:23:57.043190,27391
14:23:57.043190,-1
14:23:57.043190,-155
14:23:57.043190,26879
14:23:57.043190,-1
14:23:57.043190,-150
14:23:57.584649,-148
14:23:57.584649,29951
14:23:57.584649,-1
14:23:57.584649,-133
14:23:57.584649,-32001
14:23:57.584649,-1
14:23:57.584649,-121
14:23:57.584649,-29697
14:23:57.584649,-1
14:23:57.584649,-109
14:23:57.584649,-25857
14:23:57.584649,-1
14:23:57.584649,-90
14:23:57.584649,-19201
14:23:57.584649,-1
14:23:57.584649,-69
14:23:57.584649,-16641
14:23:57.584649,-1
14:23:57.584649,-66
14:23:57.584649,-15617
14:23:57.584649,-1
14:23:57.584649,-57
14:23:57.584649,-13569
14:23:57.584649,-1
14:23:57.584649,-52
14:23:57.584649,-12545
14:23:57.584649,-1
14:23:57.584649,-52
14:23:57.584649,-13057
14:23:57.584649,-1
14:23:57.584649,-50
14:23:57.584649,-12545
14:23:57.584649,-1
14:23:57.584649,-50
14:23:57.584649,-11265
14:23:57.584649,-1
14:23:57.584649,-45
14:23:57.584649,-11777
14:23:57.584649,-1
14:23:57.584649,-42
14:23:57.584649,-9985
14:23:57.584649,-1
14:23:57.584649,-40
14:23:57.584649,-8705
14:23:57.584649,-1
14:23:57.584649,-33
14:23:57.584649,-8705
14:23:57.584649,-1
14:23:57.584649,-35
14:23:57.584649,-7681
14:23:57.584649,-1
14:23:57.584649,-31
14:23:57.584649,-8193
14:23:57.584649,-1
14:23:57.584649,-35
14:23:57.584649,-8705
14:23:57.584649,-1
14:23:57.584649,-33
14:23:57.584649,-7681
14:23:57.584649,-1
14:23:57.584649,-33
14:23:57.584649,-8705
14:23:57.584649,-1
14:23:57.584649,-40
14:23:57.584649,-11265
14:23:57.584649,-1
14:23:57.584649,-50
14:23:57.584649,-11265
14:23:57.584649,-1
14:23:57.584649,-21
14:23:57.584649,-257
14:23:57.584649,-1
14:23:57.584649,-2
14:23:57.584649,-1537
14:23:57.584649,-1
14:23:57.584649,-7
14:23:57.584649,-3329
14:23:57.584649,-1
14:23:57.584649,-31
14:23:57.584649,-9473
14:23:57.584649,-1
14:23:57.584649,-28
14:23:57.584649,-5633
14:23:57.584649,-1
14:23:57.584649,-31
14:23:57.584649,-8705
14:23:57.584649,-1
14:23:57.584649,-52
14:23:57.584649,-15617
14:23:57.584649,-1
14:23:57.584649,90
14:23:57.584649,6400
14:23:57.584649,2
14:23:57.584649,1246
14:23:57.584649,-11776
14:23:57.584649,6
14:23:57.584649,1222
14:23:57.584649,24832
14:23:57.584649,0
14:23:57.584649,-286
14:23:57.584649,-22785
14:23:57.584649,-1
14:23:57.584649,-169
14:23:57.584649,-11009
14:23:57.584649,-2
14:23:57.584649,-217
14:23:57.584649,18175
14:23:57.584649,-1
14:23:57.584649,-222
14:23:58.117501,-195
14:23:58.117501,23039
14:23:58.117501,-1
14:23:58.117501,-171
14:23:58.117501,24319
14:23:58.117501,-1
14:23:58.117501,-138
14:23:58.117501,-32001
14:23:58.117501,-1
14:23:58.117501,-107
14:23:58.117501,-21505
14:23:58.117501,-1
14:23:58.117501,-71
14:23:58.117501,-13569
14:23:58.117501,-1
14:23:58.117501,-28
14:23:58.117501,255
14:23:58.117501,0
14:23:58.117501,28
14:23:58.117501,13824
14:23:58.117501,0
14:23:58.117501,83
14:23:58.117501,28672
14:23:58.117501,0
14:23:58.117501,126
14:23:58.117501,30464
14:23:58.117501,0
14:23:58.117501,97
14:23:58.117501,15872
14:23:58.117501,0
14:23:58.117501,16
14:23:58.117501,-8448
14:23:58.117501,-1
14:23:58.117501,-76
14:23:58.117501,-25857
14:23:58.117501,-1
14:23:58.117501,-119
14:23:58.117501,32255
14:23:58.117501,-1
14:23:58.117501,-140
14:23:58.117501,29951
14:23:58.117501,-1
14:23:58.117501,-133
14:23:58.117501,-31489
14:23:58.117501,-1
14:23:58.117501,-119
14:23:58.117501,-28929
14:23:58.117501,-1
14:23:58.117501,-112
14:23:58.117501,-27137
14:23:58.117501,-1
14:23:58.117501,-100
14:23:58.117501,-23553
14:23:58.117501,-1
14:23:58.117501,-93
14:23:58.117501,-22785
14:23:58.117501,-1
14:23:58.117501,-85
14:23:58.117501,-18689
14:23:58.117501,-1
14:23:58.117501,-62
14:23:58.117501,-13569
14:23:58.117501,-1
14:23:58.117501,-57
14:23:58.117501,-14849
14:23:58.117501,-1
14:23:58.117501,-62
14:23:58.117501,-14849
14:23:58.117501,-1
14:23:58.117501,-54
14:23:58.117501,-11265
14:23:58.117501,-1
14:23:58.117501,-40
14:23:58.117501,-9985
14:23:58.117501,-1
14:23:58.117501,-42
14:23:58.117501,-11265
14:23:58.117501,-1
14:23:58.117501,-40
14:23:58.117501,-8193
14:23:58.117501,-1
14:23:58.117501,-35
14:23:58.117501,-10497
14:23:58.117501,-1
14:23:58.117501,-33
14:23:58.117501,-6401
14:23:58.117501,-1
14:23:58.117501,-28
14:23:58.117501,-6401
14:23:58.117501,-1
14:23:58.117501,-23
14:23:58.117501,-6401
14:23:58.117501,-1
14:23:58.117501,-31
14:23:58.117501,-7681
14:23:58.117501,-1
14:23:58.117501,-26
14:23:58.117501,-5633
14:23:58.117501,-1
14:23:58.117501,-16
14:23:58.117501,-3329
14:23:58.117501,-1
14:23:58.117501,-26
14:23:58.117501,-8193
14:23:58.117501,-1
14:23:58.117501,-31
14:23:58.117501,-6913
14:23:58.117501,-1
14:23:58.117501,-38
14:23:58.751256,-31
14:23:58.751256,-1537
14:23:58.751256,-1
14:23:58.751256,7
14:23:58.751256,3584
14:23:58.751256,0
14:23:58.751256,19
14:23:58.751256,2816
14:23:58.751256,0
14:23:58.751256,0
14:23:58.751256,-2304
14:23:58.751256,-1
14:23:58.751256,-9
14:23:58.751256,-1537
14:23:58.751256,-1
14:23:58.751256,-7
14:23:58.751256,-1537
14:23:58.751256,-1
14:23:58.751256,-16
14:23:58.751256,-13057
14:23:58.751256,-1
14:23:58.751256,-19
14:23:58.751256,5631
14:23:58.751256,1
14:23:58.751256,871
14:23:58.751256,4096
14:23:58.751256,6
14:23:58.751256,1621
14:23:58.751256,-26624
14:23:58.751256,2
14:23:58.751256,-217
14:23:58.751256,20735
14:23:58.751256,-1
14:23:58.751256,-59
14:23:58.751256,1023
14:23:58.751256,-1
14:23:58.751256,-262
14:23:58.751256,21247
14:23:58.751256,-1
14:23:58.751256,-210
14:23:58.751256,8959
14:23:58.751256,-1
14:23:58.751256,-179
14:23:58.751256,21247
14:23:58.751256,-1
14:23:58.751256,-179
14:23:58.751256,24831
14:23:58.751256,-1
14:23:58.751256,-148
14:23:58.751256,29951
14:23:58.751256,-1
14:23:58.751256,-121
14:23:58.751256,-27137
14:23:58.751256,-1
14:23:58.751256,-93
14:23:58.751256,-18689
14:23:58.751256,-1
14:23:58.751256,-45
14:23:58.751256,-3841
14:23:58.751256,-1
14:23:58.751256,14
14:23:58.751256,11520
14:23:58.751256,0
14:23:58.751256,76
14:23:58.751256,24320
14:23:58.751256,0
14:23:58.751256,97
14:23:58.751256,21760
14:23:58.751256,0
14:23:58.751256,57
14:23:58.751256,3584
14:23:58.751256,0
14:23:58.751256,-40
14:23:58.751256,-22785
14:23:58.751256,-1
14:23:58.751256,-126
14:23:58.751256,27391
14:23:58.751256,-1
14:23:58.751256,-164
14:23:58.751256,22015
14:23:58.751256,-1
14:23:58.751256,-174
14:23:58.751256,22015
14:23:58.751256,-1
14:23:58.751256,-164
14:23:58.751256,24831
14:23:58.751256,-1
14:23:58.751256,-150
14:23:58.751256,29183
14:23:58.751256,-1
14:23:58.751256,-138
14:23:58.751256,30975
14:23:58.751256,-1
14:23:58.751256,-128
14:23:58.751256,-30209
14:23:58.751256,-1
14:23:58.751256,-114
14:23:58.751256,-27649
14:23:58.751256,-1
14:23:58.751256,-102
14:23:58.751256,-24065
14:23:58.751256,-1
14:23:58.751256,-90
14:23:58.751256,-21505
14:23:58.751256,-1
14:23:58.751256,-81
14:23:58.751256,-19713
14:23:58.751256,-1
14:23:58.751256,-78
14:23:59.310936,-74
14:23:59.310936,-17921
14:23:59.310936,-1
14:23:59.310936,-69
14:23:59.310936,-17921
14:23:59.310936,-1
14:23:59.310936,-69
14:23:59.310936,-17409
14:23:59.310936,-1
14:23:59.310936,-71
14:23:59.310936,-17409
14:23:59.310936,-1
14:23:59.310936,-66
14:23:59.310936,-16129
14:23:59.310936,-1
14:23:59.310936,-64
14:23:59.310936,-15617
14:23:59.310936,-1
14:23:59.310936,-50
14:23:59.310936,-9473
14:23:59.310936,-1
14:23:59.310936,-38
14:23:59.310936,-10497
14:23:59.310936,-1
14:23:59.310936,-42
14:23:59.310936,-10497
14:23:59.310936,-1
14:23:59.310936,-42
14:23:59.310936,-9985
14:23:59.310936,-1
14:23:59.310936,-40
14:23:59.310936,-10497
14:23:59.310936,-1
14:23:59.310936,-42
14:23:59.310936,-10497
14:23:59.310936,-1
14:23:59.310936,-45
14:23:59.310936,-11265
14:23:59.310936,-1
14:23:59.310936,-42
14:23:59.310936,-11265
14:23:59.310936,-1
14:23:59.310936,-47
14:23:59.310936,-11265
14:23:59.310936,-1
14:23:59.310936,-42
14:23:59.310936,-11265
14:23:59.310936,-1
14:23:59.310936,-45
14:23:59.310936,-10497
14:23:59.310936,-1
14:23:59.310936,-42
14:23:59.310936,-11265
14:23:59.310936,-1
14:23:59.310936,-47
14:23:59.310936,-12545
14:23:59.310936,-1
14:23:59.310936,-57
14:23:59.310936,-15617
14:23:59.310936,-1
14:23:59.310936,-52
14:23:59.310936,-7681
14:23:59.310936,-1
14:23:59.310936,-14
14:23:59.310936,-2561
14:23:59.310936,-1
14:23:59.310936,-19
14:23:59.310936,-5633
14:23:59.310936,-1
14:23:59.310936,-33
14:23:59.310936,-11265
14:23:59.310936,-1
14:23:59.310936,-47
14:23:59.310936,-9985
14:23:59.310936,-1
14:23:59.310936,-38
14:23:59.310936,-9985
14:23:59.310936,-1
14:23:59.310936,-42
14:23:59.310936,-16641
14:23:59.310936,-1
14:23:59.310936,-54
14:23:59.310936,-21505
14:23:59.310936,0
14:23:59.310936,730
14:23:59.310936,-11264
14:23:59.310936,5
14:23:59.310936,1746
14:23:59.310936,26368
14:23:59.310936,3
14:23:59.310936,-164
14:23:59.310936,511
14:23:59.310936,-1
14:23:59.310936,-83
14:23:59.310936,1791
14:23:59.310936,-1
14:23:59.310936,-303
14:23:59.310936,13311
14:23:59.310936,-1
14:23:59.310936,-222
14:23:59.310936,2303
14:23:59.310936,-1
14:23:59.310936,-210
14:23:59.310936,15103
14:23:59.310936,-1
14:23:59.310936,-200
14:23:59.310936,18943
14:23:59.310936,-1
14:23:59.310936,-167
14:23:59.828937,-160
14:23:59.828937,28671
14:23:59.828937,-1
14:23:59.828937,-131
14:23:59.828937,-29697
14:23:59.828937,-1
14:23:59.828937,-95
14:23:59.828937,-18689
14:23:59.828937,-1
14:23:59.828937,-50
14:23:59.828937,-5121
14:23:59.828937,-1
14:23:59.828937,7
14:23:59.828937,10752
14:23:59.828937,0
14:23:59.828937,76
14:23:59.828937,22528
14:23:59.828937,0
14:23:59.828937,78
14:23:59.828937,15872
14:23:59.828937,0
14:23:59.828937,35
14:23:59.828937,-1792
14:23:59.828937,-1
14:23:59.828937,-52
14:23:59.828937,-23553
14:23:59.828937,-1
14:23:59.828937,-121
14:23:59.828937,30463
14:23:59.828937,-1
14:23:59.828937,-143
14:23:59.828937,28671
14:23:59.828937,-1
14:23:59.828937,-145
14:23:59.828937,29951
14:23:59.828937,-1
14:23:59.828937,-131
14:23:59.828937,-30721
14:23:59.828937,-1
14:23:59.828937,-119
14:23:59.828937,-28929
14:23:59.828937,-1
14:23:59.828937,-107
14:23:59.828937,-25857
14:23:59.828937,-1
14:23:59.828937,-97
14:23:59.828937,-22785
14:23:59.828937,-1
14:23:59.828937,-85
14:23:59.828937,-20993
14:23:59.828937,-1
14:23:59.828937,-78
14:23:59.828937,-19201
14:23:59.828937,-1
14:23:59.828937,-71
14:23:59.828937,-16641
14:23:59.828937,-1
14:23:59.828937,-62
14:23:59.828937,-14337
14:23:59.828937,-1
14:23:59.828937,-54
14:23:59.828937,-13569
14:23:59.828937,-1
14:23:59.828937,-54
14:23:59.828937,-13057
14:23:59.828937,-1
14:23:59.828937,-52
14:23:59.828937,-12545
14:23:59.828937,-1
14:23:59.828937,-47
14:23:59.828937,-11777
14:23:59.828937,-1
14:23:59.828937,-50
14:23:59.828937,-11777
14:23:59.828937,-1
14:23:59.828937,-42
14:23:59.828937,-10497
14:23:59.828937,-1
14:23:59.828937,-45
14:23:59.828937,-10497
14:23:59.828937,-1
14:23:59.828937,-42
14:23:59.828937,-11265
14:23:59.828937,-1
14:23:59.828937,-42
14:23:59.828937,-9473
14:23:59.828937,-1
14:23:59.828937,-38
14:23:59.828937,-9473
14:23:59.828937,-1
14:23:59.828937,-38
14:23:59.828937,-9473
14:23:59.828937,-1
14:23:59.828937,-38
14:23:59.828937,-9473
14:23:59.828937,-1
14:23:59.828937,-38
14:23:59.828937,-9473
14:23:59.828937,-1
14:23:59.828937,-38
14:23:59.828937,-9985
14:23:59.828937,-1
14:23:59.828937,-38
14:23:59.828937,-9473
14:23:59.828937,-1
14:23:59.828937,-40
14:23:59.828937,-9985
14:23:59.828937,-1
14:23:59.828937,-40
14:24:00.418450,-38
14:24:00.418450,-9985
14:24:00.418450,-1
14:24:00.418450,-42
14:24:00.418450,-9985
14:24:00.418450,-1
14:24:00.418450,-40
14:24:00.418450,-9985
14:24:00.418450,-1
14:24:00.418450,-38
14:24:00.418450,-6401
14:24:00.418450,-1
14:24:00.418450,-19
14:24:00.418450,-5633
14:24:00.418450,-1
14:24:00.418450,-26
14:24:00.418450,-5633
14:24:00.418450,-1
14:24:00.418450,-23
14:24:00.418450,-6913
14:24:00.418450,-1
14:24:00.418450,-33
14:24:00.418450,-9473
14:24:00.418450,-1
14:24:00.418450,-40
14:24:00.418450,-8193
14:24:00.418450,-1
14:24:00.418450,-11
14:24:00.418450,767
14:24:00.418450,0
14:24:00.418450,4
14:24:00.418450,-512
14:24:00.418450,-1
14:24:00.418450,-9
14:24:00.418450,-4609
14:24:00.418450,-1
14:24:00.418450,-31
14:24:00.418450,-7681
14:24:00.418450,-1
14:24:00.418450,-28
14:24:00.418450,-6913
14:24:00.418450,-1
14:24:00.418450,-31
14:24:00.418450,-9473
14:24:00.418450,-1
14:24:00.418450,-66
14:24:00.418450,-7681
14:24:00.418450,-1
14:24:00.418450,236
14:24:00.418450,14336
14:24:00.418450,3
14:24:00.418450,1545
14:24:00.418450,28672
14:24:00.418450,6
14:24:00.418450,690
14:24:00.418450,9472
14:24:00.418450,-1
14:24:00.418450,-203
14:24:00.418450,-19201
14:24:00.418450,-1
14:24:00.418450,-257
14:24:00.418450,-4353
14:24:00.418450,-2
14:24:00.418450,-183
14:24:00.418450,11519
14:24:00.418450,-1
14:24:00.418450,-229
14:24:00.418450,17663
14:24:00.418450,-1
14:24:00.418450,-181
14:24:00.418450,19455
14:24:00.418450,-1
14:24:00.418450,-162
14:24:00.418450,28671
14:24:00.418450,-1
14:24:00.418450,-140
14:24:00.418450,-32001
14:24:00.418450,-1
14:24:00.418450,-112
14:24:00.418450,-23553
14:24:00.418450,-1
14:24:00.418450,-71
14:24:00.418450,-13057
14:24:00.418450,-1
14:24:00.418450,-28
14:24:00.418450,767
14:24:00.418450,0
14:24:00.418450,31
14:24:00.418450,14592
14:24:00.418450,0
14:24:00.418450,78
14:24:00.418450,21760
14:24:00.418450,0
14:24:00.418450,78
14:24:00.418450,15104
14:24:00.418450,0
14:24:00.418450,31
14:24:00.418450,-1792
14:24:00.418450,-1
14:24:00.418450,-50
14:24:00.418450,-22785
14:24:00.418450,-1
14:24:00.418450,-119
14:24:00.418450,30975
14:24:00.418450,-1
14:24:00.418450,-143
14:24:00.418450,28671
14:24:00.418450,-1
14:24:00.418450,-143
14:24:00.955332,-140
14:24:00.955332,31743
14:24:00.955332,-1
14:24:00.955332,-128
14:24:00.955332,-31489
14:24:00.955332,-1
14:24:00.955332,-117
14:24:00.955332,-27649
14:24:00.955332,-1
14:24:00.955332,-102
14:24:00.955332,-24065
14:24:00.955332,-1
14:24:00.955332,-88
14:24:00.955332,-21505
14:24:00.955332,-1
14:24:00.955332,-74
14:24:00.955332,-14849
14:24:00.955332,-1
14:24:00.955332,-54
14:24:00.955332,-13057
14:24:00.955332,-1
14:24:00.955332,-50
14:24:00.955332,-12545
14:24:00.955332,-1
14:24:00.955332,-47
14:24:00.955332,-11265
14:24:00.955332,-1
14:24:00.955332,-42
14:24:00.955332,-10497
14:24:00.955332,-1
14:24:00.955332,-42
14:24:00.955332,-11265
14:24:00.955332,-1
14:24:00.955332,-47
14:24:00.955332,-11265
14:24:00.955332,-1
14:24:00.955332,-40
14:24:00.955332,-9985
14:24:00.955332,-1
14:24:00.955332,-40
14:24:00.955332,-9985
14:24:00.955332,-1
14:24:00.955332,-35
14:24:00.955332,-7681
14:24:00.955332,-1
14:24:00.955332,-33
14:24:00.955332,-8193
14:24:00.955332,-1
14:24:00.955332,-33
14:24:00.955332,-8193
14:24:00.955332,-1
14:24:00.955332,-35
14:24:00.955332,-7681
14:24:00.955332,-1
14:24:00.955332,-26
14:24:00.955332,-6913
14:24:00.955332,-1
14:24:00.955332,-28
14:24:00.955332,-5633
14:24:00.955332,-1
14:24:00.955332,-21
14:24:00.955332,-5633
14:24:00.955332,-1
14:24:00.955332,-28
14:24:00.955332,-7681
14:24:00.955332,-1
14:24:00.955332,-28
14:24:00.955332,-5633
14:24:00.955332,-1
14:24:00.955332,-26
14:24:00.955332,-7681
14:24:00.955332,-1
14:24:00.955332,-38
14:24:00.955332,-9985
14:24:00.955332,-1
14:24:00.955332,-38
14:24:00.955332,-10497
14:24:00.955332,-1
14:24:00.955332,-52
14:24:00.955332,-11265
14:24:00.955332,-1
14:24:00.955332,-19
14:24:00.955332,-769
14:24:00.955332,-1
14:24:00.955332,-2
14:24:00.955332,-2049
14:24:00.955332,-1
14:24:00.955332,-21
14:24:00.955332,-8193
14:24:00.955332,-1
14:24:00.955332,-35
14:24:00.955332,-6913
14:24:00.955332,-1
14:24:00.955332,-26
14:24:00.955332,-7681
14:24:00.955332,-1
14:24:00.955332,-28
14:24:00.955332,-8193
14:24:00.955332,-1
14:24:00.955332,-69
14:24:00.955332,-257
14:24:00.955332,-1
14:24:00.955332,339
14:24:00.955332,-18944
14:24:00.955332,3
14:24:00.955332,1559
14:24:00.955332,-23296
14:24:00.955332,5
14:24:00.955332,432
14:24:01.489314,-257
14:24:01.489314,31743
14:24:01.489314,-1
14:24:01.489314,-93
14:24:01.489314,-3841
14:24:01.489314,-2
14:24:01.489314,-236
14:24:01.489314,23807
14:24:01.489314,-1
14:24:01.489314,-205
14:24:01.489314,14591
14:24:01.489314,-1
14:24:01.489314,-152
14:24:01.489314,28671
14:24:01.489314,-1
14:24:01.489314,-138
14:24:01.489314,-29697
14:24:01.489314,-1
14:24:01.489314,-105
14:24:01.489314,-24577
14:24:01.489314,-1
14:24:01.489314,-76
14:24:01.489314,-14337
14:24:01.489314,-1
14:24:01.489314,-45
14:24:01.489314,-5633
14:24:01.489314,-1
14:24:01.489314,2
14:24:01.489314,6656
14:24:01.489314,0
14:24:01.489314,54
14:24:01.489314,23040
14:24:01.489314,0
14:24:01.489314,128
14:24:01.489314,-27648
14:24:01.489314,0
14:24:01.489314,143
14:24:01.489314,31744
14:24:01.489314,0
14:24:01.489314,95
14:24:01.489314,13824
14:24:01.489314,0
14:24:01.489314,4
14:24:01.489314,-11520
14:24:01.489314,-1
14:24:01.489314,-88
14:24:01.489314,-28417
14:24:01.489314,-1
14:24:01.489314,-126
14:24:01.489314,30975
14:24:01.489314,-1
14:24:01.489314,-136
14:24:01.489314,31743
14:24:01.489314,-1
14:24:01.489314,-131
14:24:01.489314,-32001
14:24:01.489314,-1
14:24:01.489314,-119
14:24:01.489314,-29697
14:24:01.489314,-1
14:24:01.489314,-114
14:24:01.489314,-27137
14:24:01.489314,-1
14:24:01.489314,-93
14:24:01.489314,-21505
14:24:01.489314,-1
14:24:01.489314,-83
14:24:01.489314,-19713
14:24:01.489314,-1
14:24:01.489314,-69
14:24:01.489314,-16129
14:24:01.489314,-1
14:24:01.489314,-62
14:24:01.489314,-14849
14:24:01.489314,-1
14:24:01.489314,-57
14:24:01.489314,-13569
14:24:01.489314,-1
14:24:01.489314,-54
14:24:01.489314,-13057
14:24:01.489314,-1
14:24:01.489314,-45
14:24:01.489314,-11265
14:24:01.489314,-1
14:24:01.489314,-52
14:24:01.489314,-13057
14:24:01.489314,-1
14:24:01.489314,-47
14:24:01.489314,-12545
14:24:01.489314,-1
14:24:01.489314,-52
14:24:01.489314,-13057
14:24:01.489314,-1
14:24:01.489314,-47
14:24:01.489314,-11265
14:24:01.489314,-1
14:24:01.489314,-45
14:24:01.489314,-9473
14:24:01.489314,-1
14:24:01.489314,-38
14:24:01.489314,-11265
14:24:01.489314,-1
14:24:01.489314,-42
14:24:01.489314,-7681
14:24:01.489314,-1
14:24:01.489314,-28
14:24:01.489314,-8193
14:24:01.489314,-1
14:24:01.489314,-35
14:24:02.128748,-33
14:24:02.128748,-8193
14:24:02.128748,-1
14:24:02.128748,-33
14:24:02.128748,-11265
14:24:02.128748,-1
14:24:02.128748,-52
14:24:02.128748,-8705
14:24:02.128748,-1
14:24:02.128748,-9
14:24:02.128748,3071
14:24:02.128748,0
14:24:02.128748,19
14:24:02.128748,4096
14:24:02.128748,0
14:24:02.128748,7
14:24:02.128748,0
14:24:02.128748,0
14:24:02.128748,-2
14:24:02.128748,-1537
14:24:02.128748,-1
14:24:02.128748,-7
14:24:02.128748,1279
14:24:02.128748,0
14:24:02.128748,14
14:24:02.128748,1024
14:24:02.128748,0
14:24:02.128748,-9
14:24:02.128748,-8705
14:24:02.128748,-1
14:24:02.128748,31
14:24:02.128748,26624
14:24:02.128748,1
14:24:02.128748,957
14:24:02.128748,12032
14:24:02.128748,6
14:24:02.128748,1535
14:24:02.128748,5120
14:24:02.128748,2
14:24:02.128748,-234
14:24:02.128748,-30209
14:24:02.128748,-1
14:24:02.128748,-45
14:24:02.128748,4095
14:24:02.128748,-1
14:24:02.128748,-214
14:24:02.128748,30975
14:24:02.128748,-1
14:24:02.128748,-183
14:24:02.128748,19455
14:24:02.128748,-1
14:24:02.128748,-136
14:24:02.128748,29951
14:24:02.128748,-1
14:24:02.128748,-140
14:24:02.128748,-29697
14:24:02.128748,-1
14:24:02.128748,-105
14:24:02.128748,-23553
14:24:02.128748,-1
14:24:02.128748,-71
14:24:02.128748,-13569
14:24:02.128748,-1
14:24:02.128748,-45
14:24:02.128748,-6913
14:24:02.128748,-1
14:24:02.128748,-2
14:24:02.128748,6911
14:24:02.128748,0
14:24:02.128748,54
14:24:02.128748,21248
14:24:02.128748,0
14:24:02.128748,109
14:24:02.128748,-32768
14:24:02.128748,0
14:24:02.128748,128
14:24:02.128748,28672
14:24:02.128748,0
14:24:02.128748,81
14:24:02.128748,8960
14:24:02.128748,0
14:24:02.128748,-21
14:24:02.128748,-19201
14:24:02.128748,-1
14:24:02.128748,-112
14:24:02.128748,31743
14:24:02.128748,-1
14:24:02.128748,-145
14:24:02.128748,26111
14:24:02.128748,-1
14:24:02.128748,-157
14:24:02.128748,26111
14:24:02.128748,-1
14:24:02.128748,-155
14:24:02.128748,27391
14:24:02.128748,-1
14:24:02.128748,-143
14:24:02.128748,30463
14:24:02.128748,-1
14:24:02.128748,-133
14:24:02.128748,-32001
14:24:02.128748,-1
14:24:02.128748,-119
14:24:02.128748,-27649
14:24:02.128748,-1
14:24:02.128748,-102
14:24:02.128748,-25857
14:24:02.128748,-1
14:24:02.128748,-95
14:24:02.702106,-88
14:24:02.702106,-20993
14:24:02.702106,-1
14:24:02.702106,-81
14:24:02.702106,-19713
14:24:02.702106,-1
14:24:02.702106,-76
14:24:02.702106,-19201
14:24:02.702106,-1
14:24:02.702106,-76
14:24:02.702106,-19201
14:24:02.702106,-1
14:24:02.702106,-71
14:24:02.702106,-17921
14:24:02.702106,-1
14:24:02.702106,-74
14:24:02.702106,-18689
14:24:02.702106,-1
14:24:02.702106,-69
14:24:02.702106,-15617
14:24:02.702106,-1
14:24:02.702106,-52
14:24:02.702106,-12545
14:24:02.702106,-1
14:24:02.702106,-54
14:24:02.702106,-13057
14:24:02.702106,-1
14:24:02.702106,-50
14:24:02.702106,-12545
14:24:02.702106,-1
14:24:02.702106,-52
14:24:02.702106,-12545
14:24:02.702106,-1
14:24:02.702106,-50
14:24:02.702106,-12545
14:24:02.702106,-1
14:24:02.702106,-52
14:24:02.702106,-14849
14:24:02.702106,-1
14:24:02.702106,-64
14:24:02.702106,-17409
14:24:02.702106,-1
14:24:02.702106,-76
14:24:02.702106,-17409
14:24:02.702106,-1
14:24:02.702106,-47
14:24:02.702106,-6401
14:24:02.702106,-1
14:24:02.702106,-21
14:24:02.702106,-6913
14:24:02.702106,-1
14:24:02.702106,-33
14:24:02.702106,-9473
14:24:02.702106,-1
14:24:02.702106,-50
14:24:02.702106,-13057
14:24:02.702106,-1
14:24:02.702106,-47
14:24:02.702106,-11265
14:24:02.702106,-1
14:24:02.702106,-47
14:24:02.702106,-11777
14:24:02.702106,-1
14:24:02.702106,-66
14:24:02.702106,-16641
14:24:02.702106,-1
14:24:02.702106,102
14:24:02.702106,25856
14:24:02.702106,2
14:24:02.702106,1435
14:24:02.702106,23552
14:24:02.702106,7
14:24:02.702106,1134
14:24:02.702106,-12032
14:24:02.702106,-1
14:24:02.702106,-303
14:24:02.702106,-22273
14:24:02.702106,-1
14:24:02.702106,-224
14:24:02.702106,-17921
14:24:02.702106,-2
14:24:02.702106,-226
14:24:02.702106,9727
14:24:02.702106,-1
14:24:02.702106,-257
14:24:02.702106,8959
14:24:02.702106,-1
14:24:02.702106,-203
14:24:02.702106,12031
14:24:02.702106,-1
14:24:02.702106,-195
14:24:02.702106,20735
14:24:02.702106,-1
14:24:02.702106,-171
14:24:02.702106,24319
14:24:02.702106,-1
14:24:02.702106,-145
14:24:02.702106,32255
14:24:02.702106,-1
14:24:02.702106,-117
14:24:02.702106,-24577
14:24:02.702106,-1
14:24:02.702106,-74
14:24:02.702106,-11777
14:24:02.702106,-1
14:24:02.702106,-19
14:24:02.702106,2559
14:24:02.702106,0
14:24:02.702106,33
14:24:03.208803,47
14:24:03.208803,12032
14:24:03.208803,0
14:24:03.208803,31
14:24:03.208803,1024
14:24:03.208803,0
14:24:03.208803,-28
14:24:03.208803,-17921
14:24:03.208803,-1
14:24:03.208803,-107
14:24:03.208803,-32513
14:24:03.208803,-1
14:24:03.208803,-140
14:24:03.208803,27903
14:24:03.208803,-1
14:24:03.208803,-148
14:24:03.208803,28671
14:24:03.208803,-1
14:24:03.208803,-143
14:24:03.208803,30975
14:24:03.208803,-1
14:24:03.208803,-131
14:24:03.208803,-31489
14:24:03.208803,-1
14:24:03.208803,-114
14:24:03.208803,-25345
14:24:03.208803,-1
14:24:03.208803,-88
14:24:03.208803,-21505
14:24:03.208803,-1
14:24:03.208803,-83
14:24:03.208803,-19713
14:24:03.208803,-1
14:24:03.208803,-74
14:24:03.208803,-17921
14:24:03.208803,-1
14:24:03.208803,-66
14:24:03.208803,-15617
14:24:03.208803,-1
14:24:03.208803,-59
14:24:03.208803,-14337
14:24:03.208803,-1
14:24:03.208803,-54
14:24:03.208803,-13569
14:24:03.208803,-1
14:24:03.208803,-54
14:24:03.208803,-13569
14:24:03.208803,-1
14:24:03.208803,-52
14:24:03.208803,-13569
14:24:03.208803,-1
14:24:03.208803,-54
14:24:03.208803,-12545
14:24:03.208803,-1
14:24:03.208803,-50
14:24:03.208803,-12545
14:24:03.208803,-1
14:24:03.208803,-47
14:24:03.208803,-11777
14:24:03.208803,-1
14:24:03.208803,-47
14:24:03.208803,-11265
14:24:03.208803,-1
14:24:03.208803,-45
14:24:03.208803,-11265
14:24:03.208803,-1
14:24:03.208803,-42
14:24:03.208803,-10497
14:24:03.208803,-1
14:24:03.208803,-42
14:24:03.208803,-9985
14:24:03.208803,-1
14:24:03.208803,-40
14:24:03.208803,-9985
14:24:03.208803,-1
14:24:03.208803,-42
14:24:03.208803,-9985
14:24:03.208803,-1
14:24:03.208803,-40
14:24:03.208803,-10497
14:24:03.208803,-1
14:24:03.208803,-45
14:24:03.208803,-12545
14:24:03.208803,-1
14:24:03.208803,-54
14:24:03.208803,-14849
14:24:03.208803,-1
14:24:03.208803,-62
14:24:03.208803,-13569
14:24:03.208803,-1
14:24:03.208803,-33
14:24:03.208803,-3329
14:24:03.208803,-1
14:24:03.208803,-14
14:24:03.208803,-3841
14:24:03.208803,-1
14:24:03.208803,-19
14:24:03.208803,-6401
14:24:03.208803,-1
14:24:03.208803,-33
14:24:03.208803,-6913
14:24:03.208803,-1
14:24:03.208803,-23
14:24:03.208803,-6401
14:24:03.208803,-1
14:24:03.208803,-23
14:24:03.208803,-6913
14:24:03.208803,-1
14:24:03.208803,-50
14:24:03.736432,-40
14:24:03.736432,-23297
14:24:03.736432,0
14:24:03.736432,728
14:24:03.736432,2816
14:24:03.736432,6
14:24:03.736432,1843
14:24:03.736432,-20224
14:24:03.736432,3
14:24:03.736432,-148
14:24:03.736432,511
14:24:03.736432,-1
14:24:03.736432,-66
14:24:03.736432,7935
14:24:03.736432,-1
14:24:03.736432,-289
14:24:03.736432,16383
14:24:03.736432,-1
14:24:03.736432,-205
14:24:03.736432,6655
14:24:03.736432,-1
14:24:03.736432,-193
14:24:03.736432,19455
14:24:03.736432,-1
14:24:03.736432,-188
14:24:03.736432,21247
14:24:03.736432,-1
14:24:03.736432,-157
14:24:03.736432,26879
14:24:03.736432,-1
14:24:03.736432,-138
14:24:03.736432,-31489
14:24:03.736432,-1
14:24:03.736432,-109
14:24:03.736432,-23553
14:24:03.736432,-1
14:24:03.736432,-74
14:24:03.736432,-13057
14:24:03.736432,-1
14:24:03.736432,-26
14:24:03.736432,767
14:24:03.736432,0
14:24:03.736432,26
14:24:03.736432,10752
14:24:03.736432,0
14:24:03.736432,47
14:24:03.736432,10752
14:24:03.736432,0
14:24:03.736432,23
14:24:03.736432,-1024
14:24:03.736432,-1
14:24:03.736432,-40
14:24:03.736432,-20481
14:24:03.736432,-1
14:24:03.736432,-114
14:24:03.736432,31743
14:24:03.736432,-1
14:24:03.736432,-145
14:24:03.736432,26879
14:24:03.736432,-1
14:24:03.736432,-155
14:24:03.736432,26879
14:24:03.736432,-1
14:24:03.736432,-148
14:24:03.736432,29951
14:24:03.736432,-1
14:24:03.736432,-133
14:24:03.736432,-32513
14:24:03.736432,-1
14:24:03.736432,-121
14:24:03.736432,-28929
14:24:03.736432,-1
14:24:03.736432,-109
14:24:03.736432,-26625
14:24:03.736432,-1
14:24:03.736432,-100
14:24:03.736432,-24065
14:24:03.736432,-1
14:24:03.736432,-93
14:24:03.736432,-21505
14:24:03.736432,-1
14:24:03.736432,-81
14:24:03.736432,-19201
14:24:03.736432,-1
14:24:03.736432,-71
14:24:03.736432,-16641
14:24:03.736432,-1
14:24:03.736432,-64
14:24:03.736432,-14337
14:24:03.736432,-1
14:24:03.736432,-50
14:24:03.736432,-12545
14:24:03.736432,-1
14:24:03.736432,-52
14:24:03.736432,-13057
14:24:03.736432,-1
14:24:03.736432,-52
14:24:03.736432,-13057
14:24:03.736432,-1
14:24:03.736432,-52
14:24:03.736432,-11777
14:24:03.736432,-1
14:24:03.736432,-50
14:24:03.736432,-12545
14:24:03.736432,-1
14:24:03.736432,-47
14:24:03.736432,-11777
14:24:03.736432,-1
14:24:03.736432,-47
14:24:04.370822,-45
14:24:04.370822,-11777
14:24:04.370822,-1
14:24:04.370822,-47
14:24:04.370822,-11777
14:24:04.370822,-1
14:24:04.370822,-45
14:24:04.370822,-9473
14:24:04.370822,-1
14:24:04.370822,-26
14:24:04.370822,-5633
14:24:04.370822,-1
14:24:04.370822,-28
14:24:04.370822,-7681
14:24:04.370822,-1
14:24:04.370822,-31
14:24:04.370822,-7681
14:24:04.370822,-1
14:24:04.370822,-31
14:24:04.370822,-7681
14:24:04.370822,-1
14:24:04.370822,-35
14:24:04.370822,-9985
14:24:04.370822,-1
14:24:04.370822,-42
14:24:04.370822,-11265
14:24:04.370822,-1
14:24:04.370822,-47
14:24:04.370822,-12545
14:24:04.370822,-1
14:24:04.370822,-35
14:24:04.370822,-3841
14:24:04.370822,-1
14:24:04.370822,-4
14:24:04.370822,-769
14:24:04.370822,-1
14:24:04.370822,-11
14:24:04.370822,-5121
14:24:04.370822,-1
14:24:04.370822,-33
14:24:04.370822,-10497
14:24:04.370822,-1
14:24:04.370822,-38
14:24:04.370822,-8193
14:24:04.370822,-1
14:24:04.370822,-35
14:24:04.370822,-9473
14:24:04.370822,-1
14:24:04.370822,-47
14:24:04.370822,-19201
14:24:04.370822,-1
14:24:04.370822,-7
14:24:04.370822,19711
14:24:04.370822,1
14:24:04.370822,964
14:24:04.370822,14592
14:24:04.370822,6
14:24:04.370822,1433
14:24:04.370822,32256
14:24:04.370822,1
14:24:04.370822,-289
14:24:04.370822,27903
14:24:04.370822,-1
14:24:04.370822,-114
14:24:04.370822,-8705
14:24:04.370822,-2
14:24:04.370822,-255
14:24:04.370822,16895
14:24:04.370822,-1
14:24:04.370822,-231
14:24:04.370822,8447
14:24:04.370822,-1
14:24:04.370822,-186
14:24:04.370822,18175
14:24:04.370822,-1
14:24:04.370822,-179
14:24:04.370822,26111
14:24:04.370822,-1
14:24:04.370822,-140
14:24:04.370822,-32513
14:24:04.370822,-1
14:24:04.370822,-114
14:24:04.370822,-25857
14:24:04.370822,-1
14:24:04.370822,-85
14:24:04.370822,-16641
14:24:04.370822,-1
14:24:04.370822,-42
14:24:04.370822,-3841
14:24:04.370822,-1
14:24:04.370822,7
14:24:04.370822,7936
14:24:04.370822,0
14:24:04.370822,52
14:24:04.370822,15872
14:24:04.370822,0
14:24:04.370822,62
14:24:04.370822,12800
14:24:04.370822,0
14:24:04.370822,26
14:24:04.370822,-1024
14:24:04.370822,-1
14:24:04.370822,-42
14:24:04.370822,-20993
14:24:04.370822,-1
14:24:04.370822,-112
14:24:04.370822,32255
14:24:04.370822,-1
14:24:04.370822,-140
14:24:04.909968,-145
14:24:04.909968,27903
14:24:04.909968,-1
14:24:04.909968,-145
14:24:04.909968,30463
14:24:04.909968,-1
14:24:04.909968,-131
14:24:04.909968,-31489
14:24:04.909968,-1
14:24:04.909968,-117
14:24:04.909968,-28417
14:24:04.909968,-1
14:24:04.909968,-102
14:24:04.909968,-24065
14:24:04.909968,-1
14:24:04.909968,-88
14:24:04.909968,-21505
14:24:04.909968,-1
14:24:04.909968,-83
14:24:04.909968,-19713
14:24:04.909968,-1
14:24:04.909968,-69
14:24:04.909968,-13057
14:24:04.909968,-1
14:24:04.909968,-45
14:24:04.909968,-11265
14:24:04.909968,-1
14:24:04.909968,-45
14:24:04.909968,-10497
14:24:04.909968,-1
14:24:04.909968,-38
14:24:04.909968,-8705
14:24:04.909968,-1
14:24:04.909968,-35
14:24:04.909968,-8705
14:24:04.909968,-1
14:24:04.909968,-38
14:24:04.909968,-8705
14:24:04.909968,-1
14:24:04.909968,-35
14:24:04.909968,-8193
14:24:04.909968,-1
14:24:04.909968,-33
14:24:04.909968,-8193
14:24:04.909968,-1
14:24:04.909968,-33
14:24:04.909968,-7681
14:24:04.909968,-1
14:24:04.909968,-31
14:24:04.909968,-7681
14:24:04.909968,-1
14:24:04.909968,-31
14:24:04.909968,-6913
14:24:04.909968,-1
14:24:04.909968,-31
14:24:04.909968,-7681
14:24:04.909968,-1
14:24:04.909968,-31
14:24:04.909968,-6913
14:24:04.909968,-1
14:24:04.909968,-28
14:24:04.909968,-6913
14:24:04.909968,-1
14:24:04.909968,-28
14:24:04.909968,-7681
14:24:04.909968,-1
14:24:04.909968,-31
