timestamp,ecg,reconstructed_time
2025-11-07 12:31:17.971892,-11,2025-11-07 12:31:17.971892000
2025-11-07 12:31:17.971892,-1537,2025-11-07 12:31:17.979584308
2025-11-07 12:31:17.971892,-1,2025-11-07 12:31:17.987276615
2025-11-07 12:31:17.971892,2,2025-11-07 12:31:17.994968923
2025-11-07 12:31:17.971892,3584,2025-11-07 12:31:18.002661231
2025-11-07 12:31:17.971892,0,2025-11-07 12:31:18.010353538
2025-11-07 12:31:17.971892,14,2025-11-07 12:31:18.018045846
2025-11-07 12:31:17.971892,3584,2025-11-07 12:31:18.025738154
2025-11-07 12:31:17.971892,0,2025-11-07 12:31:18.033430462
2025-11-07 12:31:17.971892,21,2025-11-07 12:31:18.041122769
2025-11-07 12:31:17.971892,5888,2025-11-07 12:31:18.048815077
2025-11-07 12:31:17.971892,0,2025-11-07 12:31:18.056507385
2025-11-07 12:31:17.971892,21,2025-11-07 12:31:18.064199692
2025-11-07 12:31:17.971892,4864,2025-11-07 12:31:18.071892000
2025-11-07 12:31:17.971892,0,2025-11-07 12:31:18.079584308
2025-11-07 12:31:17.971892,21,2025-11-07 12:31:18.087276615
2025-11-07 12:31:17.971892,5888,2025-11-07 12:31:18.094968923
2025-11-07 12:31:17.971892,0,2025-11-07 12:31:18.102661231
2025-11-07 12:31:17.971892,21,2025-11-07 12:31:18.110353538
2025-11-07 12:31:17.971892,6656,2025-11-07 12:31:18.118045846
2025-11-07 12:31:17.971892,0,2025-11-07 12:31:18.125738154
2025-11-07 12:31:17.971892,33,2025-11-07 12:31:18.133430462
2025-11-07 12:31:17.971892,8960,2025-11-07 12:31:18.141122769
2025-11-07 12:31:17.971892,0,2025-11-07 12:31:18.148815077
2025-11-07 12:31:17.971892,31,2025-11-07 12:31:18.156507385
2025-11-07 12:31:17.971892,5376,2025-11-07 12:31:18.164199692
2025-11-07 12:31:17.971892,0,2025-11-07 12:31:18.171892000
2025-11-07 12:31:17.971892,23,2025-11-07 12:31:18.179584308
2025-11-07 12:31:17.971892,9728,2025-11-07 12:31:18.187276615
2025-11-07 12:31:17.971892,0,2025-11-07 12:31:18.194968923
2025-11-07 12:31:17.971892,38,2025-11-07 12:31:18.202661231
2025-11-07 12:31:17.971892,7936,2025-11-07 12:31:18.210353538
2025-11-07 12:31:17.971892,0,2025-11-07 12:31:18.218045846
2025-11-07 12:31:17.971892,28,2025-11-07 12:31:18.225738154
2025-11-07 12:31:17.971892,8960,2025-11-07 12:31:18.233430462
2025-11-07 12:31:17.971892,0,2025-11-07 12:31:18.241122769
2025-11-07 12:31:17.971892,35,2025-11-07 12:31:18.248815077
2025-11-07 12:31:17.971892,7936,2025-11-07 12:31:18.256507385
2025-11-07 12:31:17.971892,0,2025-11-07 12:31:18.264199692
2025-11-07 12:31:17.971892,35,2025-11-07 12:31:18.271892000
2025-11-07 12:31:17.971892,10240,2025-11-07 12:31:18.279584308
2025-11-07 12:31:17.971892,0,2025-11-07 12:31:18.287276615
2025-11-07 12:31:17.971892,42,2025-11-07 12:31:18.294968923
2025-11-07 12:31:17.971892,11520,2025-11-07 12:31:18.302661231
2025-11-07 12:31:17.971892,0,2025-11-07 12:31:18.310353538
2025-11-07 12:31:17.971892,40,2025-11-07 12:31:18.318045846
2025-11-07 12:31:17.971892,8960,2025-11-07 12:31:18.325738154
2025-11-07 12:31:17.971892,0,2025-11-07 12:31:18.333430462
2025-11-07 12:31:17.971892,40,2025-11-07 12:31:18.341122769
2025-11-07 12:31:17.971892,10240,2025-11-07 12:31:18.348815077
2025-11-07 12:31:17.971892,0,2025-11-07 12:31:18.356507385
2025-11-07 12:31:17.971892,35,2025-11-07 12:31:18.364199692
2025-11-07 12:31:17.971892,8448,2025-11-07 12:31:18.371892000
2025-11-07 12:31:17.971892,0,2025-11-07 12:31:18.379584308
2025-11-07 12:31:17.971892,38,2025-11-07 12:31:18.387276615
2025-11-07 12:31:17.971892,10752,2025-11-07 12:31:18.394968923
2025-11-07 12:31:17.971892,0,2025-11-07 12:31:18.402661231
2025-11-07 12:31:17.971892,33,2025-11-07 12:31:18.410353538
2025-11-07 12:31:17.971892,7168,2025-11-07 12:31:18.418045846
2025-11-07 12:31:17.971892,0,2025-11-07 12:31:18.425738154
2025-11-07 12:31:17.971892,28,2025-11-07 12:31:18.433430462
2025-11-07 12:31:17.971892,7936,2025-11-07 12:31:18.441122769
2025-11-07 12:31:17.971892,0,2025-11-07 12:31:18.448815077
2025-11-07 12:31:17.971892,31,2025-11-07 12:31:18.456507385
2025-11-07 12:31:17.971892,7936,2025-11-07 12:31:18.464199692
2025-11-07 12:31:17.971892,0,2025-11-07 12:31:18.471892000
2025-11-07 12:31:17.971892,31,2025-11-07 12:31:18.479584308
2025-11-07 12:31:17.971892,6656,2025-11-07 12:31:18.487276615
2025-11-07 12:31:17.971892,0,2025-11-07 12:31:18.494968923
2025-11-07 12:31:17.971892,19,2025-11-07 12:31:18.502661230
2025-11-07 12:31:17.971892,4096,2025-11-07 12:31:18.510353538
2025-11-07 12:31:17.971892,0,2025-11-07 12:31:18.518045846
2025-11-07 12:31:17.971892,14,2025-11-07 12:31:18.525738154
2025-11-07 12:31:17.971892,5888,2025-11-07 12:31:18.533430462
2025-11-07 12:31:17.971892,0,2025-11-07 12:31:18.541122769
2025-11-07 12:31:17.971892,38,2025-11-07 12:31:18.548815077
2025-11-07 12:31:17.971892,10752,2025-11-07 12:31:18.556507385
2025-11-07 12:31:17.971892,0,2025-11-07 12:31:18.564199692
2025-11-07 12:31:17.971892,52,2025-11-07 12:31:18.571892000
2025-11-07 12:31:17.971892,15104,2025-11-07 12:31:18.579584308
2025-11-07 12:31:17.971892,0,2025-11-07 12:31:18.587276615
2025-11-07 12:31:17.971892,52,2025-11-07 12:31:18.594968923
2025-11-07 12:31:17.971892,10752,2025-11-07 12:31:18.602661231
2025-11-07 12:31:17.971892,0,2025-11-07 12:31:18.610353538
2025-11-07 12:31:17.971892,35,2025-11-07 12:31:18.618045846
2025-11-07 12:31:17.971892,8448,2025-11-07 12:31:18.625738154
2025-11-07 12:31:17.971892,0,2025-11-07 12:31:18.633430462
2025-11-07 12:31:17.971892,35,2025-11-07 12:31:18.641122769
2025-11-07 12:31:17.971892,9728,2025-11-07 12:31:18.648815077
2025-11-07 12:31:17.971892,0,2025-11-07 12:31:18.656507385
2025-11-07 12:31:17.971892,38,2025-11-07 12:31:18.664199692
2025-11-07 12:31:17.971892,8960,2025-11-07 12:31:18.671892000
2025-11-07 12:31:17.971892,0,2025-11-07 12:31:18.679584308
2025-11-07 12:31:17.971892,33,2025-11-07 12:31:18.687276615
2025-11-07 12:31:17.971892,9728,2025-11-07 12:31:18.694968923
2025-11-07 12:31:17.971892,0,2025-11-07 12:31:18.702661231
2025-11-07 12:31:17.971892,35,2025-11-07 12:31:18.710353538
2025-11-07 12:31:17.971892,8448,2025-11-07 12:31:18.718045846
2025-11-07 12:31:17.971892,0,2025-11-07 12:31:18.725738154
2025-11-07 12:31:17.971892,31,2025-11-07 12:31:18.733430462
2025-11-07 12:31:17.971892,4864,2025-11-07 12:31:18.741122769
2025-11-07 12:31:17.971892,0,2025-11-07 12:31:18.748815077
2025-11-07 12:31:17.971892,-11,2025-11-07 12:31:18.756507385
2025-11-07 12:31:17.971892,13567,2025-11-07 12:31:18.764199692
2025-11-07 12:31:17.971892,0,2025-11-07 12:31:18.771892000
2025-11-07 12:31:17.971892,503,2025-11-07 12:31:18.779584308
2025-11-07 12:31:17.971892,20736,2025-11-07 12:31:18.787276615
2025-11-07 12:31:17.971892,4,2025-11-07 12:31:18.794968923
2025-11-07 12:31:17.971892,1022,2025-11-07 12:31:18.802661231
2025-11-07 12:31:18.504537,324,2025-11-07 12:31:18.810353538
2025-11-07 12:31:18.504537,-10240,2025-11-07 12:31:18.818045846
2025-11-07 12:31:18.504537,-1,2025-11-07 12:31:18.825738154
2025-11-07 12:31:18.504537,21,2025-11-07 12:31:18.833430462
2025-11-07 12:31:18.504537,-3584,2025-11-07 12:31:18.841122769
2025-11-07 12:31:18.504537,-1,2025-11-07 12:31:18.848815077
2025-11-07 12:31:18.504537,-148,2025-11-07 12:31:18.856507385
2025-11-07 12:31:18.504537,27903,2025-11-07 12:31:18.864199692
2025-11-07 12:31:18.504537,-1,2025-11-07 12:31:18.871892000
2025-11-07 12:31:18.504537,-107,2025-11-07 12:31:18.879584308
2025-11-07 12:31:18.504537,-30209,2025-11-07 12:31:18.887276615
2025-11-07 12:31:18.504537,-1,2025-11-07 12:31:18.894968923
2025-11-07 12:31:18.504537,-124,2025-11-07 12:31:18.902661231
2025-11-07 12:31:18.504537,-28417,2025-11-07 12:31:18.910353538
2025-11-07 12:31:18.504537,-1,2025-11-07 12:31:18.918045846
2025-11-07 12:31:18.504537,-97,2025-11-07 12:31:18.925738154
2025-11-07 12:31:18.504537,-19713,2025-11-07 12:31:18.933430462
2025-11-07 12:31:18.504537,-1,2025-11-07 12:31:18.941122769
2025-11-07 12:31:18.504537,-76,2025-11-07 12:31:18.948815077
2025-11-07 12:31:18.504537,-22273,2025-11-07 12:31:18.956507385
2025-11-07 12:31:18.504537,-1,2025-11-07 12:31:18.964199692
2025-11-07 12:31:18.504537,-88,2025-11-07 12:31:18.971892000
2025-11-07 12:31:18.504537,-20481,2025-11-07 12:31:18.979584308
2025-11-07 12:31:18.504537,-1,2025-11-07 12:31:18.987276615
2025-11-07 12:31:18.504537,-83,2025-11-07 12:31:18.994968923
2025-11-07 12:31:18.504537,-21505,2025-11-07 12:31:19.002661231
2025-11-07 12:31:18.504537,-1,2025-11-07 12:31:19.010353538
2025-11-07 12:31:18.504537,-85,2025-11-07 12:31:19.018045846
2025-11-07 12:31:18.504537,-22785,2025-11-07 12:31:19.025738154
2025-11-07 12:31:18.504537,-1,2025-11-07 12:31:19.033430462
2025-11-07 12:31:18.504537,-81,2025-11-07 12:31:19.041122769
2025-11-07 12:31:18.504537,-19201,2025-11-07 12:31:19.048815077
2025-11-07 12:31:18.504537,-1,2025-11-07 12:31:19.056507385
2025-11-07 12:31:18.504537,-83,2025-11-07 12:31:19.064199692
2025-11-07 12:31:18.504537,-19713,2025-11-07 12:31:19.071892000
2025-11-07 12:31:18.504537,-1,2025-11-07 12:31:19.079584308
2025-11-07 12:31:18.504537,-66,2025-11-07 12:31:19.087276615
2025-11-07 12:31:18.504537,-16129,2025-11-07 12:31:19.094968923
2025-11-07 12:31:18.504537,-1,2025-11-07 12:31:19.102661231
2025-11-07 12:31:18.504537,-59,2025-11-07 12:31:19.110353538
2025-11-07 12:31:18.504537,-11777,2025-11-07 12:31:19.118045846
2025-11-07 12:31:18.504537,-1,2025-11-07 12:31:19.125738154
2025-11-07 12:31:18.504537,-33,2025-11-07 12:31:19.133430462
2025-11-07 12:31:18.504537,-3841,2025-11-07 12:31:19.141122769
2025-11-07 12:31:18.504537,-1,2025-11-07 12:31:19.148815077
2025-11-07 12:31:18.504537,-7,2025-11-07 12:31:19.156507385
2025-11-07 12:31:18.504537,1279,2025-11-07 12:31:19.164199692
2025-11-07 12:31:18.504537,0,2025-11-07 12:31:19.171892000
2025-11-07 12:31:18.504537,16,2025-11-07 12:31:19.179584308
2025-11-07 12:31:18.504537,4096,2025-11-07 12:31:19.187276615
2025-11-07 12:31:18.504537,0,2025-11-07 12:31:19.194968923
2025-11-07 12:31:18.504537,23,2025-11-07 12:31:19.202661231
2025-11-07 12:31:18.504537,7936,2025-11-07 12:31:19.210353538
2025-11-07 12:31:18.504537,0,2025-11-07 12:31:19.218045846
2025-11-07 12:31:18.504537,35,2025-11-07 12:31:19.225738154
2025-11-07 12:31:18.504537,8960,2025-11-07 12:31:19.233430462
2025-11-07 12:31:18.504537,0,2025-11-07 12:31:19.241122769
2025-11-07 12:31:18.504537,35,2025-11-07 12:31:19.248815077
2025-11-07 12:31:18.504537,10240,2025-11-07 12:31:19.256507385
2025-11-07 12:31:18.504537,0,2025-11-07 12:31:19.264199692
2025-11-07 12:31:18.504537,47,2025-11-07 12:31:19.271892000
2025-11-07 12:31:18.504537,10752,2025-11-07 12:31:19.279584308
2025-11-07 12:31:18.504537,0,2025-11-07 12:31:19.287276615
2025-11-07 12:31:18.504537,31,2025-11-07 12:31:19.294968923
2025-11-07 12:31:18.504537,6656,2025-11-07 12:31:19.302661231
2025-11-07 12:31:18.504537,0,2025-11-07 12:31:19.310353538
2025-11-07 12:31:18.504537,31,2025-11-07 12:31:19.318045846
2025-11-07 12:31:18.504537,7168,2025-11-07 12:31:19.325738154
2025-11-07 12:31:18.504537,0,2025-11-07 12:31:19.333430462
2025-11-07 12:31:18.504537,23,2025-11-07 12:31:19.341122769
2025-11-07 12:31:18.504537,6656,2025-11-07 12:31:19.348815077
2025-11-07 12:31:18.504537,0,2025-11-07 12:31:19.356507385
2025-11-07 12:31:18.504537,26,2025-11-07 12:31:19.364199692
2025-11-07 12:31:18.504537,6656,2025-11-07 12:31:19.371892000
2025-11-07 12:31:18.504537,0,2025-11-07 12:31:19.379584308
2025-11-07 12:31:18.504537,28,2025-11-07 12:31:19.387276615
2025-11-07 12:31:18.504537,9728,2025-11-07 12:31:19.394968923
2025-11-07 12:31:18.504537,0,2025-11-07 12:31:19.402661231
2025-11-07 12:31:18.504537,40,2025-11-07 12:31:19.410353538
2025-11-07 12:31:18.504537,8448,2025-11-07 12:31:19.418045846
2025-11-07 12:31:18.504537,0,2025-11-07 12:31:19.425738154
2025-11-07 12:31:18.504537,38,2025-11-07 12:31:19.433430462
2025-11-07 12:31:18.504537,10752,2025-11-07 12:31:19.441122769
2025-11-07 12:31:18.504537,0,2025-11-07 12:31:19.448815077
2025-11-07 12:31:18.504537,31,2025-11-07 12:31:19.456507385
2025-11-07 12:31:18.504537,7936,2025-11-07 12:31:19.464199692
2025-11-07 12:31:18.504537,0,2025-11-07 12:31:19.471892000
2025-11-07 12:31:18.504537,45,2025-11-07 12:31:19.479584308
2025-11-07 12:31:18.504537,10752,2025-11-07 12:31:19.487276615
2025-11-07 12:31:18.504537,0,2025-11-07 12:31:19.494968923
2025-11-07 12:31:18.504537,42,2025-11-07 12:31:19.502661230
2025-11-07 12:31:18.504537,11520,2025-11-07 12:31:19.510353538
2025-11-07 12:31:18.504537,0,2025-11-07 12:31:19.518045846
2025-11-07 12:31:18.504537,40,2025-11-07 12:31:19.525738154
2025-11-07 12:31:18.504537,7936,2025-11-07 12:31:19.533430462
2025-11-07 12:31:18.504537,0,2025-11-07 12:31:19.541122769
2025-11-07 12:31:18.504537,38,2025-11-07 12:31:19.548815077
2025-11-07 12:31:18.504537,11520,2025-11-07 12:31:19.556507385
2025-11-07 12:31:18.504537,0,2025-11-07 12:31:19.564199692
2025-11-07 12:31:18.504537,35,2025-11-07 12:31:19.571892000
2025-11-07 12:31:18.504537,7936,2025-11-07 12:31:19.579584308
2025-11-07 12:31:18.504537,0,2025-11-07 12:31:19.587276615
2025-11-07 12:31:18.504537,35,2025-11-07 12:31:19.594968923
2025-11-07 12:31:18.504537,6656,2025-11-07 12:31:19.602661231
2025-11-07 12:31:18.504537,0,2025-11-07 12:31:19.610353538
2025-11-07 12:31:18.504537,19,2025-11-07 12:31:19.618045846
2025-11-07 12:31:18.504537,4864,2025-11-07 12:31:19.625738154
2025-11-07 12:31:18.504537,0,2025-11-07 12:31:19.633430462
2025-11-07 12:31:18.504537,16,2025-11-07 12:31:19.641122769
2025-11-07 12:31:19.044862,23,2025-11-07 12:31:19.648815077
2025-11-07 12:31:19.044862,12032,2025-11-07 12:31:19.656507385
2025-11-07 12:31:19.044862,0,2025-11-07 12:31:19.664199692
2025-11-07 12:31:19.044862,57,2025-11-07 12:31:19.671892000
2025-11-07 12:31:19.044862,12032,2025-11-07 12:31:19.679584308
2025-11-07 12:31:19.044862,0,2025-11-07 12:31:19.687276615
2025-11-07 12:31:19.044862,47,2025-11-07 12:31:19.694968923
2025-11-07 12:31:19.044862,13824,2025-11-07 12:31:19.702661231
2025-11-07 12:31:19.044862,0,2025-11-07 12:31:19.710353538
2025-11-07 12:31:19.044862,35,2025-11-07 12:31:19.718045846
2025-11-07 12:31:19.044862,7936,2025-11-07 12:31:19.725738154
2025-11-07 12:31:19.044862,0,2025-11-07 12:31:19.733430462
2025-11-07 12:31:19.044862,64,2025-11-07 12:31:19.741122769
2025-11-07 12:31:19.044862,20736,2025-11-07 12:31:19.748815077
2025-11-07 12:31:19.044862,0,2025-11-07 12:31:19.756507385
2025-11-07 12:31:19.044862,66,2025-11-07 12:31:19.764199692
2025-11-07 12:31:19.044862,12800,2025-11-07 12:31:19.771892000
2025-11-07 12:31:19.044862,0,2025-11-07 12:31:19.779584308
2025-11-07 12:31:19.044862,42,2025-11-07 12:31:19.787276615
2025-11-07 12:31:19.044862,13312,2025-11-07 12:31:19.794968923
2025-11-07 12:31:19.044862,0,2025-11-07 12:31:19.802661231
2025-11-07 12:31:19.044862,54,2025-11-07 12:31:19.810353538
2025-11-07 12:31:19.044862,12032,2025-11-07 12:31:19.818045846
2025-11-07 12:31:19.044862,0,2025-11-07 12:31:19.825738154
2025-11-07 12:31:19.044862,47,2025-11-07 12:31:19.833430462
2025-11-07 12:31:19.044862,12032,2025-11-07 12:31:19.841122769
2025-11-07 12:31:19.044862,0,2025-11-07 12:31:19.848815077
2025-11-07 12:31:19.044862,40,2025-11-07 12:31:19.856507385
2025-11-07 12:31:19.044862,2304,2025-11-07 12:31:19.864199692
2025-11-07 12:31:19.044862,0,2025-11-07 12:31:19.871892000
2025-11-07 12:31:19.044862,57,2025-11-07 12:31:19.879584308
2025-11-07 12:31:19.044862,-15104,2025-11-07 12:31:19.887276615
2025-11-07 12:31:19.044862,1,2025-11-07 12:31:19.894968923
2025-11-07 12:31:19.044862,998,2025-11-07 12:31:19.902661231
2025-11-07 12:31:19.044862,-23296,2025-11-07 12:31:19.910353538
2025-11-07 12:31:19.044862,3,2025-11-07 12:31:19.918045846
2025-11-07 12:31:19.044862,305,2025-11-07 12:31:19.925738154
2025-11-07 12:31:19.044862,-4864,2025-11-07 12:31:19.933430462
2025-11-07 12:31:19.044862,-1,2025-11-07 12:31:19.941122769
2025-11-07 12:31:19.044862,50,2025-11-07 12:31:19.948815077
2025-11-07 12:31:19.044862,4096,2025-11-07 12:31:19.956507385
2025-11-07 12:31:19.044862,0,2025-11-07 12:31:19.964199692
2025-11-07 12:31:19.044862,-105,2025-11-07 12:31:19.971892000
2025-11-07 12:31:19.044862,-30209,2025-11-07 12:31:19.979584308
2025-11-07 12:31:19.044862,-1,2025-11-07 12:31:19.987276615
2025-11-07 12:31:19.044862,-93,2025-11-07 12:31:19.994968923
2025-11-07 12:31:19.044862,-22785,2025-11-07 12:31:20.002661231
2025-11-07 12:31:19.044862,-1,2025-11-07 12:31:20.010353538
2025-11-07 12:31:19.044862,-83,2025-11-07 12:31:20.018045846
2025-11-07 12:31:19.044862,-19713,2025-11-07 12:31:20.025738154
2025-11-07 12:31:19.044862,-1,2025-11-07 12:31:20.033430462
2025-11-07 12:31:19.044862,-88,2025-11-07 12:31:20.041122769
2025-11-07 12:31:19.044862,-22273,2025-11-07 12:31:20.048815077
2025-11-07 12:31:19.044862,-1,2025-11-07 12:31:20.056507385
2025-11-07 12:31:19.044862,-76,2025-11-07 12:31:20.064199692
2025-11-07 12:31:19.044862,-19713,2025-11-07 12:31:20.071892000
2025-11-07 12:31:19.044862,-1,2025-11-07 12:31:20.079584308
2025-11-07 12:31:19.044862,-90,2025-11-07 12:31:20.087276615
2025-11-07 12:31:19.044862,-22273,2025-11-07 12:31:20.094968923
2025-11-07 12:31:19.044862,-1,2025-11-07 12:31:20.102661231
2025-11-07 12:31:19.044862,-85,2025-11-07 12:31:20.110353538
2025-11-07 12:31:19.044862,-20993,2025-11-07 12:31:20.118045846
2025-11-07 12:31:19.044862,-1,2025-11-07 12:31:20.125738154
2025-11-07 12:31:19.044862,-81,2025-11-07 12:31:20.133430462
2025-11-07 12:31:19.044862,-21505,2025-11-07 12:31:20.141122769
2025-11-07 12:31:19.044862,-1,2025-11-07 12:31:20.148815077
2025-11-07 12:31:19.044862,-85,2025-11-07 12:31:20.156507385
2025-11-07 12:31:19.044862,-19713,2025-11-07 12:31:20.164199692
2025-11-07 12:31:19.044862,-1,2025-11-07 12:31:20.171892000
2025-11-07 12:31:19.044862,-81,2025-11-07 12:31:20.179584308
2025-11-07 12:31:19.044862,-20481,2025-11-07 12:31:20.187276615
2025-11-07 12:31:19.044862,-1,2025-11-07 12:31:20.194968923
2025-11-07 12:31:19.044862,-74,2025-11-07 12:31:20.202661231
2025-11-07 12:31:19.044862,-15617,2025-11-07 12:31:20.210353538
2025-11-07 12:31:19.044862,-1,2025-11-07 12:31:20.218045846
2025-11-07 12:31:19.044862,-57,2025-11-07 12:31:20.225738154
2025-11-07 12:31:19.044862,-12545,2025-11-07 12:31:20.233430462
2025-11-07 12:31:19.044862,-1,2025-11-07 12:31:20.241122769
2025-11-07 12:31:19.044862,-33,2025-11-07 12:31:20.248815077
2025-11-07 12:31:19.044862,-3841,2025-11-07 12:31:20.256507385
2025-11-07 12:31:19.044862,-1,2025-11-07 12:31:20.264199692
2025-11-07 12:31:19.044862,-9,2025-11-07 12:31:20.271892000
2025-11-07 12:31:19.044862,-257,2025-11-07 12:31:20.279584308
2025-11-07 12:31:19.044862,-1,2025-11-07 12:31:20.287276615
2025-11-07 12:31:19.044862,7,2025-11-07 12:31:20.294968923
2025-11-07 12:31:19.044862,4864,2025-11-07 12:31:20.302661231
2025-11-07 12:31:19.044862,0,2025-11-07 12:31:20.310353538
2025-11-07 12:31:19.044862,23,2025-11-07 12:31:20.318045846
2025-11-07 12:31:19.044862,6656,2025-11-07 12:31:20.325738154
2025-11-07 12:31:19.044862,0,2025-11-07 12:31:20.333430462
2025-11-07 12:31:19.044862,28,2025-11-07 12:31:20.341122769
2025-11-07 12:31:19.044862,6656,2025-11-07 12:31:20.348815077
2025-11-07 12:31:19.044862,0,2025-11-07 12:31:20.356507385
2025-11-07 12:31:19.044862,28,2025-11-07 12:31:20.364199692
2025-11-07 12:31:19.044862,7168,2025-11-07 12:31:20.371892000
2025-11-07 12:31:19.044862,0,2025-11-07 12:31:20.379584308
2025-11-07 12:31:19.044862,21,2025-11-07 12:31:20.387276615
2025-11-07 12:31:19.044862,5888,2025-11-07 12:31:20.394968923
2025-11-07 12:31:19.044862,0,2025-11-07 12:31:20.402661231
2025-11-07 12:31:19.044862,31,2025-11-07 12:31:20.410353538
2025-11-07 12:31:19.044862,8448,2025-11-07 12:31:20.418045846
2025-11-07 12:31:19.044862,0,2025-11-07 12:31:20.425738154
2025-11-07 12:31:19.044862,23,2025-11-07 12:31:20.433430462
2025-11-07 12:31:19.044862,1792,2025-11-07 12:31:20.441122769
2025-11-07 12:31:19.044862,0,2025-11-07 12:31:20.448815077
2025-11-07 12:31:19.044862,7,2025-11-07 12:31:20.456507385
2025-11-07 12:31:19.044862,4096,2025-11-07 12:31:20.464199692
2025-11-07 12:31:19.044862,0,2025-11-07 12:31:20.471892000
2025-11-07 12:31:19.044862,16,2025-11-07 12:31:20.479584308
2025-11-07 12:31:19.631823,16,2025-11-07 12:31:20.487276615
2025-11-07 12:31:19.631823,4096,2025-11-07 12:31:20.494968923
2025-11-07 12:31:19.631823,0,2025-11-07 12:31:20.502661230
2025-11-07 12:31:19.631823,23,2025-11-07 12:31:20.510353538
2025-11-07 12:31:19.631823,7168,2025-11-07 12:31:20.518045846
2025-11-07 12:31:19.631823,0,2025-11-07 12:31:20.525738154
2025-11-07 12:31:19.631823,33,2025-11-07 12:31:20.533430462
2025-11-07 12:31:19.631823,10752,2025-11-07 12:31:20.541122769
2025-11-07 12:31:19.631823,0,2025-11-07 12:31:20.548815077
2025-11-07 12:31:19.631823,50,2025-11-07 12:31:20.556507385
2025-11-07 12:31:19.631823,11520,2025-11-07 12:31:20.564199692
2025-11-07 12:31:19.631823,0,2025-11-07 12:31:20.571892000
2025-11-07 12:31:19.631823,38,2025-11-07 12:31:20.579584308
2025-11-07 12:31:19.631823,8960,2025-11-07 12:31:20.587276615
2025-11-07 12:31:19.631823,0,2025-11-07 12:31:20.594968923
2025-11-07 12:31:19.631823,42,2025-11-07 12:31:20.602661231
2025-11-07 12:31:19.631823,11520,2025-11-07 12:31:20.610353538
2025-11-07 12:31:19.631823,0,2025-11-07 12:31:20.618045846
2025-11-07 12:31:19.631823,40,2025-11-07 12:31:20.625738154
2025-11-07 12:31:19.631823,10240,2025-11-07 12:31:20.633430462
2025-11-07 12:31:19.631823,0,2025-11-07 12:31:20.641122769
2025-11-07 12:31:19.631823,38,2025-11-07 12:31:20.648815077
2025-11-07 12:31:19.631823,9728,2025-11-07 12:31:20.656507385
2025-11-07 12:31:19.631823,0,2025-11-07 12:31:20.664199692
2025-11-07 12:31:19.631823,38,2025-11-07 12:31:20.671892000
2025-11-07 12:31:19.631823,9728,2025-11-07 12:31:20.679584308
2025-11-07 12:31:19.631823,0,2025-11-07 12:31:20.687276615
2025-11-07 12:31:19.631823,33,2025-11-07 12:31:20.694968923
2025-11-07 12:31:19.631823,8960,2025-11-07 12:31:20.702661231
2025-11-07 12:31:19.631823,0,2025-11-07 12:31:20.710353538
2025-11-07 12:31:19.631823,38,2025-11-07 12:31:20.718045846
2025-11-07 12:31:19.631823,8448,2025-11-07 12:31:20.725738154
2025-11-07 12:31:19.631823,0,2025-11-07 12:31:20.733430462
2025-11-07 12:31:19.631823,31,2025-11-07 12:31:20.741122769
2025-11-07 12:31:19.631823,10752,2025-11-07 12:31:20.748815077
2025-11-07 12:31:19.631823,0,2025-11-07 12:31:20.756507385
2025-11-07 12:31:19.631823,42,2025-11-07 12:31:20.764199692
2025-11-07 12:31:19.631823,8960,2025-11-07 12:31:20.771892000
2025-11-07 12:31:19.631823,0,2025-11-07 12:31:20.779584308
2025-11-07 12:31:19.631823,40,2025-11-07 12:31:20.787276615
2025-11-07 12:31:19.631823,10752,2025-11-07 12:31:20.794968923
2025-11-07 12:31:19.631823,0,2025-11-07 12:31:20.802661231
2025-11-07 12:31:19.631823,35,2025-11-07 12:31:20.810353538
2025-11-07 12:31:19.631823,6656,2025-11-07 12:31:20.818045846
2025-11-07 12:31:19.631823,0,2025-11-07 12:31:20.825738154
2025-11-07 12:31:19.631823,14,2025-11-07 12:31:20.833430462
2025-11-07 12:31:19.631823,2304,2025-11-07 12:31:20.841122769
2025-11-07 12:31:19.631823,0,2025-11-07 12:31:20.848815077
2025-11-07 12:31:19.631823,11,2025-11-07 12:31:20.856507385
2025-11-07 12:31:19.631823,5888,2025-11-07 12:31:20.864199692
2025-11-07 12:31:19.631823,0,2025-11-07 12:31:20.871892000
2025-11-07 12:31:19.631823,47,2025-11-07 12:31:20.879584308
2025-11-07 12:31:19.631823,15104,2025-11-07 12:31:20.887276615
2025-11-07 12:31:19.631823,0,2025-11-07 12:31:20.894968923
2025-11-07 12:31:19.631823,54,2025-11-07 12:31:20.902661231
2025-11-07 12:31:19.631823,12032,2025-11-07 12:31:20.910353538
2025-11-07 12:31:19.631823,0,2025-11-07 12:31:20.918045846
2025-11-07 12:31:19.631823,45,2025-11-07 12:31:20.925738154
2025-11-07 12:31:19.631823,9728,2025-11-07 12:31:20.933430462
2025-11-07 12:31:19.631823,0,2025-11-07 12:31:20.941122769
2025-11-07 12:31:19.631823,26,2025-11-07 12:31:20.948815077
2025-11-07 12:31:19.631823,7936,2025-11-07 12:31:20.956507385
2025-11-07 12:31:19.631823,0,2025-11-07 12:31:20.964199692
2025-11-07 12:31:19.631823,33,2025-11-07 12:31:20.971892000
2025-11-07 12:31:19.631823,7168,2025-11-07 12:31:20.979584308
2025-11-07 12:31:19.631823,0,2025-11-07 12:31:20.987276615
2025-11-07 12:31:19.631823,26,2025-11-07 12:31:20.994968923
2025-11-07 12:31:19.631823,7168,2025-11-07 12:31:21.002661231
2025-11-07 12:31:19.631823,0,2025-11-07 12:31:21.010353538
2025-11-07 12:31:19.631823,26,2025-11-07 12:31:21.018045846
2025-11-07 12:31:19.631823,7168,2025-11-07 12:31:21.025738154
2025-11-07 12:31:19.631823,0,2025-11-07 12:31:21.033430462
2025-11-07 12:31:19.631823,31,2025-11-07 12:31:21.041122769
2025-11-07 12:31:19.631823,7168,2025-11-07 12:31:21.048815077
2025-11-07 12:31:19.631823,0,2025-11-07 12:31:21.056507385
2025-11-07 12:31:19.631823,26,2025-11-07 12:31:21.064199692
2025-11-07 12:31:19.631823,4096,2025-11-07 12:31:21.071892000
2025-11-07 12:31:19.631823,0,2025-11-07 12:31:21.079584308
2025-11-07 12:31:19.631823,-16,2025-11-07 12:31:21.087276615
2025-11-07 12:31:19.631823,12287,2025-11-07 12:31:21.094968923
2025-11-07 12:31:19.631823,0,2025-11-07 12:31:21.102661231
2025-11-07 12:31:19.631823,501,2025-11-07 12:31:21.110353538
2025-11-07 12:31:19.631823,21504,2025-11-07 12:31:21.118045846
2025-11-07 12:31:19.631823,4,2025-11-07 12:31:21.125738154
2025-11-07 12:31:19.631823,1041,2025-11-07 12:31:21.133430462
2025-11-07 12:31:19.631823,25344,2025-11-07 12:31:21.141122769
2025-11-07 12:31:19.631823,1,2025-11-07 12:31:21.148815077
2025-11-07 12:31:19.631823,-23,2025-11-07 12:31:21.156507385
2025-11-07 12:31:19.631823,5119,2025-11-07 12:31:21.164199692
2025-11-07 12:31:19.631823,0,2025-11-07 12:31:21.171892000
2025-11-07 12:31:19.631823,-16,2025-11-07 12:31:21.179584308
2025-11-07 12:31:19.631823,26879,2025-11-07 12:31:21.187276615
2025-11-07 12:31:19.631823,-1,2025-11-07 12:31:21.194968923
2025-11-07 12:31:19.631823,-164,2025-11-07 12:31:21.202661231
2025-11-07 12:31:19.631823,-31489,2025-11-07 12:31:21.210353538
2025-11-07 12:31:19.631823,-1,2025-11-07 12:31:21.218045846
2025-11-07 12:31:19.631823,-136,2025-11-07 12:31:21.225738154
2025-11-07 12:31:19.631823,30463,2025-11-07 12:31:21.233430462
2025-11-07 12:31:19.631823,-1,2025-11-07 12:31:21.241122769
2025-11-07 12:31:19.631823,-121,2025-11-07 12:31:21.248815077
2025-11-07 12:31:19.631823,-30209,2025-11-07 12:31:21.256507385
2025-11-07 12:31:19.631823,-1,2025-11-07 12:31:21.264199692
2025-11-07 12:31:19.631823,-121,2025-11-07 12:31:21.271892000
2025-11-07 12:31:19.631823,-29697,2025-11-07 12:31:21.279584308
2025-11-07 12:31:19.631823,-1,2025-11-07 12:31:21.287276615
2025-11-07 12:31:19.631823,-117,2025-11-07 12:31:21.294968923
2025-11-07 12:31:19.631823,-30721,2025-11-07 12:31:21.302661231
2025-11-07 12:31:19.631823,-1,2025-11-07 12:31:21.310353538
2025-11-07 12:31:19.631823,-117,2025-11-07 12:31:21.318045846
2025-11-07 12:31:20.169642,-117,2025-11-07 12:31:21.325738154
2025-11-07 12:31:20.169642,-32001,2025-11-07 12:31:21.333430462
2025-11-07 12:31:20.169642,-1,2025-11-07 12:31:21.341122769
2025-11-07 12:31:20.169642,-126,2025-11-07 12:31:21.348815077
2025-11-07 12:31:20.169642,-29697,2025-11-07 12:31:21.356507385
2025-11-07 12:31:20.169642,-1,2025-11-07 12:31:21.364199692
2025-11-07 12:31:20.169642,-119,2025-11-07 12:31:21.371892000
2025-11-07 12:31:20.169642,-32001,2025-11-07 12:31:21.379584308
2025-11-07 12:31:20.169642,-1,2025-11-07 12:31:21.387276615
2025-11-07 12:31:20.169642,-124,2025-11-07 12:31:21.394968923
2025-11-07 12:31:20.169642,-29697,2025-11-07 12:31:21.402661231
2025-11-07 12:31:20.169642,-1,2025-11-07 12:31:21.410353538
2025-11-07 12:31:20.169642,-102,2025-11-07 12:31:21.418045846
2025-11-07 12:31:20.169642,-20993,2025-11-07 12:31:21.425738154
2025-11-07 12:31:20.169642,-1,2025-11-07 12:31:21.433430462
2025-11-07 12:31:20.169642,-74,2025-11-07 12:31:21.441122769
2025-11-07 12:31:20.169642,-16129,2025-11-07 12:31:21.448815077
2025-11-07 12:31:20.169642,-1,2025-11-07 12:31:21.456507385
2025-11-07 12:31:20.169642,-38,2025-11-07 12:31:21.464199692
2025-11-07 12:31:20.169642,-2561,2025-11-07 12:31:21.471892000
2025-11-07 12:31:20.169642,-1,2025-11-07 12:31:21.479584308
2025-11-07 12:31:20.169642,-4,2025-11-07 12:31:21.487276615
2025-11-07 12:31:20.169642,1279,2025-11-07 12:31:21.494968923
2025-11-07 12:31:20.169642,0,2025-11-07 12:31:21.502661230
2025-11-07 12:31:20.169642,19,2025-11-07 12:31:21.510353538
2025-11-07 12:31:20.169642,7168,2025-11-07 12:31:21.518045846
2025-11-07 12:31:20.169642,0,2025-11-07 12:31:21.525738154
2025-11-07 12:31:20.169642,33,2025-11-07 12:31:21.533430462
2025-11-07 12:31:20.169642,8448,2025-11-07 12:31:21.541122769
2025-11-07 12:31:20.169642,0,2025-11-07 12:31:21.548815077
2025-11-07 12:31:20.169642,35,2025-11-07 12:31:21.556507385
2025-11-07 12:31:20.169642,10240,2025-11-07 12:31:21.564199692
2025-11-07 12:31:20.169642,0,2025-11-07 12:31:21.571892000
2025-11-07 12:31:20.169642,35,2025-11-07 12:31:21.579584308
2025-11-07 12:31:20.169642,7936,2025-11-07 12:31:21.587276615
2025-11-07 12:31:20.169642,0,2025-11-07 12:31:21.594968923
2025-11-07 12:31:20.169642,38,2025-11-07 12:31:21.602661231
2025-11-07 12:31:20.169642,9728,2025-11-07 12:31:21.610353538
2025-11-07 12:31:20.169642,0,2025-11-07 12:31:21.618045846
2025-11-07 12:31:20.169642,28,2025-11-07 12:31:21.625738154
2025-11-07 12:31:20.169642,7168,2025-11-07 12:31:21.633430462
2025-11-07 12:31:20.169642,0,2025-11-07 12:31:21.641122769
2025-11-07 12:31:20.169642,35,2025-11-07 12:31:21.648815077
2025-11-07 12:31:20.169642,5888,2025-11-07 12:31:21.656507385
2025-11-07 12:31:20.169642,0,2025-11-07 12:31:21.664199692
2025-11-07 12:31:20.169642,14,2025-11-07 12:31:21.671892000
2025-11-07 12:31:20.169642,5888,2025-11-07 12:31:21.679584308
2025-11-07 12:31:20.169642,0,2025-11-07 12:31:21.687276615
2025-11-07 12:31:20.169642,23,2025-11-07 12:31:21.694968923
2025-11-07 12:31:20.169642,5376,2025-11-07 12:31:21.702661231
2025-11-07 12:31:20.169642,0,2025-11-07 12:31:21.710353538
2025-11-07 12:31:20.169642,21,2025-11-07 12:31:21.718045846
2025-11-07 12:31:20.169642,4864,2025-11-07 12:31:21.725738154
2025-11-07 12:31:20.169642,0,2025-11-07 12:31:21.733430462
2025-11-07 12:31:20.169642,14,2025-11-07 12:31:21.741122769
2025-11-07 12:31:20.169642,4864,2025-11-07 12:31:21.748815077
2025-11-07 12:31:20.169642,0,2025-11-07 12:31:21.756507385
2025-11-07 12:31:20.169642,23,2025-11-07 12:31:21.764199692
2025-11-07 12:31:20.169642,7936,2025-11-07 12:31:21.771892000
2025-11-07 12:31:20.169642,0,2025-11-07 12:31:21.779584308
2025-11-07 12:31:20.169642,28,2025-11-07 12:31:21.787276615
2025-11-07 12:31:20.169642,7936,2025-11-07 12:31:21.794968923
2025-11-07 12:31:20.169642,0,2025-11-07 12:31:21.802661231
2025-11-07 12:31:20.169642,35,2025-11-07 12:31:21.810353538
2025-11-07 12:31:20.169642,7936,2025-11-07 12:31:21.818045846
2025-11-07 12:31:20.169642,0,2025-11-07 12:31:21.825738154
2025-11-07 12:31:20.169642,31,2025-11-07 12:31:21.833430462
2025-11-07 12:31:20.169642,8960,2025-11-07 12:31:21.841122769
2025-11-07 12:31:20.169642,0,2025-11-07 12:31:21.848815077
2025-11-07 12:31:20.169642,38,2025-11-07 12:31:21.856507385
2025-11-07 12:31:20.169642,8448,2025-11-07 12:31:21.864199692
2025-11-07 12:31:20.169642,0,2025-11-07 12:31:21.871892000
2025-11-07 12:31:20.169642,28,2025-11-07 12:31:21.879584308
2025-11-07 12:31:20.169642,7168,2025-11-07 12:31:21.887276615
2025-11-07 12:31:20.169642,0,2025-11-07 12:31:21.894968923
2025-11-07 12:31:20.169642,28,2025-11-07 12:31:21.902661231
2025-11-07 12:31:20.169642,5888,2025-11-07 12:31:21.910353538
2025-11-07 12:31:20.169642,0,2025-11-07 12:31:21.918045846
2025-11-07 12:31:20.169642,23,2025-11-07 12:31:21.925738154
2025-11-07 12:31:20.169642,8448,2025-11-07 12:31:21.933430462
2025-11-07 12:31:20.169642,0,2025-11-07 12:31:21.941122769
2025-11-07 12:31:20.169642,38,2025-11-07 12:31:21.948815077
2025-11-07 12:31:20.169642,7168,2025-11-07 12:31:21.956507385
2025-11-07 12:31:20.169642,0,2025-11-07 12:31:21.964199692
2025-11-07 12:31:20.169642,16,2025-11-07 12:31:21.971892000
2025-11-07 12:31:20.169642,3584,2025-11-07 12:31:21.979584308
2025-11-07 12:31:20.169642,0,2025-11-07 12:31:21.987276615
2025-11-07 12:31:20.169642,9,2025-11-07 12:31:21.994968923
2025-11-07 12:31:20.169642,512,2025-11-07 12:31:22.002661231
2025-11-07 12:31:20.169642,0,2025-11-07 12:31:22.010353538
2025-11-07 12:31:20.169642,9,2025-11-07 12:31:22.018045846
2025-11-07 12:31:20.169642,7168,2025-11-07 12:31:22.025738154
2025-11-07 12:31:20.169642,0,2025-11-07 12:31:22.033430462
2025-11-07 12:31:20.169642,47,2025-11-07 12:31:22.041122769
2025-11-07 12:31:20.169642,12800,2025-11-07 12:31:22.048815077
2025-11-07 12:31:20.169642,0,2025-11-07 12:31:22.056507385
2025-11-07 12:31:20.169642,50,2025-11-07 12:31:22.064199692
2025-11-07 12:31:20.169642,13312,2025-11-07 12:31:22.071892000
2025-11-07 12:31:20.169642,0,2025-11-07 12:31:22.079584308
2025-11-07 12:31:20.169642,42,2025-11-07 12:31:22.087276615
2025-11-07 12:31:20.169642,8960,2025-11-07 12:31:22.094968923
2025-11-07 12:31:20.169642,0,2025-11-07 12:31:22.102661231
2025-11-07 12:31:20.169642,31,2025-11-07 12:31:22.110353538
2025-11-07 12:31:20.169642,7168,2025-11-07 12:31:22.118045846
2025-11-07 12:31:20.169642,0,2025-11-07 12:31:22.125738154
2025-11-07 12:31:20.169642,31,2025-11-07 12:31:22.133430462
2025-11-07 12:31:20.169642,7936,2025-11-07 12:31:22.141122769
2025-11-07 12:31:20.169642,0,2025-11-07 12:31:22.148815077
2025-11-07 12:31:20.169642,33,2025-11-07 12:31:22.156507385
2025-11-07 12:31:20.753459,35,2025-11-07 12:31:22.164199692
2025-11-07 12:31:20.753459,5888,2025-11-07 12:31:22.171892000
2025-11-07 12:31:20.753459,0,2025-11-07 12:31:22.179584308
2025-11-07 12:31:20.753459,21,2025-11-07 12:31:22.187276615
2025-11-07 12:31:20.753459,6656,2025-11-07 12:31:22.194968923
2025-11-07 12:31:20.753459,0,2025-11-07 12:31:22.202661231
2025-11-07 12:31:20.753459,28,2025-11-07 12:31:22.210353538
2025-11-07 12:31:20.753459,8448,2025-11-07 12:31:22.218045846
2025-11-07 12:31:20.753459,0,2025-11-07 12:31:22.225738154
2025-11-07 12:31:20.753459,21,2025-11-07 12:31:22.233430462
2025-11-07 12:31:20.753459,512,2025-11-07 12:31:22.241122769
2025-11-07 12:31:20.753459,0,2025-11-07 12:31:22.248815077
2025-11-07 12:31:20.753459,200,2025-11-07 12:31:22.256507385
2025-11-07 12:31:20.753459,13056,2025-11-07 12:31:22.264199692
2025-11-07 12:31:20.753459,3,2025-11-07 12:31:22.271892000
2025-11-07 12:31:20.753459,1242,2025-11-07 12:31:22.279584308
2025-11-07 12:31:20.753459,7424,2025-11-07 12:31:22.287276615
2025-11-07 12:31:20.753459,3,2025-11-07 12:31:22.294968923
2025-11-07 12:31:20.753459,119,2025-11-07 12:31:22.302661231
2025-11-07 12:31:20.753459,-6656,2025-11-07 12:31:22.310353538
2025-11-07 12:31:20.753459,-1,2025-11-07 12:31:22.318045846
2025-11-07 12:31:20.753459,45,2025-11-07 12:31:22.325738154
2025-11-07 12:31:20.753459,-15104,2025-11-07 12:31:22.333430462
2025-11-07 12:31:20.753459,-1,2025-11-07 12:31:22.341122769
2025-11-07 12:31:20.753459,-157,2025-11-07 12:31:22.348815077
2025-11-07 12:31:20.753459,-32001,2025-11-07 12:31:22.356507385
2025-11-07 12:31:20.753459,-1,2025-11-07 12:31:22.364199692
2025-11-07 12:31:20.753459,-100,2025-11-07 12:31:22.371892000
2025-11-07 12:31:20.753459,-30721,2025-11-07 12:31:22.379584308
2025-11-07 12:31:20.753459,-1,2025-11-07 12:31:22.387276615
2025-11-07 12:31:20.753459,-124,2025-11-07 12:31:22.394968923
2025-11-07 12:31:20.753459,-28417,2025-11-07 12:31:22.402661231
2025-11-07 12:31:20.753459,-1,2025-11-07 12:31:22.410353538
2025-11-07 12:31:20.753459,-112,2025-11-07 12:31:22.418045846
2025-11-07 12:31:20.753459,-28417,2025-11-07 12:31:22.425738154
2025-11-07 12:31:20.753459,-1,2025-11-07 12:31:22.433430462
2025-11-07 12:31:20.753459,-112,2025-11-07 12:31:22.441122769
2025-11-07 12:31:20.753459,-28417,2025-11-07 12:31:22.448815077
2025-11-07 12:31:20.753459,-1,2025-11-07 12:31:22.456507385
2025-11-07 12:31:20.753459,-109,2025-11-07 12:31:22.464199692
2025-11-07 12:31:20.753459,-27649,2025-11-07 12:31:22.471892000
2025-11-07 12:31:20.753459,-1,2025-11-07 12:31:22.479584308
2025-11-07 12:31:20.753459,-112,2025-11-07 12:31:22.487276615
2025-11-07 12:31:20.753459,-28929,2025-11-07 12:31:22.494968923
2025-11-07 12:31:20.753459,-1,2025-11-07 12:31:22.502661230
2025-11-07 12:31:20.753459,-112,2025-11-07 12:31:22.510353538
2025-11-07 12:31:20.753459,-28417,2025-11-07 12:31:22.518045846
2025-11-07 12:31:20.753459,-1,2025-11-07 12:31:22.525738154
2025-11-07 12:31:20.753459,-121,2025-11-07 12:31:22.533430462
2025-11-07 12:31:20.753459,-30721,2025-11-07 12:31:22.541122769
2025-11-07 12:31:20.753459,-1,2025-11-07 12:31:22.548815077
2025-11-07 12:31:20.753459,-107,2025-11-07 12:31:22.556507385
2025-11-07 12:31:20.753459,-24577,2025-11-07 12:31:22.564199692
2025-11-07 12:31:20.753459,-1,2025-11-07 12:31:22.571892000
2025-11-07 12:31:20.753459,-90,2025-11-07 12:31:22.579584308
2025-11-07 12:31:20.753459,-21505,2025-11-07 12:31:22.587276615
2025-11-07 12:31:20.753459,-1,2025-11-07 12:31:22.594968923
2025-11-07 12:31:20.753459,-74,2025-11-07 12:31:22.602661231
2025-11-07 12:31:20.753459,-14337,2025-11-07 12:31:22.610353538
2025-11-07 12:31:20.753459,-1,2025-11-07 12:31:22.618045846
2025-11-07 12:31:20.753459,-42,2025-11-07 12:31:22.625738154
2025-11-07 12:31:20.753459,-6401,2025-11-07 12:31:22.633430462
2025-11-07 12:31:20.753459,-1,2025-11-07 12:31:22.641122769
2025-11-07 12:31:20.753459,-14,2025-11-07 12:31:22.648815077
2025-11-07 12:31:20.753459,-2561,2025-11-07 12:31:22.656507385
2025-11-07 12:31:20.753459,-1,2025-11-07 12:31:22.664199692
2025-11-07 12:31:20.753459,2,2025-11-07 12:31:22.671892000
2025-11-07 12:31:20.753459,2816,2025-11-07 12:31:22.679584308
2025-11-07 12:31:20.753459,0,2025-11-07 12:31:22.687276615
2025-11-07 12:31:20.753459,11,2025-11-07 12:31:22.694968923
2025-11-07 12:31:20.753459,2816,2025-11-07 12:31:22.702661231
2025-11-07 12:31:20.753459,0,2025-11-07 12:31:22.710353538
2025-11-07 12:31:20.753459,14,2025-11-07 12:31:22.718045846
2025-11-07 12:31:20.753459,3584,2025-11-07 12:31:22.725738154
2025-11-07 12:31:20.753459,0,2025-11-07 12:31:22.733430462
2025-11-07 12:31:20.753459,11,2025-11-07 12:31:22.741122769
2025-11-07 12:31:20.753459,2816,2025-11-07 12:31:22.748815077
2025-11-07 12:31:20.753459,0,2025-11-07 12:31:22.756507385
2025-11-07 12:31:20.753459,14,2025-11-07 12:31:22.764199692
2025-11-07 12:31:20.753459,3584,2025-11-07 12:31:22.771892000
2025-11-07 12:31:20.753459,0,2025-11-07 12:31:22.779584308
2025-11-07 12:31:20.753459,9,2025-11-07 12:31:22.787276615
2025-11-07 12:31:20.753459,1792,2025-11-07 12:31:22.794968923
2025-11-07 12:31:20.753459,0,2025-11-07 12:31:22.802661231
2025-11-07 12:31:20.753459,9,2025-11-07 12:31:22.810353538
2025-11-07 12:31:20.753459,2304,2025-11-07 12:31:22.818045846
2025-11-07 12:31:20.753459,0,2025-11-07 12:31:22.825738154
2025-11-07 12:31:20.753459,0,2025-11-07 12:31:22.833430462
2025-11-07 12:31:20.753459,512,2025-11-07 12:31:22.841122769
2025-11-07 12:31:20.753459,0,2025-11-07 12:31:22.848815077
2025-11-07 12:31:20.753459,9,2025-11-07 12:31:22.856507385
2025-11-07 12:31:20.753459,1792,2025-11-07 12:31:22.864199692
2025-11-07 12:31:20.753459,0,2025-11-07 12:31:22.871892000
2025-11-07 12:31:20.753459,11,2025-11-07 12:31:22.879584308
2025-11-07 12:31:20.753459,4864,2025-11-07 12:31:22.887276615
2025-11-07 12:31:20.753459,0,2025-11-07 12:31:22.894968923
2025-11-07 12:31:20.753459,16,2025-11-07 12:31:22.902661231
2025-11-07 12:31:20.753459,3584,2025-11-07 12:31:22.910353538
2025-11-07 12:31:20.753459,0,2025-11-07 12:31:22.918045846
2025-11-07 12:31:20.753459,16,2025-11-07 12:31:22.925738154
2025-11-07 12:31:20.753459,5376,2025-11-07 12:31:22.933430462
2025-11-07 12:31:20.753459,0,2025-11-07 12:31:22.941122769
2025-11-07 12:31:20.753459,19,2025-11-07 12:31:22.948815077
2025-11-07 12:31:20.753459,5376,2025-11-07 12:31:22.956507385
2025-11-07 12:31:20.753459,0,2025-11-07 12:31:22.964199692
2025-11-07 12:31:20.753459,26,2025-11-07 12:31:22.971892000
2025-11-07 12:31:20.753459,5888,2025-11-07 12:31:22.979584308
2025-11-07 12:31:20.753459,0,2025-11-07 12:31:22.987276615
2025-11-07 12:31:20.753459,21,2025-11-07 12:31:22.994968923
2025-11-07 12:31:21.340061,26,2025-11-07 12:31:23.002661231
2025-11-07 12:31:21.340061,5888,2025-11-07 12:31:23.010353538
2025-11-07 12:31:21.340061,0,2025-11-07 12:31:23.018045846
2025-11-07 12:31:21.340061,26,2025-11-07 12:31:23.025738154
2025-11-07 12:31:21.340061,7936,2025-11-07 12:31:23.033430462
2025-11-07 12:31:21.340061,0,2025-11-07 12:31:23.041122769
2025-11-07 12:31:21.340061,28,2025-11-07 12:31:23.048815077
2025-11-07 12:31:21.340061,6656,2025-11-07 12:31:23.056507385
2025-11-07 12:31:21.340061,0,2025-11-07 12:31:23.064199692
2025-11-07 12:31:21.340061,28,2025-11-07 12:31:23.071892000
2025-11-07 12:31:21.340061,8960,2025-11-07 12:31:23.079584308
2025-11-07 12:31:21.340061,0,2025-11-07 12:31:23.087276615
2025-11-07 12:31:21.340061,38,2025-11-07 12:31:23.094968923
2025-11-07 12:31:21.340061,12032,2025-11-07 12:31:23.102661231
2025-11-07 12:31:21.340061,0,2025-11-07 12:31:23.110353538
2025-11-07 12:31:21.340061,64,2025-11-07 12:31:23.118045846
2025-11-07 12:31:21.340061,14592,2025-11-07 12:31:23.125738154
2025-11-07 12:31:21.340061,0,2025-11-07 12:31:23.133430462
2025-11-07 12:31:21.340061,45,2025-11-07 12:31:23.141122769
2025-11-07 12:31:21.340061,11520,2025-11-07 12:31:23.148815077
2025-11-07 12:31:21.340061,0,2025-11-07 12:31:23.156507385
2025-11-07 12:31:21.340061,31,2025-11-07 12:31:23.164199692
2025-11-07 12:31:21.340061,5376,2025-11-07 12:31:23.171892000
2025-11-07 12:31:21.340061,0,2025-11-07 12:31:23.179584308
2025-11-07 12:31:21.340061,28,2025-11-07 12:31:23.187276615
2025-11-07 12:31:21.340061,10240,2025-11-07 12:31:23.194968923
2025-11-07 12:31:21.340061,0,2025-11-07 12:31:23.202661231
2025-11-07 12:31:21.340061,50,2025-11-07 12:31:23.210353538
2025-11-07 12:31:21.340061,15104,2025-11-07 12:31:23.218045846
2025-11-07 12:31:21.340061,0,2025-11-07 12:31:23.225738154
2025-11-07 12:31:21.340061,64,2025-11-07 12:31:23.233430462
2025-11-07 12:31:21.340061,15872,2025-11-07 12:31:23.241122769
2025-11-07 12:31:21.340061,0,2025-11-07 12:31:23.248815077
2025-11-07 12:31:21.340061,57,2025-11-07 12:31:23.256507385
2025-11-07 12:31:21.340061,13824,2025-11-07 12:31:23.264199692
2025-11-07 12:31:21.340061,0,2025-11-07 12:31:23.271892000
2025-11-07 12:31:21.340061,38,2025-11-07 12:31:23.279584308
2025-11-07 12:31:21.340061,7168,2025-11-07 12:31:23.287276615
2025-11-07 12:31:21.340061,0,2025-11-07 12:31:23.294968923
2025-11-07 12:31:21.340061,40,2025-11-07 12:31:23.302661231
2025-11-07 12:31:21.340061,12032,2025-11-07 12:31:23.310353538
2025-11-07 12:31:21.340061,0,2025-11-07 12:31:23.318045846
2025-11-07 12:31:21.340061,40,2025-11-07 12:31:23.325738154
2025-11-07 12:31:21.340061,9728,2025-11-07 12:31:23.333430462
2025-11-07 12:31:21.340061,0,2025-11-07 12:31:23.341122769
2025-11-07 12:31:21.340061,33,2025-11-07 12:31:23.348815077
2025-11-07 12:31:21.340061,6656,2025-11-07 12:31:23.356507385
2025-11-07 12:31:21.340061,0,2025-11-07 12:31:23.364199692
2025-11-07 12:31:21.340061,28,2025-11-07 12:31:23.371892000
2025-11-07 12:31:21.340061,8960,2025-11-07 12:31:23.379584308
2025-11-07 12:31:21.340061,0,2025-11-07 12:31:23.387276615
2025-11-07 12:31:21.340061,33,2025-11-07 12:31:23.394968923
2025-11-07 12:31:21.340061,2816,2025-11-07 12:31:23.402661231
2025-11-07 12:31:21.340061,0,2025-11-07 12:31:23.410353538
2025-11-07 12:31:21.340061,-21,2025-11-07 12:31:23.418045846
2025-11-07 12:31:21.340061,13567,2025-11-07 12:31:23.425738154
2025-11-07 12:31:21.340061,0,2025-11-07 12:31:23.433430462
2025-11-07 12:31:21.340061,537,2025-11-07 12:31:23.441122769
2025-11-07 12:31:21.340061,-23808,2025-11-07 12:31:23.448815077
2025-11-07 12:31:21.340061,4,2025-11-07 12:31:23.456507385
2025-11-07 12:31:21.340061,1105,2025-11-07 12:31:23.464199692
2025-11-07 12:31:21.340061,26112,2025-11-07 12:31:23.471892000
2025-11-07 12:31:21.340061,1,2025-11-07 12:31:23.479584308
2025-11-07 12:31:21.340061,-54,2025-11-07 12:31:23.487276615
2025-11-07 12:31:21.340061,255,2025-11-07 12:31:23.494968923
2025-11-07 12:31:21.340061,0,2025-11-07 12:31:23.502661230
2025-11-07 12:31:21.340061,-31,2025-11-07 12:31:23.510353538
2025-11-07 12:31:21.340061,23039,2025-11-07 12:31:23.518045846
2025-11-07 12:31:21.340061,-1,2025-11-07 12:31:23.525738154
2025-11-07 12:31:21.340061,-171,2025-11-07 12:31:23.533430462
2025-11-07 12:31:21.340061,-32513,2025-11-07 12:31:23.541122769
2025-11-07 12:31:21.340061,-1,2025-11-07 12:31:23.548815077
2025-11-07 12:31:21.340061,-148,2025-11-07 12:31:23.556507385
2025-11-07 12:31:21.340061,28671,2025-11-07 12:31:23.564199692
2025-11-07 12:31:21.340061,-1,2025-11-07 12:31:23.571892000
2025-11-07 12:31:21.340061,-128,2025-11-07 12:31:23.579584308
2025-11-07 12:31:21.340061,30463,2025-11-07 12:31:23.587276615
2025-11-07 12:31:21.340061,-1,2025-11-07 12:31:23.594968923
2025-11-07 12:31:21.340061,-143,2025-11-07 12:31:23.602661231
2025-11-07 12:31:21.340061,-32513,2025-11-07 12:31:23.610353538
2025-11-07 12:31:21.340061,-1,2025-11-07 12:31:23.618045846
2025-11-07 12:31:21.340061,-121,2025-11-07 12:31:23.625738154
2025-11-07 12:31:21.340061,-32513,2025-11-07 12:31:23.633430462
2025-11-07 12:31:21.340061,-1,2025-11-07 12:31:23.641122769
2025-11-07 12:31:21.340061,-133,2025-11-07 12:31:23.648815077
2025-11-07 12:31:21.340061,32255,2025-11-07 12:31:23.656507385
2025-11-07 12:31:21.340061,-1,2025-11-07 12:31:23.664199692
2025-11-07 12:31:21.340061,-128,2025-11-07 12:31:23.671892000
2025-11-07 12:31:21.340061,-32513,2025-11-07 12:31:23.679584308
2025-11-07 12:31:21.340061,-1,2025-11-07 12:31:23.687276615
2025-11-07 12:31:21.340061,-133,2025-11-07 12:31:23.694968923
2025-11-07 12:31:21.340061,31743,2025-11-07 12:31:23.702661231
2025-11-07 12:31:21.340061,-1,2025-11-07 12:31:23.710353538
2025-11-07 12:31:21.340061,-124,2025-11-07 12:31:23.718045846
2025-11-07 12:31:21.340061,-28929,2025-11-07 12:31:23.725738154
2025-11-07 12:31:21.340061,-1,2025-11-07 12:31:23.733430462
2025-11-07 12:31:21.340061,-117,2025-11-07 12:31:23.741122769
2025-11-07 12:31:21.340061,-28929,2025-11-07 12:31:23.748815077
2025-11-07 12:31:21.340061,-1,2025-11-07 12:31:23.756507385
2025-11-07 12:31:21.340061,-102,2025-11-07 12:31:23.764199692
2025-11-07 12:31:21.340061,-21505,2025-11-07 12:31:23.771892000
2025-11-07 12:31:21.340061,-1,2025-11-07 12:31:23.779584308
2025-11-07 12:31:21.340061,-71,2025-11-07 12:31:23.787276615
2025-11-07 12:31:21.340061,-14337,2025-11-07 12:31:23.794968923
2025-11-07 12:31:21.340061,-1,2025-11-07 12:31:23.802661231
2025-11-07 12:31:21.340061,-26,2025-11-07 12:31:23.810353538
2025-11-07 12:31:21.340061,-2049,2025-11-07 12:31:23.818045846
2025-11-07 12:31:21.340061,-1,2025-11-07 12:31:23.825738154
2025-11-07 12:31:21.340061,-4,2025-11-07 12:31:23.833430462
2025-11-07 12:31:21.879772,4,2025-11-07 12:31:23.841122769
2025-11-07 12:31:21.879772,2816,2025-11-07 12:31:23.848815077
2025-11-07 12:31:21.879772,0,2025-11-07 12:31:23.856507385
2025-11-07 12:31:21.879772,11,2025-11-07 12:31:23.864199692
2025-11-07 12:31:21.879772,3584,2025-11-07 12:31:23.871892000
2025-11-07 12:31:21.879772,0,2025-11-07 12:31:23.879584308
2025-11-07 12:31:21.879772,23,2025-11-07 12:31:23.887276615
2025-11-07 12:31:21.879772,5888,2025-11-07 12:31:23.894968923
2025-11-07 12:31:21.879772,0,2025-11-07 12:31:23.902661231
2025-11-07 12:31:21.879772,16,2025-11-07 12:31:23.910353538
2025-11-07 12:31:21.879772,4096,2025-11-07 12:31:23.918045846
2025-11-07 12:31:21.879772,0,2025-11-07 12:31:23.925738154
2025-11-07 12:31:21.879772,21,2025-11-07 12:31:23.933430462
2025-11-07 12:31:21.879772,5376,2025-11-07 12:31:23.941122769
2025-11-07 12:31:21.879772,0,2025-11-07 12:31:23.948815077
2025-11-07 12:31:21.879772,21,2025-11-07 12:31:23.956507385
2025-11-07 12:31:21.879772,3584,2025-11-07 12:31:23.964199692
2025-11-07 12:31:21.879772,0,2025-11-07 12:31:23.971892000
2025-11-07 12:31:21.879772,21,2025-11-07 12:31:23.979584308
2025-11-07 12:31:21.879772,9728,2025-11-07 12:31:23.987276615
2025-11-07 12:31:21.879772,0,2025-11-07 12:31:23.994968923
2025-11-07 12:31:21.879772,35,2025-11-07 12:31:24.002661231
2025-11-07 12:31:21.879772,7168,2025-11-07 12:31:24.010353538
2025-11-07 12:31:21.879772,0,2025-11-07 12:31:24.018045846
2025-11-07 12:31:21.879772,28,2025-11-07 12:31:24.025738154
2025-11-07 12:31:21.879772,6656,2025-11-07 12:31:24.033430462
2025-11-07 12:31:21.879772,0,2025-11-07 12:31:24.041122769
2025-11-07 12:31:21.879772,26,2025-11-07 12:31:24.048815077
2025-11-07 12:31:21.879772,5888,2025-11-07 12:31:24.056507385
2025-11-07 12:31:21.879772,0,2025-11-07 12:31:24.064199692
2025-11-07 12:31:21.879772,26,2025-11-07 12:31:24.071892000
2025-11-07 12:31:21.879772,8448,2025-11-07 12:31:24.079584308
2025-11-07 12:31:21.879772,0,2025-11-07 12:31:24.087276615
2025-11-07 12:31:21.879772,31,2025-11-07 12:31:24.094968923
2025-11-07 12:31:21.879772,7936,2025-11-07 12:31:24.102661231
2025-11-07 12:31:21.879772,0,2025-11-07 12:31:24.110353538
2025-11-07 12:31:21.879772,35,2025-11-07 12:31:24.118045846
2025-11-07 12:31:21.879772,9728,2025-11-07 12:31:24.125738154
2025-11-07 12:31:21.879772,0,2025-11-07 12:31:24.133430462
2025-11-07 12:31:21.879772,33,2025-11-07 12:31:24.141122769
2025-11-07 12:31:21.879772,7168,2025-11-07 12:31:24.148815077
2025-11-07 12:31:21.879772,0,2025-11-07 12:31:24.156507385
2025-11-07 12:31:21.879772,33,2025-11-07 12:31:24.164199692
2025-11-07 12:31:21.879772,8448,2025-11-07 12:31:24.171892000
2025-11-07 12:31:21.879772,0,2025-11-07 12:31:24.179584308
2025-11-07 12:31:21.879772,38,2025-11-07 12:31:24.187276615
2025-11-07 12:31:21.879772,8960,2025-11-07 12:31:24.194968923
2025-11-07 12:31:21.879772,0,2025-11-07 12:31:24.202661231
2025-11-07 12:31:21.879772,28,2025-11-07 12:31:24.210353538
2025-11-07 12:31:21.879772,7936,2025-11-07 12:31:24.218045846
2025-11-07 12:31:21.879772,0,2025-11-07 12:31:24.225738154
2025-11-07 12:31:21.879772,35,2025-11-07 12:31:24.233430462
2025-11-07 12:31:21.879772,7168,2025-11-07 12:31:24.241122769
2025-11-07 12:31:21.879772,0,2025-11-07 12:31:24.248815077
2025-11-07 12:31:21.879772,33,2025-11-07 12:31:24.256507385
2025-11-07 12:31:21.879772,8960,2025-11-07 12:31:24.264199692
2025-11-07 12:31:21.879772,0,2025-11-07 12:31:24.271892000
2025-11-07 12:31:21.879772,31,2025-11-07 12:31:24.279584308
2025-11-07 12:31:21.879772,7936,2025-11-07 12:31:24.287276615
2025-11-07 12:31:21.879772,0,2025-11-07 12:31:24.294968923
2025-11-07 12:31:21.879772,31,2025-11-07 12:31:24.302661231
2025-11-07 12:31:21.879772,8448,2025-11-07 12:31:24.310353538
2025-11-07 12:31:21.879772,0,2025-11-07 12:31:24.318045846
2025-11-07 12:31:21.879772,33,2025-11-07 12:31:24.325738154
2025-11-07 12:31:21.879772,8448,2025-11-07 12:31:24.333430462
2025-11-07 12:31:21.879772,0,2025-11-07 12:31:24.341122769
2025-11-07 12:31:21.879772,33,2025-11-07 12:31:24.348815077
2025-11-07 12:31:21.879772,7168,2025-11-07 12:31:24.356507385
2025-11-07 12:31:21.879772,0,2025-11-07 12:31:24.364199692
2025-11-07 12:31:21.879772,23,2025-11-07 12:31:24.371892000
2025-11-07 12:31:21.879772,3584,2025-11-07 12:31:24.379584308
2025-11-07 12:31:21.879772,0,2025-11-07 12:31:24.387276615
2025-11-07 12:31:21.879772,9,2025-11-07 12:31:24.394968923
2025-11-07 12:31:21.879772,4096,2025-11-07 12:31:24.402661231
2025-11-07 12:31:21.879772,0,2025-11-07 12:31:24.410353538
2025-11-07 12:31:21.879772,31,2025-11-07 12:31:24.418045846
2025-11-07 12:31:21.879772,10240,2025-11-07 12:31:24.425738154
2025-11-07 12:31:21.879772,0,2025-11-07 12:31:24.433430462
2025-11-07 12:31:21.879772,45,2025-11-07 12:31:24.441122769
2025-11-07 12:31:21.879772,12032,2025-11-07 12:31:24.448815077
2025-11-07 12:31:21.879772,0,2025-11-07 12:31:24.456507385
2025-11-07 12:31:21.879772,52,2025-11-07 12:31:24.464199692
2025-11-07 12:31:21.879772,9728,2025-11-07 12:31:24.471892000
2025-11-07 12:31:21.879772,0,2025-11-07 12:31:24.479584308
2025-11-07 12:31:21.879772,21,2025-11-07 12:31:24.487276615
2025-11-07 12:31:21.879772,5888,2025-11-07 12:31:24.494968923
2025-11-07 12:31:21.879772,0,2025-11-07 12:31:24.502661230
2025-11-07 12:31:21.879772,26,2025-11-07 12:31:24.510353538
2025-11-07 12:31:21.879772,5376,2025-11-07 12:31:24.518045846
2025-11-07 12:31:21.879772,0,2025-11-07 12:31:24.525738154
2025-11-07 12:31:21.879772,23,2025-11-07 12:31:24.533430462
2025-11-07 12:31:21.879772,7936,2025-11-07 12:31:24.541122769
2025-11-07 12:31:21.879772,0,2025-11-07 12:31:24.548815077
2025-11-07 12:31:21.879772,38,2025-11-07 12:31:24.556507385
2025-11-07 12:31:21.879772,7168,2025-11-07 12:31:24.564199692
2025-11-07 12:31:21.879772,0,2025-11-07 12:31:24.571892000
2025-11-07 12:31:21.879772,26,2025-11-07 12:31:24.579584308
2025-11-07 12:31:21.879772,8448,2025-11-07 12:31:24.587276615
2025-11-07 12:31:21.879772,0,2025-11-07 12:31:24.594968923
2025-11-07 12:31:21.879772,28,2025-11-07 12:31:24.602661231
2025-11-07 12:31:21.879772,5888,2025-11-07 12:31:24.610353538
2025-11-07 12:31:21.879772,0,2025-11-07 12:31:24.618045846
2025-11-07 12:31:21.879772,7,2025-11-07 12:31:24.625738154
2025-11-07 12:31:21.879772,-2816,2025-11-07 12:31:24.633430462
2025-11-07 12:31:21.879772,-1,2025-11-07 12:31:24.641122769
2025-11-07 12:31:21.879772,193,2025-11-07 12:31:24.648815077
2025-11-07 12:31:21.879772,-1792,2025-11-07 12:31:24.656507385
2025-11-07 12:31:21.879772,2,2025-11-07 12:31:24.664199692
2025-11-07 12:31:21.879772,1089,2025-11-07 12:31:24.671892000
2025-11-07 12:31:22.418380,652,2025-11-07 12:31:24.679584308
2025-11-07 12:31:22.418380,21760,2025-11-07 12:31:24.687276615
2025-11-07 12:31:22.418380,0,2025-11-07 12:31:24.694968923
2025-11-07 12:31:22.418380,-7,2025-11-07 12:31:24.702661231
2025-11-07 12:31:22.418380,7423,2025-11-07 12:31:24.710353538
2025-11-07 12:31:22.418380,0,2025-11-07 12:31:24.718045846
2025-11-07 12:31:22.418380,-76,2025-11-07 12:31:24.725738154
2025-11-07 12:31:22.418380,29183,2025-11-07 12:31:24.733430462
2025-11-07 12:31:22.418380,-1,2025-11-07 12:31:24.741122769
2025-11-07 12:31:22.418380,-124,2025-11-07 12:31:24.748815077
2025-11-07 12:31:22.418380,-30721,2025-11-07 12:31:24.756507385
2025-11-07 12:31:22.418380,-1,2025-11-07 12:31:24.764199692
2025-11-07 12:31:22.418380,-133,2025-11-07 12:31:24.771892000
2025-11-07 12:31:22.418380,-30721,2025-11-07 12:31:24.779584308
2025-11-07 12:31:22.418380,-1,2025-11-07 12:31:24.787276615
2025-11-07 12:31:22.418380,-97,2025-11-07 12:31:24.794968923
2025-11-07 12:31:22.418380,-24065,2025-11-07 12:31:24.802661231
2025-11-07 12:31:22.418380,-1,2025-11-07 12:31:24.810353538
2025-11-07 12:31:22.418380,-100,2025-11-07 12:31:24.818045846
2025-11-07 12:31:22.418380,-24577,2025-11-07 12:31:24.825738154
2025-11-07 12:31:22.418380,-1,2025-11-07 12:31:24.833430462
2025-11-07 12:31:22.418380,-97,2025-11-07 12:31:24.841122769
2025-11-07 12:31:22.418380,-24577,2025-11-07 12:31:24.848815077
2025-11-07 12:31:22.418380,-1,2025-11-07 12:31:24.856507385
2025-11-07 12:31:22.418380,-95,2025-11-07 12:31:24.864199692
2025-11-07 12:31:22.418380,-23553,2025-11-07 12:31:24.871892000
2025-11-07 12:31:22.418380,-1,2025-11-07 12:31:24.879584308
2025-11-07 12:31:22.418380,-90,2025-11-07 12:31:24.887276615
2025-11-07 12:31:22.418380,-24577,2025-11-07 12:31:24.894968923
2025-11-07 12:31:22.418380,-1,2025-11-07 12:31:24.902661231
2025-11-07 12:31:22.418380,-105,2025-11-07 12:31:24.910353538
2025-11-07 12:31:22.418380,-25345,2025-11-07 12:31:24.918045846
2025-11-07 12:31:22.418380,-1,2025-11-07 12:31:24.925738154
2025-11-07 12:31:22.418380,-95,2025-11-07 12:31:24.933430462
2025-11-07 12:31:22.418380,-22785,2025-11-07 12:31:24.941122769
2025-11-07 12:31:22.418380,-1,2025-11-07 12:31:24.948815077
2025-11-07 12:31:22.418380,-83,2025-11-07 12:31:24.956507385
2025-11-07 12:31:22.418380,-19713,2025-11-07 12:31:24.964199692
2025-11-07 12:31:22.418380,-1,2025-11-07 12:31:24.971892000
2025-11-07 12:31:22.418380,-74,2025-11-07 12:31:24.979584308
2025-11-07 12:31:22.418380,-15617,2025-11-07 12:31:24.987276615
2025-11-07 12:31:22.418380,-1,2025-11-07 12:31:24.994968923
2025-11-07 12:31:22.418380,-42,2025-11-07 12:31:25.002661231
2025-11-07 12:31:22.418380,-7681,2025-11-07 12:31:25.010353538
2025-11-07 12:31:22.418380,-1,2025-11-07 12:31:25.018045846
2025-11-07 12:31:22.418380,-19,2025-11-07 12:31:25.025738154
2025-11-07 12:31:22.418380,-3329,2025-11-07 12:31:25.033430462
2025-11-07 12:31:22.418380,-1,2025-11-07 12:31:25.041122769
2025-11-07 12:31:22.418380,-9,2025-11-07 12:31:25.048815077
2025-11-07 12:31:22.418380,1279,2025-11-07 12:31:25.056507385
2025-11-07 12:31:22.418380,0,2025-11-07 12:31:25.064199692
2025-11-07 12:31:22.418380,11,2025-11-07 12:31:25.071892000
2025-11-07 12:31:22.418380,2816,2025-11-07 12:31:25.079584308
2025-11-07 12:31:22.418380,0,2025-11-07 12:31:25.087276615
2025-11-07 12:31:22.418380,23,2025-11-07 12:31:25.094968923
2025-11-07 12:31:22.418380,6656,2025-11-07 12:31:25.102661231
2025-11-07 12:31:22.418380,0,2025-11-07 12:31:25.110353538
2025-11-07 12:31:22.418380,19,2025-11-07 12:31:25.118045846
2025-11-07 12:31:22.418380,5888,2025-11-07 12:31:25.125738154
2025-11-07 12:31:22.418380,0,2025-11-07 12:31:25.133430462
2025-11-07 12:31:22.418380,26,2025-11-07 12:31:25.141122769
2025-11-07 12:31:22.418380,4096,2025-11-07 12:31:25.148815077
2025-11-07 12:31:22.418380,0,2025-11-07 12:31:25.156507385
2025-11-07 12:31:22.418380,11,2025-11-07 12:31:25.164199692
2025-11-07 12:31:22.418380,2816,2025-11-07 12:31:25.171892000
2025-11-07 12:31:22.418380,0,2025-11-07 12:31:25.179584308
2025-11-07 12:31:22.418380,11,2025-11-07 12:31:25.187276615
2025-11-07 12:31:22.418380,2304,2025-11-07 12:31:25.194968923
2025-11-07 12:31:22.418380,0,2025-11-07 12:31:25.202661231
2025-11-07 12:31:22.418380,11,2025-11-07 12:31:25.210353538
2025-11-07 12:31:22.418380,2816,2025-11-07 12:31:25.218045846
2025-11-07 12:31:22.418380,0,2025-11-07 12:31:25.225738154
2025-11-07 12:31:22.418380,9,2025-11-07 12:31:25.233430462
2025-11-07 12:31:22.418380,3584,2025-11-07 12:31:25.241122769
2025-11-07 12:31:22.418380,0,2025-11-07 12:31:25.248815077
2025-11-07 12:31:22.418380,21,2025-11-07 12:31:25.256507385
2025-11-07 12:31:22.418380,4864,2025-11-07 12:31:25.264199692
2025-11-07 12:31:22.418380,0,2025-11-07 12:31:25.271892000
2025-11-07 12:31:22.418380,19,2025-11-07 12:31:25.279584308
2025-11-07 12:31:22.418380,5888,2025-11-07 12:31:25.287276615
2025-11-07 12:31:22.418380,0,2025-11-07 12:31:25.294968923
2025-11-07 12:31:22.418380,28,2025-11-07 12:31:25.302661231
2025-11-07 12:31:22.418380,6656,2025-11-07 12:31:25.310353538
2025-11-07 12:31:22.418380,0,2025-11-07 12:31:25.318045846
2025-11-07 12:31:22.418380,31,2025-11-07 12:31:25.325738154
2025-11-07 12:31:22.418380,8960,2025-11-07 12:31:25.333430462
2025-11-07 12:31:22.418380,0,2025-11-07 12:31:25.341122769
2025-11-07 12:31:22.418380,33,2025-11-07 12:31:25.348815077
2025-11-07 12:31:22.418380,6656,2025-11-07 12:31:25.356507385
2025-11-07 12:31:22.418380,0,2025-11-07 12:31:25.364199692
2025-11-07 12:31:22.418380,26,2025-11-07 12:31:25.371892000
2025-11-07 12:31:22.418380,8960,2025-11-07 12:31:25.379584308
2025-11-07 12:31:22.418380,0,2025-11-07 12:31:25.387276615
2025-11-07 12:31:22.418380,38,2025-11-07 12:31:25.394968923
2025-11-07 12:31:22.418380,6656,2025-11-07 12:31:25.402661231
2025-11-07 12:31:22.418380,0,2025-11-07 12:31:25.410353538
2025-11-07 12:31:22.418380,26,2025-11-07 12:31:25.418045846
2025-11-07 12:31:22.418380,8448,2025-11-07 12:31:25.425738154
2025-11-07 12:31:22.418380,0,2025-11-07 12:31:25.433430462
2025-11-07 12:31:22.418380,28,2025-11-07 12:31:25.441122769
2025-11-07 12:31:22.418380,7936,2025-11-07 12:31:25.448815077
2025-11-07 12:31:22.418380,0,2025-11-07 12:31:25.456507385
2025-11-07 12:31:22.418380,35,2025-11-07 12:31:25.464199692
2025-11-07 12:31:22.418380,7168,2025-11-07 12:31:25.471892000
2025-11-07 12:31:22.418380,0,2025-11-07 12:31:25.479584308
2025-11-07 12:31:22.418380,26,2025-11-07 12:31:25.487276615
2025-11-07 12:31:22.418380,4096,2025-11-07 12:31:25.494968923
2025-11-07 12:31:22.418380,0,2025-11-07 12:31:25.502661230
2025-11-07 12:31:22.418380,2,2025-11-07 12:31:25.510353538
2025-11-07 12:31:22.960851,7,2025-11-07 12:31:25.518045846
2025-11-07 12:31:22.960851,3584,2025-11-07 12:31:25.525738154
2025-11-07 12:31:22.960851,0,2025-11-07 12:31:25.533430462
2025-11-07 12:31:22.960851,23,2025-11-07 12:31:25.541122769
2025-11-07 12:31:22.960851,9728,2025-11-07 12:31:25.548815077
2025-11-07 12:31:22.960851,0,2025-11-07 12:31:25.556507385
2025-11-07 12:31:22.960851,47,2025-11-07 12:31:25.564199692
2025-11-07 12:31:22.960851,10752,2025-11-07 12:31:25.571892000
2025-11-07 12:31:22.960851,0,2025-11-07 12:31:25.579584308
2025-11-07 12:31:22.960851,42,2025-11-07 12:31:25.587276615
2025-11-07 12:31:22.960851,15872,2025-11-07 12:31:25.594968923
2025-11-07 12:31:22.960851,0,2025-11-07 12:31:25.602661231
2025-11-07 12:31:22.960851,64,2025-11-07 12:31:25.610353538
2025-11-07 12:31:22.960851,10240,2025-11-07 12:31:25.618045846
2025-11-07 12:31:22.960851,0,2025-11-07 12:31:25.625738154
2025-11-07 12:31:22.960851,38,2025-11-07 12:31:25.633430462
2025-11-07 12:31:22.960851,12032,2025-11-07 12:31:25.641122769
2025-11-07 12:31:22.960851,0,2025-11-07 12:31:25.648815077
2025-11-07 12:31:22.960851,50,2025-11-07 12:31:25.656507385
2025-11-07 12:31:22.960851,10240,2025-11-07 12:31:25.664199692
2025-11-07 12:31:22.960851,0,2025-11-07 12:31:25.671892000
2025-11-07 12:31:22.960851,31,2025-11-07 12:31:25.679584308
2025-11-07 12:31:22.960851,8960,2025-11-07 12:31:25.687276615
2025-11-07 12:31:22.960851,0,2025-11-07 12:31:25.694968923
2025-11-07 12:31:22.960851,38,2025-11-07 12:31:25.702661231
2025-11-07 12:31:22.960851,8448,2025-11-07 12:31:25.710353538
2025-11-07 12:31:22.960851,0,2025-11-07 12:31:25.718045846
2025-11-07 12:31:22.960851,35,2025-11-07 12:31:25.725738154
2025-11-07 12:31:22.960851,10752,2025-11-07 12:31:25.733430462
2025-11-07 12:31:22.960851,0,2025-11-07 12:31:25.741122769
2025-11-07 12:31:22.960851,33,2025-11-07 12:31:25.748815077
2025-11-07 12:31:22.960851,1024,2025-11-07 12:31:25.756507385
2025-11-07 12:31:22.960851,0,2025-11-07 12:31:25.764199692
2025-11-07 12:31:22.960851,-16,2025-11-07 12:31:25.771892000
2025-11-07 12:31:22.960851,-18433,2025-11-07 12:31:25.779584308
2025-11-07 12:31:22.960851,0,2025-11-07 12:31:25.787276615
2025-11-07 12:31:22.960851,788,2025-11-07 12:31:25.794968923
2025-11-07 12:31:22.960851,-18944,2025-11-07 12:31:25.802661231
2025-11-07 12:31:22.960851,4,2025-11-07 12:31:25.810353538
2025-11-07 12:31:22.960851,795,2025-11-07 12:31:25.818045846
2025-11-07 12:31:22.960851,-31488,2025-11-07 12:31:25.825738154
2025-11-07 12:31:22.960851,0,2025-11-07 12:31:25.833430462
2025-11-07 12:31:22.960851,-33,2025-11-07 12:31:25.841122769
2025-11-07 12:31:22.960851,3071,2025-11-07 12:31:25.848815077
2025-11-07 12:31:22.960851,0,2025-11-07 12:31:25.856507385
2025-11-07 12:31:22.960851,-93,2025-11-07 12:31:25.864199692
2025-11-07 12:31:22.960851,21247,2025-11-07 12:31:25.871892000
2025-11-07 12:31:22.960851,-1,2025-11-07 12:31:25.879584308
2025-11-07 12:31:22.960851,-140,2025-11-07 12:31:25.887276615
2025-11-07 12:31:22.960851,-32513,2025-11-07 12:31:25.894968923
2025-11-07 12:31:22.960851,-1,2025-11-07 12:31:25.902661231
2025-11-07 12:31:22.960851,-150,2025-11-07 12:31:25.910353538
2025-11-07 12:31:22.960851,30975,2025-11-07 12:31:25.918045846
2025-11-07 12:31:22.960851,-1,2025-11-07 12:31:25.925738154
2025-11-07 12:31:22.960851,-124,2025-11-07 12:31:25.933430462
2025-11-07 12:31:22.960851,32255,2025-11-07 12:31:25.941122769
2025-11-07 12:31:22.960851,-1,2025-11-07 12:31:25.948815077
2025-11-07 12:31:22.960851,-126,2025-11-07 12:31:25.956507385
2025-11-07 12:31:22.960851,-30209,2025-11-07 12:31:25.964199692
2025-11-07 12:31:22.960851,-1,2025-11-07 12:31:25.971892000
2025-11-07 12:31:22.960851,-126,2025-11-07 12:31:25.979584308
2025-11-07 12:31:22.960851,-30721,2025-11-07 12:31:25.987276615
2025-11-07 12:31:22.960851,-1,2025-11-07 12:31:25.994968923
2025-11-07 12:31:22.960851,-117,2025-11-07 12:31:26.002661231
2025-11-07 12:31:22.960851,32255,2025-11-07 12:31:26.010353538
2025-11-07 12:31:22.960851,-1,2025-11-07 12:31:26.018045846
2025-11-07 12:31:22.960851,-136,2025-11-07 12:31:26.025738154
2025-11-07 12:31:22.960851,-31489,2025-11-07 12:31:26.033430462
2025-11-07 12:31:22.960851,-1,2025-11-07 12:31:26.041122769
2025-11-07 12:31:22.960851,-124,2025-11-07 12:31:26.048815077
2025-11-07 12:31:22.960851,-31489,2025-11-07 12:31:26.056507385
2025-11-07 12:31:22.960851,-1,2025-11-07 12:31:26.064199692
2025-11-07 12:31:22.960851,-117,2025-11-07 12:31:26.071892000
2025-11-07 12:31:22.960851,-28929,2025-11-07 12:31:26.079584308
2025-11-07 12:31:22.960851,-1,2025-11-07 12:31:26.087276615
2025-11-07 12:31:22.960851,-119,2025-11-07 12:31:26.094968923
2025-11-07 12:31:22.960851,-29697,2025-11-07 12:31:26.102661231
2025-11-07 12:31:22.960851,-1,2025-11-07 12:31:26.110353538
2025-11-07 12:31:22.960851,-105,2025-11-07 12:31:26.118045846
2025-11-07 12:31:22.960851,-22273,2025-11-07 12:31:26.125738154
2025-11-07 12:31:22.960851,-1,2025-11-07 12:31:26.133430462
2025-11-07 12:31:22.960851,-64,2025-11-07 12:31:26.141122769
2025-11-07 12:31:22.960851,-10497,2025-11-07 12:31:26.148815077
2025-11-07 12:31:22.960851,-1,2025-11-07 12:31:26.156507385
2025-11-07 12:31:22.960851,-26,2025-11-07 12:31:26.164199692
2025-11-07 12:31:22.960851,-3329,2025-11-07 12:31:26.171892000
2025-11-07 12:31:22.960851,-1,2025-11-07 12:31:26.179584308
2025-11-07 12:31:22.960851,0,2025-11-07 12:31:26.187276615
2025-11-07 12:31:22.960851,5376,2025-11-07 12:31:26.194968923
2025-11-07 12:31:22.960851,0,2025-11-07 12:31:26.202661231
2025-11-07 12:31:22.960851,26,2025-11-07 12:31:26.210353538
2025-11-07 12:31:22.960851,4864,2025-11-07 12:31:26.218045846
2025-11-07 12:31:22.960851,0,2025-11-07 12:31:26.225738154
2025-11-07 12:31:22.960851,26,2025-11-07 12:31:26.233430462
2025-11-07 12:31:22.960851,7936,2025-11-07 12:31:26.241122769
2025-11-07 12:31:22.960851,0,2025-11-07 12:31:26.248815077
2025-11-07 12:31:22.960851,26,2025-11-07 12:31:26.256507385
2025-11-07 12:31:22.960851,6656,2025-11-07 12:31:26.264199692
2025-11-07 12:31:22.960851,0,2025-11-07 12:31:26.271892000
2025-11-07 12:31:22.960851,31,2025-11-07 12:31:26.279584308
2025-11-07 12:31:22.960851,6656,2025-11-07 12:31:26.287276615
2025-11-07 12:31:22.960851,0,2025-11-07 12:31:26.294968923
2025-11-07 12:31:22.960851,16,2025-11-07 12:31:26.302661231
2025-11-07 12:31:22.960851,4096,2025-11-07 12:31:26.310353538
2025-11-07 12:31:22.960851,0,2025-11-07 12:31:26.318045846
2025-11-07 12:31:22.960851,19,2025-11-07 12:31:26.325738154
2025-11-07 12:31:22.960851,4864,2025-11-07 12:31:26.333430462
2025-11-07 12:31:22.960851,0,2025-11-07 12:31:26.341122769
2025-11-07 12:31:22.960851,14,2025-11-07 12:31:26.348815077
2025-11-07 12:31:23.592646,9,2025-11-07 12:31:26.356507385
2025-11-07 12:31:23.592646,2304,2025-11-07 12:31:26.364199692
2025-11-07 12:31:23.592646,0,2025-11-07 12:31:26.371892000
2025-11-07 12:31:23.592646,14,2025-11-07 12:31:26.379584308
2025-11-07 12:31:23.592646,5376,2025-11-07 12:31:26.387276615
2025-11-07 12:31:23.592646,0,2025-11-07 12:31:26.394968923
2025-11-07 12:31:23.592646,45,2025-11-07 12:31:26.402661231
2025-11-07 12:31:23.592646,14592,2025-11-07 12:31:26.410353538
2025-11-07 12:31:23.592646,0,2025-11-07 12:31:26.418045846
2025-11-07 12:31:23.592646,45,2025-11-07 12:31:26.425738154
2025-11-07 12:31:23.592646,10240,2025-11-07 12:31:26.433430462
2025-11-07 12:31:23.592646,0,2025-11-07 12:31:26.441122769
2025-11-07 12:31:23.592646,45,2025-11-07 12:31:26.448815077
2025-11-07 12:31:23.592646,11520,2025-11-07 12:31:26.456507385
2025-11-07 12:31:23.592646,0,2025-11-07 12:31:26.464199692
2025-11-07 12:31:23.592646,42,2025-11-07 12:31:26.471892000
2025-11-07 12:31:23.592646,10752,2025-11-07 12:31:26.479584308
2025-11-07 12:31:23.592646,0,2025-11-07 12:31:26.487276615
2025-11-07 12:31:23.592646,47,2025-11-07 12:31:26.494968923
2025-11-07 12:31:23.592646,12800,2025-11-07 12:31:26.502661230
2025-11-07 12:31:23.592646,0,2025-11-07 12:31:26.510353538
2025-11-07 12:31:23.592646,45,2025-11-07 12:31:26.518045846
2025-11-07 12:31:23.592646,11520,2025-11-07 12:31:26.525738154
2025-11-07 12:31:23.592646,0,2025-11-07 12:31:26.533430462
2025-11-07 12:31:23.592646,47,2025-11-07 12:31:26.541122769
2025-11-07 12:31:23.592646,11520,2025-11-07 12:31:26.548815077
2025-11-07 12:31:23.592646,0,2025-11-07 12:31:26.556507385
2025-11-07 12:31:23.592646,40,2025-11-07 12:31:26.564199692
2025-11-07 12:31:23.592646,10752,2025-11-07 12:31:26.571892000
2025-11-07 12:31:23.592646,0,2025-11-07 12:31:26.579584308
2025-11-07 12:31:23.592646,42,2025-11-07 12:31:26.587276615
2025-11-07 12:31:23.592646,8960,2025-11-07 12:31:26.594968923
2025-11-07 12:31:23.592646,0,2025-11-07 12:31:26.602661231
2025-11-07 12:31:23.592646,40,2025-11-07 12:31:26.610353538
2025-11-07 12:31:23.592646,10752,2025-11-07 12:31:26.618045846
2025-11-07 12:31:23.592646,0,2025-11-07 12:31:26.625738154
2025-11-07 12:31:23.592646,38,2025-11-07 12:31:26.633430462
2025-11-07 12:31:23.592646,10752,2025-11-07 12:31:26.641122769
2025-11-07 12:31:23.592646,0,2025-11-07 12:31:26.648815077
2025-11-07 12:31:23.592646,47,2025-11-07 12:31:26.656507385
2025-11-07 12:31:23.592646,11520,2025-11-07 12:31:26.664199692
2025-11-07 12:31:23.592646,0,2025-11-07 12:31:26.671892000
2025-11-07 12:31:23.592646,40,2025-11-07 12:31:26.679584308
2025-11-07 12:31:23.592646,7168,2025-11-07 12:31:26.687276615
2025-11-07 12:31:23.592646,0,2025-11-07 12:31:26.694968923
2025-11-07 12:31:23.592646,23,2025-11-07 12:31:26.702661231
2025-11-07 12:31:23.592646,5376,2025-11-07 12:31:26.710353538
2025-11-07 12:31:23.592646,0,2025-11-07 12:31:26.718045846
2025-11-07 12:31:23.592646,11,2025-11-07 12:31:26.725738154
2025-11-07 12:31:23.592646,5888,2025-11-07 12:31:26.733430462
2025-11-07 12:31:23.592646,0,2025-11-07 12:31:26.741122769
2025-11-07 12:31:23.592646,50,2025-11-07 12:31:26.748815077
2025-11-07 12:31:23.592646,14592,2025-11-07 12:31:26.756507385
2025-11-07 12:31:23.592646,0,2025-11-07 12:31:26.764199692
2025-11-07 12:31:23.592646,57,2025-11-07 12:31:26.771892000
2025-11-07 12:31:23.592646,15872,2025-11-07 12:31:26.779584308
2025-11-07 12:31:23.592646,0,2025-11-07 12:31:26.787276615
2025-11-07 12:31:23.592646,59,2025-11-07 12:31:26.794968923
2025-11-07 12:31:23.592646,12032,2025-11-07 12:31:26.802661231
2025-11-07 12:31:23.592646,0,2025-11-07 12:31:26.810353538
2025-11-07 12:31:23.592646,42,2025-11-07 12:31:26.818045846
2025-11-07 12:31:23.592646,12032,2025-11-07 12:31:26.825738154
2025-11-07 12:31:23.592646,0,2025-11-07 12:31:26.833430462
2025-11-07 12:31:23.592646,42,2025-11-07 12:31:26.841122769
2025-11-07 12:31:23.592646,10240,2025-11-07 12:31:26.848815077
2025-11-07 12:31:23.592646,0,2025-11-07 12:31:26.856507385
2025-11-07 12:31:23.592646,40,2025-11-07 12:31:26.864199692
2025-11-07 12:31:23.592646,8960,2025-11-07 12:31:26.871892000
2025-11-07 12:31:23.592646,0,2025-11-07 12:31:26.879584308
2025-11-07 12:31:23.592646,31,2025-11-07 12:31:26.887276615
2025-11-07 12:31:23.592646,7936,2025-11-07 12:31:26.894968923
2025-11-07 12:31:23.592646,0,2025-11-07 12:31:26.902661231
2025-11-07 12:31:23.592646,33,2025-11-07 12:31:26.910353538
2025-11-07 12:31:23.592646,8960,2025-11-07 12:31:26.918045846
2025-11-07 12:31:23.592646,0,2025-11-07 12:31:26.925738154
2025-11-07 12:31:23.592646,31,2025-11-07 12:31:26.933430462
2025-11-07 12:31:23.592646,5888,2025-11-07 12:31:26.941122769
2025-11-07 12:31:23.592646,0,2025-11-07 12:31:26.948815077
2025-11-07 12:31:23.592646,-11,2025-11-07 12:31:26.956507385
2025-11-07 12:31:23.592646,2559,2025-11-07 12:31:26.964199692
2025-11-07 12:31:23.592646,0,2025-11-07 12:31:26.971892000
2025-11-07 12:31:23.592646,401,2025-11-07 12:31:26.979584308
2025-11-07 12:31:23.592646,17152,2025-11-07 12:31:26.987276615
2025-11-07 12:31:23.592646,4,2025-11-07 12:31:26.994968923
2025-11-07 12:31:23.592646,1234,2025-11-07 12:31:27.002661231
2025-11-07 12:31:23.592646,14848,2025-11-07 12:31:27.010353538
2025-11-07 12:31:23.592646,2,2025-11-07 12:31:27.018045846
2025-11-07 12:31:23.592646,9,2025-11-07 12:31:27.025738154
2025-11-07 12:31:23.592646,-7168,2025-11-07 12:31:27.033430462
2025-11-07 12:31:23.592646,-1,2025-11-07 12:31:27.041122769
2025-11-07 12:31:23.592646,-33,2025-11-07 12:31:27.048815077
2025-11-07 12:31:23.592646,23039,2025-11-07 12:31:27.056507385
2025-11-07 12:31:23.592646,-1,2025-11-07 12:31:27.064199692
2025-11-07 12:31:23.592646,-188,2025-11-07 12:31:27.071892000
2025-11-07 12:31:23.592646,30975,2025-11-07 12:31:27.079584308
2025-11-07 12:31:23.592646,-1,2025-11-07 12:31:27.087276615
2025-11-07 12:31:23.592646,-143,2025-11-07 12:31:27.094968923
2025-11-07 12:31:23.592646,24831,2025-11-07 12:31:27.102661231
2025-11-07 12:31:23.592646,-1,2025-11-07 12:31:27.110353538
2025-11-07 12:31:23.592646,-145,2025-11-07 12:31:27.118045846
2025-11-07 12:31:23.592646,30975,2025-11-07 12:31:27.125738154
2025-11-07 12:31:23.592646,-1,2025-11-07 12:31:27.133430462
2025-11-07 12:31:23.592646,-138,2025-11-07 12:31:27.141122769
2025-11-07 12:31:23.592646,30975,2025-11-07 12:31:27.148815077
2025-11-07 12:31:23.592646,-1,2025-11-07 12:31:27.156507385
2025-11-07 12:31:23.592646,-133,2025-11-07 12:31:27.164199692
2025-11-07 12:31:23.592646,31743,2025-11-07 12:31:27.171892000
2025-11-07 12:31:23.592646,-1,2025-11-07 12:31:27.179584308
2025-11-07 12:31:23.592646,-126,2025-11-07 12:31:27.187276615
2025-11-07 12:31:24.136278,-131,2025-11-07 12:31:27.194968923
2025-11-07 12:31:24.136278,29951,2025-11-07 12:31:27.202661231
2025-11-07 12:31:24.136278,-1,2025-11-07 12:31:27.210353538
2025-11-07 12:31:24.136278,-136,2025-11-07 12:31:27.218045846
2025-11-07 12:31:24.136278,30463,2025-11-07 12:31:27.225738154
2025-11-07 12:31:24.136278,-1,2025-11-07 12:31:27.233430462
2025-11-07 12:31:24.136278,-143,2025-11-07 12:31:27.241122769
2025-11-07 12:31:24.136278,30975,2025-11-07 12:31:27.248815077
2025-11-07 12:31:24.136278,-1,2025-11-07 12:31:27.256507385
2025-11-07 12:31:24.136278,-140,2025-11-07 12:31:27.264199692
2025-11-07 12:31:24.136278,28671,2025-11-07 12:31:27.271892000
2025-11-07 12:31:24.136278,-1,2025-11-07 12:31:27.279584308
2025-11-07 12:31:24.136278,-133,2025-11-07 12:31:27.287276615
2025-11-07 12:31:24.136278,-28417,2025-11-07 12:31:27.294968923
2025-11-07 12:31:24.136278,-1,2025-11-07 12:31:27.302661231
2025-11-07 12:31:24.136278,-102,2025-11-07 12:31:27.310353538
2025-11-07 12:31:24.136278,-23553,2025-11-07 12:31:27.318045846
2025-11-07 12:31:24.136278,-1,2025-11-07 12:31:27.325738154
2025-11-07 12:31:24.136278,-64,2025-11-07 12:31:27.333430462
2025-11-07 12:31:24.136278,-5633,2025-11-07 12:31:27.341122769
2025-11-07 12:31:24.136278,-1,2025-11-07 12:31:27.348815077
2025-11-07 12:31:24.136278,2,2025-11-07 12:31:27.356507385
2025-11-07 12:31:24.136278,1792,2025-11-07 12:31:27.364199692
2025-11-07 12:31:24.136278,0,2025-11-07 12:31:27.371892000
2025-11-07 12:31:24.136278,11,2025-11-07 12:31:27.379584308
2025-11-07 12:31:24.136278,7168,2025-11-07 12:31:27.387276615
2025-11-07 12:31:24.136278,0,2025-11-07 12:31:27.394968923
2025-11-07 12:31:24.136278,38,2025-11-07 12:31:27.402661231
2025-11-07 12:31:24.136278,8960,2025-11-07 12:31:27.410353538
2025-11-07 12:31:24.136278,0,2025-11-07 12:31:27.418045846
2025-11-07 12:31:24.136278,38,2025-11-07 12:31:27.425738154
2025-11-07 12:31:24.136278,9728,2025-11-07 12:31:27.433430462
2025-11-07 12:31:24.136278,0,2025-11-07 12:31:27.441122769
2025-11-07 12:31:24.136278,31,2025-11-07 12:31:27.448815077
2025-11-07 12:31:24.136278,7936,2025-11-07 12:31:27.456507385
2025-11-07 12:31:24.136278,0,2025-11-07 12:31:27.464199692
2025-11-07 12:31:24.136278,33,2025-11-07 12:31:27.471892000
2025-11-07 12:31:24.136278,7936,2025-11-07 12:31:27.479584308
2025-11-07 12:31:24.136278,0,2025-11-07 12:31:27.487276615
2025-11-07 12:31:24.136278,31,2025-11-07 12:31:27.494968923
2025-11-07 12:31:24.136278,9728,2025-11-07 12:31:27.502661230
2025-11-07 12:31:24.136278,0,2025-11-07 12:31:27.510353538
2025-11-07 12:31:24.136278,42,2025-11-07 12:31:27.518045846
2025-11-07 12:31:24.136278,8960,2025-11-07 12:31:27.525738154
2025-11-07 12:31:24.136278,0,2025-11-07 12:31:27.533430462
2025-11-07 12:31:24.136278,28,2025-11-07 12:31:27.541122769
2025-11-07 12:31:24.136278,7168,2025-11-07 12:31:27.548815077
2025-11-07 12:31:24.136278,0,2025-11-07 12:31:27.556507385
2025-11-07 12:31:24.136278,23,2025-11-07 12:31:27.564199692
2025-11-07 12:31:24.136278,7168,2025-11-07 12:31:27.571892000
2025-11-07 12:31:24.136278,0,2025-11-07 12:31:27.579584308
2025-11-07 12:31:24.136278,33,2025-11-07 12:31:27.587276615
2025-11-07 12:31:24.136278,7936,2025-11-07 12:31:27.594968923
2025-11-07 12:31:24.136278,0,2025-11-07 12:31:27.602661231
2025-11-07 12:31:24.136278,28,2025-11-07 12:31:27.610353538
2025-11-07 12:31:24.136278,6656,2025-11-07 12:31:27.618045846
2025-11-07 12:31:24.136278,0,2025-11-07 12:31:27.625738154
2025-11-07 12:31:24.136278,31,2025-11-07 12:31:27.633430462
2025-11-07 12:31:24.136278,9728,2025-11-07 12:31:27.641122769
2025-11-07 12:31:24.136278,0,2025-11-07 12:31:27.648815077
2025-11-07 12:31:24.136278,28,2025-11-07 12:31:27.656507385
2025-11-07 12:31:24.136278,5376,2025-11-07 12:31:27.664199692
2025-11-07 12:31:24.136278,0,2025-11-07 12:31:27.671892000
2025-11-07 12:31:24.136278,31,2025-11-07 12:31:27.679584308
2025-11-07 12:31:24.136278,9728,2025-11-07 12:31:27.687276615
2025-11-07 12:31:24.136278,0,2025-11-07 12:31:27.694968923
2025-11-07 12:31:24.136278,35,2025-11-07 12:31:27.702661231
2025-11-07 12:31:24.136278,7936,2025-11-07 12:31:27.710353538
2025-11-07 12:31:24.136278,0,2025-11-07 12:31:27.718045846
2025-11-07 12:31:24.136278,35,2025-11-07 12:31:27.725738154
2025-11-07 12:31:24.136278,9728,2025-11-07 12:31:27.733430462
2025-11-07 12:31:24.136278,0,2025-11-07 12:31:27.741122769
2025-11-07 12:31:24.136278,35,2025-11-07 12:31:27.748815077
2025-11-07 12:31:24.136278,8960,2025-11-07 12:31:27.756507385
2025-11-07 12:31:24.136278,0,2025-11-07 12:31:27.764199692
2025-11-07 12:31:24.136278,33,2025-11-07 12:31:27.771892000
2025-11-07 12:31:24.136278,8448,2025-11-07 12:31:27.779584308
2025-11-07 12:31:24.136278,0,2025-11-07 12:31:27.787276615
2025-11-07 12:31:24.136278,35,2025-11-07 12:31:27.794968923
2025-11-07 12:31:24.136278,8960,2025-11-07 12:31:27.802661231
2025-11-07 12:31:24.136278,0,2025-11-07 12:31:27.810353538
2025-11-07 12:31:24.136278,38,2025-11-07 12:31:27.818045846
2025-11-07 12:31:24.136278,10240,2025-11-07 12:31:27.825738154
2025-11-07 12:31:24.136278,0,2025-11-07 12:31:27.833430462
2025-11-07 12:31:24.136278,40,2025-11-07 12:31:27.841122769
2025-11-07 12:31:24.136278,9728,2025-11-07 12:31:27.848815077
2025-11-07 12:31:24.136278,0,2025-11-07 12:31:27.856507385
2025-11-07 12:31:24.136278,40,2025-11-07 12:31:27.864199692
2025-11-07 12:31:24.136278,11520,2025-11-07 12:31:27.871892000
2025-11-07 12:31:24.136278,0,2025-11-07 12:31:27.879584308
2025-11-07 12:31:24.136278,42,2025-11-07 12:31:27.887276615
2025-11-07 12:31:24.136278,8960,2025-11-07 12:31:27.894968923
2025-11-07 12:31:24.136278,0,2025-11-07 12:31:27.902661231
2025-11-07 12:31:24.136278,23,2025-11-07 12:31:27.910353538
2025-11-07 12:31:24.136278,3584,2025-11-07 12:31:27.918045846
2025-11-07 12:31:24.136278,0,2025-11-07 12:31:27.925738154
2025-11-07 12:31:24.136278,11,2025-11-07 12:31:27.933430462
2025-11-07 12:31:24.136278,4864,2025-11-07 12:31:27.941122769
2025-11-07 12:31:24.136278,0,2025-11-07 12:31:27.948815077
2025-11-07 12:31:24.136278,31,2025-11-07 12:31:27.956507385
2025-11-07 12:31:24.136278,12800,2025-11-07 12:31:27.964199692
2025-11-07 12:31:24.136278,0,2025-11-07 12:31:27.971892000
2025-11-07 12:31:24.136278,54,2025-11-07 12:31:27.979584308
2025-11-07 12:31:24.136278,13824,2025-11-07 12:31:27.987276615
2025-11-07 12:31:24.136278,0,2025-11-07 12:31:27.994968923
2025-11-07 12:31:24.136278,50,2025-11-07 12:31:28.002661231
2025-11-07 12:31:24.136278,8960,2025-11-07 12:31:28.010353538
2025-11-07 12:31:24.136278,0,2025-11-07 12:31:28.018045846
2025-11-07 12:31:24.136278,33,2025-11-07 12:31:28.025738154
2025-11-07 12:31:24.717638,35,2025-11-07 12:31:28.033430462
2025-11-07 12:31:24.717638,8448,2025-11-07 12:31:28.041122769
2025-11-07 12:31:24.717638,0,2025-11-07 12:31:28.048815077
2025-11-07 12:31:24.717638,31,2025-11-07 12:31:28.056507385
2025-11-07 12:31:24.717638,7168,2025-11-07 12:31:28.064199692
2025-11-07 12:31:24.717638,0,2025-11-07 12:31:28.071892000
2025-11-07 12:31:24.717638,31,2025-11-07 12:31:28.079584308
2025-11-07 12:31:24.717638,7936,2025-11-07 12:31:28.087276615
2025-11-07 12:31:24.717638,0,2025-11-07 12:31:28.094968923
2025-11-07 12:31:24.717638,26,2025-11-07 12:31:28.102661231
2025-11-07 12:31:24.717638,7168,2025-11-07 12:31:28.110353538
2025-11-07 12:31:24.717638,0,2025-11-07 12:31:28.118045846
2025-11-07 12:31:24.717638,28,2025-11-07 12:31:28.125738154
2025-11-07 12:31:24.717638,5888,2025-11-07 12:31:28.133430462
2025-11-07 12:31:24.717638,0,2025-11-07 12:31:28.141122769
2025-11-07 12:31:24.717638,28,2025-11-07 12:31:28.148815077
2025-11-07 12:31:24.717638,8448,2025-11-07 12:31:28.156507385
2025-11-07 12:31:24.717638,0,2025-11-07 12:31:28.164199692
2025-11-07 12:31:24.717638,0,2025-11-07 12:31:28.171892000
2025-11-07 12:31:24.717638,31744,2025-11-07 12:31:28.179584308
2025-11-07 12:31:24.717638,0,2025-11-07 12:31:28.187276615
2025-11-07 12:31:24.717638,706,2025-11-07 12:31:28.194968923
2025-11-07 12:31:24.717638,1792,2025-11-07 12:31:28.202661231
2025-11-07 12:31:24.717638,5,2025-11-07 12:31:28.210353538
2025-11-07 12:31:24.717638,1022,2025-11-07 12:31:28.218045846
2025-11-07 12:31:24.717638,1536,2025-11-07 12:31:28.225738154
2025-11-07 12:31:24.717638,1,2025-11-07 12:31:28.233430462
2025-11-07 12:31:24.717638,-47,2025-11-07 12:31:28.241122769
2025-11-07 12:31:24.717638,3839,2025-11-07 12:31:28.248815077
2025-11-07 12:31:24.717638,0,2025-11-07 12:31:28.256507385
2025-11-07 12:31:24.717638,-64,2025-11-07 12:31:28.264199692
2025-11-07 12:31:24.717638,18943,2025-11-07 12:31:28.271892000
2025-11-07 12:31:24.717638,-1,2025-11-07 12:31:28.279584308
2025-11-07 12:31:24.717638,-148,2025-11-07 12:31:28.287276615
2025-11-07 12:31:24.717638,-29697,2025-11-07 12:31:28.294968923
2025-11-07 12:31:24.717638,-1,2025-11-07 12:31:28.302661231
2025-11-07 12:31:24.717638,-145,2025-11-07 12:31:28.310353538
2025-11-07 12:31:24.717638,31743,2025-11-07 12:31:28.318045846
2025-11-07 12:31:24.717638,-1,2025-11-07 12:31:28.325738154
2025-11-07 12:31:24.717638,-117,2025-11-07 12:31:28.333430462
2025-11-07 12:31:24.717638,-32001,2025-11-07 12:31:28.341122769
2025-11-07 12:31:24.717638,-1,2025-11-07 12:31:28.348815077
2025-11-07 12:31:24.717638,-119,2025-11-07 12:31:28.356507385
2025-11-07 12:31:24.717638,-28417,2025-11-07 12:31:28.364199692
2025-11-07 12:31:24.717638,-1,2025-11-07 12:31:28.371892000
2025-11-07 12:31:24.717638,-121,2025-11-07 12:31:28.379584308
2025-11-07 12:31:24.717638,-32513,2025-11-07 12:31:28.387276615
2025-11-07 12:31:24.717638,-1,2025-11-07 12:31:28.394968923
2025-11-07 12:31:24.717638,-121,2025-11-07 12:31:28.402661231
2025-11-07 12:31:24.717638,-29697,2025-11-07 12:31:28.410353538
2025-11-07 12:31:24.717638,-1,2025-11-07 12:31:28.418045846
2025-11-07 12:31:24.717638,-119,2025-11-07 12:31:28.425738154
2025-11-07 12:31:24.717638,-30209,2025-11-07 12:31:28.433430462
2025-11-07 12:31:24.717638,-1,2025-11-07 12:31:28.441122769
2025-11-07 12:31:24.717638,-121,2025-11-07 12:31:28.448815077
2025-11-07 12:31:24.717638,32255,2025-11-07 12:31:28.456507385
2025-11-07 12:31:24.717638,-1,2025-11-07 12:31:28.464199692
2025-11-07 12:31:24.717638,-131,2025-11-07 12:31:28.471892000
2025-11-07 12:31:24.717638,-30721,2025-11-07 12:31:28.479584308
2025-11-07 12:31:24.717638,-1,2025-11-07 12:31:28.487276615
2025-11-07 12:31:24.717638,-114,2025-11-07 12:31:28.494968923
2025-11-07 12:31:24.717638,-28929,2025-11-07 12:31:28.502661230
2025-11-07 12:31:24.717638,-1,2025-11-07 12:31:28.510353538
2025-11-07 12:31:24.717638,-109,2025-11-07 12:31:28.518045846
2025-11-07 12:31:24.717638,-24065,2025-11-07 12:31:28.525738154
2025-11-07 12:31:24.717638,-1,2025-11-07 12:31:28.533430462
2025-11-07 12:31:24.717638,-76,2025-11-07 12:31:28.541122769
2025-11-07 12:31:24.717638,-12545,2025-11-07 12:31:28.548815077
2025-11-07 12:31:24.717638,-1,2025-11-07 12:31:28.556507385
2025-11-07 12:31:24.717638,-23,2025-11-07 12:31:28.564199692
2025-11-07 12:31:24.717638,-3841,2025-11-07 12:31:28.571892000
2025-11-07 12:31:24.717638,-1,2025-11-07 12:31:28.579584308
2025-11-07 12:31:24.717638,-9,2025-11-07 12:31:28.587276615
2025-11-07 12:31:24.717638,3839,2025-11-07 12:31:28.594968923
2025-11-07 12:31:24.717638,0,2025-11-07 12:31:28.602661231
2025-11-07 12:31:24.717638,21,2025-11-07 12:31:28.610353538
2025-11-07 12:31:24.717638,3584,2025-11-07 12:31:28.618045846
2025-11-07 12:31:24.717638,0,2025-11-07 12:31:28.625738154
2025-11-07 12:31:24.717638,16,2025-11-07 12:31:28.633430462
2025-11-07 12:31:24.717638,6656,2025-11-07 12:31:28.641122769
2025-11-07 12:31:24.717638,0,2025-11-07 12:31:28.648815077
2025-11-07 12:31:24.717638,28,2025-11-07 12:31:28.656507385
2025-11-07 12:31:24.717638,5888,2025-11-07 12:31:28.664199692
2025-11-07 12:31:24.717638,0,2025-11-07 12:31:28.671892000
2025-11-07 12:31:24.717638,23,2025-11-07 12:31:28.679584308
2025-11-07 12:31:24.717638,5888,2025-11-07 12:31:28.687276615
2025-11-07 12:31:24.717638,0,2025-11-07 12:31:28.694968923
2025-11-07 12:31:24.717638,26,2025-11-07 12:31:28.702661231
2025-11-07 12:31:24.717638,7168,2025-11-07 12:31:28.710353538
2025-11-07 12:31:24.717638,0,2025-11-07 12:31:28.718045846
2025-11-07 12:31:24.717638,21,2025-11-07 12:31:28.725738154
2025-11-07 12:31:24.717638,4096,2025-11-07 12:31:28.733430462
2025-11-07 12:31:24.717638,0,2025-11-07 12:31:28.741122769
2025-11-07 12:31:24.717638,16,2025-11-07 12:31:28.748815077
2025-11-07 12:31:24.717638,4864,2025-11-07 12:31:28.756507385
2025-11-07 12:31:24.717638,0,2025-11-07 12:31:28.764199692
2025-11-07 12:31:24.717638,21,2025-11-07 12:31:28.771892000
2025-11-07 12:31:24.717638,4864,2025-11-07 12:31:28.779584308
2025-11-07 12:31:24.717638,0,2025-11-07 12:31:28.787276615
2025-11-07 12:31:24.717638,11,2025-11-07 12:31:28.794968923
2025-11-07 12:31:24.717638,2816,2025-11-07 12:31:28.802661231
2025-11-07 12:31:24.717638,0,2025-11-07 12:31:28.810353538
2025-11-07 12:31:24.717638,16,2025-11-07 12:31:28.818045846
2025-11-07 12:31:24.717638,4096,2025-11-07 12:31:28.825738154
2025-11-07 12:31:24.717638,0,2025-11-07 12:31:28.833430462
2025-11-07 12:31:24.717638,14,2025-11-07 12:31:28.841122769
2025-11-07 12:31:24.717638,4096,2025-11-07 12:31:28.848815077
2025-11-07 12:31:24.717638,0,2025-11-07 12:31:28.856507385
2025-11-07 12:31:24.717638,19,2025-11-07 12:31:28.864199692
2025-11-07 12:31:25.299842,19,2025-11-07 12:31:28.871892000
2025-11-07 12:31:25.299842,5888,2025-11-07 12:31:28.879584308
2025-11-07 12:31:25.299842,0,2025-11-07 12:31:28.887276615
2025-11-07 12:31:25.299842,26,2025-11-07 12:31:28.894968923
2025-11-07 12:31:25.299842,5888,2025-11-07 12:31:28.902661231
2025-11-07 12:31:25.299842,0,2025-11-07 12:31:28.910353538
2025-11-07 12:31:25.299842,26,2025-11-07 12:31:28.918045846
2025-11-07 12:31:25.299842,5888,2025-11-07 12:31:28.925738154
2025-11-07 12:31:25.299842,0,2025-11-07 12:31:28.933430462
2025-11-07 12:31:25.299842,21,2025-11-07 12:31:28.941122769
2025-11-07 12:31:25.299842,7168,2025-11-07 12:31:28.948815077
2025-11-07 12:31:25.299842,0,2025-11-07 12:31:28.956507385
2025-11-07 12:31:25.299842,38,2025-11-07 12:31:28.964199692
2025-11-07 12:31:25.299842,9728,2025-11-07 12:31:28.971892000
2025-11-07 12:31:25.299842,0,2025-11-07 12:31:28.979584308
2025-11-07 12:31:25.299842,31,2025-11-07 12:31:28.987276615
2025-11-07 12:31:25.299842,7168,2025-11-07 12:31:28.994968923
2025-11-07 12:31:25.299842,0,2025-11-07 12:31:29.002661231
2025-11-07 12:31:25.299842,38,2025-11-07 12:31:29.010353538
2025-11-07 12:31:25.299842,11520,2025-11-07 12:31:29.018045846
2025-11-07 12:31:25.299842,0,2025-11-07 12:31:29.025738154
2025-11-07 12:31:25.299842,54,2025-11-07 12:31:29.033430462
2025-11-07 12:31:25.299842,15872,2025-11-07 12:31:29.041122769
2025-11-07 12:31:25.299842,0,2025-11-07 12:31:29.048815077
2025-11-07 12:31:25.299842,54,2025-11-07 12:31:29.056507385
2025-11-07 12:31:25.299842,13312,2025-11-07 12:31:29.064199692
2025-11-07 12:31:25.299842,0,2025-11-07 12:31:29.071892000
2025-11-07 12:31:25.299842,57,2025-11-07 12:31:29.079584308
2025-11-07 12:31:25.299842,14592,2025-11-07 12:31:29.087276615
2025-11-07 12:31:25.299842,0,2025-11-07 12:31:29.094968923
2025-11-07 12:31:25.299842,47,2025-11-07 12:31:29.102661231
2025-11-07 12:31:25.299842,8448,2025-11-07 12:31:29.110353538
2025-11-07 12:31:25.299842,0,2025-11-07 12:31:29.118045846
2025-11-07 12:31:25.299842,26,2025-11-07 12:31:29.125738154
2025-11-07 12:31:25.299842,6656,2025-11-07 12:31:29.133430462
2025-11-07 12:31:25.299842,0,2025-11-07 12:31:29.141122769
2025-11-07 12:31:25.299842,28,2025-11-07 12:31:29.148815077
2025-11-07 12:31:25.299842,11520,2025-11-07 12:31:29.156507385
2025-11-07 12:31:25.299842,0,2025-11-07 12:31:29.164199692
2025-11-07 12:31:25.299842,59,2025-11-07 12:31:29.171892000
2025-11-07 12:31:25.299842,15872,2025-11-07 12:31:29.179584308
2025-11-07 12:31:25.299842,0,2025-11-07 12:31:29.187276615
2025-11-07 12:31:25.299842,64,2025-11-07 12:31:29.194968923
2025-11-07 12:31:25.299842,15872,2025-11-07 12:31:29.202661231
2025-11-07 12:31:25.299842,0,2025-11-07 12:31:29.210353538
2025-11-07 12:31:25.299842,54,2025-11-07 12:31:29.218045846
2025-11-07 12:31:25.299842,11520,2025-11-07 12:31:29.225738154
2025-11-07 12:31:25.299842,0,2025-11-07 12:31:29.233430462
2025-11-07 12:31:25.299842,38,2025-11-07 12:31:29.241122769
2025-11-07 12:31:25.299842,9728,2025-11-07 12:31:29.248815077
2025-11-07 12:31:25.299842,0,2025-11-07 12:31:29.256507385
2025-11-07 12:31:25.299842,42,2025-11-07 12:31:29.264199692
2025-11-07 12:31:25.299842,10240,2025-11-07 12:31:29.271892000
2025-11-07 12:31:25.299842,0,2025-11-07 12:31:29.279584308
2025-11-07 12:31:25.299842,31,2025-11-07 12:31:29.287276615
2025-11-07 12:31:25.299842,8960,2025-11-07 12:31:29.294968923
2025-11-07 12:31:25.299842,0,2025-11-07 12:31:29.302661231
2025-11-07 12:31:25.299842,40,2025-11-07 12:31:29.310353538
2025-11-07 12:31:25.299842,8448,2025-11-07 12:31:29.318045846
2025-11-07 12:31:25.299842,0,2025-11-07 12:31:29.325738154
2025-11-07 12:31:25.299842,26,2025-11-07 12:31:29.333430462
2025-11-07 12:31:25.299842,8448,2025-11-07 12:31:29.341122769
2025-11-07 12:31:25.299842,0,2025-11-07 12:31:29.348815077
2025-11-07 12:31:25.299842,38,2025-11-07 12:31:29.356507385
2025-11-07 12:31:25.299842,5888,2025-11-07 12:31:29.364199692
2025-11-07 12:31:25.299842,0,2025-11-07 12:31:29.371892000
2025-11-07 12:31:25.299842,-19,2025-11-07 12:31:29.379584308
2025-11-07 12:31:25.299842,24063,2025-11-07 12:31:29.387276615
2025-11-07 12:31:25.299842,0,2025-11-07 12:31:29.394968923
2025-11-07 12:31:25.299842,647,2025-11-07 12:31:29.402661231
2025-11-07 12:31:25.299842,-14080,2025-11-07 12:31:29.410353538
2025-11-07 12:31:25.299842,4,2025-11-07 12:31:29.418045846
2025-11-07 12:31:25.299842,988,2025-11-07 12:31:29.425738154
2025-11-07 12:31:25.299842,-5120,2025-11-07 12:31:29.433430462
2025-11-07 12:31:25.299842,0,2025-11-07 12:31:29.441122769
2025-11-07 12:31:25.299842,-69,2025-11-07 12:31:29.448815077
2025-11-07 12:31:25.299842,3839,2025-11-07 12:31:29.456507385
2025-11-07 12:31:25.299842,0,2025-11-07 12:31:29.464199692
2025-11-07 12:31:25.299842,-52,2025-11-07 12:31:29.471892000
2025-11-07 12:31:25.299842,19455,2025-11-07 12:31:29.479584308
2025-11-07 12:31:25.299842,-1,2025-11-07 12:31:29.487276615
2025-11-07 12:31:25.299842,-155,2025-11-07 12:31:29.494968923
2025-11-07 12:31:25.299842,-29697,2025-11-07 12:31:29.502661230
2025-11-07 12:31:25.299842,-1,2025-11-07 12:31:29.510353538
2025-11-07 12:31:25.299842,-140,2025-11-07 12:31:29.518045846
2025-11-07 12:31:25.299842,30463,2025-11-07 12:31:29.525738154
2025-11-07 12:31:25.299842,-1,2025-11-07 12:31:29.533430462
2025-11-07 12:31:25.299842,-119,2025-11-07 12:31:29.541122769
2025-11-07 12:31:25.299842,-32001,2025-11-07 12:31:29.548815077
2025-11-07 12:31:25.299842,-1,2025-11-07 12:31:29.556507385
2025-11-07 12:31:25.299842,-126,2025-11-07 12:31:29.564199692
2025-11-07 12:31:25.299842,-29697,2025-11-07 12:31:29.571892000
2025-11-07 12:31:25.299842,-1,2025-11-07 12:31:29.579584308
2025-11-07 12:31:25.299842,-117,2025-11-07 12:31:29.587276615
2025-11-07 12:31:25.299842,-30209,2025-11-07 12:31:29.594968923
2025-11-07 12:31:25.299842,-1,2025-11-07 12:31:29.602661231
2025-11-07 12:31:25.299842,-117,2025-11-07 12:31:29.610353538
2025-11-07 12:31:25.299842,-30721,2025-11-07 12:31:29.618045846
2025-11-07 12:31:25.299842,-1,2025-11-07 12:31:29.625738154
2025-11-07 12:31:25.299842,-126,2025-11-07 12:31:29.633430462
2025-11-07 12:31:25.299842,-30209,2025-11-07 12:31:29.641122769
2025-11-07 12:31:25.299842,-1,2025-11-07 12:31:29.648815077
2025-11-07 12:31:25.299842,-119,2025-11-07 12:31:29.656507385
2025-11-07 12:31:25.299842,-32001,2025-11-07 12:31:29.664199692
2025-11-07 12:31:25.299842,-1,2025-11-07 12:31:29.671892000
2025-11-07 12:31:25.299842,-126,2025-11-07 12:31:29.679584308
2025-11-07 12:31:25.299842,-31489,2025-11-07 12:31:29.687276615
2025-11-07 12:31:25.299842,-1,2025-11-07 12:31:29.694968923
2025-11-07 12:31:25.299842,-112,2025-11-07 12:31:29.702661231
2025-11-07 12:31:25.796179,-95,2025-11-07 12:31:29.710353538
2025-11-07 12:31:25.796179,-22273,2025-11-07 12:31:29.718045846
2025-11-07 12:31:25.796179,-1,2025-11-07 12:31:29.725738154
2025-11-07 12:31:25.796179,-88,2025-11-07 12:31:29.733430462
2025-11-07 12:31:25.796179,-18689,2025-11-07 12:31:29.741122769
2025-11-07 12:31:25.796179,-1,2025-11-07 12:31:29.748815077
2025-11-07 12:31:25.796179,-47,2025-11-07 12:31:29.756507385
2025-11-07 12:31:25.796179,-6913,2025-11-07 12:31:29.764199692
2025-11-07 12:31:25.796179,-1,2025-11-07 12:31:29.771892000
2025-11-07 12:31:25.796179,-21,2025-11-07 12:31:29.779584308
2025-11-07 12:31:25.796179,-2561,2025-11-07 12:31:29.787276615
2025-11-07 12:31:25.796179,-1,2025-11-07 12:31:29.794968923
2025-11-07 12:31:25.796179,-4,2025-11-07 12:31:29.802661231
2025-11-07 12:31:25.796179,2047,2025-11-07 12:31:29.810353538
2025-11-07 12:31:25.796179,0,2025-11-07 12:31:29.818045846
2025-11-07 12:31:25.796179,16,2025-11-07 12:31:29.825738154
2025-11-07 12:31:25.796179,4864,2025-11-07 12:31:29.833430462
2025-11-07 12:31:25.796179,0,2025-11-07 12:31:29.841122769
2025-11-07 12:31:25.796179,21,2025-11-07 12:31:29.848815077
2025-11-07 12:31:25.796179,5888,2025-11-07 12:31:29.856507385
2025-11-07 12:31:25.796179,0,2025-11-07 12:31:29.864199692
2025-11-07 12:31:25.796179,19,2025-11-07 12:31:29.871892000
2025-11-07 12:31:25.796179,4096,2025-11-07 12:31:29.879584308
2025-11-07 12:31:25.796179,0,2025-11-07 12:31:29.887276615
2025-11-07 12:31:25.796179,28,2025-11-07 12:31:29.894968923
2025-11-07 12:31:25.796179,10752,2025-11-07 12:31:29.902661231
2025-11-07 12:31:25.796179,0,2025-11-07 12:31:29.910353538
2025-11-07 12:31:25.796179,40,2025-11-07 12:31:29.918045846
2025-11-07 12:31:25.796179,7168,2025-11-07 12:31:29.925738154
2025-11-07 12:31:25.796179,0,2025-11-07 12:31:29.933430462
2025-11-07 12:31:25.796179,28,2025-11-07 12:31:29.941122769
2025-11-07 12:31:25.796179,9728,2025-11-07 12:31:29.948815077
2025-11-07 12:31:25.796179,0,2025-11-07 12:31:29.956507385
2025-11-07 12:31:25.796179,33,2025-11-07 12:31:29.964199692
2025-11-07 12:31:25.796179,7168,2025-11-07 12:31:29.971892000
2025-11-07 12:31:25.796179,0,2025-11-07 12:31:29.979584308
2025-11-07 12:31:25.796179,28,2025-11-07 12:31:29.987276615
2025-11-07 12:31:25.796179,7168,2025-11-07 12:31:29.994968923
2025-11-07 12:31:25.796179,0,2025-11-07 12:31:30.002661231
2025-11-07 12:31:25.796179,28,2025-11-07 12:31:30.010353538
2025-11-07 12:31:25.796179,7168,2025-11-07 12:31:30.018045846
2025-11-07 12:31:25.796179,0,2025-11-07 12:31:30.025738154
2025-11-07 12:31:25.796179,28,2025-11-07 12:31:30.033430462
2025-11-07 12:31:25.796179,7936,2025-11-07 12:31:30.041122769
2025-11-07 12:31:25.796179,0,2025-11-07 12:31:30.048815077
2025-11-07 12:31:25.796179,40,2025-11-07 12:31:30.056507385
2025-11-07 12:31:25.796179,10240,2025-11-07 12:31:30.064199692
2025-11-07 12:31:25.796179,0,2025-11-07 12:31:30.071892000
2025-11-07 12:31:25.796179,38,2025-11-07 12:31:30.079584308
2025-11-07 12:31:25.796179,10240,2025-11-07 12:31:30.087276615
2025-11-07 12:31:25.796179,0,2025-11-07 12:31:30.094968923
2025-11-07 12:31:25.796179,40,2025-11-07 12:31:30.102661231
2025-11-07 12:31:25.796179,9728,2025-11-07 12:31:30.110353538
2025-11-07 12:31:25.796179,0,2025-11-07 12:31:30.118045846
2025-11-07 12:31:25.796179,38,2025-11-07 12:31:30.125738154
2025-11-07 12:31:25.796179,9728,2025-11-07 12:31:30.133430462
2025-11-07 12:31:25.796179,0,2025-11-07 12:31:30.141122769
2025-11-07 12:31:25.796179,42,2025-11-07 12:31:30.148815077
2025-11-07 12:31:25.796179,9728,2025-11-07 12:31:30.156507385
2025-11-07 12:31:25.796179,0,2025-11-07 12:31:30.164199692
2025-11-07 12:31:25.796179,31,2025-11-07 12:31:30.171892000
2025-11-07 12:31:25.796179,8960,2025-11-07 12:31:30.179584308
2025-11-07 12:31:25.796179,0,2025-11-07 12:31:30.187276615
2025-11-07 12:31:25.796179,45,2025-11-07 12:31:30.194968923
2025-11-07 12:31:25.796179,11520,2025-11-07 12:31:30.202661231
2025-11-07 12:31:25.796179,0,2025-11-07 12:31:30.210353538
2025-11-07 12:31:25.796179,40,2025-11-07 12:31:30.218045846
2025-11-07 12:31:25.796179,12032,2025-11-07 12:31:30.225738154
2025-11-07 12:31:25.796179,0,2025-11-07 12:31:30.233430462
2025-11-07 12:31:25.796179,52,2025-11-07 12:31:30.241122769
2025-11-07 12:31:25.796179,10240,2025-11-07 12:31:30.248815077
2025-11-07 12:31:25.796179,0,2025-11-07 12:31:30.256507385
2025-11-07 12:31:25.796179,38,2025-11-07 12:31:30.264199692
2025-11-07 12:31:25.796179,11520,2025-11-07 12:31:30.271892000
2025-11-07 12:31:25.796179,0,2025-11-07 12:31:30.279584308
2025-11-07 12:31:25.796179,38,2025-11-07 12:31:30.287276615
2025-11-07 12:31:25.796179,5376,2025-11-07 12:31:30.294968923
2025-11-07 12:31:25.796179,0,2025-11-07 12:31:30.302661231
2025-11-07 12:31:25.796179,16,2025-11-07 12:31:30.310353538
2025-11-07 12:31:25.796179,4096,2025-11-07 12:31:30.318045846
2025-11-07 12:31:25.796179,0,2025-11-07 12:31:30.325738154
2025-11-07 12:31:25.796179,26,2025-11-07 12:31:30.333430462
2025-11-07 12:31:25.796179,12032,2025-11-07 12:31:30.341122769
2025-11-07 12:31:25.796179,0,2025-11-07 12:31:30.348815077
2025-11-07 12:31:25.796179,64,2025-11-07 12:31:30.356507385
2025-11-07 12:31:25.796179,16384,2025-11-07 12:31:30.364199692
2025-11-07 12:31:25.796179,0,2025-11-07 12:31:30.371892000
2025-11-07 12:31:25.796179,59,2025-11-07 12:31:30.379584308
2025-11-07 12:31:25.796179,15104,2025-11-07 12:31:30.387276615
2025-11-07 12:31:25.796179,0,2025-11-07 12:31:30.394968923
2025-11-07 12:31:25.796179,50,2025-11-07 12:31:30.402661231
2025-11-07 12:31:25.796179,9728,2025-11-07 12:31:30.410353538
2025-11-07 12:31:25.796179,0,2025-11-07 12:31:30.418045846
2025-11-07 12:31:25.796179,42,2025-11-07 12:31:30.425738154
2025-11-07 12:31:25.796179,13312,2025-11-07 12:31:30.433430462
2025-11-07 12:31:25.796179,0,2025-11-07 12:31:30.441122769
2025-11-07 12:31:25.796179,59,2025-11-07 12:31:30.448815077
2025-11-07 12:31:25.796179,13312,2025-11-07 12:31:30.456507385
2025-11-07 12:31:25.796179,0,2025-11-07 12:31:30.464199692
2025-11-07 12:31:25.796179,42,2025-11-07 12:31:30.471892000
2025-11-07 12:31:25.796179,10752,2025-11-07 12:31:30.479584308
2025-11-07 12:31:25.796179,0,2025-11-07 12:31:30.487276615
2025-11-07 12:31:25.796179,45,2025-11-07 12:31:30.494968923
2025-11-07 12:31:25.796179,10752,2025-11-07 12:31:30.502661230
2025-11-07 12:31:25.796179,0,2025-11-07 12:31:30.510353538
2025-11-07 12:31:25.796179,40,2025-11-07 12:31:30.518045846
2025-11-07 12:31:25.796179,10752,2025-11-07 12:31:30.525738154
2025-11-07 12:31:25.796179,0,2025-11-07 12:31:30.533430462
2025-11-07 12:31:25.796179,38,2025-11-07 12:31:30.541122769
2025-11-07 12:31:26.334944,0,2025-11-07 12:31:30.548815077
2025-11-07 12:31:26.334944,512,2025-11-07 12:31:30.556507385
2025-11-07 12:31:26.334944,0,2025-11-07 12:31:30.564199692
2025-11-07 12:31:26.334944,327,2025-11-07 12:31:30.571892000
2025-11-07 12:31:26.334944,-9728,2025-11-07 12:31:30.579584308
2025-11-07 12:31:26.334944,3,2025-11-07 12:31:30.587276615
2025-11-07 12:31:26.334944,1184,2025-11-07 12:31:30.594968923
2025-11-07 12:31:26.334944,10752,2025-11-07 12:31:30.602661231
2025-11-07 12:31:26.334944,2,2025-11-07 12:31:30.610353538
2025-11-07 12:31:26.334944,-9,2025-11-07 12:31:30.618045846
2025-11-07 12:31:26.334944,-769,2025-11-07 12:31:30.625738154
2025-11-07 12:31:26.334944,-1,2025-11-07 12:31:30.633430462
2025-11-07 12:31:26.334944,50,2025-11-07 12:31:30.641122769
2025-11-07 12:31:26.334944,-21248,2025-11-07 12:31:30.648815077
2025-11-07 12:31:26.334944,-1,2025-11-07 12:31:30.656507385
2025-11-07 12:31:26.334944,-136,2025-11-07 12:31:30.664199692
2025-11-07 12:31:26.334944,-22785,2025-11-07 12:31:30.671892000
2025-11-07 12:31:26.334944,-1,2025-11-07 12:31:30.679584308
2025-11-07 12:31:26.334944,-95,2025-11-07 12:31:30.687276615
2025-11-07 12:31:26.334944,-28417,2025-11-07 12:31:30.694968923
2025-11-07 12:31:26.334944,-1,2025-11-07 12:31:30.702661231
2025-11-07 12:31:26.334944,-88,2025-11-07 12:31:30.710353538
2025-11-07 12:31:26.334944,-19713,2025-11-07 12:31:30.718045846
2025-11-07 12:31:26.334944,-1,2025-11-07 12:31:30.725738154
2025-11-07 12:31:26.334944,-88,2025-11-07 12:31:30.733430462
2025-11-07 12:31:26.334944,-21505,2025-11-07 12:31:30.741122769
2025-11-07 12:31:26.334944,-1,2025-11-07 12:31:30.748815077
2025-11-07 12:31:26.334944,-83,2025-11-07 12:31:30.756507385
2025-11-07 12:31:26.334944,-22273,2025-11-07 12:31:30.764199692
2025-11-07 12:31:26.334944,-1,2025-11-07 12:31:30.771892000
2025-11-07 12:31:26.334944,-85,2025-11-07 12:31:30.779584308
2025-11-07 12:31:26.334944,-20481,2025-11-07 12:31:30.787276615
2025-11-07 12:31:26.334944,-1,2025-11-07 12:31:30.794968923
2025-11-07 12:31:26.334944,-78,2025-11-07 12:31:30.802661231
2025-11-07 12:31:26.334944,-20481,2025-11-07 12:31:30.810353538
2025-11-07 12:31:26.334944,-1,2025-11-07 12:31:30.818045846
2025-11-07 12:31:26.334944,-81,2025-11-07 12:31:30.825738154
2025-11-07 12:31:26.334944,-21505,2025-11-07 12:31:30.833430462
2025-11-07 12:31:26.334944,-1,2025-11-07 12:31:30.841122769
2025-11-07 12:31:26.334944,-88,2025-11-07 12:31:30.848815077
2025-11-07 12:31:26.334944,-20481,2025-11-07 12:31:30.856507385
2025-11-07 12:31:26.334944,-1,2025-11-07 12:31:30.864199692
2025-11-07 12:31:26.334944,-74,2025-11-07 12:31:30.871892000
2025-11-07 12:31:26.334944,-19201,2025-11-07 12:31:30.879584308
2025-11-07 12:31:26.334944,-1,2025-11-07 12:31:30.887276615
2025-11-07 12:31:26.334944,-71,2025-11-07 12:31:30.894968923
2025-11-07 12:31:26.334944,-13569,2025-11-07 12:31:30.902661231
2025-11-07 12:31:26.334944,-1,2025-11-07 12:31:30.910353538
2025-11-07 12:31:26.334944,-40,2025-11-07 12:31:30.918045846
2025-11-07 12:31:26.334944,-9473,2025-11-07 12:31:30.925738154
2025-11-07 12:31:26.334944,-1,2025-11-07 12:31:30.933430462
2025-11-07 12:31:26.334944,-26,2025-11-07 12:31:30.941122769
2025-11-07 12:31:26.334944,-1537,2025-11-07 12:31:30.948815077
2025-11-07 12:31:26.334944,-1,2025-11-07 12:31:30.956507385
2025-11-07 12:31:26.334944,-2,2025-11-07 12:31:30.964199692
2025-11-07 12:31:26.334944,255,2025-11-07 12:31:30.971892000
2025-11-07 12:31:26.334944,0,2025-11-07 12:31:30.979584308
2025-11-07 12:31:26.334944,11,2025-11-07 12:31:30.987276615
2025-11-07 12:31:26.334944,4096,2025-11-07 12:31:30.994968923
2025-11-07 12:31:26.334944,0,2025-11-07 12:31:31.002661231
2025-11-07 12:31:26.334944,16,2025-11-07 12:31:31.010353538
2025-11-07 12:31:26.334944,7168,2025-11-07 12:31:31.018045846
2025-11-07 12:31:26.334944,0,2025-11-07 12:31:31.025738154
2025-11-07 12:31:26.334944,31,2025-11-07 12:31:31.033430462
2025-11-07 12:31:26.334944,5376,2025-11-07 12:31:31.041122769
2025-11-07 12:31:26.334944,0,2025-11-07 12:31:31.048815077
2025-11-07 12:31:26.334944,16,2025-11-07 12:31:31.056507385
2025-11-07 12:31:26.334944,5376,2025-11-07 12:31:31.064199692
2025-11-07 12:31:26.334944,0,2025-11-07 12:31:31.071892000
2025-11-07 12:31:26.334944,19,2025-11-07 12:31:31.079584308
2025-11-07 12:31:26.334944,4096,2025-11-07 12:31:31.087276615
2025-11-07 12:31:26.334944,0,2025-11-07 12:31:31.094968923
2025-11-07 12:31:26.334944,19,2025-11-07 12:31:31.102661231
2025-11-07 12:31:26.334944,5376,2025-11-07 12:31:31.110353538
2025-11-07 12:31:26.334944,0,2025-11-07 12:31:31.118045846
2025-11-07 12:31:26.334944,19,2025-11-07 12:31:31.125738154
2025-11-07 12:31:26.334944,3584,2025-11-07 12:31:31.133430462
2025-11-07 12:31:26.334944,0,2025-11-07 12:31:31.141122769
2025-11-07 12:31:26.334944,14,2025-11-07 12:31:31.148815077
2025-11-07 12:31:26.334944,4096,2025-11-07 12:31:31.156507385
2025-11-07 12:31:26.334944,0,2025-11-07 12:31:31.164199692
2025-11-07 12:31:26.334944,19,2025-11-07 12:31:31.171892000
2025-11-07 12:31:26.334944,5888,2025-11-07 12:31:31.179584308
2025-11-07 12:31:26.334944,0,2025-11-07 12:31:31.187276615
2025-11-07 12:31:26.334944,33,2025-11-07 12:31:31.194968923
2025-11-07 12:31:26.334944,8448,2025-11-07 12:31:31.202661231
2025-11-07 12:31:26.334944,0,2025-11-07 12:31:31.210353538
2025-11-07 12:31:26.334944,35,2025-11-07 12:31:31.218045846
2025-11-07 12:31:26.334944,9728,2025-11-07 12:31:31.225738154
2025-11-07 12:31:26.334944,0,2025-11-07 12:31:31.233430462
2025-11-07 12:31:26.334944,35,2025-11-07 12:31:31.241122769
2025-11-07 12:31:26.334944,8448,2025-11-07 12:31:31.248815077
2025-11-07 12:31:26.334944,0,2025-11-07 12:31:31.256507385
2025-11-07 12:31:26.334944,38,2025-11-07 12:31:31.264199692
2025-11-07 12:31:26.334944,10240,2025-11-07 12:31:31.271892000
2025-11-07 12:31:26.334944,0,2025-11-07 12:31:31.279584308
2025-11-07 12:31:26.334944,42,2025-11-07 12:31:31.287276615
2025-11-07 12:31:26.334944,13312,2025-11-07 12:31:31.294968923
2025-11-07 12:31:26.334944,0,2025-11-07 12:31:31.302661231
2025-11-07 12:31:26.334944,59,2025-11-07 12:31:31.310353538
2025-11-07 12:31:26.334944,14592,2025-11-07 12:31:31.318045846
2025-11-07 12:31:26.334944,0,2025-11-07 12:31:31.325738154
2025-11-07 12:31:26.334944,71,2025-11-07 12:31:31.333430462
2025-11-07 12:31:26.334944,16384,2025-11-07 12:31:31.341122769
2025-11-07 12:31:26.334944,0,2025-11-07 12:31:31.348815077
2025-11-07 12:31:26.334944,42,2025-11-07 12:31:31.356507385
2025-11-07 12:31:26.334944,19456,2025-11-07 12:31:31.364199692
2025-11-07 12:31:26.334944,0,2025-11-07 12:31:31.371892000
2025-11-07 12:31:26.334944,95,2025-11-07 12:31:31.379584308
2025-11-07 12:31:26.919185,66,2025-11-07 12:31:31.387276615
2025-11-07 12:31:26.919185,16896,2025-11-07 12:31:31.394968923
2025-11-07 12:31:26.919185,0,2025-11-07 12:31:31.402661231
2025-11-07 12:31:26.919185,64,2025-11-07 12:31:31.410353538
2025-11-07 12:31:26.919185,10752,2025-11-07 12:31:31.418045846
2025-11-07 12:31:26.919185,0,2025-11-07 12:31:31.425738154
2025-11-07 12:31:26.919185,47,2025-11-07 12:31:31.433430462
2025-11-07 12:31:26.919185,16384,2025-11-07 12:31:31.441122769
2025-11-07 12:31:26.919185,0,2025-11-07 12:31:31.448815077
2025-11-07 12:31:26.919185,74,2025-11-07 12:31:31.456507385
2025-11-07 12:31:26.919185,19456,2025-11-07 12:31:31.464199692
2025-11-07 12:31:26.919185,0,2025-11-07 12:31:31.471892000
2025-11-07 12:31:26.919185,76,2025-11-07 12:31:31.479584308
2025-11-07 12:31:26.919185,23040,2025-11-07 12:31:31.487276615
2025-11-07 12:31:26.919185,0,2025-11-07 12:31:31.494968923
2025-11-07 12:31:26.919185,88,2025-11-07 12:31:31.502661230
2025-11-07 12:31:26.919185,18944,2025-11-07 12:31:31.510353538
2025-11-07 12:31:26.919185,0,2025-11-07 12:31:31.518045846
2025-11-07 12:31:26.919185,71,2025-11-07 12:31:31.525738154
2025-11-07 12:31:26.919185,16384,2025-11-07 12:31:31.533430462
2025-11-07 12:31:26.919185,0,2025-11-07 12:31:31.541122769
2025-11-07 12:31:26.919185,52,2025-11-07 12:31:31.548815077
2025-11-07 12:31:26.919185,15872,2025-11-07 12:31:31.556507385
2025-11-07 12:31:26.919185,0,2025-11-07 12:31:31.564199692
2025-11-07 12:31:26.919185,66,2025-11-07 12:31:31.571892000
2025-11-07 12:31:26.919185,14592,2025-11-07 12:31:31.579584308
2025-11-07 12:31:26.919185,0,2025-11-07 12:31:31.587276615
2025-11-07 12:31:26.919185,42,2025-11-07 12:31:31.594968923
2025-11-07 12:31:26.919185,8960,2025-11-07 12:31:31.602661231
2025-11-07 12:31:26.919185,0,2025-11-07 12:31:31.610353538
2025-11-07 12:31:26.919185,40,2025-11-07 12:31:31.618045846
2025-11-07 12:31:26.919185,11520,2025-11-07 12:31:31.625738154
2025-11-07 12:31:26.919185,0,2025-11-07 12:31:31.633430462
2025-11-07 12:31:26.919185,42,2025-11-07 12:31:31.641122769
2025-11-07 12:31:26.919185,5888,2025-11-07 12:31:31.648815077
2025-11-07 12:31:26.919185,0,2025-11-07 12:31:31.656507385
2025-11-07 12:31:26.919185,-9,2025-11-07 12:31:31.664199692
2025-11-07 12:31:26.919185,2047,2025-11-07 12:31:31.671892000
2025-11-07 12:31:26.919185,0,2025-11-07 12:31:31.679584308
2025-11-07 12:31:26.919185,324,2025-11-07 12:31:31.687276615
2025-11-07 12:31:26.919185,-10240,2025-11-07 12:31:31.694968923
2025-11-07 12:31:26.919185,3,2025-11-07 12:31:31.702661231
2025-11-07 12:31:26.919185,1210,2025-11-07 12:31:31.710353538
2025-11-07 12:31:26.919185,20992,2025-11-07 12:31:31.718045846
2025-11-07 12:31:26.919185,2,2025-11-07 12:31:31.725738154
2025-11-07 12:31:26.919185,16,2025-11-07 12:31:31.733430462
2025-11-07 12:31:26.919185,-1024,2025-11-07 12:31:31.741122769
2025-11-07 12:31:26.919185,-1,2025-11-07 12:31:31.748815077
2025-11-07 12:31:26.919185,28,2025-11-07 12:31:31.756507385
2025-11-07 12:31:26.919185,-28672,2025-11-07 12:31:31.764199692
2025-11-07 12:31:26.919185,-1,2025-11-07 12:31:31.771892000
2025-11-07 12:31:26.919185,-169,2025-11-07 12:31:31.779584308
2025-11-07 12:31:26.919185,-30721,2025-11-07 12:31:31.787276615
2025-11-07 12:31:26.919185,-1,2025-11-07 12:31:31.794968923
2025-11-07 12:31:26.919185,-124,2025-11-07 12:31:31.802661231
2025-11-07 12:31:26.919185,30463,2025-11-07 12:31:31.810353538
2025-11-07 12:31:26.919185,-1,2025-11-07 12:31:31.818045846
2025-11-07 12:31:26.919185,-119,2025-11-07 12:31:31.825738154
2025-11-07 12:31:26.919185,-27649,2025-11-07 12:31:31.833430462
2025-11-07 12:31:26.919185,-1,2025-11-07 12:31:31.841122769
2025-11-07 12:31:26.919185,-114,2025-11-07 12:31:31.848815077
2025-11-07 12:31:26.919185,-28417,2025-11-07 12:31:31.856507385
2025-11-07 12:31:26.919185,-1,2025-11-07 12:31:31.864199692
2025-11-07 12:31:26.919185,-105,2025-11-07 12:31:31.871892000
2025-11-07 12:31:26.919185,-26625,2025-11-07 12:31:31.879584308
2025-11-07 12:31:26.919185,-1,2025-11-07 12:31:31.887276615
2025-11-07 12:31:26.919185,-105,2025-11-07 12:31:31.894968923
2025-11-07 12:31:26.919185,-24577,2025-11-07 12:31:31.902661231
2025-11-07 12:31:26.919185,-1,2025-11-07 12:31:31.910353538
2025-11-07 12:31:26.919185,-88,2025-11-07 12:31:31.918045846
2025-11-07 12:31:26.919185,-21505,2025-11-07 12:31:31.925738154
2025-11-07 12:31:26.919185,-1,2025-11-07 12:31:31.933430462
2025-11-07 12:31:26.919185,-90,2025-11-07 12:31:31.941122769
2025-11-07 12:31:26.919185,-24065,2025-11-07 12:31:31.948815077
2025-11-07 12:31:26.919185,-1,2025-11-07 12:31:31.956507385
2025-11-07 12:31:26.919185,-90,2025-11-07 12:31:31.964199692
2025-11-07 12:31:26.919185,-20993,2025-11-07 12:31:31.971892000
2025-11-07 12:31:26.919185,-1,2025-11-07 12:31:31.979584308
2025-11-07 12:31:26.919185,-88,2025-11-07 12:31:31.987276615
2025-11-07 12:31:26.919185,-19713,2025-11-07 12:31:31.994968923
2025-11-07 12:31:26.919185,-1,2025-11-07 12:31:32.002661231
2025-11-07 12:31:26.919185,-54,2025-11-07 12:31:32.010353538
2025-11-07 12:31:26.919185,-11777,2025-11-07 12:31:32.018045846
2025-11-07 12:31:26.919185,-1,2025-11-07 12:31:32.025738154
2025-11-07 12:31:26.919185,-62,2025-11-07 12:31:32.033430462
2025-11-07 12:31:26.919185,-13057,2025-11-07 12:31:32.041122769
2025-11-07 12:31:26.919185,-1,2025-11-07 12:31:32.048815077
2025-11-07 12:31:26.919185,-19,2025-11-07 12:31:32.056507385
2025-11-07 12:31:26.919185,-2049,2025-11-07 12:31:32.064199692
2025-11-07 12:31:26.919185,-1,2025-11-07 12:31:32.071892000
2025-11-07 12:31:26.919185,-16,2025-11-07 12:31:32.079584308
2025-11-07 12:31:26.919185,-2049,2025-11-07 12:31:32.087276615
2025-11-07 12:31:26.919185,-1,2025-11-07 12:31:32.094968923
2025-11-07 12:31:26.919185,2,2025-11-07 12:31:32.102661231
2025-11-07 12:31:26.919185,2816,2025-11-07 12:31:32.110353538
2025-11-07 12:31:26.919185,0,2025-11-07 12:31:32.118045846
2025-11-07 12:31:26.919185,16,2025-11-07 12:31:32.125738154
2025-11-07 12:31:26.919185,2304,2025-11-07 12:31:32.133430462
2025-11-07 12:31:26.919185,0,2025-11-07 12:31:32.141122769
2025-11-07 12:31:26.919185,9,2025-11-07 12:31:32.148815077
2025-11-07 12:31:26.919185,3584,2025-11-07 12:31:32.156507385
2025-11-07 12:31:26.919185,0,2025-11-07 12:31:32.164199692
2025-11-07 12:31:26.919185,11,2025-11-07 12:31:32.171892000
2025-11-07 12:31:26.919185,1024,2025-11-07 12:31:32.179584308
2025-11-07 12:31:26.919185,0,2025-11-07 12:31:32.187276615
2025-11-07 12:31:26.919185,-4,2025-11-07 12:31:32.194968923
2025-11-07 12:31:26.919185,-769,2025-11-07 12:31:32.202661231
2025-11-07 12:31:26.919185,-1,2025-11-07 12:31:32.210353538
2025-11-07 12:31:26.919185,2,2025-11-07 12:31:32.218045846
2025-11-07 12:31:27.504348,-4,2025-11-07 12:31:32.225738154
2025-11-07 12:31:27.504348,-1537,2025-11-07 12:31:32.233430462
2025-11-07 12:31:27.504348,-1,2025-11-07 12:31:32.241122769
2025-11-07 12:31:27.504348,0,2025-11-07 12:31:32.248815077
2025-11-07 12:31:27.504348,-1792,2025-11-07 12:31:32.256507385
2025-11-07 12:31:27.504348,-1,2025-11-07 12:31:32.264199692
2025-11-07 12:31:27.504348,-14,2025-11-07 12:31:32.271892000
2025-11-07 12:31:27.504348,-1537,2025-11-07 12:31:32.279584308
2025-11-07 12:31:27.504348,-1,2025-11-07 12:31:32.287276615
2025-11-07 12:31:27.504348,0,2025-11-07 12:31:32.294968923
2025-11-07 12:31:27.504348,-512,2025-11-07 12:31:32.302661231
2025-11-07 12:31:27.504348,-1,2025-11-07 12:31:32.310353538
2025-11-07 12:31:27.504348,2,2025-11-07 12:31:32.318045846
2025-11-07 12:31:27.504348,5888,2025-11-07 12:31:32.325738154
2025-11-07 12:31:27.504348,0,2025-11-07 12:31:32.333430462
2025-11-07 12:31:27.504348,28,2025-11-07 12:31:32.341122769
2025-11-07 12:31:27.504348,3584,2025-11-07 12:31:32.348815077
2025-11-07 12:31:27.504348,0,2025-11-07 12:31:32.356507385
2025-11-07 12:31:27.504348,9,2025-11-07 12:31:32.364199692
2025-11-07 12:31:27.504348,2816,2025-11-07 12:31:32.371892000
2025-11-07 12:31:27.504348,0,2025-11-07 12:31:32.379584308
2025-11-07 12:31:27.504348,14,2025-11-07 12:31:32.387276615
2025-11-07 12:31:27.504348,4864,2025-11-07 12:31:32.394968923
2025-11-07 12:31:27.504348,0,2025-11-07 12:31:32.402661231
2025-11-07 12:31:27.504348,19,2025-11-07 12:31:32.410353538
2025-11-07 12:31:27.504348,2304,2025-11-07 12:31:32.418045846
2025-11-07 12:31:27.504348,0,2025-11-07 12:31:32.425738154
2025-11-07 12:31:27.504348,-2,2025-11-07 12:31:32.433430462
2025-11-07 12:31:27.504348,-1537,2025-11-07 12:31:32.441122769
2025-11-07 12:31:27.504348,-1,2025-11-07 12:31:32.448815077
2025-11-07 12:31:27.504348,2,2025-11-07 12:31:32.456507385
2025-11-07 12:31:27.504348,3584,2025-11-07 12:31:32.464199692
2025-11-07 12:31:27.504348,0,2025-11-07 12:31:32.471892000
2025-11-07 12:31:27.504348,19,2025-11-07 12:31:32.479584308
2025-11-07 12:31:27.504348,8448,2025-11-07 12:31:32.487276615
2025-11-07 12:31:27.504348,0,2025-11-07 12:31:32.494968923
2025-11-07 12:31:27.504348,33,2025-11-07 12:31:32.502661230
2025-11-07 12:31:27.504348,5888,2025-11-07 12:31:32.510353538
2025-11-07 12:31:27.504348,0,2025-11-07 12:31:32.518045846
2025-11-07 12:31:27.504348,26,2025-11-07 12:31:32.525738154
2025-11-07 12:31:27.504348,4864,2025-11-07 12:31:32.533430462
2025-11-07 12:31:27.504348,0,2025-11-07 12:31:32.541122769
2025-11-07 12:31:27.504348,2,2025-11-07 12:31:32.548815077
2025-11-07 12:31:27.504348,1024,2025-11-07 12:31:32.556507385
2025-11-07 12:31:27.504348,0,2025-11-07 12:31:32.564199692
2025-11-07 12:31:27.504348,19,2025-11-07 12:31:32.571892000
2025-11-07 12:31:27.504348,3584,2025-11-07 12:31:32.579584308
2025-11-07 12:31:27.504348,0,2025-11-07 12:31:32.587276615
2025-11-07 12:31:27.504348,7,2025-11-07 12:31:32.594968923
2025-11-07 12:31:27.504348,3584,2025-11-07 12:31:32.602661231
2025-11-07 12:31:27.504348,0,2025-11-07 12:31:32.610353538
2025-11-07 12:31:27.504348,7,2025-11-07 12:31:32.618045846
2025-11-07 12:31:27.504348,-2304,2025-11-07 12:31:32.625738154
2025-11-07 12:31:27.504348,-1,2025-11-07 12:31:32.633430462
2025-11-07 12:31:27.504348,-4,2025-11-07 12:31:32.641122769
2025-11-07 12:31:27.504348,2047,2025-11-07 12:31:32.648815077
2025-11-07 12:31:27.504348,0,2025-11-07 12:31:32.656507385
2025-11-07 12:31:27.504348,9,2025-11-07 12:31:32.664199692
2025-11-07 12:31:27.504348,-4096,2025-11-07 12:31:32.671892000
2025-11-07 12:31:27.504348,-1,2025-11-07 12:31:32.679584308
2025-11-07 12:31:27.504348,-57,2025-11-07 12:31:32.687276615
2025-11-07 12:31:27.504348,11775,2025-11-07 12:31:32.694968923
2025-11-07 12:31:27.504348,0,2025-11-07 12:31:32.702661231
2025-11-07 12:31:27.504348,544,2025-11-07 12:31:32.710353538
2025-11-07 12:31:27.504348,23808,2025-11-07 12:31:32.718045846
2025-11-07 12:31:27.504348,4,2025-11-07 12:31:32.725738154
2025-11-07 12:31:27.504348,933,2025-11-07 12:31:32.733430462
2025-11-07 12:31:27.504348,-14336,2025-11-07 12:31:32.741122769
2025-11-07 12:31:27.504348,0,2025-11-07 12:31:32.748815077
2025-11-07 12:31:27.504348,-90,2025-11-07 12:31:32.756507385
2025-11-07 12:31:27.504348,3839,2025-11-07 12:31:32.764199692
2025-11-07 12:31:27.504348,0,2025-11-07 12:31:32.771892000
2025-11-07 12:31:27.504348,-57,2025-11-07 12:31:32.779584308
2025-11-07 12:31:27.504348,16383,2025-11-07 12:31:32.787276615
2025-11-07 12:31:27.504348,-1,2025-11-07 12:31:32.794968923
2025-11-07 12:31:27.504348,-174,2025-11-07 12:31:32.802661231
2025-11-07 12:31:27.504348,28671,2025-11-07 12:31:32.810353538
2025-11-07 12:31:27.504348,-1,2025-11-07 12:31:32.818045846
2025-11-07 12:31:27.504348,-164,2025-11-07 12:31:32.825738154
2025-11-07 12:31:27.504348,24319,2025-11-07 12:31:32.833430462
2025-11-07 12:31:27.504348,-1,2025-11-07 12:31:32.841122769
2025-11-07 12:31:27.504348,-152,2025-11-07 12:31:32.848815077
2025-11-07 12:31:27.504348,28671,2025-11-07 12:31:32.856507385
2025-11-07 12:31:27.504348,-1,2025-11-07 12:31:32.864199692
2025-11-07 12:31:27.504348,-128,2025-11-07 12:31:32.871892000
2025-11-07 12:31:27.504348,31743,2025-11-07 12:31:32.879584308
2025-11-07 12:31:27.504348,-1,2025-11-07 12:31:32.887276615
2025-11-07 12:31:27.504348,-136,2025-11-07 12:31:32.894968923
2025-11-07 12:31:27.504348,-30209,2025-11-07 12:31:32.902661231
2025-11-07 12:31:27.504348,-1,2025-11-07 12:31:32.910353538
2025-11-07 12:31:27.504348,-124,2025-11-07 12:31:32.918045846
2025-11-07 12:31:27.504348,26879,2025-11-07 12:31:32.925738154
2025-11-07 12:31:27.504348,-1,2025-11-07 12:31:32.933430462
2025-11-07 12:31:27.504348,-150,2025-11-07 12:31:32.941122769
2025-11-07 12:31:27.504348,30975,2025-11-07 12:31:32.948815077
2025-11-07 12:31:27.504348,-1,2025-11-07 12:31:32.956507385
2025-11-07 12:31:27.504348,-148,2025-11-07 12:31:32.964199692
2025-11-07 12:31:27.504348,24319,2025-11-07 12:31:32.971892000
2025-11-07 12:31:27.504348,-1,2025-11-07 12:31:32.979584308
2025-11-07 12:31:27.504348,-155,2025-11-07 12:31:32.987276615
2025-11-07 12:31:27.504348,26111,2025-11-07 12:31:32.994968923
2025-11-07 12:31:27.504348,-1,2025-11-07 12:31:33.002661231
2025-11-07 12:31:27.504348,-162,2025-11-07 12:31:33.010353538
2025-11-07 12:31:27.504348,28671,2025-11-07 12:31:33.018045846
2025-11-07 12:31:27.504348,-1,2025-11-07 12:31:33.025738154
2025-11-07 12:31:27.504348,-121,2025-11-07 12:31:33.033430462
2025-11-07 12:31:27.504348,-30209,2025-11-07 12:31:33.041122769
2025-11-07 12:31:27.504348,-1,2025-11-07 12:31:33.048815077
2025-11-07 12:31:27.504348,-126,2025-11-07 12:31:33.056507385
2025-11-07 12:31:28.044336,-109,2025-11-07 12:31:33.064199692
2025-11-07 12:31:28.044336,-21505,2025-11-07 12:31:33.071892000
2025-11-07 12:31:28.044336,-1,2025-11-07 12:31:33.079584308
2025-11-07 12:31:28.044336,-74,2025-11-07 12:31:33.087276615
2025-11-07 12:31:28.044336,-17409,2025-11-07 12:31:33.094968923
2025-11-07 12:31:28.044336,-1,2025-11-07 12:31:33.102661231
2025-11-07 12:31:28.044336,-66,2025-11-07 12:31:33.110353538
2025-11-07 12:31:28.044336,-13057,2025-11-07 12:31:33.118045846
2025-11-07 12:31:28.044336,-1,2025-11-07 12:31:33.125738154
2025-11-07 12:31:28.044336,-35,2025-11-07 12:31:33.133430462
