timestamp,ecg
21:38:55.200252,-44
21:38:55.200252,3583
21:38:55.200252,2
21:38:55.200252,1113
21:38:55.200252,11264
21:38:55.200252,4
21:38:55.200252,416
21:38:55.200252,512
21:38:55.200252,0
21:38:55.200252,18
21:38:55.200252,-6656
21:38:55.200252,-1
21:38:55.200252,-111
21:38:55.200252,-18433
21:38:55.200252,-1
21:38:55.200252,-56
21:38:55.200252,-22529
21:38:55.200252,-1
21:38:55.200252,-87
21:38:55.200252,-18433
21:38:55.200252,-1
21:38:55.200252,-71
21:38:55.200252,-16641
21:38:55.200252,-1
21:38:55.200252,-61
21:38:55.200252,-16641
21:38:55.200252,-1
21:38:55.200252,-71
21:38:55.200252,-19713
21:38:55.200252,-1
21:38:55.200252,-80
21:38:55.200252,-18945
21:38:55.200252,-1
21:38:55.200252,-82
21:38:55.200252,-22529
21:38:55.200252,-1
21:38:55.200252,-80
21:38:55.200252,-17153
21:38:55.200252,-1
21:38:55.200252,-63
21:38:55.200252,-14081
21:38:55.200252,-1
21:38:55.200252,-44
21:38:55.200252,-7425
21:38:55.200252,-1
21:38:55.200252,-26
21:38:55.200252,-6401
21:38:55.200252,-1
21:38:55.200252,-18
21:38:55.200252,-1537
21:38:55.200252,-1
21:38:55.200252,-2
21:38:55.200252,767
21:38:55.200252,0
21:38:55.200252,9
21:38:55.200252,2816
21:38:55.200252,0
21:38:55.200252,16
21:38:55.200252,7168
21:38:55.200252,0
21:38:55.200252,28
21:38:55.200252,5888
21:38:55.200252,0
21:38:55.200252,23
21:38:55.200252,5376
21:38:55.200252,0
21:38:55.200252,23
21:38:55.200252,5888
21:38:55.200252,0
21:38:55.200252,16
21:38:55.200252,4608
21:38:55.200252,0
21:38:55.200252,23
21:38:55.200252,7680
21:38:55.200252,0
21:38:55.200252,33
21:38:55.200252,5888
21:38:55.200252,0
21:38:55.200252,21
21:38:55.200252,8448
21:38:55.200252,0
21:38:55.200252,37
21:38:55.200252,8448
21:38:55.200252,0
21:38:55.200252,33
21:38:55.200252,9472
21:38:55.200252,0
21:38:55.200252,40
21:38:55.200252,8960
21:38:55.200252,0
21:38:55.200252,33
21:38:55.200252,7168
21:38:55.200252,0
21:38:55.200252,28
21:38:55.200252,8448
21:38:55.200252,0
21:38:55.200252,30
21:38:55.200252,5888
21:38:55.200252,0
21:38:55.200252,21
21:38:55.200252,5888
21:38:55.200252,0
21:38:55.200252,21
21:38:55.200252,512
21:38:55.200252,0
21:38:55.200252,-18
21:38:55.200252,-5121
21:38:55.200252,-1
21:38:55.200252,14
21:38:55.799975,54
21:38:55.799975,16896
21:38:55.799975,0
21:38:55.799975,56
21:38:55.799975,9472
21:38:55.799975,0
21:38:55.799975,26
21:38:55.799975,7680
21:38:55.799975,0
21:38:55.799975,33
21:38:55.799975,8960
21:38:55.799975,0
21:38:55.799975,52
21:38:55.799975,15616
21:38:55.799975,0
21:38:55.799975,42
21:38:55.799975,-8960
21:38:55.799975,-1
21:38:55.799975,-158
21:38:55.799975,-18945
21:38:55.799975,-1
21:38:55.799975,438
21:38:55.799975,29952
21:38:55.799975,4
21:38:55.799975,1295
21:38:55.799975,-29440
21:38:55.799975,2
21:38:55.799975,52
21:38:55.799975,-7680
21:38:55.799975,-1
21:38:55.799975,-37
21:38:55.799975,-29953
21:38:55.799975,-1
21:38:55.799975,-111
21:38:55.799975,-22529
21:38:55.799975,-1
21:38:55.799975,-108
21:38:55.799975,-26369
21:38:55.799975,-1
21:38:55.799975,-94
21:38:55.799975,-25089
21:38:55.799975,-1
21:38:55.799975,-97
21:38:55.799975,-22529
21:38:55.799975,-1
21:38:55.799975,-92
21:38:55.799975,-23297
21:38:55.799975,-1
21:38:55.799975,-97
21:38:55.799975,-26881
21:38:55.799975,-1
21:38:55.799975,-113
21:38:55.799975,-29953
21:38:55.799975,-1
21:38:55.799975,-113
21:38:55.799975,-27393
21:38:55.799975,-1
21:38:55.799975,-94
21:38:55.799975,-19713
21:38:55.799975,-1
21:38:55.799975,-61
21:38:55.799975,-9985
21:38:55.799975,-1
21:38:55.799975,-23
21:38:55.799975,-4353
21:38:55.799975,-1
21:38:55.799975,-14
21:38:55.799975,-2049
21:38:55.799975,-1
21:38:55.799975,-2
21:38:55.799975,2559
21:38:55.799975,0
21:38:55.799975,23
21:38:55.799975,7680
21:38:55.799975,0
21:38:55.799975,37
21:38:55.799975,10240
21:38:55.799975,0
21:38:55.799975,47
21:38:55.799975,10752
21:38:55.799975,0
21:38:55.799975,37
21:38:55.799975,11264
21:38:55.799975,0
21:38:55.799975,54
21:38:55.799975,14336
21:38:55.799975,0
21:38:55.799975,44
21:38:55.799975,9472
21:38:55.799975,0
21:38:55.799975,47
21:38:55.799975,13312
21:38:55.799975,0
21:38:55.799975,44
21:38:55.799975,9472
21:38:55.799975,0
21:38:55.799975,47
21:38:55.799975,13824
21:38:55.799975,0
21:38:55.799975,49
21:38:55.799975,15104
21:38:55.799975,0
21:38:55.799975,68
21:38:55.799975,17408
21:38:55.799975,0
21:38:55.799975,73
21:38:55.799975,19968
21:38:55.799975,0
21:38:55.799975,71
21:38:56.349539,68
21:38:56.349539,18176
21:38:56.349539,0
21:38:56.349539,71
21:38:56.349539,18688
21:38:56.349539,0
21:38:56.349539,63
21:38:56.349539,15616
21:38:56.349539,0
21:38:56.349539,66
21:38:56.349539,16128
21:38:56.349539,0
21:38:56.349539,54
21:38:56.349539,12032
21:38:56.349539,0
21:38:56.349539,37
21:38:56.349539,4608
21:38:56.349539,0
21:38:56.349539,11
21:38:56.349539,8960
21:38:56.349539,0
21:38:56.349539,80
21:38:56.349539,27136
21:38:56.349539,0
21:38:56.349539,97
21:38:56.349539,21760
21:38:56.349539,0
21:38:56.349539,80
21:38:56.349539,18176
21:38:56.349539,0
21:38:56.349539,66
21:38:56.349539,18176
21:38:56.349539,0
21:38:56.349539,63
21:38:56.349539,15104
21:38:56.349539,0
21:38:56.349539,59
21:38:56.349539,4096
21:38:56.349539,0
21:38:56.349539,-94
21:38:56.349539,27647
21:38:56.349539,-1
21:38:56.349539,144
21:38:56.349539,14848
21:38:56.349539,3
21:38:56.349539,1340
21:38:56.349539,768
21:38:56.349539,4
21:38:56.349539,284
21:38:56.349539,-5888
21:38:56.349539,-1
21:38:56.349539,-16
21:38:56.349539,-23297
21:38:56.349539,-1
21:38:56.349539,-130
21:38:56.349539,-23809
21:38:56.349539,-1
21:38:56.349539,-99
21:38:56.349539,-29441
21:38:56.349539,-1
21:38:56.349539,-106
21:38:56.349539,-25089
21:38:56.349539,-1
21:38:56.349539,-99
21:38:56.349539,-25089
21:38:56.349539,-1
21:38:56.349539,-101
21:38:56.349539,-25601
21:38:56.349539,-1
21:38:56.349539,-104
21:38:56.349539,-28161
21:38:56.349539,-1
21:38:56.349539,-118
21:38:56.349539,-30465
21:38:56.349539,-1
21:38:56.349539,-125
21:38:56.349539,-31233
21:38:56.349539,-1
21:38:56.349539,-120
21:38:56.349539,-31233
21:38:56.349539,-1
21:38:56.349539,-113
21:38:56.349539,-23297
21:38:56.349539,-1
21:38:56.349539,-75
21:38:56.349539,-16641
21:38:56.349539,-1
21:38:56.349539,-59
21:38:56.349539,-11777
21:38:56.349539,-1
21:38:56.349539,-33
21:38:56.349539,-4353
21:38:56.349539,-1
21:38:56.349539,-4
21:38:56.349539,767
21:38:56.349539,0
21:38:56.349539,11
21:38:56.349539,6656
21:38:56.349539,0
21:38:56.349539,21
21:38:56.349539,2816
21:38:56.349539,0
21:38:56.349539,21
21:38:56.349539,5376
21:38:56.349539,0
21:38:56.349539,14
21:38:56.349539,4608
21:38:56.349539,0
21:38:56.349539,16
21:38:56.945701,11
21:38:56.945701,3584
21:38:56.945701,0
21:38:56.945701,18
21:38:56.945701,4096
21:38:56.945701,0
21:38:56.945701,14
21:38:56.945701,5376
21:38:56.945701,0
21:38:56.945701,26
21:38:56.945701,6656
21:38:56.945701,0
21:38:56.945701,28
21:38:56.945701,6656
21:38:56.945701,0
21:38:56.945701,28
21:38:56.945701,10752
21:38:56.945701,0
21:38:56.945701,59
21:38:56.945701,16896
21:38:56.945701,0
21:38:56.945701,56
21:38:56.945701,12544
21:38:56.945701,0
21:38:56.945701,37
21:38:56.945701,4608
21:38:56.945701,0
21:38:56.945701,11
21:38:56.945701,2304
21:38:56.945701,0
21:38:56.945701,28
21:38:56.945701,19200
21:38:56.945701,0
21:38:56.945701,97
21:38:56.945701,19200
21:38:56.945701,0
21:38:56.945701,44
21:38:56.945701,7168
21:38:56.945701,0
21:38:56.945701,28
21:38:56.945701,9472
21:38:56.945701,0
21:38:56.945701,42
21:38:56.945701,10240
21:38:56.945701,0
21:38:56.945701,33
21:38:56.945701,6656
21:38:56.945701,0
21:38:56.945701,-49
21:38:56.945701,16127
21:38:56.945701,-1
21:38:56.945701,-130
21:38:56.945701,-23041
21:38:56.945701,1
21:38:56.945701,1146
21:38:56.945701,-7680
21:38:56.945701,4
21:38:56.945701,594
21:38:56.945701,10752
21:38:56.945701,0
21:38:56.945701,-18
21:38:56.945701,-13057
21:38:56.945701,-1
21:38:56.945701,-151
21:38:56.945701,30719
21:38:56.945701,-1
21:38:56.945701,-113
21:38:56.945701,30719
21:38:56.945701,-1
21:38:56.945701,-134
21:38:56.945701,-29953
21:38:56.945701,-1
21:38:56.945701,-118
21:38:56.945701,-27393
21:38:56.945701,-1
21:38:56.945701,-104
21:38:56.945701,-28161
21:38:56.945701,-1
21:38:56.945701,-118
21:38:56.945701,-28673
21:38:56.945701,-1
21:38:56.945701,-120
21:38:56.945701,31487
21:38:56.945701,-1
21:38:56.945701,-137
21:38:56.945701,30719
21:38:56.945701,-1
21:38:56.945701,-149
21:38:56.945701,27647
21:38:56.945701,-1
21:38:56.945701,-134
21:38:56.945701,-31233
21:38:56.945701,-1
21:38:56.945701,-111
21:38:56.945701,-23297
21:38:56.945701,-1
21:38:56.945701,-80
21:38:56.945701,-15873
21:38:56.945701,-1
21:38:56.945701,-40
21:38:56.945701,-3841
21:38:56.945701,-1
21:38:56.945701,-9
21:38:56.945701,1279
21:38:56.945701,0
21:38:56.945701,30
21:38:56.945701,10240
21:38:56.945701,0
21:38:56.945701,35
21:38:57.548405,28
21:38:57.548405,5888
21:38:57.548405,0
21:38:57.548405,33
21:38:57.548405,9472
21:38:57.548405,0
21:38:57.548405,33
21:38:57.548405,7680
21:38:57.548405,0
21:38:57.548405,30
21:38:57.548405,6656
21:38:57.548405,0
21:38:57.548405,28
21:38:57.548405,7680
21:38:57.548405,0
21:38:57.548405,35
21:38:57.548405,13312
21:38:57.548405,0
21:38:57.548405,71
21:38:57.548405,16128
21:38:57.548405,0
21:38:57.548405,56
21:38:57.548405,16128
21:38:57.548405,0
21:38:57.548405,56
21:38:57.548405,12544
21:38:57.548405,0
21:38:57.548405,56
21:38:57.548405,12032
21:38:57.548405,0
21:38:57.548405,28
21:38:57.548405,6656
21:38:57.548405,0
21:38:57.548405,37
21:38:57.548405,18176
21:38:57.548405,0
21:38:57.548405,108
21:38:57.548405,26624
21:38:57.548405,0
21:38:57.548405,66
21:38:57.548405,11264
21:38:57.548405,0
21:38:57.548405,49
21:38:57.548405,13312
21:38:57.548405,0
21:38:57.548405,47
21:38:57.548405,10240
21:38:57.548405,0
21:38:57.548405,40
21:38:57.548405,11264
21:38:57.548405,0
21:38:57.548405,-2
21:38:57.548405,28415
21:38:57.548405,-1
21:38:57.548405,-201
21:38:57.548405,-19457
21:38:57.548405,0
21:38:57.548405,961
21:38:57.548405,-32000
21:38:57.548405,5
21:38:57.548405,944
21:38:57.548405,-10496
21:38:57.548405,0
21:38:57.548405,4
21:38:57.548405,-2816
21:38:57.548405,-1
21:38:57.548405,-125
21:38:57.548405,31487
21:38:57.548405,-1
21:38:57.548405,-92
21:38:57.548405,-30465
21:38:57.548405,-1
21:38:57.548405,-134
21:38:57.548405,-26881
21:38:57.548405,-1
21:38:57.548405,-111
21:38:57.548405,32511
21:38:57.548405,-1
21:38:57.548405,-113
21:38:57.548405,-26881
21:38:57.548405,-1
21:38:57.548405,-120
21:38:57.548405,-32257
21:38:57.548405,-1
21:38:57.548405,-127
21:38:57.548405,31487
21:38:57.548405,-1
21:38:57.548405,-144
21:38:57.548405,27135
21:38:57.548405,-1
21:38:57.548405,-156
21:38:57.548405,28927
21:38:57.548405,-1
21:38:57.548405,-130
21:38:57.548405,-32257
21:38:57.548405,-1
21:38:57.548405,-113
21:38:57.548405,-21505
21:38:57.548405,-1
21:38:57.548405,-71
21:38:57.548405,-14081
21:38:57.548405,-1
21:38:57.548405,-35
21:38:57.548405,-2561
21:38:57.548405,-1
21:38:57.548405,9
21:38:57.548405,7168
21:38:57.548405,0
21:38:57.548405,26
21:38:58.045849,23
21:38:58.045849,8448
21:38:58.045849,0
21:38:58.045849,37
21:38:58.045849,8960
21:38:58.045849,0
21:38:58.045849,37
21:38:58.045849,8960
21:38:58.045849,0
21:38:58.045849,28
21:38:58.045849,4096
21:38:58.045849,0
21:38:58.045849,14
21:38:58.045849,6656
21:38:58.045849,0
21:38:58.045849,26
21:38:58.045849,4608
21:38:58.045849,0
21:38:58.045849,21
21:38:58.045849,4096
21:38:58.045849,0
21:38:58.045849,4
21:38:58.045849,4096
21:38:58.045849,0
21:38:58.045849,35
21:38:58.045849,7680
21:38:58.045849,0
21:38:58.045849,16
21:38:58.045849,1792
21:38:58.045849,0
21:38:58.045849,-9
21:38:58.045849,-3841
21:38:58.045849,-1
21:38:58.045849,18
21:38:58.045849,19200
21:38:58.045849,0
21:38:58.045849,89
21:38:58.045849,18688
21:38:58.045849,0
21:38:58.045849,63
21:38:58.045849,14336
21:38:58.045849,0
21:38:58.045849,61
21:38:58.045849,17408
21:38:58.045849,0
21:38:58.045849,61
21:38:58.045849,13312
21:38:58.045849,0
21:38:58.045849,49
21:38:58.045849,14336
21:38:58.045849,0
21:38:58.045849,4
21:38:58.045849,29952
21:38:58.045849,-1
21:38:58.045849,-165
21:38:58.045849,-4097
21:38:58.045849,0
21:38:58.045849,980
21:38:58.045849,15360
21:38:58.045849,5
21:38:58.045849,843
21:38:58.045849,-20224
21:38:58.045849,0
21:38:58.045849,9
21:38:58.045849,-2816
21:38:58.045849,-1
21:38:58.045849,-106
21:38:58.045849,-27393
21:38:58.045849,-1
21:38:58.045849,-80
21:38:58.045849,-27393
21:38:58.045849,-1
21:38:58.045849,-116
21:38:58.045849,-23297
21:38:58.045849,-1
21:38:58.045849,-99
21:38:58.045849,-29441
21:38:58.045849,-1
21:38:58.045849,-108
21:38:58.045849,-25601
21:38:58.045849,-1
21:38:58.045849,-99
21:38:58.045849,-23297
21:38:58.045849,-1
21:38:58.045849,-94
21:38:58.045849,-27393
21:38:58.045849,-1
21:38:58.045849,-118
21:38:58.045849,-31233
21:38:58.045849,-1
21:38:58.045849,-130
21:38:58.045849,-31745
21:38:58.045849,-1
21:38:58.045849,-116
21:38:58.045849,-25089
21:38:58.045849,-1
21:38:58.045849,-78
21:38:58.045849,-17921
21:38:58.045849,-1
21:38:58.045849,-71
21:38:58.045849,-13569
21:38:58.045849,-1
21:38:58.045849,-18
21:38:58.045849,1279
21:38:58.045849,0
21:38:58.045849,0
21:38:58.045849,512
21:38:58.045849,0
21:38:58.045849,33
21:38:58.599401,42
21:38:58.599401,7168
21:38:58.599401,0
21:38:58.599401,28
21:38:58.599401,8960
21:38:58.599401,0
21:38:58.599401,28
21:38:58.599401,4608
21:38:58.599401,0
21:38:58.599401,16
21:38:58.599401,6656
21:38:58.599401,0
21:38:58.599401,33
21:38:58.599401,5376
21:38:58.599401,0
21:38:58.599401,26
21:38:58.599401,7680
21:38:58.599401,0
21:38:58.599401,7
21:38:58.599401,2816
21:38:58.599401,0
21:38:58.599401,37
21:38:58.599401,8448
21:38:58.599401,0
21:38:58.599401,14
21:38:58.599401,3584
21:38:58.599401,0
21:38:58.599401,11
21:38:58.599401,1024
21:38:58.599401,0
21:38:58.599401,0
21:38:58.599401,2816
21:38:58.599401,0
21:38:58.599401,56
21:38:58.599401,22272
21:38:58.599401,0
21:38:58.599401,68
21:38:58.599401,12544
21:38:58.599401,0
21:38:58.599401,52
21:38:58.599401,16896
21:38:58.599401,0
21:38:58.599401,71
21:38:58.599401,13824
21:38:58.599401,0
21:38:58.599401,52
21:38:58.599401,14336
21:38:58.599401,0
21:38:58.599401,42
21:38:58.599401,-5376
21:38:58.599401,-1
21:38:58.599401,-165
21:38:58.599401,20479
21:38:58.599401,-1
21:38:58.599401,262
21:38:58.599401,-4096
21:38:58.599401,3
21:38:58.599401,1338
21:38:58.599401,9472
21:38:58.599401,3
21:38:58.599401,142
21:38:58.599401,3584
21:38:58.599401,0
21:38:58.599401,0
21:38:58.599401,-31488
21:38:58.599401,-1
21:38:58.599401,-104
21:38:58.599401,-15873
21:38:58.599401,-1
21:38:58.599401,-108
21:38:58.599401,-25601
21:38:58.599401,-1
21:38:58.599401,-78
21:38:58.599401,-26369
21:38:58.599401,-1
21:38:58.599401,-118
21:38:58.599401,-23297
21:38:58.599401,-1
21:38:58.599401,-82
21:38:58.599401,-26881
21:38:58.599401,-1
21:38:58.599401,-113
21:38:58.599401,-29441
21:38:58.599401,-1
21:38:58.599401,-125
21:38:58.599401,30207
21:38:58.599401,-1
21:38:58.599401,-165
21:38:58.599401,21759
21:38:58.599401,-1
21:38:58.599401,-149
21:38:58.599401,32511
21:38:58.599401,-1
21:38:58.599401,-130
21:38:58.599401,-27393
21:38:58.599401,-1
21:38:58.599401,-78
21:38:58.599401,-17153
21:38:58.599401,-1
21:38:58.599401,-49
21:38:58.599401,-2049
21:38:58.599401,-1
21:38:58.599401,2
21:38:58.599401,-512
21:38:58.599401,-1
21:38:58.599401,18
21:38:58.599401,13312
21:38:58.599401,0
21:38:58.599401,73
21:38:59.199554,71
21:38:59.199554,15104
21:38:59.199554,0
21:38:59.199554,49
21:38:59.199554,12032
21:38:59.199554,0
21:38:59.199554,42
21:38:59.199554,0
21:38:59.199554,0
21:38:59.199554,-52
21:38:59.199554,-10497
21:38:59.199554,-1
21:38:59.199554,7
21:38:59.199554,9472
21:38:59.199554,0
21:38:59.199554,49
21:38:59.199554,15104
21:38:59.199554,0
21:38:59.199554,66
21:38:59.199554,17408
21:38:59.199554,0
21:38:59.199554,71
21:38:59.199554,14336
21:38:59.199554,0
21:38:59.199554,42
21:38:59.199554,10752
21:38:59.199554,0
21:38:59.199554,52
21:38:59.199554,18688
21:38:59.199554,0
21:38:59.199554,108
21:38:59.199554,30208
21:38:59.199554,0
21:38:59.199554,92
21:38:59.199554,19968
21:38:59.199554,0
21:38:59.199554,85
21:38:59.199554,22784
21:38:59.199554,0
21:38:59.199554,89
21:38:59.199554,22272
21:38:59.199554,0
21:38:59.199554,73
21:38:59.199554,14336
21:38:59.199554,0
21:38:59.199554,35
21:38:59.199554,-16128
21:38:59.199554,-1
21:38:59.199554,-213
21:38:59.199554,-15873
21:38:59.199554,-1
21:38:59.199554,646
21:38:59.199554,-30720
21:38:59.199554,5
21:38:59.199554,1356
21:38:59.199554,15616
21:38:59.199554,2
21:38:59.199554,78
21:38:59.199554,8448
21:38:59.199554,0
21:38:59.199554,-49
21:38:59.199554,31487
21:38:59.199554,-1
21:38:59.199554,-97
21:38:59.199554,-21505
21:38:59.199554,-1
21:38:59.199554,-113
21:38:59.199554,-26881
21:38:59.199554,-1
21:38:59.199554,-99
21:38:59.199554,-28161
21:38:59.199554,-1
21:38:59.199554,-111
21:38:59.199554,-25089
21:38:59.199554,-1
21:38:59.199554,-104
21:38:59.199554,-28673
21:38:59.199554,-1
21:38:59.199554,-118
21:38:59.199554,-31745
21:38:59.199554,-1
21:38:59.199554,-156
21:38:59.199554,16895
21:38:59.199554,-1
21:38:59.199554,-191
21:38:59.199554,17919
21:38:59.199554,-1
21:38:59.199554,-194
21:38:59.199554,17919
21:38:59.199554,-1
21:38:59.199554,-168
21:38:59.199554,30719
21:38:59.199554,-1
21:38:59.199554,-99
21:38:59.199554,-16641
21:38:59.199554,-1
21:38:59.199554,-21
21:38:59.199554,7423
21:38:59.199554,0
21:38:59.199554,56
21:38:59.199554,18688
21:38:59.199554,0
21:38:59.199554,89
21:38:59.199554,25344
21:38:59.199554,0
21:38:59.199554,101
21:38:59.199554,25856
21:38:59.199554,0
21:38:59.199554,104
21:38:59.747711,101
21:38:59.747711,24832
21:38:59.747711,0
21:38:59.747711,92
21:38:59.747711,22272
21:38:59.747711,0
21:38:59.747711,80
21:38:59.747711,20992
21:38:59.747711,0
21:38:59.747711,89
21:38:59.747711,19968
21:38:59.747711,0
21:38:59.747711,78
21:38:59.747711,20992
21:38:59.747711,0
21:38:59.747711,73
21:38:59.747711,18176
21:38:59.747711,0
21:38:59.747711,82
21:38:59.747711,20992
21:38:59.747711,0
21:38:59.747711,80
21:38:59.747711,20480
21:38:59.747711,0
21:38:59.747711,78
21:38:59.747711,20992
21:38:59.747711,0
21:38:59.747711,87
21:38:59.747711,19200
21:38:59.747711,0
21:38:59.747711,49
21:38:59.747711,11264
21:38:59.747711,0
21:38:59.747711,73
21:38:59.747711,28416
21:38:59.747711,0
21:38:59.747711,120
21:38:59.747711,27136
21:38:59.747711,0
21:38:59.747711,89
21:38:59.747711,22784
21:38:59.747711,0
21:38:59.747711,97
21:38:59.747711,24832
21:38:59.747711,0
21:38:59.747711,92
21:38:59.747711,21760
21:38:59.747711,0
21:38:59.747711,82
21:38:59.747711,18688
21:38:59.747711,0
21:38:59.747711,11
21:38:59.747711,31744
21:38:59.747711,-1
21:38:59.747711,-118
21:38:59.747711,-13313
21:38:59.747711,1
21:38:59.747711,1380
21:38:59.747711,-32000
21:38:59.747711,6
21:38:59.747711,968
21:38:59.747711,-13568
21:38:59.747711,0
21:38:59.747711,-23
21:38:59.747711,-16641
21:38:59.747711,-1
21:38:59.747711,-139
21:38:59.747711,29439
21:38:59.747711,-1
21:38:59.747711,-125
21:38:59.747711,28415
21:38:59.747711,-1
21:38:59.747711,-153
21:38:59.747711,30719
21:38:59.747711,-1
21:38:59.747711,-132
21:38:59.747711,32511
21:38:59.747711,-1
21:38:59.747711,-130
21:38:59.747711,28927
21:38:59.747711,-1
21:38:59.747711,-156
21:38:59.747711,24063
21:38:59.747711,-1
21:38:59.747711,-172
21:38:59.747711,14335
21:38:59.747711,-1
21:38:59.747711,-224
21:38:59.747711,7167
21:38:59.747711,-1
21:38:59.747711,-227
21:38:59.747711,7679
21:38:59.747711,-1
21:38:59.747711,-217
21:38:59.747711,14335
21:38:59.747711,-1
21:38:59.747711,-182
21:38:59.747711,26623
21:38:59.747711,-1
21:38:59.747711,-113
21:38:59.747711,-17921
21:38:59.747711,-1
21:38:59.747711,-30
21:38:59.747711,255
21:38:59.747711,0
21:38:59.747711,18
21:38:59.747711,10240
21:38:59.747711,0
21:38:59.747711,59
21:39:00.249773,66
21:39:00.249773,16128
21:39:00.249773,0
21:39:00.249773,56
21:39:00.249773,16896
21:39:00.249773,0
21:39:00.249773,78
21:39:00.249773,18176
21:39:00.249773,0
21:39:00.249773,68
21:39:00.249773,19200
21:39:00.249773,0
21:39:00.249773,71
21:39:00.249773,16896
21:39:00.249773,0
21:39:00.249773,71
21:39:00.249773,16896
21:39:00.249773,0
21:39:00.249773,56
21:39:00.249773,15616
21:39:00.249773,0
21:39:00.249773,68
21:39:00.249773,16128
21:39:00.249773,0
21:39:00.249773,63
21:39:00.249773,18688
21:39:00.249773,0
21:39:00.249773,75
21:39:00.249773,18176
21:39:00.249773,0
21:39:00.249773,68
21:39:00.249773,16896
21:39:00.249773,0
21:39:00.249773,75
21:39:00.249773,22272
21:39:00.249773,0
21:39:00.249773,87
21:39:00.249773,19968
21:39:00.249773,0
21:39:00.249773,78
21:39:00.249773,20480
21:39:00.249773,0
21:39:00.249773,78
21:39:00.249773,18688
21:39:00.249773,0
21:39:00.249773,71
21:39:00.249773,18176
21:39:00.249773,0
21:39:00.249773,63
21:39:00.249773,12544
21:39:00.249773,0
21:39:00.249773,30
21:39:00.249773,4096
21:39:00.249773,0
21:39:00.249773,21
21:39:00.249773,14336
21:39:00.249773,0
21:39:00.249773,87
21:39:00.249773,20992
21:39:00.249773,0
21:39:00.249773,66
21:39:00.249773,14336
21:39:00.249773,0
21:39:00.249773,9
21:39:00.249773,-13824
21:39:00.249773,-1
21:39:00.249773,-11
21:39:00.249773,19455
21:39:00.249773,0
21:39:00.249773,63
21:39:00.249773,10240
21:39:00.249773,0
21:39:00.249773,42
21:39:00.249773,-15616
21:39:00.249773,-1
21:39:00.249773,-187
21:39:00.249773,4863
21:39:00.249773,0
21:39:00.249773,736
21:39:00.249773,-16896
21:39:00.249773,5
21:39:00.249773,1373
21:39:00.249773,9984
21:39:00.249773,2
21:39:00.249773,-7
21:39:00.249773,-18945
21:39:00.249773,-1
21:39:00.249773,-104
21:39:00.249773,24575
21:39:00.249773,-1
21:39:00.249773,-149
21:39:00.249773,30207
21:39:00.249773,-1
21:39:00.249773,-149
21:39:00.249773,30719
21:39:00.249773,-1
21:39:00.249773,-130
21:39:00.249773,30719
21:39:00.249773,-1
21:39:00.249773,-137
21:39:00.249773,31999
21:39:00.249773,-1
21:39:00.249773,-137
21:39:00.249773,30207
21:39:00.249773,-1
21:39:00.249773,-144
21:39:00.249773,25855
21:39:00.249773,-1
21:39:00.249773,-172
21:39:00.799487,-182
21:39:00.799487,15615
21:39:00.799487,-1
21:39:00.799487,-208
21:39:00.799487,10751
21:39:00.799487,-1
21:39:00.799487,-227
21:39:00.799487,8447
21:39:00.799487,-1
21:39:00.799487,-208
21:39:00.799487,17919
21:39:00.799487,-1
21:39:00.799487,-153
21:39:00.799487,-29953
21:39:00.799487,-1
21:39:00.799487,-99
21:39:00.799487,-20737
21:39:00.799487,-1
21:39:00.799487,-54
21:39:00.799487,-5633
21:39:00.799487,-1
21:39:00.799487,16
21:39:00.799487,10240
21:39:00.799487,0
21:39:00.799487,21
21:39:00.799487,4096
21:39:00.799487,0
21:39:00.799487,44
21:39:00.799487,16896
21:39:00.799487,0
21:39:00.799487,80
21:39:00.799487,22272
21:39:00.799487,0
21:39:00.799487,87
21:39:00.799487,21760
21:39:00.799487,0
21:39:00.799487,80
21:39:00.799487,18176
21:39:00.799487,0
21:39:00.799487,68
21:39:00.799487,17408
21:39:00.799487,0
21:39:00.799487,63
21:39:00.799487,14336
21:39:00.799487,0
21:39:00.799487,56
21:39:00.799487,14336
21:39:00.799487,0
21:39:00.799487,54
21:39:00.799487,15104
21:39:00.799487,0
21:39:00.799487,61
21:39:00.799487,15104
21:39:00.799487,0
21:39:00.799487,59
21:39:00.799487,16896
21:39:00.799487,0
21:39:00.799487,66
21:39:00.799487,15104
21:39:00.799487,0
21:39:00.799487,59
21:39:00.799487,16896
21:39:00.799487,0
21:39:00.799487,63
21:39:00.799487,15104
21:39:00.799487,0
21:39:00.799487,54
21:39:00.799487,12032
21:39:00.799487,0
21:39:00.799487,37
21:39:00.799487,3584
21:39:00.799487,0
21:39:00.799487,-30
21:39:00.799487,-13057
21:39:00.799487,-1
21:39:00.799487,-28
21:39:00.799487,2047
21:39:00.799487,0
21:39:00.799487,16
21:39:00.799487,-4608
21:39:00.799487,-1
21:39:00.799487,-18
21:39:00.799487,7935
21:39:00.799487,0
21:39:00.799487,33
21:39:00.799487,1792
21:39:00.799487,0
21:39:00.799487,-2
21:39:00.799487,3071
21:39:00.799487,0
21:39:00.799487,63
21:39:00.799487,25344
21:39:00.799487,0
21:39:00.799487,82
21:39:00.799487,15104
21:39:00.799487,0
21:39:00.799487,61
21:39:00.799487,17408
21:39:00.799487,0
21:39:00.799487,66
21:39:00.799487,15616
21:39:00.799487,0
21:39:00.799487,61
21:39:00.799487,14336
21:39:00.799487,0
21:39:00.799487,44
21:39:00.799487,0
21:39:00.799487,0
21:39:00.799487,-118
21:39:01.349623,-123
21:39:01.349623,9727
21:39:01.349623,1
21:39:01.349623,1044
21:39:01.349623,31744
21:39:01.349623,5
21:39:01.349623,876
21:39:01.349623,-28160
21:39:01.349623,0
21:39:01.349623,-56
21:39:01.349623,-8705
21:39:01.349623,-1
21:39:01.349623,-106
21:39:01.349623,31999
21:39:01.349623,-1
21:39:01.349623,-104
21:39:01.349623,-25601
21:39:01.349623,-1
21:39:01.349623,-108
21:39:01.349623,-24577
21:39:01.349623,-1
21:39:01.349623,-85
21:39:01.349623,-21505
21:39:01.349623,-1
21:39:01.349623,-82
21:39:01.349623,-20737
21:39:01.349623,-1
21:39:01.349623,-92
21:39:01.349623,-26881
21:39:01.349623,-1
21:39:01.349623,-120
21:39:01.349623,31999
21:39:01.349623,-1
21:39:01.349623,-142
21:39:01.349623,28415
21:39:01.349623,-1
21:39:01.349623,-149
21:39:01.349623,27135
21:39:01.349623,-1
21:39:01.349623,-139
21:39:01.349623,-31745
21:39:01.349623,-1
21:39:01.349623,-116
21:39:01.349623,-25089
21:39:01.349623,-1
21:39:01.349623,-82
21:39:01.349623,-19713
21:39:01.349623,-1
21:39:01.349623,-73
21:39:01.349623,-8705
21:39:01.349623,-1
21:39:01.349623,16
21:39:01.349623,7168
21:39:01.349623,0
21:39:01.349623,18
21:39:01.349623,8448
21:39:01.349623,0
21:39:01.349623,42
21:39:01.349623,8960
21:39:01.349623,0
21:39:01.349623,37
21:39:01.349623,11264
21:39:01.349623,0
21:39:01.349623,42
21:39:01.349623,8448
21:39:01.349623,0
21:39:01.349623,28
21:39:01.349623,8960
21:39:01.349623,0
21:39:01.349623,40
21:39:01.349623,7680
21:39:01.349623,0
21:39:01.349623,18
21:39:01.349623,3584
21:39:01.349623,0
21:39:01.349623,23
21:39:01.349623,8448
21:39:01.349623,0
21:39:01.349623,33
21:39:01.349623,8448
21:39:01.349623,0
21:39:01.349623,35
21:39:01.349623,8960
21:39:01.349623,0
21:39:01.349623,37
21:39:01.349623,10240
21:39:01.349623,0
21:39:01.349623,37
21:39:01.349623,7680
21:39:01.349623,0
21:39:01.349623,33
21:39:01.349623,10752
21:39:01.349623,0
21:39:01.349623,40
21:39:01.349623,9472
21:39:01.349623,0
21:39:01.349623,30
21:39:01.349623,6656
21:39:01.349623,0
21:39:01.349623,30
21:39:01.349623,7680
21:39:01.349623,0
21:39:01.349623,23
21:39:01.349623,6656
21:39:01.349623,0
21:39:01.349623,33
21:39:01.349623,8448
21:39:01.349623,0
21:39:01.349623,28
21:39:01.997518,28
21:39:01.997518,7680
21:39:01.997518,0
21:39:01.997518,33
21:39:01.997518,7168
21:39:01.997518,0
21:39:01.997518,26
21:39:01.997518,9472
21:39:01.997518,0
21:39:01.997518,49
21:39:01.997518,11264
21:39:01.997518,0
21:39:01.997518,30
21:39:01.997518,3584
21:39:01.997518,0
21:39:01.997518,0
21:39:01.997518,2304
21:39:01.997518,0
21:39:01.997518,44
21:39:01.997518,18176
21:39:01.997518,0
21:39:01.997518,68
21:39:01.997518,14336
21:39:01.997518,0
21:39:01.997518,47
21:39:01.997518,10752
21:39:01.997518,0
21:39:01.997518,42
21:39:01.997518,11264
21:39:01.997518,0
21:39:01.997518,40
21:39:01.997518,10752
21:39:01.997518,0
21:39:01.997518,47
21:39:01.997518,512
21:39:01.997518,0
21:39:01.997518,-113
21:39:01.997518,30207
21:39:01.997518,-1
21:39:01.997518,201
21:39:01.997518,-32512
21:39:01.997518,3
21:39:01.997518,1323
21:39:01.997518,-27648
21:39:01.997518,3
21:39:01.997518,201
21:39:01.997518,-11264
21:39:01.997518,-1
21:39:01.997518,-35
21:39:01.997518,-28673
21:39:01.997518,-1
21:39:01.997518,-144
21:39:01.997518,-28673
21:39:01.997518,-1
21:39:01.997518,-127
21:39:01.997518,30719
21:39:01.997518,-1
21:39:01.997518,-111
21:39:01.997518,-25601
21:39:01.997518,-1
21:39:01.997518,-106
21:39:01.997518,-25601
21:39:01.997518,-1
21:39:01.997518,-104
21:39:01.997518,-28161
21:39:01.997518,-1
21:39:01.997518,-106
21:39:01.997518,-27393
21:39:01.997518,-1
21:39:01.997518,-116
21:39:01.997518,-28161
21:39:01.997518,-1
21:39:01.997518,-106
21:39:01.997518,-27393
21:39:01.997518,-1
21:39:01.997518,-104
21:39:01.997518,-23297
21:39:01.997518,-1
21:39:01.997518,-85
21:39:01.997518,-21505
21:39:01.997518,-1
21:39:01.997518,-73
21:39:01.997518,-13057
21:39:01.997518,-1
21:39:01.997518,-42
21:39:01.997518,-10497
21:39:01.997518,-1
21:39:01.997518,-30
21:39:01.997518,-3841
21:39:01.997518,-1
21:39:01.997518,-2
21:39:01.997518,1279
21:39:01.997518,0
21:39:01.997518,9
21:39:01.997518,2816
21:39:01.997518,0
21:39:01.997518,14
21:39:01.997518,3584
21:39:01.997518,0
21:39:01.997518,14
21:39:01.997518,3584
21:39:01.997518,0
21:39:01.997518,16
21:39:01.997518,5888
21:39:01.997518,0
21:39:01.997518,23
21:39:01.997518,4096
21:39:01.997518,0
21:39:01.997518,16
21:39:02.500668,23
21:39:02.500668,6656
21:39:02.500668,0
21:39:02.500668,21
21:39:02.500668,5376
21:39:02.500668,0
21:39:02.500668,28
21:39:02.500668,6656
21:39:02.500668,0
21:39:02.500668,23
21:39:02.500668,6656
21:39:02.500668,0
21:39:02.500668,35
21:39:02.500668,8448
21:39:02.500668,0
21:39:02.500668,30
21:39:02.500668,10752
21:39:02.500668,0
21:39:02.500668,49
21:39:02.500668,12544
21:39:02.500668,0
21:39:02.500668,49
21:39:02.500668,12544
21:39:02.500668,0
21:39:02.500668,54
21:39:02.500668,13824
21:39:02.500668,0
21:39:02.500668,54
21:39:02.500668,15616
21:39:02.500668,0
21:39:02.500668,56
21:39:02.500668,12544
21:39:02.500668,0
21:39:02.500668,54
21:39:02.500668,14336
21:39:02.500668,0
21:39:02.500668,54
21:39:02.500668,12032
21:39:02.500668,0
21:39:02.500668,40
21:39:02.500668,10752
21:39:02.500668,0
21:39:02.500668,47
21:39:02.500668,11264
21:39:02.500668,0
21:39:02.500668,42
21:39:02.500668,11264
21:39:02.500668,0
21:39:02.500668,33
21:39:02.500668,3584
21:39:02.500668,0
21:39:02.500668,2
21:39:02.500668,-512
21:39:02.500668,-1
21:39:02.500668,11
21:39:02.500668,13824
21:39:02.500668,0
21:39:02.500668,75
21:39:02.500668,16128
21:39:02.500668,0
21:39:02.500668,49
21:39:02.500668,11264
21:39:02.500668,0
21:39:02.500668,42
21:39:02.500668,10240
21:39:02.500668,0
21:39:02.500668,40
21:39:02.500668,8448
21:39:02.500668,0
21:39:02.500668,26
21:39:02.500668,3584
21:39:02.500668,0
21:39:02.500668,-61
21:39:02.500668,20991
21:39:02.500668,-1
21:39:02.500668,-56
21:39:02.500668,-5377
21:39:02.500668,1
21:39:02.500668,1131
21:39:02.500668,-30208
21:39:02.500668,4
21:39:02.500668,506
21:39:02.500668,0
21:39:02.500668,0
21:39:02.500668,-35
21:39:02.500668,-14849
21:39:02.500668,-1
21:39:02.500668,-137
21:39:02.500668,-31745
21:39:02.500668,-1
21:39:02.500668,-108
21:39:02.500668,-30465
21:39:02.500668,-1
21:39:02.500668,-118
21:39:02.500668,-31233
21:39:02.500668,-1
21:39:02.500668,-132
21:39:02.500668,-31745
21:39:02.500668,-1
21:39:02.500668,-125
21:39:02.500668,30207
21:39:02.500668,-1
21:39:02.500668,-134
21:39:02.500668,-31745
21:39:02.500668,-1
21:39:02.500668,-130
21:39:02.500668,29439
21:39:02.500668,-1
21:39:02.500668,-139
21:39:03.049257,-130
21:39:03.049257,-31745
21:39:03.049257,-1
21:39:03.049257,-127
21:39:03.049257,-30465
21:39:03.049257,-1
21:39:03.049257,-111
21:39:03.049257,-25601
21:39:03.049257,-1
21:39:03.049257,-94
21:39:03.049257,-20225
21:39:03.049257,-1
21:39:03.049257,-52
21:39:03.049257,-6913
21:39:03.049257,-1
21:39:03.049257,-14
21:39:03.049257,255
21:39:03.049257,0
21:39:03.049257,16
21:39:03.049257,7680
21:39:03.049257,0
21:39:03.049257,35
21:39:03.049257,10240
21:39:03.049257,0
21:39:03.049257,47
21:39:03.049257,10752
21:39:03.049257,0
21:39:03.049257,37
21:39:03.049257,10240
21:39:03.049257,0
21:39:03.049257,42
21:39:03.049257,9472
21:39:03.049257,0
21:39:03.049257,26
21:39:03.049257,2816
21:39:03.049257,0
21:39:03.049257,18
21:39:03.049257,10240
21:39:03.049257,0
21:39:03.049257,49
21:39:03.049257,11264
21:39:03.049257,0
21:39:03.049257,44
21:39:03.049257,12032
21:39:03.049257,0
21:39:03.049257,44
21:39:03.049257,11264
21:39:03.049257,0
21:39:03.049257,52
21:39:03.049257,15104
21:39:03.049257,0
21:39:03.049257,56
21:39:03.049257,12032
21:39:03.049257,0
21:39:03.049257,47
21:39:03.049257,12544
21:39:03.049257,0
21:39:03.049257,47
21:39:03.049257,12032
21:39:03.049257,0
21:39:03.049257,40
21:39:03.049257,10240
21:39:03.049257,0
21:39:03.049257,49
21:39:03.049257,12544
21:39:03.049257,0
21:39:03.049257,42
21:39:03.049257,10752
21:39:03.049257,0
21:39:03.049257,40
21:39:03.049257,8960
21:39:03.049257,0
21:39:03.049257,40
21:39:03.049257,10752
21:39:03.049257,0
21:39:03.049257,40
21:39:03.049257,10240
21:39:03.049257,0
21:39:03.049257,40
21:39:03.049257,8960
21:39:03.049257,0
21:39:03.049257,28
21:39:03.049257,7680
21:39:03.049257,0
21:39:03.049257,26
21:39:03.049257,1024
21:39:03.049257,0
21:39:03.049257,-7
21:39:03.049257,1279
21:39:03.049257,0
21:39:03.049257,35
21:39:03.049257,15616
21:39:03.049257,0
21:39:03.049257,61
21:39:03.049257,10752
21:39:03.049257,0
21:39:03.049257,30
21:39:03.049257,8448
21:39:03.049257,0
21:39:03.049257,37
21:39:03.049257,8960
21:39:03.049257,0
21:39:03.049257,30
21:39:03.049257,7680
21:39:03.049257,0
21:39:03.049257,28
21:39:03.049257,-4096
21:39:03.049257,-1
21:39:03.049257,-127
21:39:03.599432,-149
21:39:03.599432,-16897
21:39:03.599432,0
21:39:03.599432,857
21:39:03.599432,-5888
21:39:03.599432,4
21:39:03.599432,847
21:39:03.599432,-23808
21:39:03.599432,0
21:39:03.599432,-52
21:39:03.599432,-6913
21:39:03.599432,-1
21:39:03.599432,-94
21:39:03.599432,-28673
21:39:03.599432,-1
21:39:03.599432,-82
21:39:03.599432,-22529
21:39:03.599432,-1
21:39:03.599432,-94
21:39:03.599432,-20225
21:39:03.599432,-1
21:39:03.599432,-82
21:39:03.599432,-21505
21:39:03.599432,-1
21:39:03.599432,-78
21:39:03.599432,-18945
21:39:03.599432,-1
21:39:03.599432,-80
21:39:03.599432,-20225
21:39:03.599432,-1
21:39:03.599432,-85
21:39:03.599432,-23297
21:39:03.599432,-1
21:39:03.599432,-99
21:39:03.599432,-24577
21:39:03.599432,-1
21:39:03.599432,-89
21:39:03.599432,-22017
21:39:03.599432,-1
21:39:03.599432,-80
21:39:03.599432,-17153
21:39:03.599432,-1
21:39:03.599432,-56
21:39:03.599432,-13057
21:39:03.599432,-1
21:39:03.599432,-47
21:39:03.599432,-8193
21:39:03.599432,-1
21:39:03.599432,-23
21:39:03.599432,-6401
21:39:03.599432,-1
21:39:03.599432,-14
21:39:03.599432,1279
21:39:03.599432,0
21:39:03.599432,9
21:39:03.599432,2304
21:39:03.599432,0
21:39:03.599432,14
21:39:03.599432,4096
21:39:03.599432,0
21:39:03.599432,16
21:39:03.599432,5376
21:39:03.599432,0
21:39:03.599432,23
21:39:03.599432,5376
21:39:03.599432,0
21:39:03.599432,16
21:39:03.599432,3584
21:39:03.599432,0
21:39:03.599432,11
21:39:03.599432,4096
21:39:03.599432,0
21:39:03.599432,21
21:39:03.599432,5376
21:39:03.599432,0
21:39:03.599432,18
21:39:03.599432,4608
21:39:03.599432,0
21:39:03.599432,28
21:39:03.599432,7168
21:39:03.599432,0
21:39:03.599432,21
21:39:03.599432,5376
21:39:03.599432,0
21:39:03.599432,28
21:39:03.599432,7168
21:39:03.599432,0
21:39:03.599432,23
21:39:03.599432,7168
21:39:03.599432,0
21:39:03.599432,33
21:39:03.599432,7168
21:39:03.599432,0
21:39:03.599432,26
21:39:03.599432,5888
21:39:03.599432,0
21:39:03.599432,21
21:39:03.599432,5888
21:39:03.599432,0
21:39:03.599432,28
21:39:03.599432,6656
21:39:03.599432,0
21:39:03.599432,26
21:39:03.599432,6656
21:39:03.599432,0
21:39:03.599432,26
21:39:03.599432,6656
21:39:03.599432,0
21:39:03.599432,26
21:39:04.149932,23
21:39:04.149932,5888
21:39:04.149932,0
21:39:04.149932,21
21:39:04.149932,4608
21:39:04.149932,0
21:39:04.149932,7
21:39:04.149932,-512
21:39:04.149932,-1
21:39:04.149932,0
21:39:04.149932,5888
21:39:04.149932,0
21:39:04.149932,56
21:39:04.149932,18688
21:39:04.149932,0
21:39:04.149932,75
21:39:04.149932,16128
21:39:04.149932,0
21:39:04.149932,47
21:39:04.149932,11264
21:39:04.149932,0
21:39:04.149932,47
21:39:04.149932,10752
21:39:04.149932,0
21:39:04.149932,44
21:39:04.149932,12032
21:39:04.149932,0
21:39:04.149932,37
21:39:04.149932,-7168
21:39:04.149932,-1
21:39:04.149932,-142
21:39:04.149932,-27393
21:39:04.149932,-1
21:39:04.149932,312
21:39:04.149932,-11776
21:39:04.149932,3
21:39:04.149932,1236
21:39:04.149932,-14336
21:39:04.149932,2
21:39:04.149932,99
21:39:04.149932,-5376
21:39:04.149932,-1
21:39:04.149932,-21
21:39:04.149932,-27393
21:39:04.149932,-1
21:39:04.149932,-111
21:39:04.149932,-19713
21:39:04.149932,-1
21:39:04.149932,-92
21:39:04.149932,-23809
21:39:04.149932,-1
21:39:04.149932,-75
21:39:04.149932,-20225
21:39:04.149932,-1
21:39:04.149932,-85
21:39:04.149932,-19713
21:39:04.149932,-1
21:39:04.149932,-78
21:39:04.149932,-20225
21:39:04.149932,-1
21:39:04.149932,-82
21:39:04.149932,-21505
21:39:04.149932,-1
21:39:04.149932,-87
21:39:04.149932,-23297
21:39:04.149932,-1
21:39:04.149932,-94
21:39:04.149932,-25089
21:39:04.149932,-1
21:39:04.149932,-94
21:39:04.149932,-21505
21:39:04.149932,-1
21:39:04.149932,-78
21:39:04.149932,-16641
21:39:04.149932,-1
21:39:04.149932,-47
21:39:04.149932,-11009
21:39:04.149932,-1
21:39:04.149932,-42
21:39:04.149932,-8193
21:39:04.149932,-1
21:39:04.149932,-23
21:39:04.149932,-3329
21:39:04.149932,-1
21:39:04.149932,-4
21:39:04.149932,767
21:39:04.149932,0
21:39:04.149932,7
21:39:04.149932,2816
21:39:04.149932,0
21:39:04.149932,18
21:39:04.149932,5376
21:39:04.149932,0
21:39:04.149932,16
21:39:04.149932,4096
21:39:04.149932,0
21:39:04.149932,14
21:39:04.149932,3584
21:39:04.149932,0
21:39:04.149932,18
21:39:04.149932,4096
21:39:04.149932,0
21:39:04.149932,11
21:39:04.149932,2816
21:39:04.149932,0
21:39:04.149932,16
21:39:04.149932,5376
21:39:04.149932,0
21:39:04.149932,23
21:39:04.749576,21
21:39:04.749576,5888
21:39:04.749576,0
21:39:04.749576,28
21:39:04.749576,7168
21:39:04.749576,0
21:39:04.749576,28
21:39:04.749576,10752
21:39:04.749576,0
21:39:04.749576,49
21:39:04.749576,11264
21:39:04.749576,0
21:39:04.749576,40
21:39:04.749576,10240
21:39:04.749576,0
21:39:04.749576,44
21:39:04.749576,13312
21:39:04.749576,0
21:39:04.749576,54
21:39:04.749576,12544
21:39:04.749576,0
21:39:04.749576,44
21:39:04.749576,9472
21:39:04.749576,0
21:39:04.749576,23
21:39:04.749576,2304
21:39:04.749576,0
21:39:04.749576,2
21:39:04.749576,4096
21:39:04.749576,0
21:39:04.749576,47
21:39:04.749576,16896
21:39:04.749576,0
21:39:04.749576,63
21:39:04.749576,13824
21:39:04.749576,0
21:39:04.749576,44
21:39:04.749576,10752
21:39:04.749576,0
21:39:04.749576,44
21:39:04.749576,10752
21:39:04.749576,0
21:39:04.749576,35
21:39:04.749576,8448
21:39:04.749576,0
21:39:04.749576,28
21:39:04.749576,-4096
21:39:04.749576,-1
21:39:04.749576,-142
21:39:04.749576,27135
21:39:04.749576,-1
21:39:04.749576,217
21:39:04.749576,19712
21:39:04.749576,3
21:39:04.749576,1160
21:39:04.749576,-5888
21:39:04.749576,2
21:39:04.749576,132
21:39:04.749576,-5376
21:39:04.749576,-1
21:39:04.749576,-7
21:39:04.749576,-25601
21:39:04.749576,-1
21:39:04.749576,-125
21:39:04.749576,-20737
21:39:04.749576,-1
21:39:04.749576,-87
21:39:04.749576,-26369
21:39:04.749576,-1
21:39:04.749576,-94
21:39:04.749576,-22529
21:39:04.749576,-1
21:39:04.749576,-92
21:39:04.749576,-20737
21:39:04.749576,-1
21:39:04.749576,-75
21:39:04.749576,-20225
21:39:04.749576,-1
21:39:04.749576,-78
21:39:04.749576,-20225
21:39:04.749576,-1
21:39:04.749576,-82
21:39:04.749576,-20737
21:39:04.749576,-1
21:39:04.749576,-80
21:39:04.749576,-18433
21:39:04.749576,-1
21:39:04.749576,-68
21:39:04.749576,-15361
21:39:04.749576,-1
21:39:04.749576,-49
21:39:04.749576,-9985
21:39:04.749576,-1
21:39:04.749576,-28
21:39:04.749576,-3329
21:39:04.749576,-1
21:39:04.749576,-16
21:39:04.749576,-6401
21:39:04.749576,-1
21:39:04.749576,-18
21:39:04.749576,-1537
21:39:04.749576,-1
21:39:04.749576,-7
21:39:04.749576,-1537
21:39:04.749576,-1
21:39:04.749576,0
21:39:04.749576,1024
21:39:04.749576,0
21:39:04.749576,7
21:39:05.398849,14
21:39:05.398849,3584
21:39:05.398849,0
21:39:05.398849,11
21:39:05.398849,3584
21:39:05.398849,0
21:39:05.398849,14
21:39:05.398849,2304
21:39:05.398849,0
21:39:05.398849,2
21:39:05.398849,0
21:39:05.398849,0
21:39:05.398849,2
21:39:05.398849,3584
21:39:05.398849,0
21:39:05.398849,26
21:39:05.398849,8448
21:39:05.398849,0
21:39:05.398849,37
21:39:05.398849,10240
21:39:05.398849,0
21:39:05.398849,35
21:39:05.398849,8960
21:39:05.398849,0
21:39:05.398849,42
21:39:05.398849,10240
21:39:05.398849,0
21:39:05.398849,37
21:39:05.398849,10752
21:39:05.398849,0
21:39:05.398849,42
21:39:05.398849,8960
21:39:05.398849,0
21:39:05.398849,42
21:39:05.398849,13824
21:39:05.398849,0
21:39:05.398849,40
21:39:05.398849,7680
21:39:05.398849,0
21:39:05.398849,37
21:39:05.398849,8448
21:39:05.398849,0
21:39:05.398849,9
21:39:05.398849,-2304
21:39:05.398849,-1
21:39:05.398849,-7
21:39:05.398849,5631
21:39:05.398849,0
21:39:05.398849,49
21:39:05.398849,15616
21:39:05.398849,0
21:39:05.398849,56
21:39:05.398849,10752
21:39:05.398849,0
21:39:05.398849,37
21:39:05.398849,11264
21:39:05.398849,0
21:39:05.398849,44
21:39:05.398849,8960
21:39:05.398849,0
21:39:05.398849,26
21:39:05.398849,4608
21:39:05.398849,0
21:39:05.398849,0
21:39:05.398849,-15616
21:39:05.398849,-1
21:39:05.398849,-170
21:39:05.398849,-31745
21:39:05.398849,-1
21:39:05.398849,312
21:39:05.398849,-14336
21:39:05.398849,3
21:39:05.398849,1186
21:39:05.398849,32512
21:39:05.398849,2
21:39:05.398849,44
21:39:05.398849,-13824
21:39:05.398849,-1
21:39:05.398849,-49
21:39:05.398849,31487
21:39:05.398849,-1
21:39:05.398849,-132
21:39:05.398849,-26369
21:39:05.398849,-1
21:39:05.398849,-118
21:39:05.398849,-28673
21:39:05.398849,-1
21:39:05.398849,-99
21:39:05.398849,-26881
21:39:05.398849,-1
21:39:05.398849,-104
21:39:05.398849,-25089
21:39:05.398849,-1
21:39:05.398849,-99
21:39:05.398849,-24577
21:39:05.398849,-1
21:39:05.398849,-94
21:39:05.398849,-25601
21:39:05.398849,-1
21:39:05.398849,-104
21:39:05.398849,-25089
21:39:05.398849,-1
21:39:05.398849,-101
21:39:05.398849,-25089
21:39:05.398849,-1
21:39:05.398849,-78
21:39:05.398849,-15873
21:39:05.398849,-1
21:39:05.398849,-66
21:39:05.850446,-52
21:39:05.850446,-6401
21:39:05.850446,-1
21:39:05.850446,-14
21:39:05.850446,-4353
21:39:05.850446,-1
21:39:05.850446,-11
21:39:05.850446,767
21:39:05.850446,0
21:39:05.850446,2
21:39:05.850446,2304
21:39:05.850446,0
21:39:05.850446,18
21:39:05.850446,5888
21:39:05.850446,0
21:39:05.850446,28
21:39:05.850446,6656
21:39:05.850446,0
21:39:05.850446,28
21:39:05.850446,8448
21:39:05.850446,0
21:39:05.850446,30
21:39:05.850446,7680
21:39:05.850446,0
21:39:05.850446,35
21:39:05.850446,9472
21:39:05.850446,0
21:39:05.850446,28
21:39:05.850446,5888
21:39:05.850446,0
21:39:05.850446,30
21:39:05.850446,7680
21:39:05.850446,0
21:39:05.850446,33
21:39:05.850446,11264
21:39:05.850446,0
21:39:05.850446,49
21:39:05.850446,12032
21:39:05.850446,0
21:39:05.850446,52
21:39:05.850446,12032
21:39:05.850446,0
21:39:05.850446,37
21:39:05.850446,9472
21:39:05.850446,0
21:39:05.850446,42
21:39:05.850446,10752
21:39:05.850446,0
21:39:05.850446,35
21:39:05.850446,9472
21:39:05.850446,0
21:39:05.850446,44
21:39:05.850446,11264
21:39:05.850446,0
21:39:05.850446,42
21:39:05.850446,10240
21:39:05.850446,0
21:39:05.850446,33
21:39:05.850446,5376
21:39:05.850446,0
21:39:05.850446,9
21:39:05.850446,1792
21:39:05.850446,0
21:39:05.850446,16
21:39:05.850446,9472
21:39:05.850446,0
21:39:05.850446,66
21:39:05.850446,19200
21:39:05.850446,0
21:39:05.850446,63
21:39:05.850446,13312
21:39:05.850446,0
21:39:05.850446,42
21:39:05.850446,6656
21:39:05.850446,0
21:39:05.850446,21
21:39:05.850446,8448
21:39:05.850446,0
21:39:05.850446,30
21:39:05.850446,5888
21:39:05.850446,0
21:39:05.850446,7
21:39:05.850446,-22272
21:39:05.850446,-1
21:39:05.850446,-187
21:39:05.850446,-257
21:39:05.850446,-1
21:39:05.850446,587
21:39:05.850446,32256
21:39:05.850446,4
21:39:05.850446,1039
21:39:05.850446,31232
21:39:05.850446,1
21:39:05.850446,0
21:39:05.850446,-1792
21:39:05.850446,-1
21:39:05.850446,-89
21:39:05.850446,25855
21:39:05.850446,-1
21:39:05.850446,-101
21:39:05.850446,-21505
21:39:05.850446,-1
21:39:05.850446,-111
21:39:05.850446,-26881
21:39:05.850446,-1
21:39:05.850446,-92
21:39:05.850446,-22529
21:39:05.850446,-1
21:39:05.850446,-92
21:39:06.445953,-87
21:39:06.445953,-20737
21:39:06.445953,-1
21:39:06.445953,-80
21:39:06.445953,-20737
21:39:06.445953,-1
21:39:06.445953,-92
21:39:06.445953,-24577
21:39:06.445953,-1
21:39:06.445953,-94
21:39:06.445953,-22529
21:39:06.445953,-1
21:39:06.445953,-73
21:39:06.445953,-14081
21:39:06.445953,-1
21:39:06.445953,-42
21:39:06.445953,-6401
21:39:06.445953,-1
21:39:06.445953,-18
21:39:06.445953,-5121
21:39:06.445953,-1
21:39:06.445953,-21
21:39:06.445953,-5633
21:39:06.445953,-1
21:39:06.445953,-18
21:39:06.445953,-2049
21:39:06.445953,-1
21:39:06.445953,0
21:39:06.445953,2304
21:39:06.445953,0
21:39:06.445953,11
21:39:06.445953,2304
21:39:06.445953,0
21:39:06.445953,14
21:39:06.445953,5376
21:39:06.445953,0
21:39:06.445953,23
21:39:06.445953,4608
21:39:06.445953,0
21:39:06.445953,14
21:39:06.445953,4096
21:39:06.445953,0
21:39:06.445953,21
21:39:06.445953,5888
21:39:06.445953,0
21:39:06.445953,23
21:39:06.445953,7168
21:39:06.445953,0
21:39:06.445953,28
21:39:06.445953,6656
21:39:06.445953,0
21:39:06.445953,23
21:39:06.445953,6656
21:39:06.445953,0
21:39:06.445953,30
21:39:06.445953,8960
21:39:06.445953,0
21:39:06.445953,37
21:39:06.445953,7680
21:39:06.445953,0
21:39:06.445953,33
21:39:06.445953,10240
21:39:06.445953,0
21:39:06.445953,37
21:39:06.445953,8448
21:39:06.445953,0
21:39:06.445953,37
21:39:06.445953,9472
21:39:06.445953,0
21:39:06.445953,35
21:39:06.445953,10240
21:39:06.445953,0
21:39:06.445953,42
21:39:06.445953,7168
21:39:06.445953,0
21:39:06.445953,21
21:39:06.445953,5888
21:39:06.445953,0
21:39:06.445953,9
21:39:06.445953,-2816
21:39:06.445953,-1
21:39:06.445953,7
21:39:06.445953,13824
21:39:06.445953,0
21:39:06.445953,78
21:39:06.445953,16128
21:39:06.445953,0
21:39:06.445953,42
21:39:06.445953,10752
21:39:06.445953,0
21:39:06.445953,44
21:39:06.445953,11264
21:39:06.445953,0
21:39:06.445953,47
21:39:06.445953,11264
21:39:06.445953,0
21:39:06.445953,35
21:39:06.445953,7680
21:39:06.445953,0
21:39:06.445953,-9
21:39:06.445953,-31745
21:39:06.445953,-1
21:39:06.445953,-149
21:39:06.445953,-16897
21:39:06.445953,0
21:39:06.445953,838
21:39:06.445953,-13056
21:39:06.445953,4
21:39:06.445953,847
21:39:07.050355,177
21:39:07.050355,-10240
21:39:07.050355,-1
21:39:07.050355,-28
21:39:07.050355,-27393
21:39:07.050355,-1
21:39:07.050355,-130
21:39:07.050355,-23809
21:39:07.050355,-1
21:39:07.050355,-97
21:39:07.050355,-24577
21:39:07.050355,-1
21:39:07.050355,-87
21:39:07.050355,-22529
21:39:07.050355,-1
21:39:07.050355,-89
21:39:07.050355,-21505
21:39:07.050355,-1
21:39:07.050355,-78
21:39:07.050355,-18945
21:39:07.050355,-1
21:39:07.050355,-80
21:39:07.050355,-21505
21:39:07.050355,-1
21:39:07.050355,-89
21:39:07.050355,-23297
21:39:07.050355,-1
21:39:07.050355,-87
21:39:07.050355,-20737
21:39:07.050355,-1
21:39:07.050355,-82
21:39:07.050355,-18433
21:39:07.050355,-1
21:39:07.050355,-49
21:39:07.050355,-9217
21:39:07.050355,-1
21:39:07.050355,-33
21:39:07.050355,-6913
21:39:07.050355,-1
21:39:07.050355,-21
21:39:07.050355,-5633
21:39:07.050355,-1
21:39:07.050355,-23
21:39:07.050355,-2049
21:39:07.050355,-1
21:39:07.050355,2
21:39:07.050355,-512
21:39:07.050355,-1
21:39:07.050355,0
21:39:07.050355,1792
21:39:07.050355,0
21:39:07.050355,9
21:39:07.050355,4096
21:39:07.050355,0
21:39:07.050355,21
21:39:07.050355,5376
21:39:07.050355,0
21:39:07.050355,16
21:39:07.050355,3584
21:39:07.050355,0
21:39:07.050355,11
21:39:07.050355,2816
21:39:07.050355,0
21:39:07.050355,9
21:39:07.050355,2816
21:39:07.050355,0
21:39:07.050355,11
21:39:07.050355,3584
21:39:07.050355,0
21:39:07.050355,16
21:39:07.050355,4096
21:39:07.050355,0
21:39:07.050355,21
21:39:07.050355,7680
21:39:07.050355,0
21:39:07.050355,30
21:39:07.050355,8448
21:39:07.050355,0
21:39:07.050355,40
21:39:07.050355,10752
21:39:07.050355,0
21:39:07.050355,44
21:39:07.050355,10752
21:39:07.050355,0
21:39:07.050355,42
21:39:07.050355,10752
21:39:07.050355,0
21:39:07.050355,44
21:39:07.050355,12032
21:39:07.050355,0
21:39:07.050355,44
21:39:07.050355,10240
21:39:07.050355,0
21:39:07.050355,40
21:39:07.050355,10240
21:39:07.050355,0
21:39:07.050355,26
21:39:07.050355,2816
21:39:07.050355,0
21:39:07.050355,9
21:39:07.050355,512
21:39:07.050355,0
21:39:07.050355,14
21:39:07.050355,15104
21:39:07.050355,0
21:39:07.050355,80
21:39:07.050355,14336
21:39:07.050355,0
21:39:07.050355,42
21:39:07.595550,40
21:39:07.595550,7680
21:39:07.595550,0
21:39:07.595550,33
21:39:07.595550,10752
21:39:07.595550,0
21:39:07.595550,35
21:39:07.595550,5888
21:39:07.595550,0
21:39:07.595550,14
21:39:07.595550,-13312
21:39:07.595550,-1
21:39:07.595550,-168
21:39:07.595550,-23297
21:39:07.595550,-1
21:39:07.595550,390
21:39:07.595550,5120
21:39:07.595550,4
21:39:07.595550,1195
21:39:07.595550,20992
21:39:07.595550,2
21:39:07.595550,26
21:39:07.595550,-12032
21:39:07.595550,-1
21:39:07.595550,-56
21:39:07.595550,30207
21:39:07.595550,-1
21:39:07.595550,-120
21:39:07.595550,-20737
21:39:07.595550,-1
21:39:07.595550,-101
21:39:07.595550,-26369
21:39:07.595550,-1
21:39:07.595550,-85
21:39:07.595550,-22529
21:39:07.595550,-1
21:39:07.595550,-101
21:39:07.595550,-23297
21:39:07.595550,-1
21:39:07.595550,-87
21:39:07.595550,-24577
21:39:07.595550,-1
21:39:07.595550,-97
21:39:07.595550,-23809
21:39:07.595550,-1
21:39:07.595550,-99
21:39:07.595550,-26369
21:39:07.595550,-1
21:39:07.595550,-101
21:39:07.595550,-26881
21:39:07.595550,-1
21:39:07.595550,-104
21:39:07.595550,-23809
21:39:07.595550,-1
21:39:07.595550,-75
21:39:07.595550,-13057
21:39:07.595550,-1
21:39:07.595550,-44
21:39:07.595550,-12289
21:39:07.595550,-1
21:39:07.595550,-37
21:39:07.595550,-5121
21:39:07.595550,-1
21:39:07.595550,-16
21:39:07.595550,-2049
21:39:07.595550,-1
21:39:07.595550,-2
21:39:07.595550,1279
21:39:07.595550,0
21:39:07.595550,7
21:39:07.595550,1792
21:39:07.595550,0
21:39:07.595550,11
21:39:07.595550,3584
21:39:07.595550,0
21:39:07.595550,11
21:39:07.595550,3584
21:39:07.595550,0
21:39:07.595550,18
21:39:07.595550,3584
21:39:07.595550,0
21:39:07.595550,7
21:39:07.595550,2304
21:39:07.595550,0
21:39:07.595550,18
21:39:07.595550,3584
21:39:07.595550,0
21:39:07.595550,11
21:39:07.595550,4608
21:39:07.595550,0
21:39:07.595550,18
21:39:07.595550,2816
21:39:07.595550,0
21:39:07.595550,14
21:39:07.595550,5376
21:39:07.595550,0
21:39:07.595550,23
21:39:07.595550,5888
21:39:07.595550,0
21:39:07.595550,21
21:39:07.595550,5376
21:39:07.595550,0
21:39:07.595550,28
21:39:07.595550,7680
21:39:07.595550,0
21:39:07.595550,30
21:39:07.595550,7680
21:39:07.595550,0
21:39:07.595550,30
21:39:08.099719,18
21:39:08.099719,1792
21:39:08.099719,0
21:39:08.099719,2
21:39:08.099719,0
21:39:08.099719,0
21:39:08.099719,21
21:39:08.099719,15616
21:39:08.099719,0
21:39:08.099719,80
21:39:08.099719,15616
21:39:08.099719,0
21:39:08.099719,44
21:39:08.099719,13312
21:39:08.099719,0
21:39:08.099719,63
21:39:08.099719,15616
21:39:08.099719,0
21:39:08.099719,56
21:39:08.099719,14336
21:39:08.099719,0
21:39:08.099719,59
21:39:08.099719,11264
21:39:08.099719,0
21:39:08.099719,-30
21:39:08.099719,25855
21:39:08.099719,-1
21:39:08.099719,-80
21:39:08.099719,-23041
21:39:08.099719,1
21:39:08.099719,1091
21:39:08.099719,-13824
21:39:08.099719,4
21:39:08.099719,615
21:39:08.099719,13824
21:39:08.099719,0
21:39:08.099719,-16
21:39:08.099719,-9217
21:39:08.099719,-1
21:39:08.099719,-127
21:39:08.099719,-28161
21:39:08.099719,-1
21:39:08.099719,-87
21:39:08.099719,-28161
21:39:08.099719,-1
21:39:08.099719,-106
21:39:08.099719,-22529
21:39:08.099719,-1
21:39:08.099719,-94
21:39:08.099719,-23809
21:39:08.099719,-1
21:39:08.099719,-87
21:39:08.099719,-22017
21:39:08.099719,-1
21:39:08.099719,-85
21:39:08.099719,-20737
21:39:08.099719,-1
21:39:08.099719,-87
21:39:08.099719,-24577
21:39:08.099719,-1
21:39:08.099719,-94
21:39:08.099719,-22529
21:39:08.099719,-1
21:39:08.099719,-85
21:39:08.099719,-20225
21:39:08.099719,-1
21:39:08.099719,-71
21:39:08.099719,-13057
21:39:08.099719,-1
21:39:08.099719,-37
21:39:08.099719,-9217
21:39:08.099719,-1
21:39:08.099719,-33
21:39:08.099719,-6913
21:39:08.099719,-1
21:39:08.099719,-28
21:39:08.099719,-5121
21:39:08.099719,-1
21:39:08.099719,-9
21:39:08.099719,-769
21:39:08.099719,-1
21:39:08.099719,-4
21:39:08.099719,767
21:39:08.099719,0
21:39:08.099719,7
21:39:08.099719,1024
21:39:08.099719,0
21:39:08.099719,9
21:39:08.099719,3584
21:39:08.099719,0
21:39:08.099719,7
21:39:08.099719,1024
21:39:08.099719,0
21:39:08.099719,4
21:39:08.099719,512
21:39:08.099719,0
21:39:08.099719,-2
21:39:08.099719,1279
21:39:08.099719,0
21:39:08.099719,14
21:39:08.099719,4096
21:39:08.099719,0
21:39:08.099719,18
21:39:08.099719,5888
21:39:08.099719,0
21:39:08.099719,18
21:39:08.099719,5376
21:39:08.099719,0
21:39:08.099719,26
21:39:08.699407,26
21:39:08.699407,7168
21:39:08.699407,0
21:39:08.699407,33
21:39:08.699407,8448
21:39:08.699407,0
21:39:08.699407,33
21:39:08.699407,7680
21:39:08.699407,0
21:39:08.699407,28
21:39:08.699407,7680
21:39:08.699407,0
21:39:08.699407,44
21:39:08.699407,15104
21:39:08.699407,0
21:39:08.699407,52
21:39:08.699407,9472
21:39:08.699407,0
21:39:08.699407,26
21:39:08.699407,2304
21:39:08.699407,0
21:39:08.699407,9
21:39:08.699407,10752
21:39:08.699407,0
21:39:08.699407,80
21:39:08.699407,22784
21:39:08.699407,0
21:39:08.699407,71
21:39:08.699407,13312
21:39:08.699407,0
21:39:08.699407,49
21:39:08.699407,13824
21:39:08.699407,0
21:39:08.699407,52
21:39:08.699407,12032
21:39:08.699407,0
21:39:08.699407,52
21:39:08.699407,13824
21:39:08.699407,0
21:39:08.699407,37
21:39:08.699407,-10240
21:39:08.699407,-1
21:39:08.699407,-151
21:39:08.699407,-10497
21:39:08.699407,-1
21:39:08.699407,490
21:39:08.699407,31232
21:39:08.699407,4
21:39:08.699407,1217
21:39:08.699407,14336
21:39:08.699407,2
21:39:08.699407,35
21:39:08.699407,-4096
21:39:08.699407,-1
21:39:08.699407,-42
21:39:08.699407,-31745
21:39:08.699407,-1
21:39:08.699407,-108
21:39:08.699407,-22017
21:39:08.699407,-1
21:39:08.699407,-104
21:39:08.699407,-26369
21:39:08.699407,-1
21:39:08.699407,-97
21:39:08.699407,-25089
21:39:08.699407,-1
21:39:08.699407,-94
21:39:08.699407,-22529
21:39:08.699407,-1
21:39:08.699407,-94
21:39:08.699407,-23809
21:39:08.699407,-1
21:39:08.699407,-94
21:39:08.699407,-26369
21:39:08.699407,-1
21:39:08.699407,-113
21:39:08.699407,-28161
21:39:08.699407,-1
21:39:08.699407,-101
21:39:08.699407,-23297
21:39:08.699407,-1
21:39:08.699407,-82
21:39:08.699407,-17921
21:39:08.699407,-1
21:39:08.699407,-56
21:39:08.699407,-11777
21:39:08.699407,-1
21:39:08.699407,-33
21:39:08.699407,-5121
21:39:08.699407,-1
21:39:08.699407,-21
21:39:08.699407,-5121
21:39:08.699407,-1
21:39:08.699407,-14
21:39:08.699407,-769
21:39:08.699407,-1
21:39:08.699407,0
21:39:08.699407,-1024
21:39:08.699407,-1
21:39:08.699407,-4
21:39:08.699407,2047
21:39:08.699407,0
21:39:08.699407,18
21:39:08.699407,3584
21:39:08.699407,0
21:39:08.699407,7
21:39:08.699407,2304
21:39:08.699407,0
21:39:08.699407,9
21:39:09.250022,9
21:39:09.250022,2304
21:39:09.250022,0
21:39:09.250022,7
21:39:09.250022,1792
21:39:09.250022,0
21:39:09.250022,11
21:39:09.250022,2816
21:39:09.250022,0
21:39:09.250022,9
21:39:09.250022,2816
21:39:09.250022,0
21:39:09.250022,16
21:39:09.250022,4608
21:39:09.250022,0
21:39:09.250022,18
21:39:09.250022,5376
21:39:09.250022,0
21:39:09.250022,21
21:39:09.250022,6656
21:39:09.250022,0
21:39:09.250022,40
21:39:09.250022,10752
21:39:09.250022,0
21:39:09.250022,40
21:39:09.250022,11264
21:39:09.250022,0
21:39:09.250022,49
21:39:09.250022,12544
21:39:09.250022,0
21:39:09.250022,52
21:39:09.250022,12544
21:39:09.250022,0
21:39:09.250022,52
21:39:09.250022,14336
21:39:09.250022,0
21:39:09.250022,54
21:39:09.250022,12544
21:39:09.250022,0
21:39:09.250022,56
21:39:09.250022,14336
21:39:09.250022,0
21:39:09.250022,44
21:39:09.250022,10240
21:39:09.250022,0
21:39:09.250022,40
21:39:09.250022,10240
21:39:09.250022,0
21:39:09.250022,44
21:39:09.250022,10240
21:39:09.250022,0
21:39:09.250022,23
21:39:09.250022,1024
21:39:09.250022,0
21:39:09.250022,11
21:39:09.250022,13312
21:39:09.250022,0
21:39:09.250022,80
21:39:09.250022,16128
21:39:09.250022,0
21:39:09.250022,44
21:39:09.250022,10240
21:39:09.250022,0
21:39:09.250022,42
21:39:09.250022,12032
21:39:09.250022,0
21:39:09.250022,42
21:39:09.250022,8448
21:39:09.250022,0
21:39:09.250022,35
21:39:09.250022,7168
21:39:09.250022,0
21:39:09.250022,-28
21:39:09.250022,31487
21:39:09.250022,-1
21:39:09.250022,-125
21:39:09.250022,-2305
21:39:09.250022,0
21:39:09.250022,921
21:39:09.250022,-1024
21:39:09.250022,4
21:39:09.250022,819
21:39:09.250022,-28672
21:39:09.250022,0
21:39:09.250022,-42
21:39:09.250022,-9217
21:39:09.250022,-1
21:39:09.250022,-120
21:39:09.250022,31487
21:39:09.250022,-1
21:39:09.250022,-101
21:39:09.250022,-27393
21:39:09.250022,-1
21:39:09.250022,-118
21:39:09.250022,-27393
21:39:09.250022,-1
21:39:09.250022,-108
21:39:09.250022,-27393
21:39:09.250022,-1
21:39:09.250022,-104
21:39:09.250022,-25601
21:39:09.250022,-1
21:39:09.250022,-111
21:39:09.250022,-27393
21:39:09.250022,-1
21:39:09.250022,-101
21:39:09.250022,-28673
21:39:09.250022,-1
21:39:09.250022,-125
21:39:09.800096,-111
21:39:09.800096,-25601
21:39:09.800096,-1
21:39:09.800096,-108
21:39:09.800096,-23297
21:39:09.800096,-1
21:39:09.800096,-66
21:39:09.800096,-14849
21:39:09.800096,-1
21:39:09.800096,-54
21:39:09.800096,-11009
21:39:09.800096,-1
21:39:09.800096,-30
21:39:09.800096,-4353
21:39:09.800096,-1
21:39:09.800096,-23
21:39:09.800096,-2049
21:39:09.800096,-1
21:39:09.800096,26
21:39:09.800096,7680
21:39:09.800096,0
21:39:09.800096,21
21:39:09.800096,7680
21:39:09.800096,0
21:39:09.800096,42
21:39:09.800096,10752
21:39:09.800096,0
21:39:09.800096,40
21:39:09.800096,10240
21:39:09.800096,0
21:39:09.800096,42
21:39:09.800096,8960
21:39:09.800096,0
21:39:09.800096,28
21:39:09.800096,8448
21:39:09.800096,0
21:39:09.800096,33
21:39:09.800096,7168
21:39:09.800096,0
21:39:09.800096,40
21:39:09.800096,10752
21:39:09.800096,0
21:39:09.800096,23
21:39:09.800096,5888
21:39:09.800096,0
21:39:09.800096,33
21:39:09.800096,7680
21:39:09.800096,0
21:39:09.800096,28
21:39:09.800096,8960
21:39:09.800096,0
21:39:09.800096,44
21:39:09.800096,10752
21:39:09.800096,0
21:39:09.800096,40
21:39:09.800096,12032
21:39:09.800096,0
21:39:09.800096,42
21:39:09.800096,9472
21:39:09.800096,0
21:39:09.800096,47
21:39:09.800096,14336
21:39:09.800096,0
21:39:09.800096,49
21:39:09.800096,9472
21:39:09.800096,0
21:39:09.800096,44
21:39:09.800096,13312
21:39:09.800096,0
21:39:09.800096,42
21:39:09.800096,10752
21:39:09.800096,0
21:39:09.800096,40
21:39:09.800096,7168
21:39:09.800096,0
21:39:09.800096,28
21:39:09.800096,5376
21:39:09.800096,0
21:39:09.800096,2
21:39:09.800096,2304
21:39:09.800096,0
21:39:09.800096,52
21:39:09.800096,20480
21:39:09.800096,0
21:39:09.800096,68
21:39:09.800096,12032
21:39:09.800096,0
21:39:09.800096,35
21:39:09.800096,8960
21:39:09.800096,0
21:39:09.800096,42
21:39:09.800096,10752
21:39:09.800096,0
21:39:09.800096,35
21:39:09.800096,8960
21:39:09.800096,0
21:39:09.800096,33
21:39:09.800096,-3584
21:39:09.800096,-1
21:39:09.800096,-134
21:39:09.800096,22783
21:39:09.800096,-1
21:39:09.800096,149
21:39:09.800096,6400
21:39:09.800096,3
21:39:09.800096,1217
21:39:09.800096,24576
21:39:09.800096,3
21:39:09.800096,191
21:39:10.400493,-28
21:39:10.400493,-5121
21:39:10.400493,-1
21:39:10.400493,-116
21:39:10.400493,-31233
21:39:10.400493,-1
21:39:10.400493,-75
21:39:10.400493,-25089
21:39:10.400493,-1
21:39:10.400493,-113
21:39:10.400493,-24577
21:39:10.400493,-1
21:39:10.400493,-97
21:39:10.400493,-24577
21:39:10.400493,-1
21:39:10.400493,-78
21:39:10.400493,-15361
21:39:10.400493,-1
21:39:10.400493,-68
21:39:10.400493,-20225
21:39:10.400493,-1
21:39:10.400493,-78
21:39:10.400493,-20225
21:39:10.400493,-1
21:39:10.400493,-85
21:39:10.400493,-20737
21:39:10.400493,-1
21:39:10.400493,-78
21:39:10.400493,-18945
21:39:10.400493,-1
21:39:10.400493,-66
21:39:10.400493,-13569
21:39:10.400493,-1
21:39:10.400493,-42
21:39:10.400493,-5121
21:39:10.400493,-1
21:39:10.400493,-9
21:39:10.400493,-2561
21:39:10.400493,-1
21:39:10.400493,-23
21:39:10.400493,-8193
21:39:10.400493,-1
21:39:10.400493,-18
21:39:10.400493,-257
21:39:10.400493,-1
21:39:10.400493,-4
21:39:10.400493,2559
21:39:10.400493,0
21:39:10.400493,23
21:39:10.400493,2816
21:39:10.400493,0
21:39:10.400493,21
21:39:10.400493,5376
21:39:10.400493,0
21:39:10.400493,2
21:39:10.400493,3584
21:39:10.400493,0
21:39:10.400493,30
21:39:10.400493,3584
21:39:10.400493,0
21:39:10.400493,4
21:39:10.400493,2304
21:39:10.400493,0
21:39:10.400493,14
21:39:10.400493,4096
21:39:10.400493,0
21:39:10.400493,18
21:39:10.400493,5376
21:39:10.400493,0
21:39:10.400493,26
21:39:10.400493,8960
21:39:10.400493,0
21:39:10.400493,33
21:39:10.400493,5376
21:39:10.400493,0
21:39:10.400493,23
21:39:10.400493,10240
21:39:10.400493,0
21:39:10.400493,40
21:39:10.400493,7168
21:39:10.400493,0
21:39:10.400493,33
21:39:10.400493,11264
21:39:10.400493,0
21:39:10.400493,30
21:39:10.400493,4096
21:39:10.400493,0
21:39:10.400493,30
21:39:10.400493,11264
21:39:10.400493,0
21:39:10.400493,42
21:39:10.400493,8960
21:39:10.400493,0
21:39:10.400493,18
21:39:10.400493,4608
21:39:10.400493,0
21:39:10.400493,40
21:39:10.400493,11264
21:39:10.400493,0
21:39:10.400493,28
21:39:10.400493,8448
21:39:10.400493,0
21:39:10.400493,40
21:39:10.400493,6656
21:39:10.400493,0
21:39:10.400493,18
21:39:10.400493,8448
21:39:10.400493,0
21:39:10.400493,30
21:39:10.899546,0
21:39:10.899546,-6656
21:39:10.899546,-1
21:39:10.899546,-7
21:39:10.899546,11519
21:39:10.899546,0
21:39:10.899546,73
21:39:10.899546,13824
21:39:10.899546,0
21:39:10.899546,28
21:39:10.899546,9472
21:39:10.899546,0
21:39:10.899546,42
21:39:10.899546,5888
21:39:10.899546,0
21:39:10.899546,21
21:39:10.899546,7168
21:39:10.899546,0
21:39:10.899546,28
21:39:10.899546,7168
21:39:10.899546,0
21:39:10.899546,-7
21:39:10.899546,-29953
21:39:10.899546,-1
21:39:10.899546,-165
21:39:10.899546,27391
21:39:10.899546,0
21:39:10.899546,731
21:39:10.899546,-10752
21:39:10.899546,4
21:39:10.899546,1006
21:39:10.899546,13824
21:39:10.899546,1
21:39:10.899546,-23
21:39:10.899546,-4353
21:39:10.899546,-1
21:39:10.899546,-78
21:39:10.899546,-31233
21:39:10.899546,-1
21:39:10.899546,-97
21:39:10.899546,-24577
21:39:10.899546,-1
21:39:10.899546,-111
21:39:10.899546,-26881
21:39:10.899546,-1
21:39:10.899546,-99
21:39:10.899546,-23809
21:39:10.899546,-1
21:39:10.899546,-99
21:39:10.899546,-26369
21:39:10.899546,-1
21:39:10.899546,-94
21:39:10.899546,-20225
21:39:10.899546,-1
21:39:10.899546,-92
21:39:10.899546,-28673
21:39:10.899546,-1
21:39:10.899546,-113
21:39:10.899546,-26881
21:39:10.899546,-1
21:39:10.899546,-106
21:39:10.899546,-24577
21:39:10.899546,-1
21:39:10.899546,-85
21:39:10.899546,-18433
21:39:10.899546,-1
21:39:10.899546,-54
21:39:10.899546,-11009
21:39:10.899546,-1
21:39:10.899546,-40
21:39:10.899546,-5121
21:39:10.899546,-1
21:39:10.899546,-9
21:39:10.899546,-6913
21:39:10.899546,-1
21:39:10.899546,-35
21:39:10.899546,-2561
21:39:10.899546,-1
21:39:10.899546,-2
21:39:10.899546,-769
21:39:10.899546,-1
21:39:10.899546,16
21:39:10.899546,5888
21:39:10.899546,0
21:39:10.899546,-4
21:39:10.899546,767
21:39:10.899546,0
21:39:10.899546,33
21:39:10.899546,5376
21:39:10.899546,0
21:39:10.899546,7
21:39:10.899546,5888
21:39:10.899546,0
21:39:10.899546,28
21:39:10.899546,7168
21:39:10.899546,0
21:39:10.899546,28
21:39:10.899546,4096
21:39:10.899546,0
21:39:10.899546,16
21:39:10.899546,8448
21:39:10.899546,0
21:39:10.899546,26
21:39:10.899546,3584
21:39:10.899546,0
21:39:10.899546,30
21:39:10.899546,10240
21:39:10.899546,0
21:39:10.899546,26
21:39:11.450504,18
21:39:11.450504,8960
21:39:11.450504,0
21:39:11.450504,40
21:39:11.450504,5888
21:39:11.450504,0
21:39:11.450504,26
21:39:11.450504,10240
21:39:11.450504,0
21:39:11.450504,33
21:39:11.450504,6656
21:39:11.450504,0
21:39:11.450504,47
21:39:11.450504,15104
21:39:11.450504,0
21:39:11.450504,49
21:39:11.450504,11264
21:39:11.450504,0
21:39:11.450504,44
21:39:11.450504,12032
21:39:11.450504,0
21:39:11.450504,49
21:39:11.450504,13312
21:39:11.450504,0
21:39:11.450504,47
21:39:11.450504,9472
21:39:11.450504,0
21:39:11.450504,42
21:39:11.450504,12032
21:39:11.450504,0
21:39:11.450504,35
21:39:11.450504,8448
21:39:11.450504,0
21:39:11.450504,35
21:39:11.450504,6656
21:39:11.450504,0
21:39:11.450504,16
21:39:11.450504,2304
21:39:11.450504,0
21:39:11.450504,9
21:39:11.450504,10752
21:39:11.450504,0
21:39:11.450504,73
21:39:11.450504,16128
21:39:11.450504,0
21:39:11.450504,44
21:39:11.450504,8960
21:39:11.450504,0
21:39:11.450504,33
21:39:11.450504,10240
21:39:11.450504,0
21:39:11.450504,40
21:39:11.450504,8960
21:39:11.450504,0
21:39:11.450504,40
21:39:11.450504,7168
21:39:11.450504,0
21:39:11.450504,-18
21:39:11.450504,-31233
21:39:11.450504,-1
21:39:11.450504,-165
21:39:11.450504,-27905
21:39:11.450504,0
21:39:11.450504,814
21:39:11.450504,-8960
21:39:11.450504,4
21:39:11.450504,878
21:39:11.450504,-16640
21:39:11.450504,0
21:39:11.450504,-35
21:39:11.450504,-5633
21:39:11.450504,-1
21:39:11.450504,-116
21:39:11.450504,30207
21:39:11.450504,-1
21:39:11.450504,-99
21:39:11.450504,-28161
21:39:11.450504,-1
21:39:11.450504,-125
21:39:11.450504,-28161
21:39:11.450504,-1
21:39:11.450504,-97
21:39:11.450504,-22529
21:39:11.450504,-1
21:39:11.450504,-87
21:39:11.450504,-23297
21:39:11.450504,-1
21:39:11.450504,-89
21:39:11.450504,-23809
21:39:11.450504,-1
21:39:11.450504,-104
21:39:11.450504,-24577
21:39:11.450504,-1
21:39:11.450504,-89
21:39:11.450504,-25601
21:39:11.450504,-1
21:39:11.450504,-108
21:39:11.450504,-25089
21:39:11.450504,-1
21:39:11.450504,-92
21:39:11.450504,-17153
21:39:11.450504,-1
21:39:11.450504,-42
21:39:11.450504,-8705
21:39:11.450504,-1
21:39:11.450504,-28
21:39:11.450504,-4353
21:39:11.450504,-1
21:39:11.450504,-18
21:39:12.049476,-26
21:39:12.049476,-3329
21:39:12.049476,-1
21:39:12.049476,4
21:39:12.049476,2816
21:39:12.049476,0
21:39:12.049476,14
21:39:12.049476,5888
21:39:12.049476,0
21:39:12.049476,30
21:39:12.049476,10752
21:39:12.049476,0
21:39:12.049476,49
21:39:12.049476,12544
21:39:12.049476,0
21:39:12.049476,44
21:39:12.049476,8448
21:39:12.049476,0
21:39:12.049476,28
21:39:12.049476,7680
21:39:12.049476,0
21:39:12.049476,26
21:39:12.049476,6656
21:39:12.049476,0
21:39:12.049476,26
21:39:12.049476,5888
21:39:12.049476,0
21:39:12.049476,23
21:39:12.049476,5888
21:39:12.049476,0
21:39:12.049476,28
21:39:12.049476,8960
21:39:12.049476,0
21:39:12.049476,33
21:39:12.049476,7168
21:39:12.049476,0
21:39:12.049476,26
21:39:12.049476,7680
21:39:12.049476,0
21:39:12.049476,35
21:39:12.049476,7680
21:39:12.049476,0
21:39:12.049476,30
21:39:12.049476,8960
21:39:12.049476,0
21:39:12.049476,35
21:39:12.049476,9472
21:39:12.049476,0
21:39:12.049476,35
21:39:12.049476,8960
21:39:12.049476,0
21:39:12.049476,44
21:39:12.049476,11264
21:39:12.049476,0
21:39:12.049476,37
21:39:12.049476,8448
21:39:12.049476,0
21:39:12.049476,37
21:39:12.049476,9472
21:39:12.049476,0
21:39:12.049476,33
21:39:12.049476,6656
21:39:12.049476,0
21:39:12.049476,11
21:39:12.049476,0
21:39:12.049476,0
21:39:12.049476,14
21:39:12.049476,13312
21:39:12.049476,0
21:39:12.049476,80
21:39:12.049476,18688
21:39:12.049476,0
21:39:12.049476,52
21:39:12.049476,11264
21:39:12.049476,0
21:39:12.049476,44
21:39:12.049476,11264
21:39:12.049476,0
21:39:12.049476,44
21:39:12.049476,10240
21:39:12.049476,0
21:39:12.049476,40
21:39:12.049476,10240
21:39:12.049476,0
21:39:12.049476,-7
21:39:12.049476,32511
21:39:12.049476,-1
21:39:12.049476,-158
21:39:12.049476,-21249
21:39:12.049476,0
21:39:12.049476,826
21:39:12.049476,-12032
21:39:12.049476,4
21:39:12.049476,862
21:39:12.049476,-17152
21:39:12.049476,0
21:39:12.049476,-30
21:39:12.049476,-3841
21:39:12.049476,-1
21:39:12.049476,-101
21:39:12.049476,32511
21:39:12.049476,-1
21:39:12.049476,-87
21:39:12.049476,-24577
21:39:12.049476,-1
21:39:12.049476,-106
21:39:12.049476,-22529
21:39:12.049476,-1
21:39:12.049476,-89
21:39:12.599620,-94
21:39:12.599620,-22017
21:39:12.599620,-1
21:39:12.599620,-87
21:39:12.599620,-23297
21:39:12.599620,-1
21:39:12.599620,-85
21:39:12.599620,-21505
21:39:12.599620,-1
21:39:12.599620,-92
21:39:12.599620,-22529
21:39:12.599620,-1
21:39:12.599620,-89
21:39:12.599620,-23809
21:39:12.599620,-1
21:39:12.599620,-80
21:39:12.599620,-14849
21:39:12.599620,-1
21:39:12.599620,-37
21:39:12.599620,-5121
21:39:12.599620,-1
21:39:12.599620,-9
21:39:12.599620,-257
21:39:12.599620,-1
21:39:12.599620,2
21:39:12.599620,1792
21:39:12.599620,0
21:39:12.599620,9
21:39:12.599620,2816
21:39:12.599620,0
21:39:12.599620,11
21:39:12.599620,4096
21:39:12.599620,0
21:39:12.599620,21
21:39:12.599620,5376
21:39:12.599620,0
21:39:12.599620,23
21:39:12.599620,8448
21:39:12.599620,0
21:39:12.599620,35
21:39:12.599620,8448
21:39:12.599620,0
21:39:12.599620,30
21:39:12.599620,6656
21:39:12.599620,0
21:39:12.599620,21
21:39:12.599620,5888
21:39:12.599620,0
21:39:12.599620,28
21:39:12.599620,7168
21:39:12.599620,0
21:39:12.599620,18
21:39:12.599620,4096
21:39:12.599620,0
21:39:12.599620,23
21:39:12.599620,6656
21:39:12.599620,0
21:39:12.599620,26
21:39:12.599620,8960
21:39:12.599620,0
21:39:12.599620,44
21:39:12.599620,8960
21:39:12.599620,0
21:39:12.599620,30
21:39:12.599620,10240
21:39:12.599620,0
21:39:12.599620,40
21:39:12.599620,9472
21:39:12.599620,0
21:39:12.599620,40
21:39:12.599620,8960
21:39:12.599620,0
21:39:12.599620,30
21:39:12.599620,8448
21:39:12.599620,0
21:39:12.599620,30
21:39:12.599620,5888
21:39:12.599620,0
21:39:12.599620,28
21:39:12.599620,9472
21:39:12.599620,0
21:39:12.599620,33
21:39:12.599620,6656
21:39:12.599620,0
21:39:12.599620,28
21:39:12.599620,6656
21:39:12.599620,0
21:39:12.599620,11
21:39:12.599620,1024
21:39:12.599620,0
21:39:12.599620,4
21:39:12.599620,-512
21:39:12.599620,-1
21:39:12.599620,0
21:39:12.599620,10752
21:39:12.599620,0
21:39:12.599620,78
21:39:12.599620,15104
21:39:12.599620,0
21:39:12.599620,23
21:39:12.599620,5376
21:39:12.599620,0
21:39:12.599620,35
21:39:12.599620,7680
21:39:12.599620,0
21:39:12.599620,26
21:39:12.599620,6656
21:39:12.599620,0
21:39:12.599620,21
21:39:13.149446,16
21:39:13.149446,-7680
21:39:13.149446,-1
21:39:13.149446,-149
21:39:13.149446,30207
21:39:13.149446,-1
21:39:13.149446,258
21:39:13.149446,-24576
21:39:13.149446,3
21:39:13.149446,1240
21:39:13.149446,-1536
21:39:13.149446,2
21:39:13.149446,111
21:39:13.149446,-12032
21:39:13.149446,-1
21:39:13.149446,-33
21:39:13.149446,-26369
21:39:13.149446,-1
21:39:13.149446,-104
21:39:13.149446,-23297
21:39:13.149446,-1
21:39:13.149446,-120
21:39:13.149446,-26881
21:39:13.149446,-1
21:39:13.149446,-82
21:39:13.149446,-22529
21:39:13.149446,-1
21:39:13.149446,-92
21:39:13.149446,-22017
21:39:13.149446,-1
21:39:13.149446,-87
21:39:13.149446,-23297
21:39:13.149446,-1
21:39:13.149446,-94
21:39:13.149446,-23809
21:39:13.149446,-1
21:39:13.149446,-99
21:39:13.149446,-25089
21:39:13.149446,-1
21:39:13.149446,-97
21:39:13.149446,-23809
21:39:13.149446,-1
21:39:13.149446,-80
21:39:13.149446,-15361
21:39:13.149446,-1
21:39:13.149446,-56
21:39:13.149446,-12289
21:39:13.149446,-1
21:39:13.149446,-30
21:39:13.149446,-4353
21:39:13.149446,-1
21:39:13.149446,-14
21:39:13.149446,-257
21:39:13.149446,-1
21:39:13.149446,2
21:39:13.149446,-512
21:39:13.149446,-1
21:39:13.149446,2
21:39:13.149446,2816
21:39:13.149446,0
21:39:13.149446,16
21:39:13.149446,3584
21:39:13.149446,0
21:39:13.149446,23
21:39:13.149446,7680
21:39:13.149446,0
21:39:13.149446,23
21:39:13.149446,4096
21:39:13.149446,0
21:39:13.149446,26
21:39:13.149446,7168
21:39:13.149446,0
21:39:13.149446,14
21:39:13.149446,1792
21:39:13.149446,0
21:39:13.149446,18
21:39:13.149446,5888
21:39:13.149446,0
21:39:13.149446,14
21:39:13.149446,5376
21:39:13.149446,0
21:39:13.149446,28
21:39:13.149446,5376
21:39:13.149446,0
21:39:13.149446,18
21:39:13.149446,5376
21:39:13.149446,0
21:39:13.149446,21
21:39:13.149446,5888
21:39:13.149446,0
21:39:13.149446,21
21:39:13.149446,5888
21:39:13.149446,0
21:39:13.149446,33
21:39:13.149446,8960
21:39:13.149446,0
21:39:13.149446,28
21:39:13.149446,4608
21:39:13.149446,0
21:39:13.149446,23
21:39:13.149446,9472
21:39:13.149446,0
21:39:13.149446,42
21:39:13.149446,5888
21:39:13.149446,0
21:39:13.149446,11
21:39:13.149446,5888
21:39:13.149446,0
21:39:13.149446,26
21:39:13.699598,7
21:39:13.699598,-1792
21:39:13.699598,-1
21:39:13.699598,-9
21:39:13.699598,2559
21:39:13.699598,0
21:39:13.699598,40
21:39:13.699598,16128
21:39:13.699598,0
21:39:13.699598,56
21:39:13.699598,6656
21:39:13.699598,0
21:39:13.699598,21
21:39:13.699598,14336
21:39:13.699598,0
21:39:13.699598,68
21:39:13.699598,15104
21:39:13.699598,0
21:39:13.699598,49
21:39:13.699598,10240
21:39:13.699598,0
21:39:13.699598,30
21:39:13.699598,-9472
21:39:13.699598,-1
21:39:13.699598,-165
21:39:13.699598,-20225
21:39:13.699598,-1
21:39:13.699598,423
21:39:13.699598,6400
21:39:13.699598,4
21:39:13.699598,1134
21:39:13.699598,8192
21:39:13.699598,2
21:39:13.699598,44
21:39:13.699598,-1024
21:39:13.699598,-1
21:39:13.699598,-37
21:39:13.699598,-29441
21:39:13.699598,-1
21:39:13.699598,-94
21:39:13.699598,-18945
21:39:13.699598,-1
21:39:13.699598,-94
21:39:13.699598,-21505
21:39:13.699598,-1
21:39:13.699598,-73
21:39:13.699598,-22017
21:39:13.699598,-1
21:39:13.699598,-89
21:39:13.699598,-16641
21:39:13.699598,-1
21:39:13.699598,-61
21:39:13.699598,-23297
21:39:13.699598,-1
21:39:13.699598,-97
21:39:13.699598,-18433
21:39:13.699598,-1
21:39:13.699598,-71
21:39:13.699598,-21505
21:39:13.699598,-1
21:39:13.699598,-80
21:39:13.699598,-17153
21:39:13.699598,-1
21:39:13.699598,-59
21:39:13.699598,-14081
21:39:13.699598,-1
21:39:13.699598,-35
21:39:13.699598,255
21:39:13.699598,0
21:39:13.699598,0
21:39:13.699598,-4608
21:39:13.699598,-1
21:39:13.699598,-11
21:39:13.699598,-257
21:39:13.699598,-1
21:39:13.699598,-11
21:39:13.699598,-1537
21:39:13.699598,-1
21:39:13.699598,11
21:39:13.699598,3584
21:39:13.699598,0
21:39:13.699598,4
21:39:13.699598,1792
21:39:13.699598,0
21:39:13.699598,9
21:39:13.699598,512
21:39:13.699598,0
21:39:13.699598,18
21:39:13.699598,7168
21:39:13.699598,0
21:39:13.699598,11
21:39:13.699598,1792
21:39:13.699598,0
21:39:13.699598,7
21:39:13.699598,1024
21:39:13.699598,0
21:39:13.699598,7
21:39:13.699598,512
21:39:13.699598,0
21:39:13.699598,2
21:39:13.699598,2816
21:39:13.699598,0
21:39:13.699598,16
21:39:13.699598,5376
21:39:13.699598,0
21:39:13.699598,21
21:39:13.699598,4608
21:39:13.699598,0
21:39:13.699598,11
21:39:14.249380,11
21:39:14.249380,6656
21:39:14.249380,0
21:39:14.249380,26
21:39:14.249380,4608
21:39:14.249380,0
21:39:14.249380,30
21:39:14.249380,9472
21:39:14.249380,0
21:39:14.249380,21
21:39:14.249380,4096
21:39:14.249380,0
21:39:14.249380,21
21:39:14.249380,0
21:39:14.249380,0
21:39:14.249380,4
21:39:14.249380,16128
21:39:14.249380,0
21:39:14.249380,99
21:39:14.249380,19968
21:39:14.249380,0
21:39:14.249380,56
21:39:14.249380,12544
21:39:14.249380,0
21:39:14.249380,42
21:39:14.249380,12032
21:39:14.249380,0
21:39:14.249380,52
21:39:14.249380,11264
21:39:14.249380,0
21:39:14.249380,44
21:39:14.249380,12032
21:39:14.249380,0
21:39:14.249380,7
21:39:14.249380,-28928
21:39:14.249380,-1
21:39:14.249380,-189
21:39:14.249380,20735
21:39:14.249380,0
21:39:14.249380,731
21:39:14.249380,-5888
21:39:14.249380,4
21:39:14.249380,1018
21:39:14.249380,10752
21:39:14.249380,1
21:39:14.249380,-35
21:39:14.249380,-2561
21:39:14.249380,-1
21:39:14.249380,-78
21:39:14.249380,28927
21:39:14.249380,-1
21:39:14.249380,-104
21:39:14.249380,-22529
21:39:14.249380,-1
21:39:14.249380,-113
21:39:14.249380,-27393
21:39:14.249380,-1
21:39:14.249380,-111
21:39:14.249380,-30465
21:39:14.249380,-1
21:39:14.249380,-104
21:39:14.249380,-25601
21:39:14.249380,-1
21:39:14.249380,-106
21:39:14.249380,-23809
21:39:14.249380,-1
21:39:14.249380,-99
21:39:14.249380,-29441
21:39:14.249380,-1
21:39:14.249380,-108
21:39:14.249380,-27393
21:39:14.249380,-1
21:39:14.249380,-123
21:39:14.249380,-29441
21:39:14.249380,-1
21:39:14.249380,-94
21:39:14.249380,-20737
21:39:14.249380,-1
21:39:14.249380,-73
21:39:14.249380,-10497
21:39:14.249380,-1
21:39:14.249380,-23
21:39:14.249380,-7425
21:39:14.249380,-1
21:39:14.249380,-33
21:39:14.249380,-5633
21:39:14.249380,-1
21:39:14.249380,-14
21:39:14.249380,-3329
21:39:14.249380,-1
21:39:14.249380,-9
21:39:14.249380,-257
21:39:14.249380,-1
21:39:14.249380,2
21:39:14.249380,1792
21:39:14.249380,0
21:39:14.249380,16
21:39:14.249380,4608
21:39:14.249380,0
21:39:14.249380,18
21:39:14.249380,3584
21:39:14.249380,0
21:39:14.249380,9
21:39:14.249380,2816
21:39:14.249380,0
21:39:14.249380,21
21:39:14.249380,5888
21:39:14.249380,0
21:39:14.249380,14
21:39:14.800411,4
21:39:14.800411,1792
21:39:14.800411,0
21:39:14.800411,16
21:39:14.800411,5888
21:39:14.800411,0
21:39:14.800411,28
21:39:14.800411,9472
21:39:14.800411,0
21:39:14.800411,44
21:39:14.800411,11264
21:39:14.800411,0
21:39:14.800411,44
21:39:14.800411,14336
21:39:14.800411,0
21:39:14.800411,61
21:39:14.800411,13824
21:39:14.800411,0
21:39:14.800411,59
21:39:14.800411,15616
21:39:14.800411,0
21:39:14.800411,47
21:39:14.800411,8960
21:39:14.800411,0
21:39:14.800411,33
21:39:14.800411,6656
21:39:14.800411,0
21:39:14.800411,21
21:39:14.800411,10752
21:39:14.800411,0
21:39:14.800411,75
21:39:14.800411,20992
21:39:14.800411,0
21:39:14.800411,68
21:39:14.800411,14336
21:39:14.800411,0
21:39:14.800411,59
21:39:14.800411,15104
21:39:14.800411,0
21:39:14.800411,54
21:39:14.800411,12032
21:39:14.800411,0
21:39:14.800411,42
21:39:14.800411,10240
21:39:14.800411,0
21:39:14.800411,21
21:39:14.800411,-12032
21:39:14.800411,-1
21:39:14.800411,-161
21:39:14.800411,-19713
21:39:14.800411,-1
21:39:14.800411,454
21:39:14.800411,-27648
21:39:14.800411,4
21:39:14.800411,1293
21:39:14.800411,27648
21:39:14.800411,2
21:39:14.800411,33
21:39:14.800411,-10240
21:39:14.800411,-1
21:39:14.800411,-56
21:39:14.800411,28927
21:39:14.800411,-1
21:39:14.800411,-137
21:39:14.800411,-29441
21:39:14.800411,-1
21:39:14.800411,-130
21:39:14.800411,-29953
21:39:14.800411,-1
21:39:14.800411,-106
21:39:14.800411,-29953
21:39:14.800411,-1
21:39:14.800411,-116
21:39:14.800411,-27393
21:39:14.800411,-1
21:39:14.800411,-113
21:39:14.800411,-29441
21:39:14.800411,-1
21:39:14.800411,-108
21:39:14.800411,-28673
21:39:14.800411,-1
21:39:14.800411,-125
21:39:14.800411,-32257
21:39:14.800411,-1
21:39:14.800411,-123
21:39:14.800411,-29441
21:39:14.800411,-1
21:39:14.800411,-94
21:39:14.800411,-20225
21:39:14.800411,-1
21:39:14.800411,-78
21:39:14.800411,-14849
21:39:14.800411,-1
21:39:14.800411,-30
21:39:14.800411,-6401
21:39:14.800411,-1
21:39:14.800411,-30
21:39:14.800411,-6913
21:39:14.800411,-1
21:39:14.800411,-26
21:39:14.800411,-3841
21:39:14.800411,-1
21:39:14.800411,-4
21:39:14.800411,-1537
21:39:14.800411,-1
21:39:14.800411,-9
21:39:14.800411,255
21:39:14.800411,0
21:39:14.800411,9
21:39:15.400303,7
21:39:15.400303,1024
21:39:15.400303,0
21:39:15.400303,11
21:39:15.400303,5376
21:39:15.400303,0
21:39:15.400303,26
21:39:15.400303,7680
21:39:15.400303,0
21:39:15.400303,35
21:39:15.400303,8448
21:39:15.400303,0
21:39:15.400303,23
21:39:15.400303,6656
21:39:15.400303,0
21:39:15.400303,28
21:39:15.400303,5888
21:39:15.400303,0
21:39:15.400303,26
21:39:15.400303,7168
21:39:15.400303,0
21:39:15.400303,21
21:39:15.400303,5376
21:39:15.400303,0
21:39:15.400303,35
21:39:15.400303,11264
21:39:15.400303,0
21:39:15.400303,40
21:39:15.400303,9472
21:39:15.400303,0
21:39:15.400303,44
21:39:15.400303,12032
21:39:15.400303,0
21:39:15.400303,47
21:39:15.400303,12032
21:39:15.400303,0
21:39:15.400303,47
21:39:15.400303,11264
21:39:15.400303,0
21:39:15.400303,49
21:39:15.400303,13824
21:39:15.400303,0
21:39:15.400303,47
21:39:15.400303,8960
21:39:15.400303,0
21:39:15.400303,23
21:39:15.400303,1792
21:39:15.400303,0
21:39:15.400303,-2
21:39:15.400303,2047
21:39:15.400303,0
21:39:15.400303,40
21:39:15.400303,16128
21:39:15.400303,0
21:39:15.400303,61
21:39:15.400303,13824
21:39:15.400303,0
21:39:15.400303,49
21:39:15.400303,10240
21:39:15.400303,0
21:39:15.400303,37
21:39:15.400303,10240
21:39:15.400303,0
21:39:15.400303,30
21:39:15.400303,7168
21:39:15.400303,0
21:39:15.400303,28
21:39:15.400303,1792
21:39:15.400303,0
21:39:15.400303,-66
21:39:15.400303,22783
21:39:15.400303,-1
21:39:15.400303,-42
21:39:15.400303,3071
21:39:15.400303,2
21:39:15.400303,1188
21:39:15.400303,-19712
21:39:15.400303,4
21:39:15.400303,513
21:39:15.400303,512
21:39:15.400303,0
21:39:15.400303,-37
21:39:15.400303,-17921
21:39:15.400303,-1
21:39:15.400303,-151
21:39:15.400303,-32257
21:39:15.400303,-1
21:39:15.400303,-106
21:39:15.400303,-31745
21:39:15.400303,-1
21:39:15.400303,-125
21:39:15.400303,-30465
21:39:15.400303,-1
21:39:15.400303,-118
21:39:15.400303,-26369
21:39:15.400303,-1
21:39:15.400303,-108
21:39:15.400303,-30465
21:39:15.400303,-1
21:39:15.400303,-106
21:39:15.400303,-25601
21:39:15.400303,-1
21:39:15.400303,-116
21:39:15.400303,-28673
21:39:15.400303,-1
21:39:15.400303,-108
21:39:15.400303,-29953
21:39:15.400303,-1
21:39:15.400303,-113
21:39:15.997235,-99
21:39:15.997235,-22017
21:39:15.997235,-1
21:39:15.997235,-68
21:39:15.997235,-9217
21:39:15.997235,-1
21:39:15.997235,-26
21:39:15.997235,-6913
21:39:15.997235,-1
21:39:15.997235,-21
21:39:15.997235,-5121
21:39:15.997235,-1
21:39:15.997235,-18
21:39:15.997235,-257
21:39:15.997235,-1
21:39:15.997235,18
21:39:15.997235,4096
21:39:15.997235,0
21:39:15.997235,14
21:39:15.997235,8448
21:39:15.997235,0
21:39:15.997235,47
21:39:15.997235,10240
21:39:15.997235,0
21:39:15.997235,26
21:39:15.997235,7168
21:39:15.997235,0
21:39:15.997235,35
21:39:15.997235,8960
21:39:15.997235,0
21:39:15.997235,28
21:39:15.997235,5376
21:39:15.997235,0
21:39:15.997235,14
21:39:15.997235,4608
21:39:15.997235,0
21:39:15.997235,37
21:39:15.997235,7680
21:39:15.997235,0
21:39:15.997235,4
21:39:15.997235,2304
21:39:15.997235,0
21:39:15.997235,35
21:39:15.997235,9472
21:39:15.997235,0
21:39:15.997235,18
21:39:15.997235,5376
21:39:15.997235,0
21:39:15.997235,33
21:39:15.997235,8960
21:39:15.997235,0
21:39:15.997235,33
21:39:15.997235,8960
21:39:15.997235,0
21:39:15.997235,42
21:39:15.997235,9472
21:39:15.997235,0
21:39:15.997235,37
21:39:15.997235,15104
21:39:15.997235,0
21:39:15.997235,63
21:39:15.997235,12544
21:39:15.997235,0
21:39:15.997235,49
21:39:15.997235,13312
21:39:15.997235,0
21:39:15.997235,40
21:39:15.997235,10240
21:39:15.997235,0
21:39:15.997235,52
21:39:15.997235,12544
21:39:15.997235,0
21:39:15.997235,35
21:39:15.997235,8448
21:39:15.997235,0
21:39:15.997235,33
21:39:15.997235,5376
21:39:15.997235,0
21:39:15.997235,4
21:39:15.997235,2304
21:39:15.997235,0
21:39:15.997235,44
21:39:15.997235,19200
21:39:15.997235,0
21:39:15.997235,68
21:39:15.997235,12032
21:39:15.997235,0
21:39:15.997235,40
21:39:15.997235,12032
21:39:15.997235,0
21:39:15.997235,52
21:39:15.997235,11264
21:39:15.997235,0
21:39:15.997235,37
21:39:15.997235,10752
21:39:15.997235,0
21:39:15.997235,42
21:39:15.997235,-2304
21:39:15.997235,-1
21:39:15.997235,-132
21:39:15.997235,19199
21:39:15.997235,-1
21:39:15.997235,132
21:39:15.997235,13568
21:39:15.997235,3
21:39:15.997235,1283
21:39:15.997235,-27136
21:39:15.997235,3
21:39:15.997235,213
21:39:16.500508,-26
21:39:16.500508,-2049
21:39:16.500508,-1
21:39:16.500508,-104
21:39:16.500508,28415
21:39:16.500508,-1
21:39:16.500508,-104
21:39:16.500508,-27393
21:39:16.500508,-1
21:39:16.500508,-123
21:39:16.500508,-25601
21:39:16.500508,-1
21:39:16.500508,-94
21:39:16.500508,-26881
21:39:16.500508,-1
21:39:16.500508,-94
21:39:16.500508,-19713
21:39:16.500508,-1
21:39:16.500508,-89
21:39:16.500508,-25089
21:39:16.500508,-1
21:39:16.500508,-87
21:39:16.500508,-21505
21:39:16.500508,-1
21:39:16.500508,-92
21:39:16.500508,-23297
21:39:16.500508,-1
21:39:16.500508,-85
21:39:16.500508,-20225
21:39:16.500508,-1
21:39:16.500508,-68
21:39:16.500508,-13057
21:39:16.500508,-1
21:39:16.500508,-40
21:39:16.500508,-7425
21:39:16.500508,-1
21:39:16.500508,-16
21:39:16.500508,-2049
21:39:16.500508,-1
21:39:16.500508,-11
21:39:16.500508,-1537
21:39:16.500508,-1
21:39:16.500508,-2
21:39:16.500508,-257
21:39:16.500508,-1
21:39:16.500508,2
21:39:16.500508,3584
21:39:16.500508,0
21:39:16.500508,21
21:39:16.500508,4096
21:39:16.500508,0
21:39:16.500508,11
21:39:16.500508,5376
21:39:16.500508,0
21:39:16.500508,28
21:39:16.500508,3584
21:39:16.500508,0
21:39:16.500508,7
21:39:16.500508,4608
21:39:16.500508,0
21:39:16.500508,21
21:39:16.500508,3584
21:39:16.500508,0
21:39:16.500508,16
21:39:16.500508,4096
21:39:16.500508,0
21:39:16.500508,14
21:39:16.500508,4096
21:39:16.500508,0
21:39:16.500508,11
21:39:16.500508,2304
21:39:16.500508,0
21:39:16.500508,21
21:39:16.500508,7168
21:39:16.500508,0
21:39:16.500508,26
21:39:16.500508,7168
21:39:16.500508,0
21:39:16.500508,33
21:39:16.500508,8960
21:39:16.500508,0
21:39:16.500508,49
21:39:16.500508,15616
21:39:16.500508,0
21:39:16.500508,52
21:39:16.500508,10752
21:39:16.500508,0
21:39:16.500508,49
21:39:16.500508,13312
21:39:16.500508,0
21:39:16.500508,42
21:39:16.500508,11264
21:39:16.500508,0
21:39:16.500508,54
21:39:16.500508,12544
21:39:16.500508,0
21:39:16.500508,37
21:39:16.500508,8448
21:39:16.500508,0
21:39:16.500508,28
21:39:16.500508,5888
21:39:16.500508,0
21:39:16.500508,11
21:39:16.500508,-512
21:39:16.500508,-1
21:39:16.500508,18
21:39:16.500508,16896
21:39:16.500508,0
21:39:16.500508,78
21:39:17.050100,59
21:39:17.050100,11264
21:39:17.050100,0
21:39:17.050100,42
21:39:17.050100,10240
21:39:17.050100,0
21:39:17.050100,33
21:39:17.050100,6656
21:39:17.050100,0
21:39:17.050100,35
21:39:17.050100,15104
21:39:17.050100,0
21:39:17.050100,47
21:39:17.050100,-10240
21:39:17.050100,-1
21:39:17.050100,-158
21:39:17.050100,-20225
21:39:17.050100,-1
21:39:17.050100,428
21:39:17.050100,29440
21:39:17.050100,4
21:39:17.050100,1302
21:39:17.050100,-25856
21:39:17.050100,2
21:39:17.050100,59
21:39:17.050100,-8448
21:39:17.050100,-1
21:39:17.050100,-47
21:39:17.050100,30719
21:39:17.050100,-1
21:39:17.050100,-130
21:39:17.050100,-26369
21:39:17.050100,-1
21:39:17.050100,-125
21:39:17.050100,-31233
21:39:17.050100,-1
21:39:17.050100,-101
21:39:17.050100,-26881
21:39:17.050100,-1
21:39:17.050100,-113
21:39:17.050100,-27393
21:39:17.050100,-1
21:39:17.050100,-106
21:39:17.050100,-28673
21:39:17.050100,-1
21:39:17.050100,-120
21:39:17.050100,-29953
21:39:17.050100,-1
21:39:17.050100,-116
21:39:17.050100,-29953
21:39:17.050100,-1
21:39:17.050100,-123
21:39:17.050100,-31745
21:39:17.050100,-1
21:39:17.050100,-111
21:39:17.050100,-23297
21:39:17.050100,-1
21:39:17.050100,-85
21:39:17.050100,-17921
21:39:17.050100,-1
21:39:17.050100,-33
21:39:17.050100,-3329
21:39:17.050100,-1
21:39:17.050100,-28
21:39:17.050100,-7425
21:39:17.050100,-1
21:39:17.050100,-16
21:39:17.050100,-1537
21:39:17.050100,-1
21:39:17.050100,-7
21:39:17.050100,-2049
21:39:17.050100,-1
21:39:17.050100,-4
21:39:17.050100,2559
21:39:17.050100,0
21:39:17.050100,9
21:39:17.050100,512
21:39:17.050100,0
21:39:17.050100,21
21:39:17.050100,8448
21:39:17.050100,0
21:39:17.050100,21
21:39:17.050100,3584
21:39:17.050100,0
21:39:17.050100,18
21:39:17.050100,4096
21:39:17.050100,0
21:39:17.050100,7
21:39:17.050100,2304
21:39:17.050100,0
21:39:17.050100,21
21:39:17.050100,3584
21:39:17.050100,0
21:39:17.050100,4
21:39:17.050100,2304
21:39:17.050100,0
21:39:17.050100,14
21:39:17.050100,4096
21:39:17.050100,0
21:39:17.050100,21
21:39:17.050100,5376
21:39:17.050100,0
21:39:17.050100,18
21:39:17.050100,6656
21:39:17.050100,0
21:39:17.050100,37
21:39:17.050100,10240
21:39:17.050100,0
21:39:17.050100,30
21:39:17.649643,23
21:39:17.649643,9472
21:39:17.649643,0
21:39:17.649643,42
21:39:17.649643,7680
21:39:17.649643,0
21:39:17.649643,28
21:39:17.649643,12032
21:39:17.649643,0
21:39:17.649643,56
21:39:17.649643,11264
21:39:17.649643,0
21:39:17.649643,44
21:39:17.649643,15104
21:39:17.649643,0
21:39:17.649643,56
21:39:17.649643,11264
21:39:17.649643,0
21:39:17.649643,49
21:39:17.649643,13824
21:39:17.649643,0
21:39:17.649643,42
21:39:17.649643,9472
21:39:17.649643,0
21:39:17.649643,49
21:39:17.649643,14336
21:39:17.649643,0
21:39:17.649643,47
21:39:17.649643,10752
21:39:17.649643,0
21:39:17.649643,44
21:39:17.649643,10752
21:39:17.649643,0
21:39:17.649643,28
21:39:17.649643,1792
21:39:17.649643,0
21:39:17.649643,0
21:39:17.649643,7168
21:39:17.649643,0
21:39:17.649643,63
21:39:17.649643,17408
21:39:17.649643,0
21:39:17.649643,59
21:39:17.649643,14336
21:39:17.649643,0
21:39:17.649643,54
21:39:17.649643,10240
21:39:17.649643,0
21:39:17.649643,26
21:39:17.649643,8960
21:39:17.649643,0
21:39:17.649643,42
21:39:17.649643,8960
21:39:17.649643,0
21:39:17.649643,16
21:39:17.649643,-13824
21:39:17.649643,-1
21:39:17.649643,-165
21:39:17.649643,-23297
21:39:17.649643,-1
21:39:17.649643,404
21:39:17.649643,22016
21:39:17.649643,4
21:39:17.649643,1307
21:39:17.649643,-19200
21:39:17.649643,2
21:39:17.649643,59
21:39:17.649643,-12032
21:39:17.649643,-1
21:39:17.649643,-47
21:39:17.649643,30719
21:39:17.649643,-1
21:39:17.649643,-139
21:39:17.649643,-28161
21:39:17.649643,-1
21:39:17.649643,-130
21:39:17.649643,32511
21:39:17.649643,-1
21:39:17.649643,-111
21:39:17.649643,-29953
21:39:17.649643,-1
21:39:17.649643,-120
21:39:17.649643,-26881
21:39:17.649643,-1
21:39:17.649643,-113
21:39:17.649643,-30465
21:39:17.649643,-1
21:39:17.649643,-106
21:39:17.649643,-26369
21:39:17.649643,-1
21:39:17.649643,-120
21:39:17.649643,-31745
21:39:17.649643,-1
21:39:17.649643,-118
21:39:17.649643,-30465
21:39:17.649643,-1
21:39:17.649643,-113
21:39:17.649643,-22529
21:39:17.649643,-1
21:39:17.649643,-75
21:39:17.649643,-16641
21:39:17.649643,-1
21:39:17.649643,-47
21:39:17.649643,-9985
21:39:17.649643,-1
21:39:17.649643,-33
21:39:17.649643,-4353
21:39:17.649643,-1
21:39:17.649643,-4
21:39:18.245443,7
21:39:18.245443,-1792
21:39:18.245443,-1
21:39:18.245443,-16
21:39:18.245443,4351
21:39:18.245443,0
21:39:18.245443,37
21:39:18.245443,5376
21:39:18.245443,0
21:39:18.245443,14
21:39:18.245443,4608
21:39:18.245443,0
21:39:18.245443,23
21:39:18.245443,7168
21:39:18.245443,0
21:39:18.245443,37
21:39:18.245443,8960
21:39:18.245443,0
21:39:18.245443,30
21:39:18.245443,9472
21:39:18.245443,0
21:39:18.245443,42
21:39:18.245443,7680
21:39:18.245443,0
21:39:18.245443,18
21:39:18.245443,5376
21:39:18.245443,0
21:39:18.245443,18
21:39:18.245443,4608
21:39:18.245443,0
21:39:18.245443,35
21:39:18.245443,9472
21:39:18.245443,0
21:39:18.245443,30
21:39:18.245443,10240
21:39:18.245443,0
21:39:18.245443,42
21:39:18.245443,8448
21:39:18.245443,0
21:39:18.245443,33
21:39:18.245443,10240
21:39:18.245443,0
21:39:18.245443,42
21:39:18.245443,10240
21:39:18.245443,0
21:39:18.245443,40
21:39:18.245443,10240
21:39:18.245443,0
21:39:18.245443,42
21:39:18.245443,12032
21:39:18.245443,0
21:39:18.245443,47
21:39:18.245443,12032
21:39:18.245443,0
21:39:18.245443,49
21:39:18.245443,11264
21:39:18.245443,0
21:39:18.245443,30
21:39:18.245443,3584
21:39:18.245443,0
21:39:18.245443,2
21:39:18.245443,-512
21:39:18.245443,-1
21:39:18.245443,18
21:39:18.245443,15104
21:39:18.245443,0
21:39:18.245443,68
21:39:18.245443,12032
21:39:18.245443,0
21:39:18.245443,40
21:39:18.245443,10752
21:39:18.245443,0
21:39:18.245443,37
21:39:18.245443,7168
21:39:18.245443,0
21:39:18.245443,30
21:39:18.245443,8448
21:39:18.245443,0
21:39:18.245443,40
21:39:18.245443,7680
21:39:18.245443,0
21:39:18.245443,-56
21:39:18.245443,15103
21:39:18.245443,-1
21:39:18.245443,-120
21:39:18.245443,-26625
21:39:18.245443,1
21:39:18.245443,1108
21:39:18.245443,-5888
21:39:18.245443,4
21:39:18.245443,634
21:39:18.245443,12032
21:39:18.245443,0
21:39:18.245443,-18
21:39:18.245443,-8193
21:39:18.245443,-1
21:39:18.245443,-139
21:39:18.245443,31999
21:39:18.245443,-1
21:39:18.245443,-104
21:39:18.245443,-31745
21:39:18.245443,-1
21:39:18.245443,-113
21:39:18.245443,-24577
21:39:18.245443,-1
21:39:18.245443,-104
21:39:18.245443,-25601
21:39:18.245443,-1
21:39:18.245443,-94
21:39:18.799045,-99
21:39:18.799045,-26881
21:39:18.799045,-1
21:39:18.799045,-99
21:39:18.799045,-24577
21:39:18.799045,-1
21:39:18.799045,-111
21:39:18.799045,-30465
21:39:18.799045,-1
21:39:18.799045,-118
21:39:18.799045,-28161
21:39:18.799045,-1
21:39:18.799045,-101
21:39:18.799045,-20737
21:39:18.799045,-1
21:39:18.799045,-54
21:39:18.799045,-9217
21:39:18.799045,-1
21:39:18.799045,-26
21:39:18.799045,-3329
21:39:18.799045,-1
21:39:18.799045,-2
21:39:18.799045,1279
21:39:18.799045,0
21:39:18.799045,4
21:39:18.799045,2304
21:39:18.799045,0
21:39:18.799045,16
21:39:18.799045,6656
21:39:18.799045,0
21:39:18.799045,30
21:39:18.799045,7680
21:39:18.799045,0
21:39:18.799045,35
21:39:18.799045,11264
21:39:18.799045,0
21:39:18.799045,49
21:39:18.799045,10752
21:39:18.799045,0
21:39:18.799045,35
21:39:18.799045,9472
21:39:18.799045,0
21:39:18.799045,40
21:39:18.799045,8960
21:39:18.799045,0
21:39:18.799045,33
21:39:18.799045,7680
21:39:18.799045,0
21:39:18.799045,28
21:39:18.799045,7680
21:39:18.799045,0
21:39:18.799045,28
21:39:18.799045,6656
21:39:18.799045,0
21:39:18.799045,33
21:39:18.799045,10752
21:39:18.799045,0
21:39:18.799045,42
21:39:18.799045,10240
21:39:18.799045,0
21:39:18.799045,44
21:39:18.799045,12544
21:39:18.799045,0
21:39:18.799045,49
21:39:18.799045,10240
21:39:18.799045,0
21:39:18.799045,40
21:39:18.799045,12544
21:39:18.799045,0
21:39:18.799045,44
21:39:18.799045,5888
21:39:18.799045,0
21:39:18.799045,9
21:39:18.799045,1792
21:39:18.799045,0
21:39:18.799045,11
21:39:18.799045,8448
21:39:18.799045,0
21:39:18.799045,71
21:39:18.799045,20992
21:39:18.799045,0
21:39:18.799045,61
21:39:18.799045,12544
21:39:18.799045,0
21:39:18.799045,52
21:39:18.799045,12544
21:39:18.799045,0
21:39:18.799045,44
21:39:18.799045,11264
21:39:18.799045,0
21:39:18.799045,44
21:39:18.799045,11264
21:39:18.799045,0
21:39:18.799045,28
21:39:18.799045,-16896
21:39:18.799045,-1
21:39:18.799045,-191
21:39:18.799045,-9985
21:39:18.799045,-1
21:39:18.799045,599
21:39:18.799045,9984
21:39:18.799045,5
21:39:18.799045,1309
21:39:18.799045,11776
21:39:18.799045,2
21:39:18.799045,14
21:39:18.799045,-9472
21:39:18.799045,-1
21:39:18.799045,-78
21:39:19.350679,-156
21:39:19.350679,31487
21:39:19.350679,-1
21:39:19.350679,-118
21:39:19.350679,31487
21:39:19.350679,-1
21:39:19.350679,-125
21:39:19.350679,-29953
21:39:19.350679,-1
21:39:19.350679,-120
21:39:19.350679,-29953
21:39:19.350679,-1
21:39:19.350679,-113
21:39:19.350679,-28673
21:39:19.350679,-1
21:39:19.350679,-120
21:39:19.350679,-32257
21:39:19.350679,-1
21:39:19.350679,-125
21:39:19.350679,-32257
21:39:19.350679,-1
21:39:19.350679,-132
21:39:19.350679,-30465
21:39:19.350679,-1
21:39:19.350679,-113
21:39:19.350679,-26369
21:39:19.350679,-1
21:39:19.350679,-82
21:39:19.350679,-17921
21:39:19.350679,-1
21:39:19.350679,-49
21:39:19.350679,-5633
21:39:19.350679,-1
21:39:19.350679,-11
21:39:19.350679,-3329
21:39:19.350679,-1
21:39:19.350679,-4
21:39:19.350679,3071
21:39:19.350679,0
21:39:19.350679,21
21:39:19.350679,6656
21:39:19.350679,0
21:39:19.350679,33
21:39:19.350679,8960
21:39:19.350679,0
21:39:19.350679,33
21:39:19.350679,8960
21:39:19.350679,0
21:39:19.350679,40
21:39:19.350679,10752
21:39:19.350679,0
21:39:19.350679,40
21:39:19.350679,8960
21:39:19.350679,0
21:39:19.350679,30
21:39:19.350679,5376
21:39:19.350679,0
21:39:19.350679,23
21:39:19.350679,8448
21:39:19.350679,0
21:39:19.350679,26
21:39:19.350679,4608
21:39:19.350679,0
21:39:19.350679,23
21:39:19.350679,7680
21:39:19.350679,0
21:39:19.350679,26
21:39:19.350679,4096
21:39:19.350679,0
21:39:19.350679,23
21:39:19.350679,8448
21:39:19.350679,0
21:39:19.350679,33
21:39:19.350679,9472
21:39:19.350679,0
21:39:19.350679,40
21:39:19.350679,10752
21:39:19.350679,0
21:39:19.350679,47
21:39:19.350679,10752
21:39:19.350679,0
21:39:19.350679,35
21:39:19.350679,10752
21:39:19.350679,0
21:39:19.350679,47
21:39:19.350679,9472
21:39:19.350679,0
21:39:19.350679,33
21:39:19.350679,10240
21:39:19.350679,0
21:39:19.350679,35
21:39:19.350679,4096
21:39:19.350679,0
21:39:19.350679,2
21:39:19.350679,-512
21:39:19.350679,-1
21:39:19.350679,18
21:39:19.350679,14336
21:39:19.350679,0
21:39:19.350679,75
21:39:19.350679,15616
21:39:19.350679,0
21:39:19.350679,47
21:39:19.350679,10752
21:39:19.350679,0
21:39:19.350679,37
21:39:19.350679,9472
21:39:19.350679,0
21:39:19.350679,33
21:39:19.950317,28
21:39:19.950317,8448
21:39:19.950317,0
21:39:19.950317,14
21:39:19.950317,-19200
21:39:19.950317,-1
21:39:19.950317,-182
21:39:19.950317,-13569
21:39:19.950317,-1
21:39:19.950317,516
21:39:19.950317,-17920
21:39:19.950317,4
21:39:19.950317,1259
21:39:19.950317,14848
21:39:19.950317,2
21:39:19.950317,16
21:39:19.950317,-12544
21:39:19.950317,-1
21:39:19.950317,-63
21:39:19.950317,-31233
21:39:19.950317,-1
21:39:19.950317,-106
21:39:19.950317,-24577
21:39:19.950317,-1
21:39:19.950317,-120
21:39:19.950317,-28673
21:39:19.950317,-1
21:39:19.950317,-101
21:39:19.950317,-26881
21:39:19.950317,-1
21:39:19.950317,-104
21:39:19.950317,-26369
21:39:19.950317,-1
21:39:19.950317,-108
21:39:19.950317,-26881
21:39:19.950317,-1
21:39:19.950317,-104
21:39:19.950317,-28161
21:39:19.950317,-1
21:39:19.950317,-118
21:39:19.950317,-29441
21:39:19.950317,-1
21:39:19.950317,-116
21:39:19.950317,-29953
21:39:19.950317,-1
21:39:19.950317,-118
21:39:19.950317,-26369
21:39:19.950317,-1
21:39:19.950317,-68
21:39:19.950317,-11009
21:39:19.950317,-1
21:39:19.950317,-40
21:39:19.950317,-7425
21:39:19.950317,-1
21:39:19.950317,-18
21:39:19.950317,-3329
21:39:19.950317,-1
21:39:19.950317,-14
21:39:19.950317,-1537
21:39:19.950317,-1
21:39:19.950317,7
21:39:19.950317,1792
21:39:19.950317,0
21:39:19.950317,7
21:39:19.950317,5888
21:39:19.950317,0
21:39:19.950317,33
21:39:19.950317,5888
21:39:19.950317,0
21:39:19.950317,23
21:39:19.950317,8960
21:39:19.950317,0
21:39:19.950317,33
21:39:19.950317,6656
21:39:19.950317,0
21:39:19.950317,30
21:39:19.950317,7680
21:39:19.950317,0
21:39:19.950317,18
21:39:19.950317,4096
21:39:19.950317,0
21:39:19.950317,18
21:39:19.950317,5376
21:39:19.950317,0
21:39:19.950317,26
21:39:19.950317,5376
21:39:19.950317,0
21:39:19.950317,18
21:39:19.950317,7168
21:39:19.950317,0
21:39:19.950317,28
21:39:19.950317,6656
21:39:19.950317,0
21:39:19.950317,30
21:39:19.950317,8960
21:39:19.950317,0
21:39:19.950317,33
21:39:19.950317,8448
21:39:19.950317,0
21:39:19.950317,30
21:39:19.950317,8448
21:39:19.950317,0
21:39:19.950317,30
21:39:19.950317,3584
21:39:19.950317,0
21:39:19.950317,0
21:39:19.950317,-1024
21:39:19.950317,-1
21:39:19.950317,23
21:39:20.449477,73
21:39:20.449477,25344
21:39:20.449477,0
21:39:20.449477,80
21:39:20.449477,12032
21:39:20.449477,0
21:39:20.449477,35
21:39:20.449477,11264
21:39:20.449477,0
21:39:20.449477,49
21:39:20.449477,8960
21:39:20.449477,0
21:39:20.449477,30
21:39:20.449477,8960
21:39:20.449477,0
21:39:20.449477,30
21:39:20.449477,-8960
21:39:20.449477,-1
21:39:20.449477,-172
21:39:20.449477,24063
21:39:20.449477,-1
21:39:20.449477,272
21:39:20.449477,-12544
21:39:20.449477,3
21:39:20.449477,1264
21:39:20.449477,-5888
21:39:20.449477,2
21:39:20.449477,111
21:39:20.449477,-3584
21:39:20.449477,-1
21:39:20.449477,-9
21:39:20.449477,-26881
21:39:20.449477,-1
21:39:20.449477,-118
21:39:20.449477,-22017
21:39:20.449477,-1
21:39:20.449477,-97
21:39:20.449477,-25089
21:39:20.449477,-1
21:39:20.449477,-92
21:39:20.449477,-24577
21:39:20.449477,-1
21:39:20.449477,-97
21:39:20.449477,-23297
21:39:20.449477,-1
21:39:20.449477,-85
21:39:20.449477,-20225
21:39:20.449477,-1
21:39:20.449477,-82
21:39:20.449477,-23297
21:39:20.449477,-1
21:39:20.449477,-87
21:39:20.449477,-22017
21:39:20.449477,-1
21:39:20.449477,-99
21:39:20.449477,-22529
21:39:20.449477,-1
21:39:20.449477,-68
21:39:20.449477,-17921
21:39:20.449477,-1
21:39:20.449477,-61
21:39:20.449477,-8193
21:39:20.449477,-1
21:39:20.449477,-16
21:39:20.449477,-3841
21:39:20.449477,-1
21:39:20.449477,-18
21:39:20.449477,-3841
21:39:20.449477,-1
21:39:20.449477,-16
21:39:20.449477,-3841
21:39:20.449477,-1
21:39:20.449477,-7
21:39:20.449477,767
21:39:20.449477,0
21:39:20.449477,0
21:39:20.449477,1024
21:39:20.449477,0
21:39:20.449477,4
21:39:20.449477,1024
21:39:20.449477,0
21:39:20.449477,9
21:39:20.449477,3584
21:39:20.449477,0
21:39:20.449477,7
21:39:20.449477,1024
21:39:20.449477,0
21:39:20.449477,4
21:39:20.449477,0
21:39:20.449477,0
21:39:20.449477,2
21:39:20.449477,2816
21:39:20.449477,0
21:39:20.449477,9
21:39:20.449477,2816
21:39:20.449477,0
21:39:20.449477,18
21:39:20.449477,3584
21:39:20.449477,0
21:39:20.449477,23
21:39:20.449477,10240
21:39:20.449477,0
21:39:20.449477,40
21:39:20.449477,9472
21:39:20.449477,0
21:39:20.449477,40
21:39:20.449477,8960
21:39:20.449477,0
21:39:20.449477,26
21:39:21.095718,14
21:39:21.095718,1024
21:39:21.095718,0
21:39:21.095718,2
21:39:21.095718,5888
21:39:21.095718,0
21:39:21.095718,66
21:39:21.095718,21760
21:39:21.095718,0
21:39:21.095718,73
21:39:21.095718,15104
21:39:21.095718,0
21:39:21.095718,47
21:39:21.095718,11264
21:39:21.095718,0
21:39:21.095718,61
21:39:21.095718,18176
21:39:21.095718,0
21:39:21.095718,61
21:39:21.095718,13824
21:39:21.095718,0
21:39:21.095718,52
21:39:21.095718,2816
21:39:21.095718,0
21:39:21.095718,-111
21:39:21.095718,20991
21:39:21.095718,-1
21:39:21.095718,130
21:39:21.095718,19200
21:39:21.095718,3
21:39:21.095718,1371
21:39:21.095718,6912
21:39:21.095718,4
21:39:21.095718,298
21:39:21.095718,-4608
21:39:21.095718,-1
21:39:21.095718,-18
21:39:21.095718,-25089
21:39:21.095718,-1
21:39:21.095718,-137
21:39:21.095718,-24577
21:39:21.095718,-1
21:39:21.095718,-111
21:39:21.095718,32511
21:39:21.095718,-1
21:39:21.095718,-106
21:39:21.095718,-26881
21:39:21.095718,-1
21:39:21.095718,-118
21:39:21.095718,-28161
21:39:21.095718,-1
21:39:21.095718,-106
21:39:21.095718,-29441
21:39:21.095718,-1
21:39:21.095718,-118
21:39:21.095718,-29441
21:39:21.095718,-1
21:39:21.095718,-120
21:39:21.095718,-31745
21:39:21.095718,-1
21:39:21.095718,-127
21:39:21.095718,32511
21:39:21.095718,-1
21:39:21.095718,-127
21:39:21.095718,-28161
21:39:21.095718,-1
21:39:21.095718,-92
21:39:21.095718,-19713
21:39:21.095718,-1
21:39:21.095718,-61
21:39:21.095718,-10497
21:39:21.095718,-1
21:39:21.095718,-26
21:39:21.095718,-6401
21:39:21.095718,-1
21:39:21.095718,-33
21:39:21.095718,-5121
21:39:21.095718,-1
21:39:21.095718,-9
21:39:21.095718,-769
21:39:21.095718,-1
21:39:21.095718,2
21:39:21.095718,2304
21:39:21.095718,0
21:39:21.095718,14
21:39:21.095718,4096
21:39:21.095718,0
21:39:21.095718,23
21:39:21.095718,7168
21:39:21.095718,0
21:39:21.095718,23
21:39:21.095718,5376
21:39:21.095718,0
21:39:21.095718,21
21:39:21.095718,5376
21:39:21.095718,0
21:39:21.095718,14
21:39:21.095718,1792
21:39:21.095718,0
21:39:21.095718,7
21:39:21.095718,4096
21:39:21.095718,0
21:39:21.095718,16
21:39:21.095718,2816
21:39:21.095718,0
21:39:21.095718,16
21:39:21.095718,5888
21:39:21.095718,0
21:39:21.095718,16
21:39:21.549785,14
21:39:21.549785,7168
21:39:21.549785,0
21:39:21.549785,30
21:39:21.549785,6656
21:39:21.549785,0
21:39:21.549785,28
21:39:21.549785,6656
21:39:21.549785,0
21:39:21.549785,21
21:39:21.549785,7168
21:39:21.549785,0
21:39:21.549785,33
21:39:21.549785,6656
21:39:21.549785,0
21:39:21.549785,30
21:39:21.549785,12032
21:39:21.549785,0
21:39:21.549785,40
21:39:21.549785,5376
21:39:21.549785,0
21:39:21.549785,14
21:39:21.549785,4608
21:39:21.549785,0
21:39:21.549785,21
21:39:21.549785,7680
21:39:21.549785,0
21:39:21.549785,68
21:39:21.549785,24064
21:39:21.549785,0
21:39:21.549785,82
21:39:21.549785,16896
21:39:21.549785,0
21:39:21.549785,56
21:39:21.549785,12544
21:39:21.549785,0
21:39:21.549785,59
21:39:21.549785,16896
21:39:21.549785,0
21:39:21.549785,54
21:39:21.549785,13824
21:39:21.549785,0
21:39:21.549785,56
21:39:21.549785,-1792
21:39:21.549785,-1
21:39:21.549785,-137
21:39:21.549785,-28673
21:39:21.549785,-1
21:39:21.549785,326
21:39:21.549785,7424
21:39:21.549785,4
21:39:21.549785,1356
21:39:21.549785,9472
21:39:21.549785,3
21:39:21.549785,116
21:39:21.549785,-11264
21:39:21.549785,-1
21:39:21.549785,-33
21:39:21.549785,-29441
21:39:21.549785,-1
21:39:21.549785,-132
21:39:21.549785,-26881
21:39:21.549785,-1
21:39:21.549785,-111
21:39:21.549785,-29441
21:39:21.549785,-1
21:39:21.549785,-106
21:39:21.549785,-27393
21:39:21.549785,-1
21:39:21.549785,-108
21:39:21.549785,-23809
21:39:21.549785,-1
21:39:21.549785,-97
21:39:21.549785,-31233
21:39:21.549785,-1
21:39:21.549785,-123
21:39:21.549785,-25089
21:39:21.549785,-1
21:39:21.549785,-99
21:39:21.549785,-26881
21:39:21.549785,-1
21:39:21.549785,-101
21:39:21.549785,-25089
21:39:21.549785,-1
21:39:21.549785,-99
21:39:21.549785,-23809
21:39:21.549785,-1
21:39:21.549785,-82
21:39:21.549785,-17921
21:39:21.549785,-1
21:39:21.549785,-56
21:39:21.549785,-7425
21:39:21.549785,-1
21:39:21.549785,-9
21:39:21.549785,-769
21:39:21.549785,-1
21:39:21.549785,-11
21:39:21.549785,-3329
21:39:21.549785,-1
21:39:21.549785,-2
21:39:21.549785,2559
21:39:21.549785,0
21:39:21.549785,11
21:39:21.549785,1792
21:39:21.549785,0
21:39:21.549785,9
21:39:21.549785,4096
21:39:21.549785,0
21:39:21.549785,21
21:39:22.195639,26
21:39:22.195639,3584
21:39:22.195639,0
21:39:22.195639,-4
21:39:22.195639,2559
21:39:22.195639,0
21:39:22.195639,28
21:39:22.195639,4096
21:39:22.195639,0
21:39:22.195639,7
21:39:22.195639,5376
21:39:22.195639,0
21:39:22.195639,35
21:39:22.195639,9472
21:39:22.195639,0
21:39:22.195639,37
21:39:22.195639,7680
21:39:22.195639,0
21:39:22.195639,26
21:39:22.195639,7680
21:39:22.195639,0
21:39:22.195639,33
21:39:22.195639,7168
21:39:22.195639,0
21:39:22.195639,42
21:39:22.195639,13824
21:39:22.195639,0
21:39:22.195639,40
21:39:22.195639,10752
21:39:22.195639,0
21:39:22.195639,59
21:39:22.195639,12544
21:39:22.195639,0
21:39:22.195639,35
21:39:22.195639,9472
21:39:22.195639,0
21:39:22.195639,40
21:39:22.195639,10752
21:39:22.195639,0
21:39:22.195639,40
21:39:22.195639,4096
21:39:22.195639,0
21:39:22.195639,-4
21:39:22.195639,255
21:39:22.195639,0
21:39:22.195639,11
21:39:22.195639,8448
21:39:22.195639,0
21:39:22.195639,71
21:39:22.195639,21760
21:39:22.195639,0
21:39:22.195639,68
21:39:22.195639,13312
21:39:22.195639,0
21:39:22.195639,52
21:39:22.195639,14336
21:39:22.195639,0
21:39:22.195639,56
21:39:22.195639,14336
21:39:22.195639,0
21:39:22.195639,54
21:39:22.195639,10752
21:39:22.195639,0
21:39:22.195639,-14
21:39:22.195639,28927
21:39:22.195639,-1
21:39:22.195639,-161
21:39:22.195639,-7937
21:39:22.195639,0
21:39:22.195639,944
21:39:22.195639,14080
21:39:22.195639,5
21:39:22.195639,871
21:39:22.195639,-25088
21:39:22.195639,0
21:39:22.195639,-33
21:39:22.195639,-2561
21:39:22.195639,-1
21:39:22.195639,-108
21:39:22.195639,31487
21:39:22.195639,-1
21:39:22.195639,-94
21:39:22.195639,-28161
21:39:22.195639,-1
21:39:22.195639,-127
21:39:22.195639,-28673
21:39:22.195639,-1
21:39:22.195639,-106
21:39:22.195639,-26881
21:39:22.195639,-1
21:39:22.195639,-108
21:39:22.195639,-26881
21:39:22.195639,-1
21:39:22.195639,-101
21:39:22.195639,-26881
21:39:22.195639,-1
21:39:22.195639,-118
21:39:22.195639,-26881
21:39:22.195639,-1
21:39:22.195639,-92
21:39:22.195639,-27393
21:39:22.195639,-1
21:39:22.195639,-118
21:39:22.195639,-23809
21:39:22.195639,-1
21:39:22.195639,-78
21:39:22.195639,-17153
21:39:22.195639,-1
21:39:22.195639,-42
21:39:22.748268,-26
21:39:22.748268,-5633
21:39:22.748268,-1
21:39:22.748268,-16
21:39:22.748268,-3329
21:39:22.748268,-1
21:39:22.748268,-16
21:39:22.748268,-4353
21:39:22.748268,-1
21:39:22.748268,-14
21:39:22.748268,-257
21:39:22.748268,-1
21:39:22.748268,2
21:39:22.748268,0
21:39:22.748268,0
21:39:22.748268,0
21:39:22.748268,2304
21:39:22.748268,0
21:39:22.748268,26
21:39:22.748268,13824
21:39:22.748268,0
21:39:22.748268,75
21:39:22.748268,24064
21:39:22.748268,0
21:39:22.748268,116
21:39:22.748268,-31232
21:39:22.748268,0
21:39:22.748268,134
21:39:22.748268,32000
21:39:22.748268,0
21:39:22.748268,125
21:39:22.748268,-32256
21:39:22.748268,0
21:39:22.748268,118
21:39:22.748268,27136
21:39:22.748268,0
21:39:22.748268,108
21:39:22.748268,26624
21:39:22.748268,0
21:39:22.748268,104
21:39:22.748268,25856
21:39:22.748268,0
21:39:22.748268,99
21:39:22.748268,27136
21:39:22.748268,0
21:39:22.748268,113
21:39:22.748268,26624
21:39:22.748268,0
21:39:22.748268,87
21:39:22.748268,17408
21:39:22.748268,0
21:39:22.748268,52
21:39:22.748268,12032
21:39:22.748268,0
21:39:22.748268,61
21:39:22.748268,25344
21:39:22.748268,0
21:39:22.748268,123
21:39:22.748268,29696
21:39:22.748268,0
21:39:22.748268,97
21:39:22.748268,20992
21:39:22.748268,0
21:39:22.748268,78
21:39:22.748268,20992
21:39:22.748268,0
21:39:22.748268,85
21:39:22.748268,20480
21:39:22.748268,0
21:39:22.748268,71
21:39:22.748268,16896
21:39:22.748268,0
21:39:22.748268,21
21:39:22.748268,-28416
21:39:22.748268,-1
21:39:22.748268,-151
21:39:22.748268,-8961
21:39:22.748268,0
21:39:22.748268,961
21:39:22.748268,28672
21:39:22.748268,5
21:39:22.748268,947
21:39:22.748268,-9984
21:39:22.748268,0
21:39:22.748268,-14
21:39:22.748268,-2561
21:39:22.748268,-1
21:39:22.748268,-106
21:39:22.748268,31999
21:39:22.748268,-1
21:39:22.748268,-101
21:39:22.748268,-28673
21:39:22.748268,-1
21:39:22.748268,-118
21:39:22.748268,-26369
21:39:22.748268,-1
21:39:22.748268,-106
21:39:22.748268,-27393
21:39:22.748268,-1
21:39:22.748268,-104
21:39:22.748268,-28673
21:39:22.748268,-1
21:39:22.748268,-116
21:39:22.748268,-29441
21:39:22.748268,-1
21:39:22.748268,-123
21:39:22.748268,-32257
21:39:22.748268,-1
21:39:22.748268,-130
21:39:23.250512,-134
21:39:23.250512,30719
21:39:23.250512,-1
21:39:23.250512,-130
21:39:23.250512,-28161
21:39:23.250512,-1
21:39:23.250512,-89
21:39:23.250512,-17921
21:39:23.250512,-1
21:39:23.250512,-52
21:39:23.250512,-9985
21:39:23.250512,-1
21:39:23.250512,-37
21:39:23.250512,-10497
21:39:23.250512,-1
21:39:23.250512,-37
21:39:23.250512,-5121
21:39:23.250512,-1
21:39:23.250512,-14
21:39:23.250512,-4353
21:39:23.250512,-1
21:39:23.250512,-9
21:39:23.250512,-769
21:39:23.250512,-1
21:39:23.250512,-7
21:39:23.250512,1279
21:39:23.250512,0
21:39:23.250512,16
21:39:23.250512,4096
21:39:23.250512,0
21:39:23.250512,14
21:39:23.250512,2816
21:39:23.250512,0
21:39:23.250512,7
21:39:23.250512,1792
21:39:23.250512,0
21:39:23.250512,4
21:39:23.250512,-1024
21:39:23.250512,-1
21:39:23.250512,-7
21:39:23.250512,255
21:39:23.250512,0
21:39:23.250512,0
21:39:23.250512,0
21:39:23.250512,0
21:39:23.250512,7
21:39:23.250512,4096
21:39:23.250512,0
21:39:23.250512,21
21:39:23.250512,4608
21:39:23.250512,0
21:39:23.250512,18
21:39:23.250512,5888
21:39:23.250512,0
21:39:23.250512,28
21:39:23.250512,8448
21:39:23.250512,0
21:39:23.250512,30
21:39:23.250512,7168
21:39:23.250512,0
21:39:23.250512,23
21:39:23.250512,1024
21:39:23.250512,0
21:39:23.250512,-14
21:39:23.250512,-2561
21:39:23.250512,-1
21:39:23.250512,0
21:39:23.250512,7168
21:39:23.250512,0
21:39:23.250512,59
21:39:23.250512,15104
21:39:23.250512,0
21:39:23.250512,37
21:39:23.250512,6656
21:39:23.250512,0
21:39:23.250512,23
21:39:23.250512,6656
21:39:23.250512,0
21:39:23.250512,28
21:39:23.250512,7168
21:39:23.250512,0
21:39:23.250512,30
21:39:23.250512,7168
21:39:23.250512,0
21:39:23.250512,-9
21:39:23.250512,-31745
21:39:23.250512,-1
21:39:23.250512,-158
21:39:23.250512,-17409
21:39:23.250512,0
21:39:23.250512,923
21:39:23.250512,32256
21:39:23.250512,5
21:39:23.250512,994
21:39:23.250512,-8192
21:39:23.250512,0
21:39:23.250512,-52
21:39:23.250512,-9217
21:39:23.250512,-1
21:39:23.250512,-113
21:39:23.250512,27135
21:39:23.250512,-1
21:39:23.250512,-116
21:39:23.250512,-29953
21:39:23.250512,-1
21:39:23.250512,-132
21:39:23.250512,-30465
21:39:23.250512,-1
21:39:23.250512,-116
21:39:23.800589,-120
21:39:23.800589,-29953
21:39:23.800589,-1
21:39:23.800589,-113
21:39:23.800589,-28673
21:39:23.800589,-1
21:39:23.800589,-120
21:39:23.800589,31999
21:39:23.800589,-1
21:39:23.800589,-137
21:39:23.800589,31487
21:39:23.800589,-1
21:39:23.800589,-137
21:39:23.800589,-32257
21:39:23.800589,-1
21:39:23.800589,-104
21:39:23.800589,-23297
21:39:23.800589,-1
21:39:23.800589,-85
21:39:23.800589,-15361
21:39:23.800589,-1
21:39:23.800589,-42
21:39:23.800589,-8705
21:39:23.800589,-1
21:39:23.800589,-26
21:39:23.800589,-5633
21:39:23.800589,-1
21:39:23.800589,-23
21:39:23.800589,-2049
21:39:23.800589,-1
21:39:23.800589,7
21:39:23.800589,2304
21:39:23.800589,0
21:39:23.800589,7
21:39:23.800589,3584
21:39:23.800589,0
21:39:23.800589,21
21:39:23.800589,4608
21:39:23.800589,0
21:39:23.800589,23
21:39:23.800589,5888
21:39:23.800589,0
21:39:23.800589,18
21:39:23.800589,3584
21:39:23.800589,0
21:39:23.800589,9
21:39:23.800589,2816
21:39:23.800589,0
21:39:23.800589,14
21:39:23.800589,1792
21:39:23.800589,0
21:39:23.800589,-2
21:39:23.800589,255
21:39:23.800589,0
21:39:23.800589,0
21:39:23.800589,0
21:39:23.800589,0
21:39:23.800589,2
21:39:23.800589,512
21:39:23.800589,0
21:39:23.800589,2
21:39:23.800589,2304
21:39:23.800589,0
21:39:23.800589,16
21:39:23.800589,2816
21:39:23.800589,0
21:39:23.800589,16
21:39:23.800589,4608
21:39:23.800589,0
21:39:23.800589,11
21:39:23.800589,2816
21:39:23.800589,0
21:39:23.800589,4
21:39:23.800589,-1792
21:39:23.800589,-1
21:39:23.800589,-16
21:39:23.800589,-769
21:39:23.800589,-1
21:39:23.800589,37
21:39:23.800589,17408
21:39:23.800589,0
21:39:23.800589,56
21:39:23.800589,10752
21:39:23.800589,0
21:39:23.800589,37
21:39:23.800589,7680
21:39:23.800589,0
21:39:23.800589,28
21:39:23.800589,9472
21:39:23.800589,0
21:39:23.800589,40
21:39:23.800589,7680
21:39:23.800589,0
21:39:23.800589,28
21:39:23.800589,-1024
21:39:23.800589,-1
21:39:23.800589,-125
21:39:23.800589,16895
21:39:23.800589,-1
21:39:23.800589,111
21:39:23.800589,12544
21:39:23.800589,3
21:39:23.800589,1330
21:39:23.800589,-8192
21:39:23.800589,3
21:39:23.800589,251
21:39:23.800589,-5888
21:39:23.800589,-1
21:39:23.800589,-11
21:39:24.350716,-116
21:39:24.350716,25855
21:39:24.350716,-1
21:39:24.350716,-101
21:39:24.350716,-28161
21:39:24.350716,-1
21:39:24.350716,-134
21:39:24.350716,-29953
21:39:24.350716,-1
21:39:24.350716,-108
21:39:24.350716,-28161
21:39:24.350716,-1
21:39:24.350716,-94
21:39:24.350716,-20225
21:39:24.350716,-1
21:39:24.350716,-85
21:39:24.350716,-22529
21:39:24.350716,-1
21:39:24.350716,-92
21:39:24.350716,-25089
21:39:24.350716,-1
21:39:24.350716,-106
21:39:24.350716,-26881
21:39:24.350716,-1
21:39:24.350716,-99
21:39:24.350716,-20225
21:39:24.350716,-1
21:39:24.350716,-68
21:39:24.350716,-15873
21:39:24.350716,-1
21:39:24.350716,-47
21:39:24.350716,-5633
21:39:24.350716,-1
21:39:24.350716,-14
21:39:24.350716,-2561
21:39:24.350716,-1
21:39:24.350716,-11
21:39:24.350716,-2561
21:39:24.350716,-1
21:39:24.350716,-11
21:39:24.350716,-257
21:39:24.350716,-1
21:39:24.350716,4
21:39:24.350716,2304
21:39:24.350716,0
21:39:24.350716,9
21:39:24.350716,2816
21:39:24.350716,0
21:39:24.350716,11
21:39:24.350716,2304
21:39:24.350716,0
21:39:24.350716,16
21:39:24.350716,4096
21:39:24.350716,0
21:39:24.350716,7
21:39:24.350716,512
21:39:24.350716,0
21:39:24.350716,2
21:39:24.350716,512
21:39:24.350716,0
21:39:24.350716,2
21:39:24.350716,0
21:39:24.350716,0
21:39:24.350716,2
21:39:24.350716,1792
21:39:24.350716,0
21:39:24.350716,7
21:39:24.350716,1792
21:39:24.350716,0
21:39:24.350716,11
21:39:24.350716,4608
21:39:24.350716,0
21:39:24.350716,23
21:39:24.350716,5376
21:39:24.350716,0
21:39:24.350716,18
21:39:24.350716,4608
21:39:24.350716,0
21:39:24.350716,23
21:39:24.350716,3584
21:39:24.350716,0
21:39:24.350716,-4
21:39:24.350716,-2561
21:39:24.350716,-1
21:39:24.350716,-2
21:39:24.350716,7935
21:39:24.350716,0
21:39:24.350716,66
21:39:24.350716,18176
21:39:24.350716,0
21:39:24.350716,52
21:39:24.350716,10240
21:39:24.350716,0
21:39:24.350716,33
21:39:24.350716,8960
21:39:24.350716,0
21:39:24.350716,33
21:39:24.350716,8448
21:39:24.350716,0
21:39:24.350716,40
21:39:24.350716,10752
21:39:24.350716,0
21:39:24.350716,21
21:39:24.350716,-15616
21:39:24.350716,-1
21:39:24.350716,-175
21:39:24.350716,-13569
21:39:24.350716,-1
21:39:24.350716,542
21:39:24.948660,1269
21:39:24.948660,7936
21:39:24.948660,5
21:39:24.948660,582
21:39:24.948660,4096
21:39:24.948660,0
21:39:24.948660,-37
21:39:24.948660,-16641
21:39:24.948660,-1
21:39:24.948660,-144
21:39:24.948660,-28161
21:39:24.948660,-1
21:39:24.948660,-85
21:39:24.948660,-27393
21:39:24.948660,-1
21:39:24.948660,-99
21:39:24.948660,-20737
21:39:24.948660,-1
21:39:24.948660,-92
21:39:24.948660,-23809
21:39:24.948660,-1
21:39:24.948660,-89
21:39:24.948660,-23297
21:39:24.948660,-1
21:39:24.948660,-99
21:39:24.948660,-26369
21:39:24.948660,-1
21:39:24.948660,-106
21:39:24.948660,-28161
21:39:24.948660,-1
21:39:24.948660,-118
21:39:24.948660,-30465
21:39:24.948660,-1
21:39:24.948660,-118
21:39:24.948660,-27393
21:39:24.948660,-1
21:39:24.948660,-92
21:39:24.948660,-17153
21:39:24.948660,-1
21:39:24.948660,-52
21:39:24.948660,-8705
21:39:24.948660,-1
21:39:24.948660,-26
21:39:24.948660,-5633
21:39:24.948660,-1
21:39:24.948660,-18
21:39:24.948660,-1537
21:39:24.948660,-1
21:39:24.948660,-2
21:39:24.948660,-257
21:39:24.948660,-1
21:39:24.948660,4
21:39:24.948660,2304
21:39:24.948660,0
21:39:24.948660,9
21:39:24.948660,2304
21:39:24.948660,0
21:39:24.948660,11
21:39:24.948660,2816
21:39:24.948660,0
21:39:24.948660,9
21:39:24.948660,2816
21:39:24.948660,0
21:39:24.948660,11
21:39:24.948660,1024
21:39:24.948660,0
21:39:24.948660,4
21:39:24.948660,1792
21:39:24.948660,0
21:39:24.948660,2
21:39:24.948660,0
21:39:24.948660,0
21:39:24.948660,0
21:39:24.948660,512
21:39:24.948660,0
21:39:24.948660,4
21:39:24.948660,1792
21:39:24.948660,0
21:39:24.948660,11
21:39:24.948660,3584
21:39:24.948660,0
21:39:24.948660,11
21:39:24.948660,2816
21:39:24.948660,0
21:39:24.948660,16
21:39:24.948660,5888
21:39:24.948660,0
21:39:24.948660,28
21:39:24.948660,8448
21:39:24.948660,0
21:39:24.948660,33
21:39:24.948660,7168
21:39:24.948660,0
21:39:24.948660,30
21:39:24.948660,8448
21:39:24.948660,0
21:39:24.948660,35
21:39:24.948660,8448
21:39:24.948660,0
21:39:24.948660,35
21:39:24.948660,10240
21:39:24.948660,0
21:39:24.948660,35
21:39:24.948660,7168
21:39:24.948660,0
21:39:24.948660,33
21:39:24.948660,9472
21:39:24.948660,0
21:39:24.948660,35
21:39:25.547541,30
21:39:25.547541,7168
21:39:25.547541,0
21:39:25.547541,30
21:39:25.547541,8448
21:39:25.547541,0
21:39:25.547541,26
21:39:25.547541,4608
21:39:25.547541,0
21:39:25.547541,7
21:39:25.547541,1024
21:39:25.547541,0
21:39:25.547541,35
21:39:25.547541,18688
21:39:25.547541,0
21:39:25.547541,80
21:39:25.547541,19968
21:39:25.547541,0
21:39:25.547541,75
21:39:25.547541,16896
21:39:25.547541,0
21:39:25.547541,63
21:39:25.547541,17408
21:39:25.547541,0
21:39:25.547541,68
21:39:25.547541,16128
21:39:25.547541,0
21:39:25.547541,59
21:39:25.547541,9472
21:39:25.547541,0
21:39:25.547541,-49
21:39:25.547541,27647
21:39:25.547541,-1
21:39:25.547541,21
21:39:25.547541,-30720
21:39:25.547541,2
21:39:25.547541,1309
21:39:25.547541,-12032
21:39:25.547541,4
21:39:25.547541,490
21:39:25.547541,512
21:39:25.547541,0
21:39:25.547541,-26
21:39:25.547541,-16641
21:39:25.547541,-1
21:39:25.547541,-139
21:39:25.547541,-30465
21:39:25.547541,-1
21:39:25.547541,-108
21:39:25.547541,-30465
21:39:25.547541,-1
21:39:25.547541,-106
21:39:25.547541,-25089
21:39:25.547541,-1
21:39:25.547541,-108
21:39:25.547541,-26881
21:39:25.547541,-1
21:39:25.547541,-101
21:39:25.547541,-25601
21:39:25.547541,-1
21:39:25.547541,-108
21:39:25.547541,-28161
21:39:25.547541,-1
21:39:25.547541,-113
21:39:25.547541,-30465
21:39:25.547541,-1
21:39:25.547541,-123
21:39:25.547541,-29953
21:39:25.547541,-1
21:39:25.547541,-116
21:39:25.547541,-28673
21:39:25.547541,-1
21:39:25.547541,-101
21:39:25.547541,-20737
21:39:25.547541,-1
21:39:25.547541,-68
21:39:25.547541,-11777
21:39:25.547541,-1
21:39:25.547541,-30
21:39:25.547541,-8705
21:39:25.547541,-1
21:39:25.547541,-33
21:39:25.547541,-3841
21:39:25.547541,-1
21:39:25.547541,-4
21:39:25.547541,255
21:39:25.547541,0
21:39:25.547541,7
21:39:25.547541,2816
21:39:25.547541,0
21:39:25.547541,14
21:39:25.547541,4608
21:39:25.547541,0
21:39:25.547541,21
21:39:25.547541,4096
21:39:25.547541,0
21:39:25.547541,16
21:39:25.547541,3584
21:39:25.547541,0
21:39:25.547541,9
21:39:25.547541,2816
21:39:25.547541,0
21:39:25.547541,11
21:39:25.547541,4096
21:39:25.547541,0
21:39:25.547541,21
21:39:25.547541,4096
21:39:25.547541,0
21:39:25.547541,7
21:39:26.049735,9
21:39:26.049735,4096
21:39:26.049735,0
21:39:26.049735,18
21:39:26.049735,5888
21:39:26.049735,0
21:39:26.049735,26
21:39:26.049735,7168
21:39:26.049735,0
21:39:26.049735,33
21:39:26.049735,7680
21:39:26.049735,0
21:39:26.049735,30
21:39:26.049735,9472
21:39:26.049735,0
21:39:26.049735,47
21:39:26.049735,13312
21:39:26.049735,0
21:39:26.049735,52
21:39:26.049735,12544
21:39:26.049735,0
21:39:26.049735,47
21:39:26.049735,12544
21:39:26.049735,0
21:39:26.049735,52
21:39:26.049735,13312
21:39:26.049735,0
