timestamp,ecg,reconstructed_time
2025-11-07 15:24:07.747926,-57,2025-11-07 15:24:07.747926000
2025-11-07 15:24:07.747926,-24065,2025-11-07 15:24:07.755618308
2025-11-07 15:24:07.747926,-1,2025-11-07 15:24:07.763310615
2025-11-07 15:24:07.747926,-121,2025-11-07 15:24:07.771002923
2025-11-07 15:24:07.747926,-19713,2025-11-07 15:24:07.778695231
2025-11-07 15:24:07.747926,-1,2025-11-07 15:24:07.786387538
2025-11-07 15:24:07.747926,-54,2025-11-07 15:24:07.794079846
2025-11-07 15:24:07.747926,-18433,2025-11-07 15:24:07.801772154
2025-11-07 15:24:07.747926,-1,2025-11-07 15:24:07.809464462
2025-11-07 15:24:07.747926,-87,2025-11-07 15:24:07.817156769
2025-11-07 15:24:07.747926,-22785,2025-11-07 15:24:07.824849077
2025-11-07 15:24:07.747926,-1,2025-11-07 15:24:07.832541385
2025-11-07 15:24:07.747926,-73,2025-11-07 15:24:07.840233692
2025-11-07 15:24:07.747926,-11777,2025-11-07 15:24:07.847926000
2025-11-07 15:24:07.747926,-1,2025-11-07 15:24:07.855618308
2025-11-07 15:24:07.747926,-61,2025-11-07 15:24:07.863310615
2025-11-07 15:24:07.747926,-28929,2025-11-07 15:24:07.871002923
2025-11-07 15:24:07.747926,-1,2025-11-07 15:24:07.878695231
2025-11-07 15:24:07.747926,-123,2025-11-07 15:24:07.886387538
2025-11-07 15:24:07.747926,-24065,2025-11-07 15:24:07.894079846
2025-11-07 15:24:07.747926,-1,2025-11-07 15:24:07.901772154
2025-11-07 15:24:07.747926,-90,2025-11-07 15:24:07.909464462
2025-11-07 15:24:07.747926,-25089,2025-11-07 15:24:07.917156769
2025-11-07 15:24:07.747926,-1,2025-11-07 15:24:07.924849077
2025-11-07 15:24:07.747926,-97,2025-11-07 15:24:07.932541385
2025-11-07 15:24:07.747926,-25089,2025-11-07 15:24:07.940233692
2025-11-07 15:24:07.747926,-1,2025-11-07 15:24:07.947926000
2025-11-07 15:24:07.747926,-116,2025-11-07 15:24:07.955618308
2025-11-07 15:24:07.747926,32511,2025-11-07 15:24:07.963310615
2025-11-07 15:24:07.747926,-1,2025-11-07 15:24:07.971002923
2025-11-07 15:24:07.747926,-95,2025-11-07 15:24:07.978695231
2025-11-07 15:24:07.747926,-20225,2025-11-07 15:24:07.986387538
2025-11-07 15:24:07.747926,-1,2025-11-07 15:24:07.994079846
2025-11-07 15:24:07.747926,-142,2025-11-07 15:24:08.001772154
2025-11-07 15:24:07.747926,25087,2025-11-07 15:24:08.009464462
2025-11-07 15:24:07.747926,-1,2025-11-07 15:24:08.017156769
2025-11-07 15:24:07.747926,-106,2025-11-07 15:24:08.024849077
2025-11-07 15:24:07.747926,-24065,2025-11-07 15:24:08.032541385
2025-11-07 15:24:07.747926,-1,2025-11-07 15:24:08.040233692
2025-11-07 15:24:07.747926,-109,2025-11-07 15:24:08.047926000
2025-11-07 15:24:07.747926,-24065,2025-11-07 15:24:08.055618308
2025-11-07 15:24:07.747926,-1,2025-11-07 15:24:08.063310615
2025-11-07 15:24:07.747926,-78,2025-11-07 15:24:08.071002923
2025-11-07 15:24:07.747926,-20993,2025-11-07 15:24:08.078695231
2025-11-07 15:24:07.747926,-1,2025-11-07 15:24:08.086387538
2025-11-07 15:24:07.747926,-92,2025-11-07 15:24:08.094079846
2025-11-07 15:24:07.747926,-15361,2025-11-07 15:24:08.101772154
2025-11-07 15:24:07.747926,-1,2025-11-07 15:24:08.109464462
2025-11-07 15:24:07.747926,-30,2025-11-07 15:24:08.117156769
2025-11-07 15:24:07.747926,-17153,2025-11-07 15:24:08.124849077
2025-11-07 15:24:07.747926,-1,2025-11-07 15:24:08.132541385
2025-11-07 15:24:07.747926,-106,2025-11-07 15:24:08.140233692
2025-11-07 15:24:07.747926,-16641,2025-11-07 15:24:08.147926000
2025-11-07 15:24:07.747926,-1,2025-11-07 15:24:08.155618308
2025-11-07 15:24:07.747926,-30,2025-11-07 15:24:08.163310615
2025-11-07 15:24:07.747926,-13057,2025-11-07 15:24:08.171002923
2025-11-07 15:24:07.747926,-1,2025-11-07 15:24:08.178695231
2025-11-07 15:24:07.747926,-80,2025-11-07 15:24:08.186387538
2025-11-07 15:24:07.747926,-25089,2025-11-07 15:24:08.194079846
2025-11-07 15:24:07.747926,-1,2025-11-07 15:24:08.201772154
2025-11-07 15:24:07.747926,-104,2025-11-07 15:24:08.209464462
2025-11-07 15:24:07.747926,-19713,2025-11-07 15:24:08.217156769
2025-11-07 15:24:07.747926,-1,2025-11-07 15:24:08.224849077
2025-11-07 15:24:07.747926,-76,2025-11-07 15:24:08.232541385
2025-11-07 15:24:07.747926,-25857,2025-11-07 15:24:08.240233692
2025-11-07 15:24:07.747926,-1,2025-11-07 15:24:08.247926000
2025-11-07 15:24:07.747926,-92,2025-11-07 15:24:08.255618308
2025-11-07 15:24:07.747926,-15361,2025-11-07 15:24:08.263310615
2025-11-07 15:24:07.747926,-1,2025-11-07 15:24:08.271002923
2025-11-07 15:24:07.747926,-64,2025-11-07 15:24:08.278695230
2025-11-07 15:24:07.747926,-22017,2025-11-07 15:24:08.286387538
2025-11-07 15:24:07.747926,-1,2025-11-07 15:24:08.294079846
2025-11-07 15:24:07.747926,-85,2025-11-07 15:24:08.301772154
2025-11-07 15:24:07.747926,-11777,2025-11-07 15:24:08.309464462
2025-11-07 15:24:07.747926,-1,2025-11-07 15:24:08.317156769
2025-11-07 15:24:07.747926,-30,2025-11-07 15:24:08.324849077
2025-11-07 15:24:07.747926,-257,2025-11-07 15:24:08.332541385
2025-11-07 15:24:07.747926,-1,2025-11-07 15:24:08.340233692
2025-11-07 15:24:07.747926,95,2025-11-07 15:24:08.347926000
2025-11-07 15:24:07.747926,12544,2025-11-07 15:24:08.355618308
2025-11-07 15:24:07.747926,0,2025-11-07 15:24:08.363310615
2025-11-07 15:24:07.747926,-463,2025-11-07 15:24:08.371002923
2025-11-07 15:24:07.747926,17919,2025-11-07 15:24:08.378695231
2025-11-07 15:24:07.747926,-5,2025-11-07 15:24:08.386387538
2025-11-07 15:24:07.747926,-1325,2025-11-07 15:24:08.394079846
2025-11-07 15:24:07.747926,22527,2025-11-07 15:24:08.401772154
2025-11-07 15:24:07.747926,-3,2025-11-07 15:24:08.409464462
2025-11-07 15:24:07.747926,-199,2025-11-07 15:24:08.417156769
2025-11-07 15:24:07.747926,-29441,2025-11-07 15:24:08.424849077
2025-11-07 15:24:07.747926,-1,2025-11-07 15:24:08.432541385
2025-11-07 15:24:07.747926,4,2025-11-07 15:24:08.440233692
2025-11-07 15:24:07.747926,29696,2025-11-07 15:24:08.447926000
2025-11-07 15:24:07.747926,0,2025-11-07 15:24:08.455618308
2025-11-07 15:24:07.747926,83,2025-11-07 15:24:08.463310615
2025-11-07 15:24:07.747926,11520,2025-11-07 15:24:08.471002923
2025-11-07 15:24:07.747926,0,2025-11-07 15:24:08.478695231
2025-11-07 15:24:07.747926,59,2025-11-07 15:24:08.486387538
2025-11-07 15:24:07.747926,16384,2025-11-07 15:24:08.494079846
2025-11-07 15:24:07.747926,0,2025-11-07 15:24:08.501772154
2025-11-07 15:24:07.747926,59,2025-11-07 15:24:08.509464462
2025-11-07 15:24:07.747926,13824,2025-11-07 15:24:08.517156769
2025-11-07 15:24:07.747926,0,2025-11-07 15:24:08.524849077
2025-11-07 15:24:07.747926,42,2025-11-07 15:24:08.532541385
2025-11-07 15:24:07.747926,8448,2025-11-07 15:24:08.540233692
2025-11-07 15:24:07.747926,0,2025-11-07 15:24:08.547926000
2025-11-07 15:24:07.747926,30,2025-11-07 15:24:08.555618308
2025-11-07 15:24:07.747926,6656,2025-11-07 15:24:08.563310615
2025-11-07 15:24:07.747926,0,2025-11-07 15:24:08.571002923
2025-11-07 15:24:07.747926,23,2025-11-07 15:24:08.578695231
2025-11-07 15:24:08.287473,16,2025-11-07 15:24:08.586387538
2025-11-07 15:24:08.287473,-4864,2025-11-07 15:24:08.594079846
2025-11-07 15:24:08.287473,-1,2025-11-07 15:24:08.601772154
2025-11-07 15:24:08.287473,-49,2025-11-07 15:24:08.609464462
2025-11-07 15:24:08.287473,-9985,2025-11-07 15:24:08.617156769
2025-11-07 15:24:08.287473,-1,2025-11-07 15:24:08.624849077
2025-11-07 15:24:08.287473,-30,2025-11-07 15:24:08.632541385
2025-11-07 15:24:08.287473,-12289,2025-11-07 15:24:08.640233692
2025-11-07 15:24:08.287473,-1,2025-11-07 15:24:08.647926000
2025-11-07 15:24:08.287473,-61,2025-11-07 15:24:08.655618308
2025-11-07 15:24:08.287473,-12289,2025-11-07 15:24:08.663310615
2025-11-07 15:24:08.287473,-1,2025-11-07 15:24:08.671002923
2025-11-07 15:24:08.287473,-38,2025-11-07 15:24:08.678695231
2025-11-07 15:24:08.287473,-11265,2025-11-07 15:24:08.686387538
2025-11-07 15:24:08.287473,-1,2025-11-07 15:24:08.694079846
2025-11-07 15:24:08.287473,-54,2025-11-07 15:24:08.701772154
2025-11-07 15:24:08.287473,-11777,2025-11-07 15:24:08.709464462
2025-11-07 15:24:08.287473,-1,2025-11-07 15:24:08.717156769
2025-11-07 15:24:08.287473,-21,2025-11-07 15:24:08.724849077
2025-11-07 15:24:08.287473,-769,2025-11-07 15:24:08.732541385
2025-11-07 15:24:08.287473,-1,2025-11-07 15:24:08.740233692
2025-11-07 15:24:08.287473,-19,2025-11-07 15:24:08.747926000
2025-11-07 15:24:08.287473,-4609,2025-11-07 15:24:08.755618308
2025-11-07 15:24:08.287473,-1,2025-11-07 15:24:08.763310615
2025-11-07 15:24:08.287473,-7,2025-11-07 15:24:08.771002923
2025-11-07 15:24:08.287473,-2049,2025-11-07 15:24:08.778695231
2025-11-07 15:24:08.287473,-1,2025-11-07 15:24:08.786387538
2025-11-07 15:24:08.287473,-14,2025-11-07 15:24:08.794079846
2025-11-07 15:24:08.287473,-3329,2025-11-07 15:24:08.801772154
2025-11-07 15:24:08.287473,-1,2025-11-07 15:24:08.809464462
2025-11-07 15:24:08.287473,-19,2025-11-07 15:24:08.817156769
2025-11-07 15:24:08.287473,-5633,2025-11-07 15:24:08.824849077
2025-11-07 15:24:08.287473,-1,2025-11-07 15:24:08.832541385
2025-11-07 15:24:08.287473,-23,2025-11-07 15:24:08.840233692
2025-11-07 15:24:08.287473,-5633,2025-11-07 15:24:08.847926000
2025-11-07 15:24:08.287473,-1,2025-11-07 15:24:08.855618308
2025-11-07 15:24:08.287473,-26,2025-11-07 15:24:08.863310615
2025-11-07 15:24:08.287473,-5633,2025-11-07 15:24:08.871002923
2025-11-07 15:24:08.287473,-1,2025-11-07 15:24:08.878695231
2025-11-07 15:24:08.287473,-21,2025-11-07 15:24:08.886387538
2025-11-07 15:24:08.287473,-7425,2025-11-07 15:24:08.894079846
2025-11-07 15:24:08.287473,-1,2025-11-07 15:24:08.901772154
2025-11-07 15:24:08.287473,-40,2025-11-07 15:24:08.909464462
2025-11-07 15:24:08.287473,-9985,2025-11-07 15:24:08.917156769
2025-11-07 15:24:08.287473,-1,2025-11-07 15:24:08.924849077
2025-11-07 15:24:08.287473,-38,2025-11-07 15:24:08.932541385
2025-11-07 15:24:08.287473,-6913,2025-11-07 15:24:08.940233692
2025-11-07 15:24:08.287473,-1,2025-11-07 15:24:08.947926000
2025-11-07 15:24:08.287473,-28,2025-11-07 15:24:08.955618308
2025-11-07 15:24:08.287473,-8705,2025-11-07 15:24:08.963310615
2025-11-07 15:24:08.287473,-1,2025-11-07 15:24:08.971002923
2025-11-07 15:24:08.287473,-38,2025-11-07 15:24:08.978695231
2025-11-07 15:24:08.287473,-8705,2025-11-07 15:24:08.986387538
2025-11-07 15:24:08.287473,-1,2025-11-07 15:24:08.994079846
2025-11-07 15:24:08.287473,-33,2025-11-07 15:24:09.001772154
2025-11-07 15:24:08.287473,-6401,2025-11-07 15:24:09.009464462
2025-11-07 15:24:08.287473,-1,2025-11-07 15:24:09.017156769
2025-11-07 15:24:08.287473,-21,2025-11-07 15:24:09.024849077
2025-11-07 15:24:08.287473,-5633,2025-11-07 15:24:09.032541385
2025-11-07 15:24:08.287473,-1,2025-11-07 15:24:09.040233692
2025-11-07 15:24:08.287473,-19,2025-11-07 15:24:09.047926000
2025-11-07 15:24:08.287473,-769,2025-11-07 15:24:09.055618308
2025-11-07 15:24:08.287473,-1,2025-11-07 15:24:09.063310615
2025-11-07 15:24:08.287473,4,2025-11-07 15:24:09.071002923
2025-11-07 15:24:08.287473,1792,2025-11-07 15:24:09.078695231
2025-11-07 15:24:08.287473,0,2025-11-07 15:24:09.086387538
2025-11-07 15:24:08.287473,-14,2025-11-07 15:24:09.094079846
2025-11-07 15:24:08.287473,-11777,2025-11-07 15:24:09.101772154
2025-11-07 15:24:08.287473,-1,2025-11-07 15:24:09.109464462
2025-11-07 15:24:08.287473,-61,2025-11-07 15:24:09.117156769
2025-11-07 15:24:08.287473,-14849,2025-11-07 15:24:09.124849077
2025-11-07 15:24:08.287473,-1,2025-11-07 15:24:09.132541385
2025-11-07 15:24:08.287473,-61,2025-11-07 15:24:09.140233692
2025-11-07 15:24:08.287473,-15361,2025-11-07 15:24:09.147926000
2025-11-07 15:24:08.287473,-1,2025-11-07 15:24:09.155618308
2025-11-07 15:24:08.287473,-49,2025-11-07 15:24:09.163310615
2025-11-07 15:24:08.287473,-10497,2025-11-07 15:24:09.171002923
2025-11-07 15:24:08.287473,-1,2025-11-07 15:24:09.178695231
2025-11-07 15:24:08.287473,-49,2025-11-07 15:24:09.186387538
2025-11-07 15:24:08.287473,-14337,2025-11-07 15:24:09.194079846
2025-11-07 15:24:08.287473,-1,2025-11-07 15:24:09.201772154
2025-11-07 15:24:08.287473,-54,2025-11-07 15:24:09.209464462
2025-11-07 15:24:08.287473,-13057,2025-11-07 15:24:09.217156769
2025-11-07 15:24:08.287473,-1,2025-11-07 15:24:09.224849077
2025-11-07 15:24:08.287473,-49,2025-11-07 15:24:09.232541385
2025-11-07 15:24:08.287473,-6913,2025-11-07 15:24:09.240233692
2025-11-07 15:24:08.287473,-1,2025-11-07 15:24:09.247926000
2025-11-07 15:24:08.287473,35,2025-11-07 15:24:09.255618308
2025-11-07 15:24:08.287473,32000,2025-11-07 15:24:09.263310615
2025-11-07 15:24:08.287473,0,2025-11-07 15:24:09.271002923
2025-11-07 15:24:08.287473,-7,2025-11-07 15:24:09.278695230
2025-11-07 15:24:08.287473,-30465,2025-11-07 15:24:09.286387538
2025-11-07 15:24:08.287473,-3,2025-11-07 15:24:09.294079846
2025-11-07 15:24:08.287473,-1380,2025-11-07 15:24:09.301772154
2025-11-07 15:24:08.287473,-31489,2025-11-07 15:24:09.309464462
2025-11-07 15:24:08.287473,-6,2025-11-07 15:24:09.317156769
2025-11-07 15:24:08.287473,-691,2025-11-07 15:24:09.324849077
2025-11-07 15:24:08.287473,27647,2025-11-07 15:24:09.332541385
2025-11-07 15:24:08.287473,-1,2025-11-07 15:24:09.340233692
2025-11-07 15:24:08.287473,-38,2025-11-07 15:24:09.347926000
2025-11-07 15:24:08.287473,14079,2025-11-07 15:24:09.355618308
2025-11-07 15:24:08.287473,0,2025-11-07 15:24:09.363310615
2025-11-07 15:24:08.287473,140,2025-11-07 15:24:09.371002923
2025-11-07 15:24:08.287473,28416,2025-11-07 15:24:09.378695231
2025-11-07 15:24:08.287473,0,2025-11-07 15:24:09.386387538
2025-11-07 15:24:08.287473,90,2025-11-07 15:24:09.394079846
2025-11-07 15:24:08.287473,26112,2025-11-07 15:24:09.401772154
2025-11-07 15:24:08.287473,0,2025-11-07 15:24:09.409464462
2025-11-07 15:24:08.287473,97,2025-11-07 15:24:09.417156769
2025-11-07 15:24:08.827482,87,2025-11-07 15:24:09.424849077
2025-11-07 15:24:08.827482,21248,2025-11-07 15:24:09.432541385
2025-11-07 15:24:08.827482,0,2025-11-07 15:24:09.440233692
2025-11-07 15:24:08.827482,68,2025-11-07 15:24:09.447926000
2025-11-07 15:24:08.827482,13824,2025-11-07 15:24:09.455618308
2025-11-07 15:24:08.827482,0,2025-11-07 15:24:09.463310615
2025-11-07 15:24:08.827482,57,2025-11-07 15:24:09.471002923
2025-11-07 15:24:08.827482,15104,2025-11-07 15:24:09.478695231
2025-11-07 15:24:08.827482,0,2025-11-07 15:24:09.486387538
2025-11-07 15:24:08.827482,54,2025-11-07 15:24:09.494079846
2025-11-07 15:24:08.827482,12544,2025-11-07 15:24:09.501772154
2025-11-07 15:24:08.827482,0,2025-11-07 15:24:09.509464462
2025-11-07 15:24:08.827482,54,2025-11-07 15:24:09.517156769
2025-11-07 15:24:08.827482,18176,2025-11-07 15:24:09.524849077
2025-11-07 15:24:08.827482,0,2025-11-07 15:24:09.532541385
2025-11-07 15:24:08.827482,87,2025-11-07 15:24:09.540233692
2025-11-07 15:24:08.827482,18688,2025-11-07 15:24:09.547926000
2025-11-07 15:24:08.827482,0,2025-11-07 15:24:09.555618308
2025-11-07 15:24:08.827482,54,2025-11-07 15:24:09.563310615
2025-11-07 15:24:08.827482,15104,2025-11-07 15:24:09.571002923
2025-11-07 15:24:08.827482,0,2025-11-07 15:24:09.578695231
2025-11-07 15:24:08.827482,68,2025-11-07 15:24:09.586387538
2025-11-07 15:24:08.827482,15616,2025-11-07 15:24:09.594079846
2025-11-07 15:24:08.827482,0,2025-11-07 15:24:09.601772154
2025-11-07 15:24:08.827482,47,2025-11-07 15:24:09.609464462
2025-11-07 15:24:08.827482,11520,2025-11-07 15:24:09.617156769
2025-11-07 15:24:08.827482,0,2025-11-07 15:24:09.624849077
2025-11-07 15:24:08.827482,45,2025-11-07 15:24:09.632541385
2025-11-07 15:24:08.827482,8448,2025-11-07 15:24:09.640233692
2025-11-07 15:24:08.827482,0,2025-11-07 15:24:09.647926000
2025-11-07 15:24:08.827482,23,2025-11-07 15:24:09.655618308
2025-11-07 15:24:08.827482,5376,2025-11-07 15:24:09.663310615
2025-11-07 15:24:08.827482,0,2025-11-07 15:24:09.671002923
2025-11-07 15:24:08.827482,19,2025-11-07 15:24:09.678695231
2025-11-07 15:24:08.827482,3584,2025-11-07 15:24:09.686387538
2025-11-07 15:24:08.827482,0,2025-11-07 15:24:09.694079846
2025-11-07 15:24:08.827482,19,2025-11-07 15:24:09.701772154
2025-11-07 15:24:08.827482,7680,2025-11-07 15:24:09.709464462
2025-11-07 15:24:08.827482,0,2025-11-07 15:24:09.717156769
2025-11-07 15:24:08.827482,23,2025-11-07 15:24:09.724849077
2025-11-07 15:24:08.827482,2304,2025-11-07 15:24:09.732541385
2025-11-07 15:24:08.827482,0,2025-11-07 15:24:09.740233692
2025-11-07 15:24:08.827482,11,2025-11-07 15:24:09.747926000
2025-11-07 15:24:08.827482,5888,2025-11-07 15:24:09.755618308
2025-11-07 15:24:08.827482,0,2025-11-07 15:24:09.763310615
2025-11-07 15:24:08.827482,19,2025-11-07 15:24:09.771002923
2025-11-07 15:24:08.827482,1024,2025-11-07 15:24:09.778695231
2025-11-07 15:24:08.827482,0,2025-11-07 15:24:09.786387538
2025-11-07 15:24:08.827482,4,2025-11-07 15:24:09.794079846
2025-11-07 15:24:08.827482,2304,2025-11-07 15:24:09.801772154
2025-11-07 15:24:08.827482,0,2025-11-07 15:24:09.809464462
2025-11-07 15:24:08.827482,4,2025-11-07 15:24:09.817156769
2025-11-07 15:24:08.827482,0,2025-11-07 15:24:09.824849077
2025-11-07 15:24:08.827482,0,2025-11-07 15:24:09.832541385
2025-11-07 15:24:08.827482,4,2025-11-07 15:24:09.840233692
2025-11-07 15:24:08.827482,2816,2025-11-07 15:24:09.847926000
2025-11-07 15:24:08.827482,0,2025-11-07 15:24:09.855618308
2025-11-07 15:24:08.827482,2,2025-11-07 15:24:09.863310615
2025-11-07 15:24:08.827482,0,2025-11-07 15:24:09.871002923
2025-11-07 15:24:08.827482,0,2025-11-07 15:24:09.878695231
2025-11-07 15:24:08.827482,14,2025-11-07 15:24:09.886387538
2025-11-07 15:24:08.827482,4096,2025-11-07 15:24:09.894079846
2025-11-07 15:24:08.827482,0,2025-11-07 15:24:09.901772154
2025-11-07 15:24:08.827482,4,2025-11-07 15:24:09.909464462
2025-11-07 15:24:08.827482,2304,2025-11-07 15:24:09.917156769
2025-11-07 15:24:08.827482,0,2025-11-07 15:24:09.924849077
2025-11-07 15:24:08.827482,14,2025-11-07 15:24:09.932541385
2025-11-07 15:24:08.827482,2304,2025-11-07 15:24:09.940233692
2025-11-07 15:24:08.827482,0,2025-11-07 15:24:09.947926000
2025-11-07 15:24:08.827482,16,2025-11-07 15:24:09.955618308
2025-11-07 15:24:08.827482,5376,2025-11-07 15:24:09.963310615
2025-11-07 15:24:08.827482,0,2025-11-07 15:24:09.971002923
2025-11-07 15:24:08.827482,11,2025-11-07 15:24:09.978695231
2025-11-07 15:24:08.827482,4096,2025-11-07 15:24:09.986387538
2025-11-07 15:24:08.827482,0,2025-11-07 15:24:09.994079846
2025-11-07 15:24:08.827482,40,2025-11-07 15:24:10.001772154
2025-11-07 15:24:08.827482,12032,2025-11-07 15:24:10.009464462
2025-11-07 15:24:08.827482,0,2025-11-07 15:24:10.017156769
2025-11-07 15:24:08.827482,28,2025-11-07 15:24:10.024849077
2025-11-07 15:24:08.827482,-1024,2025-11-07 15:24:10.032541385
2025-11-07 15:24:08.827482,-1,2025-11-07 15:24:10.040233692
2025-11-07 15:24:08.827482,-26,2025-11-07 15:24:10.047926000
2025-11-07 15:24:08.827482,-5121,2025-11-07 15:24:10.055618308
2025-11-07 15:24:08.827482,-1,2025-11-07 15:24:10.063310615
2025-11-07 15:24:08.827482,-19,2025-11-07 15:24:10.071002923
2025-11-07 15:24:08.827482,-4609,2025-11-07 15:24:10.078695231
2025-11-07 15:24:08.827482,-1,2025-11-07 15:24:10.086387538
2025-11-07 15:24:08.827482,-9,2025-11-07 15:24:10.094079846
2025-11-07 15:24:08.827482,-3329,2025-11-07 15:24:10.101772154
2025-11-07 15:24:08.827482,-1,2025-11-07 15:24:10.109464462
2025-11-07 15:24:08.827482,-21,2025-11-07 15:24:10.117156769
2025-11-07 15:24:08.827482,-3841,2025-11-07 15:24:10.124849077
2025-11-07 15:24:08.827482,-1,2025-11-07 15:24:10.132541385
2025-11-07 15:24:08.827482,-4,2025-11-07 15:24:10.140233692
2025-11-07 15:24:08.827482,255,2025-11-07 15:24:10.147926000
2025-11-07 15:24:08.827482,0,2025-11-07 15:24:10.155618308
2025-11-07 15:24:08.827482,2,2025-11-07 15:24:10.163310615
2025-11-07 15:24:08.827482,3584,2025-11-07 15:24:10.171002923
2025-11-07 15:24:08.827482,0,2025-11-07 15:24:10.178695231
2025-11-07 15:24:08.827482,76,2025-11-07 15:24:10.186387538
2025-11-07 15:24:08.827482,-20736,2025-11-07 15:24:10.194079846
2025-11-07 15:24:08.827482,0,2025-11-07 15:24:10.201772154
2025-11-07 15:24:08.827482,87,2025-11-07 15:24:10.209464462
2025-11-07 15:24:08.827482,12032,2025-11-07 15:24:10.217156769
2025-11-07 15:24:08.827482,-2,2025-11-07 15:24:10.224849077
2025-11-07 15:24:08.827482,-1230,2025-11-07 15:24:10.232541385
2025-11-07 15:24:08.827482,-24065,2025-11-07 15:24:10.240233692
2025-11-07 15:24:08.827482,-6,2025-11-07 15:24:10.247926000
2025-11-07 15:24:08.827482,-712,2025-11-07 15:24:10.255618308
2025-11-07 15:24:09.458271,-116,2025-11-07 15:24:10.263310615
2025-11-07 15:24:09.458271,5631,2025-11-07 15:24:10.271002923
2025-11-07 15:24:09.458271,0,2025-11-07 15:24:10.278695230
2025-11-07 15:24:09.458271,95,2025-11-07 15:24:10.286387538
2025-11-07 15:24:09.458271,-19968,2025-11-07 15:24:10.294079846
2025-11-07 15:24:09.458271,0,2025-11-07 15:24:10.301772154
2025-11-07 15:24:09.458271,163,2025-11-07 15:24:10.309464462
2025-11-07 15:24:09.458271,-26112,2025-11-07 15:24:10.317156769
2025-11-07 15:24:09.458271,0,2025-11-07 15:24:10.324849077
2025-11-07 15:24:09.458271,180,2025-11-07 15:24:10.332541385
2025-11-07 15:24:09.458271,-18176,2025-11-07 15:24:10.340233692
2025-11-07 15:24:09.458271,0,2025-11-07 15:24:10.347926000
2025-11-07 15:24:09.458271,168,2025-11-07 15:24:10.355618308
2025-11-07 15:24:09.458271,-24320,2025-11-07 15:24:10.363310615
2025-11-07 15:24:09.458271,0,2025-11-07 15:24:10.371002923
2025-11-07 15:24:09.458271,156,2025-11-07 15:24:10.378695231
2025-11-07 15:24:09.458271,-30464,2025-11-07 15:24:10.386387538
2025-11-07 15:24:09.458271,0,2025-11-07 15:24:10.394079846
2025-11-07 15:24:09.458271,123,2025-11-07 15:24:10.401772154
2025-11-07 15:24:09.458271,31488,2025-11-07 15:24:10.409464462
2025-11-07 15:24:09.458271,0,2025-11-07 15:24:10.417156769
2025-11-07 15:24:09.458271,123,2025-11-07 15:24:10.424849077
2025-11-07 15:24:09.458271,29184,2025-11-07 15:24:10.432541385
2025-11-07 15:24:09.458271,0,2025-11-07 15:24:10.440233692
2025-11-07 15:24:09.458271,106,2025-11-07 15:24:10.447926000
2025-11-07 15:24:09.458271,27904,2025-11-07 15:24:10.455618308
2025-11-07 15:24:09.458271,0,2025-11-07 15:24:10.463310615
2025-11-07 15:24:09.458271,102,2025-11-07 15:24:10.471002923
2025-11-07 15:24:09.458271,22272,2025-11-07 15:24:10.478695231
2025-11-07 15:24:09.458271,0,2025-11-07 15:24:10.486387538
2025-11-07 15:24:09.458271,118,2025-11-07 15:24:10.494079846
2025-11-07 15:24:09.458271,-27904,2025-11-07 15:24:10.501772154
2025-11-07 15:24:09.458271,0,2025-11-07 15:24:10.509464462
2025-11-07 15:24:09.458271,80,2025-11-07 15:24:10.517156769
2025-11-07 15:24:09.458271,6656,2025-11-07 15:24:10.524849077
2025-11-07 15:24:09.458271,0,2025-11-07 15:24:10.532541385
2025-11-07 15:24:09.458271,83,2025-11-07 15:24:10.540233692
2025-11-07 15:24:09.458271,-24832,2025-11-07 15:24:10.547926000
2025-11-07 15:24:09.458271,0,2025-11-07 15:24:10.555618308
2025-11-07 15:24:09.458271,144,2025-11-07 15:24:10.563310615
2025-11-07 15:24:09.458271,7680,2025-11-07 15:24:10.571002923
2025-11-07 15:24:09.458271,0,2025-11-07 15:24:10.578695231
2025-11-07 15:24:09.458271,-40,2025-11-07 15:24:10.586387538
2025-11-07 15:24:09.458271,-2561,2025-11-07 15:24:10.594079846
2025-11-07 15:24:09.458271,-1,2025-11-07 15:24:10.601772154
2025-11-07 15:24:09.458271,19,2025-11-07 15:24:10.609464462
2025-11-07 15:24:09.458271,4096,2025-11-07 15:24:10.617156769
2025-11-07 15:24:09.458271,0,2025-11-07 15:24:10.624849077
2025-11-07 15:24:09.458271,49,2025-11-07 15:24:10.632541385
2025-11-07 15:24:09.458271,20480,2025-11-07 15:24:10.640233692
2025-11-07 15:24:09.458271,0,2025-11-07 15:24:10.647926000
2025-11-07 15:24:09.458271,33,2025-11-07 15:24:10.655618308
2025-11-07 15:24:09.458271,-6656,2025-11-07 15:24:10.663310615
2025-11-07 15:24:09.458271,-1,2025-11-07 15:24:10.671002923
2025-11-07 15:24:09.458271,-49,2025-11-07 15:24:10.678695231
2025-11-07 15:24:09.458271,-19201,2025-11-07 15:24:10.686387538
2025-11-07 15:24:09.458271,-1,2025-11-07 15:24:10.694079846
2025-11-07 15:24:09.458271,-125,2025-11-07 15:24:10.701772154
2025-11-07 15:24:09.458271,-28929,2025-11-07 15:24:10.709464462
2025-11-07 15:24:09.458271,-1,2025-11-07 15:24:10.717156769
2025-11-07 15:24:09.458271,-54,2025-11-07 15:24:10.724849077
2025-11-07 15:24:09.458271,9983,2025-11-07 15:24:10.732541385
2025-11-07 15:24:09.458271,-1,2025-11-07 15:24:10.740233692
2025-11-07 15:24:09.458271,-451,2025-11-07 15:24:10.747926000
2025-11-07 15:24:09.458271,14591,2025-11-07 15:24:10.755618308
2025-11-07 15:24:09.458271,-2,2025-11-07 15:24:10.763310615
2025-11-07 15:24:09.458271,-465,2025-11-07 15:24:10.771002923
2025-11-07 15:24:09.458271,-7937,2025-11-07 15:24:10.778695231
2025-11-07 15:24:09.458271,-3,2025-11-07 15:24:10.786387538
2025-11-07 15:24:09.458271,-494,2025-11-07 15:24:10.794079846
2025-11-07 15:24:09.458271,-32513,2025-11-07 15:24:10.801772154
2025-11-07 15:24:09.458271,-2,2025-11-07 15:24:10.809464462
2025-11-07 15:24:09.458271,-289,2025-11-07 15:24:10.817156769
2025-11-07 15:24:09.458271,-5889,2025-11-07 15:24:10.824849077
2025-11-07 15:24:09.458271,-2,2025-11-07 15:24:10.832541385
2025-11-07 15:24:09.458271,-316,2025-11-07 15:24:10.840233692
2025-11-07 15:24:09.458271,24575,2025-11-07 15:24:10.847926000
2025-11-07 15:24:09.458271,-1,2025-11-07 15:24:10.855618308
2025-11-07 15:24:09.458271,38,2025-11-07 15:24:10.863310615
2025-11-07 15:24:09.458271,27904,2025-11-07 15:24:10.871002923
2025-11-07 15:24:09.458271,0,2025-11-07 15:24:10.878695231
2025-11-07 15:24:09.458271,228,2025-11-07 15:24:10.886387538
2025-11-07 15:24:09.458271,-15616,2025-11-07 15:24:10.894079846
2025-11-07 15:24:09.458271,1,2025-11-07 15:24:10.901772154
2025-11-07 15:24:09.458271,589,2025-11-07 15:24:10.909464462
2025-11-07 15:24:09.458271,30720,2025-11-07 15:24:10.917156769
2025-11-07 15:24:09.458271,2,2025-11-07 15:24:10.924849077
2025-11-07 15:24:09.458271,791,2025-11-07 15:24:10.932541385
2025-11-07 15:24:09.458271,-10496,2025-11-07 15:24:10.940233692
2025-11-07 15:24:09.458271,3,2025-11-07 15:24:10.947926000
2025-11-07 15:24:09.458271,1040,2025-11-07 15:24:10.955618308
2025-11-07 15:24:09.458271,30464,2025-11-07 15:24:10.963310615
2025-11-07 15:24:09.458271,4,2025-11-07 15:24:10.971002923
2025-11-07 15:24:09.458271,1297,2025-11-07 15:24:10.978695231
2025-11-07 15:24:09.458271,18432,2025-11-07 15:24:10.986387538
2025-11-07 15:24:09.458271,5,2025-11-07 15:24:10.994079846
2025-11-07 15:24:09.458271,1418,2025-11-07 15:24:11.001772154
2025-11-07 15:24:09.458271,1536,2025-11-07 15:24:11.009464462
2025-11-07 15:24:09.458271,6,2025-11-07 15:24:11.017156769
2025-11-07 15:24:09.458271,1589,2025-11-07 15:24:11.024849077
2025-11-07 15:24:09.458271,13056,2025-11-07 15:24:11.032541385
2025-11-07 15:24:09.458271,6,2025-11-07 15:24:11.040233692
2025-11-07 15:24:09.458271,1651,2025-11-07 15:24:11.047926000
2025-11-07 15:24:09.458271,-14080,2025-11-07 15:24:11.055618308
2025-11-07 15:24:09.458271,6,2025-11-07 15:24:11.063310615
2025-11-07 15:24:09.458271,1763,2025-11-07 15:24:11.071002923
2025-11-07 15:24:09.458271,-2560,2025-11-07 15:24:11.078695231
2025-11-07 15:24:09.458271,6,2025-11-07 15:24:11.086387538
2025-11-07 15:24:09.458271,1872,2025-11-07 15:24:11.094079846
2025-11-07 15:24:09.952459,1931,2025-11-07 15:24:11.101772154
2025-11-07 15:24:09.952459,17408,2025-11-07 15:24:11.109464462
2025-11-07 15:24:09.952459,7,2025-11-07 15:24:11.117156769
2025-11-07 15:24:09.952459,1805,2025-11-07 15:24:11.124849077
2025-11-07 15:24:09.952459,-21248,2025-11-07 15:24:11.132541385
2025-11-07 15:24:09.952459,7,2025-11-07 15:24:11.140233692
2025-11-07 15:24:09.952459,2143,2025-11-07 15:24:11.147926000
2025-11-07 15:24:09.952459,-6144,2025-11-07 15:24:11.155618308
2025-11-07 15:24:09.952459,7,2025-11-07 15:24:11.163310615
2025-11-07 15:24:09.952459,1627,2025-11-07 15:24:11.171002923
2025-11-07 15:24:09.952459,8448,2025-11-07 15:24:11.178695231
2025-11-07 15:24:09.952459,4,2025-11-07 15:24:11.186387538
2025-11-07 15:24:09.952459,734,2025-11-07 15:24:11.194079846
2025-11-07 15:24:09.952459,-29696,2025-11-07 15:24:11.201772154
2025-11-07 15:24:09.952459,4,2025-11-07 15:24:11.209464462
2025-11-07 15:24:09.952459,1848,2025-11-07 15:24:11.217156769
2025-11-07 15:24:09.952459,14080,2025-11-07 15:24:11.224849077
2025-11-07 15:24:09.952459,8,2025-11-07 15:24:11.232541385
2025-11-07 15:24:09.952459,2084,2025-11-07 15:24:11.240233692
2025-11-07 15:24:09.952459,22528,2025-11-07 15:24:11.247926000
2025-11-07 15:24:09.952459,8,2025-11-07 15:24:11.255618308
2025-11-07 15:24:09.952459,2219,2025-11-07 15:24:11.263310615
2025-11-07 15:24:09.952459,-26624,2025-11-07 15:24:11.271002923
2025-11-07 15:24:09.952459,8,2025-11-07 15:24:11.278695230
2025-11-07 15:24:09.952459,2205,2025-11-07 15:24:11.286387538
2025-11-07 15:24:09.952459,-26624,2025-11-07 15:24:11.294079846
2025-11-07 15:24:09.952459,8,2025-11-07 15:24:11.301772154
2025-11-07 15:24:09.952459,2022,2025-11-07 15:24:11.309464462
2025-11-07 15:24:09.952459,-22528,2025-11-07 15:24:11.317156769
2025-11-07 15:24:09.952459,7,2025-11-07 15:24:11.324849077
2025-11-07 15:24:09.952459,2062,2025-11-07 15:24:11.332541385
2025-11-07 15:24:09.952459,-8448,2025-11-07 15:24:11.340233692
2025-11-07 15:24:09.952459,7,2025-11-07 15:24:11.347926000
2025-11-07 15:24:09.952459,1912,2025-11-07 15:24:11.355618308
2025-11-07 15:24:09.952459,29696,2025-11-07 15:24:11.363310615
2025-11-07 15:24:09.952459,7,2025-11-07 15:24:11.371002923
2025-11-07 15:24:09.952459,1891,2025-11-07 15:24:11.378695231
2025-11-07 15:24:09.952459,10240,2025-11-07 15:24:11.386387538
2025-11-07 15:24:09.952459,7,2025-11-07 15:24:11.394079846
2025-11-07 15:24:09.952459,1786,2025-11-07 15:24:11.401772154
2025-11-07 15:24:09.952459,-8192,2025-11-07 15:24:11.409464462
2025-11-07 15:24:09.952459,6,2025-11-07 15:24:11.417156769
2025-11-07 15:24:09.952459,1756,2025-11-07 15:24:11.424849077
2025-11-07 15:24:09.952459,-17152,2025-11-07 15:24:11.432541385
2025-11-07 15:24:09.952459,6,2025-11-07 15:24:11.440233692
2025-11-07 15:24:09.952459,1637,2025-11-07 15:24:11.447926000
2025-11-07 15:24:09.952459,9984,2025-11-07 15:24:11.455618308
2025-11-07 15:24:09.952459,6,2025-11-07 15:24:11.463310615
2025-11-07 15:24:09.952459,1577,2025-11-07 15:24:11.471002923
2025-11-07 15:24:09.952459,6912,2025-11-07 15:24:11.478695231
2025-11-07 15:24:09.952459,6,2025-11-07 15:24:11.486387538
2025-11-07 15:24:09.952459,1551,2025-11-07 15:24:11.494079846
2025-11-07 15:24:09.952459,256,2025-11-07 15:24:11.501772154
2025-11-07 15:24:09.952459,6,2025-11-07 15:24:11.509464462
2025-11-07 15:24:09.952459,1416,2025-11-07 15:24:11.517156769
2025-11-07 15:24:09.952459,15872,2025-11-07 15:24:11.524849077
2025-11-07 15:24:09.952459,5,2025-11-07 15:24:11.532541385
2025-11-07 15:24:09.952459,1418,2025-11-07 15:24:11.540233692
2025-11-07 15:24:09.952459,-27648,2025-11-07 15:24:11.547926000
2025-11-07 15:24:09.952459,5,2025-11-07 15:24:11.555618308
2025-11-07 15:24:09.952459,1321,2025-11-07 15:24:11.563310615
2025-11-07 15:24:09.952459,-512,2025-11-07 15:24:11.571002923
2025-11-07 15:24:09.952459,4,2025-11-07 15:24:11.578695231
2025-11-07 15:24:09.952459,1304,2025-11-07 15:24:11.586387538
2025-11-07 15:24:09.952459,3072,2025-11-07 15:24:11.594079846
2025-11-07 15:24:09.952459,5,2025-11-07 15:24:11.601772154
2025-11-07 15:24:09.952459,1247,2025-11-07 15:24:11.609464462
2025-11-07 15:24:09.952459,-24320,2025-11-07 15:24:11.617156769
2025-11-07 15:24:09.952459,4,2025-11-07 15:24:11.624849077
2025-11-07 15:24:09.952459,1154,2025-11-07 15:24:11.632541385
2025-11-07 15:24:09.952459,-23552,2025-11-07 15:24:11.640233692
2025-11-07 15:24:09.952459,4,2025-11-07 15:24:11.647926000
2025-11-07 15:24:09.952459,1183,2025-11-07 15:24:11.655618308
2025-11-07 15:24:09.952459,8448,2025-11-07 15:24:11.663310615
2025-11-07 15:24:09.952459,4,2025-11-07 15:24:11.671002923
2025-11-07 15:24:09.952459,983,2025-11-07 15:24:11.678695231
2025-11-07 15:24:09.952459,8960,2025-11-07 15:24:11.686387538
2025-11-07 15:24:09.952459,4,2025-11-07 15:24:11.694079846
2025-11-07 15:24:09.952459,1047,2025-11-07 15:24:11.701772154
2025-11-07 15:24:09.952459,-20736,2025-11-07 15:24:11.709464462
2025-11-07 15:24:09.952459,3,2025-11-07 15:24:11.717156769
2025-11-07 15:24:09.952459,931,2025-11-07 15:24:11.724849077
2025-11-07 15:24:09.952459,-18432,2025-11-07 15:24:11.732541385
2025-11-07 15:24:09.952459,3,2025-11-07 15:24:11.740233692
2025-11-07 15:24:09.952459,912,2025-11-07 15:24:11.747926000
2025-11-07 15:24:09.952459,28928,2025-11-07 15:24:11.755618308
2025-11-07 15:24:09.952459,3,2025-11-07 15:24:11.763310615
2025-11-07 15:24:09.952459,929,2025-11-07 15:24:11.771002923
2025-11-07 15:24:09.952459,-26112,2025-11-07 15:24:11.778695231
2025-11-07 15:24:09.952459,3,2025-11-07 15:24:11.786387538
2025-11-07 15:24:09.952459,767,2025-11-07 15:24:11.794079846
2025-11-07 15:24:09.952459,-16128,2025-11-07 15:24:11.801772154
2025-11-07 15:24:09.952459,2,2025-11-07 15:24:11.809464462
2025-11-07 15:24:09.952459,798,2025-11-07 15:24:11.817156769
2025-11-07 15:24:09.952459,9472,2025-11-07 15:24:11.824849077
2025-11-07 15:24:09.952459,3,2025-11-07 15:24:11.832541385
2025-11-07 15:24:09.952459,743,2025-11-07 15:24:11.840233692
2025-11-07 15:24:09.952459,-8192,2025-11-07 15:24:11.847926000
2025-11-07 15:24:09.952459,2,2025-11-07 15:24:11.855618308
2025-11-07 15:24:09.952459,729,2025-11-07 15:24:11.863310615
2025-11-07 15:24:09.952459,-17920,2025-11-07 15:24:11.871002923
2025-11-07 15:24:09.952459,2,2025-11-07 15:24:11.878695231
2025-11-07 15:24:09.952459,691,2025-11-07 15:24:11.886387538
2025-11-07 15:24:09.952459,-21504,2025-11-07 15:24:11.894079846
2025-11-07 15:24:09.952459,2,2025-11-07 15:24:11.901772154
2025-11-07 15:24:09.952459,684,2025-11-07 15:24:11.909464462
2025-11-07 15:24:09.952459,-20992,2025-11-07 15:24:11.917156769
2025-11-07 15:24:09.952459,2,2025-11-07 15:24:11.924849077
2025-11-07 15:24:09.952459,601,2025-11-07 15:24:11.932541385
2025-11-07 15:24:10.492471,496,2025-11-07 15:24:11.940233692
2025-11-07 15:24:10.492471,256,2025-11-07 15:24:11.947926000
2025-11-07 15:24:10.492471,2,2025-11-07 15:24:11.955618308
2025-11-07 15:24:10.492471,546,2025-11-07 15:24:11.963310615
2025-11-07 15:24:10.492471,-1024,2025-11-07 15:24:11.971002923
2025-11-07 15:24:10.492471,1,2025-11-07 15:24:11.978695231
2025-11-07 15:24:10.492471,491,2025-11-07 15:24:11.986387538
2025-11-07 15:24:10.492471,-5888,2025-11-07 15:24:11.994079846
2025-11-07 15:24:10.492471,1,2025-11-07 15:24:12.001772154
2025-11-07 15:24:10.492471,477,2025-11-07 15:24:12.009464462
2025-11-07 15:24:10.492471,2048,2025-11-07 15:24:12.017156769
2025-11-07 15:24:10.492471,2,2025-11-07 15:24:12.024849077
2025-11-07 15:24:10.492471,537,2025-11-07 15:24:12.032541385
2025-11-07 15:24:10.492471,-512,2025-11-07 15:24:12.040233692
2025-11-07 15:24:10.492471,1,2025-11-07 15:24:12.047926000
2025-11-07 15:24:10.492471,544,2025-11-07 15:24:12.055618308
2025-11-07 15:24:10.492471,18944,2025-11-07 15:24:12.063310615
2025-11-07 15:24:10.492471,2,2025-11-07 15:24:12.071002923
2025-11-07 15:24:10.492471,608,2025-11-07 15:24:12.078695231
2025-11-07 15:24:10.492471,-20224,2025-11-07 15:24:12.086387538
2025-11-07 15:24:10.492471,2,2025-11-07 15:24:12.094079846
2025-11-07 15:24:10.492471,753,2025-11-07 15:24:12.101772154
2025-11-07 15:24:10.492471,2048,2025-11-07 15:24:12.109464462
2025-11-07 15:24:10.492471,2,2025-11-07 15:24:12.117156769
2025-11-07 15:24:10.492471,-85,2025-11-07 15:24:12.124849077
2025-11-07 15:24:10.492471,767,2025-11-07 15:24:12.132541385
2025-11-07 15:24:10.492471,-2,2025-11-07 15:24:12.140233692
2025-11-07 15:24:10.492471,-240,2025-11-07 15:24:12.147926000
2025-11-07 15:24:10.492471,-1025,2025-11-07 15:24:12.155618308
2025-11-07 15:24:10.492471,0,2025-11-07 15:24:12.163310615
2025-11-07 15:24:10.492471,430,2025-11-07 15:24:12.171002923
2025-11-07 15:24:10.492471,2560,2025-11-07 15:24:12.178695231
2025-11-07 15:24:10.492471,2,2025-11-07 15:24:12.186387538
2025-11-07 15:24:10.492471,648,2025-11-07 15:24:12.194079846
2025-11-07 15:24:10.492471,-31232,2025-11-07 15:24:12.201772154
2025-11-07 15:24:10.492471,2,2025-11-07 15:24:12.209464462
2025-11-07 15:24:10.492471,598,2025-11-07 15:24:12.217156769
2025-11-07 15:24:10.492471,23808,2025-11-07 15:24:12.224849077
2025-11-07 15:24:10.492471,2,2025-11-07 15:24:12.232541385
2025-11-07 15:24:10.492471,601,2025-11-07 15:24:12.240233692
2025-11-07 15:24:10.492471,11264,2025-11-07 15:24:12.247926000
2025-11-07 15:24:10.492471,2,2025-11-07 15:24:12.255618308
2025-11-07 15:24:10.492471,525,2025-11-07 15:24:12.263310615
2025-11-07 15:24:10.492471,3840,2025-11-07 15:24:12.271002923
2025-11-07 15:24:10.492471,2,2025-11-07 15:24:12.278695230
2025-11-07 15:24:10.492471,529,2025-11-07 15:24:12.286387538
2025-11-07 15:24:10.492471,-2304,2025-11-07 15:24:12.294079846
2025-11-07 15:24:10.492471,1,2025-11-07 15:24:12.301772154
2025-11-07 15:24:10.492471,465,2025-11-07 15:24:12.309464462
2025-11-07 15:24:10.492471,-14336,2025-11-07 15:24:12.317156769
2025-11-07 15:24:10.492471,1,2025-11-07 15:24:12.324849077
2025-11-07 15:24:10.492471,451,2025-11-07 15:24:12.332541385
2025-11-07 15:24:10.492471,-20992,2025-11-07 15:24:12.340233692
2025-11-07 15:24:10.492471,1,2025-11-07 15:24:12.347926000
2025-11-07 15:24:10.492471,420,2025-11-07 15:24:12.355618308
2025-11-07 15:24:10.492471,-25344,2025-11-07 15:24:12.363310615
2025-11-07 15:24:10.492471,1,2025-11-07 15:24:12.371002923
2025-11-07 15:24:10.492471,401,2025-11-07 15:24:12.378695231
2025-11-07 15:24:10.492471,-30720,2025-11-07 15:24:12.386387538
2025-11-07 15:24:10.492471,1,2025-11-07 15:24:12.394079846
2025-11-07 15:24:10.492471,375,2025-11-07 15:24:12.401772154
2025-11-07 15:24:10.492471,28672,2025-11-07 15:24:12.409464462
2025-11-07 15:24:10.492471,1,2025-11-07 15:24:12.417156769
2025-11-07 15:24:10.492471,389,2025-11-07 15:24:12.424849077
2025-11-07 15:24:10.492471,-30208,2025-11-07 15:24:12.432541385
2025-11-07 15:24:10.492471,1,2025-11-07 15:24:12.440233692
2025-11-07 15:24:10.492471,368,2025-11-07 15:24:12.447926000
2025-11-07 15:24:10.492471,30976,2025-11-07 15:24:12.455618308
2025-11-07 15:24:10.492471,1,2025-11-07 15:24:12.463310615
2025-11-07 15:24:10.492471,392,2025-11-07 15:24:12.471002923
2025-11-07 15:24:10.492471,29952,2025-11-07 15:24:12.478695231
2025-11-07 15:24:10.492471,1,2025-11-07 15:24:12.486387538
2025-11-07 15:24:10.492471,354,2025-11-07 15:24:12.494079846
2025-11-07 15:24:10.492471,22016,2025-11-07 15:24:12.501772154
2025-11-07 15:24:10.492471,1,2025-11-07 15:24:12.509464462
2025-11-07 15:24:10.492471,339,2025-11-07 15:24:12.517156769
2025-11-07 15:24:10.492471,23808,2025-11-07 15:24:12.524849077
2025-11-07 15:24:10.492471,1,2025-11-07 15:24:12.532541385
2025-11-07 15:24:10.492471,361,2025-11-07 15:24:12.540233692
2025-11-07 15:24:10.492471,23808,2025-11-07 15:24:12.547926000
2025-11-07 15:24:10.492471,1,2025-11-07 15:24:12.555618308
2025-11-07 15:24:10.492471,323,2025-11-07 15:24:12.563310615
2025-11-07 15:24:10.492471,20224,2025-11-07 15:24:12.571002923
2025-11-07 15:24:10.492471,1,2025-11-07 15:24:12.578695231
2025-11-07 15:24:10.492471,361,2025-11-07 15:24:12.586387538
2025-11-07 15:24:10.492471,16384,2025-11-07 15:24:12.594079846
2025-11-07 15:24:10.492471,1,2025-11-07 15:24:12.601772154
2025-11-07 15:24:10.492471,254,2025-11-07 15:24:12.609464462
2025-11-07 15:24:10.492471,-1280,2025-11-07 15:24:12.617156769
2025-11-07 15:24:10.492471,0,2025-11-07 15:24:12.624849077
2025-11-07 15:24:10.492471,263,2025-11-07 15:24:12.632541385
2025-11-07 15:24:10.492471,6656,2025-11-07 15:24:12.640233692
2025-11-07 15:24:10.492471,1,2025-11-07 15:24:12.647926000
2025-11-07 15:24:10.492471,304,2025-11-07 15:24:12.655618308
2025-11-07 15:24:10.492471,1792,2025-11-07 15:24:12.663310615
2025-11-07 15:24:10.492471,1,2025-11-07 15:24:12.671002923
2025-11-07 15:24:10.492471,218,2025-11-07 15:24:12.678695231
2025-11-07 15:24:10.492471,-5376,2025-11-07 15:24:12.686387538
2025-11-07 15:24:10.492471,0,2025-11-07 15:24:12.694079846
2025-11-07 15:24:10.492471,282,2025-11-07 15:24:12.701772154
2025-11-07 15:24:10.492471,-1792,2025-11-07 15:24:12.709464462
2025-11-07 15:24:10.492471,0,2025-11-07 15:24:12.717156769
2025-11-07 15:24:10.492471,166,2025-11-07 15:24:12.724849077
2025-11-07 15:24:10.492471,-11520,2025-11-07 15:24:12.732541385
2025-11-07 15:24:10.492471,0,2025-11-07 15:24:12.740233692
2025-11-07 15:24:10.492471,280,2025-11-07 15:24:12.747926000
2025-11-07 15:24:10.492471,-9216,2025-11-07 15:24:12.755618308
2025-11-07 15:24:10.492471,0,2025-11-07 15:24:12.763310615
2025-11-07 15:24:10.492471,161,2025-11-07 15:24:12.771002923
2025-11-07 15:24:11.122472,166,2025-11-07 15:24:12.778695231
2025-11-07 15:24:11.122472,-21760,2025-11-07 15:24:12.786387538
2025-11-07 15:24:11.122472,0,2025-11-07 15:24:12.794079846
2025-11-07 15:24:11.122472,173,2025-11-07 15:24:12.801772154
2025-11-07 15:24:11.122472,-16384,2025-11-07 15:24:12.809464462
2025-11-07 15:24:11.122472,0,2025-11-07 15:24:12.817156769
2025-11-07 15:24:11.122472,190,2025-11-07 15:24:12.824849077
2025-11-07 15:24:11.122472,-26624,2025-11-07 15:24:12.832541385
2025-11-07 15:24:11.122472,0,2025-11-07 15:24:12.840233692
2025-11-07 15:24:11.122472,111,2025-11-07 15:24:12.847926000
2025-11-07 15:24:11.122472,26624,2025-11-07 15:24:12.855618308
2025-11-07 15:24:11.122472,0,2025-11-07 15:24:12.863310615
2025-11-07 15:24:11.122472,123,2025-11-07 15:24:12.871002923
2025-11-07 15:24:11.122472,-30976,2025-11-07 15:24:12.878695231
2025-11-07 15:24:11.122472,0,2025-11-07 15:24:12.886387538
2025-11-07 15:24:11.122472,135,2025-11-07 15:24:12.894079846
2025-11-07 15:24:11.122472,-31488,2025-11-07 15:24:12.901772154
2025-11-07 15:24:11.122472,0,2025-11-07 15:24:12.909464462
2025-11-07 15:24:11.122472,140,2025-11-07 15:24:12.917156769
2025-11-07 15:24:11.122472,-21760,2025-11-07 15:24:12.924849077
2025-11-07 15:24:11.122472,0,2025-11-07 15:24:12.932541385
2025-11-07 15:24:11.122472,163,2025-11-07 15:24:12.940233692
2025-11-07 15:24:11.122472,27136,2025-11-07 15:24:12.947926000
2025-11-07 15:24:11.122472,0,2025-11-07 15:24:12.955618308
2025-11-07 15:24:11.122472,118,2025-11-07 15:24:12.963310615
2025-11-07 15:24:11.122472,-21248,2025-11-07 15:24:12.971002923
2025-11-07 15:24:11.122472,0,2025-11-07 15:24:12.978695231
2025-11-07 15:24:11.122472,242,2025-11-07 15:24:12.986387538
2025-11-07 15:24:11.122472,17664,2025-11-07 15:24:12.994079846
2025-11-07 15:24:11.122472,1,2025-11-07 15:24:13.001772154
2025-11-07 15:24:11.122472,187,2025-11-07 15:24:13.009464462
2025-11-07 15:24:11.122472,24832,2025-11-07 15:24:13.017156769
2025-11-07 15:24:11.122472,-2,2025-11-07 15:24:13.024849077
2025-11-07 15:24:11.122472,-1114,2025-11-07 15:24:13.032541385
2025-11-07 15:24:11.122472,-16129,2025-11-07 15:24:13.040233692
2025-11-07 15:24:11.122472,-5,2025-11-07 15:24:13.047926000
2025-11-07 15:24:11.122472,-389,2025-11-07 15:24:13.055618308
2025-11-07 15:24:11.122472,21503,2025-11-07 15:24:13.063310615
2025-11-07 15:24:11.122472,0,2025-11-07 15:24:13.071002923
2025-11-07 15:24:11.122472,171,2025-11-07 15:24:13.078695231
2025-11-07 15:24:11.122472,3072,2025-11-07 15:24:13.086387538
2025-11-07 15:24:11.122472,1,2025-11-07 15:24:13.094079846
2025-11-07 15:24:11.122472,339,2025-11-07 15:24:13.101772154
2025-11-07 15:24:11.122472,10496,2025-11-07 15:24:13.109464462
2025-11-07 15:24:11.122472,1,2025-11-07 15:24:13.117156769
2025-11-07 15:24:11.122472,285,2025-11-07 15:24:13.124849077
2025-11-07 15:24:11.122472,14080,2025-11-07 15:24:13.132541385
2025-11-07 15:24:11.122472,1,2025-11-07 15:24:13.140233692
2025-11-07 15:24:11.122472,268,2025-11-07 15:24:13.147926000
2025-11-07 15:24:11.122472,-7936,2025-11-07 15:24:13.155618308
2025-11-07 15:24:11.122472,0,2025-11-07 15:24:13.163310615
2025-11-07 15:24:11.122472,249,2025-11-07 15:24:13.171002923
2025-11-07 15:24:11.122472,2560,2025-11-07 15:24:13.178695231
2025-11-07 15:24:11.122472,1,2025-11-07 15:24:13.186387538
2025-11-07 15:24:11.122472,275,2025-11-07 15:24:13.194079846
2025-11-07 15:24:11.122472,6144,2025-11-07 15:24:13.201772154
2025-11-07 15:24:11.122472,1,2025-11-07 15:24:13.209464462
2025-11-07 15:24:11.122472,240,2025-11-07 15:24:13.217156769
2025-11-07 15:24:11.122472,-7936,2025-11-07 15:24:13.224849077
2025-11-07 15:24:11.122472,0,2025-11-07 15:24:13.232541385
2025-11-07 15:24:11.122472,254,2025-11-07 15:24:13.240233692
2025-11-07 15:24:11.122472,1280,2025-11-07 15:24:13.247926000
2025-11-07 15:24:11.122472,1,2025-11-07 15:24:13.255618308
2025-11-07 15:24:11.122472,256,2025-11-07 15:24:13.263310615
2025-11-07 15:24:11.122472,-1280,2025-11-07 15:24:13.271002923
2025-11-07 15:24:11.122472,0,2025-11-07 15:24:13.278695230
2025-11-07 15:24:11.122472,232,2025-11-07 15:24:13.286387538
2025-11-07 15:24:11.122472,-6656,2025-11-07 15:24:13.294079846
2025-11-07 15:24:11.122472,0,2025-11-07 15:24:13.301772154
2025-11-07 15:24:11.122472,244,2025-11-07 15:24:13.309464462
2025-11-07 15:24:11.122472,-1792,2025-11-07 15:24:13.317156769
2025-11-07 15:24:11.122472,0,2025-11-07 15:24:13.324849077
2025-11-07 15:24:11.122472,244,2025-11-07 15:24:13.332541385
2025-11-07 15:24:11.122472,-2304,2025-11-07 15:24:13.340233692
2025-11-07 15:24:11.122472,0,2025-11-07 15:24:13.347926000
2025-11-07 15:24:11.122472,254,2025-11-07 15:24:13.355618308
2025-11-07 15:24:11.122472,-1280,2025-11-07 15:24:13.363310615
2025-11-07 15:24:11.122472,0,2025-11-07 15:24:13.371002923
2025-11-07 15:24:11.122472,225,2025-11-07 15:24:13.378695231
2025-11-07 15:24:11.122472,-12032,2025-11-07 15:24:13.386387538
2025-11-07 15:24:11.122472,0,2025-11-07 15:24:13.394079846
2025-11-07 15:24:11.122472,230,2025-11-07 15:24:13.401772154
2025-11-07 15:24:11.122472,-4864,2025-11-07 15:24:13.409464462
2025-11-07 15:24:11.122472,0,2025-11-07 15:24:13.417156769
2025-11-07 15:24:11.122472,220,2025-11-07 15:24:13.424849077
2025-11-07 15:24:11.122472,-6144,2025-11-07 15:24:13.432541385
2025-11-07 15:24:11.122472,0,2025-11-07 15:24:13.440233692
2025-11-07 15:24:11.122472,232,2025-11-07 15:24:13.447926000
2025-11-07 15:24:11.122472,-10240,2025-11-07 15:24:13.455618308
2025-11-07 15:24:11.122472,0,2025-11-07 15:24:13.463310615
2025-11-07 15:24:11.122472,223,2025-11-07 15:24:13.471002923
2025-11-07 15:24:11.122472,-2304,2025-11-07 15:24:13.478695231
2025-11-07 15:24:11.122472,0,2025-11-07 15:24:13.486387538
2025-11-07 15:24:11.122472,263,2025-11-07 15:24:13.494079846
2025-11-07 15:24:11.122472,-1792,2025-11-07 15:24:13.501772154
2025-11-07 15:24:11.122472,0,2025-11-07 15:24:13.509464462
2025-11-07 15:24:11.122472,220,2025-11-07 15:24:13.517156769
2025-11-07 15:24:11.122472,-4864,2025-11-07 15:24:13.524849077
2025-11-07 15:24:11.122472,0,2025-11-07 15:24:13.532541385
2025-11-07 15:24:11.122472,259,2025-11-07 15:24:13.540233692
2025-11-07 15:24:11.122472,-1280,2025-11-07 15:24:13.547926000
2025-11-07 15:24:11.122472,0,2025-11-07 15:24:13.555618308
2025-11-07 15:24:11.122472,251,2025-11-07 15:24:13.563310615
2025-11-07 15:24:11.122472,3072,2025-11-07 15:24:13.571002923
2025-11-07 15:24:11.122472,1,2025-11-07 15:24:13.578695231
2025-11-07 15:24:11.122472,285,2025-11-07 15:24:13.586387538
2025-11-07 15:24:11.122472,2560,2025-11-07 15:24:13.594079846
2025-11-07 15:24:11.122472,1,2025-11-07 15:24:13.601772154
2025-11-07 15:24:11.122472,235,2025-11-07 15:24:13.609464462
2025-11-07 15:24:11.662816,261,2025-11-07 15:24:13.617156769
2025-11-07 15:24:11.662816,14592,2025-11-07 15:24:13.624849077
2025-11-07 15:24:11.662816,1,2025-11-07 15:24:13.632541385
2025-11-07 15:24:11.662816,287,2025-11-07 15:24:13.640233692
2025-11-07 15:24:11.662816,-13312,2025-11-07 15:24:13.647926000
2025-11-07 15:24:11.662816,0,2025-11-07 15:24:13.655618308
2025-11-07 15:24:11.662816,204,2025-11-07 15:24:13.663310615
2025-11-07 15:24:11.662816,4352,2025-11-07 15:24:13.671002923
2025-11-07 15:24:11.662816,1,2025-11-07 15:24:13.678695231
2025-11-07 15:24:11.662816,285,2025-11-07 15:24:13.686387538
2025-11-07 15:24:11.662816,6656,2025-11-07 15:24:13.694079846
2025-11-07 15:24:11.662816,1,2025-11-07 15:24:13.701772154
2025-11-07 15:24:11.662816,306,2025-11-07 15:24:13.709464462
2025-11-07 15:24:11.662816,11008,2025-11-07 15:24:13.717156769
2025-11-07 15:24:11.662816,1,2025-11-07 15:24:13.724849077
2025-11-07 15:24:11.662816,251,2025-11-07 15:24:13.732541385
2025-11-07 15:24:11.662816,-14080,2025-11-07 15:24:13.740233692
2025-11-07 15:24:11.662816,0,2025-11-07 15:24:13.747926000
2025-11-07 15:24:11.662816,199,2025-11-07 15:24:13.755618308
2025-11-07 15:24:11.662816,-1280,2025-11-07 15:24:13.763310615
2025-11-07 15:24:11.662816,0,2025-11-07 15:24:13.771002923
2025-11-07 15:24:11.662816,273,2025-11-07 15:24:13.778695231
2025-11-07 15:24:11.662816,-9216,2025-11-07 15:24:13.786387538
2025-11-07 15:24:11.662816,0,2025-11-07 15:24:13.794079846
2025-11-07 15:24:11.662816,194,2025-11-07 15:24:13.801772154
2025-11-07 15:24:11.662816,-3072,2025-11-07 15:24:13.809464462
2025-11-07 15:24:11.662816,0,2025-11-07 15:24:13.817156769
2025-11-07 15:24:11.662816,273,2025-11-07 15:24:13.824849077
2025-11-07 15:24:11.662816,-11008,2025-11-07 15:24:13.832541385
2025-11-07 15:24:11.662816,0,2025-11-07 15:24:13.840233692
2025-11-07 15:24:11.662816,192,2025-11-07 15:24:13.847926000
2025-11-07 15:24:11.662816,1280,2025-11-07 15:24:13.855618308
2025-11-07 15:24:11.662816,1,2025-11-07 15:24:13.863310615
2025-11-07 15:24:11.662816,254,2025-11-07 15:24:13.871002923
2025-11-07 15:24:11.662816,768,2025-11-07 15:24:13.878695231
2025-11-07 15:24:11.662816,1,2025-11-07 15:24:13.886387538
2025-11-07 15:24:11.662816,420,2025-11-07 15:24:13.894079846
2025-11-07 15:24:11.662816,-18176,2025-11-07 15:24:13.901772154
2025-11-07 15:24:11.662816,1,2025-11-07 15:24:13.909464462
2025-11-07 15:24:11.662816,47,2025-11-07 15:24:13.917156769
2025-11-07 15:24:11.662816,14848,2025-11-07 15:24:13.924849077
2025-11-07 15:24:11.662816,-3,2025-11-07 15:24:13.932541385
2025-11-07 15:24:11.662816,-1195,2025-11-07 15:24:13.940233692
2025-11-07 15:24:11.662816,-2049,2025-11-07 15:24:13.947926000
2025-11-07 15:24:11.662816,-4,2025-11-07 15:24:13.955618308
2025-11-07 15:24:11.662816,-57,2025-11-07 15:24:13.963310615
2025-11-07 15:24:11.662816,-16129,2025-11-07 15:24:13.971002923
2025-11-07 15:24:11.662816,0,2025-11-07 15:24:13.978695231
2025-11-07 15:24:11.662816,278,2025-11-07 15:24:13.986387538
2025-11-07 15:24:11.662816,-17408,2025-11-07 15:24:13.994079846
2025-11-07 15:24:11.662816,1,2025-11-07 15:24:14.001772154
2025-11-07 15:24:11.662816,420,2025-11-07 15:24:14.009464462
2025-11-07 15:24:11.662816,17664,2025-11-07 15:24:14.017156769
2025-11-07 15:24:11.662816,1,2025-11-07 15:24:14.024849077
2025-11-07 15:24:11.662816,413,2025-11-07 15:24:14.032541385
2025-11-07 15:24:11.662816,-7680,2025-11-07 15:24:14.040233692
2025-11-07 15:24:11.662816,1,2025-11-07 15:24:14.047926000
2025-11-07 15:24:11.662816,449,2025-11-07 15:24:14.055618308
2025-11-07 15:24:11.662816,-8960,2025-11-07 15:24:14.063310615
2025-11-07 15:24:11.662816,1,2025-11-07 15:24:14.071002923
2025-11-07 15:24:11.662816,527,2025-11-07 15:24:14.078695231
2025-11-07 15:24:11.662816,-4608,2025-11-07 15:24:14.086387538
2025-11-07 15:24:11.662816,1,2025-11-07 15:24:14.094079846
2025-11-07 15:24:11.662816,472,2025-11-07 15:24:14.101772154
2025-11-07 15:24:11.662816,3328,2025-11-07 15:24:14.109464462
2025-11-07 15:24:11.662816,2,2025-11-07 15:24:14.117156769
2025-11-07 15:24:11.662816,501,2025-11-07 15:24:14.124849077
2025-11-07 15:24:11.662816,-17408,2025-11-07 15:24:14.132541385
2025-11-07 15:24:11.662816,1,2025-11-07 15:24:14.140233692
2025-11-07 15:24:11.662816,477,2025-11-07 15:24:14.147926000
2025-11-07 15:24:11.662816,-4608,2025-11-07 15:24:14.155618308
2025-11-07 15:24:11.662816,1,2025-11-07 15:24:14.163310615
2025-11-07 15:24:11.662816,463,2025-11-07 15:24:14.171002923
2025-11-07 15:24:11.662816,-6400,2025-11-07 15:24:14.178695231
2025-11-07 15:24:11.662816,1,2025-11-07 15:24:14.186387538
2025-11-07 15:24:11.662816,520,2025-11-07 15:24:14.194079846
2025-11-07 15:24:11.662816,-17408,2025-11-07 15:24:14.201772154
2025-11-07 15:24:11.662816,1,2025-11-07 15:24:14.209464462
2025-11-07 15:24:11.662816,382,2025-11-07 15:24:14.217156769
2025-11-07 15:24:11.662816,-13824,2025-11-07 15:24:14.224849077
2025-11-07 15:24:11.662816,1,2025-11-07 15:24:14.232541385
2025-11-07 15:24:11.662816,496,2025-11-07 15:24:14.240233692
2025-11-07 15:24:11.662816,-16896,2025-11-07 15:24:14.247926000
2025-11-07 15:24:11.662816,1,2025-11-07 15:24:14.255618308
2025-11-07 15:24:11.662816,434,2025-11-07 15:24:14.263310615
2025-11-07 15:24:11.662816,-13824,2025-11-07 15:24:14.271002923
2025-11-07 15:24:11.662816,1,2025-11-07 15:24:14.278695230
2025-11-07 15:24:11.662816,449,2025-11-07 15:24:14.286387538
2025-11-07 15:24:11.662816,-21760,2025-11-07 15:24:14.294079846
2025-11-07 15:24:11.662816,1,2025-11-07 15:24:14.301772154
2025-11-07 15:24:11.662816,422,2025-11-07 15:24:14.309464462
2025-11-07 15:24:11.662816,-25344,2025-11-07 15:24:14.317156769
2025-11-07 15:24:11.662816,1,2025-11-07 15:24:14.324849077
2025-11-07 15:24:11.662816,411,2025-11-07 15:24:14.332541385
2025-11-07 15:24:11.662816,-24832,2025-11-07 15:24:14.340233692
2025-11-07 15:24:11.662816,1,2025-11-07 15:24:14.347926000
2025-11-07 15:24:11.662816,411,2025-11-07 15:24:14.355618308
2025-11-07 15:24:11.662816,-27136,2025-11-07 15:24:14.363310615
2025-11-07 15:24:11.662816,1,2025-11-07 15:24:14.371002923
2025-11-07 15:24:11.662816,370,2025-11-07 15:24:14.378695231
2025-11-07 15:24:11.662816,17152,2025-11-07 15:24:14.386387538
2025-11-07 15:24:11.662816,1,2025-11-07 15:24:14.394079846
2025-11-07 15:24:11.662816,351,2025-11-07 15:24:14.401772154
2025-11-07 15:24:11.662816,29184,2025-11-07 15:24:14.409464462
2025-11-07 15:24:11.662816,1,2025-11-07 15:24:14.417156769
2025-11-07 15:24:11.662816,335,2025-11-07 15:24:14.424849077
2025-11-07 15:24:11.662816,19456,2025-11-07 15:24:14.432541385
2025-11-07 15:24:11.662816,1,2025-11-07 15:24:14.440233692
2025-11-07 15:24:11.662816,351,2025-11-07 15:24:14.447926000
2025-11-07 15:24:12.202466,346,2025-11-07 15:24:14.455618308
2025-11-07 15:24:12.202466,15872,2025-11-07 15:24:14.463310615
2025-11-07 15:24:12.202466,1,2025-11-07 15:24:14.471002923
2025-11-07 15:24:12.202466,306,2025-11-07 15:24:14.478695231
2025-11-07 15:24:12.202466,16384,2025-11-07 15:24:14.486387538
2025-11-07 15:24:12.202466,1,2025-11-07 15:24:14.494079846
2025-11-07 15:24:12.202466,306,2025-11-07 15:24:14.501772154
2025-11-07 15:24:12.202466,2560,2025-11-07 15:24:14.509464462
2025-11-07 15:24:12.202466,1,2025-11-07 15:24:14.517156769
2025-11-07 15:24:12.202466,278,2025-11-07 15:24:14.524849077
2025-11-07 15:24:12.202466,15872,2025-11-07 15:24:14.532541385
2025-11-07 15:24:12.202466,1,2025-11-07 15:24:14.540233692
2025-11-07 15:24:12.202466,311,2025-11-07 15:24:14.547926000
2025-11-07 15:24:12.202466,10496,2025-11-07 15:24:14.555618308
2025-11-07 15:24:12.202466,1,2025-11-07 15:24:14.563310615
2025-11-07 15:24:12.202466,318,2025-11-07 15:24:14.571002923
2025-11-07 15:24:12.202466,22016,2025-11-07 15:24:14.578695231
2025-11-07 15:24:12.202466,1,2025-11-07 15:24:14.586387538
2025-11-07 15:24:12.202466,375,2025-11-07 15:24:14.594079846
2025-11-07 15:24:12.202466,29184,2025-11-07 15:24:14.601772154
2025-11-07 15:24:12.202466,1,2025-11-07 15:24:14.609464462
2025-11-07 15:24:12.202466,275,2025-11-07 15:24:14.617156769
2025-11-07 15:24:12.202466,-7168,2025-11-07 15:24:14.624849077
2025-11-07 15:24:12.202466,0,2025-11-07 15:24:14.632541385
2025-11-07 15:24:12.202466,263,2025-11-07 15:24:14.640233692
2025-11-07 15:24:12.202466,2560,2025-11-07 15:24:14.647926000
2025-11-07 15:24:12.202466,1,2025-11-07 15:24:14.655618308
2025-11-07 15:24:12.202466,251,2025-11-07 15:24:14.663310615
2025-11-07 15:24:12.202466,-512,2025-11-07 15:24:14.671002923
2025-11-07 15:24:12.202466,0,2025-11-07 15:24:14.678695231
2025-11-07 15:24:12.202466,247,2025-11-07 15:24:14.686387538
2025-11-07 15:24:12.202466,-3584,2025-11-07 15:24:14.694079846
2025-11-07 15:24:12.202466,0,2025-11-07 15:24:14.701772154
2025-11-07 15:24:12.202466,235,2025-11-07 15:24:14.709464462
2025-11-07 15:24:12.202466,-11008,2025-11-07 15:24:14.717156769
2025-11-07 15:24:12.202466,0,2025-11-07 15:24:14.724849077
2025-11-07 15:24:12.202466,206,2025-11-07 15:24:14.732541385
2025-11-07 15:24:12.202466,-9728,2025-11-07 15:24:14.740233692
2025-11-07 15:24:12.202466,0,2025-11-07 15:24:14.747926000
2025-11-07 15:24:12.202466,199,2025-11-07 15:24:14.755618308
2025-11-07 15:24:12.202466,-20736,2025-11-07 15:24:14.763310615
2025-11-07 15:24:12.202466,0,2025-11-07 15:24:14.771002923
2025-11-07 15:24:12.202466,220,2025-11-07 15:24:14.778695231
2025-11-07 15:24:12.202466,14592,2025-11-07 15:24:14.786387538
2025-11-07 15:24:12.202466,1,2025-11-07 15:24:14.794079846
2025-11-07 15:24:12.202466,254,2025-11-07 15:24:14.801772154
2025-11-07 15:24:12.202466,7168,2025-11-07 15:24:14.809464462
2025-11-07 15:24:12.202466,-1,2025-11-07 15:24:14.817156769
2025-11-07 15:24:12.202466,-960,2025-11-07 15:24:14.824849077
2025-11-07 15:24:12.202466,-28161,2025-11-07 15:24:14.832541385
2025-11-07 15:24:12.202466,-5,2025-11-07 15:24:14.840233692
2025-11-07 15:24:12.202466,-575,2025-11-07 15:24:14.847926000
2025-11-07 15:24:12.202466,-31233,2025-11-07 15:24:14.855618308
2025-11-07 15:24:12.202466,-1,2025-11-07 15:24:14.863310615
2025-11-07 15:24:12.202466,-40,2025-11-07 15:24:14.871002923
2025-11-07 15:24:12.202466,11775,2025-11-07 15:24:14.878695231
2025-11-07 15:24:12.202466,0,2025-11-07 15:24:14.886387538
2025-11-07 15:24:12.202466,121,2025-11-07 15:24:14.894079846
2025-11-07 15:24:12.202466,29184,2025-11-07 15:24:14.901772154
2025-11-07 15:24:12.202466,0,2025-11-07 15:24:14.909464462
2025-11-07 15:24:12.202466,73,2025-11-07 15:24:14.917156769
2025-11-07 15:24:12.202466,-4864,2025-11-07 15:24:14.924849077
2025-11-07 15:24:12.202466,-1,2025-11-07 15:24:14.932541385
2025-11-07 15:24:12.202466,-42,2025-11-07 15:24:14.940233692
2025-11-07 15:24:12.202466,1279,2025-11-07 15:24:14.947926000
2025-11-07 15:24:12.202466,0,2025-11-07 15:24:14.955618308
2025-11-07 15:24:12.202466,-7,2025-11-07 15:24:14.963310615
2025-11-07 15:24:12.202466,-9473,2025-11-07 15:24:14.971002923
2025-11-07 15:24:12.202466,-1,2025-11-07 15:24:14.978695231
2025-11-07 15:24:12.202466,-23,2025-11-07 15:24:14.986387538
2025-11-07 15:24:12.202466,-5633,2025-11-07 15:24:14.994079846
2025-11-07 15:24:12.202466,-1,2025-11-07 15:24:15.001772154
2025-11-07 15:24:12.202466,-42,2025-11-07 15:24:15.009464462
2025-11-07 15:24:12.202466,-10497,2025-11-07 15:24:15.017156769
2025-11-07 15:24:12.202466,-1,2025-11-07 15:24:15.024849077
2025-11-07 15:24:12.202466,-42,2025-11-07 15:24:15.032541385
2025-11-07 15:24:12.202466,-13057,2025-11-07 15:24:15.040233692
2025-11-07 15:24:12.202466,-1,2025-11-07 15:24:15.047926000
2025-11-07 15:24:12.202466,-54,2025-11-07 15:24:15.055618308
2025-11-07 15:24:12.202466,-13569,2025-11-07 15:24:15.063310615
2025-11-07 15:24:12.202466,-1,2025-11-07 15:24:15.071002923
2025-11-07 15:24:12.202466,-49,2025-11-07 15:24:15.078695231
2025-11-07 15:24:12.202466,-13057,2025-11-07 15:24:15.086387538
2025-11-07 15:24:12.202466,-1,2025-11-07 15:24:15.094079846
2025-11-07 15:24:12.202466,-57,2025-11-07 15:24:15.101772154
2025-11-07 15:24:12.202466,-14337,2025-11-07 15:24:15.109464462
2025-11-07 15:24:12.202466,-1,2025-11-07 15:24:15.117156769
2025-11-07 15:24:12.202466,-54,2025-11-07 15:24:15.124849077
2025-11-07 15:24:12.202466,-12289,2025-11-07 15:24:15.132541385
2025-11-07 15:24:12.202466,-1,2025-11-07 15:24:15.140233692
2025-11-07 15:24:12.202466,-45,2025-11-07 15:24:15.147926000
2025-11-07 15:24:12.202466,-9985,2025-11-07 15:24:15.155618308
2025-11-07 15:24:12.202466,-1,2025-11-07 15:24:15.163310615
2025-11-07 15:24:12.202466,-38,2025-11-07 15:24:15.171002923
2025-11-07 15:24:12.202466,-12289,2025-11-07 15:24:15.178695231
2025-11-07 15:24:12.202466,-1,2025-11-07 15:24:15.186387538
2025-11-07 15:24:12.202466,-59,2025-11-07 15:24:15.194079846
2025-11-07 15:24:12.202466,-15361,2025-11-07 15:24:15.201772154
2025-11-07 15:24:12.202466,-1,2025-11-07 15:24:15.209464462
2025-11-07 15:24:12.202466,-64,2025-11-07 15:24:15.217156769
2025-11-07 15:24:12.202466,-13569,2025-11-07 15:24:15.224849077
2025-11-07 15:24:12.202466,-1,2025-11-07 15:24:15.232541385
2025-11-07 15:24:12.202466,-45,2025-11-07 15:24:15.240233692
2025-11-07 15:24:12.202466,-13057,2025-11-07 15:24:15.247926000
2025-11-07 15:24:12.202466,-1,2025-11-07 15:24:15.255618308
2025-11-07 15:24:12.202466,-52,2025-11-07 15:24:15.263310615
2025-11-07 15:24:12.202466,-10497,2025-11-07 15:24:15.271002923
2025-11-07 15:24:12.202466,-1,2025-11-07 15:24:15.278695230
2025-11-07 15:24:12.202466,-59,2025-11-07 15:24:15.286387538
2025-11-07 15:24:12.743039,-73,2025-11-07 15:24:15.294079846
2025-11-07 15:24:12.743039,-16129,2025-11-07 15:24:15.301772154
2025-11-07 15:24:12.743039,-1,2025-11-07 15:24:15.309464462
2025-11-07 15:24:12.743039,-64,2025-11-07 15:24:15.317156769
2025-11-07 15:24:12.743039,-20225,2025-11-07 15:24:15.324849077
2025-11-07 15:24:12.743039,-1,2025-11-07 15:24:15.332541385
2025-11-07 15:24:12.743039,-83,2025-11-07 15:24:15.340233692
2025-11-07 15:24:12.743039,-20225,2025-11-07 15:24:15.347926000
2025-11-07 15:24:12.743039,-1,2025-11-07 15:24:15.355618308
2025-11-07 15:24:12.743039,-83,2025-11-07 15:24:15.363310615
2025-11-07 15:24:12.743039,-19201,2025-11-07 15:24:15.371002923
2025-11-07 15:24:12.743039,-1,2025-11-07 15:24:15.378695231
2025-11-07 15:24:12.743039,-64,2025-11-07 15:24:15.386387538
2025-11-07 15:24:12.743039,-14337,2025-11-07 15:24:15.394079846
2025-11-07 15:24:12.743039,-1,2025-11-07 15:24:15.401772154
2025-11-07 15:24:12.743039,-59,2025-11-07 15:24:15.409464462
2025-11-07 15:24:12.743039,-16129,2025-11-07 15:24:15.417156769
2025-11-07 15:24:12.743039,-1,2025-11-07 15:24:15.424849077
2025-11-07 15:24:12.743039,-52,2025-11-07 15:24:15.432541385
2025-11-07 15:24:12.743039,-11777,2025-11-07 15:24:15.440233692
2025-11-07 15:24:12.743039,-1,2025-11-07 15:24:15.447926000
2025-11-07 15:24:12.743039,-66,2025-11-07 15:24:15.455618308
2025-11-07 15:24:12.743039,-16129,2025-11-07 15:24:15.463310615
2025-11-07 15:24:12.743039,-1,2025-11-07 15:24:15.471002923
2025-11-07 15:24:12.743039,-38,2025-11-07 15:24:15.478695231
2025-11-07 15:24:12.743039,-6913,2025-11-07 15:24:15.486387538
2025-11-07 15:24:12.743039,-1,2025-11-07 15:24:15.494079846
2025-11-07 15:24:12.743039,-33,2025-11-07 15:24:15.501772154
2025-11-07 15:24:12.743039,-14337,2025-11-07 15:24:15.509464462
2025-11-07 15:24:12.743039,-1,2025-11-07 15:24:15.517156769
2025-11-07 15:24:12.743039,-97,2025-11-07 15:24:15.524849077
2025-11-07 15:24:12.743039,-28929,2025-11-07 15:24:15.532541385
2025-11-07 15:24:12.743039,-1,2025-11-07 15:24:15.540233692
2025-11-07 15:24:12.743039,-95,2025-11-07 15:24:15.547926000
2025-11-07 15:24:12.743039,-21505,2025-11-07 15:24:15.555618308
2025-11-07 15:24:12.743039,-1,2025-11-07 15:24:15.563310615
2025-11-07 15:24:12.743039,-92,2025-11-07 15:24:15.571002923
2025-11-07 15:24:12.743039,-21505,2025-11-07 15:24:15.578695231
2025-11-07 15:24:12.743039,-1,2025-11-07 15:24:15.586387538
2025-11-07 15:24:12.743039,-95,2025-11-07 15:24:15.594079846
2025-11-07 15:24:12.743039,-25857,2025-11-07 15:24:15.601772154
2025-11-07 15:24:12.743039,-1,2025-11-07 15:24:15.609464462
2025-11-07 15:24:12.743039,-76,2025-11-07 15:24:15.617156769
2025-11-07 15:24:12.743039,-21505,2025-11-07 15:24:15.624849077
2025-11-07 15:24:12.743039,-1,2025-11-07 15:24:15.632541385
2025-11-07 15:24:12.743039,-121,2025-11-07 15:24:15.640233692
2025-11-07 15:24:12.743039,-25089,2025-11-07 15:24:15.647926000
2025-11-07 15:24:12.743039,-1,2025-11-07 15:24:15.655618308
2025-11-07 15:24:12.743039,-38,2025-11-07 15:24:15.663310615
2025-11-07 15:24:12.743039,11007,2025-11-07 15:24:15.671002923
2025-11-07 15:24:12.743039,0,2025-11-07 15:24:15.678695231
2025-11-07 15:24:12.743039,78,2025-11-07 15:24:15.686387538
2025-11-07 15:24:12.743039,11008,2025-11-07 15:24:15.694079846
2025-11-07 15:24:12.743039,-1,2025-11-07 15:24:15.701772154
2025-11-07 15:24:12.743039,-943,2025-11-07 15:24:15.709464462
2025-11-07 15:24:12.743039,22015,2025-11-07 15:24:15.717156769
2025-11-07 15:24:12.743039,-6,2025-11-07 15:24:15.724849077
2025-11-07 15:24:12.743039,-1083,2025-11-07 15:24:15.732541385
2025-11-07 15:24:12.743039,30463,2025-11-07 15:24:15.740233692
2025-11-07 15:24:12.743039,-2,2025-11-07 15:24:15.747926000
2025-11-07 15:24:12.743039,-137,2025-11-07 15:24:15.755618308
2025-11-07 15:24:12.743039,-17921,2025-11-07 15:24:15.763310615
2025-11-07 15:24:12.743039,-1,2025-11-07 15:24:15.771002923
2025-11-07 15:24:12.743039,66,2025-11-07 15:24:15.778695231
2025-11-07 15:24:12.743039,23552,2025-11-07 15:24:15.786387538
2025-11-07 15:24:12.743039,0,2025-11-07 15:24:15.794079846
2025-11-07 15:24:12.743039,7,2025-11-07 15:24:15.801772154
2025-11-07 15:24:12.743039,-3584,2025-11-07 15:24:15.809464462
2025-11-07 15:24:12.743039,-1,2025-11-07 15:24:15.817156769
2025-11-07 15:24:12.743039,21,2025-11-07 15:24:15.824849077
2025-11-07 15:24:12.743039,5888,2025-11-07 15:24:15.832541385
2025-11-07 15:24:12.743039,0,2025-11-07 15:24:15.840233692
2025-11-07 15:24:12.743039,7,2025-11-07 15:24:15.847926000
2025-11-07 15:24:12.743039,-4096,2025-11-07 15:24:15.855618308
2025-11-07 15:24:12.743039,-1,2025-11-07 15:24:15.863310615
2025-11-07 15:24:12.743039,-45,2025-11-07 15:24:15.871002923
2025-11-07 15:24:12.743039,-11265,2025-11-07 15:24:15.878695231
2025-11-07 15:24:12.743039,-1,2025-11-07 15:24:15.886387538
2025-11-07 15:24:12.743039,-54,2025-11-07 15:24:15.894079846
2025-11-07 15:24:12.743039,-19201,2025-11-07 15:24:15.901772154
2025-11-07 15:24:12.743039,-1,2025-11-07 15:24:15.909464462
2025-11-07 15:24:12.743039,-78,2025-11-07 15:24:15.917156769
2025-11-07 15:24:12.743039,-20225,2025-11-07 15:24:15.924849077
2025-11-07 15:24:12.743039,-1,2025-11-07 15:24:15.932541385
2025-11-07 15:24:12.743039,-90,2025-11-07 15:24:15.940233692
2025-11-07 15:24:12.743039,-22017,2025-11-07 15:24:15.947926000
2025-11-07 15:24:12.743039,-1,2025-11-07 15:24:15.955618308
2025-11-07 15:24:12.743039,-87,2025-11-07 15:24:15.963310615
2025-11-07 15:24:12.743039,-22785,2025-11-07 15:24:15.971002923
2025-11-07 15:24:12.743039,-1,2025-11-07 15:24:15.978695231
2025-11-07 15:24:12.743039,-95,2025-11-07 15:24:15.986387538
2025-11-07 15:24:12.743039,-22017,2025-11-07 15:24:15.994079846
2025-11-07 15:24:12.743039,-1,2025-11-07 15:24:16.001772154
2025-11-07 15:24:12.743039,-73,2025-11-07 15:24:16.009464462
2025-11-07 15:24:12.743039,-19713,2025-11-07 15:24:16.017156769
2025-11-07 15:24:12.743039,-1,2025-11-07 15:24:16.024849077
2025-11-07 15:24:12.743039,-95,2025-11-07 15:24:16.032541385
2025-11-07 15:24:12.743039,-29953,2025-11-07 15:24:16.040233692
2025-11-07 15:24:12.743039,-1,2025-11-07 15:24:16.047926000
2025-11-07 15:24:12.743039,-125,2025-11-07 15:24:16.055618308
2025-11-07 15:24:12.743039,-28161,2025-11-07 15:24:16.063310615
2025-11-07 15:24:12.743039,-1,2025-11-07 15:24:16.071002923
2025-11-07 15:24:12.743039,-118,2025-11-07 15:24:16.078695231
2025-11-07 15:24:12.743039,32511,2025-11-07 15:24:16.086387538
2025-11-07 15:24:12.743039,-1,2025-11-07 15:24:16.094079846
2025-11-07 15:24:12.743039,-125,2025-11-07 15:24:16.101772154
2025-11-07 15:24:12.743039,-31233,2025-11-07 15:24:16.109464462
2025-11-07 15:24:12.743039,-1,2025-11-07 15:24:16.117156769
2025-11-07 15:24:12.743039,-121,2025-11-07 15:24:16.124849077
2025-11-07 15:24:13.327469,-125,2025-11-07 15:24:16.132541385
2025-11-07 15:24:13.327469,-31745,2025-11-07 15:24:16.140233692
2025-11-07 15:24:13.327469,-1,2025-11-07 15:24:16.147926000
2025-11-07 15:24:13.327469,-118,2025-11-07 15:24:16.155618308
2025-11-07 15:24:13.327469,-31745,2025-11-07 15:24:16.163310615
2025-11-07 15:24:13.327469,-1,2025-11-07 15:24:16.171002923
2025-11-07 15:24:13.327469,-121,2025-11-07 15:24:16.178695231
2025-11-07 15:24:13.327469,-25857,2025-11-07 15:24:16.186387538
2025-11-07 15:24:13.327469,-1,2025-11-07 15:24:16.194079846
2025-11-07 15:24:13.327469,-106,2025-11-07 15:24:16.201772154
2025-11-07 15:24:13.327469,-29953,2025-11-07 15:24:16.209464462
2025-11-07 15:24:13.327469,-1,2025-11-07 15:24:16.217156769
2025-11-07 15:24:13.327469,-111,2025-11-07 15:24:16.224849077
2025-11-07 15:24:13.327469,-27649,2025-11-07 15:24:16.232541385
2025-11-07 15:24:13.327469,-1,2025-11-07 15:24:16.240233692
2025-11-07 15:24:13.327469,-116,2025-11-07 15:24:16.247926000
2025-11-07 15:24:13.327469,-27649,2025-11-07 15:24:16.255618308
2025-11-07 15:24:13.327469,-1,2025-11-07 15:24:16.263310615
2025-11-07 15:24:13.327469,-99,2025-11-07 15:24:16.271002923
2025-11-07 15:24:13.327469,-28161,2025-11-07 15:24:16.278695230
2025-11-07 15:24:13.327469,-1,2025-11-07 15:24:16.286387538
2025-11-07 15:24:13.327469,-116,2025-11-07 15:24:16.294079846
2025-11-07 15:24:13.327469,-25857,2025-11-07 15:24:16.301772154
2025-11-07 15:24:13.327469,-1,2025-11-07 15:24:16.309464462
2025-11-07 15:24:13.327469,-104,2025-11-07 15:24:16.317156769
2025-11-07 15:24:13.327469,-29953,2025-11-07 15:24:16.324849077
2025-11-07 15:24:13.327469,-1,2025-11-07 15:24:16.332541385
2025-11-07 15:24:13.327469,-116,2025-11-07 15:24:16.340233692
2025-11-07 15:24:13.327469,-28161,2025-11-07 15:24:16.347926000
2025-11-07 15:24:13.327469,-1,2025-11-07 15:24:16.355618308
2025-11-07 15:24:13.327469,-114,2025-11-07 15:24:16.363310615
2025-11-07 15:24:13.327469,-28929,2025-11-07 15:24:16.371002923
2025-11-07 15:24:13.327469,-1,2025-11-07 15:24:16.378695231
2025-11-07 15:24:13.327469,-99,2025-11-07 15:24:16.386387538
2025-11-07 15:24:13.327469,-22017,2025-11-07 15:24:16.394079846
2025-11-07 15:24:13.327469,-1,2025-11-07 15:24:16.401772154
2025-11-07 15:24:13.327469,-97,2025-11-07 15:24:16.409464462
2025-11-07 15:24:13.327469,-32513,2025-11-07 15:24:16.417156769
2025-11-07 15:24:13.327469,-1,2025-11-07 15:24:16.424849077
2025-11-07 15:24:13.327469,-166,2025-11-07 15:24:16.432541385
2025-11-07 15:24:13.327469,19711,2025-11-07 15:24:16.440233692
2025-11-07 15:24:13.327469,-1,2025-11-07 15:24:16.447926000
2025-11-07 15:24:13.327469,-168,2025-11-07 15:24:16.455618308
2025-11-07 15:24:13.327469,24063,2025-11-07 15:24:16.463310615
2025-11-07 15:24:13.327469,-1,2025-11-07 15:24:16.471002923
2025-11-07 15:24:13.327469,-168,2025-11-07 15:24:16.478695231
2025-11-07 15:24:13.327469,23295,2025-11-07 15:24:16.486387538
2025-11-07 15:24:13.327469,-1,2025-11-07 15:24:16.494079846
2025-11-07 15:24:13.327469,-166,2025-11-07 15:24:16.501772154
2025-11-07 15:24:13.327469,20991,2025-11-07 15:24:16.509464462
2025-11-07 15:24:13.327469,-1,2025-11-07 15:24:16.517156769
2025-11-07 15:24:13.327469,-199,2025-11-07 15:24:16.524849077
2025-11-07 15:24:13.327469,8191,2025-11-07 15:24:16.532541385
2025-11-07 15:24:13.327469,-1,2025-11-07 15:24:16.540233692
2025-11-07 15:24:13.327469,-235,2025-11-07 15:24:16.547926000
2025-11-07 15:24:13.327469,6399,2025-11-07 15:24:16.555618308
2025-11-07 15:24:13.327469,-1,2025-11-07 15:24:16.563310615
2025-11-07 15:24:13.327469,-201,2025-11-07 15:24:16.571002923
2025-11-07 15:24:13.327469,-30721,2025-11-07 15:24:16.578695231
2025-11-07 15:24:13.327469,-1,2025-11-07 15:24:16.586387538
2025-11-07 15:24:13.327469,-111,2025-11-07 15:24:16.594079846
2025-11-07 15:24:13.327469,7935,2025-11-07 15:24:16.601772154
2025-11-07 15:24:13.327469,-2,2025-11-07 15:24:16.609464462
2025-11-07 15:24:13.327469,-1249,2025-11-07 15:24:16.617156769
2025-11-07 15:24:13.327469,19967,2025-11-07 15:24:16.624849077
2025-11-07 15:24:13.327469,-7,2025-11-07 15:24:16.632541385
2025-11-07 15:24:13.327469,-1302,2025-11-07 15:24:16.640233692
2025-11-07 15:24:13.327469,-21761,2025-11-07 15:24:16.647926000
2025-11-07 15:24:13.327469,-3,2025-11-07 15:24:16.655618308
2025-11-07 15:24:13.327469,-342,2025-11-07 15:24:16.663310615
2025-11-07 15:24:13.327469,-11265,2025-11-07 15:24:16.671002923
2025-11-07 15:24:13.327469,-2,2025-11-07 15:24:16.678695231
2025-11-07 15:24:13.327469,-201,2025-11-07 15:24:16.686387538
2025-11-07 15:24:13.327469,17919,2025-11-07 15:24:16.694079846
2025-11-07 15:24:13.327469,-1,2025-11-07 15:24:16.701772154
2025-11-07 15:24:13.327469,-251,2025-11-07 15:24:16.709464462
2025-11-07 15:24:13.327469,-1025,2025-11-07 15:24:16.717156769
2025-11-07 15:24:13.327469,-2,2025-11-07 15:24:16.724849077
2025-11-07 15:24:13.327469,-249,2025-11-07 15:24:16.732541385
2025-11-07 15:24:13.327469,-2817,2025-11-07 15:24:16.740233692
2025-11-07 15:24:13.327469,-2,2025-11-07 15:24:16.747926000
2025-11-07 15:24:13.327469,-299,2025-11-07 15:24:16.755618308
2025-11-07 15:24:13.327469,-15105,2025-11-07 15:24:16.763310615
2025-11-07 15:24:13.327469,-2,2025-11-07 15:24:16.771002923
2025-11-07 15:24:13.327469,-323,2025-11-07 15:24:16.778695231
2025-11-07 15:24:13.327469,-19969,2025-11-07 15:24:16.786387538
2025-11-07 15:24:13.327469,-2,2025-11-07 15:24:16.794079846
2025-11-07 15:24:13.327469,-349,2025-11-07 15:24:16.801772154
2025-11-07 15:24:13.327469,-25345,2025-11-07 15:24:16.809464462
2025-11-07 15:24:13.327469,-2,2025-11-07 15:24:16.817156769
2025-11-07 15:24:13.327469,-365,2025-11-07 15:24:16.824849077
2025-11-07 15:24:13.327469,31743,2025-11-07 15:24:16.832541385
2025-11-07 15:24:13.327469,-2,2025-11-07 15:24:16.840233692
2025-11-07 15:24:13.327469,-401,2025-11-07 15:24:16.847926000
2025-11-07 15:24:13.327469,29951,2025-11-07 15:24:16.855618308
2025-11-07 15:24:13.327469,-2,2025-11-07 15:24:16.863310615
2025-11-07 15:24:13.327469,-399,2025-11-07 15:24:16.871002923
2025-11-07 15:24:13.327469,28159,2025-11-07 15:24:16.878695231
2025-11-07 15:24:13.327469,-2,2025-11-07 15:24:16.886387538
2025-11-07 15:24:13.327469,-408,2025-11-07 15:24:16.894079846
2025-11-07 15:24:13.327469,26111,2025-11-07 15:24:16.901772154
2025-11-07 15:24:13.327469,-2,2025-11-07 15:24:16.909464462
2025-11-07 15:24:13.327469,-411,2025-11-07 15:24:16.917156769
2025-11-07 15:24:13.327469,25087,2025-11-07 15:24:16.924849077
2025-11-07 15:24:13.327469,-2,2025-11-07 15:24:16.932541385
2025-11-07 15:24:13.327469,-441,2025-11-07 15:24:16.940233692
2025-11-07 15:24:13.327469,13311,2025-11-07 15:24:16.947926000
2025-11-07 15:24:13.327469,-2,2025-11-07 15:24:16.955618308
2025-11-07 15:24:13.327469,-456,2025-11-07 15:24:16.963310615
2025-11-07 15:24:13.867844,-463,2025-11-07 15:24:16.971002923
2025-11-07 15:24:13.867844,8447,2025-11-07 15:24:16.978695231
2025-11-07 15:24:13.867844,-2,2025-11-07 15:24:16.986387538
2025-11-07 15:24:13.867844,-477,2025-11-07 15:24:16.994079846
2025-11-07 15:24:13.867844,9727,2025-11-07 15:24:17.001772154
2025-11-07 15:24:13.867844,-2,2025-11-07 15:24:17.009464462
2025-11-07 15:24:13.867844,-475,2025-11-07 15:24:17.017156769
2025-11-07 15:24:13.867844,11519,2025-11-07 15:24:17.024849077
2025-11-07 15:24:13.867844,-2,2025-11-07 15:24:17.032541385
2025-11-07 15:24:13.867844,-472,2025-11-07 15:24:17.040233692
2025-11-07 15:24:13.867844,7935,2025-11-07 15:24:17.047926000
2025-11-07 15:24:13.867844,-2,2025-11-07 15:24:17.055618308
2025-11-07 15:24:13.867844,-470,2025-11-07 15:24:17.063310615
2025-11-07 15:24:13.867844,15871,2025-11-07 15:24:17.071002923
2025-11-07 15:24:13.867844,-2,2025-11-07 15:24:17.078695231
2025-11-07 15:24:13.867844,-453,2025-11-07 15:24:17.086387538
2025-11-07 15:24:13.867844,13311,2025-11-07 15:24:17.094079846
2025-11-07 15:24:13.867844,-2,2025-11-07 15:24:17.101772154
2025-11-07 15:24:13.867844,-456,2025-11-07 15:24:17.109464462
2025-11-07 15:24:13.867844,15871,2025-11-07 15:24:17.117156769
2025-11-07 15:24:13.867844,-2,2025-11-07 15:24:17.124849077
2025-11-07 15:24:13.867844,-451,2025-11-07 15:24:17.132541385
2025-11-07 15:24:13.867844,16383,2025-11-07 15:24:17.140233692
2025-11-07 15:24:13.867844,-2,2025-11-07 15:24:17.147926000
2025-11-07 15:24:13.867844,-456,2025-11-07 15:24:17.155618308
2025-11-07 15:24:13.867844,14079,2025-11-07 15:24:17.163310615
2025-11-07 15:24:13.867844,-2,2025-11-07 15:24:17.171002923
2025-11-07 15:24:13.867844,-441,2025-11-07 15:24:17.178695231
2025-11-07 15:24:13.867844,18943,2025-11-07 15:24:17.186387538
2025-11-07 15:24:13.867844,-2,2025-11-07 15:24:17.194079846
2025-11-07 15:24:13.867844,-451,2025-11-07 15:24:17.201772154
2025-11-07 15:24:13.867844,17151,2025-11-07 15:24:17.209464462
2025-11-07 15:24:13.867844,-2,2025-11-07 15:24:17.217156769
2025-11-07 15:24:13.867844,-439,2025-11-07 15:24:17.224849077
2025-11-07 15:24:13.867844,12799,2025-11-07 15:24:17.232541385
2025-11-07 15:24:13.867844,-2,2025-11-07 15:24:17.240233692
2025-11-07 15:24:13.867844,-484,2025-11-07 15:24:17.247926000
2025-11-07 15:24:13.867844,10495,2025-11-07 15:24:17.255618308
2025-11-07 15:24:13.867844,-2,2025-11-07 15:24:17.263310615
2025-11-07 15:24:13.867844,-461,2025-11-07 15:24:17.271002923
2025-11-07 15:24:13.867844,14079,2025-11-07 15:24:17.278695230
2025-11-07 15:24:13.867844,-2,2025-11-07 15:24:17.286387538
2025-11-07 15:24:13.867844,-461,2025-11-07 15:24:17.294079846
2025-11-07 15:24:13.867844,11007,2025-11-07 15:24:17.301772154
2025-11-07 15:24:13.867844,-2,2025-11-07 15:24:17.309464462
2025-11-07 15:24:13.867844,-487,2025-11-07 15:24:17.317156769
2025-11-07 15:24:13.867844,-513,2025-11-07 15:24:17.324849077
2025-11-07 15:24:13.867844,-3,2025-11-07 15:24:17.332541385
2025-11-07 15:24:13.867844,-551,2025-11-07 15:24:17.340233692
2025-11-07 15:24:13.867844,-17665,2025-11-07 15:24:17.347926000
2025-11-07 15:24:13.867844,-3,2025-11-07 15:24:17.355618308
2025-11-07 15:24:13.867844,-582,2025-11-07 15:24:17.363310615
2025-11-07 15:24:13.867844,-13313,2025-11-07 15:24:17.371002923
2025-11-07 15:24:13.867844,-3,2025-11-07 15:24:17.378695231
2025-11-07 15:24:13.867844,-572,2025-11-07 15:24:17.386387538
2025-11-07 15:24:13.867844,-16897,2025-11-07 15:24:17.394079846
2025-11-07 15:24:13.867844,-3,2025-11-07 15:24:17.401772154
2025-11-07 15:24:13.867844,-577,2025-11-07 15:24:17.409464462
2025-11-07 15:24:13.867844,-18689,2025-11-07 15:24:17.417156769
2025-11-07 15:24:13.867844,-3,2025-11-07 15:24:17.424849077
2025-11-07 15:24:13.867844,-596,2025-11-07 15:24:17.432541385
2025-11-07 15:24:13.867844,-19457,2025-11-07 15:24:17.440233692
2025-11-07 15:24:13.867844,-3,2025-11-07 15:24:17.447926000
2025-11-07 15:24:13.867844,-589,2025-11-07 15:24:17.455618308
2025-11-07 15:24:13.867844,-18689,2025-11-07 15:24:17.463310615
2025-11-07 15:24:13.867844,-3,2025-11-07 15:24:17.471002923
2025-11-07 15:24:13.867844,-522,2025-11-07 15:24:17.478695231
2025-11-07 15:24:13.867844,23807,2025-11-07 15:24:17.486387538
2025-11-07 15:24:13.867844,-2,2025-11-07 15:24:17.494079846
2025-11-07 15:24:13.867844,-506,2025-11-07 15:24:17.501772154
2025-11-07 15:24:13.867844,-2049,2025-11-07 15:24:17.509464462
2025-11-07 15:24:13.867844,-5,2025-11-07 15:24:17.517156769
2025-11-07 15:24:13.867844,-1741,2025-11-07 15:24:17.524849077
2025-11-07 15:24:13.867844,-11777,2025-11-07 15:24:17.532541385
2025-11-07 15:24:13.867844,-8,2025-11-07 15:24:17.540233692
2025-11-07 15:24:13.867844,-1214,2025-11-07 15:24:17.547926000
2025-11-07 15:24:13.867844,12031,2025-11-07 15:24:17.555618308
2025-11-07 15:24:13.867844,-3,2025-11-07 15:24:17.563310615
2025-11-07 15:24:13.867844,-634,2025-11-07 15:24:17.571002923
2025-11-07 15:24:13.867844,-7937,2025-11-07 15:24:17.578695231
2025-11-07 15:24:13.867844,-3,2025-11-07 15:24:17.586387538
2025-11-07 15:24:13.867844,-441,2025-11-07 15:24:17.594079846
2025-11-07 15:24:13.867844,13311,2025-11-07 15:24:17.601772154
2025-11-07 15:24:13.867844,-2,2025-11-07 15:24:17.609464462
2025-11-07 15:24:13.867844,-480,2025-11-07 15:24:17.617156769
2025-11-07 15:24:13.867844,10495,2025-11-07 15:24:17.624849077
2025-11-07 15:24:13.867844,-2,2025-11-07 15:24:17.632541385
2025-11-07 15:24:13.867844,-491,2025-11-07 15:24:17.640233692
2025-11-07 15:24:13.867844,1279,2025-11-07 15:24:17.647926000
2025-11-07 15:24:13.867844,-2,2025-11-07 15:24:17.655618308
2025-11-07 15:24:13.867844,-510,2025-11-07 15:24:17.663310615
2025-11-07 15:24:13.867844,-3585,2025-11-07 15:24:17.671002923
2025-11-07 15:24:13.867844,-3,2025-11-07 15:24:17.678695231
2025-11-07 15:24:13.867844,-541,2025-11-07 15:24:17.686387538
2025-11-07 15:24:13.867844,-7937,2025-11-07 15:24:17.694079846
2025-11-07 15:24:13.867844,-3,2025-11-07 15:24:17.701772154
2025-11-07 15:24:13.867844,-546,2025-11-07 15:24:17.709464462
2025-11-07 15:24:13.867844,-11521,2025-11-07 15:24:17.717156769
2025-11-07 15:24:13.867844,-3,2025-11-07 15:24:17.724849077
2025-11-07 15:24:13.867844,-575,2025-11-07 15:24:17.732541385
2025-11-07 15:24:13.867844,-16897,2025-11-07 15:24:17.740233692
2025-11-07 15:24:13.867844,-3,2025-11-07 15:24:17.747926000
2025-11-07 15:24:13.867844,-582,2025-11-07 15:24:17.755618308
2025-11-07 15:24:13.867844,-18689,2025-11-07 15:24:17.763310615
2025-11-07 15:24:13.867844,-3,2025-11-07 15:24:17.771002923
2025-11-07 15:24:13.867844,-591,2025-11-07 15:24:17.778695231
2025-11-07 15:24:13.867844,-23041,2025-11-07 15:24:17.786387538
2025-11-07 15:24:13.867844,-3,2025-11-07 15:24:17.794079846
2025-11-07 15:24:13.867844,-601,2025-11-07 15:24:17.801772154
2025-11-07 15:24:14.452408,-596,2025-11-07 15:24:17.809464462
2025-11-07 15:24:14.452408,-23553,2025-11-07 15:24:17.817156769
2025-11-07 15:24:14.452408,-3,2025-11-07 15:24:17.824849077
2025-11-07 15:24:14.452408,-620,2025-11-07 15:24:17.832541385
2025-11-07 15:24:14.452408,-28417,2025-11-07 15:24:17.840233692
2025-11-07 15:24:14.452408,-3,2025-11-07 15:24:17.847926000
2025-11-07 15:24:14.452408,-615,2025-11-07 15:24:17.855618308
2025-11-07 15:24:14.452408,-25601,2025-11-07 15:24:17.863310615
2025-11-07 15:24:14.452408,-3,2025-11-07 15:24:17.871002923
2025-11-07 15:24:14.452408,-613,2025-11-07 15:24:17.878695231
2025-11-07 15:24:14.452408,-24833,2025-11-07 15:24:17.886387538
2025-11-07 15:24:14.452408,-3,2025-11-07 15:24:17.894079846
2025-11-07 15:24:14.452408,-613,2025-11-07 15:24:17.901772154
2025-11-07 15:24:14.452408,-24321,2025-11-07 15:24:17.909464462
2025-11-07 15:24:14.452408,-3,2025-11-07 15:24:17.917156769
2025-11-07 15:24:14.452408,-627,2025-11-07 15:24:17.924849077
2025-11-07 15:24:14.452408,29695,2025-11-07 15:24:17.932541385
2025-11-07 15:24:14.452408,-3,2025-11-07 15:24:17.940233692
2025-11-07 15:24:14.452408,-632,2025-11-07 15:24:17.947926000
2025-11-07 15:24:14.452408,-25601,2025-11-07 15:24:17.955618308
2025-11-07 15:24:14.452408,-3,2025-11-07 15:24:17.963310615
2025-11-07 15:24:14.452408,-632,2025-11-07 15:24:17.971002923
2025-11-07 15:24:14.452408,-32257,2025-11-07 15:24:17.978695231
2025-11-07 15:24:14.452408,-3,2025-11-07 15:24:17.986387538
2025-11-07 15:24:14.452408,-629,2025-11-07 15:24:17.994079846
2025-11-07 15:24:14.452408,-29697,2025-11-07 15:24:18.001772154
2025-11-07 15:24:14.452408,-3,2025-11-07 15:24:18.009464462
2025-11-07 15:24:14.452408,-627,2025-11-07 15:24:18.017156769
2025-11-07 15:24:14.452408,-26625,2025-11-07 15:24:18.024849077
2025-11-07 15:24:14.452408,-3,2025-11-07 15:24:18.032541385
2025-11-07 15:24:14.452408,-624,2025-11-07 15:24:18.040233692
2025-11-07 15:24:14.452408,-29697,2025-11-07 15:24:18.047926000
2025-11-07 15:24:14.452408,-3,2025-11-07 15:24:18.055618308
2025-11-07 15:24:14.452408,-627,2025-11-07 15:24:18.063310615
2025-11-07 15:24:14.452408,-27905,2025-11-07 15:24:18.071002923
2025-11-07 15:24:14.452408,-3,2025-11-07 15:24:18.078695231
2025-11-07 15:24:14.452408,-613,2025-11-07 15:24:18.086387538
2025-11-07 15:24:14.452408,-24833,2025-11-07 15:24:18.094079846
2025-11-07 15:24:14.452408,-3,2025-11-07 15:24:18.101772154
2025-11-07 15:24:14.452408,-608,2025-11-07 15:24:18.109464462
2025-11-07 15:24:14.452408,-21249,2025-11-07 15:24:18.117156769
2025-11-07 15:24:14.452408,-3,2025-11-07 15:24:18.124849077
2025-11-07 15:24:14.452408,-594,2025-11-07 15:24:18.132541385
2025-11-07 15:24:14.452408,-22529,2025-11-07 15:24:18.140233692
2025-11-07 15:24:14.452408,-3,2025-11-07 15:24:18.147926000
2025-11-07 15:24:14.452408,-582,2025-11-07 15:24:18.155618308
2025-11-07 15:24:14.452408,-11009,2025-11-07 15:24:18.163310615
2025-11-07 15:24:14.452408,-3,2025-11-07 15:24:18.171002923
2025-11-07 15:24:14.452408,-558,2025-11-07 15:24:18.178695231
2025-11-07 15:24:14.452408,-10241,2025-11-07 15:24:18.186387538
2025-11-07 15:24:14.452408,-3,2025-11-07 15:24:18.194079846
2025-11-07 15:24:14.452408,-541,2025-11-07 15:24:18.201772154
2025-11-07 15:24:14.452408,-15105,2025-11-07 15:24:18.209464462
2025-11-07 15:24:14.452408,-3,2025-11-07 15:24:18.217156769
2025-11-07 15:24:14.452408,-603,2025-11-07 15:24:18.224849077
2025-11-07 15:24:14.452408,-19457,2025-11-07 15:24:18.232541385
2025-11-07 15:24:14.452408,-3,2025-11-07 15:24:18.240233692
2025-11-07 15:24:14.452408,-567,2025-11-07 15:24:18.247926000
2025-11-07 15:24:14.452408,-14593,2025-11-07 15:24:18.255618308
2025-11-07 15:24:14.452408,-3,2025-11-07 15:24:18.263310615
2025-11-07 15:24:14.452408,-570,2025-11-07 15:24:18.271002923
2025-11-07 15:24:14.452408,-11009,2025-11-07 15:24:18.278695230
2025-11-07 15:24:14.452408,-3,2025-11-07 15:24:18.286387538
2025-11-07 15:24:14.452408,-546,2025-11-07 15:24:18.294079846
2025-11-07 15:24:14.452408,-8449,2025-11-07 15:24:18.301772154
2025-11-07 15:24:14.452408,-3,2025-11-07 15:24:18.309464462
2025-11-07 15:24:14.452408,-527,2025-11-07 15:24:18.317156769
2025-11-07 15:24:14.452408,3071,2025-11-07 15:24:18.324849077
2025-11-07 15:24:14.452408,-2,2025-11-07 15:24:18.332541385
2025-11-07 15:24:14.452408,-503,2025-11-07 15:24:18.340233692
2025-11-07 15:24:14.452408,1279,2025-11-07 15:24:18.347926000
2025-11-07 15:24:14.452408,-2,2025-11-07 15:24:18.355618308
2025-11-07 15:24:14.452408,-422,2025-11-07 15:24:18.363310615
2025-11-07 15:24:14.452408,-11265,2025-11-07 15:24:18.371002923
2025-11-07 15:24:14.452408,-2,2025-11-07 15:24:18.378695231
2025-11-07 15:24:14.452408,-382,2025-11-07 15:24:18.386387538
2025-11-07 15:24:14.452408,-25089,2025-11-07 15:24:18.394079846
2025-11-07 15:24:14.452408,-4,2025-11-07 15:24:18.401772154
2025-11-07 15:24:14.452408,-1523,2025-11-07 15:24:18.409464462
2025-11-07 15:24:14.452408,-15105,2025-11-07 15:24:18.417156769
2025-11-07 15:24:14.452408,-7,2025-11-07 15:24:18.424849077
2025-11-07 15:24:14.452408,-1012,2025-11-07 15:24:18.432541385
2025-11-07 15:24:14.452408,-20737,2025-11-07 15:24:18.440233692
2025-11-07 15:24:14.452408,-3,2025-11-07 15:24:18.447926000
2025-11-07 15:24:14.452408,-503,2025-11-07 15:24:18.455618308
2025-11-07 15:24:14.452408,-30209,2025-11-07 15:24:18.463310615
2025-11-07 15:24:14.452408,-2,2025-11-07 15:24:18.471002923
2025-11-07 15:24:14.452408,-282,2025-11-07 15:24:18.478695231
2025-11-07 15:24:14.452408,-11265,2025-11-07 15:24:18.486387538
2025-11-07 15:24:14.452408,-2,2025-11-07 15:24:18.494079846
2025-11-07 15:24:14.452408,-306,2025-11-07 15:24:18.501772154
2025-11-07 15:24:14.452408,-6401,2025-11-07 15:24:18.509464462
2025-11-07 15:24:14.452408,-2,2025-11-07 15:24:18.517156769
2025-11-07 15:24:14.452408,-287,2025-11-07 15:24:18.524849077
2025-11-07 15:24:14.452408,-8961,2025-11-07 15:24:18.532541385
2025-11-07 15:24:14.452408,-2,2025-11-07 15:24:18.540233692
2025-11-07 15:24:14.452408,-287,2025-11-07 15:24:18.547926000
2025-11-07 15:24:14.452408,-8193,2025-11-07 15:24:18.555618308
2025-11-07 15:24:14.452408,-2,2025-11-07 15:24:18.563310615
2025-11-07 15:24:14.452408,-292,2025-11-07 15:24:18.571002923
2025-11-07 15:24:14.452408,-7169,2025-11-07 15:24:18.578695231
2025-11-07 15:24:14.452408,-2,2025-11-07 15:24:18.586387538
2025-11-07 15:24:14.452408,-280,2025-11-07 15:24:18.594079846
2025-11-07 15:24:14.452408,-6401,2025-11-07 15:24:18.601772154
2025-11-07 15:24:14.452408,-2,2025-11-07 15:24:18.609464462
2025-11-07 15:24:14.452408,-282,2025-11-07 15:24:18.617156769
2025-11-07 15:24:14.452408,-7681,2025-11-07 15:24:18.624849077
2025-11-07 15:24:14.452408,-2,2025-11-07 15:24:18.632541385
2025-11-07 15:24:14.452408,-289,2025-11-07 15:24:18.640233692
2025-11-07 15:24:15.037421,-282,2025-11-07 15:24:18.647926000
2025-11-07 15:24:15.037421,-5377,2025-11-07 15:24:18.655618308
2025-11-07 15:24:15.037421,-2,2025-11-07 15:24:18.663310615
2025-11-07 15:24:15.037421,-275,2025-11-07 15:24:18.671002923
2025-11-07 15:24:15.037421,-2305,2025-11-07 15:24:18.678695231
2025-11-07 15:24:15.037421,-2,2025-11-07 15:24:18.686387538
2025-11-07 15:24:15.037421,-254,2025-11-07 15:24:18.694079846
2025-11-07 15:24:15.037421,255,2025-11-07 15:24:18.701772154
2025-11-07 15:24:15.037421,-1,2025-11-07 15:24:18.709464462
2025-11-07 15:24:15.037421,-263,2025-11-07 15:24:18.717156769
2025-11-07 15:24:15.037421,1535,2025-11-07 15:24:18.724849077
2025-11-07 15:24:15.037421,-1,2025-11-07 15:24:18.732541385
2025-11-07 15:24:15.037421,-242,2025-11-07 15:24:18.740233692
2025-11-07 15:24:15.037421,4351,2025-11-07 15:24:18.747926000
2025-11-07 15:24:15.037421,-1,2025-11-07 15:24:18.755618308
2025-11-07 15:24:15.037421,-225,2025-11-07 15:24:18.763310615
2025-11-07 15:24:15.037421,9983,2025-11-07 15:24:18.771002923
2025-11-07 15:24:15.037421,-1,2025-11-07 15:24:18.778695231
2025-11-07 15:24:15.037421,-225,2025-11-07 15:24:18.786387538
2025-11-07 15:24:15.037421,7423,2025-11-07 15:24:18.794079846
2025-11-07 15:24:15.037421,-1,2025-11-07 15:24:18.801772154
2025-11-07 15:24:15.037421,-225,2025-11-07 15:24:18.809464462
2025-11-07 15:24:15.037421,9471,2025-11-07 15:24:18.817156769
2025-11-07 15:24:15.037421,-1,2025-11-07 15:24:18.824849077
2025-11-07 15:24:15.037421,-216,2025-11-07 15:24:18.832541385
2025-11-07 15:24:15.037421,9471,2025-11-07 15:24:18.840233692
2025-11-07 15:24:15.037421,-1,2025-11-07 15:24:18.847926000
2025-11-07 15:24:15.037421,-228,2025-11-07 15:24:18.855618308
2025-11-07 15:24:15.037421,8703,2025-11-07 15:24:18.863310615
2025-11-07 15:24:15.037421,-1,2025-11-07 15:24:18.871002923
2025-11-07 15:24:15.037421,-206,2025-11-07 15:24:18.878695231
2025-11-07 15:24:15.037421,12287,2025-11-07 15:24:18.886387538
2025-11-07 15:24:15.037421,-1,2025-11-07 15:24:18.894079846
2025-11-07 15:24:15.037421,-220,2025-11-07 15:24:18.901772154
2025-11-07 15:24:15.037421,11263,2025-11-07 15:24:18.909464462
2025-11-07 15:24:15.037421,-1,2025-11-07 15:24:18.917156769
2025-11-07 15:24:15.037421,-206,2025-11-07 15:24:18.924849077
2025-11-07 15:24:15.037421,14847,2025-11-07 15:24:18.932541385
2025-11-07 15:24:15.037421,-1,2025-11-07 15:24:18.940233692
2025-11-07 15:24:15.037421,-197,2025-11-07 15:24:18.947926000
2025-11-07 15:24:15.037421,13567,2025-11-07 15:24:18.955618308
2025-11-07 15:24:15.037421,-1,2025-11-07 15:24:18.963310615
2025-11-07 15:24:15.037421,-204,2025-11-07 15:24:18.971002923
2025-11-07 15:24:15.037421,16127,2025-11-07 15:24:18.978695231
2025-11-07 15:24:15.037421,-1,2025-11-07 15:24:18.986387538
2025-11-07 15:24:15.037421,-190,2025-11-07 15:24:18.994079846
2025-11-07 15:24:15.037421,19199,2025-11-07 15:24:19.001772154
2025-11-07 15:24:15.037421,-1,2025-11-07 15:24:19.009464462
2025-11-07 15:24:15.037421,-175,2025-11-07 15:24:19.017156769
2025-11-07 15:24:15.037421,21503,2025-11-07 15:24:19.024849077
2025-11-07 15:24:15.037421,-1,2025-11-07 15:24:19.032541385
2025-11-07 15:24:15.037421,-168,2025-11-07 15:24:19.040233692
2025-11-07 15:24:15.037421,26367,2025-11-07 15:24:19.047926000
2025-11-07 15:24:15.037421,-1,2025-11-07 15:24:19.055618308
2025-11-07 15:24:15.037421,-137,2025-11-07 15:24:19.063310615
2025-11-07 15:24:15.037421,-32513,2025-11-07 15:24:19.071002923
2025-11-07 15:24:15.037421,-1,2025-11-07 15:24:19.078695231
2025-11-07 15:24:15.037421,-118,2025-11-07 15:24:19.086387538
2025-11-07 15:24:15.037421,29951,2025-11-07 15:24:19.094079846
2025-11-07 15:24:15.037421,-1,2025-11-07 15:24:19.101772154
2025-11-07 15:24:15.037421,-173,2025-11-07 15:24:19.109464462
2025-11-07 15:24:15.037421,19711,2025-11-07 15:24:19.117156769
2025-11-07 15:24:15.037421,-1,2025-11-07 15:24:19.124849077
2025-11-07 15:24:15.037421,-168,2025-11-07 15:24:19.132541385
2025-11-07 15:24:15.037421,24063,2025-11-07 15:24:19.140233692
2025-11-07 15:24:15.037421,-1,2025-11-07 15:24:19.147926000
2025-11-07 15:24:15.037421,-168,2025-11-07 15:24:19.155618308
2025-11-07 15:24:15.037421,23295,2025-11-07 15:24:19.163310615
2025-11-07 15:24:15.037421,-1,2025-11-07 15:24:19.171002923
2025-11-07 15:24:15.037421,-149,2025-11-07 15:24:19.178695231
2025-11-07 15:24:15.037421,27647,2025-11-07 15:24:19.186387538
2025-11-07 15:24:15.037421,-1,2025-11-07 15:24:19.194079846
2025-11-07 15:24:15.037421,-149,2025-11-07 15:24:19.201772154
2025-11-07 15:24:15.037421,28159,2025-11-07 15:24:19.209464462
2025-11-07 15:24:15.037421,-1,2025-11-07 15:24:19.217156769
2025-11-07 15:24:15.037421,-147,2025-11-07 15:24:19.224849077
2025-11-07 15:24:15.037421,32511,2025-11-07 15:24:19.232541385
2025-11-07 15:24:15.037421,-1,2025-11-07 15:24:19.240233692
2025-11-07 15:24:15.037421,-87,2025-11-07 15:24:19.247926000
2025-11-07 15:24:15.037421,-1537,2025-11-07 15:24:19.255618308
2025-11-07 15:24:15.037421,-1,2025-11-07 15:24:19.263310615
2025-11-07 15:24:15.037421,23,2025-11-07 15:24:19.271002923
2025-11-07 15:24:15.037421,-8448,2025-11-07 15:24:19.278695230
2025-11-07 15:24:15.037421,-2,2025-11-07 15:24:19.286387538
2025-11-07 15:24:15.037421,-1019,2025-11-07 15:24:19.294079846
2025-11-07 15:24:15.037421,9215,2025-11-07 15:24:19.301772154
2025-11-07 15:24:15.037421,-6,2025-11-07 15:24:19.309464462
2025-11-07 15:24:15.037421,-1128,2025-11-07 15:24:19.317156769
2025-11-07 15:24:15.037421,15871,2025-11-07 15:24:19.324849077
2025-11-07 15:24:15.037421,-2,2025-11-07 15:24:19.332541385
2025-11-07 15:24:15.037421,-178,2025-11-07 15:24:19.340233692
2025-11-07 15:24:15.037421,-23297,2025-11-07 15:24:19.347926000
2025-11-07 15:24:15.037421,-1,2025-11-07 15:24:19.355618308
2025-11-07 15:24:15.037421,28,2025-11-07 15:24:19.363310615
2025-11-07 15:24:15.037421,11520,2025-11-07 15:24:19.371002923
2025-11-07 15:24:15.037421,0,2025-11-07 15:24:19.378695231
2025-11-07 15:24:15.037421,11,2025-11-07 15:24:19.386387538
2025-11-07 15:24:15.037421,6656,2025-11-07 15:24:19.394079846
2025-11-07 15:24:15.037421,0,2025-11-07 15:24:19.401772154
2025-11-07 15:24:15.037421,26,2025-11-07 15:24:19.409464462
2025-11-07 15:24:15.037421,2304,2025-11-07 15:24:19.417156769
2025-11-07 15:24:15.037421,0,2025-11-07 15:24:19.424849077
2025-11-07 15:24:15.037421,7,2025-11-07 15:24:19.432541385
2025-11-07 15:24:15.037421,1792,2025-11-07 15:24:19.440233692
2025-11-07 15:24:15.037421,0,2025-11-07 15:24:19.447926000
2025-11-07 15:24:15.037421,4,2025-11-07 15:24:19.455618308
2025-11-07 15:24:15.037421,0,2025-11-07 15:24:19.463310615
2025-11-07 15:24:15.037421,0,2025-11-07 15:24:19.471002923
2025-11-07 15:24:15.037421,-11,2025-11-07 15:24:19.478695231
2025-11-07 15:24:15.577451,-21,2025-11-07 15:24:19.486387538
2025-11-07 15:24:15.577451,-3329,2025-11-07 15:24:19.494079846
2025-11-07 15:24:15.577451,-1,2025-11-07 15:24:19.501772154
2025-11-07 15:24:15.577451,-9,2025-11-07 15:24:19.509464462
2025-11-07 15:24:15.577451,-4609,2025-11-07 15:24:19.517156769
2025-11-07 15:24:15.577451,-1,2025-11-07 15:24:19.524849077
2025-11-07 15:24:15.577451,-21,2025-11-07 15:24:19.532541385
2025-11-07 15:24:15.577451,-3329,2025-11-07 15:24:19.540233692
2025-11-07 15:24:15.577451,-1,2025-11-07 15:24:19.547926000
2025-11-07 15:24:15.577451,-4,2025-11-07 15:24:19.555618308
2025-11-07 15:24:15.577451,1279,2025-11-07 15:24:19.563310615
2025-11-07 15:24:15.577451,0,2025-11-07 15:24:19.571002923
2025-11-07 15:24:15.577451,-2,2025-11-07 15:24:19.578695231
2025-11-07 15:24:15.577451,-3841,2025-11-07 15:24:19.586387538
2025-11-07 15:24:15.577451,-1,2025-11-07 15:24:19.594079846
2025-11-07 15:24:15.577451,-16,2025-11-07 15:24:19.601772154
2025-11-07 15:24:15.577451,-257,2025-11-07 15:24:19.609464462
2025-11-07 15:24:15.577451,-1,2025-11-07 15:24:19.617156769
2025-11-07 15:24:15.577451,9,2025-11-07 15:24:19.624849077
2025-11-07 15:24:15.577451,0,2025-11-07 15:24:19.632541385
2025-11-07 15:24:15.577451,0,2025-11-07 15:24:19.640233692
2025-11-07 15:24:15.577451,-26,2025-11-07 15:24:19.647926000
2025-11-07 15:24:15.577451,-9473,2025-11-07 15:24:19.655618308
2025-11-07 15:24:15.577451,-1,2025-11-07 15:24:19.663310615
2025-11-07 15:24:15.577451,-42,2025-11-07 15:24:19.671002923
2025-11-07 15:24:15.577451,-13057,2025-11-07 15:24:19.678695231
2025-11-07 15:24:15.577451,-1,2025-11-07 15:24:19.686387538
2025-11-07 15:24:15.577451,-49,2025-11-07 15:24:19.694079846
2025-11-07 15:24:15.577451,-11777,2025-11-07 15:24:19.701772154
2025-11-07 15:24:15.577451,-1,2025-11-07 15:24:19.709464462
2025-11-07 15:24:15.577451,-47,2025-11-07 15:24:19.717156769
2025-11-07 15:24:15.577451,-13057,2025-11-07 15:24:19.724849077
2025-11-07 15:24:15.577451,-1,2025-11-07 15:24:19.732541385
2025-11-07 15:24:15.577451,-59,2025-11-07 15:24:19.740233692
2025-11-07 15:24:15.577451,-15361,2025-11-07 15:24:19.747926000
2025-11-07 15:24:15.577451,-1,2025-11-07 15:24:19.755618308
2025-11-07 15:24:15.577451,-54,2025-11-07 15:24:19.763310615
2025-11-07 15:24:15.577451,-13569,2025-11-07 15:24:19.771002923
2025-11-07 15:24:15.577451,-1,2025-11-07 15:24:19.778695231
2025-11-07 15:24:15.577451,-61,2025-11-07 15:24:19.786387538
2025-11-07 15:24:15.577451,-13569,2025-11-07 15:24:19.794079846
2025-11-07 15:24:15.577451,-1,2025-11-07 15:24:19.801772154
2025-11-07 15:24:15.577451,-42,2025-11-07 15:24:19.809464462
2025-11-07 15:24:15.577451,-12289,2025-11-07 15:24:19.817156769
2025-11-07 15:24:15.577451,-1,2025-11-07 15:24:19.824849077
2025-11-07 15:24:15.577451,-59,2025-11-07 15:24:19.832541385
2025-11-07 15:24:15.577451,-14849,2025-11-07 15:24:19.840233692
2025-11-07 15:24:15.577451,-1,2025-11-07 15:24:19.847926000
2025-11-07 15:24:15.577451,-61,2025-11-07 15:24:19.855618308
2025-11-07 15:24:15.577451,-17153,2025-11-07 15:24:19.863310615
2025-11-07 15:24:15.577451,-1,2025-11-07 15:24:19.871002923
2025-11-07 15:24:15.577451,-76,2025-11-07 15:24:19.878695231
2025-11-07 15:24:15.577451,-16129,2025-11-07 15:24:19.886387538
2025-11-07 15:24:15.577451,-1,2025-11-07 15:24:19.894079846
2025-11-07 15:24:15.577451,-52,2025-11-07 15:24:19.901772154
2025-11-07 15:24:15.577451,-13569,2025-11-07 15:24:19.909464462
2025-11-07 15:24:15.577451,-1,2025-11-07 15:24:19.917156769
2025-11-07 15:24:15.577451,-49,2025-11-07 15:24:19.924849077
2025-11-07 15:24:15.577451,-9473,2025-11-07 15:24:19.932541385
2025-11-07 15:24:15.577451,-1,2025-11-07 15:24:19.940233692
2025-11-07 15:24:15.577451,-33,2025-11-07 15:24:19.947926000
2025-11-07 15:24:15.577451,-9473,2025-11-07 15:24:19.955618308
2025-11-07 15:24:15.577451,-1,2025-11-07 15:24:19.963310615
2025-11-07 15:24:15.577451,-35,2025-11-07 15:24:19.971002923
2025-11-07 15:24:15.577451,-4609,2025-11-07 15:24:19.978695231
2025-11-07 15:24:15.577451,-1,2025-11-07 15:24:19.986387538
2025-11-07 15:24:15.577451,-9,2025-11-07 15:24:19.994079846
2025-11-07 15:24:15.577451,-8193,2025-11-07 15:24:20.001772154
2025-11-07 15:24:15.577451,-1,2025-11-07 15:24:20.009464462
2025-11-07 15:24:15.577451,-68,2025-11-07 15:24:20.017156769
2025-11-07 15:24:15.577451,-19201,2025-11-07 15:24:20.024849077
2025-11-07 15:24:15.577451,-1,2025-11-07 15:24:20.032541385
2025-11-07 15:24:15.577451,-59,2025-11-07 15:24:20.040233692
2025-11-07 15:24:15.577451,-17153,2025-11-07 15:24:20.047926000
2025-11-07 15:24:15.577451,-1,2025-11-07 15:24:20.055618308
2025-11-07 15:24:15.577451,-90,2025-11-07 15:24:20.063310615
2025-11-07 15:24:15.577451,-17921,2025-11-07 15:24:20.071002923
2025-11-07 15:24:15.577451,-1,2025-11-07 15:24:20.078695231
2025-11-07 15:24:15.577451,-47,2025-11-07 15:24:20.086387538
2025-11-07 15:24:15.577451,-13569,2025-11-07 15:24:20.094079846
2025-11-07 15:24:15.577451,-1,2025-11-07 15:24:20.101772154
2025-11-07 15:24:15.577451,-49,2025-11-07 15:24:20.109464462
2025-11-07 15:24:15.577451,-11265,2025-11-07 15:24:20.117156769
2025-11-07 15:24:15.577451,-1,2025-11-07 15:24:20.124849077
2025-11-07 15:24:15.577451,-64,2025-11-07 15:24:20.132541385
2025-11-07 15:24:15.577451,-19713,2025-11-07 15:24:20.140233692
2025-11-07 15:24:15.577451,-1,2025-11-07 15:24:20.147926000
2025-11-07 15:24:15.577451,-40,2025-11-07 15:24:20.155618308
2025-11-07 15:24:15.577451,16639,2025-11-07 15:24:20.163310615
2025-11-07 15:24:15.577451,0,2025-11-07 15:24:20.171002923
2025-11-07 15:24:15.577451,135,2025-11-07 15:24:20.178695231
2025-11-07 15:24:15.577451,-30976,2025-11-07 15:24:20.186387538
2025-11-07 15:24:15.577451,-1,2025-11-07 15:24:20.194079846
2025-11-07 15:24:15.577451,-843,2025-11-07 15:24:20.201772154
2025-11-07 15:24:15.577451,12799,2025-11-07 15:24:20.209464462
2025-11-07 15:24:15.577451,-6,2025-11-07 15:24:20.217156769
2025-11-07 15:24:15.577451,-1290,2025-11-07 15:24:20.224849077
2025-11-07 15:24:15.577451,-3073,2025-11-07 15:24:20.232541385
2025-11-07 15:24:15.577451,-3,2025-11-07 15:24:20.240233692
2025-11-07 15:24:15.577451,-90,2025-11-07 15:24:20.247926000
2025-11-07 15:24:15.577451,-5121,2025-11-07 15:24:20.255618308
2025-11-07 15:24:15.577451,-1,2025-11-07 15:24:20.263310615
2025-11-07 15:24:15.577451,83,2025-11-07 15:24:20.271002923
2025-11-07 15:24:15.577451,-27392,2025-11-07 15:24:20.278695230
2025-11-07 15:24:15.577451,0,2025-11-07 15:24:20.286387538
2025-11-07 15:24:15.577451,121,2025-11-07 15:24:20.294079846
2025-11-07 15:24:15.577451,26112,2025-11-07 15:24:20.301772154
2025-11-07 15:24:15.577451,0,2025-11-07 15:24:20.309464462
2025-11-07 15:24:15.577451,106,2025-11-07 15:24:20.317156769
2025-11-07 15:24:16.118349,102,2025-11-07 15:24:20.324849077
2025-11-07 15:24:16.118349,21760,2025-11-07 15:24:20.332541385
2025-11-07 15:24:16.118349,0,2025-11-07 15:24:20.340233692
2025-11-07 15:24:16.118349,66,2025-11-07 15:24:20.347926000
2025-11-07 15:24:16.118349,17408,2025-11-07 15:24:20.355618308
2025-11-07 15:24:16.118349,0,2025-11-07 15:24:20.363310615
2025-11-07 15:24:16.118349,71,2025-11-07 15:24:20.371002923
2025-11-07 15:24:16.118349,15104,2025-11-07 15:24:20.378695231
2025-11-07 15:24:16.118349,0,2025-11-07 15:24:20.386387538
2025-11-07 15:24:16.118349,57,2025-11-07 15:24:20.394079846
2025-11-07 15:24:16.118349,16384,2025-11-07 15:24:20.401772154
2025-11-07 15:24:16.118349,0,2025-11-07 15:24:20.409464462
2025-11-07 15:24:16.118349,59,2025-11-07 15:24:20.417156769
2025-11-07 15:24:16.118349,13312,2025-11-07 15:24:20.424849077
2025-11-07 15:24:16.118349,0,2025-11-07 15:24:20.432541385
2025-11-07 15:24:16.118349,57,2025-11-07 15:24:20.440233692
2025-11-07 15:24:16.118349,15104,2025-11-07 15:24:20.447926000
2025-11-07 15:24:16.118349,0,2025-11-07 15:24:20.455618308
2025-11-07 15:24:16.118349,61,2025-11-07 15:24:20.463310615
2025-11-07 15:24:16.118349,16896,2025-11-07 15:24:20.471002923
2025-11-07 15:24:16.118349,0,2025-11-07 15:24:20.478695231
2025-11-07 15:24:16.118349,64,2025-11-07 15:24:20.486387538
2025-11-07 15:24:16.118349,15616,2025-11-07 15:24:20.494079846
2025-11-07 15:24:16.118349,0,2025-11-07 15:24:20.501772154
2025-11-07 15:24:16.118349,66,2025-11-07 15:24:20.509464462
2025-11-07 15:24:16.118349,13312,2025-11-07 15:24:20.517156769
2025-11-07 15:24:16.118349,0,2025-11-07 15:24:20.524849077
2025-11-07 15:24:16.118349,30,2025-11-07 15:24:20.532541385
2025-11-07 15:24:16.118349,10240,2025-11-07 15:24:20.540233692
2025-11-07 15:24:16.118349,0,2025-11-07 15:24:20.547926000
2025-11-07 15:24:16.118349,33,2025-11-07 15:24:20.555618308
2025-11-07 15:24:16.118349,-4096,2025-11-07 15:24:20.563310615
2025-11-07 15:24:16.118349,-1,2025-11-07 15:24:20.571002923
2025-11-07 15:24:16.118349,-16,2025-11-07 15:24:20.578695231
2025-11-07 15:24:16.118349,2559,2025-11-07 15:24:20.586387538
2025-11-07 15:24:16.118349,0,2025-11-07 15:24:20.594079846
2025-11-07 15:24:16.118349,-2,2025-11-07 15:24:20.601772154
2025-11-07 15:24:16.118349,-4609,2025-11-07 15:24:20.609464462
2025-11-07 15:24:16.118349,-1,2025-11-07 15:24:20.617156769
2025-11-07 15:24:16.118349,-14,2025-11-07 15:24:20.624849077
2025-11-07 15:24:16.118349,-1537,2025-11-07 15:24:20.632541385
2025-11-07 15:24:16.118349,-1,2025-11-07 15:24:20.640233692
2025-11-07 15:24:16.118349,-11,2025-11-07 15:24:20.647926000
2025-11-07 15:24:16.118349,-5633,2025-11-07 15:24:20.655618308
2025-11-07 15:24:16.118349,-1,2025-11-07 15:24:20.663310615
2025-11-07 15:24:16.118349,-23,2025-11-07 15:24:20.671002923
2025-11-07 15:24:16.118349,-6913,2025-11-07 15:24:20.678695231
2025-11-07 15:24:16.118349,-1,2025-11-07 15:24:20.686387538
2025-11-07 15:24:16.118349,-38,2025-11-07 15:24:20.694079846
2025-11-07 15:24:16.118349,-8705,2025-11-07 15:24:20.701772154
2025-11-07 15:24:16.118349,-1,2025-11-07 15:24:20.709464462
2025-11-07 15:24:16.118349,-35,2025-11-07 15:24:20.717156769
2025-11-07 15:24:16.118349,-8705,2025-11-07 15:24:20.724849077
2025-11-07 15:24:16.118349,-1,2025-11-07 15:24:20.732541385
2025-11-07 15:24:16.118349,-19,2025-11-07 15:24:20.740233692
2025-11-07 15:24:16.118349,-5121,2025-11-07 15:24:20.747926000
2025-11-07 15:24:16.118349,-1,2025-11-07 15:24:20.755618308
2025-11-07 15:24:16.118349,-38,2025-11-07 15:24:20.763310615
2025-11-07 15:24:16.118349,-9473,2025-11-07 15:24:20.771002923
2025-11-07 15:24:16.118349,-1,2025-11-07 15:24:20.778695231
2025-11-07 15:24:16.118349,-21,2025-11-07 15:24:20.786387538
2025-11-07 15:24:16.118349,-5633,2025-11-07 15:24:20.794079846
2025-11-07 15:24:16.118349,-1,2025-11-07 15:24:20.801772154
2025-11-07 15:24:16.118349,-30,2025-11-07 15:24:20.809464462
2025-11-07 15:24:16.118349,-2561,2025-11-07 15:24:20.817156769
2025-11-07 15:24:16.118349,-1,2025-11-07 15:24:20.824849077
2025-11-07 15:24:16.118349,-11,2025-11-07 15:24:20.832541385
2025-11-07 15:24:16.118349,-8705,2025-11-07 15:24:20.840233692
2025-11-07 15:24:16.118349,-1,2025-11-07 15:24:20.847926000
2025-11-07 15:24:16.118349,-26,2025-11-07 15:24:20.855618308
2025-11-07 15:24:16.118349,-2049,2025-11-07 15:24:20.863310615
2025-11-07 15:24:16.118349,-1,2025-11-07 15:24:20.871002923
2025-11-07 15:24:16.118349,-26,2025-11-07 15:24:20.878695231
2025-11-07 15:24:16.118349,-8193,2025-11-07 15:24:20.886387538
2025-11-07 15:24:16.118349,-1,2025-11-07 15:24:20.894079846
2025-11-07 15:24:16.118349,-16,2025-11-07 15:24:20.901772154
2025-11-07 15:24:16.118349,-3329,2025-11-07 15:24:20.909464462
2025-11-07 15:24:16.118349,-1,2025-11-07 15:24:20.917156769
2025-11-07 15:24:16.118349,-16,2025-11-07 15:24:20.924849077
2025-11-07 15:24:16.118349,-257,2025-11-07 15:24:20.932541385
2025-11-07 15:24:16.118349,-1,2025-11-07 15:24:20.940233692
2025-11-07 15:24:16.118349,9,2025-11-07 15:24:20.947926000
2025-11-07 15:24:16.118349,1792,2025-11-07 15:24:20.955618308
2025-11-07 15:24:16.118349,0,2025-11-07 15:24:20.963310615
2025-11-07 15:24:16.118349,-9,2025-11-07 15:24:20.971002923
2025-11-07 15:24:16.118349,-12289,2025-11-07 15:24:20.978695231
2025-11-07 15:24:16.118349,-1,2025-11-07 15:24:20.986387538
2025-11-07 15:24:16.118349,-68,2025-11-07 15:24:20.994079846
2025-11-07 15:24:16.118349,-13057,2025-11-07 15:24:21.001772154
2025-11-07 15:24:16.118349,-1,2025-11-07 15:24:21.009464462
2025-11-07 15:24:16.118349,-47,2025-11-07 15:24:21.017156769
2025-11-07 15:24:16.118349,-12289,2025-11-07 15:24:21.024849077
2025-11-07 15:24:16.118349,-1,2025-11-07 15:24:21.032541385
2025-11-07 15:24:16.118349,-33,2025-11-07 15:24:21.040233692
2025-11-07 15:24:16.118349,-6401,2025-11-07 15:24:21.047926000
2025-11-07 15:24:16.118349,-1,2025-11-07 15:24:21.055618308
2025-11-07 15:24:16.118349,-40,2025-11-07 15:24:21.063310615
2025-11-07 15:24:16.118349,-11265,2025-11-07 15:24:21.071002923
2025-11-07 15:24:16.118349,-1,2025-11-07 15:24:21.078695231
2025-11-07 15:24:16.118349,-28,2025-11-07 15:24:21.086387538
2025-11-07 15:24:16.118349,-5633,2025-11-07 15:24:21.094079846
2025-11-07 15:24:16.118349,-1,2025-11-07 15:24:21.101772154
2025-11-07 15:24:16.118349,-47,2025-11-07 15:24:21.109464462
2025-11-07 15:24:16.118349,-10497,2025-11-07 15:24:21.117156769
2025-11-07 15:24:16.118349,-1,2025-11-07 15:24:21.124849077
2025-11-07 15:24:16.118349,35,2025-11-07 15:24:21.132541385
2025-11-07 15:24:16.118349,-30464,2025-11-07 15:24:21.140233692
2025-11-07 15:24:16.118349,0,2025-11-07 15:24:21.147926000
2025-11-07 15:24:16.118349,61,2025-11-07 15:24:21.155618308
2025-11-07 15:24:16.657186,-441,2025-11-07 15:24:21.163310615
2025-11-07 15:24:16.657186,26367,2025-11-07 15:24:21.171002923
2025-11-07 15:24:16.657186,-5,2025-11-07 15:24:21.178695231
2025-11-07 15:24:16.657186,-1349,2025-11-07 15:24:21.186387538
2025-11-07 15:24:16.657186,5375,2025-11-07 15:24:21.194079846
2025-11-07 15:24:16.657186,-3,2025-11-07 15:24:21.201772154
2025-11-07 15:24:16.657186,-204,2025-11-07 15:24:21.209464462
2025-11-07 15:24:16.657186,-17153,2025-11-07 15:24:21.217156769
2025-11-07 15:24:16.657186,-1,2025-11-07 15:24:21.224849077
2025-11-07 15:24:16.657186,42,2025-11-07 15:24:21.232541385
2025-11-07 15:24:16.657186,-28672,2025-11-07 15:24:21.240233692
2025-11-07 15:24:16.657186,0,2025-11-07 15:24:21.247926000
2025-11-07 15:24:16.657186,121,2025-11-07 15:24:21.255618308
2025-11-07 15:24:16.657186,27904,2025-11-07 15:24:21.263310615
2025-11-07 15:24:16.657186,0,2025-11-07 15:24:21.271002923
2025-11-07 15:24:16.657186,125,2025-11-07 15:24:21.278695230
2025-11-07 15:24:16.657186,26112,2025-11-07 15:24:21.286387538
2025-11-07 15:24:16.657186,0,2025-11-07 15:24:21.294079846
2025-11-07 15:24:16.657186,87,2025-11-07 15:24:21.301772154
2025-11-07 15:24:16.657186,21760,2025-11-07 15:24:21.309464462
2025-11-07 15:24:16.657186,0,2025-11-07 15:24:21.317156769
2025-11-07 15:24:16.657186,66,2025-11-07 15:24:21.324849077
2025-11-07 15:24:16.657186,13824,2025-11-07 15:24:21.332541385
2025-11-07 15:24:16.657186,0,2025-11-07 15:24:21.340233692
2025-11-07 15:24:16.657186,59,2025-11-07 15:24:21.347926000
2025-11-07 15:24:16.657186,15616,2025-11-07 15:24:21.355618308
2025-11-07 15:24:16.657186,0,2025-11-07 15:24:21.363310615
2025-11-07 15:24:16.657186,45,2025-11-07 15:24:21.371002923
2025-11-07 15:24:16.657186,5888,2025-11-07 15:24:21.378695231
2025-11-07 15:24:16.657186,0,2025-11-07 15:24:21.386387538
2025-11-07 15:24:16.657186,23,2025-11-07 15:24:21.394079846
2025-11-07 15:24:16.657186,6656,2025-11-07 15:24:21.401772154
2025-11-07 15:24:16.657186,0,2025-11-07 15:24:21.409464462
2025-11-07 15:24:16.657186,14,2025-11-07 15:24:21.417156769
2025-11-07 15:24:16.657186,2816,2025-11-07 15:24:21.424849077
2025-11-07 15:24:16.657186,0,2025-11-07 15:24:21.432541385
2025-11-07 15:24:16.657186,16,2025-11-07 15:24:21.440233692
2025-11-07 15:24:16.657186,2816,2025-11-07 15:24:21.447926000
2025-11-07 15:24:16.657186,0,2025-11-07 15:24:21.455618308
2025-11-07 15:24:16.657186,11,2025-11-07 15:24:21.463310615
2025-11-07 15:24:16.657186,3584,2025-11-07 15:24:21.471002923
2025-11-07 15:24:16.657186,0,2025-11-07 15:24:21.478695231
2025-11-07 15:24:16.657186,11,2025-11-07 15:24:21.486387538
2025-11-07 15:24:16.657186,1792,2025-11-07 15:24:21.494079846
2025-11-07 15:24:16.657186,0,2025-11-07 15:24:21.501772154
2025-11-07 15:24:16.657186,0,2025-11-07 15:24:21.509464462
2025-11-07 15:24:16.657186,-2816,2025-11-07 15:24:21.517156769
2025-11-07 15:24:16.657186,-1,2025-11-07 15:24:21.524849077
2025-11-07 15:24:16.657186,-16,2025-11-07 15:24:21.532541385
2025-11-07 15:24:16.657186,-3841,2025-11-07 15:24:21.540233692
2025-11-07 15:24:16.657186,-1,2025-11-07 15:24:21.547926000
2025-11-07 15:24:16.657186,-23,2025-11-07 15:24:21.555618308
2025-11-07 15:24:16.657186,-6913,2025-11-07 15:24:21.563310615
2025-11-07 15:24:16.657186,-1,2025-11-07 15:24:21.571002923
2025-11-07 15:24:16.657186,-35,2025-11-07 15:24:21.578695231
2025-11-07 15:24:16.657186,-8705,2025-11-07 15:24:21.586387538
2025-11-07 15:24:16.657186,-1,2025-11-07 15:24:21.594079846
2025-11-07 15:24:16.657186,-30,2025-11-07 15:24:21.601772154
2025-11-07 15:24:16.657186,-7425,2025-11-07 15:24:21.609464462
2025-11-07 15:24:16.657186,-1,2025-11-07 15:24:21.617156769
2025-11-07 15:24:16.657186,-35,2025-11-07 15:24:21.624849077
2025-11-07 15:24:16.657186,-8705,2025-11-07 15:24:21.632541385
2025-11-07 15:24:16.657186,-1,2025-11-07 15:24:21.640233692
2025-11-07 15:24:16.657186,-38,2025-11-07 15:24:21.647926000
2025-11-07 15:24:16.657186,-10497,2025-11-07 15:24:21.655618308
2025-11-07 15:24:16.657186,-1,2025-11-07 15:24:21.663310615
2025-11-07 15:24:16.657186,-47,2025-11-07 15:24:21.671002923
2025-11-07 15:24:16.657186,-10497,2025-11-07 15:24:21.678695231
2025-11-07 15:24:16.657186,-1,2025-11-07 15:24:21.686387538
2025-11-07 15:24:16.657186,-45,2025-11-07 15:24:21.694079846
2025-11-07 15:24:16.657186,-12289,2025-11-07 15:24:21.701772154
2025-11-07 15:24:16.657186,-1,2025-11-07 15:24:21.709464462
2025-11-07 15:24:16.657186,-40,2025-11-07 15:24:21.717156769
2025-11-07 15:24:16.657186,-8705,2025-11-07 15:24:21.724849077
2025-11-07 15:24:16.657186,-1,2025-11-07 15:24:21.732541385
2025-11-07 15:24:16.657186,-45,2025-11-07 15:24:21.740233692
2025-11-07 15:24:16.657186,-10497,2025-11-07 15:24:21.747926000
2025-11-07 15:24:16.657186,-1,2025-11-07 15:24:21.755618308
2025-11-07 15:24:16.657186,-33,2025-11-07 15:24:21.763310615
2025-11-07 15:24:16.657186,-8193,2025-11-07 15:24:21.771002923
2025-11-07 15:24:16.657186,-1,2025-11-07 15:24:21.778695231
2025-11-07 15:24:16.657186,-38,2025-11-07 15:24:21.786387538
2025-11-07 15:24:16.657186,-8193,2025-11-07 15:24:21.794079846
2025-11-07 15:24:16.657186,-1,2025-11-07 15:24:21.801772154
2025-11-07 15:24:16.657186,-38,2025-11-07 15:24:21.809464462
2025-11-07 15:24:16.657186,-11777,2025-11-07 15:24:21.817156769
2025-11-07 15:24:16.657186,-1,2025-11-07 15:24:21.824849077
2025-11-07 15:24:16.657186,-40,2025-11-07 15:24:21.832541385
2025-11-07 15:24:16.657186,-7425,2025-11-07 15:24:21.840233692
2025-11-07 15:24:16.657186,-1,2025-11-07 15:24:21.847926000
2025-11-07 15:24:16.657186,-30,2025-11-07 15:24:21.855618308
2025-11-07 15:24:16.657186,-7425,2025-11-07 15:24:21.863310615
2025-11-07 15:24:16.657186,-1,2025-11-07 15:24:21.871002923
2025-11-07 15:24:16.657186,-28,2025-11-07 15:24:21.878695231
2025-11-07 15:24:16.657186,-4609,2025-11-07 15:24:21.886387538
2025-11-07 15:24:16.657186,-1,2025-11-07 15:24:21.894079846
2025-11-07 15:24:16.657186,-4,2025-11-07 15:24:21.901772154
2025-11-07 15:24:16.657186,-3841,2025-11-07 15:24:21.909464462
2025-11-07 15:24:16.657186,-1,2025-11-07 15:24:21.917156769
2025-11-07 15:24:16.657186,-52,2025-11-07 15:24:21.924849077
2025-11-07 15:24:16.657186,-19713,2025-11-07 15:24:21.932541385
2025-11-07 15:24:16.657186,-1,2025-11-07 15:24:21.940233692
2025-11-07 15:24:16.657186,-78,2025-11-07 15:24:21.947926000
2025-11-07 15:24:16.657186,-18433,2025-11-07 15:24:21.955618308
2025-11-07 15:24:16.657186,-1,2025-11-07 15:24:21.963310615
2025-11-07 15:24:16.657186,-80,2025-11-07 15:24:21.971002923
2025-11-07 15:24:16.657186,-17153,2025-11-07 15:24:21.978695231
2025-11-07 15:24:16.657186,-1,2025-11-07 15:24:21.986387538
2025-11-07 15:24:16.657186,-49,2025-11-07 15:24:21.994079846
2025-11-07 15:24:17.242395,-61,2025-11-07 15:24:22.001772154
2025-11-07 15:24:17.242395,-20993,2025-11-07 15:24:22.009464462
2025-11-07 15:24:17.242395,-1,2025-11-07 15:24:22.017156769
2025-11-07 15:24:17.242395,-73,2025-11-07 15:24:22.024849077
2025-11-07 15:24:17.242395,-14337,2025-11-07 15:24:22.032541385
2025-11-07 15:24:17.242395,-1,2025-11-07 15:24:22.040233692
2025-11-07 15:24:17.242395,-45,2025-11-07 15:24:22.047926000
2025-11-07 15:24:17.242395,-11265,2025-11-07 15:24:22.055618308
2025-11-07 15:24:17.242395,-1,2025-11-07 15:24:22.063310615
2025-11-07 15:24:17.242395,-23,2025-11-07 15:24:22.071002923
2025-11-07 15:24:17.242395,15359,2025-11-07 15:24:22.078695231
2025-11-07 15:24:17.242395,0,2025-11-07 15:24:22.086387538
2025-11-07 15:24:17.242395,118,2025-11-07 15:24:22.094079846
2025-11-07 15:24:17.242395,-27136,2025-11-07 15:24:22.101772154
2025-11-07 15:24:17.242395,-1,2025-11-07 15:24:22.109464462
2025-11-07 15:24:17.242395,-755,2025-11-07 15:24:22.117156769
2025-11-07 15:24:17.242395,-4097,2025-11-07 15:24:22.124849077
2025-11-07 15:24:17.242395,-6,2025-11-07 15:24:22.132541385
2025-11-07 15:24:17.242395,-1059,2025-11-07 15:24:22.140233692
2025-11-07 15:24:17.242395,20223,2025-11-07 15:24:22.147926000
2025-11-07 15:24:17.242395,-2,2025-11-07 15:24:22.155618308
2025-11-07 15:24:17.242395,-168,2025-11-07 15:24:22.163310615
2025-11-07 15:24:17.242395,-24065,2025-11-07 15:24:22.171002923
2025-11-07 15:24:17.242395,-1,2025-11-07 15:24:22.178695231
2025-11-07 15:24:17.242395,47,2025-11-07 15:24:22.186387538
2025-11-07 15:24:17.242395,20480,2025-11-07 15:24:22.194079846
2025-11-07 15:24:17.242395,0,2025-11-07 15:24:22.201772154
2025-11-07 15:24:17.242395,30,2025-11-07 15:24:22.209464462
2025-11-07 15:24:17.242395,10752,2025-11-07 15:24:22.217156769
2025-11-07 15:24:17.242395,0,2025-11-07 15:24:22.224849077
2025-11-07 15:24:17.242395,66,2025-11-07 15:24:22.232541385
2025-11-07 15:24:17.242395,12544,2025-11-07 15:24:22.240233692
2025-11-07 15:24:17.242395,0,2025-11-07 15:24:22.247926000
2025-11-07 15:24:17.242395,45,2025-11-07 15:24:22.255618308
2025-11-07 15:24:17.242395,13824,2025-11-07 15:24:22.263310615
2025-11-07 15:24:17.242395,0,2025-11-07 15:24:22.271002923
2025-11-07 15:24:17.242395,35,2025-11-07 15:24:22.278695230
2025-11-07 15:24:17.242395,2304,2025-11-07 15:24:22.286387538
2025-11-07 15:24:17.242395,0,2025-11-07 15:24:22.294079846
2025-11-07 15:24:17.242395,9,2025-11-07 15:24:22.301772154
2025-11-07 15:24:17.242395,5376,2025-11-07 15:24:22.309464462
2025-11-07 15:24:17.242395,0,2025-11-07 15:24:22.317156769
2025-11-07 15:24:17.242395,16,2025-11-07 15:24:22.324849077
2025-11-07 15:24:17.242395,2304,2025-11-07 15:24:22.332541385
2025-11-07 15:24:17.242395,0,2025-11-07 15:24:22.340233692
2025-11-07 15:24:17.242395,9,2025-11-07 15:24:22.347926000
2025-11-07 15:24:17.242395,1024,2025-11-07 15:24:22.355618308
2025-11-07 15:24:17.242395,0,2025-11-07 15:24:22.363310615
2025-11-07 15:24:17.242395,11,2025-11-07 15:24:22.371002923
2025-11-07 15:24:17.242395,4864,2025-11-07 15:24:22.378695231
2025-11-07 15:24:17.242395,0,2025-11-07 15:24:22.386387538
2025-11-07 15:24:17.242395,2,2025-11-07 15:24:22.394079846
2025-11-07 15:24:17.242395,-1792,2025-11-07 15:24:22.401772154
2025-11-07 15:24:17.242395,-1,2025-11-07 15:24:22.409464462
2025-11-07 15:24:17.242395,4,2025-11-07 15:24:22.417156769
2025-11-07 15:24:17.242395,2304,2025-11-07 15:24:22.424849077
2025-11-07 15:24:17.242395,0,2025-11-07 15:24:22.432541385
2025-11-07 15:24:17.242395,4,2025-11-07 15:24:22.440233692
2025-11-07 15:24:17.242395,0,2025-11-07 15:24:22.447926000
2025-11-07 15:24:17.242395,0,2025-11-07 15:24:22.455618308
2025-11-07 15:24:17.242395,0,2025-11-07 15:24:22.463310615
2025-11-07 15:24:17.242395,2816,2025-11-07 15:24:22.471002923
2025-11-07 15:24:17.242395,0,2025-11-07 15:24:22.478695231
2025-11-07 15:24:17.242395,9,2025-11-07 15:24:22.486387538
2025-11-07 15:24:17.242395,-2816,2025-11-07 15:24:22.494079846
2025-11-07 15:24:17.242395,-1,2025-11-07 15:24:22.501772154
2025-11-07 15:24:17.242395,-14,2025-11-07 15:24:22.509464462
2025-11-07 15:24:17.242395,1279,2025-11-07 15:24:22.517156769
2025-11-07 15:24:17.242395,0,2025-11-07 15:24:22.524849077
2025-11-07 15:24:17.242395,0,2025-11-07 15:24:22.532541385
2025-11-07 15:24:17.242395,-1792,2025-11-07 15:24:22.540233692
2025-11-07 15:24:17.242395,-1,2025-11-07 15:24:22.547926000
2025-11-07 15:24:17.242395,2,2025-11-07 15:24:22.555618308
2025-11-07 15:24:17.242395,512,2025-11-07 15:24:22.563310615
2025-11-07 15:24:17.242395,0,2025-11-07 15:24:22.571002923
2025-11-07 15:24:17.242395,2,2025-11-07 15:24:22.578695231
2025-11-07 15:24:17.242395,5376,2025-11-07 15:24:22.586387538
2025-11-07 15:24:17.242395,0,2025-11-07 15:24:22.594079846
2025-11-07 15:24:17.242395,26,2025-11-07 15:24:22.601772154
2025-11-07 15:24:17.242395,3584,2025-11-07 15:24:22.609464462
2025-11-07 15:24:17.242395,0,2025-11-07 15:24:22.617156769
2025-11-07 15:24:17.242395,9,2025-11-07 15:24:22.624849077
2025-11-07 15:24:17.242395,2304,2025-11-07 15:24:22.632541385
2025-11-07 15:24:17.242395,0,2025-11-07 15:24:22.640233692
2025-11-07 15:24:17.242395,16,2025-11-07 15:24:22.647926000
2025-11-07 15:24:17.242395,5888,2025-11-07 15:24:22.655618308
2025-11-07 15:24:17.242395,0,2025-11-07 15:24:22.663310615
2025-11-07 15:24:17.242395,16,2025-11-07 15:24:22.671002923
2025-11-07 15:24:17.242395,1024,2025-11-07 15:24:22.678695231
2025-11-07 15:24:17.242395,0,2025-11-07 15:24:22.686387538
2025-11-07 15:24:17.242395,4,2025-11-07 15:24:22.694079846
2025-11-07 15:24:17.242395,4864,2025-11-07 15:24:22.701772154
2025-11-07 15:24:17.242395,0,2025-11-07 15:24:22.709464462
2025-11-07 15:24:17.242395,26,2025-11-07 15:24:22.717156769
2025-11-07 15:24:17.242395,4096,2025-11-07 15:24:22.724849077
2025-11-07 15:24:17.242395,0,2025-11-07 15:24:22.732541385
2025-11-07 15:24:17.242395,16,2025-11-07 15:24:22.740233692
2025-11-07 15:24:17.242395,5376,2025-11-07 15:24:22.747926000
2025-11-07 15:24:17.242395,0,2025-11-07 15:24:22.755618308
2025-11-07 15:24:17.242395,14,2025-11-07 15:24:22.763310615
2025-11-07 15:24:17.242395,2304,2025-11-07 15:24:22.771002923
2025-11-07 15:24:17.242395,0,2025-11-07 15:24:22.778695231
2025-11-07 15:24:17.242395,14,2025-11-07 15:24:22.786387538
2025-11-07 15:24:17.242395,4864,2025-11-07 15:24:22.794079846
