timestamp,ecg,reconstructed_time
2025-11-07 15:47:27.810260,11581,2025-11-07 15:47:27.810260000
2025-11-07 15:47:27.810260,-31744,2025-11-07 15:47:27.817952308
2025-11-07 15:47:27.810260,45,2025-11-07 15:47:27.825644615
2025-11-07 15:47:27.810260,11049,2025-11-07 15:47:27.833336923
2025-11-07 15:47:27.810260,-3840,2025-11-07 15:47:27.841029231
2025-11-07 15:47:27.810260,46,2025-11-07 15:47:27.848721538
2025-11-07 15:47:27.810260,12115,2025-11-07 15:47:27.856413846
2025-11-07 15:47:27.810260,-29184,2025-11-07 15:47:27.864106154
2025-11-07 15:47:27.810260,45,2025-11-07 15:47:27.871798462
2025-11-07 15:47:27.810260,11800,2025-11-07 15:47:27.879490769
2025-11-07 15:47:27.810260,9216,2025-11-07 15:47:27.887183077
2025-11-07 15:47:27.810260,46,2025-11-07 15:47:27.894875385
2025-11-07 15:47:27.810260,11526,2025-11-07 15:47:27.902567692
2025-11-07 15:47:27.810260,-32000,2025-11-07 15:47:27.910260000
2025-11-07 15:47:27.810260,44,2025-11-07 15:47:27.917952308
2025-11-07 15:47:27.810260,11302,2025-11-07 15:47:27.925644615
2025-11-07 15:47:27.810260,22016,2025-11-07 15:47:27.933336923
2025-11-07 15:47:27.810260,43,2025-11-07 15:47:27.941029231
2025-11-07 15:47:27.810260,10904,2025-11-07 15:47:27.948721538
2025-11-07 15:47:27.810260,4096,2025-11-07 15:47:27.956413846
2025-11-07 15:47:27.810260,42,2025-11-07 15:47:27.964106154
2025-11-07 15:47:27.810260,10613,2025-11-07 15:47:27.971798462
2025-11-07 15:47:27.810260,-18944,2025-11-07 15:47:27.979490769
2025-11-07 15:47:27.810260,40,2025-11-07 15:47:27.987183077
2025-11-07 15:47:27.810260,10229,2025-11-07 15:47:27.994875385
2025-11-07 15:47:27.810260,21760,2025-11-07 15:47:28.002567692
2025-11-07 15:47:27.810260,39,2025-11-07 15:47:28.010260000
2025-11-07 15:47:27.810260,9912,2025-11-07 15:47:28.017952308
2025-11-07 15:47:27.810260,512,2025-11-07 15:47:28.025644615
2025-11-07 15:47:27.810260,38,2025-11-07 15:47:28.033336923
2025-11-07 15:47:27.810260,9559,2025-11-07 15:47:28.041029231
2025-11-07 15:47:27.810260,-18176,2025-11-07 15:47:28.048721538
2025-11-07 15:47:27.810260,36,2025-11-07 15:47:28.056413846
2025-11-07 15:47:27.810260,9244,2025-11-07 15:47:28.064106154
2025-11-07 15:47:27.810260,-31232,2025-11-07 15:47:28.071798462
2025-11-07 15:47:27.810260,35,2025-11-07 15:47:28.079490769
2025-11-07 15:47:27.810260,8929,2025-11-07 15:47:28.087183077
2025-11-07 15:47:27.810260,15616,2025-11-07 15:47:28.094875385
2025-11-07 15:47:27.810260,34,2025-11-07 15:47:28.102567692
2025-11-07 15:47:27.810260,8629,2025-11-07 15:47:28.110260000
2025-11-07 15:47:27.810260,7168,2025-11-07 15:47:28.117952308
2025-11-07 15:47:27.810260,33,2025-11-07 15:47:28.125644615
2025-11-07 15:47:27.810260,8302,2025-11-07 15:47:28.133336923
2025-11-07 15:47:27.810260,-7168,2025-11-07 15:47:28.141029231
2025-11-07 15:47:27.810260,31,2025-11-07 15:47:28.148721538
2025-11-07 15:47:27.810260,8035,2025-11-07 15:47:28.156413846
2025-11-07 15:47:27.810260,-14336,2025-11-07 15:47:28.164106154
2025-11-07 15:47:27.810260,30,2025-11-07 15:47:28.171798462
2025-11-07 15:47:27.810260,7744,2025-11-07 15:47:28.179490769
2025-11-07 15:47:27.810260,-12288,2025-11-07 15:47:28.187183077
2025-11-07 15:47:27.810260,29,2025-11-07 15:47:28.194875385
2025-11-07 15:47:27.810260,7503,2025-11-07 15:47:28.202567692
2025-11-07 15:47:27.810260,-15104,2025-11-07 15:47:28.210260000
2025-11-07 15:47:27.810260,28,2025-11-07 15:47:28.217952308
2025-11-07 15:47:27.810260,7241,2025-11-07 15:47:28.225644615
2025-11-07 15:47:27.810260,-11776,2025-11-07 15:47:28.233336923
2025-11-07 15:47:27.810260,27,2025-11-07 15:47:28.241029231
2025-11-07 15:47:27.810260,7000,2025-11-07 15:47:28.248721538
2025-11-07 15:47:27.810260,-5376,2025-11-07 15:47:28.256413846
2025-11-07 15:47:27.810260,26,2025-11-07 15:47:28.264106154
2025-11-07 15:47:27.810260,6778,2025-11-07 15:47:28.271798462
2025-11-07 15:47:27.810260,-4096,2025-11-07 15:47:28.279490769
2025-11-07 15:47:27.810260,25,2025-11-07 15:47:28.287183077
2025-11-07 15:47:27.810260,6511,2025-11-07 15:47:28.294875385
2025-11-07 15:47:27.810260,1024,2025-11-07 15:47:28.302567692
2025-11-07 15:47:27.810260,25,2025-11-07 15:47:28.310260000
2025-11-07 15:47:27.810260,6294,2025-11-07 15:47:28.317952308
2025-11-07 15:47:27.810260,6656,2025-11-07 15:47:28.325644615
2025-11-07 15:47:27.810260,24,2025-11-07 15:47:28.333336923
2025-11-07 15:47:27.810260,6025,2025-11-07 15:47:28.341029230
2025-11-07 15:47:27.810260,19712,2025-11-07 15:47:28.348721538
2025-11-07 15:47:27.810260,23,2025-11-07 15:47:28.356413846
2025-11-07 15:47:27.810260,6137,2025-11-07 15:47:28.364106154
2025-11-07 15:47:27.810260,-256,2025-11-07 15:47:28.371798462
2025-11-07 15:47:27.810260,24,2025-11-07 15:47:28.379490769
2025-11-07 15:47:27.810260,6375,2025-11-07 15:47:28.387183077
2025-11-07 15:47:27.810260,11264,2025-11-07 15:47:28.394875385
2025-11-07 15:47:27.810260,23,2025-11-07 15:47:28.402567692
2025-11-07 15:47:27.810260,5481,2025-11-07 15:47:28.410260000
2025-11-07 15:47:27.810260,-2304,2025-11-07 15:47:28.417952308
2025-11-07 15:47:27.810260,20,2025-11-07 15:47:28.425644615
2025-11-07 15:47:27.810260,5310,2025-11-07 15:47:28.433336923
2025-11-07 15:47:27.810260,256,2025-11-07 15:47:28.441029231
2025-11-07 15:47:27.810260,20,2025-11-07 15:47:28.448721538
2025-11-07 15:47:27.810260,4990,2025-11-07 15:47:28.456413846
2025-11-07 15:47:27.810260,16384,2025-11-07 15:47:28.464106154
2025-11-07 15:47:27.810260,19,2025-11-07 15:47:28.471798462
2025-11-07 15:47:27.810260,4830,2025-11-07 15:47:28.479490769
2025-11-07 15:47:27.810260,31232,2025-11-07 15:47:28.487183077
2025-11-07 15:47:27.810260,18,2025-11-07 15:47:28.494875385
2025-11-07 15:47:27.810260,4663,2025-11-07 15:47:28.502567692
2025-11-07 15:47:27.810260,-4608,2025-11-07 15:47:28.510260000
2025-11-07 15:47:27.810260,17,2025-11-07 15:47:28.517952308
2025-11-07 15:47:27.810260,4499,2025-11-07 15:47:28.525644615
2025-11-07 15:47:27.810260,15104,2025-11-07 15:47:28.533336923
2025-11-07 15:47:27.810260,17,2025-11-07 15:47:28.541029231
2025-11-07 15:47:27.810260,4334,2025-11-07 15:47:28.548721538
2025-11-07 15:47:27.810260,-23552,2025-11-07 15:47:28.556413846
2025-11-07 15:47:27.810260,16,2025-11-07 15:47:28.564106154
2025-11-07 15:47:27.810260,4179,2025-11-07 15:47:28.571798462
2025-11-07 15:47:27.810260,512,2025-11-07 15:47:28.579490769
2025-11-07 15:47:27.810260,16,2025-11-07 15:47:28.587183077
2025-11-07 15:47:27.810260,4029,2025-11-07 15:47:28.594875385
2025-11-07 15:47:27.810260,30208,2025-11-07 15:47:28.602567692
2025-11-07 15:47:27.810260,15,2025-11-07 15:47:28.610260000
2025-11-07 15:47:27.810260,3872,2025-11-07 15:47:28.617952308
2025-11-07 15:47:27.810260,-10752,2025-11-07 15:47:28.625644615
2025-11-07 15:47:27.810260,14,2025-11-07 15:47:28.633336923
2025-11-07 15:47:27.810260,3738,2025-11-07 15:47:28.641029231
2025-11-07 15:47:28.377253,3667,2025-11-07 15:47:28.648721538
2025-11-07 15:47:28.377253,1536,2025-11-07 15:47:28.656413846
2025-11-07 15:47:28.377253,14,2025-11-07 15:47:28.664106154
2025-11-07 15:47:28.377253,3519,2025-11-07 15:47:28.671798462
2025-11-07 15:47:28.377253,32512,2025-11-07 15:47:28.679490769
2025-11-07 15:47:28.377253,13,2025-11-07 15:47:28.687183077
2025-11-07 15:47:28.377253,3390,2025-11-07 15:47:28.694875385
2025-11-07 15:47:28.377253,-1792,2025-11-07 15:47:28.702567692
2025-11-07 15:47:28.377253,12,2025-11-07 15:47:28.710260000
2025-11-07 15:47:28.377253,3261,2025-11-07 15:47:28.717952308
2025-11-07 15:47:28.377253,-22528,2025-11-07 15:47:28.725644615
2025-11-07 15:47:28.377253,12,2025-11-07 15:47:28.733336923
2025-11-07 15:47:28.377253,3216,2025-11-07 15:47:28.741029231
2025-11-07 15:47:28.377253,10752,2025-11-07 15:47:28.748721538
2025-11-07 15:47:28.377253,12,2025-11-07 15:47:28.756413846
2025-11-07 15:47:28.377253,3004,2025-11-07 15:47:28.764106154
2025-11-07 15:47:28.377253,-29696,2025-11-07 15:47:28.771798462
2025-11-07 15:47:28.377253,11,2025-11-07 15:47:28.779490769
2025-11-07 15:47:28.377253,2897,2025-11-07 15:47:28.787183077
2025-11-07 15:47:28.377253,-3072,2025-11-07 15:47:28.794875385
2025-11-07 15:47:28.377253,10,2025-11-07 15:47:28.802567692
2025-11-07 15:47:28.377253,2732,2025-11-07 15:47:28.810260000
2025-11-07 15:47:28.377253,23808,2025-11-07 15:47:28.817952308
2025-11-07 15:47:28.377253,10,2025-11-07 15:47:28.825644615
2025-11-07 15:47:28.377253,2563,2025-11-07 15:47:28.833336923
2025-11-07 15:47:28.377253,-17664,2025-11-07 15:47:28.841029231
2025-11-07 15:47:28.377253,9,2025-11-07 15:47:28.848721538
2025-11-07 15:47:28.377253,2432,2025-11-07 15:47:28.856413846
2025-11-07 15:47:28.377253,17408,2025-11-07 15:47:28.864106154
2025-11-07 15:47:28.377253,9,2025-11-07 15:47:28.871798462
2025-11-07 15:47:28.377253,2308,2025-11-07 15:47:28.879490769
2025-11-07 15:47:28.377253,-16128,2025-11-07 15:47:28.887183077
2025-11-07 15:47:28.377253,8,2025-11-07 15:47:28.894875385
2025-11-07 15:47:28.377253,2184,2025-11-07 15:47:28.902567692
2025-11-07 15:47:28.377253,20736,2025-11-07 15:47:28.910260000
2025-11-07 15:47:28.377253,8,2025-11-07 15:47:28.917952308
2025-11-07 15:47:28.377253,2072,2025-11-07 15:47:28.925644615
2025-11-07 15:47:28.377253,-9216,2025-11-07 15:47:28.933336923
2025-11-07 15:47:28.377253,7,2025-11-07 15:47:28.941029231
2025-11-07 15:47:28.377253,1962,2025-11-07 15:47:28.948721538
2025-11-07 15:47:28.377253,30720,2025-11-07 15:47:28.956413846
2025-11-07 15:47:28.377253,7,2025-11-07 15:47:28.964106154
2025-11-07 15:47:28.377253,1855,2025-11-07 15:47:28.971798462
2025-11-07 15:47:28.377253,1280,2025-11-07 15:47:28.979490769
2025-11-07 15:47:28.377253,7,2025-11-07 15:47:28.987183077
2025-11-07 15:47:28.377253,1750,2025-11-07 15:47:28.994875385
2025-11-07 15:47:28.377253,-21248,2025-11-07 15:47:29.002567692
2025-11-07 15:47:28.377253,6,2025-11-07 15:47:29.010260000
2025-11-07 15:47:28.377253,1666,2025-11-07 15:47:29.017952308
2025-11-07 15:47:28.377253,18688,2025-11-07 15:47:29.025644615
2025-11-07 15:47:28.377253,6,2025-11-07 15:47:29.033336923
2025-11-07 15:47:28.377253,1549,2025-11-07 15:47:29.041029231
2025-11-07 15:47:28.377253,-8704,2025-11-07 15:47:29.048721538
2025-11-07 15:47:28.377253,5,2025-11-07 15:47:29.056413846
2025-11-07 15:47:28.377253,1452,2025-11-07 15:47:29.064106154
2025-11-07 15:47:28.377253,30464,2025-11-07 15:47:29.071798462
2025-11-07 15:47:28.377253,5,2025-11-07 15:47:29.079490769
2025-11-07 15:47:28.377253,1351,2025-11-07 15:47:29.087183077
2025-11-07 15:47:28.377253,6144,2025-11-07 15:47:29.094875385
2025-11-07 15:47:28.377253,5,2025-11-07 15:47:29.102567692
2025-11-07 15:47:28.377253,1249,2025-11-07 15:47:29.110260000
2025-11-07 15:47:28.377253,-20736,2025-11-07 15:47:29.117952308
2025-11-07 15:47:28.377253,4,2025-11-07 15:47:29.125644615
2025-11-07 15:47:28.377253,1158,2025-11-07 15:47:29.133336923
2025-11-07 15:47:28.377253,23296,2025-11-07 15:47:29.141029231
2025-11-07 15:47:28.377253,4,2025-11-07 15:47:29.148721538
2025-11-07 15:47:28.377253,1065,2025-11-07 15:47:29.156413846
2025-11-07 15:47:28.377253,-1024,2025-11-07 15:47:29.164106154
2025-11-07 15:47:28.377253,3,2025-11-07 15:47:29.171798462
2025-11-07 15:47:28.377253,984,2025-11-07 15:47:29.179490769
2025-11-07 15:47:28.377253,-20480,2025-11-07 15:47:29.187183077
2025-11-07 15:47:28.377253,3,2025-11-07 15:47:29.194875385
2025-11-07 15:47:28.377253,891,2025-11-07 15:47:29.202567692
2025-11-07 15:47:28.377253,20480,2025-11-07 15:47:29.210260000
2025-11-07 15:47:28.377253,3,2025-11-07 15:47:29.217952308
2025-11-07 15:47:28.377253,817,2025-11-07 15:47:29.225644615
2025-11-07 15:47:28.377253,2304,2025-11-07 15:47:29.233336923
2025-11-07 15:47:28.377253,3,2025-11-07 15:47:29.241029231
2025-11-07 15:47:28.377253,734,2025-11-07 15:47:29.248721538
2025-11-07 15:47:28.377253,-17920,2025-11-07 15:47:29.256413846
2025-11-07 15:47:28.377253,2,2025-11-07 15:47:29.264106154
2025-11-07 15:47:28.377253,660,2025-11-07 15:47:29.271798462
2025-11-07 15:47:28.377253,28160,2025-11-07 15:47:29.279490769
2025-11-07 15:47:28.377253,2,2025-11-07 15:47:29.287183077
2025-11-07 15:47:28.377253,581,2025-11-07 15:47:29.294875385
2025-11-07 15:47:28.377253,8704,2025-11-07 15:47:29.302567692
2025-11-07 15:47:28.377253,2,2025-11-07 15:47:29.310260000
2025-11-07 15:47:28.377253,512,2025-11-07 15:47:29.317952308
2025-11-07 15:47:28.377253,-9216,2025-11-07 15:47:29.325644615
2025-11-07 15:47:28.377253,1,2025-11-07 15:47:29.333336923
2025-11-07 15:47:28.377253,441,2025-11-07 15:47:29.341029230
2025-11-07 15:47:28.377253,-26880,2025-11-07 15:47:29.348721538
2025-11-07 15:47:28.377253,1,2025-11-07 15:47:29.356413846
2025-11-07 15:47:28.377253,374,2025-11-07 15:47:29.364106154
2025-11-07 15:47:28.377253,21504,2025-11-07 15:47:29.371798462
2025-11-07 15:47:28.377253,1,2025-11-07 15:47:29.379490769
2025-11-07 15:47:28.377253,307,2025-11-07 15:47:29.387183077
2025-11-07 15:47:28.377253,5632,2025-11-07 15:47:29.394875385
2025-11-07 15:47:28.377253,1,2025-11-07 15:47:29.402567692
2025-11-07 15:47:28.377253,250,2025-11-07 15:47:29.410260000
2025-11-07 15:47:28.377253,-8960,2025-11-07 15:47:29.417952308
2025-11-07 15:47:28.377253,0,2025-11-07 15:47:29.425644615
2025-11-07 15:47:28.377253,190,2025-11-07 15:47:29.433336923
2025-11-07 15:47:28.377253,-24832,2025-11-07 15:47:29.441029231
2025-11-07 15:47:28.377253,0,2025-11-07 15:47:29.448721538
2025-11-07 15:47:28.377253,131,2025-11-07 15:47:29.456413846
2025-11-07 15:47:28.377253,26112,2025-11-07 15:47:29.464106154
2025-11-07 15:47:28.377253,0,2025-11-07 15:47:29.471798462
2025-11-07 15:47:28.377253,73,2025-11-07 15:47:29.479490769
2025-11-07 15:47:28.922985,50,2025-11-07 15:47:29.487183077
2025-11-07 15:47:28.922985,7168,2025-11-07 15:47:29.494875385
2025-11-07 15:47:28.922985,0,2025-11-07 15:47:29.502567692
2025-11-07 15:47:28.922985,0,2025-11-07 15:47:29.510260000
2025-11-07 15:47:28.922985,-6656,2025-11-07 15:47:29.517952308
2025-11-07 15:47:28.922985,-1,2025-11-07 15:47:29.525644615
2025-11-07 15:47:28.922985,-47,2025-11-07 15:47:29.533336923
2025-11-07 15:47:28.922985,-17409,2025-11-07 15:47:29.541029231
2025-11-07 15:47:28.922985,-1,2025-11-07 15:47:29.548721538
2025-11-07 15:47:28.922985,-92,2025-11-07 15:47:29.556413846
2025-11-07 15:47:28.922985,-30721,2025-11-07 15:47:29.564106154
2025-11-07 15:47:28.922985,-1,2025-11-07 15:47:29.571798462
2025-11-07 15:47:28.922985,-143,2025-11-07 15:47:29.579490769
2025-11-07 15:47:28.922985,27391,2025-11-07 15:47:29.587183077
2025-11-07 15:47:28.922985,-1,2025-11-07 15:47:29.594875385
2025-11-07 15:47:28.922985,-162,2025-11-07 15:47:29.602567692
2025-11-07 15:47:28.922985,20223,2025-11-07 15:47:29.610260000
2025-11-07 15:47:28.922985,-1,2025-11-07 15:47:29.617952308
2025-11-07 15:47:28.922985,-188,2025-11-07 15:47:29.625644615
2025-11-07 15:47:28.922985,14079,2025-11-07 15:47:29.633336923
2025-11-07 15:47:28.922985,-1,2025-11-07 15:47:29.641029231
2025-11-07 15:47:28.922985,-236,2025-11-07 15:47:29.648721538
2025-11-07 15:47:28.922985,-1793,2025-11-07 15:47:29.656413846
2025-11-07 15:47:28.922985,-2,2025-11-07 15:47:29.664106154
2025-11-07 15:47:28.922985,-281,2025-11-07 15:47:29.671798462
2025-11-07 15:47:28.922985,-9729,2025-11-07 15:47:29.679490769
2025-11-07 15:47:28.922985,-2,2025-11-07 15:47:29.687183077
2025-11-07 15:47:28.922985,-314,2025-11-07 15:47:29.694875385
2025-11-07 15:47:28.922985,-19457,2025-11-07 15:47:29.702567692
2025-11-07 15:47:28.922985,-2,2025-11-07 15:47:29.710260000
2025-11-07 15:47:28.922985,-350,2025-11-07 15:47:29.717952308
2025-11-07 15:47:28.922985,-28673,2025-11-07 15:47:29.725644615
2025-11-07 15:47:28.922985,-2,2025-11-07 15:47:29.733336923
2025-11-07 15:47:28.922985,-398,2025-11-07 15:47:29.741029231
2025-11-07 15:47:28.922985,16639,2025-11-07 15:47:29.748721538
2025-11-07 15:47:28.922985,-2,2025-11-07 15:47:29.756413846
2025-11-07 15:47:28.922985,-429,2025-11-07 15:47:29.764106154
2025-11-07 15:47:28.922985,16383,2025-11-07 15:47:29.771798462
2025-11-07 15:47:28.922985,-1,2025-11-07 15:47:29.779490769
2025-11-07 15:47:28.922985,169,2025-11-07 15:47:29.787183077
2025-11-07 15:47:28.922985,14848,2025-11-07 15:47:29.794875385
2025-11-07 15:47:28.922985,1,2025-11-07 15:47:29.802567692
2025-11-07 15:47:28.922985,26,2025-11-07 15:47:29.810260000
2025-11-07 15:47:28.922985,31744,2025-11-07 15:47:29.817952308
2025-11-07 15:47:28.922985,-2,2025-11-07 15:47:29.825644615
2025-11-07 15:47:28.922985,-510,2025-11-07 15:47:29.833336923
2025-11-07 15:47:28.922985,6399,2025-11-07 15:47:29.841029231
2025-11-07 15:47:28.922985,-2,2025-11-07 15:47:29.848721538
2025-11-07 15:47:28.922985,-584,2025-11-07 15:47:29.856413846
2025-11-07 15:47:28.922985,30463,2025-11-07 15:47:29.864106154
2025-11-07 15:47:28.922985,-3,2025-11-07 15:47:29.871798462
2025-11-07 15:47:28.922985,-624,2025-11-07 15:47:29.879490769
2025-11-07 15:47:28.922985,-29185,2025-11-07 15:47:29.887183077
2025-11-07 15:47:28.922985,-3,2025-11-07 15:47:29.894875385
2025-11-07 15:47:28.922985,-650,2025-11-07 15:47:29.902567692
2025-11-07 15:47:28.922985,30975,2025-11-07 15:47:29.910260000
2025-11-07 15:47:28.922985,-3,2025-11-07 15:47:29.917952308
2025-11-07 15:47:28.922985,-648,2025-11-07 15:47:29.925644615
2025-11-07 15:47:28.922985,27391,2025-11-07 15:47:29.933336923
2025-11-07 15:47:28.922985,-3,2025-11-07 15:47:29.941029231
2025-11-07 15:47:28.922985,-665,2025-11-07 15:47:29.948721538
2025-11-07 15:47:28.922985,26111,2025-11-07 15:47:29.956413846
2025-11-07 15:47:28.922985,-3,2025-11-07 15:47:29.964106154
2025-11-07 15:47:28.922985,-677,2025-11-07 15:47:29.971798462
2025-11-07 15:47:28.922985,21759,2025-11-07 15:47:29.979490769
2025-11-07 15:47:28.922985,-3,2025-11-07 15:47:29.987183077
2025-11-07 15:47:28.922985,-689,2025-11-07 15:47:29.994875385
2025-11-07 15:47:28.922985,19455,2025-11-07 15:47:30.002567692
2025-11-07 15:47:28.922985,-3,2025-11-07 15:47:30.010260000
2025-11-07 15:47:28.922985,-698,2025-11-07 15:47:30.017952308
2025-11-07 15:47:28.922985,16383,2025-11-07 15:47:30.025644615
2025-11-07 15:47:28.922985,-3,2025-11-07 15:47:30.033336923
2025-11-07 15:47:28.922985,-708,2025-11-07 15:47:30.041029231
2025-11-07 15:47:28.922985,15103,2025-11-07 15:47:30.048721538
2025-11-07 15:47:28.922985,-3,2025-11-07 15:47:30.056413846
2025-11-07 15:47:28.922985,-717,2025-11-07 15:47:30.064106154
2025-11-07 15:47:28.922985,11519,2025-11-07 15:47:30.071798462
2025-11-07 15:47:28.922985,-3,2025-11-07 15:47:30.079490769
2025-11-07 15:47:28.922985,-722,2025-11-07 15:47:30.087183077
2025-11-07 15:47:28.922985,12031,2025-11-07 15:47:30.094875385
2025-11-07 15:47:28.922985,-3,2025-11-07 15:47:30.102567692
2025-11-07 15:47:28.922985,-724,2025-11-07 15:47:30.110260000
2025-11-07 15:47:28.922985,12031,2025-11-07 15:47:30.117952308
2025-11-07 15:47:28.922985,-3,2025-11-07 15:47:30.125644615
2025-11-07 15:47:28.922985,-720,2025-11-07 15:47:30.133336923
2025-11-07 15:47:28.922985,13311,2025-11-07 15:47:30.141029231
2025-11-07 15:47:28.922985,-3,2025-11-07 15:47:30.148721538
2025-11-07 15:47:28.922985,-715,2025-11-07 15:47:30.156413846
2025-11-07 15:47:28.922985,13823,2025-11-07 15:47:30.164106154
2025-11-07 15:47:28.922985,-3,2025-11-07 15:47:30.171798462
2025-11-07 15:47:28.922985,-720,2025-11-07 15:47:30.179490769
2025-11-07 15:47:28.922985,11519,2025-11-07 15:47:30.187183077
2025-11-07 15:47:28.922985,-3,2025-11-07 15:47:30.194875385
2025-11-07 15:47:28.922985,-734,2025-11-07 15:47:30.202567692
2025-11-07 15:47:28.922985,4607,2025-11-07 15:47:30.210260000
2025-11-07 15:47:28.922985,-3,2025-11-07 15:47:30.217952308
2025-11-07 15:47:28.922985,-767,2025-11-07 15:47:30.225644615
2025-11-07 15:47:28.922985,-4353,2025-11-07 15:47:30.233336923
2025-11-07 15:47:28.922985,-4,2025-11-07 15:47:30.241029231
2025-11-07 15:47:28.922985,-798,2025-11-07 15:47:30.248721538
2025-11-07 15:47:28.922985,-9217,2025-11-07 15:47:30.256413846
2025-11-07 15:47:28.922985,-4,2025-11-07 15:47:30.264106154
2025-11-07 15:47:28.922985,-815,2025-11-07 15:47:30.271798462
2025-11-07 15:47:28.922985,-13057,2025-11-07 15:47:30.279490769
2025-11-07 15:47:28.922985,-4,2025-11-07 15:47:30.287183077
2025-11-07 15:47:28.922985,-820,2025-11-07 15:47:30.294875385
2025-11-07 15:47:28.922985,-13569,2025-11-07 15:47:30.302567692
2025-11-07 15:47:28.922985,-4,2025-11-07 15:47:30.310260000
2025-11-07 15:47:28.922985,-825,2025-11-07 15:47:30.317952308
2025-11-07 15:47:29.485529,-827,2025-11-07 15:47:30.325644615
2025-11-07 15:47:29.485529,-15361,2025-11-07 15:47:30.333336923
2025-11-07 15:47:29.485529,-4,2025-11-07 15:47:30.341029230
2025-11-07 15:47:29.485529,-832,2025-11-07 15:47:30.348721538
2025-11-07 15:47:29.485529,-15361,2025-11-07 15:47:30.356413846
2025-11-07 15:47:29.485529,-4,2025-11-07 15:47:30.364106154
2025-11-07 15:47:29.485529,-829,2025-11-07 15:47:30.371798462
2025-11-07 15:47:29.485529,-15361,2025-11-07 15:47:30.379490769
2025-11-07 15:47:29.485529,-4,2025-11-07 15:47:30.387183077
2025-11-07 15:47:29.485529,-820,2025-11-07 15:47:30.394875385
2025-11-07 15:47:29.485529,-10497,2025-11-07 15:47:30.402567692
2025-11-07 15:47:29.485529,-4,2025-11-07 15:47:30.410260000
2025-11-07 15:47:29.485529,-813,2025-11-07 15:47:30.417952308
2025-11-07 15:47:29.485529,-13057,2025-11-07 15:47:30.425644615
2025-11-07 15:47:29.485529,-4,2025-11-07 15:47:30.433336923
2025-11-07 15:47:29.485529,-817,2025-11-07 15:47:30.441029231
2025-11-07 15:47:29.485529,-11265,2025-11-07 15:47:30.448721538
2025-11-07 15:47:29.485529,-4,2025-11-07 15:47:30.456413846
2025-11-07 15:47:29.485529,-815,2025-11-07 15:47:30.464106154
2025-11-07 15:47:29.485529,-11777,2025-11-07 15:47:30.471798462
2025-11-07 15:47:29.485529,-4,2025-11-07 15:47:30.479490769
2025-11-07 15:47:29.485529,-813,2025-11-07 15:47:30.487183077
2025-11-07 15:47:29.485529,-11777,2025-11-07 15:47:30.494875385
2025-11-07 15:47:29.485529,-4,2025-11-07 15:47:30.502567692
2025-11-07 15:47:29.485529,-817,2025-11-07 15:47:30.510260000
2025-11-07 15:47:29.485529,-11777,2025-11-07 15:47:30.517952308
2025-11-07 15:47:29.485529,-4,2025-11-07 15:47:30.525644615
2025-11-07 15:47:29.485529,-815,2025-11-07 15:47:30.533336923
2025-11-07 15:47:29.485529,-11777,2025-11-07 15:47:30.541029231
2025-11-07 15:47:29.485529,-4,2025-11-07 15:47:30.548721538
2025-11-07 15:47:29.485529,-815,2025-11-07 15:47:30.556413846
2025-11-07 15:47:29.485529,-13057,2025-11-07 15:47:30.564106154
2025-11-07 15:47:29.485529,-4,2025-11-07 15:47:30.571798462
2025-11-07 15:47:29.485529,-820,2025-11-07 15:47:30.579490769
2025-11-07 15:47:29.485529,-13057,2025-11-07 15:47:30.587183077
2025-11-07 15:47:29.485529,-4,2025-11-07 15:47:30.594875385
2025-11-07 15:47:29.485529,-820,2025-11-07 15:47:30.602567692
2025-11-07 15:47:29.485529,-13057,2025-11-07 15:47:30.610260000
2025-11-07 15:47:29.485529,-4,2025-11-07 15:47:30.617952308
2025-11-07 15:47:29.485529,-817,2025-11-07 15:47:30.625644615
2025-11-07 15:47:29.485529,-13057,2025-11-07 15:47:30.633336923
2025-11-07 15:47:29.485529,-4,2025-11-07 15:47:30.641029231
2025-11-07 15:47:29.485529,-820,2025-11-07 15:47:30.648721538
2025-11-07 15:47:29.485529,-11265,2025-11-07 15:47:30.656413846
2025-11-07 15:47:29.485529,-4,2025-11-07 15:47:30.664106154
2025-11-07 15:47:29.485529,-808,2025-11-07 15:47:30.671798462
2025-11-07 15:47:29.485529,-11777,2025-11-07 15:47:30.679490769
2025-11-07 15:47:29.485529,-4,2025-11-07 15:47:30.687183077
2025-11-07 15:47:29.485529,-817,2025-11-07 15:47:30.694875385
2025-11-07 15:47:29.485529,-11265,2025-11-07 15:47:30.702567692
2025-11-07 15:47:29.485529,-4,2025-11-07 15:47:30.710260000
2025-11-07 15:47:29.485529,-813,2025-11-07 15:47:30.717952308
2025-11-07 15:47:29.485529,-11265,2025-11-07 15:47:30.725644615
2025-11-07 15:47:29.485529,-4,2025-11-07 15:47:30.733336923
2025-11-07 15:47:29.485529,-810,2025-11-07 15:47:30.741029231
2025-11-07 15:47:29.485529,-10497,2025-11-07 15:47:30.748721538
2025-11-07 15:47:29.485529,-4,2025-11-07 15:47:30.756413846
2025-11-07 15:47:29.485529,-808,2025-11-07 15:47:30.764106154
2025-11-07 15:47:29.485529,-9217,2025-11-07 15:47:30.771798462
2025-11-07 15:47:29.485529,-4,2025-11-07 15:47:30.779490769
2025-11-07 15:47:29.485529,-805,2025-11-07 15:47:30.787183077
2025-11-07 15:47:29.485529,-8705,2025-11-07 15:47:30.794875385
2025-11-07 15:47:29.485529,-4,2025-11-07 15:47:30.802567692
2025-11-07 15:47:29.485529,-798,2025-11-07 15:47:30.810260000
2025-11-07 15:47:29.485529,-8193,2025-11-07 15:47:30.817952308
2025-11-07 15:47:29.485529,-4,2025-11-07 15:47:30.825644615
2025-11-07 15:47:29.485529,-805,2025-11-07 15:47:30.833336923
2025-11-07 15:47:29.485529,-8705,2025-11-07 15:47:30.841029231
2025-11-07 15:47:29.485529,-4,2025-11-07 15:47:30.848721538
2025-11-07 15:47:29.485529,-803,2025-11-07 15:47:30.856413846
2025-11-07 15:47:29.485529,-8193,2025-11-07 15:47:30.864106154
2025-11-07 15:47:29.485529,-4,2025-11-07 15:47:30.871798462
2025-11-07 15:47:29.485529,-794,2025-11-07 15:47:30.879490769
2025-11-07 15:47:29.485529,-5121,2025-11-07 15:47:30.887183077
2025-11-07 15:47:29.485529,-4,2025-11-07 15:47:30.894875385
2025-11-07 15:47:29.485529,-789,2025-11-07 15:47:30.902567692
2025-11-07 15:47:29.485529,-5633,2025-11-07 15:47:30.910260000
2025-11-07 15:47:29.485529,-4,2025-11-07 15:47:30.917952308
2025-11-07 15:47:29.485529,-794,2025-11-07 15:47:30.925644615
2025-11-07 15:47:29.485529,-5633,2025-11-07 15:47:30.933336923
2025-11-07 15:47:29.485529,-4,2025-11-07 15:47:30.941029231
2025-11-07 15:47:29.485529,-784,2025-11-07 15:47:30.948721538
2025-11-07 15:47:29.485529,-3329,2025-11-07 15:47:30.956413846
2025-11-07 15:47:29.485529,-4,2025-11-07 15:47:30.964106154
2025-11-07 15:47:29.485529,-784,2025-11-07 15:47:30.971798462
2025-11-07 15:47:29.485529,-3841,2025-11-07 15:47:30.979490769
2025-11-07 15:47:29.485529,-4,2025-11-07 15:47:30.987183077
2025-11-07 15:47:29.485529,-782,2025-11-07 15:47:30.994875385
2025-11-07 15:47:29.485529,-3329,2025-11-07 15:47:31.002567692
2025-11-07 15:47:29.485529,-4,2025-11-07 15:47:31.010260000
2025-11-07 15:47:29.485529,-777,2025-11-07 15:47:31.017952308
2025-11-07 15:47:29.485529,-769,2025-11-07 15:47:31.025644615
2025-11-07 15:47:29.485529,-4,2025-11-07 15:47:31.033336923
2025-11-07 15:47:29.485529,-772,2025-11-07 15:47:31.041029231
2025-11-07 15:47:29.485529,-769,2025-11-07 15:47:31.048721538
2025-11-07 15:47:29.485529,-4,2025-11-07 15:47:31.056413846
2025-11-07 15:47:29.485529,-770,2025-11-07 15:47:31.064106154
2025-11-07 15:47:29.485529,1023,2025-11-07 15:47:31.071798462
2025-11-07 15:47:29.485529,-3,2025-11-07 15:47:31.079490769
2025-11-07 15:47:29.485529,-763,2025-11-07 15:47:31.087183077
2025-11-07 15:47:29.485529,1023,2025-11-07 15:47:31.094875385
2025-11-07 15:47:29.485529,-3,2025-11-07 15:47:31.102567692
2025-11-07 15:47:29.485529,-770,2025-11-07 15:47:31.110260000
2025-11-07 15:47:29.485529,-257,2025-11-07 15:47:31.117952308
2025-11-07 15:47:29.485529,-4,2025-11-07 15:47:31.125644615
2025-11-07 15:47:29.485529,-770,2025-11-07 15:47:31.133336923
2025-11-07 15:47:29.485529,511,2025-11-07 15:47:31.141029231
2025-11-07 15:47:29.485529,-3,2025-11-07 15:47:31.148721538
2025-11-07 15:47:29.485529,-746,2025-11-07 15:47:31.156413846
2025-11-07 15:47:30.028855,-724,2025-11-07 15:47:31.164106154
2025-11-07 15:47:30.028855,12031,2025-11-07 15:47:31.171798462
2025-11-07 15:47:30.028855,-3,2025-11-07 15:47:31.179490769
2025-11-07 15:47:30.028855,-732,2025-11-07 15:47:31.187183077
2025-11-07 15:47:30.028855,8447,2025-11-07 15:47:31.194875385
2025-11-07 15:47:30.028855,-3,2025-11-07 15:47:31.202567692
2025-11-07 15:47:30.028855,-734,2025-11-07 15:47:31.210260000
2025-11-07 15:47:30.028855,10239,2025-11-07 15:47:31.217952308
2025-11-07 15:47:30.028855,-3,2025-11-07 15:47:31.225644615
2025-11-07 15:47:30.028855,-727,2025-11-07 15:47:31.233336923
2025-11-07 15:47:30.028855,12031,2025-11-07 15:47:31.241029231
2025-11-07 15:47:30.028855,-3,2025-11-07 15:47:31.248721538
2025-11-07 15:47:30.028855,-705,2025-11-07 15:47:31.256413846
2025-11-07 15:47:30.028855,16895,2025-11-07 15:47:31.264106154
2025-11-07 15:47:30.028855,-3,2025-11-07 15:47:31.271798462
2025-11-07 15:47:30.028855,-717,2025-11-07 15:47:31.279490769
2025-11-07 15:47:30.028855,7167,2025-11-07 15:47:31.287183077
2025-11-07 15:47:30.028855,-3,2025-11-07 15:47:31.294875385
2025-11-07 15:47:30.028855,-734,2025-11-07 15:47:31.302567692
2025-11-07 15:47:30.028855,-10753,2025-11-07 15:47:31.310260000
2025-11-07 15:47:30.028855,-3,2025-11-07 15:47:31.317952308
2025-11-07 15:47:30.028855,-195,2025-11-07 15:47:31.325644615
2025-11-07 15:47:30.028855,13567,2025-11-07 15:47:31.333336923
2025-11-07 15:47:30.028855,0,2025-11-07 15:47:31.341029230
2025-11-07 15:47:30.028855,-114,2025-11-07 15:47:31.348721538
2025-11-07 15:47:30.028855,-4097,2025-11-07 15:47:31.356413846
2025-11-07 15:47:30.028855,-3,2025-11-07 15:47:31.364106154
2025-11-07 15:47:30.028855,-710,2025-11-07 15:47:31.371798462
2025-11-07 15:47:30.028855,27391,2025-11-07 15:47:31.379490769
2025-11-07 15:47:30.028855,-3,2025-11-07 15:47:31.387183077
2025-11-07 15:47:30.028855,-708,2025-11-07 15:47:31.394875385
2025-11-07 15:47:30.028855,-4353,2025-11-07 15:47:31.402567692
2025-11-07 15:47:30.028855,-4,2025-11-07 15:47:31.410260000
2025-11-07 15:47:30.028855,-763,2025-11-07 15:47:31.417952308
2025-11-07 15:47:30.028855,8447,2025-11-07 15:47:31.425644615
2025-11-07 15:47:30.028855,-3,2025-11-07 15:47:31.433336923
2025-11-07 15:47:30.028855,-746,2025-11-07 15:47:31.441029231
2025-11-07 15:47:30.028855,7679,2025-11-07 15:47:31.448721538
2025-11-07 15:47:30.028855,-3,2025-11-07 15:47:31.456413846
2025-11-07 15:47:30.028855,-722,2025-11-07 15:47:31.464106154
2025-11-07 15:47:30.028855,13311,2025-11-07 15:47:31.471798462
2025-11-07 15:47:30.028855,-3,2025-11-07 15:47:31.479490769
2025-11-07 15:47:30.028855,-712,2025-11-07 15:47:31.487183077
2025-11-07 15:47:30.028855,15103,2025-11-07 15:47:31.494875385
2025-11-07 15:47:30.028855,-3,2025-11-07 15:47:31.502567692
2025-11-07 15:47:30.028855,-705,2025-11-07 15:47:31.510260000
2025-11-07 15:47:30.028855,18687,2025-11-07 15:47:31.517952308
2025-11-07 15:47:30.028855,-3,2025-11-07 15:47:31.525644615
2025-11-07 15:47:30.028855,-691,2025-11-07 15:47:31.533336923
2025-11-07 15:47:30.028855,21759,2025-11-07 15:47:31.541029231
2025-11-07 15:47:30.028855,-3,2025-11-07 15:47:31.548721538
2025-11-07 15:47:30.028855,-677,2025-11-07 15:47:31.556413846
2025-11-07 15:47:30.028855,25343,2025-11-07 15:47:31.564106154
2025-11-07 15:47:30.028855,-3,2025-11-07 15:47:31.571798462
2025-11-07 15:47:30.028855,-665,2025-11-07 15:47:31.579490769
2025-11-07 15:47:30.028855,27391,2025-11-07 15:47:31.587183077
2025-11-07 15:47:30.028855,-3,2025-11-07 15:47:31.594875385
2025-11-07 15:47:30.028855,-658,2025-11-07 15:47:31.602567692
2025-11-07 15:47:30.028855,30463,2025-11-07 15:47:31.610260000
2025-11-07 15:47:30.028855,-3,2025-11-07 15:47:31.617952308
2025-11-07 15:47:30.028855,-643,2025-11-07 15:47:31.625644615
2025-11-07 15:47:30.028855,-31489,2025-11-07 15:47:31.633336923
2025-11-07 15:47:30.028855,-3,2025-11-07 15:47:31.641029231
2025-11-07 15:47:30.028855,-629,2025-11-07 15:47:31.648721538
2025-11-07 15:47:30.028855,-27137,2025-11-07 15:47:31.656413846
2025-11-07 15:47:30.028855,-3,2025-11-07 15:47:31.664106154
2025-11-07 15:47:30.028855,-610,2025-11-07 15:47:31.671798462
2025-11-07 15:47:30.028855,-21761,2025-11-07 15:47:31.679490769
2025-11-07 15:47:30.028855,-3,2025-11-07 15:47:31.687183077
2025-11-07 15:47:30.028855,-586,2025-11-07 15:47:31.694875385
2025-11-07 15:47:30.028855,-16385,2025-11-07 15:47:31.702567692
2025-11-07 15:47:30.028855,-3,2025-11-07 15:47:31.710260000
2025-11-07 15:47:30.028855,-574,2025-11-07 15:47:31.717952308
2025-11-07 15:47:30.028855,-15617,2025-11-07 15:47:31.725644615
2025-11-07 15:47:30.028855,-3,2025-11-07 15:47:31.733336923
2025-11-07 15:47:30.028855,-579,2025-11-07 15:47:31.741029231
2025-11-07 15:47:30.028855,-17409,2025-11-07 15:47:31.748721538
2025-11-07 15:47:30.028855,-3,2025-11-07 15:47:31.756413846
2025-11-07 15:47:30.028855,-588,2025-11-07 15:47:31.764106154
2025-11-07 15:47:30.028855,-22273,2025-11-07 15:47:31.771798462
2025-11-07 15:47:30.028855,-3,2025-11-07 15:47:31.779490769
2025-11-07 15:47:30.028855,-610,2025-11-07 15:47:31.787183077
2025-11-07 15:47:30.028855,-25345,2025-11-07 15:47:31.794875385
2025-11-07 15:47:30.028855,-3,2025-11-07 15:47:31.802567692
2025-11-07 15:47:30.028855,-619,2025-11-07 15:47:31.810260000
2025-11-07 15:47:30.028855,-28417,2025-11-07 15:47:31.817952308
2025-11-07 15:47:30.028855,-3,2025-11-07 15:47:31.825644615
2025-11-07 15:47:30.028855,-622,2025-11-07 15:47:31.833336923
2025-11-07 15:47:30.028855,-27137,2025-11-07 15:47:31.841029231
2025-11-07 15:47:30.028855,-3,2025-11-07 15:47:31.848721538
2025-11-07 15:47:30.028855,-617,2025-11-07 15:47:31.856413846
2025-11-07 15:47:30.028855,-26113,2025-11-07 15:47:31.864106154
2025-11-07 15:47:30.028855,-3,2025-11-07 15:47:31.871798462
2025-11-07 15:47:30.028855,-610,2025-11-07 15:47:31.879490769
2025-11-07 15:47:30.028855,-23553,2025-11-07 15:47:31.887183077
2025-11-07 15:47:30.028855,-3,2025-11-07 15:47:31.894875385
2025-11-07 15:47:30.028855,-598,2025-11-07 15:47:31.902567692
2025-11-07 15:47:30.028855,-20481,2025-11-07 15:47:31.910260000
2025-11-07 15:47:30.028855,-3,2025-11-07 15:47:31.917952308
2025-11-07 15:47:30.028855,-591,2025-11-07 15:47:31.925644615
2025-11-07 15:47:30.028855,-18177,2025-11-07 15:47:31.933336923
2025-11-07 15:47:30.028855,-3,2025-11-07 15:47:31.941029231
2025-11-07 15:47:30.028855,-579,2025-11-07 15:47:31.948721538
2025-11-07 15:47:30.028855,-16385,2025-11-07 15:47:31.956413846
2025-11-07 15:47:30.028855,-3,2025-11-07 15:47:31.964106154
2025-11-07 15:47:30.028855,-567,2025-11-07 15:47:31.971798462
2025-11-07 15:47:30.028855,-12033,2025-11-07 15:47:31.979490769
2025-11-07 15:47:30.028855,-3,2025-11-07 15:47:31.987183077
2025-11-07 15:47:30.028855,-560,2025-11-07 15:47:31.994875385
2025-11-07 15:47:30.635201,-560,2025-11-07 15:47:32.002567692
2025-11-07 15:47:30.635201,-10241,2025-11-07 15:47:32.010260000
2025-11-07 15:47:30.635201,-3,2025-11-07 15:47:32.017952308
2025-11-07 15:47:30.635201,-550,2025-11-07 15:47:32.025644615
2025-11-07 15:47:30.635201,-8961,2025-11-07 15:47:32.033336923
2025-11-07 15:47:30.635201,-3,2025-11-07 15:47:32.041029231
2025-11-07 15:47:30.635201,-534,2025-11-07 15:47:32.048721538
2025-11-07 15:47:30.635201,-1537,2025-11-07 15:47:32.056413846
2025-11-07 15:47:30.635201,-3,2025-11-07 15:47:32.064106154
2025-11-07 15:47:30.635201,-522,2025-11-07 15:47:32.071798462
2025-11-07 15:47:30.635201,-4097,2025-11-07 15:47:32.079490769
2025-11-07 15:47:30.635201,-3,2025-11-07 15:47:32.087183077
2025-11-07 15:47:30.635201,-529,2025-11-07 15:47:32.094875385
2025-11-07 15:47:30.635201,-2305,2025-11-07 15:47:32.102567692
2025-11-07 15:47:30.635201,-3,2025-11-07 15:47:32.110260000
2025-11-07 15:47:30.635201,-522,2025-11-07 15:47:32.117952308
2025-11-07 15:47:30.635201,-1025,2025-11-07 15:47:32.125644615
2025-11-07 15:47:30.635201,-3,2025-11-07 15:47:32.133336923
2025-11-07 15:47:30.635201,-512,2025-11-07 15:47:32.141029231
2025-11-07 15:47:30.635201,255,2025-11-07 15:47:32.148721538
2025-11-07 15:47:30.635201,-2,2025-11-07 15:47:32.156413846
2025-11-07 15:47:30.635201,-515,2025-11-07 15:47:32.164106154
2025-11-07 15:47:30.635201,767,2025-11-07 15:47:32.171798462
2025-11-07 15:47:30.635201,-2,2025-11-07 15:47:32.179490769
2025-11-07 15:47:30.635201,-505,2025-11-07 15:47:32.187183077
2025-11-07 15:47:30.635201,2047,2025-11-07 15:47:32.194875385
2025-11-07 15:47:30.635201,-2,2025-11-07 15:47:32.202567692
2025-11-07 15:47:30.635201,-505,2025-11-07 15:47:32.210260000
2025-11-07 15:47:30.635201,3327,2025-11-07 15:47:32.217952308
2025-11-07 15:47:30.635201,-2,2025-11-07 15:47:32.225644615
2025-11-07 15:47:30.635201,-495,2025-11-07 15:47:32.233336923
2025-11-07 15:47:30.635201,5119,2025-11-07 15:47:32.241029231
2025-11-07 15:47:30.635201,-2,2025-11-07 15:47:32.248721538
2025-11-07 15:47:30.635201,-491,2025-11-07 15:47:32.256413846
2025-11-07 15:47:30.635201,5631,2025-11-07 15:47:32.264106154
2025-11-07 15:47:30.635201,-2,2025-11-07 15:47:32.271798462
2025-11-07 15:47:30.635201,-488,2025-11-07 15:47:32.279490769
2025-11-07 15:47:30.635201,6911,2025-11-07 15:47:32.287183077
2025-11-07 15:47:30.635201,-2,2025-11-07 15:47:32.294875385
2025-11-07 15:47:30.635201,-486,2025-11-07 15:47:32.302567692
2025-11-07 15:47:30.635201,8191,2025-11-07 15:47:32.310260000
2025-11-07 15:47:30.635201,-2,2025-11-07 15:47:32.317952308
2025-11-07 15:47:30.635201,-474,2025-11-07 15:47:32.325644615
2025-11-07 15:47:30.635201,9983,2025-11-07 15:47:32.333336923
2025-11-07 15:47:30.635201,-2,2025-11-07 15:47:32.341029230
2025-11-07 15:47:30.635201,-474,2025-11-07 15:47:32.348721538
2025-11-07 15:47:30.635201,10495,2025-11-07 15:47:32.356413846
2025-11-07 15:47:30.635201,-2,2025-11-07 15:47:32.364106154
2025-11-07 15:47:30.635201,-469,2025-11-07 15:47:32.371798462
2025-11-07 15:47:30.635201,11263,2025-11-07 15:47:32.379490769
2025-11-07 15:47:30.635201,-2,2025-11-07 15:47:32.387183077
2025-11-07 15:47:30.635201,-462,2025-11-07 15:47:32.394875385
2025-11-07 15:47:30.635201,13567,2025-11-07 15:47:32.402567692
2025-11-07 15:47:30.635201,-2,2025-11-07 15:47:32.410260000
2025-11-07 15:47:30.635201,-462,2025-11-07 15:47:32.417952308
2025-11-07 15:47:30.635201,13567,2025-11-07 15:47:32.425644615
2025-11-07 15:47:30.635201,-2,2025-11-07 15:47:32.433336923
2025-11-07 15:47:30.635201,-460,2025-11-07 15:47:32.441029231
2025-11-07 15:47:30.635201,14335,2025-11-07 15:47:32.448721538
2025-11-07 15:47:30.635201,-2,2025-11-07 15:47:32.456413846
2025-11-07 15:47:30.635201,-453,2025-11-07 15:47:32.464106154
2025-11-07 15:47:30.635201,16127,2025-11-07 15:47:32.471798462
2025-11-07 15:47:30.635201,-2,2025-11-07 15:47:32.479490769
2025-11-07 15:47:30.635201,-448,2025-11-07 15:47:32.487183077
2025-11-07 15:47:30.635201,18431,2025-11-07 15:47:32.494875385
2025-11-07 15:47:30.635201,-2,2025-11-07 15:47:32.502567692
2025-11-07 15:47:30.635201,-438,2025-11-07 15:47:32.510260000
2025-11-07 15:47:30.635201,18431,2025-11-07 15:47:32.517952308
2025-11-07 15:47:30.635201,-2,2025-11-07 15:47:32.525644615
2025-11-07 15:47:30.635201,-438,2025-11-07 15:47:32.533336923
2025-11-07 15:47:30.635201,19199,2025-11-07 15:47:32.541029231
2025-11-07 15:47:30.635201,-2,2025-11-07 15:47:32.548721538
2025-11-07 15:47:30.635201,-443,2025-11-07 15:47:32.556413846
2025-11-07 15:47:30.635201,17919,2025-11-07 15:47:32.564106154
2025-11-07 15:47:30.635201,-2,2025-11-07 15:47:32.571798462
2025-11-07 15:47:30.635201,-436,2025-11-07 15:47:32.579490769
2025-11-07 15:47:30.635201,22783,2025-11-07 15:47:32.587183077
2025-11-07 15:47:30.635201,-2,2025-11-07 15:47:32.594875385
2025-11-07 15:47:30.635201,-405,2025-11-07 15:47:32.602567692
2025-11-07 15:47:30.635201,29439,2025-11-07 15:47:32.610260000
2025-11-07 15:47:30.635201,-2,2025-11-07 15:47:32.617952308
2025-11-07 15:47:30.635201,-407,2025-11-07 15:47:32.625644615
2025-11-07 15:47:30.635201,25343,2025-11-07 15:47:32.633336923
2025-11-07 15:47:30.635201,-2,2025-11-07 15:47:32.641029231
2025-11-07 15:47:30.635201,-412,2025-11-07 15:47:32.648721538
2025-11-07 15:47:30.635201,27135,2025-11-07 15:47:32.656413846
2025-11-07 15:47:30.635201,-2,2025-11-07 15:47:32.664106154
2025-11-07 15:47:30.635201,-407,2025-11-07 15:47:32.671798462
2025-11-07 15:47:30.635201,27647,2025-11-07 15:47:32.679490769
2025-11-07 15:47:30.635201,-2,2025-11-07 15:47:32.687183077
2025-11-07 15:47:30.635201,-398,2025-11-07 15:47:32.694875385
2025-11-07 15:47:30.635201,29439,2025-11-07 15:47:32.702567692
2025-11-07 15:47:30.635201,-2,2025-11-07 15:47:32.710260000
2025-11-07 15:47:30.635201,-410,2025-11-07 15:47:32.717952308
2025-11-07 15:47:30.635201,19711,2025-11-07 15:47:32.725644615
2025-11-07 15:47:30.635201,-2,2025-11-07 15:47:32.733336923
2025-11-07 15:47:30.635201,-436,2025-11-07 15:47:32.741029231
2025-11-07 15:47:30.635201,-3585,2025-11-07 15:47:32.748721538
2025-11-07 15:47:30.635201,-2,2025-11-07 15:47:32.756413846
2025-11-07 15:47:30.635201,76,2025-11-07 15:47:32.764106154
2025-11-07 15:47:30.635201,14336,2025-11-07 15:47:32.771798462
2025-11-07 15:47:30.635201,1,2025-11-07 15:47:32.779490769
2025-11-07 15:47:30.635201,135,2025-11-07 15:47:32.787183077
2025-11-07 15:47:30.635201,-768,2025-11-07 15:47:32.794875385
2025-11-07 15:47:30.635201,-2,2025-11-07 15:47:32.802567692
2025-11-07 15:47:30.635201,-414,2025-11-07 15:47:32.810260000
2025-11-07 15:47:30.635201,-23297,2025-11-07 15:47:32.817952308
2025-11-07 15:47:30.635201,-2,2025-11-07 15:47:32.825644615
2025-11-07 15:47:30.635201,-391,2025-11-07 15:47:32.833336923
2025-11-07 15:47:31.198883,-476,2025-11-07 15:47:32.841029231
2025-11-07 15:47:31.198883,14335,2025-11-07 15:47:32.848721538
2025-11-07 15:47:31.198883,-2,2025-11-07 15:47:32.856413846
2025-11-07 15:47:31.198883,-431,2025-11-07 15:47:32.864106154
2025-11-07 15:47:31.198883,17919,2025-11-07 15:47:32.871798462
2025-11-07 15:47:31.198883,-2,2025-11-07 15:47:32.879490769
2025-11-07 15:47:31.198883,-438,2025-11-07 15:47:32.887183077
2025-11-07 15:47:31.198883,22783,2025-11-07 15:47:32.894875385
2025-11-07 15:47:31.198883,-2,2025-11-07 15:47:32.902567692
2025-11-07 15:47:31.198883,-422,2025-11-07 15:47:32.910260000
2025-11-07 15:47:31.198883,24063,2025-11-07 15:47:32.917952308
2025-11-07 15:47:31.198883,-2,2025-11-07 15:47:32.925644615
2025-11-07 15:47:31.198883,-410,2025-11-07 15:47:32.933336923
2025-11-07 15:47:31.198883,29439,2025-11-07 15:47:32.941029231
2025-11-07 15:47:31.198883,-2,2025-11-07 15:47:32.948721538
2025-11-07 15:47:31.198883,-381,2025-11-07 15:47:32.956413846
2025-11-07 15:47:31.198883,-29185,2025-11-07 15:47:32.964106154
2025-11-07 15:47:31.198883,-2,2025-11-07 15:47:32.971798462
2025-11-07 15:47:31.198883,-379,2025-11-07 15:47:32.979490769
2025-11-07 15:47:31.198883,-31233,2025-11-07 15:47:32.987183077
2025-11-07 15:47:31.198883,-2,2025-11-07 15:47:32.994875385
2025-11-07 15:47:31.198883,-367,2025-11-07 15:47:33.002567692
2025-11-07 15:47:31.198883,-26881,2025-11-07 15:47:33.010260000
2025-11-07 15:47:31.198883,-2,2025-11-07 15:47:33.017952308
2025-11-07 15:47:31.198883,-362,2025-11-07 15:47:33.025644615
2025-11-07 15:47:31.198883,-25089,2025-11-07 15:47:33.033336923
2025-11-07 15:47:31.198883,-2,2025-11-07 15:47:33.041029231
2025-11-07 15:47:31.198883,-345,2025-11-07 15:47:33.048721538
2025-11-07 15:47:31.198883,-20737,2025-11-07 15:47:33.056413846
2025-11-07 15:47:31.198883,-2,2025-11-07 15:47:33.064106154
2025-11-07 15:47:31.198883,-336,2025-11-07 15:47:33.071798462
2025-11-07 15:47:31.198883,-17153,2025-11-07 15:47:33.079490769
2025-11-07 15:47:31.198883,-2,2025-11-07 15:47:33.087183077
2025-11-07 15:47:31.198883,-309,2025-11-07 15:47:33.094875385
2025-11-07 15:47:31.198883,-11521,2025-11-07 15:47:33.102567692
2025-11-07 15:47:31.198883,-2,2025-11-07 15:47:33.110260000
2025-11-07 15:47:31.198883,-295,2025-11-07 15:47:33.117952308
2025-11-07 15:47:31.198883,-7425,2025-11-07 15:47:33.125644615
2025-11-07 15:47:31.198883,-2,2025-11-07 15:47:33.133336923
2025-11-07 15:47:31.198883,-271,2025-11-07 15:47:33.141029231
2025-11-07 15:47:31.198883,-2561,2025-11-07 15:47:33.148721538
2025-11-07 15:47:31.198883,-2,2025-11-07 15:47:33.156413846
2025-11-07 15:47:31.198883,-271,2025-11-07 15:47:33.164106154
2025-11-07 15:47:31.198883,-5377,2025-11-07 15:47:33.171798462
2025-11-07 15:47:31.198883,-2,2025-11-07 15:47:33.179490769
2025-11-07 15:47:31.198883,-286,2025-11-07 15:47:33.187183077
2025-11-07 15:47:31.198883,-11009,2025-11-07 15:47:33.194875385
2025-11-07 15:47:31.198883,-2,2025-11-07 15:47:33.202567692
2025-11-07 15:47:31.198883,-317,2025-11-07 15:47:33.210260000
2025-11-07 15:47:31.198883,-19457,2025-11-07 15:47:33.217952308
2025-11-07 15:47:31.198883,-2,2025-11-07 15:47:33.225644615
2025-11-07 15:47:31.198883,-340,2025-11-07 15:47:33.233336923
2025-11-07 15:47:31.198883,-22017,2025-11-07 15:47:33.241029231
2025-11-07 15:47:31.198883,-2,2025-11-07 15:47:33.248721538
2025-11-07 15:47:31.198883,-350,2025-11-07 15:47:33.256413846
2025-11-07 15:47:31.198883,-25089,2025-11-07 15:47:33.264106154
2025-11-07 15:47:31.198883,-2,2025-11-07 15:47:33.271798462
2025-11-07 15:47:31.198883,-350,2025-11-07 15:47:33.279490769
2025-11-07 15:47:31.198883,-22017,2025-11-07 15:47:33.287183077
2025-11-07 15:47:31.198883,-2,2025-11-07 15:47:33.294875385
2025-11-07 15:47:31.198883,-343,2025-11-07 15:47:33.302567692
2025-11-07 15:47:31.198883,-22017,2025-11-07 15:47:33.310260000
2025-11-07 15:47:31.198883,-2,2025-11-07 15:47:33.317952308
2025-11-07 15:47:31.198883,-338,2025-11-07 15:47:33.325644615
2025-11-07 15:47:31.198883,-19457,2025-11-07 15:47:33.333336923
2025-11-07 15:47:31.198883,-2,2025-11-07 15:47:33.341029230
2025-11-07 15:47:31.198883,-326,2025-11-07 15:47:33.348721538
2025-11-07 15:47:31.198883,-16385,2025-11-07 15:47:33.356413846
2025-11-07 15:47:31.198883,-2,2025-11-07 15:47:33.364106154
2025-11-07 15:47:31.198883,-319,2025-11-07 15:47:33.371798462
2025-11-07 15:47:31.198883,-15361,2025-11-07 15:47:33.379490769
2025-11-07 15:47:31.198883,-2,2025-11-07 15:47:33.387183077
2025-11-07 15:47:31.198883,-309,2025-11-07 15:47:33.394875385
2025-11-07 15:47:31.198883,-12801,2025-11-07 15:47:33.402567692
2025-11-07 15:47:31.198883,-2,2025-11-07 15:47:33.410260000
2025-11-07 15:47:31.198883,-305,2025-11-07 15:47:33.417952308
2025-11-07 15:47:31.198883,-11521,2025-11-07 15:47:33.425644615
2025-11-07 15:47:31.198883,-2,2025-11-07 15:47:33.433336923
2025-11-07 15:47:31.198883,-298,2025-11-07 15:47:33.441029231
2025-11-07 15:47:31.198883,-10497,2025-11-07 15:47:33.448721538
2025-11-07 15:47:31.198883,-2,2025-11-07 15:47:33.456413846
2025-11-07 15:47:31.198883,-300,2025-11-07 15:47:33.464106154
2025-11-07 15:47:31.198883,-11009,2025-11-07 15:47:33.471798462
2025-11-07 15:47:31.198883,-2,2025-11-07 15:47:33.479490769
2025-11-07 15:47:31.198883,-298,2025-11-07 15:47:33.487183077
2025-11-07 15:47:31.198883,-9729,2025-11-07 15:47:33.494875385
2025-11-07 15:47:31.198883,-2,2025-11-07 15:47:33.502567692
2025-11-07 15:47:31.198883,-298,2025-11-07 15:47:33.510260000
2025-11-07 15:47:31.198883,-11009,2025-11-07 15:47:33.517952308
2025-11-07 15:47:31.198883,-2,2025-11-07 15:47:33.525644615
2025-11-07 15:47:31.198883,-298,2025-11-07 15:47:33.533336923
2025-11-07 15:47:31.198883,-8449,2025-11-07 15:47:33.541029231
2025-11-07 15:47:31.198883,-2,2025-11-07 15:47:33.548721538
2025-11-07 15:47:31.198883,-286,2025-11-07 15:47:33.556413846
2025-11-07 15:47:31.198883,-8449,2025-11-07 15:47:33.564106154
2025-11-07 15:47:31.198883,-2,2025-11-07 15:47:33.571798462
2025-11-07 15:47:31.198883,-293,2025-11-07 15:47:33.579490769
2025-11-07 15:47:31.198883,-7937,2025-11-07 15:47:33.587183077
2025-11-07 15:47:31.198883,-2,2025-11-07 15:47:33.594875385
2025-11-07 15:47:31.198883,-283,2025-11-07 15:47:33.602567692
2025-11-07 15:47:31.198883,-6657,2025-11-07 15:47:33.610260000
2025-11-07 15:47:31.198883,-2,2025-11-07 15:47:33.617952308
2025-11-07 15:47:31.198883,-283,2025-11-07 15:47:33.625644615
2025-11-07 15:47:31.198883,-6145,2025-11-07 15:47:33.633336923
2025-11-07 15:47:31.198883,-2,2025-11-07 15:47:33.641029231
2025-11-07 15:47:31.198883,-283,2025-11-07 15:47:33.648721538
2025-11-07 15:47:31.198883,-6657,2025-11-07 15:47:33.656413846
2025-11-07 15:47:31.198883,-2,2025-11-07 15:47:33.664106154
2025-11-07 15:47:31.198883,-281,2025-11-07 15:47:33.671798462
2025-11-07 15:47:31.745145,-281,2025-11-07 15:47:33.679490769
2025-11-07 15:47:31.745145,-4353,2025-11-07 15:47:33.687183077
2025-11-07 15:47:31.745145,-2,2025-11-07 15:47:33.694875385
2025-11-07 15:47:31.745145,-269,2025-11-07 15:47:33.702567692
2025-11-07 15:47:31.745145,-3585,2025-11-07 15:47:33.710260000
2025-11-07 15:47:31.745145,-2,2025-11-07 15:47:33.717952308
2025-11-07 15:47:31.745145,-271,2025-11-07 15:47:33.725644615
2025-11-07 15:47:31.745145,-3585,2025-11-07 15:47:33.733336923
2025-11-07 15:47:31.745145,-2,2025-11-07 15:47:33.741029231
2025-11-07 15:47:31.745145,-271,2025-11-07 15:47:33.748721538
2025-11-07 15:47:31.745145,-2561,2025-11-07 15:47:33.756413846
2025-11-07 15:47:31.745145,-2,2025-11-07 15:47:33.764106154
2025-11-07 15:47:31.745145,-262,2025-11-07 15:47:33.771798462
2025-11-07 15:47:31.745145,-2561,2025-11-07 15:47:33.779490769
2025-11-07 15:47:31.745145,-2,2025-11-07 15:47:33.787183077
2025-11-07 15:47:31.745145,-264,2025-11-07 15:47:33.794875385
2025-11-07 15:47:31.745145,2559,2025-11-07 15:47:33.802567692
2025-11-07 15:47:31.745145,-1,2025-11-07 15:47:33.810260000
2025-11-07 15:47:31.745145,-240,2025-11-07 15:47:33.817952308
2025-11-07 15:47:31.745145,1791,2025-11-07 15:47:33.825644615
2025-11-07 15:47:31.745145,-1,2025-11-07 15:47:33.833336923
2025-11-07 15:47:31.745145,-252,2025-11-07 15:47:33.841029231
2025-11-07 15:47:31.745145,1791,2025-11-07 15:47:33.848721538
2025-11-07 15:47:31.745145,-1,2025-11-07 15:47:33.856413846
2025-11-07 15:47:31.745145,-255,2025-11-07 15:47:33.864106154
2025-11-07 15:47:31.745145,511,2025-11-07 15:47:33.871798462
2025-11-07 15:47:31.745145,-1,2025-11-07 15:47:33.879490769
2025-11-07 15:47:31.745145,-247,2025-11-07 15:47:33.887183077
2025-11-07 15:47:31.745145,3071,2025-11-07 15:47:33.894875385
2025-11-07 15:47:31.745145,-1,2025-11-07 15:47:33.902567692
2025-11-07 15:47:31.745145,-247,2025-11-07 15:47:33.910260000
2025-11-07 15:47:31.745145,1791,2025-11-07 15:47:33.917952308
2025-11-07 15:47:31.745145,-1,2025-11-07 15:47:33.925644615
2025-11-07 15:47:31.745145,-247,2025-11-07 15:47:33.933336923
2025-11-07 15:47:31.745145,3071,2025-11-07 15:47:33.941029231
2025-11-07 15:47:31.745145,-1,2025-11-07 15:47:33.948721538
2025-11-07 15:47:31.745145,-243,2025-11-07 15:47:33.956413846
2025-11-07 15:47:31.745145,4863,2025-11-07 15:47:33.964106154
2025-11-07 15:47:31.745145,-1,2025-11-07 15:47:33.971798462
2025-11-07 15:47:31.745145,-231,2025-11-07 15:47:33.979490769
2025-11-07 15:47:31.745145,6143,2025-11-07 15:47:33.987183077
2025-11-07 15:47:31.745145,-1,2025-11-07 15:47:33.994875385
2025-11-07 15:47:31.745145,-243,2025-11-07 15:47:34.002567692
2025-11-07 15:47:31.745145,3583,2025-11-07 15:47:34.010260000
2025-11-07 15:47:31.745145,-1,2025-11-07 15:47:34.017952308
2025-11-07 15:47:31.745145,-240,2025-11-07 15:47:34.025644615
2025-11-07 15:47:31.745145,3583,2025-11-07 15:47:34.033336923
2025-11-07 15:47:31.745145,-1,2025-11-07 15:47:34.041029231
2025-11-07 15:47:31.745145,-247,2025-11-07 15:47:34.048721538
2025-11-07 15:47:31.745145,2559,2025-11-07 15:47:34.056413846
2025-11-07 15:47:31.745145,-1,2025-11-07 15:47:34.064106154
2025-11-07 15:47:31.745145,-231,2025-11-07 15:47:34.071798462
2025-11-07 15:47:31.745145,11007,2025-11-07 15:47:34.079490769
2025-11-07 15:47:31.745145,-1,2025-11-07 15:47:34.087183077
2025-11-07 15:47:31.745145,-216,2025-11-07 15:47:34.094875385
2025-11-07 15:47:31.745145,8447,2025-11-07 15:47:34.102567692
2025-11-07 15:47:31.745145,-1,2025-11-07 15:47:34.110260000
2025-11-07 15:47:31.745145,-226,2025-11-07 15:47:34.117952308
2025-11-07 15:47:31.745145,7935,2025-11-07 15:47:34.125644615
2025-11-07 15:47:31.745145,-1,2025-11-07 15:47:34.133336923
2025-11-07 15:47:31.745145,-228,2025-11-07 15:47:34.141029231
2025-11-07 15:47:31.745145,7423,2025-11-07 15:47:34.148721538
2025-11-07 15:47:31.745145,-1,2025-11-07 15:47:34.156413846
2025-11-07 15:47:31.745145,-224,2025-11-07 15:47:34.164106154
2025-11-07 15:47:31.745145,7935,2025-11-07 15:47:34.171798462
2025-11-07 15:47:31.745145,-1,2025-11-07 15:47:34.179490769
2025-11-07 15:47:31.745145,-228,2025-11-07 15:47:34.187183077
2025-11-07 15:47:31.745145,5375,2025-11-07 15:47:34.194875385
2025-11-07 15:47:31.745145,-1,2025-11-07 15:47:34.202567692
2025-11-07 15:47:31.745145,-264,2025-11-07 15:47:34.210260000
2025-11-07 15:47:31.745145,-3585,2025-11-07 15:47:34.217952308
2025-11-07 15:47:31.745145,-2,2025-11-07 15:47:34.225644615
2025-11-07 15:47:31.745145,-107,2025-11-07 15:47:34.233336923
2025-11-07 15:47:31.745145,511,2025-11-07 15:47:34.241029231
2025-11-07 15:47:31.745145,1,2025-11-07 15:47:34.248721538
2025-11-07 15:47:31.745145,543,2025-11-07 15:47:34.256413846
2025-11-07 15:47:31.745145,-23040,2025-11-07 15:47:34.264106154
2025-11-07 15:47:31.745145,1,2025-11-07 15:47:34.271798462
2025-11-07 15:47:31.745145,4,2025-11-07 15:47:34.279490769
2025-11-07 15:47:31.745145,5120,2025-11-07 15:47:34.287183077
2025-11-07 15:47:31.745145,-1,2025-11-07 15:47:34.294875385
2025-11-07 15:47:31.745145,-212,2025-11-07 15:47:34.302567692
2025-11-07 15:47:31.745145,2559,2025-11-07 15:47:34.310260000
2025-11-07 15:47:31.745145,-1,2025-11-07 15:47:34.317952308
2025-11-07 15:47:31.745145,-336,2025-11-07 15:47:34.325644615
2025-11-07 15:47:31.745145,-15873,2025-11-07 15:47:34.333336923
2025-11-07 15:47:31.745145,-2,2025-11-07 15:47:34.341029230
2025-11-07 15:47:31.745145,-286,2025-11-07 15:47:34.348721538
2025-11-07 15:47:31.745145,-12289,2025-11-07 15:47:34.356413846
2025-11-07 15:47:31.745145,-2,2025-11-07 15:47:34.364106154
2025-11-07 15:47:31.745145,-302,2025-11-07 15:47:34.371798462
2025-11-07 15:47:31.745145,-6145,2025-11-07 15:47:34.379490769
2025-11-07 15:47:31.745145,-2,2025-11-07 15:47:34.387183077
2025-11-07 15:47:31.745145,-278,2025-11-07 15:47:34.394875385
2025-11-07 15:47:31.745145,-5377,2025-11-07 15:47:34.402567692
2025-11-07 15:47:31.745145,-2,2025-11-07 15:47:34.410260000
2025-11-07 15:47:31.745145,-267,2025-11-07 15:47:34.417952308
2025-11-07 15:47:31.745145,-1281,2025-11-07 15:47:34.425644615
2025-11-07 15:47:31.745145,-2,2025-11-07 15:47:34.433336923
2025-11-07 15:47:31.745145,-267,2025-11-07 15:47:34.441029231
2025-11-07 15:47:31.745145,-1793,2025-11-07 15:47:34.448721538
2025-11-07 15:47:31.745145,-2,2025-11-07 15:47:34.456413846
2025-11-07 15:47:31.745145,-255,2025-11-07 15:47:34.464106154
2025-11-07 15:47:31.745145,1791,2025-11-07 15:47:34.471798462
2025-11-07 15:47:31.745145,-1,2025-11-07 15:47:34.479490769
2025-11-07 15:47:31.745145,-250,2025-11-07 15:47:34.487183077
2025-11-07 15:47:31.745145,3071,2025-11-07 15:47:34.494875385
2025-11-07 15:47:31.745145,-1,2025-11-07 15:47:34.502567692
2025-11-07 15:47:31.745145,-240,2025-11-07 15:47:34.510260000
2025-11-07 15:47:32.314303,-233,2025-11-07 15:47:34.517952308
2025-11-07 15:47:32.314303,7423,2025-11-07 15:47:34.525644615
2025-11-07 15:47:32.314303,-1,2025-11-07 15:47:34.533336923
2025-11-07 15:47:32.314303,-228,2025-11-07 15:47:34.541029231
2025-11-07 15:47:32.314303,8447,2025-11-07 15:47:34.548721538
2025-11-07 15:47:32.314303,-1,2025-11-07 15:47:34.556413846
2025-11-07 15:47:32.314303,-214,2025-11-07 15:47:34.564106154
2025-11-07 15:47:32.314303,13311,2025-11-07 15:47:34.571798462
2025-11-07 15:47:32.314303,-1,2025-11-07 15:47:34.579490769
2025-11-07 15:47:32.314303,-200,2025-11-07 15:47:34.587183077
2025-11-07 15:47:32.314303,16383,2025-11-07 15:47:34.594875385
2025-11-07 15:47:32.314303,-1,2025-11-07 15:47:34.602567692
2025-11-07 15:47:32.314303,-174,2025-11-07 15:47:34.610260000
2025-11-07 15:47:32.314303,27391,2025-11-07 15:47:34.617952308
2025-11-07 15:47:32.314303,-1,2025-11-07 15:47:34.625644615
2025-11-07 15:47:32.314303,-152,2025-11-07 15:47:34.633336923
2025-11-07 15:47:32.314303,23807,2025-11-07 15:47:34.641029231
2025-11-07 15:47:32.314303,-1,2025-11-07 15:47:34.648721538
2025-11-07 15:47:32.314303,-164,2025-11-07 15:47:34.656413846
2025-11-07 15:47:32.314303,23295,2025-11-07 15:47:34.664106154
2025-11-07 15:47:32.314303,-1,2025-11-07 15:47:34.671798462
2025-11-07 15:47:32.314303,-185,2025-11-07 15:47:34.679490769
2025-11-07 15:47:32.314303,14591,2025-11-07 15:47:34.687183077
2025-11-07 15:47:32.314303,-1,2025-11-07 15:47:34.694875385
2025-11-07 15:47:32.314303,-209,2025-11-07 15:47:34.702567692
2025-11-07 15:47:32.314303,8447,2025-11-07 15:47:34.710260000
2025-11-07 15:47:32.314303,-1,2025-11-07 15:47:34.717952308
2025-11-07 15:47:32.314303,-228,2025-11-07 15:47:34.725644615
2025-11-07 15:47:32.314303,8447,2025-11-07 15:47:34.733336923
2025-11-07 15:47:32.314303,-1,2025-11-07 15:47:34.741029231
2025-11-07 15:47:32.314303,-221,2025-11-07 15:47:34.748721538
2025-11-07 15:47:32.314303,8447,2025-11-07 15:47:34.756413846
2025-11-07 15:47:32.314303,-1,2025-11-07 15:47:34.764106154
2025-11-07 15:47:32.314303,-224,2025-11-07 15:47:34.771798462
2025-11-07 15:47:32.314303,8447,2025-11-07 15:47:34.779490769
2025-11-07 15:47:32.314303,-1,2025-11-07 15:47:34.787183077
2025-11-07 15:47:32.314303,-226,2025-11-07 15:47:34.794875385
2025-11-07 15:47:32.314303,6655,2025-11-07 15:47:34.802567692
2025-11-07 15:47:32.314303,-1,2025-11-07 15:47:34.810260000
2025-11-07 15:47:32.314303,-228,2025-11-07 15:47:34.817952308
2025-11-07 15:47:32.314303,8447,2025-11-07 15:47:34.825644615
2025-11-07 15:47:32.314303,-1,2025-11-07 15:47:34.833336923
2025-11-07 15:47:32.314303,-221,2025-11-07 15:47:34.841029231
2025-11-07 15:47:32.314303,10495,2025-11-07 15:47:34.848721538
2025-11-07 15:47:32.314303,-1,2025-11-07 15:47:34.856413846
2025-11-07 15:47:32.314303,-214,2025-11-07 15:47:34.864106154
2025-11-07 15:47:32.314303,11007,2025-11-07 15:47:34.871798462
2025-11-07 15:47:32.314303,-1,2025-11-07 15:47:34.879490769
2025-11-07 15:47:32.314303,-214,2025-11-07 15:47:34.887183077
2025-11-07 15:47:32.314303,11007,2025-11-07 15:47:34.894875385
2025-11-07 15:47:32.314303,-1,2025-11-07 15:47:34.902567692
2025-11-07 15:47:32.314303,-212,2025-11-07 15:47:34.910260000
2025-11-07 15:47:32.314303,12287,2025-11-07 15:47:34.917952308
2025-11-07 15:47:32.314303,-1,2025-11-07 15:47:34.925644615
2025-11-07 15:47:32.314303,-207,2025-11-07 15:47:34.933336923
2025-11-07 15:47:32.314303,12799,2025-11-07 15:47:34.941029231
2025-11-07 15:47:32.314303,-1,2025-11-07 15:47:34.948721538
2025-11-07 15:47:32.314303,-209,2025-11-07 15:47:34.956413846
2025-11-07 15:47:32.314303,12287,2025-11-07 15:47:34.964106154
2025-11-07 15:47:32.314303,-1,2025-11-07 15:47:34.971798462
2025-11-07 15:47:32.314303,-207,2025-11-07 15:47:34.979490769
2025-11-07 15:47:32.314303,11519,2025-11-07 15:47:34.987183077
2025-11-07 15:47:32.314303,-1,2025-11-07 15:47:34.994875385
2025-11-07 15:47:32.314303,-212,2025-11-07 15:47:35.002567692
2025-11-07 15:47:32.314303,12287,2025-11-07 15:47:35.010260000
2025-11-07 15:47:32.314303,-1,2025-11-07 15:47:35.017952308
2025-11-07 15:47:32.314303,-209,2025-11-07 15:47:35.025644615
2025-11-07 15:47:32.314303,11519,2025-11-07 15:47:35.033336923
2025-11-07 15:47:32.314303,-1,2025-11-07 15:47:35.041029231
2025-11-07 15:47:32.314303,-209,2025-11-07 15:47:35.048721538
2025-11-07 15:47:32.314303,14079,2025-11-07 15:47:35.056413846
2025-11-07 15:47:32.314303,-1,2025-11-07 15:47:35.064106154
2025-11-07 15:47:32.314303,-197,2025-11-07 15:47:35.071798462
2025-11-07 15:47:32.314303,14591,2025-11-07 15:47:35.079490769
2025-11-07 15:47:32.314303,-1,2025-11-07 15:47:35.087183077
2025-11-07 15:47:32.314303,-202,2025-11-07 15:47:35.094875385
2025-11-07 15:47:32.314303,14591,2025-11-07 15:47:35.102567692
2025-11-07 15:47:32.314303,-1,2025-11-07 15:47:35.110260000
2025-11-07 15:47:32.314303,-202,2025-11-07 15:47:35.117952308
2025-11-07 15:47:32.314303,14079,2025-11-07 15:47:35.125644615
2025-11-07 15:47:32.314303,-1,2025-11-07 15:47:35.133336923
2025-11-07 15:47:32.314303,-202,2025-11-07 15:47:35.141029231
2025-11-07 15:47:32.314303,15359,2025-11-07 15:47:35.148721538
2025-11-07 15:47:32.314303,-1,2025-11-07 15:47:35.156413846
2025-11-07 15:47:32.314303,-197,2025-11-07 15:47:35.164106154
2025-11-07 15:47:32.314303,15359,2025-11-07 15:47:35.171798462
2025-11-07 15:47:32.314303,-1,2025-11-07 15:47:35.179490769
2025-11-07 15:47:32.314303,-195,2025-11-07 15:47:35.187183077
2025-11-07 15:47:32.314303,15359,2025-11-07 15:47:35.194875385
2025-11-07 15:47:32.314303,-1,2025-11-07 15:47:35.202567692
2025-11-07 15:47:32.314303,-205,2025-11-07 15:47:35.210260000
2025-11-07 15:47:32.314303,14079,2025-11-07 15:47:35.217952308
2025-11-07 15:47:32.314303,-1,2025-11-07 15:47:35.225644615
2025-11-07 15:47:32.314303,-200,2025-11-07 15:47:35.233336923
2025-11-07 15:47:32.314303,14079,2025-11-07 15:47:35.241029231
2025-11-07 15:47:32.314303,-1,2025-11-07 15:47:35.248721538
2025-11-07 15:47:32.314303,-200,2025-11-07 15:47:35.256413846
2025-11-07 15:47:32.314303,15871,2025-11-07 15:47:35.264106154
2025-11-07 15:47:32.314303,-1,2025-11-07 15:47:35.271798462
2025-11-07 15:47:32.314303,-193,2025-11-07 15:47:35.279490769
2025-11-07 15:47:32.314303,15871,2025-11-07 15:47:35.287183077
2025-11-07 15:47:32.314303,-1,2025-11-07 15:47:35.294875385
2025-11-07 15:47:32.314303,-207,2025-11-07 15:47:35.302567692
2025-11-07 15:47:32.314303,11519,2025-11-07 15:47:35.310260000
2025-11-07 15:47:32.314303,-1,2025-11-07 15:47:35.317952308
2025-11-07 15:47:32.314303,-205,2025-11-07 15:47:35.325644615
2025-11-07 15:47:32.314303,13311,2025-11-07 15:47:35.333336923
2025-11-07 15:47:32.314303,-1,2025-11-07 15:47:35.341029230
2025-11-07 15:47:32.314303,-209,2025-11-07 15:47:35.348721538
2025-11-07 15:47:32.849329,-212,2025-11-07 15:47:35.356413846
2025-11-07 15:47:32.849329,11519,2025-11-07 15:47:35.364106154
2025-11-07 15:47:32.849329,-1,2025-11-07 15:47:35.371798462
2025-11-07 15:47:32.849329,-214,2025-11-07 15:47:35.379490769
2025-11-07 15:47:32.849329,11007,2025-11-07 15:47:35.387183077
2025-11-07 15:47:32.849329,-1,2025-11-07 15:47:35.394875385
2025-11-07 15:47:32.849329,-216,2025-11-07 15:47:35.402567692
2025-11-07 15:47:32.849329,9727,2025-11-07 15:47:35.410260000
2025-11-07 15:47:32.849329,-1,2025-11-07 15:47:35.417952308
2025-11-07 15:47:32.849329,-219,2025-11-07 15:47:35.425644615
2025-11-07 15:47:32.849329,9215,2025-11-07 15:47:35.433336923
2025-11-07 15:47:32.849329,-1,2025-11-07 15:47:35.441029231
2025-11-07 15:47:32.849329,-224,2025-11-07 15:47:35.448721538
2025-11-07 15:47:32.849329,10495,2025-11-07 15:47:35.456413846
2025-11-07 15:47:32.849329,-1,2025-11-07 15:47:35.464106154
2025-11-07 15:47:32.849329,-205,2025-11-07 15:47:35.471798462
2025-11-07 15:47:32.849329,12287,2025-11-07 15:47:35.479490769
2025-11-07 15:47:32.849329,-1,2025-11-07 15:47:35.487183077
2025-11-07 15:47:32.849329,-224,2025-11-07 15:47:35.494875385
2025-11-07 15:47:32.849329,7935,2025-11-07 15:47:35.502567692
2025-11-07 15:47:32.849329,-1,2025-11-07 15:47:35.510260000
2025-11-07 15:47:32.849329,-224,2025-11-07 15:47:35.517952308
2025-11-07 15:47:32.849329,6655,2025-11-07 15:47:35.525644615
2025-11-07 15:47:32.849329,-1,2025-11-07 15:47:35.533336923
2025-11-07 15:47:32.849329,-233,2025-11-07 15:47:35.541029231
2025-11-07 15:47:32.849329,6143,2025-11-07 15:47:35.548721538
2025-11-07 15:47:32.849329,-1,2025-11-07 15:47:35.556413846
2025-11-07 15:47:32.849329,-238,2025-11-07 15:47:35.564106154
2025-11-07 15:47:32.849329,3071,2025-11-07 15:47:35.571798462
2025-11-07 15:47:32.849329,-1,2025-11-07 15:47:35.579490769
2025-11-07 15:47:32.849329,-236,2025-11-07 15:47:35.587183077
2025-11-07 15:47:32.849329,11007,2025-11-07 15:47:35.594875385
2025-11-07 15:47:32.849329,-1,2025-11-07 15:47:35.602567692
2025-11-07 15:47:32.849329,-207,2025-11-07 15:47:35.610260000
2025-11-07 15:47:32.849329,9727,2025-11-07 15:47:35.617952308
2025-11-07 15:47:32.849329,-1,2025-11-07 15:47:35.625644615
2025-11-07 15:47:32.849329,-231,2025-11-07 15:47:35.633336923
2025-11-07 15:47:32.849329,5375,2025-11-07 15:47:35.641029231
2025-11-07 15:47:32.849329,-1,2025-11-07 15:47:35.648721538
2025-11-07 15:47:32.849329,-236,2025-11-07 15:47:35.656413846
2025-11-07 15:47:32.849329,6655,2025-11-07 15:47:35.664106154
2025-11-07 15:47:32.849329,-1,2025-11-07 15:47:35.671798462
2025-11-07 15:47:32.849329,-231,2025-11-07 15:47:35.679490769
2025-11-07 15:47:32.849329,7935,2025-11-07 15:47:35.687183077
2025-11-07 15:47:32.849329,-1,2025-11-07 15:47:35.694875385
2025-11-07 15:47:32.849329,-228,2025-11-07 15:47:35.702567692
2025-11-07 15:47:32.849329,6143,2025-11-07 15:47:35.710260000
2025-11-07 15:47:32.849329,-1,2025-11-07 15:47:35.717952308
2025-11-07 15:47:32.849329,-245,2025-11-07 15:47:35.725644615
2025-11-07 15:47:32.849329,-4865,2025-11-07 15:47:35.733336923
2025-11-07 15:47:32.849329,-2,2025-11-07 15:47:35.741029231
2025-11-07 15:47:32.849329,-228,2025-11-07 15:47:35.748721538
2025-11-07 15:47:32.849329,7935,2025-11-07 15:47:35.756413846
2025-11-07 15:47:32.849329,0,2025-11-07 15:47:35.764106154
2025-11-07 15:47:32.849329,395,2025-11-07 15:47:35.771798462
2025-11-07 15:47:32.849329,768,2025-11-07 15:47:35.779490769
2025-11-07 15:47:32.849329,2,2025-11-07 15:47:35.787183077
2025-11-07 15:47:32.849329,221,2025-11-07 15:47:35.794875385
2025-11-07 15:47:32.849329,26112,2025-11-07 15:47:35.802567692
2025-11-07 15:47:32.849329,-1,2025-11-07 15:47:35.810260000
2025-11-07 15:47:32.849329,-224,2025-11-07 15:47:35.817952308
2025-11-07 15:47:32.849329,18431,2025-11-07 15:47:35.825644615
2025-11-07 15:47:32.849329,-1,2025-11-07 15:47:35.833336923
2025-11-07 15:47:32.849329,-274,2025-11-07 15:47:35.841029231
2025-11-07 15:47:32.849329,-15873,2025-11-07 15:47:35.848721538
2025-11-07 15:47:32.849329,-2,2025-11-07 15:47:35.856413846
2025-11-07 15:47:32.849329,-274,2025-11-07 15:47:35.864106154
2025-11-07 15:47:32.849329,-4353,2025-11-07 15:47:35.871798462
2025-11-07 15:47:32.849329,-2,2025-11-07 15:47:35.879490769
2025-11-07 15:47:32.849329,-290,2025-11-07 15:47:35.887183077
2025-11-07 15:47:32.849329,-3073,2025-11-07 15:47:35.894875385
2025-11-07 15:47:32.849329,-2,2025-11-07 15:47:35.902567692
2025-11-07 15:47:32.849329,-247,2025-11-07 15:47:35.910260000
2025-11-07 15:47:32.849329,1791,2025-11-07 15:47:35.917952308
2025-11-07 15:47:32.849329,-1,2025-11-07 15:47:35.925644615
2025-11-07 15:47:32.849329,-255,2025-11-07 15:47:35.933336923
2025-11-07 15:47:32.849329,511,2025-11-07 15:47:35.941029231
2025-11-07 15:47:32.849329,-1,2025-11-07 15:47:35.948721538
2025-11-07 15:47:32.849329,-243,2025-11-07 15:47:35.956413846
2025-11-07 15:47:32.849329,6655,2025-11-07 15:47:35.964106154
2025-11-07 15:47:32.849329,-1,2025-11-07 15:47:35.971798462
2025-11-07 15:47:32.849329,-226,2025-11-07 15:47:35.979490769
2025-11-07 15:47:32.849329,9215,2025-11-07 15:47:35.987183077
2025-11-07 15:47:32.849329,-1,2025-11-07 15:47:35.994875385
2025-11-07 15:47:32.849329,-214,2025-11-07 15:47:36.002567692
2025-11-07 15:47:32.849329,11007,2025-11-07 15:47:36.010260000
2025-11-07 15:47:32.849329,-1,2025-11-07 15:47:36.017952308
2025-11-07 15:47:32.849329,-214,2025-11-07 15:47:36.025644615
2025-11-07 15:47:32.849329,13311,2025-11-07 15:47:36.033336923
2025-11-07 15:47:32.849329,-1,2025-11-07 15:47:36.041029231
2025-11-07 15:47:32.849329,-195,2025-11-07 15:47:36.048721538
2025-11-07 15:47:32.849329,17151,2025-11-07 15:47:36.056413846
2025-11-07 15:47:32.849329,-1,2025-11-07 15:47:36.064106154
2025-11-07 15:47:32.849329,-190,2025-11-07 15:47:36.071798462
2025-11-07 15:47:32.849329,19455,2025-11-07 15:47:36.079490769
2025-11-07 15:47:32.849329,-1,2025-11-07 15:47:36.087183077
2025-11-07 15:47:32.849329,-171,2025-11-07 15:47:36.094875385
2025-11-07 15:47:32.849329,24319,2025-11-07 15:47:36.102567692
2025-11-07 15:47:32.849329,-1,2025-11-07 15:47:36.110260000
2025-11-07 15:47:32.849329,-154,2025-11-07 15:47:36.117952308
2025-11-07 15:47:32.849329,28671,2025-11-07 15:47:36.125644615
2025-11-07 15:47:32.849329,-1,2025-11-07 15:47:36.133336923
2025-11-07 15:47:32.849329,-138,2025-11-07 15:47:36.141029231
2025-11-07 15:47:32.849329,31231,2025-11-07 15:47:36.148721538
2025-11-07 15:47:32.849329,-1,2025-11-07 15:47:36.156413846
2025-11-07 15:47:32.849329,-135,2025-11-07 15:47:36.164106154
2025-11-07 15:47:32.849329,32255,2025-11-07 15:47:36.171798462
2025-11-07 15:47:32.849329,-1,2025-11-07 15:47:36.179490769
2025-11-07 15:47:32.849329,-133,2025-11-07 15:47:36.187183077
2025-11-07 15:47:33.392886,-147,2025-11-07 15:47:36.194875385
2025-11-07 15:47:33.392886,24319,2025-11-07 15:47:36.202567692
2025-11-07 15:47:33.392886,-1,2025-11-07 15:47:36.210260000
2025-11-07 15:47:33.392886,-174,2025-11-07 15:47:36.217952308
2025-11-07 15:47:33.392886,18943,2025-11-07 15:47:36.225644615
2025-11-07 15:47:33.392886,-1,2025-11-07 15:47:36.233336923
2025-11-07 15:47:33.392886,-190,2025-11-07 15:47:36.241029231
2025-11-07 15:47:33.392886,16383,2025-11-07 15:47:36.248721538
2025-11-07 15:47:33.392886,-1,2025-11-07 15:47:36.256413846
2025-11-07 15:47:33.392886,-188,2025-11-07 15:47:36.264106154
2025-11-07 15:47:33.392886,22015,2025-11-07 15:47:36.271798462
2025-11-07 15:47:33.392886,-1,2025-11-07 15:47:36.279490769
2025-11-07 15:47:33.392886,-166,2025-11-07 15:47:36.287183077
2025-11-07 15:47:33.392886,18943,2025-11-07 15:47:36.294875385
2025-11-07 15:47:33.392886,-1,2025-11-07 15:47:36.302567692
2025-11-07 15:47:33.392886,-185,2025-11-07 15:47:36.310260000
2025-11-07 15:47:33.392886,20735,2025-11-07 15:47:36.317952308
2025-11-07 15:47:33.392886,-1,2025-11-07 15:47:36.325644615
2025-11-07 15:47:33.392886,-178,2025-11-07 15:47:36.333336923
2025-11-07 15:47:33.392886,19455,2025-11-07 15:47:36.341029230
2025-11-07 15:47:33.392886,-1,2025-11-07 15:47:36.348721538
2025-11-07 15:47:33.392886,-176,2025-11-07 15:47:36.356413846
2025-11-07 15:47:33.392886,21247,2025-11-07 15:47:36.364106154
2025-11-07 15:47:33.392886,-1,2025-11-07 15:47:36.371798462
2025-11-07 15:47:33.392886,-174,2025-11-07 15:47:36.379490769
2025-11-07 15:47:33.392886,22015,2025-11-07 15:47:36.387183077
2025-11-07 15:47:33.392886,-1,2025-11-07 15:47:36.394875385
2025-11-07 15:47:33.392886,-171,2025-11-07 15:47:36.402567692
2025-11-07 15:47:33.392886,22527,2025-11-07 15:47:36.410260000
2025-11-07 15:47:33.392886,-1,2025-11-07 15:47:36.417952308
2025-11-07 15:47:33.392886,-169,2025-11-07 15:47:36.425644615
2025-11-07 15:47:33.392886,23295,2025-11-07 15:47:36.433336923
2025-11-07 15:47:33.392886,-1,2025-11-07 15:47:36.441029231
2025-11-07 15:47:33.392886,-164,2025-11-07 15:47:36.448721538
2025-11-07 15:47:33.392886,23807,2025-11-07 15:47:36.456413846
2025-11-07 15:47:33.392886,-1,2025-11-07 15:47:36.464106154
2025-11-07 15:47:33.392886,-166,2025-11-07 15:47:36.471798462
2025-11-07 15:47:33.392886,22527,2025-11-07 15:47:36.479490769
2025-11-07 15:47:33.392886,-1,2025-11-07 15:47:36.487183077
2025-11-07 15:47:33.392886,-169,2025-11-07 15:47:36.494875385
2025-11-07 15:47:33.392886,23807,2025-11-07 15:47:36.502567692
2025-11-07 15:47:33.392886,-1,2025-11-07 15:47:36.510260000
2025-11-07 15:47:33.392886,-164,2025-11-07 15:47:36.517952308
2025-11-07 15:47:33.392886,23295,2025-11-07 15:47:36.525644615
2025-11-07 15:47:33.392886,-1,2025-11-07 15:47:36.533336923
2025-11-07 15:47:33.392886,-166,2025-11-07 15:47:36.541029231
2025-11-07 15:47:33.392886,23807,2025-11-07 15:47:36.548721538
2025-11-07 15:47:33.392886,-1,2025-11-07 15:47:36.556413846
2025-11-07 15:47:33.392886,-169,2025-11-07 15:47:36.564106154
2025-11-07 15:47:33.392886,23295,2025-11-07 15:47:36.571798462
2025-11-07 15:47:33.392886,-1,2025-11-07 15:47:36.579490769
2025-11-07 15:47:33.392886,-157,2025-11-07 15:47:36.587183077
2025-11-07 15:47:33.392886,24319,2025-11-07 15:47:36.594875385
2025-11-07 15:47:33.392886,-1,2025-11-07 15:47:36.602567692
2025-11-07 15:47:33.392886,-174,2025-11-07 15:47:36.610260000
2025-11-07 15:47:33.392886,23295,2025-11-07 15:47:36.617952308
2025-11-07 15:47:33.392886,-1,2025-11-07 15:47:36.625644615
2025-11-07 15:47:33.392886,-159,2025-11-07 15:47:36.633336923
2025-11-07 15:47:33.392886,23807,2025-11-07 15:47:36.641029231
2025-11-07 15:47:33.392886,-1,2025-11-07 15:47:36.648721538
2025-11-07 15:47:33.392886,-166,2025-11-07 15:47:36.656413846
2025-11-07 15:47:33.392886,25087,2025-11-07 15:47:36.664106154
2025-11-07 15:47:33.392886,-1,2025-11-07 15:47:36.671798462
2025-11-07 15:47:33.392886,-157,2025-11-07 15:47:36.679490769
2025-11-07 15:47:33.392886,23807,2025-11-07 15:47:36.687183077
2025-11-07 15:47:33.392886,-1,2025-11-07 15:47:36.694875385
2025-11-07 15:47:33.392886,-166,2025-11-07 15:47:36.702567692
2025-11-07 15:47:33.392886,24319,2025-11-07 15:47:36.710260000
2025-11-07 15:47:33.392886,-1,2025-11-07 15:47:36.717952308
2025-11-07 15:47:33.392886,-157,2025-11-07 15:47:36.725644615
2025-11-07 15:47:33.392886,25087,2025-11-07 15:47:36.733336923
2025-11-07 15:47:33.392886,-1,2025-11-07 15:47:36.741029231
2025-11-07 15:47:33.392886,-164,2025-11-07 15:47:36.748721538
2025-11-07 15:47:33.392886,23807,2025-11-07 15:47:36.756413846
2025-11-07 15:47:33.392886,-1,2025-11-07 15:47:36.764106154
2025-11-07 15:47:33.392886,-159,2025-11-07 15:47:36.771798462
2025-11-07 15:47:33.392886,24319,2025-11-07 15:47:36.779490769
2025-11-07 15:47:33.392886,-1,2025-11-07 15:47:36.787183077
2025-11-07 15:47:33.392886,-162,2025-11-07 15:47:36.794875385
2025-11-07 15:47:33.392886,25087,2025-11-07 15:47:36.802567692
2025-11-07 15:47:33.392886,-1,2025-11-07 15:47:36.810260000
2025-11-07 15:47:33.392886,-159,2025-11-07 15:47:36.817952308
2025-11-07 15:47:33.392886,24319,2025-11-07 15:47:36.825644615
2025-11-07 15:47:33.392886,-1,2025-11-07 15:47:36.833336923
2025-11-07 15:47:33.392886,-164,2025-11-07 15:47:36.841029231
2025-11-07 15:47:33.392886,24319,2025-11-07 15:47:36.848721538
2025-11-07 15:47:33.392886,-1,2025-11-07 15:47:36.856413846
2025-11-07 15:47:33.392886,-159,2025-11-07 15:47:36.864106154
2025-11-07 15:47:33.392886,25087,2025-11-07 15:47:36.871798462
2025-11-07 15:47:33.392886,-1,2025-11-07 15:47:36.879490769
2025-11-07 15:47:33.392886,-159,2025-11-07 15:47:36.887183077
2025-11-07 15:47:33.392886,25599,2025-11-07 15:47:36.894875385
2025-11-07 15:47:33.392886,-1,2025-11-07 15:47:36.902567692
2025-11-07 15:47:33.392886,-154,2025-11-07 15:47:36.910260000
2025-11-07 15:47:33.392886,26367,2025-11-07 15:47:36.917952308
2025-11-07 15:47:33.392886,-1,2025-11-07 15:47:36.925644615
2025-11-07 15:47:33.392886,-152,2025-11-07 15:47:36.933336923
2025-11-07 15:47:33.392886,26879,2025-11-07 15:47:36.941029231
2025-11-07 15:47:33.392886,-1,2025-11-07 15:47:36.948721538
2025-11-07 15:47:33.392886,-157,2025-11-07 15:47:36.956413846
2025-11-07 15:47:33.392886,24319,2025-11-07 15:47:36.964106154
2025-11-07 15:47:33.392886,-1,2025-11-07 15:47:36.971798462
2025-11-07 15:47:33.392886,-166,2025-11-07 15:47:36.979490769
2025-11-07 15:47:33.392886,25087,2025-11-07 15:47:36.987183077
2025-11-07 15:47:33.392886,-1,2025-11-07 15:47:36.994875385
2025-11-07 15:47:33.392886,-143,2025-11-07 15:47:37.002567692
2025-11-07 15:47:33.392886,31743,2025-11-07 15:47:37.010260000
2025-11-07 15:47:33.392886,-1,2025-11-07 15:47:37.017952308
2025-11-07 15:47:33.392886,-135,2025-11-07 15:47:37.025644615
2025-11-07 15:47:33.957691,-143,2025-11-07 15:47:37.033336923
2025-11-07 15:47:33.957691,28159,2025-11-07 15:47:37.041029231
2025-11-07 15:47:33.957691,-1,2025-11-07 15:47:37.048721538
2025-11-07 15:47:33.957691,-150,2025-11-07 15:47:37.056413846
2025-11-07 15:47:33.957691,28671,2025-11-07 15:47:37.064106154
2025-11-07 15:47:33.957691,-1,2025-11-07 15:47:37.071798462
2025-11-07 15:47:33.957691,-128,2025-11-07 15:47:37.079490769
2025-11-07 15:47:33.957691,-30721,2025-11-07 15:47:37.087183077
2025-11-07 15:47:33.957691,-1,2025-11-07 15:47:37.094875385
2025-11-07 15:47:33.957691,-138,2025-11-07 15:47:37.102567692
2025-11-07 15:47:33.957691,28159,2025-11-07 15:47:37.110260000
2025-11-07 15:47:33.957691,-1,2025-11-07 15:47:37.117952308
2025-11-07 15:47:33.957691,-147,2025-11-07 15:47:37.125644615
2025-11-07 15:47:33.957691,20223,2025-11-07 15:47:37.133336923
2025-11-07 15:47:33.957691,-1,2025-11-07 15:47:37.141029231
2025-11-07 15:47:33.957691,-152,2025-11-07 15:47:37.148721538
2025-11-07 15:47:33.957691,23295,2025-11-07 15:47:37.156413846
2025-11-07 15:47:33.957691,0,2025-11-07 15:47:37.164106154
2025-11-07 15:47:33.957691,433,2025-11-07 15:47:37.171798462
2025-11-07 15:47:33.957691,-1280,2025-11-07 15:47:37.179490769
2025-11-07 15:47:33.957691,1,2025-11-07 15:47:37.187183077
2025-11-07 15:47:33.957691,181,2025-11-07 15:47:37.194875385
2025-11-07 15:47:33.957691,25344,2025-11-07 15:47:37.202567692
2025-11-07 15:47:33.957691,-1,2025-11-07 15:47:37.210260000
2025-11-07 15:47:33.957691,-166,2025-11-07 15:47:37.217952308
2025-11-07 15:47:33.957691,-28417,2025-11-07 15:47:37.225644615
2025-11-07 15:47:33.957691,-1,2025-11-07 15:47:37.233336923
2025-11-07 15:47:33.957691,-197,2025-11-07 15:47:37.241029231
2025-11-07 15:47:33.957691,3071,2025-11-07 15:47:37.248721538
2025-11-07 15:47:33.957691,-1,2025-11-07 15:47:37.256413846
2025-11-07 15:47:33.957691,-212,2025-11-07 15:47:37.264106154
2025-11-07 15:47:33.957691,12799,2025-11-07 15:47:37.271798462
2025-11-07 15:47:33.957691,-1,2025-11-07 15:47:37.279490769
2025-11-07 15:47:33.957691,-214,2025-11-07 15:47:37.287183077
2025-11-07 15:47:33.957691,12799,2025-11-07 15:47:37.294875385
2025-11-07 15:47:33.957691,-1,2025-11-07 15:47:37.302567692
2025-11-07 15:47:33.957691,-202,2025-11-07 15:47:37.310260000
2025-11-07 15:47:33.957691,14591,2025-11-07 15:47:37.317952308
2025-11-07 15:47:33.957691,-1,2025-11-07 15:47:37.325644615
2025-11-07 15:47:33.957691,-188,2025-11-07 15:47:37.333336923
2025-11-07 15:47:33.957691,20735,2025-11-07 15:47:37.341029230
2025-11-07 15:47:33.957691,-1,2025-11-07 15:47:37.348721538
2025-11-07 15:47:33.957691,-176,2025-11-07 15:47:37.356413846
2025-11-07 15:47:33.957691,19455,2025-11-07 15:47:37.364106154
2025-11-07 15:47:33.957691,-1,2025-11-07 15:47:37.371798462
2025-11-07 15:47:33.957691,-176,2025-11-07 15:47:37.379490769
2025-11-07 15:47:33.957691,21247,2025-11-07 15:47:37.387183077
2025-11-07 15:47:33.957691,-1,2025-11-07 15:47:37.394875385
2025-11-07 15:47:33.957691,-176,2025-11-07 15:47:37.402567692
2025-11-07 15:47:33.957691,22015,2025-11-07 15:47:37.410260000
2025-11-07 15:47:33.957691,-1,2025-11-07 15:47:37.417952308
2025-11-07 15:47:33.957691,-164,2025-11-07 15:47:37.425644615
2025-11-07 15:47:33.957691,26367,2025-11-07 15:47:37.433336923
2025-11-07 15:47:33.957691,-1,2025-11-07 15:47:37.441029231
2025-11-07 15:47:33.957691,-150,2025-11-07 15:47:37.448721538
2025-11-07 15:47:33.957691,27391,2025-11-07 15:47:37.456413846
2025-11-07 15:47:33.957691,-1,2025-11-07 15:47:37.464106154
2025-11-07 15:47:33.957691,-147,2025-11-07 15:47:37.471798462
2025-11-07 15:47:33.957691,30463,2025-11-07 15:47:37.479490769
2025-11-07 15:47:33.957691,-1,2025-11-07 15:47:37.487183077
2025-11-07 15:47:33.957691,-128,2025-11-07 15:47:37.494875385
2025-11-07 15:47:33.957691,-32513,2025-11-07 15:47:37.502567692
2025-11-07 15:47:33.957691,-1,2025-11-07 15:47:37.510260000
2025-11-07 15:47:33.957691,-116,2025-11-07 15:47:37.517952308
2025-11-07 15:47:33.957691,-24065,2025-11-07 15:47:37.525644615
2025-11-07 15:47:33.957691,-1,2025-11-07 15:47:37.533336923
2025-11-07 15:47:33.957691,-88,2025-11-07 15:47:37.541029231
2025-11-07 15:47:33.957691,-23297,2025-11-07 15:47:37.548721538
2025-11-07 15:47:33.957691,-1,2025-11-07 15:47:37.556413846
2025-11-07 15:47:33.957691,-90,2025-11-07 15:47:37.564106154
2025-11-07 15:47:33.957691,-22785,2025-11-07 15:47:37.571798462
2025-11-07 15:47:33.957691,-1,2025-11-07 15:47:37.579490769
2025-11-07 15:47:33.957691,-104,2025-11-07 15:47:37.587183077
2025-11-07 15:47:33.957691,-30721,2025-11-07 15:47:37.594875385
2025-11-07 15:47:33.957691,-1,2025-11-07 15:47:37.602567692
2025-11-07 15:47:33.957691,-138,2025-11-07 15:47:37.610260000
2025-11-07 15:47:33.957691,25599,2025-11-07 15:47:37.617952308
2025-11-07 15:47:33.957691,-1,2025-11-07 15:47:37.625644615
2025-11-07 15:47:33.957691,-171,2025-11-07 15:47:37.633336923
2025-11-07 15:47:33.957691,20223,2025-11-07 15:47:37.641029231
2025-11-07 15:47:33.957691,-1,2025-11-07 15:47:37.648721538
2025-11-07 15:47:33.957691,-190,2025-11-07 15:47:37.656413846
2025-11-07 15:47:33.957691,16383,2025-11-07 15:47:37.664106154
2025-11-07 15:47:33.957691,-1,2025-11-07 15:47:37.671798462
2025-11-07 15:47:33.957691,-190,2025-11-07 15:47:37.679490769
2025-11-07 15:47:33.957691,17151,2025-11-07 15:47:37.687183077
2025-11-07 15:47:33.957691,-1,2025-11-07 15:47:37.694875385
2025-11-07 15:47:33.957691,-190,2025-11-07 15:47:37.702567692
2025-11-07 15:47:33.957691,17663,2025-11-07 15:47:37.710260000
2025-11-07 15:47:33.957691,-1,2025-11-07 15:47:37.717952308
2025-11-07 15:47:33.957691,-185,2025-11-07 15:47:37.725644615
2025-11-07 15:47:33.957691,18943,2025-11-07 15:47:37.733336923
2025-11-07 15:47:33.957691,-1,2025-11-07 15:47:37.741029231
2025-11-07 15:47:33.957691,-176,2025-11-07 15:47:37.748721538
2025-11-07 15:47:33.957691,22015,2025-11-07 15:47:37.756413846
2025-11-07 15:47:33.957691,-1,2025-11-07 15:47:37.764106154
2025-11-07 15:47:33.957691,-174,2025-11-07 15:47:37.771798462
2025-11-07 15:47:33.957691,22015,2025-11-07 15:47:37.779490769
2025-11-07 15:47:33.957691,-1,2025-11-07 15:47:37.787183077
2025-11-07 15:47:33.957691,-166,2025-11-07 15:47:37.794875385
2025-11-07 15:47:33.957691,23807,2025-11-07 15:47:37.802567692
2025-11-07 15:47:33.957691,-1,2025-11-07 15:47:37.810260000
2025-11-07 15:47:33.957691,-169,2025-11-07 15:47:37.817952308
2025-11-07 15:47:33.957691,23295,2025-11-07 15:47:37.825644615
2025-11-07 15:47:33.957691,-1,2025-11-07 15:47:37.833336923
2025-11-07 15:47:33.957691,-157,2025-11-07 15:47:37.841029231
2025-11-07 15:47:33.957691,25599,2025-11-07 15:47:37.848721538
2025-11-07 15:47:33.957691,-1,2025-11-07 15:47:37.856413846
2025-11-07 15:47:33.957691,-162,2025-11-07 15:47:37.864106154
2025-11-07 15:47:34.554868,-162,2025-11-07 15:47:37.871798462
2025-11-07 15:47:34.554868,24319,2025-11-07 15:47:37.879490769
2025-11-07 15:47:34.554868,-1,2025-11-07 15:47:37.887183077
2025-11-07 15:47:34.554868,-166,2025-11-07 15:47:37.894875385
2025-11-07 15:47:34.554868,22527,2025-11-07 15:47:37.902567692
2025-11-07 15:47:34.554868,-1,2025-11-07 15:47:37.910260000
2025-11-07 15:47:34.554868,-162,2025-11-07 15:47:37.917952308
2025-11-07 15:47:34.554868,28159,2025-11-07 15:47:37.925644615
2025-11-07 15:47:34.554868,-1,2025-11-07 15:47:37.933336923
2025-11-07 15:47:34.554868,-138,2025-11-07 15:47:37.941029231
2025-11-07 15:47:34.554868,27391,2025-11-07 15:47:37.948721538
2025-11-07 15:47:34.554868,-1,2025-11-07 15:47:37.956413846
2025-11-07 15:47:34.554868,-159,2025-11-07 15:47:37.964106154
2025-11-07 15:47:34.554868,26367,2025-11-07 15:47:37.971798462
2025-11-07 15:47:34.554868,-1,2025-11-07 15:47:37.979490769
2025-11-07 15:47:34.554868,-159,2025-11-07 15:47:37.987183077
2025-11-07 15:47:34.554868,23295,2025-11-07 15:47:37.994875385
2025-11-07 15:47:34.554868,-1,2025-11-07 15:47:38.002567692
2025-11-07 15:47:34.554868,-164,2025-11-07 15:47:38.010260000
2025-11-07 15:47:34.554868,25087,2025-11-07 15:47:38.017952308
2025-11-07 15:47:34.554868,-1,2025-11-07 15:47:38.025644615
2025-11-07 15:47:34.554868,-162,2025-11-07 15:47:38.033336923
2025-11-07 15:47:34.554868,23807,2025-11-07 15:47:38.041029231
2025-11-07 15:47:34.554868,-1,2025-11-07 15:47:38.048721538
2025-11-07 15:47:34.554868,-162,2025-11-07 15:47:38.056413846
2025-11-07 15:47:34.554868,25599,2025-11-07 15:47:38.064106154
2025-11-07 15:47:34.554868,-1,2025-11-07 15:47:38.071798462
2025-11-07 15:47:34.554868,-157,2025-11-07 15:47:38.079490769
2025-11-07 15:47:34.554868,25087,2025-11-07 15:47:38.087183077
2025-11-07 15:47:34.554868,-1,2025-11-07 15:47:38.094875385
2025-11-07 15:47:34.554868,-157,2025-11-07 15:47:38.102567692
2025-11-07 15:47:34.554868,25599,2025-11-07 15:47:38.110260000
2025-11-07 15:47:34.554868,-1,2025-11-07 15:47:38.117952308
2025-11-07 15:47:34.554868,-166,2025-11-07 15:47:38.125644615
2025-11-07 15:47:34.554868,23295,2025-11-07 15:47:38.133336923
2025-11-07 15:47:34.554868,-1,2025-11-07 15:47:38.141029231
2025-11-07 15:47:34.554868,-159,2025-11-07 15:47:38.148721538
2025-11-07 15:47:34.554868,25087,2025-11-07 15:47:38.156413846
2025-11-07 15:47:34.554868,-1,2025-11-07 15:47:38.164106154
2025-11-07 15:47:34.554868,-166,2025-11-07 15:47:38.171798462
2025-11-07 15:47:34.554868,20735,2025-11-07 15:47:38.179490769
2025-11-07 15:47:34.554868,-1,2025-11-07 15:47:38.187183077
2025-11-07 15:47:34.554868,-178,2025-11-07 15:47:38.194875385
2025-11-07 15:47:34.554868,22527,2025-11-07 15:47:38.202567692
2025-11-07 15:47:34.554868,-1,2025-11-07 15:47:38.210260000
2025-11-07 15:47:34.554868,-157,2025-11-07 15:47:38.217952308
2025-11-07 15:47:34.554868,27391,2025-11-07 15:47:38.225644615
2025-11-07 15:47:34.554868,-1,2025-11-07 15:47:38.233336923
2025-11-07 15:47:34.554868,-150,2025-11-07 15:47:38.241029231
2025-11-07 15:47:34.554868,26367,2025-11-07 15:47:38.248721538
2025-11-07 15:47:34.554868,-1,2025-11-07 15:47:38.256413846
2025-11-07 15:47:34.554868,-157,2025-11-07 15:47:38.264106154
2025-11-07 15:47:34.554868,23807,2025-11-07 15:47:38.271798462
2025-11-07 15:47:34.554868,-1,2025-11-07 15:47:38.279490769
2025-11-07 15:47:34.554868,-164,2025-11-07 15:47:38.287183077
2025-11-07 15:47:34.554868,25087,2025-11-07 15:47:38.294875385
2025-11-07 15:47:34.554868,-1,2025-11-07 15:47:38.302567692
2025-11-07 15:47:34.554868,-157,2025-11-07 15:47:38.310260000
2025-11-07 15:47:34.554868,25599,2025-11-07 15:47:38.317952308
2025-11-07 15:47:34.554868,-1,2025-11-07 15:47:38.325644615
2025-11-07 15:47:34.554868,-159,2025-11-07 15:47:38.333336923
2025-11-07 15:47:34.554868,23807,2025-11-07 15:47:38.341029230
2025-11-07 15:47:34.554868,-1,2025-11-07 15:47:38.348721538
2025-11-07 15:47:34.554868,-185,2025-11-07 15:47:38.356413846
2025-11-07 15:47:34.554868,14591,2025-11-07 15:47:38.364106154
2025-11-07 15:47:34.554868,-1,2025-11-07 15:47:38.371798462
2025-11-07 15:47:34.554868,-57,2025-11-07 15:47:38.379490769
2025-11-07 15:47:34.554868,5887,2025-11-07 15:47:38.387183077
2025-11-07 15:47:34.554868,1,2025-11-07 15:47:38.394875385
2025-11-07 15:47:34.554868,510,2025-11-07 15:47:38.402567692
2025-11-07 15:47:34.554868,20480,2025-11-07 15:47:38.410260000
2025-11-07 15:47:34.554868,1,2025-11-07 15:47:38.417952308
2025-11-07 15:47:34.554868,-52,2025-11-07 15:47:38.425644615
2025-11-07 15:47:34.554868,14591,2025-11-07 15:47:38.433336923
2025-11-07 15:47:34.554868,-1,2025-11-07 15:47:38.441029231
2025-11-07 15:47:34.554868,-119,2025-11-07 15:47:38.448721538
2025-11-07 15:47:34.554868,26879,2025-11-07 15:47:38.456413846
2025-11-07 15:47:34.554868,-1,2025-11-07 15:47:38.464106154
2025-11-07 15:47:34.554868,-238,2025-11-07 15:47:38.471798462
2025-11-07 15:47:34.554868,8447,2025-11-07 15:47:38.479490769
2025-11-07 15:47:34.554868,-1,2025-11-07 15:47:38.487183077
2025-11-07 15:47:34.554868,-209,2025-11-07 15:47:38.494875385
2025-11-07 15:47:34.554868,8447,2025-11-07 15:47:38.502567692
2025-11-07 15:47:34.554868,-1,2025-11-07 15:47:38.510260000
2025-11-07 15:47:34.554868,-214,2025-11-07 15:47:38.517952308
2025-11-07 15:47:34.554868,15359,2025-11-07 15:47:38.525644615
2025-11-07 15:47:34.554868,-1,2025-11-07 15:47:38.533336923
2025-11-07 15:47:34.554868,-202,2025-11-07 15:47:38.541029231
2025-11-07 15:47:34.554868,14591,2025-11-07 15:47:38.548721538
2025-11-07 15:47:34.554868,-1,2025-11-07 15:47:38.556413846
2025-11-07 15:47:34.554868,-185,2025-11-07 15:47:38.564106154
2025-11-07 15:47:34.554868,19455,2025-11-07 15:47:38.571798462
2025-11-07 15:47:34.554868,-1,2025-11-07 15:47:38.579490769
2025-11-07 15:47:34.554868,-185,2025-11-07 15:47:38.587183077
2025-11-07 15:47:34.554868,19455,2025-11-07 15:47:38.594875385
2025-11-07 15:47:34.554868,-1,2025-11-07 15:47:38.602567692
2025-11-07 15:47:34.554868,-174,2025-11-07 15:47:38.610260000
2025-11-07 15:47:34.554868,22015,2025-11-07 15:47:38.617952308
2025-11-07 15:47:34.554868,-1,2025-11-07 15:47:38.625644615
2025-11-07 15:47:34.554868,-169,2025-11-07 15:47:38.633336923
2025-11-07 15:47:34.554868,24319,2025-11-07 15:47:38.641029231
2025-11-07 15:47:34.554868,-1,2025-11-07 15:47:38.648721538
2025-11-07 15:47:34.554868,-154,2025-11-07 15:47:38.656413846
2025-11-07 15:47:34.554868,26367,2025-11-07 15:47:38.664106154
2025-11-07 15:47:34.554868,-1,2025-11-07 15:47:38.671798462
2025-11-07 15:47:34.554868,-152,2025-11-07 15:47:38.679490769
2025-11-07 15:47:34.554868,29183,2025-11-07 15:47:38.687183077
2025-11-07 15:47:34.554868,-1,2025-11-07 15:47:38.694875385
2025-11-07 15:47:34.554868,-133,2025-11-07 15:47:38.702567692
2025-11-07 15:47:35.095710,-123,2025-11-07 15:47:38.710260000
2025-11-07 15:47:35.095710,-28417,2025-11-07 15:47:38.717952308
2025-11-07 15:47:35.095710,-1,2025-11-07 15:47:38.725644615
2025-11-07 15:47:35.095710,-102,2025-11-07 15:47:38.733336923
2025-11-07 15:47:35.095710,-22273,2025-11-07 15:47:38.741029231
2025-11-07 15:47:35.095710,-1,2025-11-07 15:47:38.748721538
2025-11-07 15:47:35.095710,-76,2025-11-07 15:47:38.756413846
2025-11-07 15:47:35.095710,-18433,2025-11-07 15:47:38.764106154
2025-11-07 15:47:35.095710,-1,2025-11-07 15:47:38.771798462
2025-11-07 15:47:35.095710,-76,2025-11-07 15:47:38.779490769
2025-11-07 15:47:35.095710,-19201,2025-11-07 15:47:38.787183077
2025-11-07 15:47:35.095710,-1,2025-11-07 15:47:38.794875385
2025-11-07 15:47:35.095710,-88,2025-11-07 15:47:38.802567692
2025-11-07 15:47:35.095710,-26369,2025-11-07 15:47:38.810260000
2025-11-07 15:47:35.095710,-1,2025-11-07 15:47:38.817952308
2025-11-07 15:47:35.095710,-112,2025-11-07 15:47:38.825644615
2025-11-07 15:47:35.095710,-29441,2025-11-07 15:47:38.833336923
2025-11-07 15:47:35.095710,-1,2025-11-07 15:47:38.841029231
2025-11-07 15:47:35.095710,-138,2025-11-07 15:47:38.848721538
2025-11-07 15:47:35.095710,24319,2025-11-07 15:47:38.856413846
2025-11-07 15:47:35.095710,-1,2025-11-07 15:47:38.864106154
2025-11-07 15:47:35.095710,-166,2025-11-07 15:47:38.871798462
2025-11-07 15:47:35.095710,23295,2025-11-07 15:47:38.879490769
2025-11-07 15:47:35.095710,-1,2025-11-07 15:47:38.887183077
2025-11-07 15:47:35.095710,-174,2025-11-07 15:47:38.894875385
2025-11-07 15:47:35.095710,20735,2025-11-07 15:47:38.902567692
2025-11-07 15:47:35.095710,-1,2025-11-07 15:47:38.910260000
2025-11-07 15:47:35.095710,-169,2025-11-07 15:47:38.917952308
2025-11-07 15:47:35.095710,24319,2025-11-07 15:47:38.925644615
2025-11-07 15:47:35.095710,-1,2025-11-07 15:47:38.933336923
2025-11-07 15:47:35.095710,-159,2025-11-07 15:47:38.941029231
2025-11-07 15:47:35.095710,24319,2025-11-07 15:47:38.948721538
2025-11-07 15:47:35.095710,-1,2025-11-07 15:47:38.956413846
2025-11-07 15:47:35.095710,-159,2025-11-07 15:47:38.964106154
2025-11-07 15:47:35.095710,26367,2025-11-07 15:47:38.971798462
2025-11-07 15:47:35.095710,-1,2025-11-07 15:47:38.979490769
2025-11-07 15:47:35.095710,-150,2025-11-07 15:47:38.987183077
2025-11-07 15:47:35.095710,28671,2025-11-07 15:47:38.994875385
2025-11-07 15:47:35.095710,-1,2025-11-07 15:47:39.002567692
2025-11-07 15:47:35.095710,-140,2025-11-07 15:47:39.010260000
2025-11-07 15:47:35.095710,30463,2025-11-07 15:47:39.017952308
2025-11-07 15:47:35.095710,-1,2025-11-07 15:47:39.025644615
2025-11-07 15:47:35.095710,-138,2025-11-07 15:47:39.033336923
2025-11-07 15:47:35.095710,30463,2025-11-07 15:47:39.041029231
2025-11-07 15:47:35.095710,-1,2025-11-07 15:47:39.048721538
2025-11-07 15:47:35.095710,-133,2025-11-07 15:47:39.056413846
2025-11-07 15:47:35.095710,32255,2025-11-07 15:47:39.064106154
2025-11-07 15:47:35.095710,-1,2025-11-07 15:47:39.071798462
2025-11-07 15:47:35.095710,-135,2025-11-07 15:47:39.079490769
2025-11-07 15:47:35.095710,31231,2025-11-07 15:47:39.087183077
2025-11-07 15:47:35.095710,-1,2025-11-07 15:47:39.094875385
2025-11-07 15:47:35.095710,-131,2025-11-07 15:47:39.102567692
2025-11-07 15:47:35.095710,32255,2025-11-07 15:47:39.110260000
2025-11-07 15:47:35.095710,-1,2025-11-07 15:47:39.117952308
2025-11-07 15:47:35.095710,-128,2025-11-07 15:47:39.125644615
2025-11-07 15:47:35.095710,32255,2025-11-07 15:47:39.133336923
2025-11-07 15:47:35.095710,-1,2025-11-07 15:47:39.141029231
2025-11-07 15:47:35.095710,-133,2025-11-07 15:47:39.148721538
2025-11-07 15:47:35.095710,31743,2025-11-07 15:47:39.156413846
2025-11-07 15:47:35.095710,-1,2025-11-07 15:47:39.164106154
2025-11-07 15:47:35.095710,-133,2025-11-07 15:47:39.171798462
2025-11-07 15:47:35.095710,32255,2025-11-07 15:47:39.179490769
2025-11-07 15:47:35.095710,-1,2025-11-07 15:47:39.187183077
2025-11-07 15:47:35.095710,-131,2025-11-07 15:47:39.194875385
2025-11-07 15:47:35.095710,31743,2025-11-07 15:47:39.202567692
2025-11-07 15:47:35.095710,-1,2025-11-07 15:47:39.210260000
2025-11-07 15:47:35.095710,-131,2025-11-07 15:47:39.217952308
2025-11-07 15:47:35.095710,-32513,2025-11-07 15:47:39.225644615
2025-11-07 15:47:35.095710,-1,2025-11-07 15:47:39.233336923
2025-11-07 15:47:35.095710,-128,2025-11-07 15:47:39.241029231
2025-11-07 15:47:35.095710,-32513,2025-11-07 15:47:39.248721538
2025-11-07 15:47:35.095710,-1,2025-11-07 15:47:39.256413846
2025-11-07 15:47:35.095710,-131,2025-11-07 15:47:39.264106154
2025-11-07 15:47:35.095710,-32513,2025-11-07 15:47:39.271798462
2025-11-07 15:47:35.095710,-1,2025-11-07 15:47:39.279490769
2025-11-07 15:47:35.095710,-123,2025-11-07 15:47:39.287183077
2025-11-07 15:47:35.095710,-32001,2025-11-07 15:47:39.294875385
2025-11-07 15:47:35.095710,-1,2025-11-07 15:47:39.302567692
2025-11-07 15:47:35.095710,-126,2025-11-07 15:47:39.310260000
2025-11-07 15:47:35.095710,-32001,2025-11-07 15:47:39.317952308
2025-11-07 15:47:35.095710,-1,2025-11-07 15:47:39.325644615
2025-11-07 15:47:35.095710,-123,2025-11-07 15:47:39.333336923
2025-11-07 15:47:35.095710,-32001,2025-11-07 15:47:39.341029230
2025-11-07 15:47:35.095710,-1,2025-11-07 15:47:39.348721538
2025-11-07 15:47:35.095710,-126,2025-11-07 15:47:39.356413846
2025-11-07 15:47:35.095710,-32513,2025-11-07 15:47:39.364106154
2025-11-07 15:47:35.095710,-1,2025-11-07 15:47:39.371798462
2025-11-07 15:47:35.095710,-133,2025-11-07 15:47:39.379490769
2025-11-07 15:47:35.095710,30463,2025-11-07 15:47:39.387183077
2025-11-07 15:47:35.095710,-1,2025-11-07 15:47:39.394875385
2025-11-07 15:47:35.095710,-135,2025-11-07 15:47:39.402567692
2025-11-07 15:47:35.095710,-30721,2025-11-07 15:47:39.410260000
2025-11-07 15:47:35.095710,-1,2025-11-07 15:47:39.417952308
2025-11-07 15:47:35.095710,-107,2025-11-07 15:47:39.425644615
2025-11-07 15:47:35.095710,-26369,2025-11-07 15:47:39.433336923
2025-11-07 15:47:35.095710,-1,2025-11-07 15:47:39.441029231
2025-11-07 15:47:35.095710,-109,2025-11-07 15:47:39.448721538
2025-11-07 15:47:35.095710,-28929,2025-11-07 15:47:39.456413846
2025-11-07 15:47:35.095710,-1,2025-11-07 15:47:39.464106154
2025-11-07 15:47:35.095710,-119,2025-11-07 15:47:39.471798462
2025-11-07 15:47:35.095710,-30209,2025-11-07 15:47:39.479490769
2025-11-07 15:47:35.095710,-1,2025-11-07 15:47:39.487183077
2025-11-07 15:47:35.095710,-112,2025-11-07 15:47:39.494875385
2025-11-07 15:47:35.095710,-28417,2025-11-07 15:47:39.502567692
2025-11-07 15:47:35.095710,-1,2025-11-07 15:47:39.510260000
2025-11-07 15:47:35.095710,-114,2025-11-07 15:47:39.517952308
2025-11-07 15:47:35.095710,-28929,2025-11-07 15:47:39.525644615
2025-11-07 15:47:35.095710,-1,2025-11-07 15:47:39.533336923
2025-11-07 15:47:35.095710,-116,2025-11-07 15:47:39.541029231
2025-11-07 15:47:35.660793,-133,2025-11-07 15:47:39.548721538
2025-11-07 15:47:35.660793,23807,2025-11-07 15:47:39.556413846
2025-11-07 15:47:35.660793,-1,2025-11-07 15:47:39.564106154
2025-11-07 15:47:35.660793,-100,2025-11-07 15:47:39.571798462
2025-11-07 15:47:35.660793,-17921,2025-11-07 15:47:39.579490769
2025-11-07 15:47:35.660793,0,2025-11-07 15:47:39.587183077
2025-11-07 15:47:35.660793,548,2025-11-07 15:47:39.594875385
2025-11-07 15:47:35.660793,25088,2025-11-07 15:47:39.602567692
2025-11-07 15:47:35.660793,2,2025-11-07 15:47:39.610260000
2025-11-07 15:47:35.660793,257,2025-11-07 15:47:39.617952308
2025-11-07 15:47:35.660793,-19456,2025-11-07 15:47:39.625644615
2025-11-07 15:47:35.660793,-1,2025-11-07 15:47:39.633336923
2025-11-07 15:47:35.660793,-83,2025-11-07 15:47:39.641029231
2025-11-07 15:47:35.660793,-16641,2025-11-07 15:47:39.648721538
2025-11-07 15:47:35.660793,-1,2025-11-07 15:47:39.656413846
2025-11-07 15:47:35.660793,-181,2025-11-07 15:47:39.664106154
2025-11-07 15:47:35.660793,11007,2025-11-07 15:47:39.671798462
2025-11-07 15:47:35.660793,-1,2025-11-07 15:47:39.679490769
2025-11-07 15:47:35.660793,-169,2025-11-07 15:47:39.687183077
2025-11-07 15:47:35.660793,21247,2025-11-07 15:47:39.694875385
2025-11-07 15:47:35.660793,-1,2025-11-07 15:47:39.702567692
2025-11-07 15:47:35.660793,-188,2025-11-07 15:47:39.710260000
2025-11-07 15:47:35.660793,22527,2025-11-07 15:47:39.717952308
2025-11-07 15:47:35.660793,-1,2025-11-07 15:47:39.725644615
2025-11-07 15:47:35.660793,-162,2025-11-07 15:47:39.733336923
2025-11-07 15:47:35.660793,22527,2025-11-07 15:47:39.741029231
2025-11-07 15:47:35.660793,-1,2025-11-07 15:47:39.748721538
2025-11-07 15:47:35.660793,-162,2025-11-07 15:47:39.756413846
2025-11-07 15:47:35.660793,26367,2025-11-07 15:47:39.764106154
2025-11-07 15:47:35.660793,-1,2025-11-07 15:47:39.771798462
2025-11-07 15:47:35.660793,-157,2025-11-07 15:47:39.779490769
2025-11-07 15:47:35.660793,26879,2025-11-07 15:47:39.787183077
2025-11-07 15:47:35.660793,-1,2025-11-07 15:47:39.794875385
2025-11-07 15:47:35.660793,-145,2025-11-07 15:47:39.802567692
2025-11-07 15:47:35.660793,30463,2025-11-07 15:47:39.810260000
2025-11-07 15:47:35.660793,-1,2025-11-07 15:47:39.817952308
2025-11-07 15:47:35.660793,-133,2025-11-07 15:47:39.825644615
2025-11-07 15:47:35.660793,32255,2025-11-07 15:47:39.833336923
2025-11-07 15:47:35.660793,-1,2025-11-07 15:47:39.841029231
2025-11-07 15:47:35.660793,-126,2025-11-07 15:47:39.848721538
2025-11-07 15:47:35.660793,-30721,2025-11-07 15:47:39.856413846
2025-11-07 15:47:35.660793,-1,2025-11-07 15:47:39.864106154
2025-11-07 15:47:35.660793,-116,2025-11-07 15:47:39.871798462
2025-11-07 15:47:35.660793,-29441,2025-11-07 15:47:39.879490769
2025-11-07 15:47:35.660793,-1,2025-11-07 15:47:39.887183077
2025-11-07 15:47:35.660793,-112,2025-11-07 15:47:39.894875385
2025-11-07 15:47:35.660793,-25345,2025-11-07 15:47:39.902567692
2025-11-07 15:47:35.660793,-1,2025-11-07 15:47:39.910260000
2025-11-07 15:47:35.660793,-92,2025-11-07 15:47:39.917952308
2025-11-07 15:47:35.660793,-23297,2025-11-07 15:47:39.925644615
2025-11-07 15:47:35.660793,-1,2025-11-07 15:47:39.933336923
2025-11-07 15:47:35.660793,-81,2025-11-07 15:47:39.941029231
2025-11-07 15:47:35.660793,-17409,2025-11-07 15:47:39.948721538
2025-11-07 15:47:35.660793,-1,2025-11-07 15:47:39.956413846
2025-11-07 15:47:35.660793,-64,2025-11-07 15:47:39.964106154
2025-11-07 15:47:35.660793,-16129,2025-11-07 15:47:39.971798462
2025-11-07 15:47:35.660793,-1,2025-11-07 15:47:39.979490769
2025-11-07 15:47:35.660793,-64,2025-11-07 15:47:39.987183077
2025-11-07 15:47:35.660793,-16641,2025-11-07 15:47:39.994875385
2025-11-07 15:47:35.660793,-1,2025-11-07 15:47:40.002567692
2025-11-07 15:47:35.660793,-76,2025-11-07 15:47:40.010260000
2025-11-07 15:47:35.660793,-24065,2025-11-07 15:47:40.017952308
2025-11-07 15:47:35.660793,-1,2025-11-07 15:47:40.025644615
2025-11-07 15:47:35.660793,-109,2025-11-07 15:47:40.033336923
2025-11-07 15:47:35.660793,-30209,2025-11-07 15:47:40.041029231
2025-11-07 15:47:35.660793,-1,2025-11-07 15:47:40.048721538
2025-11-07 15:47:35.660793,-128,2025-11-07 15:47:40.056413846
2025-11-07 15:47:35.660793,30463,2025-11-07 15:47:40.064106154
2025-11-07 15:47:35.660793,-1,2025-11-07 15:47:40.071798462
2025-11-07 15:47:35.660793,-140,2025-11-07 15:47:40.079490769
2025-11-07 15:47:35.660793,30463,2025-11-07 15:47:40.087183077
2025-11-07 15:47:35.660793,-1,2025-11-07 15:47:40.094875385
2025-11-07 15:47:35.660793,-138,2025-11-07 15:47:40.102567692
2025-11-07 15:47:35.660793,30463,2025-11-07 15:47:40.110260000
2025-11-07 15:47:35.660793,-1,2025-11-07 15:47:40.117952308
2025-11-07 15:47:35.660793,-135,2025-11-07 15:47:40.125644615
2025-11-07 15:47:35.660793,31231,2025-11-07 15:47:40.133336923
2025-11-07 15:47:35.660793,-1,2025-11-07 15:47:40.141029231
2025-11-07 15:47:35.660793,-135,2025-11-07 15:47:40.148721538
2025-11-07 15:47:35.660793,31743,2025-11-07 15:47:40.156413846
2025-11-07 15:47:35.660793,-1,2025-11-07 15:47:40.164106154
2025-11-07 15:47:35.660793,-126,2025-11-07 15:47:40.171798462
2025-11-07 15:47:35.660793,-31233,2025-11-07 15:47:40.179490769
2025-11-07 15:47:35.660793,-1,2025-11-07 15:47:40.187183077
2025-11-07 15:47:35.660793,-123,2025-11-07 15:47:40.194875385
2025-11-07 15:47:35.660793,-30721,2025-11-07 15:47:40.202567692
2025-11-07 15:47:35.660793,-1,2025-11-07 15:47:40.210260000
2025-11-07 15:47:35.660793,-116,2025-11-07 15:47:40.217952308
2025-11-07 15:47:35.660793,-28417,2025-11-07 15:47:40.225644615
2025-11-07 15:47:35.660793,-1,2025-11-07 15:47:40.233336923
2025-11-07 15:47:35.660793,-109,2025-11-07 15:47:40.241029231
2025-11-07 15:47:35.660793,-27649,2025-11-07 15:47:40.248721538
2025-11-07 15:47:35.660793,-1,2025-11-07 15:47:40.256413846
2025-11-07 15:47:35.660793,-109,2025-11-07 15:47:40.264106154
2025-11-07 15:47:35.660793,-27137,2025-11-07 15:47:40.271798462
2025-11-07 15:47:35.660793,-1,2025-11-07 15:47:40.279490769
2025-11-07 15:47:35.660793,-109,2025-11-07 15:47:40.287183077
2025-11-07 15:47:35.660793,-27649,2025-11-07 15:47:40.294875385
2025-11-07 15:47:35.660793,-1,2025-11-07 15:47:40.302567692
2025-11-07 15:47:35.660793,-109,2025-11-07 15:47:40.310260000
2025-11-07 15:47:35.660793,-27649,2025-11-07 15:47:40.317952308
2025-11-07 15:47:35.660793,-1,2025-11-07 15:47:40.325644615
2025-11-07 15:47:35.660793,-114,2025-11-07 15:47:40.333336923
2025-11-07 15:47:35.660793,-28417,2025-11-07 15:47:40.341029230
2025-11-07 15:47:35.660793,-1,2025-11-07 15:47:40.348721538
2025-11-07 15:47:35.660793,-102,2025-11-07 15:47:40.356413846
2025-11-07 15:47:35.660793,-27649,2025-11-07 15:47:40.364106154
2025-11-07 15:47:35.660793,-1,2025-11-07 15:47:40.371798462
2025-11-07 15:47:35.660793,-116,2025-11-07 15:47:40.379490769
2025-11-07 15:47:36.214810,-112,2025-11-07 15:47:40.387183077
2025-11-07 15:47:36.214810,-28417,2025-11-07 15:47:40.394875385
2025-11-07 15:47:36.214810,-1,2025-11-07 15:47:40.402567692
2025-11-07 15:47:36.214810,-116,2025-11-07 15:47:40.410260000
2025-11-07 15:47:36.214810,-28929,2025-11-07 15:47:40.417952308
2025-11-07 15:47:36.214810,-1,2025-11-07 15:47:40.425644615
2025-11-07 15:47:36.214810,-112,2025-11-07 15:47:40.433336923
2025-11-07 15:47:36.214810,-27649,2025-11-07 15:47:40.441029231
2025-11-07 15:47:36.214810,-1,2025-11-07 15:47:40.448721538
2025-11-07 15:47:36.214810,-112,2025-11-07 15:47:40.456413846
2025-11-07 15:47:36.214810,-28929,2025-11-07 15:47:40.464106154
2025-11-07 15:47:36.214810,-1,2025-11-07 15:47:40.471798462
2025-11-07 15:47:36.214810,-109,2025-11-07 15:47:40.479490769
2025-11-07 15:47:36.214810,-24065,2025-11-07 15:47:40.487183077
2025-11-07 15:47:36.214810,-1,2025-11-07 15:47:40.494875385
2025-11-07 15:47:36.214810,-90,2025-11-07 15:47:40.502567692
2025-11-07 15:47:36.214810,-26369,2025-11-07 15:47:40.510260000
2025-11-07 15:47:36.214810,-1,2025-11-07 15:47:40.517952308
2025-11-07 15:47:36.214810,-109,2025-11-07 15:47:40.525644615
2025-11-07 15:47:36.214810,-25345,2025-11-07 15:47:40.533336923
2025-11-07 15:47:36.214810,-1,2025-11-07 15:47:40.541029231
2025-11-07 15:47:36.214810,-104,2025-11-07 15:47:40.548721538
2025-11-07 15:47:36.214810,-28417,2025-11-07 15:47:40.556413846
2025-11-07 15:47:36.214810,-1,2025-11-07 15:47:40.564106154
2025-11-07 15:47:36.214810,-109,2025-11-07 15:47:40.571798462
2025-11-07 15:47:36.214810,-26369,2025-11-07 15:47:40.579490769
2025-11-07 15:47:36.214810,-1,2025-11-07 15:47:40.587183077
2025-11-07 15:47:36.214810,-102,2025-11-07 15:47:40.594875385
2025-11-07 15:47:36.214810,-27137,2025-11-07 15:47:40.602567692
2025-11-07 15:47:36.214810,-1,2025-11-07 15:47:40.610260000
2025-11-07 15:47:36.214810,-112,2025-11-07 15:47:40.617952308
2025-11-07 15:47:36.214810,-28417,2025-11-07 15:47:40.625644615
2025-11-07 15:47:36.214810,-1,2025-11-07 15:47:40.633336923
2025-11-07 15:47:36.214810,-119,2025-11-07 15:47:40.641029231
2025-11-07 15:47:36.214810,-30721,2025-11-07 15:47:40.648721538
2025-11-07 15:47:36.214810,-1,2025-11-07 15:47:40.656413846
2025-11-07 15:47:36.214810,-112,2025-11-07 15:47:40.664106154
2025-11-07 15:47:36.214810,-23297,2025-11-07 15:47:40.671798462
2025-11-07 15:47:36.214810,-1,2025-11-07 15:47:40.679490769
2025-11-07 15:47:36.214810,-88,2025-11-07 15:47:40.687183077
2025-11-07 15:47:36.214810,-23297,2025-11-07 15:47:40.694875385
2025-11-07 15:47:36.214810,-1,2025-11-07 15:47:40.702567692
2025-11-07 15:47:36.214810,-100,2025-11-07 15:47:40.710260000
2025-11-07 15:47:36.214810,-26369,2025-11-07 15:47:40.717952308
2025-11-07 15:47:36.214810,-1,2025-11-07 15:47:40.725644615
2025-11-07 15:47:36.214810,-109,2025-11-07 15:47:40.733336923
2025-11-07 15:47:36.214810,-27137,2025-11-07 15:47:40.741029231
2025-11-07 15:47:36.214810,-1,2025-11-07 15:47:40.748721538
2025-11-07 15:47:36.214810,-104,2025-11-07 15:47:40.756413846
2025-11-07 15:47:36.214810,-26369,2025-11-07 15:47:40.764106154
2025-11-07 15:47:36.214810,-1,2025-11-07 15:47:40.771798462
2025-11-07 15:47:36.214810,-107,2025-11-07 15:47:40.779490769
2025-11-07 15:47:36.214810,-26369,2025-11-07 15:47:40.787183077
2025-11-07 15:47:36.214810,-1,2025-11-07 15:47:40.794875385
2025-11-07 15:47:36.214810,-114,2025-11-07 15:47:40.802567692
2025-11-07 15:47:36.214810,28159,2025-11-07 15:47:40.810260000
2025-11-07 15:47:36.214810,-1,2025-11-07 15:47:40.817952308
2025-11-07 15:47:36.214810,-145,2025-11-07 15:47:40.825644615
2025-11-07 15:47:36.214810,13567,2025-11-07 15:47:40.833336923
2025-11-07 15:47:36.214810,0,2025-11-07 15:47:40.841029231
2025-11-07 15:47:36.214810,429,2025-11-07 15:47:40.848721538
2025-11-07 15:47:36.214810,-25088,2025-11-07 15:47:40.856413846
2025-11-07 15:47:36.214810,2,2025-11-07 15:47:40.864106154
2025-11-07 15:47:36.214810,486,2025-11-07 15:47:40.871798462
2025-11-07 15:47:36.214810,16384,2025-11-07 15:47:40.879490769
2025-11-07 15:47:36.214810,0,2025-11-07 15:47:40.887183077
2025-11-07 15:47:36.214810,-126,2025-11-07 15:47:40.894875385
2025-11-07 15:47:36.214810,-24065,2025-11-07 15:47:40.902567692
2025-11-07 15:47:36.214810,-1,2025-11-07 15:47:40.910260000
2025-11-07 15:47:36.214810,-159,2025-11-07 15:47:40.917952308
2025-11-07 15:47:36.214810,6143,2025-11-07 15:47:40.925644615
2025-11-07 15:47:36.214810,-1,2025-11-07 15:47:40.933336923
2025-11-07 15:47:36.214810,-200,2025-11-07 15:47:40.941029231
2025-11-07 15:47:36.214810,19455,2025-11-07 15:47:40.948721538
2025-11-07 15:47:36.214810,-1,2025-11-07 15:47:40.956413846
2025-11-07 15:47:36.214810,-197,2025-11-07 15:47:40.964106154
2025-11-07 15:47:36.214810,18431,2025-11-07 15:47:40.971798462
2025-11-07 15:47:36.214810,-1,2025-11-07 15:47:40.979490769
2025-11-07 15:47:36.214810,-171,2025-11-07 15:47:40.987183077
2025-11-07 15:47:36.214810,20735,2025-11-07 15:47:40.994875385
2025-11-07 15:47:36.214810,-1,2025-11-07 15:47:41.002567692
2025-11-07 15:47:36.214810,-174,2025-11-07 15:47:41.010260000
2025-11-07 15:47:36.214810,23295,2025-11-07 15:47:41.017952308
2025-11-07 15:47:36.214810,-1,2025-11-07 15:47:41.025644615
2025-11-07 15:47:36.214810,-162,2025-11-07 15:47:41.033336923
2025-11-07 15:47:36.214810,25087,2025-11-07 15:47:41.041029231
2025-11-07 15:47:36.214810,-1,2025-11-07 15:47:41.048721538
2025-11-07 15:47:36.214810,-159,2025-11-07 15:47:41.056413846
2025-11-07 15:47:36.214810,26879,2025-11-07 15:47:41.064106154
2025-11-07 15:47:36.214810,-1,2025-11-07 15:47:41.071798462
2025-11-07 15:47:36.214810,-145,2025-11-07 15:47:41.079490769
2025-11-07 15:47:36.214810,29183,2025-11-07 15:47:41.087183077
2025-11-07 15:47:36.214810,-1,2025-11-07 15:47:41.094875385
2025-11-07 15:47:36.214810,-138,2025-11-07 15:47:41.102567692
2025-11-07 15:47:36.214810,32255,2025-11-07 15:47:41.110260000
2025-11-07 15:47:36.214810,-1,2025-11-07 15:47:41.117952308
2025-11-07 15:47:36.214810,-131,2025-11-07 15:47:41.125644615
2025-11-07 15:47:36.214810,-32513,2025-11-07 15:47:41.133336923
2025-11-07 15:47:36.214810,-1,2025-11-07 15:47:41.141029231
2025-11-07 15:47:36.214810,-123,2025-11-07 15:47:41.148721538
2025-11-07 15:47:36.214810,-30209,2025-11-07 15:47:41.156413846
2025-11-07 15:47:36.214810,-1,2025-11-07 15:47:41.164106154
2025-11-07 15:47:36.214810,-114,2025-11-07 15:47:41.171798462
2025-11-07 15:47:36.214810,-27649,2025-11-07 15:47:41.179490769
2025-11-07 15:47:36.214810,-1,2025-11-07 15:47:41.187183077
2025-11-07 15:47:36.214810,-97,2025-11-07 15:47:41.194875385
2025-11-07 15:47:36.214810,-22273,2025-11-07 15:47:41.202567692
2025-11-07 15:47:36.214810,-1,2025-11-07 15:47:41.210260000
2025-11-07 15:47:36.214810,-81,2025-11-07 15:47:41.217952308
2025-11-07 15:47:36.772040,-78,2025-11-07 15:47:41.225644615
2025-11-07 15:47:36.772040,-19713,2025-11-07 15:47:41.233336923
2025-11-07 15:47:36.772040,-1,2025-11-07 15:47:41.241029231
2025-11-07 15:47:36.772040,-78,2025-11-07 15:47:41.248721538
2025-11-07 15:47:36.772040,-20993,2025-11-07 15:47:41.256413846
2025-11-07 15:47:36.772040,-1,2025-11-07 15:47:41.264106154
2025-11-07 15:47:36.772040,-92,2025-11-07 15:47:41.271798462
2025-11-07 15:47:36.772040,-26369,2025-11-07 15:47:41.279490769
2025-11-07 15:47:36.772040,-1,2025-11-07 15:47:41.287183077
2025-11-07 15:47:36.772040,-107,2025-11-07 15:47:41.294875385
2025-11-07 15:47:36.772040,-25857,2025-11-07 15:47:41.302567692
2025-11-07 15:47:36.772040,-1,2025-11-07 15:47:41.310260000
2025-11-07 15:47:36.772040,-116,2025-11-07 15:47:41.317952308
2025-11-07 15:47:36.772040,-32001,2025-11-07 15:47:41.325644615
2025-11-07 15:47:36.772040,-1,2025-11-07 15:47:41.333336923
2025-11-07 15:47:36.772040,-119,2025-11-07 15:47:41.341029230
2025-11-07 15:47:36.772040,-30209,2025-11-07 15:47:41.348721538
2025-11-07 15:47:36.772040,-1,2025-11-07 15:47:41.356413846
2025-11-07 15:47:36.772040,-123,2025-11-07 15:47:41.364106154
2025-11-07 15:47:36.772040,-30209,2025-11-07 15:47:41.371798462
2025-11-07 15:47:36.772040,-1,2025-11-07 15:47:41.379490769
2025-11-07 15:47:36.772040,-119,2025-11-07 15:47:41.387183077
2025-11-07 15:47:36.772040,-30721,2025-11-07 15:47:41.394875385
2025-11-07 15:47:36.772040,-1,2025-11-07 15:47:41.402567692
2025-11-07 15:47:36.772040,-119,2025-11-07 15:47:41.410260000
2025-11-07 15:47:36.772040,-30209,2025-11-07 15:47:41.417952308
2025-11-07 15:47:36.772040,-1,2025-11-07 15:47:41.425644615
2025-11-07 15:47:36.772040,-116,2025-11-07 15:47:41.433336923
2025-11-07 15:47:36.772040,-29441,2025-11-07 15:47:41.441029231
2025-11-07 15:47:36.772040,-1,2025-11-07 15:47:41.448721538
2025-11-07 15:47:36.772040,-116,2025-11-07 15:47:41.456413846
2025-11-07 15:47:36.772040,-28929,2025-11-07 15:47:41.464106154
2025-11-07 15:47:36.772040,-1,2025-11-07 15:47:41.471798462
2025-11-07 15:47:36.772040,-114,2025-11-07 15:47:41.479490769
2025-11-07 15:47:36.772040,-28417,2025-11-07 15:47:41.487183077
2025-11-07 15:47:36.772040,-1,2025-11-07 15:47:41.494875385
2025-11-07 15:47:36.772040,-112,2025-11-07 15:47:41.502567692
2025-11-07 15:47:36.772040,-28417,2025-11-07 15:47:41.510260000
2025-11-07 15:47:36.772040,-1,2025-11-07 15:47:41.517952308
2025-11-07 15:47:36.772040,-109,2025-11-07 15:47:41.525644615
2025-11-07 15:47:36.772040,-27649,2025-11-07 15:47:41.533336923
2025-11-07 15:47:36.772040,-1,2025-11-07 15:47:41.541029231
2025-11-07 15:47:36.772040,-109,2025-11-07 15:47:41.548721538
2025-11-07 15:47:36.772040,-27137,2025-11-07 15:47:41.556413846
2025-11-07 15:47:36.772040,-1,2025-11-07 15:47:41.564106154
2025-11-07 15:47:36.772040,-107,2025-11-07 15:47:41.571798462
2025-11-07 15:47:36.772040,-27137,2025-11-07 15:47:41.579490769
2025-11-07 15:47:36.772040,-1,2025-11-07 15:47:41.587183077
2025-11-07 15:47:36.772040,-109,2025-11-07 15:47:41.594875385
2025-11-07 15:47:36.772040,-27649,2025-11-07 15:47:41.602567692
2025-11-07 15:47:36.772040,-1,2025-11-07 15:47:41.610260000
2025-11-07 15:47:36.772040,-104,2025-11-07 15:47:41.617952308
2025-11-07 15:47:36.772040,-27137,2025-11-07 15:47:41.625644615
2025-11-07 15:47:36.772040,-1,2025-11-07 15:47:41.633336923
2025-11-07 15:47:36.772040,-112,2025-11-07 15:47:41.641029231
2025-11-07 15:47:36.772040,-28929,2025-11-07 15:47:41.648721538
2025-11-07 15:47:36.772040,-1,2025-11-07 15:47:41.656413846
2025-11-07 15:47:36.772040,-112,2025-11-07 15:47:41.664106154
2025-11-07 15:47:36.772040,-28417,2025-11-07 15:47:41.671798462
2025-11-07 15:47:36.772040,-1,2025-11-07 15:47:41.679490769
2025-11-07 15:47:36.772040,-112,2025-11-07 15:47:41.687183077
2025-11-07 15:47:36.772040,-27137,2025-11-07 15:47:41.694875385
2025-11-07 15:47:36.772040,-1,2025-11-07 15:47:41.702567692
2025-11-07 15:47:36.772040,-109,2025-11-07 15:47:41.710260000
2025-11-07 15:47:36.772040,-28929,2025-11-07 15:47:41.717952308
2025-11-07 15:47:36.772040,-1,2025-11-07 15:47:41.725644615
2025-11-07 15:47:36.772040,-114,2025-11-07 15:47:41.733336923
2025-11-07 15:47:36.772040,-27649,2025-11-07 15:47:41.741029231
2025-11-07 15:47:36.772040,-1,2025-11-07 15:47:41.748721538
2025-11-07 15:47:36.772040,-104,2025-11-07 15:47:41.756413846
2025-11-07 15:47:36.772040,-26369,2025-11-07 15:47:41.764106154
2025-11-07 15:47:36.772040,-1,2025-11-07 15:47:41.771798462
2025-11-07 15:47:36.772040,-107,2025-11-07 15:47:41.779490769
2025-11-07 15:47:36.772040,-26369,2025-11-07 15:47:41.787183077
2025-11-07 15:47:36.772040,-1,2025-11-07 15:47:41.794875385
2025-11-07 15:47:36.772040,-107,2025-11-07 15:47:41.802567692
2025-11-07 15:47:36.772040,-27649,2025-11-07 15:47:41.810260000
2025-11-07 15:47:36.772040,-1,2025-11-07 15:47:41.817952308
2025-11-07 15:47:36.772040,-109,2025-11-07 15:47:41.825644615
2025-11-07 15:47:36.772040,-25857,2025-11-07 15:47:41.833336923
2025-11-07 15:47:36.772040,-1,2025-11-07 15:47:41.841029231
2025-11-07 15:47:36.772040,-100,2025-11-07 15:47:41.848721538
2025-11-07 15:47:36.772040,-25857,2025-11-07 15:47:41.856413846
2025-11-07 15:47:36.772040,-1,2025-11-07 15:47:41.864106154
2025-11-07 15:47:36.772040,-107,2025-11-07 15:47:41.871798462
2025-11-07 15:47:36.772040,-26369,2025-11-07 15:47:41.879490769
2025-11-07 15:47:36.772040,-1,2025-11-07 15:47:41.887183077
2025-11-07 15:47:36.772040,-102,2025-11-07 15:47:41.894875385
2025-11-07 15:47:36.772040,-26369,2025-11-07 15:47:41.902567692
2025-11-07 15:47:36.772040,-1,2025-11-07 15:47:41.910260000
2025-11-07 15:47:36.772040,-107,2025-11-07 15:47:41.917952308
2025-11-07 15:47:36.772040,-26369,2025-11-07 15:47:41.925644615
2025-11-07 15:47:36.772040,-1,2025-11-07 15:47:41.933336923
2025-11-07 15:47:36.772040,-107,2025-11-07 15:47:41.941029231
2025-11-07 15:47:36.772040,-27649,2025-11-07 15:47:41.948721538
2025-11-07 15:47:36.772040,-1,2025-11-07 15:47:41.956413846
2025-11-07 15:47:36.772040,-107,2025-11-07 15:47:41.964106154
2025-11-07 15:47:36.772040,-26369,2025-11-07 15:47:41.971798462
2025-11-07 15:47:36.772040,-1,2025-11-07 15:47:41.979490769
2025-11-07 15:47:36.772040,-109,2025-11-07 15:47:41.987183077
2025-11-07 15:47:36.772040,-28417,2025-11-07 15:47:41.994875385
2025-11-07 15:47:36.772040,-1,2025-11-07 15:47:42.002567692
2025-11-07 15:47:36.772040,-109,2025-11-07 15:47:42.010260000
2025-11-07 15:47:36.772040,-27137,2025-11-07 15:47:42.017952308
2025-11-07 15:47:36.772040,-1,2025-11-07 15:47:42.025644615
2025-11-07 15:47:36.772040,-107,2025-11-07 15:47:42.033336923
2025-11-07 15:47:36.772040,-27137,2025-11-07 15:47:42.041029231
2025-11-07 15:47:36.772040,-1,2025-11-07 15:47:42.048721538
2025-11-07 15:47:36.772040,-109,2025-11-07 15:47:42.056413846
2025-11-07 15:47:37.318848,-109,2025-11-07 15:47:42.064106154
2025-11-07 15:47:37.318848,-28417,2025-11-07 15:47:42.071798462
2025-11-07 15:47:37.318848,-1,2025-11-07 15:47:42.079490769
2025-11-07 15:47:37.318848,-119,2025-11-07 15:47:42.087183077
2025-11-07 15:47:37.318848,-30209,2025-11-07 15:47:42.094875385
2025-11-07 15:47:37.318848,-1,2025-11-07 15:47:42.102567692
2025-11-07 15:47:37.318848,-116,2025-11-07 15:47:42.110260000
2025-11-07 15:47:37.318848,-28417,2025-11-07 15:47:42.117952308
2025-11-07 15:47:37.318848,-1,2025-11-07 15:47:42.125644615
2025-11-07 15:47:37.318848,-95,2025-11-07 15:47:42.133336923
2025-11-07 15:47:37.318848,-19201,2025-11-07 15:47:42.141029231
2025-11-07 15:47:37.318848,-1,2025-11-07 15:47:42.148721538
2025-11-07 15:47:37.318848,-66,2025-11-07 15:47:42.156413846
2025-11-07 15:47:37.318848,-20481,2025-11-07 15:47:42.164106154
2025-11-07 15:47:37.318848,-1,2025-11-07 15:47:42.171798462
2025-11-07 15:47:37.318848,-97,2025-11-07 15:47:42.179490769
2025-11-07 15:47:37.318848,-24577,2025-11-07 15:47:42.187183077
2025-11-07 15:47:37.318848,-1,2025-11-07 15:47:42.194875385
2025-11-07 15:47:37.318848,-95,2025-11-07 15:47:42.202567692
2025-11-07 15:47:37.318848,-25345,2025-11-07 15:47:42.210260000
2025-11-07 15:47:37.318848,-1,2025-11-07 15:47:42.217952308
2025-11-07 15:47:37.318848,-100,2025-11-07 15:47:42.225644615
2025-11-07 15:47:37.318848,-24065,2025-11-07 15:47:42.233336923
2025-11-07 15:47:37.318848,-1,2025-11-07 15:47:42.241029231
2025-11-07 15:47:37.318848,-100,2025-11-07 15:47:42.248721538
2025-11-07 15:47:37.318848,-30721,2025-11-07 15:47:42.256413846
2025-11-07 15:47:37.318848,-1,2025-11-07 15:47:42.264106154
2025-11-07 15:47:37.318848,-154,2025-11-07 15:47:42.271798462
2025-11-07 15:47:37.318848,-22273,2025-11-07 15:47:42.279490769
2025-11-07 15:47:37.318848,-1,2025-11-07 15:47:42.287183077
2025-11-07 15:47:37.318848,197,2025-11-07 15:47:42.294875385
2025-11-07 15:47:37.318848,13568,2025-11-07 15:47:42.302567692
2025-11-07 15:47:37.318848,2,2025-11-07 15:47:42.310260000
2025-11-07 15:47:37.318848,665,2025-11-07 15:47:42.317952308
2025-11-07 15:47:37.318848,22784,2025-11-07 15:47:42.325644615
2025-11-07 15:47:37.318848,1,2025-11-07 15:47:42.333336923
2025-11-07 15:47:37.318848,-38,2025-11-07 15:47:42.341029230
2025-11-07 15:47:37.318848,-30209,2025-11-07 15:47:42.348721538
2025-11-07 15:47:37.318848,-1,2025-11-07 15:47:42.356413846
2025-11-07 15:47:37.318848,-102,2025-11-07 15:47:42.364106154
2025-11-07 15:47:37.318848,17151,2025-11-07 15:47:42.371798462
2025-11-07 15:47:37.318848,-1,2025-11-07 15:47:42.379490769
2025-11-07 15:47:37.318848,-224,2025-11-07 15:47:42.387183077
2025-11-07 15:47:37.318848,18943,2025-11-07 15:47:42.394875385
2025-11-07 15:47:37.318848,-1,2025-11-07 15:47:42.402567692
2025-11-07 15:47:37.318848,-185,2025-11-07 15:47:42.410260000
2025-11-07 15:47:37.318848,16383,2025-11-07 15:47:42.417952308
2025-11-07 15:47:37.318848,-1,2025-11-07 15:47:42.425644615
2025-11-07 15:47:37.318848,-176,2025-11-07 15:47:42.433336923
2025-11-07 15:47:37.318848,23295,2025-11-07 15:47:42.441029231
2025-11-07 15:47:37.318848,-1,2025-11-07 15:47:42.448721538
2025-11-07 15:47:37.318848,-169,2025-11-07 15:47:42.456413846
2025-11-07 15:47:37.318848,23807,2025-11-07 15:47:42.464106154
2025-11-07 15:47:37.318848,-1,2025-11-07 15:47:42.471798462
2025-11-07 15:47:37.318848,-152,2025-11-07 15:47:42.479490769
2025-11-07 15:47:37.318848,26879,2025-11-07 15:47:42.487183077
2025-11-07 15:47:37.318848,-1,2025-11-07 15:47:42.494875385
2025-11-07 15:47:37.318848,-150,2025-11-07 15:47:42.502567692
2025-11-07 15:47:37.318848,28671,2025-11-07 15:47:42.510260000
2025-11-07 15:47:37.318848,-1,2025-11-07 15:47:42.517952308
2025-11-07 15:47:37.318848,-145,2025-11-07 15:47:42.525644615
2025-11-07 15:47:37.318848,29183,2025-11-07 15:47:42.533336923
2025-11-07 15:47:37.318848,-1,2025-11-07 15:47:42.541029231
2025-11-07 15:47:37.318848,-138,2025-11-07 15:47:42.548721538
2025-11-07 15:47:37.318848,31231,2025-11-07 15:47:42.556413846
2025-11-07 15:47:37.318848,-1,2025-11-07 15:47:42.564106154
2025-11-07 15:47:37.318848,-133,2025-11-07 15:47:42.571798462
2025-11-07 15:47:37.318848,32255,2025-11-07 15:47:42.579490769
2025-11-07 15:47:37.318848,-1,2025-11-07 15:47:42.587183077
2025-11-07 15:47:37.318848,-119,2025-11-07 15:47:42.594875385
2025-11-07 15:47:37.318848,-28417,2025-11-07 15:47:42.602567692
2025-11-07 15:47:37.318848,-1,2025-11-07 15:47:42.610260000
2025-11-07 15:47:37.318848,-114,2025-11-07 15:47:42.617952308
2025-11-07 15:47:37.318848,-28417,2025-11-07 15:47:42.625644615
2025-11-07 15:47:37.318848,-1,2025-11-07 15:47:42.633336923
2025-11-07 15:47:37.318848,-100,2025-11-07 15:47:42.641029231
2025-11-07 15:47:37.318848,-22785,2025-11-07 15:47:42.648721538
2025-11-07 15:47:37.318848,-1,2025-11-07 15:47:42.656413846
2025-11-07 15:47:37.318848,-85,2025-11-07 15:47:42.664106154
2025-11-07 15:47:37.318848,-20481,2025-11-07 15:47:42.671798462
2025-11-07 15:47:37.318848,-1,2025-11-07 15:47:42.679490769
2025-11-07 15:47:37.318848,-78,2025-11-07 15:47:42.687183077
2025-11-07 15:47:37.318848,-19201,2025-11-07 15:47:42.694875385
2025-11-07 15:47:37.318848,-1,2025-11-07 15:47:42.702567692
2025-11-07 15:47:37.318848,-81,2025-11-07 15:47:42.710260000
2025-11-07 15:47:37.318848,-20993,2025-11-07 15:47:42.717952308
2025-11-07 15:47:37.318848,-1,2025-11-07 15:47:42.725644615
2025-11-07 15:47:37.318848,-88,2025-11-07 15:47:42.733336923
2025-11-07 15:47:37.318848,-25345,2025-11-07 15:47:42.741029231
2025-11-07 15:47:37.318848,-1,2025-11-07 15:47:42.748721538
2025-11-07 15:47:37.318848,-112,2025-11-07 15:47:42.756413846
2025-11-07 15:47:37.318848,-29441,2025-11-07 15:47:42.764106154
