timestamp,ecg,reconstructed_time
2025-11-07 19:14:36.372824,-26,2025-11-07 19:14:36.372824000
2025-11-07 19:14:36.372824,-18433,2025-11-07 19:14:36.380516308
2025-11-07 19:14:36.372824,0,2025-11-07 19:14:36.388208615
2025-11-07 19:14:36.372824,664,2025-11-07 19:14:36.395900923
2025-11-07 19:14:36.372824,12032,2025-11-07 19:14:36.403593231
2025-11-07 19:14:36.372824,4,2025-11-07 19:14:36.411285538
2025-11-07 19:14:36.372824,721,2025-11-07 19:14:36.418977846
2025-11-07 19:14:36.372824,-24320,2025-11-07 19:14:36.426670154
2025-11-07 19:14:36.372824,-1,2025-11-07 19:14:36.434362462
2025-11-07 19:14:36.372824,-288,2025-11-07 19:14:36.442054769
2025-11-07 19:14:36.372824,-7425,2025-11-07 19:14:36.449747077
2025-11-07 19:14:36.372824,-1,2025-11-07 19:14:36.457439385
2025-11-07 19:14:36.372824,-71,2025-11-07 19:14:36.465131692
2025-11-07 19:14:36.372824,26367,2025-11-07 19:14:36.472824000
2025-11-07 19:14:36.372824,-1,2025-11-07 19:14:36.480516308
2025-11-07 19:14:36.372824,-66,2025-11-07 19:14:36.488208615
2025-11-07 19:14:36.372824,-13569,2025-11-07 19:14:36.495900923
2025-11-07 19:14:36.372824,-1,2025-11-07 19:14:36.503593231
2025-11-07 19:14:36.372824,-95,2025-11-07 19:14:36.511285538
2025-11-07 19:14:36.372824,-16641,2025-11-07 19:14:36.518977846
2025-11-07 19:14:36.372824,-1,2025-11-07 19:14:36.526670154
2025-11-07 19:14:36.372824,-30,2025-11-07 19:14:36.534362462
2025-11-07 19:14:36.372824,-8193,2025-11-07 19:14:36.542054769
2025-11-07 19:14:36.372824,-1,2025-11-07 19:14:36.549747077
2025-11-07 19:14:36.372824,-35,2025-11-07 19:14:36.557439385
2025-11-07 19:14:36.372824,-5633,2025-11-07 19:14:36.565131692
2025-11-07 19:14:36.372824,-1,2025-11-07 19:14:36.572824000
2025-11-07 19:14:36.372824,-11,2025-11-07 19:14:36.580516308
2025-11-07 19:14:36.372824,767,2025-11-07 19:14:36.588208615
2025-11-07 19:14:36.372824,0,2025-11-07 19:14:36.595900923
2025-11-07 19:14:36.372824,14,2025-11-07 19:14:36.603593231
2025-11-07 19:14:36.372824,6656,2025-11-07 19:14:36.611285538
2025-11-07 19:14:36.372824,0,2025-11-07 19:14:36.618977846
2025-11-07 19:14:36.372824,45,2025-11-07 19:14:36.626670154
2025-11-07 19:14:36.372824,17664,2025-11-07 19:14:36.634362462
2025-11-07 19:14:36.372824,0,2025-11-07 19:14:36.642054769
2025-11-07 19:14:36.372824,83,2025-11-07 19:14:36.649747077
2025-11-07 19:14:36.372824,26112,2025-11-07 19:14:36.657439385
2025-11-07 19:14:36.372824,0,2025-11-07 19:14:36.665131692
2025-11-07 19:14:36.372824,133,2025-11-07 19:14:36.672824000
2025-11-07 19:14:36.372824,-23040,2025-11-07 19:14:36.680516308
2025-11-07 19:14:36.372824,0,2025-11-07 19:14:36.688208615
2025-11-07 19:14:36.372824,195,2025-11-07 19:14:36.695900923
2025-11-07 19:14:36.372824,-11520,2025-11-07 19:14:36.703593231
2025-11-07 19:14:36.372824,0,2025-11-07 19:14:36.711285538
2025-11-07 19:14:36.372824,214,2025-11-07 19:14:36.718977846
2025-11-07 19:14:36.372824,-10752,2025-11-07 19:14:36.726670154
2025-11-07 19:14:36.372824,0,2025-11-07 19:14:36.734362462
2025-11-07 19:14:36.372824,202,2025-11-07 19:14:36.742054769
2025-11-07 19:14:36.372824,-22272,2025-11-07 19:14:36.749747077
2025-11-07 19:14:36.372824,0,2025-11-07 19:14:36.757439385
2025-11-07 19:14:36.372824,114,2025-11-07 19:14:36.765131692
2025-11-07 19:14:36.372824,13824,2025-11-07 19:14:36.772824000
2025-11-07 19:14:36.372824,0,2025-11-07 19:14:36.780516308
2025-11-07 19:14:36.372824,-7,2025-11-07 19:14:36.788208615
2025-11-07 19:14:36.372824,-13569,2025-11-07 19:14:36.795900923
2025-11-07 19:14:36.372824,-1,2025-11-07 19:14:36.803593231
2025-11-07 19:14:36.372824,-78,2025-11-07 19:14:36.811285538
2025-11-07 19:14:36.372824,-23297,2025-11-07 19:14:36.818977846
2025-11-07 19:14:36.372824,-1,2025-11-07 19:14:36.826670154
2025-11-07 19:14:36.372824,-104,2025-11-07 19:14:36.834362462
2025-11-07 19:14:36.372824,-28161,2025-11-07 19:14:36.842054769
2025-11-07 19:14:36.372824,-1,2025-11-07 19:14:36.849747077
2025-11-07 19:14:36.372824,-107,2025-11-07 19:14:36.857439385
2025-11-07 19:14:36.372824,-26369,2025-11-07 19:14:36.865131692
2025-11-07 19:14:36.372824,-1,2025-11-07 19:14:36.872824000
2025-11-07 19:14:36.372824,-102,2025-11-07 19:14:36.880516308
2025-11-07 19:14:36.372824,-22785,2025-11-07 19:14:36.888208615
2025-11-07 19:14:36.372824,-1,2025-11-07 19:14:36.895900923
2025-11-07 19:14:36.372824,-85,2025-11-07 19:14:36.903593230
2025-11-07 19:14:36.372824,-22273,2025-11-07 19:14:36.911285538
2025-11-07 19:14:36.372824,-1,2025-11-07 19:14:36.918977846
2025-11-07 19:14:36.372824,-78,2025-11-07 19:14:36.926670154
2025-11-07 19:14:36.372824,-18433,2025-11-07 19:14:36.934362462
2025-11-07 19:14:36.372824,-1,2025-11-07 19:14:36.942054769
2025-11-07 19:14:36.372824,-71,2025-11-07 19:14:36.949747077
2025-11-07 19:14:36.372824,-16129,2025-11-07 19:14:36.957439385
2025-11-07 19:14:36.372824,-1,2025-11-07 19:14:36.965131692
2025-11-07 19:14:36.372824,-54,2025-11-07 19:14:36.972824000
2025-11-07 19:14:36.372824,-13569,2025-11-07 19:14:36.980516308
2025-11-07 19:14:36.372824,-1,2025-11-07 19:14:36.988208615
2025-11-07 19:14:36.372824,-49,2025-11-07 19:14:36.995900923
2025-11-07 19:14:36.372824,-9473,2025-11-07 19:14:37.003593231
2025-11-07 19:14:36.372824,-1,2025-11-07 19:14:37.011285538
2025-11-07 19:14:36.372824,-38,2025-11-07 19:14:37.018977846
2025-11-07 19:14:36.372824,-9985,2025-11-07 19:14:37.026670154
2025-11-07 19:14:36.372824,-1,2025-11-07 19:14:37.034362462
2025-11-07 19:14:36.372824,-45,2025-11-07 19:14:37.042054769
2025-11-07 19:14:36.372824,-11265,2025-11-07 19:14:37.049747077
2025-11-07 19:14:36.372824,-1,2025-11-07 19:14:37.057439385
2025-11-07 19:14:36.372824,-40,2025-11-07 19:14:37.065131692
2025-11-07 19:14:36.372824,-8705,2025-11-07 19:14:37.072824000
2025-11-07 19:14:36.372824,-1,2025-11-07 19:14:37.080516308
2025-11-07 19:14:36.372824,-23,2025-11-07 19:14:37.088208615
2025-11-07 19:14:36.372824,-769,2025-11-07 19:14:37.095900923
2025-11-07 19:14:36.372824,-1,2025-11-07 19:14:37.103593231
2025-11-07 19:14:36.372824,4,2025-11-07 19:14:37.111285538
2025-11-07 19:14:36.372824,-512,2025-11-07 19:14:37.118977846
2025-11-07 19:14:36.372824,-1,2025-11-07 19:14:37.126670154
2025-11-07 19:14:36.372824,-19,2025-11-07 19:14:37.134362462
2025-11-07 19:14:36.372824,-8705,2025-11-07 19:14:37.142054769
2025-11-07 19:14:36.372824,-1,2025-11-07 19:14:37.149747077
2025-11-07 19:14:36.372824,-38,2025-11-07 19:14:37.157439385
2025-11-07 19:14:36.372824,-9985,2025-11-07 19:14:37.165131692
2025-11-07 19:14:36.372824,-1,2025-11-07 19:14:37.172824000
2025-11-07 19:14:36.372824,-38,2025-11-07 19:14:37.180516308
2025-11-07 19:14:36.372824,-8193,2025-11-07 19:14:37.188208615
2025-11-07 19:14:36.372824,-1,2025-11-07 19:14:37.195900923
2025-11-07 19:14:36.372824,-35,2025-11-07 19:14:37.203593231
2025-11-07 19:14:36.958272,-38,2025-11-07 19:14:37.211285538
2025-11-07 19:14:36.958272,-8705,2025-11-07 19:14:37.218977846
2025-11-07 19:14:36.958272,-1,2025-11-07 19:14:37.226670154
2025-11-07 19:14:36.958272,-35,2025-11-07 19:14:37.234362462
2025-11-07 19:14:36.958272,-8705,2025-11-07 19:14:37.242054769
2025-11-07 19:14:36.958272,-1,2025-11-07 19:14:37.249747077
2025-11-07 19:14:36.958272,-35,2025-11-07 19:14:37.257439385
2025-11-07 19:14:36.958272,-10497,2025-11-07 19:14:37.265131692
2025-11-07 19:14:36.958272,-1,2025-11-07 19:14:37.272824000
2025-11-07 19:14:36.958272,14,2025-11-07 19:14:37.280516308
2025-11-07 19:14:36.958272,12288,2025-11-07 19:14:37.288208615
2025-11-07 19:14:36.958272,1,2025-11-07 19:14:37.295900923
2025-11-07 19:14:36.958272,895,2025-11-07 19:14:37.303593231
2025-11-07 19:14:36.958272,4352,2025-11-07 19:14:37.311285538
2025-11-07 19:14:36.958272,5,2025-11-07 19:14:37.318977846
2025-11-07 19:14:36.958272,790,2025-11-07 19:14:37.326670154
2025-11-07 19:14:36.958272,-25344,2025-11-07 19:14:37.334362462
2025-11-07 19:14:36.958272,-1,2025-11-07 19:14:37.342054769
2025-11-07 19:14:36.958272,-230,2025-11-07 19:14:37.349747077
2025-11-07 19:14:36.958272,255,2025-11-07 19:14:37.357439385
2025-11-07 19:14:36.958272,0,2025-11-07 19:14:37.365131692
2025-11-07 19:14:36.958272,-99,2025-11-07 19:14:37.372824000
2025-11-07 19:14:36.958272,20735,2025-11-07 19:14:37.380516308
2025-11-07 19:14:36.958272,-1,2025-11-07 19:14:37.388208615
2025-11-07 19:14:36.958272,-80,2025-11-07 19:14:37.395900923
2025-11-07 19:14:36.958272,-19713,2025-11-07 19:14:37.403593231
2025-11-07 19:14:36.958272,-1,2025-11-07 19:14:37.411285538
2025-11-07 19:14:36.958272,-111,2025-11-07 19:14:37.418977846
2025-11-07 19:14:36.958272,-20993,2025-11-07 19:14:37.426670154
2025-11-07 19:14:36.958272,-1,2025-11-07 19:14:37.434362462
2025-11-07 19:14:36.958272,-71,2025-11-07 19:14:37.442054769
2025-11-07 19:14:36.958272,-16641,2025-11-07 19:14:37.449747077
2025-11-07 19:14:36.958272,-1,2025-11-07 19:14:37.457439385
2025-11-07 19:14:36.958272,-40,2025-11-07 19:14:37.465131692
2025-11-07 19:14:36.958272,-8705,2025-11-07 19:14:37.472824000
2025-11-07 19:14:36.958272,-1,2025-11-07 19:14:37.480516308
2025-11-07 19:14:36.958272,-38,2025-11-07 19:14:37.488208615
2025-11-07 19:14:36.958272,-5121,2025-11-07 19:14:37.495900923
2025-11-07 19:14:36.958272,-1,2025-11-07 19:14:37.503593231
2025-11-07 19:14:36.958272,-7,2025-11-07 19:14:37.511285538
2025-11-07 19:14:36.958272,-257,2025-11-07 19:14:37.518977846
2025-11-07 19:14:36.958272,-1,2025-11-07 19:14:37.526670154
2025-11-07 19:14:36.958272,14,2025-11-07 19:14:37.534362462
2025-11-07 19:14:36.958272,10752,2025-11-07 19:14:37.542054769
2025-11-07 19:14:36.958272,0,2025-11-07 19:14:37.549747077
2025-11-07 19:14:36.958272,71,2025-11-07 19:14:37.557439385
2025-11-07 19:14:36.958272,24832,2025-11-07 19:14:37.565131692
2025-11-07 19:14:36.958272,0,2025-11-07 19:14:37.572824000
2025-11-07 19:14:36.958272,138,2025-11-07 19:14:37.580516308
2025-11-07 19:14:36.958272,-20480,2025-11-07 19:14:37.588208615
2025-11-07 19:14:36.958272,0,2025-11-07 19:14:37.595900923
2025-11-07 19:14:36.958272,161,2025-11-07 19:14:37.603593231
2025-11-07 19:14:36.958272,-28416,2025-11-07 19:14:37.611285538
2025-11-07 19:14:36.958272,0,2025-11-07 19:14:37.618977846
2025-11-07 19:14:36.958272,190,2025-11-07 19:14:37.626670154
2025-11-07 19:14:36.958272,-13312,2025-11-07 19:14:37.634362462
2025-11-07 19:14:36.958272,0,2025-11-07 19:14:37.642054769
2025-11-07 19:14:36.958272,169,2025-11-07 19:14:37.649747077
2025-11-07 19:14:36.958272,-26112,2025-11-07 19:14:37.657439385
2025-11-07 19:14:36.958272,0,2025-11-07 19:14:37.665131692
2025-11-07 19:14:36.958272,121,2025-11-07 19:14:37.672824000
2025-11-07 19:14:36.958272,12032,2025-11-07 19:14:37.680516308
2025-11-07 19:14:36.958272,0,2025-11-07 19:14:37.688208615
2025-11-07 19:14:36.958272,0,2025-11-07 19:14:37.695900923
2025-11-07 19:14:36.958272,-1792,2025-11-07 19:14:37.703593231
2025-11-07 19:14:36.958272,-1,2025-11-07 19:14:37.711285538
2025-11-07 19:14:36.958272,-35,2025-11-07 19:14:37.718977846
2025-11-07 19:14:36.958272,-17921,2025-11-07 19:14:37.726670154
2025-11-07 19:14:36.958272,-1,2025-11-07 19:14:37.734362462
2025-11-07 19:14:36.958272,-73,2025-11-07 19:14:37.742054769
2025-11-07 19:14:36.958272,-17409,2025-11-07 19:14:37.749747077
2025-11-07 19:14:36.958272,-1,2025-11-07 19:14:37.757439385
2025-11-07 19:14:36.958272,-78,2025-11-07 19:14:37.765131692
2025-11-07 19:14:36.958272,-20225,2025-11-07 19:14:37.772824000
2025-11-07 19:14:36.958272,-1,2025-11-07 19:14:37.780516308
2025-11-07 19:14:36.958272,-76,2025-11-07 19:14:37.788208615
2025-11-07 19:14:36.958272,-19713,2025-11-07 19:14:37.795900923
2025-11-07 19:14:36.958272,-1,2025-11-07 19:14:37.803593231
2025-11-07 19:14:36.958272,-88,2025-11-07 19:14:37.811285538
2025-11-07 19:14:36.958272,-19201,2025-11-07 19:14:37.818977846
2025-11-07 19:14:36.958272,-1,2025-11-07 19:14:37.826670154
2025-11-07 19:14:36.958272,-66,2025-11-07 19:14:37.834362462
2025-11-07 19:14:36.958272,-20225,2025-11-07 19:14:37.842054769
2025-11-07 19:14:36.958272,-1,2025-11-07 19:14:37.849747077
2025-11-07 19:14:36.958272,-88,2025-11-07 19:14:37.857439385
2025-11-07 19:14:36.958272,-18433,2025-11-07 19:14:37.865131692
2025-11-07 19:14:36.958272,-1,2025-11-07 19:14:37.872824000
2025-11-07 19:14:36.958272,-80,2025-11-07 19:14:37.880516308
2025-11-07 19:14:36.958272,-22785,2025-11-07 19:14:37.888208615
2025-11-07 19:14:36.958272,-1,2025-11-07 19:14:37.895900923
2025-11-07 19:14:36.958272,-71,2025-11-07 19:14:37.903593230
2025-11-07 19:14:36.958272,-18433,2025-11-07 19:14:37.911285538
2025-11-07 19:14:36.958272,-1,2025-11-07 19:14:37.918977846
2025-11-07 19:14:36.958272,-97,2025-11-07 19:14:37.926670154
2025-11-07 19:14:36.958272,-22785,2025-11-07 19:14:37.934362462
2025-11-07 19:14:36.958272,-1,2025-11-07 19:14:37.942054769
2025-11-07 19:14:36.958272,-76,2025-11-07 19:14:37.949747077
2025-11-07 19:14:36.958272,-23297,2025-11-07 19:14:37.957439385
2025-11-07 19:14:36.958272,-1,2025-11-07 19:14:37.965131692
2025-11-07 19:14:36.958272,-102,2025-11-07 19:14:37.972824000
2025-11-07 19:14:36.958272,-21505,2025-11-07 19:14:37.980516308
2025-11-07 19:14:36.958272,-1,2025-11-07 19:14:37.988208615
2025-11-07 19:14:36.958272,-73,2025-11-07 19:14:37.995900923
2025-11-07 19:14:36.958272,-19201,2025-11-07 19:14:38.003593231
2025-11-07 19:14:36.958272,-1,2025-11-07 19:14:38.011285538
2025-11-07 19:14:36.958272,-61,2025-11-07 19:14:38.018977846
2025-11-07 19:14:36.958272,-9985,2025-11-07 19:14:38.026670154
2025-11-07 19:14:36.958272,-1,2025-11-07 19:14:38.034362462
2025-11-07 19:14:36.958272,-54,2025-11-07 19:14:38.042054769
2025-11-07 19:14:37.451500,-83,2025-11-07 19:14:38.049747077
2025-11-07 19:14:37.451500,-24577,2025-11-07 19:14:38.057439385
2025-11-07 19:14:37.451500,-1,2025-11-07 19:14:38.065131692
2025-11-07 19:14:37.451500,-102,2025-11-07 19:14:38.072824000
2025-11-07 19:14:37.451500,-26369,2025-11-07 19:14:38.080516308
2025-11-07 19:14:37.451500,-1,2025-11-07 19:14:38.088208615
2025-11-07 19:14:37.451500,-102,2025-11-07 19:14:38.095900923
2025-11-07 19:14:37.451500,-25857,2025-11-07 19:14:38.103593231
2025-11-07 19:14:37.451500,-1,2025-11-07 19:14:38.111285538
2025-11-07 19:14:37.451500,-104,2025-11-07 19:14:38.118977846
2025-11-07 19:14:37.451500,-25089,2025-11-07 19:14:38.126670154
2025-11-07 19:14:37.451500,-1,2025-11-07 19:14:38.134362462
2025-11-07 19:14:37.451500,-90,2025-11-07 19:14:38.142054769
2025-11-07 19:14:37.451500,-22785,2025-11-07 19:14:38.149747077
2025-11-07 19:14:37.451500,-1,2025-11-07 19:14:38.157439385
2025-11-07 19:14:37.451500,-99,2025-11-07 19:14:38.165131692
2025-11-07 19:14:37.451500,-28161,2025-11-07 19:14:38.172824000
2025-11-07 19:14:37.451500,-1,2025-11-07 19:14:38.180516308
2025-11-07 19:14:37.451500,-47,2025-11-07 19:14:38.188208615
2025-11-07 19:14:37.451500,12543,2025-11-07 19:14:38.195900923
2025-11-07 19:14:37.451500,1,2025-11-07 19:14:38.203593231
2025-11-07 19:14:37.451500,1018,2025-11-07 19:14:38.211285538
2025-11-07 19:14:37.451500,-28928,2025-11-07 19:14:38.218977846
2025-11-07 19:14:37.451500,5,2025-11-07 19:14:38.226670154
2025-11-07 19:14:37.451500,747,2025-11-07 19:14:38.234362462
2025-11-07 19:14:37.451500,17408,2025-11-07 19:14:38.242054769
2025-11-07 19:14:37.451500,-1,2025-11-07 19:14:38.249747077
2025-11-07 19:14:37.451500,-268,2025-11-07 19:14:38.257439385
2025-11-07 19:14:37.451500,-17921,2025-11-07 19:14:38.265131692
2025-11-07 19:14:37.451500,-1,2025-11-07 19:14:38.272824000
2025-11-07 19:14:37.451500,-199,2025-11-07 19:14:38.280516308
2025-11-07 19:14:37.451500,767,2025-11-07 19:14:38.288208615
2025-11-07 19:14:37.451500,-1,2025-11-07 19:14:38.295900923
2025-11-07 19:14:37.451500,-161,2025-11-07 19:14:38.303593231
2025-11-07 19:14:37.451500,21503,2025-11-07 19:14:38.311285538
2025-11-07 19:14:37.451500,-1,2025-11-07 19:14:38.318977846
2025-11-07 19:14:37.451500,-199,2025-11-07 19:14:38.326670154
2025-11-07 19:14:37.451500,24575,2025-11-07 19:14:38.334362462
2025-11-07 19:14:37.451500,-1,2025-11-07 19:14:38.342054769
2025-11-07 19:14:37.451500,-149,2025-11-07 19:14:38.349747077
2025-11-07 19:14:37.451500,25087,2025-11-07 19:14:38.357439385
2025-11-07 19:14:37.451500,-1,2025-11-07 19:14:38.365131692
2025-11-07 19:14:37.451500,-145,2025-11-07 19:14:38.372824000
2025-11-07 19:14:37.451500,31231,2025-11-07 19:14:38.380516308
2025-11-07 19:14:37.451500,-1,2025-11-07 19:14:38.388208615
2025-11-07 19:14:37.451500,-135,2025-11-07 19:14:38.395900923
2025-11-07 19:14:37.451500,-32001,2025-11-07 19:14:38.403593231
2025-11-07 19:14:37.451500,-1,2025-11-07 19:14:38.411285538
2025-11-07 19:14:37.451500,-111,2025-11-07 19:14:38.418977846
2025-11-07 19:14:37.451500,-27137,2025-11-07 19:14:38.426670154
2025-11-07 19:14:37.451500,-1,2025-11-07 19:14:38.434362462
2025-11-07 19:14:37.451500,-104,2025-11-07 19:14:38.442054769
2025-11-07 19:14:37.451500,-21505,2025-11-07 19:14:38.449747077
2025-11-07 19:14:37.451500,-1,2025-11-07 19:14:38.457439385
2025-11-07 19:14:37.451500,-66,2025-11-07 19:14:38.465131692
2025-11-07 19:14:37.451500,-13057,2025-11-07 19:14:38.472824000
2025-11-07 19:14:37.451500,-1,2025-11-07 19:14:38.480516308
2025-11-07 19:14:37.451500,-23,2025-11-07 19:14:38.488208615
2025-11-07 19:14:37.451500,1279,2025-11-07 19:14:38.495900923
2025-11-07 19:14:37.451500,0,2025-11-07 19:14:38.503593231
2025-11-07 19:14:37.451500,19,2025-11-07 19:14:38.511285538
2025-11-07 19:14:37.451500,9728,2025-11-07 19:14:38.518977846
2025-11-07 19:14:37.451500,0,2025-11-07 19:14:38.526670154
2025-11-07 19:14:37.451500,59,2025-11-07 19:14:38.534362462
2025-11-07 19:14:37.451500,16896,2025-11-07 19:14:38.542054769
2025-11-07 19:14:37.451500,0,2025-11-07 19:14:38.549747077
2025-11-07 19:14:37.451500,54,2025-11-07 19:14:38.557439385
2025-11-07 19:14:37.451500,7168,2025-11-07 19:14:38.565131692
2025-11-07 19:14:37.451500,0,2025-11-07 19:14:38.572824000
2025-11-07 19:14:37.451500,-4,2025-11-07 19:14:38.580516308
2025-11-07 19:14:37.451500,-11777,2025-11-07 19:14:38.588208615
2025-11-07 19:14:37.451500,-1,2025-11-07 19:14:38.595900923
2025-11-07 19:14:37.451500,-85,2025-11-07 19:14:38.603593231
2025-11-07 19:14:37.451500,-32513,2025-11-07 19:14:38.611285538
2025-11-07 19:14:37.451500,-1,2025-11-07 19:14:38.618977846
2025-11-07 19:14:37.451500,-149,2025-11-07 19:14:38.626670154
2025-11-07 19:14:37.451500,28159,2025-11-07 19:14:38.634362462
2025-11-07 19:14:37.451500,-1,2025-11-07 19:14:38.642054769
2025-11-07 19:14:37.451500,-149,2025-11-07 19:14:38.649747077
2025-11-07 19:14:37.451500,25599,2025-11-07 19:14:38.657439385
2025-11-07 19:14:37.451500,-1,2025-11-07 19:14:38.665131692
2025-11-07 19:14:37.451500,-154,2025-11-07 19:14:38.672824000
2025-11-07 19:14:37.451500,27647,2025-11-07 19:14:38.680516308
2025-11-07 19:14:37.451500,-1,2025-11-07 19:14:38.688208615
2025-11-07 19:14:37.451500,-138,2025-11-07 19:14:38.695900923
2025-11-07 19:14:37.451500,32511,2025-11-07 19:14:38.703593231
2025-11-07 19:14:37.451500,-1,2025-11-07 19:14:38.711285538
2025-11-07 19:14:37.451500,-133,2025-11-07 19:14:38.718977846
2025-11-07 19:14:37.451500,-32513,2025-11-07 19:14:38.726670154
2025-11-07 19:14:37.451500,-1,2025-11-07 19:14:38.734362462
2025-11-07 19:14:37.451500,-114,2025-11-07 19:14:38.742054769
2025-11-07 19:14:37.451500,-22785,2025-11-07 19:14:38.749747077
2025-11-07 19:14:37.451500,-1,2025-11-07 19:14:38.757439385
2025-11-07 19:14:37.451500,-73,2025-11-07 19:14:38.765131692
2025-11-07 19:14:37.451500,-19713,2025-11-07 19:14:38.772824000
2025-11-07 19:14:37.451500,-1,2025-11-07 19:14:38.780516308
2025-11-07 19:14:37.451500,-95,2025-11-07 19:14:38.788208615
2025-11-07 19:14:37.451500,-21505,2025-11-07 19:14:38.795900923
2025-11-07 19:14:37.451500,-1,2025-11-07 19:14:38.803593231
2025-11-07 19:14:37.451500,-52,2025-11-07 19:14:38.811285538
2025-11-07 19:14:37.451500,-12289,2025-11-07 19:14:38.818977846
2025-11-07 19:14:37.451500,-1,2025-11-07 19:14:38.826670154
2025-11-07 19:14:37.451500,-71,2025-11-07 19:14:38.834362462
2025-11-07 19:14:37.451500,-16129,2025-11-07 19:14:38.842054769
2025-11-07 19:14:37.451500,-1,2025-11-07 19:14:38.849747077
2025-11-07 19:14:37.451500,-49,2025-11-07 19:14:38.857439385
2025-11-07 19:14:37.451500,-11777,2025-11-07 19:14:38.865131692
2025-11-07 19:14:37.451500,-1,2025-11-07 19:14:38.872824000
2025-11-07 19:14:37.451500,-47,2025-11-07 19:14:38.880516308
2025-11-07 19:14:38.038541,-64,2025-11-07 19:14:38.888208615
2025-11-07 19:14:38.038541,-15361,2025-11-07 19:14:38.895900923
2025-11-07 19:14:38.038541,-1,2025-11-07 19:14:38.903593230
2025-11-07 19:14:38.038541,-28,2025-11-07 19:14:38.911285538
2025-11-07 19:14:38.038541,-2561,2025-11-07 19:14:38.918977846
2025-11-07 19:14:38.038541,-1,2025-11-07 19:14:38.926670154
2025-11-07 19:14:38.038541,-4,2025-11-07 19:14:38.934362462
2025-11-07 19:14:38.038541,767,2025-11-07 19:14:38.942054769
2025-11-07 19:14:38.038541,0,2025-11-07 19:14:38.949747077
2025-11-07 19:14:38.038541,-4,2025-11-07 19:14:38.957439385
2025-11-07 19:14:38.038541,-2049,2025-11-07 19:14:38.965131692
2025-11-07 19:14:38.038541,-1,2025-11-07 19:14:38.972824000
2025-11-07 19:14:38.038541,-16,2025-11-07 19:14:38.980516308
2025-11-07 19:14:38.038541,-6913,2025-11-07 19:14:38.988208615
2025-11-07 19:14:38.038541,-1,2025-11-07 19:14:38.995900923
2025-11-07 19:14:38.038541,-40,2025-11-07 19:14:39.003593231
2025-11-07 19:14:38.038541,-9473,2025-11-07 19:14:39.011285538
2025-11-07 19:14:38.038541,-1,2025-11-07 19:14:39.018977846
2025-11-07 19:14:38.038541,-19,2025-11-07 19:14:39.026670154
2025-11-07 19:14:38.038541,-3841,2025-11-07 19:14:39.034362462
2025-11-07 19:14:38.038541,-1,2025-11-07 19:14:39.042054769
2025-11-07 19:14:38.038541,-26,2025-11-07 19:14:39.049747077
2025-11-07 19:14:38.038541,-5121,2025-11-07 19:14:39.057439385
2025-11-07 19:14:38.038541,-1,2025-11-07 19:14:39.065131692
2025-11-07 19:14:38.038541,-7,2025-11-07 19:14:39.072824000
2025-11-07 19:14:38.038541,-769,2025-11-07 19:14:39.080516308
2025-11-07 19:14:38.038541,-1,2025-11-07 19:14:39.088208615
2025-11-07 19:14:38.038541,-19,2025-11-07 19:14:39.095900923
2025-11-07 19:14:38.038541,-4609,2025-11-07 19:14:39.103593231
2025-11-07 19:14:38.038541,-1,2025-11-07 19:14:39.111285538
2025-11-07 19:14:38.038541,107,2025-11-07 19:14:39.118977846
2025-11-07 19:14:38.038541,15616,2025-11-07 19:14:39.126670154
2025-11-07 19:14:38.038541,2,2025-11-07 19:14:39.134362462
2025-11-07 19:14:38.038541,1328,2025-11-07 19:14:39.142054769
2025-11-07 19:14:38.038541,-3840,2025-11-07 19:14:39.149747077
2025-11-07 19:14:38.038541,5,2025-11-07 19:14:39.157439385
2025-11-07 19:14:38.038541,587,2025-11-07 19:14:39.165131692
2025-11-07 19:14:38.038541,-6912,2025-11-07 19:14:39.172824000
2025-11-07 19:14:38.038541,-2,2025-11-07 19:14:39.180516308
2025-11-07 19:14:38.038541,-176,2025-11-07 19:14:39.188208615
2025-11-07 19:14:38.038541,-2049,2025-11-07 19:14:39.195900923
2025-11-07 19:14:38.038541,-1,2025-11-07 19:14:39.203593231
2025-11-07 19:14:38.038541,-183,2025-11-07 19:14:39.211285538
2025-11-07 19:14:38.038541,21503,2025-11-07 19:14:39.218977846
2025-11-07 19:14:38.038541,-1,2025-11-07 19:14:39.226670154
2025-11-07 19:14:38.038541,-85,2025-11-07 19:14:39.234362462
2025-11-07 19:14:38.038541,-32001,2025-11-07 19:14:39.242054769
2025-11-07 19:14:38.038541,-1,2025-11-07 19:14:39.249747077
2025-11-07 19:14:38.038541,-126,2025-11-07 19:14:39.257439385
2025-11-07 19:14:38.038541,-19201,2025-11-07 19:14:39.265131692
2025-11-07 19:14:38.038541,-1,2025-11-07 19:14:39.272824000
2025-11-07 19:14:38.038541,-78,2025-11-07 19:14:39.280516308
2025-11-07 19:14:38.038541,-22273,2025-11-07 19:14:39.288208615
2025-11-07 19:14:38.038541,-1,2025-11-07 19:14:39.295900923
2025-11-07 19:14:38.038541,-52,2025-11-07 19:14:39.303593231
2025-11-07 19:14:38.038541,-7425,2025-11-07 19:14:39.311285538
2025-11-07 19:14:38.038541,-1,2025-11-07 19:14:39.318977846
2025-11-07 19:14:38.038541,-47,2025-11-07 19:14:39.326670154
2025-11-07 19:14:38.038541,-9473,2025-11-07 19:14:39.334362462
2025-11-07 19:14:38.038541,-1,2025-11-07 19:14:39.342054769
2025-11-07 19:14:38.038541,2,2025-11-07 19:14:39.349747077
2025-11-07 19:14:38.038541,512,2025-11-07 19:14:39.357439385
2025-11-07 19:14:38.038541,0,2025-11-07 19:14:39.365131692
2025-11-07 19:14:38.038541,0,2025-11-07 19:14:39.372824000
2025-11-07 19:14:38.038541,10752,2025-11-07 19:14:39.380516308
2025-11-07 19:14:38.038541,0,2025-11-07 19:14:39.388208615
2025-11-07 19:14:38.038541,71,2025-11-07 19:14:39.395900923
2025-11-07 19:14:38.038541,14592,2025-11-07 19:14:39.403593231
2025-11-07 19:14:38.038541,0,2025-11-07 19:14:39.411285538
2025-11-07 19:14:38.038541,90,2025-11-07 19:14:39.418977846
2025-11-07 19:14:38.038541,-27392,2025-11-07 19:14:39.426670154
2025-11-07 19:14:38.038541,0,2025-11-07 19:14:39.434362462
2025-11-07 19:14:38.038541,154,2025-11-07 19:14:39.442054769
2025-11-07 19:14:38.038541,-27392,2025-11-07 19:14:39.449747077
2025-11-07 19:14:38.038541,0,2025-11-07 19:14:39.457439385
2025-11-07 19:14:38.038541,173,2025-11-07 19:14:39.465131692
2025-11-07 19:14:38.038541,-20480,2025-11-07 19:14:39.472824000
2025-11-07 19:14:38.038541,0,2025-11-07 19:14:39.480516308
2025-11-07 19:14:38.038541,154,2025-11-07 19:14:39.488208615
2025-11-07 19:14:38.038541,-30976,2025-11-07 19:14:39.495900923
2025-11-07 19:14:38.038541,0,2025-11-07 19:14:39.503593231
2025-11-07 19:14:38.038541,92,2025-11-07 19:14:39.511285538
2025-11-07 19:14:38.038541,8448,2025-11-07 19:14:39.518977846
2025-11-07 19:14:38.038541,0,2025-11-07 19:14:39.526670154
2025-11-07 19:14:38.038541,-9,2025-11-07 19:14:39.534362462
2025-11-07 19:14:38.038541,-8193,2025-11-07 19:14:39.542054769
2025-11-07 19:14:38.038541,-1,2025-11-07 19:14:39.549747077
2025-11-07 19:14:38.038541,-49,2025-11-07 19:14:39.557439385
2025-11-07 19:14:38.038541,-15361,2025-11-07 19:14:39.565131692
2025-11-07 19:14:38.038541,-1,2025-11-07 19:14:39.572824000
2025-11-07 19:14:38.038541,-78,2025-11-07 19:14:39.580516308
2025-11-07 19:14:38.038541,-20225,2025-11-07 19:14:39.588208615
2025-11-07 19:14:38.038541,-1,2025-11-07 19:14:39.595900923
2025-11-07 19:14:38.038541,-69,2025-11-07 19:14:39.603593231
2025-11-07 19:14:38.038541,-18433,2025-11-07 19:14:39.611285538
2025-11-07 19:14:38.038541,-1,2025-11-07 19:14:39.618977846
2025-11-07 19:14:38.038541,-83,2025-11-07 19:14:39.626670154
2025-11-07 19:14:38.038541,-17921,2025-11-07 19:14:39.634362462
2025-11-07 19:14:38.038541,-1,2025-11-07 19:14:39.642054769
2025-11-07 19:14:38.038541,-52,2025-11-07 19:14:39.649747077
2025-11-07 19:14:38.038541,-11265,2025-11-07 19:14:39.657439385
2025-11-07 19:14:38.038541,-1,2025-11-07 19:14:39.665131692
2025-11-07 19:14:38.038541,-40,2025-11-07 19:14:39.672824000
2025-11-07 19:14:38.038541,-8705,2025-11-07 19:14:39.680516308
2025-11-07 19:14:38.038541,-1,2025-11-07 19:14:39.688208615
2025-11-07 19:14:38.038541,-33,2025-11-07 19:14:39.695900923
2025-11-07 19:14:38.038541,-10497,2025-11-07 19:14:39.703593231
2025-11-07 19:14:38.038541,-1,2025-11-07 19:14:39.711285538
2025-11-07 19:14:38.038541,-52,2025-11-07 19:14:39.718977846
2025-11-07 19:14:38.577822,-38,2025-11-07 19:14:39.726670154
2025-11-07 19:14:38.577822,-3841,2025-11-07 19:14:39.734362462
2025-11-07 19:14:38.577822,-1,2025-11-07 19:14:39.742054769
2025-11-07 19:14:38.577822,-26,2025-11-07 19:14:39.749747077
2025-11-07 19:14:38.577822,-8705,2025-11-07 19:14:39.757439385
2025-11-07 19:14:38.577822,-1,2025-11-07 19:14:39.765131692
2025-11-07 19:14:38.577822,-30,2025-11-07 19:14:39.772824000
2025-11-07 19:14:38.577822,-6913,2025-11-07 19:14:39.780516308
2025-11-07 19:14:38.577822,-1,2025-11-07 19:14:39.788208615
2025-11-07 19:14:38.577822,-33,2025-11-07 19:14:39.795900923
2025-11-07 19:14:38.577822,-8193,2025-11-07 19:14:39.803593231
2025-11-07 19:14:38.577822,-1,2025-11-07 19:14:39.811285538
2025-11-07 19:14:38.577822,-23,2025-11-07 19:14:39.818977846
2025-11-07 19:14:38.577822,-2561,2025-11-07 19:14:39.826670154
2025-11-07 19:14:38.577822,-1,2025-11-07 19:14:39.834362462
2025-11-07 19:14:38.577822,-16,2025-11-07 19:14:39.842054769
2025-11-07 19:14:38.577822,-9985,2025-11-07 19:14:39.849747077
2025-11-07 19:14:38.577822,-1,2025-11-07 19:14:39.857439385
2025-11-07 19:14:38.577822,-40,2025-11-07 19:14:39.865131692
2025-11-07 19:14:38.577822,-2561,2025-11-07 19:14:39.872824000
2025-11-07 19:14:38.577822,-1,2025-11-07 19:14:39.880516308
2025-11-07 19:14:38.577822,-19,2025-11-07 19:14:39.888208615
2025-11-07 19:14:38.577822,-9473,2025-11-07 19:14:39.895900923
2025-11-07 19:14:38.577822,-1,2025-11-07 19:14:39.903593230
2025-11-07 19:14:38.577822,-23,2025-11-07 19:14:39.911285538
2025-11-07 19:14:38.577822,255,2025-11-07 19:14:39.918977846
2025-11-07 19:14:38.577822,0,2025-11-07 19:14:39.926670154
2025-11-07 19:14:38.577822,7,2025-11-07 19:14:39.934362462
2025-11-07 19:14:38.577822,-1792,2025-11-07 19:14:39.942054769
2025-11-07 19:14:38.577822,-1,2025-11-07 19:14:39.949747077
2025-11-07 19:14:38.577822,-2,2025-11-07 19:14:39.957439385
2025-11-07 19:14:38.577822,4351,2025-11-07 19:14:39.965131692
2025-11-07 19:14:38.577822,0,2025-11-07 19:14:39.972824000
2025-11-07 19:14:38.577822,-19,2025-11-07 19:14:39.980516308
2025-11-07 19:14:38.577822,-12289,2025-11-07 19:14:39.988208615
2025-11-07 19:14:38.577822,-1,2025-11-07 19:14:39.995900923
2025-11-07 19:14:38.577822,-35,2025-11-07 19:14:40.003593231
2025-11-07 19:14:38.577822,-8705,2025-11-07 19:14:40.011285538
2025-11-07 19:14:38.577822,-1,2025-11-07 19:14:40.018977846
2025-11-07 19:14:38.577822,-26,2025-11-07 19:14:40.026670154
2025-11-07 19:14:38.577822,-2049,2025-11-07 19:14:40.034362462
2025-11-07 19:14:38.577822,-1,2025-11-07 19:14:40.042054769
2025-11-07 19:14:38.577822,-57,2025-11-07 19:14:40.049747077
2025-11-07 19:14:38.577822,-20993,2025-11-07 19:14:40.057439385
2025-11-07 19:14:38.577822,-1,2025-11-07 19:14:40.065131692
2025-11-07 19:14:38.577822,-35,2025-11-07 19:14:40.072824000
2025-11-07 19:14:38.577822,-6401,2025-11-07 19:14:40.080516308
2025-11-07 19:14:38.577822,-1,2025-11-07 19:14:40.088208615
2025-11-07 19:14:38.577822,-61,2025-11-07 19:14:40.095900923
2025-11-07 19:14:38.577822,-16129,2025-11-07 19:14:40.103593231
2025-11-07 19:14:38.577822,-1,2025-11-07 19:14:40.111285538
2025-11-07 19:14:38.577822,-59,2025-11-07 19:14:40.118977846
2025-11-07 19:14:38.577822,-5121,2025-11-07 19:14:40.126670154
2025-11-07 19:14:38.577822,-1,2025-11-07 19:14:40.134362462
2025-11-07 19:14:38.577822,316,2025-11-07 19:14:40.142054769
2025-11-07 19:14:38.577822,17408,2025-11-07 19:14:40.149747077
2025-11-07 19:14:38.577822,4,2025-11-07 19:14:40.157439385
2025-11-07 19:14:38.577822,1590,2025-11-07 19:14:40.165131692
2025-11-07 19:14:38.577822,-23296,2025-11-07 19:14:40.172824000
2025-11-07 19:14:38.577822,3,2025-11-07 19:14:40.180516308
2025-11-07 19:14:38.577822,-69,2025-11-07 19:14:40.188208615
2025-11-07 19:14:38.577822,13567,2025-11-07 19:14:40.195900923
2025-11-07 19:14:38.577822,-1,2025-11-07 19:14:40.203593231
2025-11-07 19:14:38.577822,-35,2025-11-07 19:14:40.211285538
2025-11-07 19:14:38.577822,17663,2025-11-07 19:14:40.218977846
2025-11-07 19:14:38.577822,-1,2025-11-07 19:14:40.226670154
2025-11-07 19:14:38.577822,-252,2025-11-07 19:14:40.234362462
2025-11-07 19:14:38.577822,28159,2025-11-07 19:14:40.242054769
2025-11-07 19:14:38.577822,-1,2025-11-07 19:14:40.249747077
2025-11-07 19:14:38.577822,-145,2025-11-07 19:14:40.257439385
2025-11-07 19:14:38.577822,21503,2025-11-07 19:14:40.265131692
2025-11-07 19:14:38.577822,-1,2025-11-07 19:14:40.272824000
2025-11-07 19:14:38.577822,-128,2025-11-07 19:14:40.280516308
2025-11-07 19:14:38.577822,-27137,2025-11-07 19:14:40.288208615
2025-11-07 19:14:38.577822,-1,2025-11-07 19:14:40.295900923
2025-11-07 19:14:38.577822,-121,2025-11-07 19:14:40.303593231
2025-11-07 19:14:38.577822,-27649,2025-11-07 19:14:40.311285538
2025-11-07 19:14:38.577822,-1,2025-11-07 19:14:40.318977846
2025-11-07 19:14:38.577822,-92,2025-11-07 19:14:40.326670154
2025-11-07 19:14:38.577822,-21505,2025-11-07 19:14:40.334362462
2025-11-07 19:14:38.577822,-1,2025-11-07 19:14:40.342054769
2025-11-07 19:14:38.577822,-69,2025-11-07 19:14:40.349747077
2025-11-07 19:14:38.577822,-17921,2025-11-07 19:14:40.357439385
2025-11-07 19:14:38.577822,-1,2025-11-07 19:14:40.365131692
2025-11-07 19:14:38.577822,-73,2025-11-07 19:14:40.372824000
2025-11-07 19:14:38.577822,-8193,2025-11-07 19:14:40.380516308
2025-11-07 19:14:38.577822,-1,2025-11-07 19:14:40.388208615
2025-11-07 19:14:38.577822,-19,2025-11-07 19:14:40.395900923
2025-11-07 19:14:38.577822,-9985,2025-11-07 19:14:40.403593231
2025-11-07 19:14:38.577822,-1,2025-11-07 19:14:40.411285538
2025-11-07 19:14:38.577822,-21,2025-11-07 19:14:40.418977846
2025-11-07 19:14:38.577822,3839,2025-11-07 19:14:40.426670154
2025-11-07 19:14:38.577822,0,2025-11-07 19:14:40.434362462
2025-11-07 19:14:38.577822,19,2025-11-07 19:14:40.442054769
2025-11-07 19:14:38.577822,7680,2025-11-07 19:14:40.449747077
2025-11-07 19:14:38.577822,0,2025-11-07 19:14:40.457439385
2025-11-07 19:14:38.577822,61,2025-11-07 19:14:40.465131692
2025-11-07 19:14:38.577822,21248,2025-11-07 19:14:40.472824000
2025-11-07 19:14:38.577822,0,2025-11-07 19:14:40.480516308
2025-11-07 19:14:38.577822,66,2025-11-07 19:14:40.488208615
2025-11-07 19:14:38.577822,13312,2025-11-07 19:14:40.495900923
2025-11-07 19:14:38.577822,0,2025-11-07 19:14:40.503593231
2025-11-07 19:14:38.577822,69,2025-11-07 19:14:40.511285538
2025-11-07 19:14:38.577822,15616,2025-11-07 19:14:40.518977846
2025-11-07 19:14:38.577822,0,2025-11-07 19:14:40.526670154
2025-11-07 19:14:38.577822,14,2025-11-07 19:14:40.534362462
2025-11-07 19:14:38.577822,-7168,2025-11-07 19:14:40.542054769
2025-11-07 19:14:38.577822,-1,2025-11-07 19:14:40.549747077
2025-11-07 19:14:38.577822,-61,2025-11-07 19:14:40.557439385
2025-11-07 19:14:39.163441,-92,2025-11-07 19:14:40.565131692
2025-11-07 19:14:39.163441,-27649,2025-11-07 19:14:40.572824000
2025-11-07 19:14:39.163441,-1,2025-11-07 19:14:40.580516308
2025-11-07 19:14:39.163441,-111,2025-11-07 19:14:40.588208615
2025-11-07 19:14:39.163441,-24577,2025-11-07 19:14:40.595900923
2025-11-07 19:14:39.163441,-1,2025-11-07 19:14:40.603593231
2025-11-07 19:14:39.163441,-95,2025-11-07 19:14:40.611285538
2025-11-07 19:14:39.163441,-24577,2025-11-07 19:14:40.618977846
2025-11-07 19:14:39.163441,-1,2025-11-07 19:14:40.626670154
2025-11-07 19:14:39.163441,-85,2025-11-07 19:14:40.634362462
2025-11-07 19:14:39.163441,-16641,2025-11-07 19:14:40.642054769
2025-11-07 19:14:39.163441,-1,2025-11-07 19:14:40.649747077
2025-11-07 19:14:39.163441,-64,2025-11-07 19:14:40.657439385
2025-11-07 19:14:39.163441,-17409,2025-11-07 19:14:40.665131692
2025-11-07 19:14:39.163441,-1,2025-11-07 19:14:40.672824000
2025-11-07 19:14:39.163441,-73,2025-11-07 19:14:40.680516308
2025-11-07 19:14:39.163441,-19713,2025-11-07 19:14:40.688208615
2025-11-07 19:14:39.163441,-1,2025-11-07 19:14:40.695900923
2025-11-07 19:14:39.163441,-78,2025-11-07 19:14:40.703593231
2025-11-07 19:14:39.163441,-17409,2025-11-07 19:14:40.711285538
2025-11-07 19:14:39.163441,-1,2025-11-07 19:14:40.718977846
2025-11-07 19:14:39.163441,-64,2025-11-07 19:14:40.726670154
2025-11-07 19:14:39.163441,-15361,2025-11-07 19:14:40.734362462
2025-11-07 19:14:39.163441,-1,2025-11-07 19:14:40.742054769
2025-11-07 19:14:39.163441,-61,2025-11-07 19:14:40.749747077
2025-11-07 19:14:39.163441,-16129,2025-11-07 19:14:40.757439385
2025-11-07 19:14:39.163441,-1,2025-11-07 19:14:40.765131692
2025-11-07 19:14:39.163441,-71,2025-11-07 19:14:40.772824000
2025-11-07 19:14:39.163441,-19713,2025-11-07 19:14:40.780516308
2025-11-07 19:14:39.163441,-1,2025-11-07 19:14:40.788208615
2025-11-07 19:14:39.163441,-57,2025-11-07 19:14:40.795900923
2025-11-07 19:14:39.163441,-7425,2025-11-07 19:14:40.803593231
2025-11-07 19:14:39.163441,-1,2025-11-07 19:14:40.811285538
2025-11-07 19:14:39.163441,-45,2025-11-07 19:14:40.818977846
2025-11-07 19:14:39.163441,-12289,2025-11-07 19:14:40.826670154
2025-11-07 19:14:39.163441,-1,2025-11-07 19:14:40.834362462
2025-11-07 19:14:39.163441,-30,2025-11-07 19:14:40.842054769
2025-11-07 19:14:39.163441,-6913,2025-11-07 19:14:40.849747077
2025-11-07 19:14:39.163441,-1,2025-11-07 19:14:40.857439385
2025-11-07 19:14:39.163441,-35,2025-11-07 19:14:40.865131692
2025-11-07 19:14:39.163441,-8193,2025-11-07 19:14:40.872824000
2025-11-07 19:14:39.163441,-1,2025-11-07 19:14:40.880516308
2025-11-07 19:14:39.163441,-38,2025-11-07 19:14:40.888208615
2025-11-07 19:14:39.163441,-9985,2025-11-07 19:14:40.895900923
2025-11-07 19:14:39.163441,-1,2025-11-07 19:14:40.903593230
2025-11-07 19:14:39.163441,-33,2025-11-07 19:14:40.911285538
2025-11-07 19:14:39.163441,-5633,2025-11-07 19:14:40.918977846
2025-11-07 19:14:39.163441,-1,2025-11-07 19:14:40.926670154
2025-11-07 19:14:39.163441,-23,2025-11-07 19:14:40.934362462
2025-11-07 19:14:39.163441,-6913,2025-11-07 19:14:40.942054769
2025-11-07 19:14:39.163441,-1,2025-11-07 19:14:40.949747077
2025-11-07 19:14:39.163441,-26,2025-11-07 19:14:40.957439385
2025-11-07 19:14:39.163441,-4609,2025-11-07 19:14:40.965131692
2025-11-07 19:14:39.163441,-1,2025-11-07 19:14:40.972824000
2025-11-07 19:14:39.163441,-19,2025-11-07 19:14:40.980516308
2025-11-07 19:14:39.163441,-5633,2025-11-07 19:14:40.988208615
2025-11-07 19:14:39.163441,-1,2025-11-07 19:14:40.995900923
2025-11-07 19:14:39.163441,-28,2025-11-07 19:14:41.003593231
2025-11-07 19:14:39.163441,-8193,2025-11-07 19:14:41.011285538
2025-11-07 19:14:39.163441,-1,2025-11-07 19:14:41.018977846
2025-11-07 19:14:39.163441,-28,2025-11-07 19:14:41.026670154
2025-11-07 19:14:39.163441,-1537,2025-11-07 19:14:41.034362462
2025-11-07 19:14:39.163441,-1,2025-11-07 19:14:41.042054769
2025-11-07 19:14:39.163441,19,2025-11-07 19:14:41.049747077
2025-11-07 19:14:39.163441,4864,2025-11-07 19:14:41.057439385
2025-11-07 19:14:39.163441,0,2025-11-07 19:14:41.065131692
2025-11-07 19:14:39.163441,7,2025-11-07 19:14:41.072824000
2025-11-07 19:14:39.163441,4864,2025-11-07 19:14:41.080516308
2025-11-07 19:14:39.163441,0,2025-11-07 19:14:41.088208615
2025-11-07 19:14:39.163441,26,2025-11-07 19:14:41.095900923
2025-11-07 19:14:39.163441,0,2025-11-07 19:14:41.103593231
2025-11-07 19:14:39.163441,0,2025-11-07 19:14:41.111285538
2025-11-07 19:14:39.163441,-28,2025-11-07 19:14:41.118977846
2025-11-07 19:14:39.163441,-9985,2025-11-07 19:14:41.126670154
2025-11-07 19:14:39.163441,-1,2025-11-07 19:14:41.134362462
2025-11-07 19:14:39.163441,-30,2025-11-07 19:14:41.142054769
2025-11-07 19:14:39.163441,-257,2025-11-07 19:14:41.149747077
2025-11-07 19:14:39.163441,-1,2025-11-07 19:14:41.157439385
2025-11-07 19:14:39.163441,7,2025-11-07 19:14:41.165131692
2025-11-07 19:14:39.163441,-4096,2025-11-07 19:14:41.172824000
2025-11-07 19:14:39.163441,-1,2025-11-07 19:14:41.180516308
2025-11-07 19:14:39.163441,-19,2025-11-07 19:14:41.188208615
2025-11-07 19:14:39.163441,255,2025-11-07 19:14:41.195900923
2025-11-07 19:14:39.163441,0,2025-11-07 19:14:41.203593231
2025-11-07 19:14:39.163441,0,2025-11-07 19:14:41.211285538
2025-11-07 19:14:39.163441,-5888,2025-11-07 19:14:41.218977846
2025-11-07 19:14:39.163441,-1,2025-11-07 19:14:41.226670154
2025-11-07 19:14:39.163441,-11,2025-11-07 19:14:41.234362462
2025-11-07 19:14:39.163441,-21505,2025-11-07 19:14:41.242054769
2025-11-07 19:14:39.163441,0,2025-11-07 19:14:41.249747077
2025-11-07 19:14:39.163441,695,2025-11-07 19:14:41.257439385
2025-11-07 19:14:39.163441,15872,2025-11-07 19:14:41.265131692
2025-11-07 19:14:39.163441,5,2025-11-07 19:14:41.272824000
2025-11-07 19:14:39.163441,1252,2025-11-07 19:14:41.280516308
2025-11-07 19:14:39.163441,10496,2025-11-07 19:14:41.288208615
2025-11-07 19:14:39.163441,1,2025-11-07 19:14:41.295900923
2025-11-07 19:14:39.163441,-259,2025-11-07 19:14:41.303593231
2025-11-07 19:14:39.163441,-17409,2025-11-07 19:14:41.311285538
2025-11-07 19:14:39.163441,-1,2025-11-07 19:14:41.318977846
2025-11-07 19:14:39.163441,-42,2025-11-07 19:14:41.326670154
2025-11-07 19:14:39.163441,14847,2025-11-07 19:14:41.334362462
2025-11-07 19:14:39.163441,-1,2025-11-07 19:14:41.342054769
2025-11-07 19:14:39.163441,-138,2025-11-07 19:14:41.349747077
2025-11-07 19:14:39.163441,-19713,2025-11-07 19:14:41.357439385
2025-11-07 19:14:39.163441,-1,2025-11-07 19:14:41.365131692
2025-11-07 19:14:39.163441,-121,2025-11-07 19:14:41.372824000
2025-11-07 19:14:39.163441,-29441,2025-11-07 19:14:41.380516308
2025-11-07 19:14:39.163441,-1,2025-11-07 19:14:41.388208615
2025-11-07 19:14:39.163441,-83,2025-11-07 19:14:41.395900923
2025-11-07 19:14:39.747593,-80,2025-11-07 19:14:41.403593231
2025-11-07 19:14:39.747593,-18433,2025-11-07 19:14:41.411285538
2025-11-07 19:14:39.747593,-1,2025-11-07 19:14:41.418977846
2025-11-07 19:14:39.747593,-59,2025-11-07 19:14:41.426670154
2025-11-07 19:14:39.747593,-15361,2025-11-07 19:14:41.434362462
2025-11-07 19:14:39.747593,-1,2025-11-07 19:14:41.442054769
2025-11-07 19:14:39.747593,-52,2025-11-07 19:14:41.449747077
2025-11-07 19:14:39.747593,-4609,2025-11-07 19:14:41.457439385
2025-11-07 19:14:39.747593,-1,2025-11-07 19:14:41.465131692
2025-11-07 19:14:39.747593,-7,2025-11-07 19:14:41.472824000
2025-11-07 19:14:39.747593,-769,2025-11-07 19:14:41.480516308
2025-11-07 19:14:39.747593,-1,2025-11-07 19:14:41.488208615
2025-11-07 19:14:39.747593,9,2025-11-07 19:14:41.495900923
2025-11-07 19:14:39.747593,7680,2025-11-07 19:14:41.503593231
2025-11-07 19:14:39.747593,0,2025-11-07 19:14:41.511285538
2025-11-07 19:14:39.747593,59,2025-11-07 19:14:41.518977846
2025-11-07 19:14:39.747593,23040,2025-11-07 19:14:41.526670154
2025-11-07 19:14:39.747593,0,2025-11-07 19:14:41.534362462
2025-11-07 19:14:39.747593,107,2025-11-07 19:14:41.542054769
2025-11-07 19:14:39.747593,31488,2025-11-07 19:14:41.549747077
2025-11-07 19:14:39.747593,0,2025-11-07 19:14:41.557439385
2025-11-07 19:14:39.747593,145,2025-11-07 19:14:41.565131692
2025-11-07 19:14:39.747593,-26624,2025-11-07 19:14:41.572824000
2025-11-07 19:14:39.747593,0,2025-11-07 19:14:41.580516308
2025-11-07 19:14:39.747593,138,2025-11-07 19:14:41.588208615
2025-11-07 19:14:39.747593,-31488,2025-11-07 19:14:41.595900923
2025-11-07 19:14:39.747593,0,2025-11-07 19:14:41.603593231
2025-11-07 19:14:39.747593,133,2025-11-07 19:14:41.611285538
2025-11-07 19:14:39.747593,28416,2025-11-07 19:14:41.618977846
2025-11-07 19:14:39.747593,0,2025-11-07 19:14:41.626670154
2025-11-07 19:14:39.747593,83,2025-11-07 19:14:41.634362462
2025-11-07 19:14:39.747593,13312,2025-11-07 19:14:41.642054769
2025-11-07 19:14:39.747593,0,2025-11-07 19:14:41.649747077
2025-11-07 19:14:39.747593,9,2025-11-07 19:14:41.657439385
2025-11-07 19:14:39.747593,-5888,2025-11-07 19:14:41.665131692
2025-11-07 19:14:39.747593,-1,2025-11-07 19:14:41.672824000
2025-11-07 19:14:39.747593,-42,2025-11-07 19:14:41.680516308
2025-11-07 19:14:39.747593,-13569,2025-11-07 19:14:41.688208615
2025-11-07 19:14:39.747593,-1,2025-11-07 19:14:41.695900923
2025-11-07 19:14:39.747593,-52,2025-11-07 19:14:41.703593231
2025-11-07 19:14:39.747593,-11777,2025-11-07 19:14:41.711285538
2025-11-07 19:14:39.747593,-1,2025-11-07 19:14:41.718977846
2025-11-07 19:14:39.747593,-54,2025-11-07 19:14:41.726670154
2025-11-07 19:14:39.747593,-14337,2025-11-07 19:14:41.734362462
2025-11-07 19:14:39.747593,-1,2025-11-07 19:14:41.742054769
2025-11-07 19:14:39.747593,-49,2025-11-07 19:14:41.749747077
2025-11-07 19:14:39.747593,-11265,2025-11-07 19:14:41.757439385
2025-11-07 19:14:39.747593,-1,2025-11-07 19:14:41.765131692
2025-11-07 19:14:39.747593,-42,2025-11-07 19:14:41.772824000
2025-11-07 19:14:39.747593,-9473,2025-11-07 19:14:41.780516308
2025-11-07 19:14:39.747593,-1,2025-11-07 19:14:41.788208615
2025-11-07 19:14:39.747593,-35,2025-11-07 19:14:41.795900923
2025-11-07 19:14:39.747593,-7425,2025-11-07 19:14:41.803593231
2025-11-07 19:14:39.747593,-1,2025-11-07 19:14:41.811285538
2025-11-07 19:14:39.747593,-26,2025-11-07 19:14:41.818977846
2025-11-07 19:14:39.747593,-6401,2025-11-07 19:14:41.826670154
2025-11-07 19:14:39.747593,-1,2025-11-07 19:14:41.834362462
2025-11-07 19:14:39.747593,-26,2025-11-07 19:14:41.842054769
2025-11-07 19:14:39.747593,-5633,2025-11-07 19:14:41.849747077
2025-11-07 19:14:39.747593,-1,2025-11-07 19:14:41.857439385
2025-11-07 19:14:39.747593,-26,2025-11-07 19:14:41.865131692
2025-11-07 19:14:39.747593,-6913,2025-11-07 19:14:41.872824000
2025-11-07 19:14:39.747593,-1,2025-11-07 19:14:41.880516308
2025-11-07 19:14:39.747593,-33,2025-11-07 19:14:41.888208615
2025-11-07 19:14:39.747593,-8193,2025-11-07 19:14:41.895900923
2025-11-07 19:14:39.747593,-1,2025-11-07 19:14:41.903593230
2025-11-07 19:14:39.747593,-23,2025-11-07 19:14:41.911285538
2025-11-07 19:14:39.747593,-2561,2025-11-07 19:14:41.918977846
2025-11-07 19:14:39.747593,-1,2025-11-07 19:14:41.926670154
2025-11-07 19:14:39.747593,-26,2025-11-07 19:14:41.934362462
2025-11-07 19:14:39.747593,-7425,2025-11-07 19:14:41.942054769
2025-11-07 19:14:39.747593,-1,2025-11-07 19:14:41.949747077
2025-11-07 19:14:39.747593,-16,2025-11-07 19:14:41.957439385
2025-11-07 19:14:39.747593,-2049,2025-11-07 19:14:41.965131692
2025-11-07 19:14:39.747593,-1,2025-11-07 19:14:41.972824000
2025-11-07 19:14:39.747593,-16,2025-11-07 19:14:41.980516308
2025-11-07 19:14:39.747593,-3841,2025-11-07 19:14:41.988208615
2025-11-07 19:14:39.747593,-1,2025-11-07 19:14:41.995900923
2025-11-07 19:14:39.747593,-16,2025-11-07 19:14:42.003593231
2025-11-07 19:14:39.747593,-3841,2025-11-07 19:14:42.011285538
2025-11-07 19:14:39.747593,-1,2025-11-07 19:14:42.018977846
2025-11-07 19:14:39.747593,-7,2025-11-07 19:14:42.026670154
2025-11-07 19:14:39.747593,-5121,2025-11-07 19:14:42.034362462
2025-11-07 19:14:39.747593,-1,2025-11-07 19:14:42.042054769
2025-11-07 19:14:39.747593,-38,2025-11-07 19:14:42.049747077
2025-11-07 19:14:39.747593,-5121,2025-11-07 19:14:42.057439385
2025-11-07 19:14:39.747593,-1,2025-11-07 19:14:42.065131692
2025-11-07 19:14:39.747593,-7,2025-11-07 19:14:42.072824000
2025-11-07 19:14:39.747593,-2561,2025-11-07 19:14:42.080516308
2025-11-07 19:14:39.747593,-1,2025-11-07 19:14:42.088208615
2025-11-07 19:14:39.747593,-14,2025-11-07 19:14:42.095900923
2025-11-07 19:14:39.747593,-5121,2025-11-07 19:14:42.103593231
2025-11-07 19:14:39.747593,-1,2025-11-07 19:14:42.111285538
2025-11-07 19:14:39.747593,-23,2025-11-07 19:14:42.118977846
2025-11-07 19:14:39.747593,-2561,2025-11-07 19:14:42.126670154
2025-11-07 19:14:39.747593,-1,2025-11-07 19:14:42.134362462
2025-11-07 19:14:39.747593,-9,2025-11-07 19:14:42.142054769
2025-11-07 19:14:39.747593,-5121,2025-11-07 19:14:42.149747077
2025-11-07 19:14:39.747593,-1,2025-11-07 19:14:42.157439385
2025-11-07 19:14:39.747593,-26,2025-11-07 19:14:42.165131692
2025-11-07 19:14:39.747593,-1537,2025-11-07 19:14:42.172824000
2025-11-07 19:14:39.747593,-1,2025-11-07 19:14:42.180516308
2025-11-07 19:14:39.747593,19,2025-11-07 19:14:42.188208615
2025-11-07 19:14:39.747593,7168,2025-11-07 19:14:42.195900923
2025-11-07 19:14:39.747593,0,2025-11-07 19:14:42.203593231
2025-11-07 19:14:39.747593,14,2025-11-07 19:14:42.211285538
2025-11-07 19:14:39.747593,1024,2025-11-07 19:14:42.218977846
2025-11-07 19:14:39.747593,0,2025-11-07 19:14:42.226670154
2025-11-07 19:14:39.747593,16,2025-11-07 19:14:42.234362462
2025-11-07 19:14:40.289101,11,2025-11-07 19:14:42.242054769
2025-11-07 19:14:40.289101,-4864,2025-11-07 19:14:42.249747077
2025-11-07 19:14:40.289101,-1,2025-11-07 19:14:42.257439385
2025-11-07 19:14:40.289101,-38,2025-11-07 19:14:42.265131692
2025-11-07 19:14:40.289101,-8193,2025-11-07 19:14:42.272824000
2025-11-07 19:14:40.289101,-1,2025-11-07 19:14:42.280516308
2025-11-07 19:14:40.289101,-28,2025-11-07 19:14:42.288208615
2025-11-07 19:14:40.289101,-6401,2025-11-07 19:14:42.295900923
2025-11-07 19:14:40.289101,-1,2025-11-07 19:14:42.303593231
2025-11-07 19:14:40.289101,-21,2025-11-07 19:14:42.311285538
2025-11-07 19:14:40.289101,-4609,2025-11-07 19:14:42.318977846
2025-11-07 19:14:40.289101,-1,2025-11-07 19:14:42.326670154
2025-11-07 19:14:40.289101,-28,2025-11-07 19:14:42.334362462
2025-11-07 19:14:40.289101,-8193,2025-11-07 19:14:42.342054769
2025-11-07 19:14:40.289101,-1,2025-11-07 19:14:42.349747077
2025-11-07 19:14:40.289101,-33,2025-11-07 19:14:42.357439385
2025-11-07 19:14:40.289101,-14337,2025-11-07 19:14:42.365131692
2025-11-07 19:14:40.289101,-1,2025-11-07 19:14:42.372824000
2025-11-07 19:14:40.289101,2,2025-11-07 19:14:42.380516308
2025-11-07 19:14:40.289101,26880,2025-11-07 19:14:42.388208615
2025-11-07 19:14:40.289101,1,2025-11-07 19:14:42.395900923
2025-11-07 19:14:40.289101,1033,2025-11-07 19:14:42.403593231
2025-11-07 19:14:40.289101,-30720,2025-11-07 19:14:42.411285538
2025-11-07 19:14:40.289101,5,2025-11-07 19:14:42.418977846
2025-11-07 19:14:40.289101,818,2025-11-07 19:14:42.426670154
2025-11-07 19:14:40.289101,-23552,2025-11-07 19:14:42.434362462
2025-11-07 19:14:40.289101,-1,2025-11-07 19:14:42.442054769
2025-11-07 19:14:40.289101,-218,2025-11-07 19:14:42.449747077
2025-11-07 19:14:40.289101,-3329,2025-11-07 19:14:42.457439385
2025-11-07 19:14:40.289101,-1,2025-11-07 19:14:42.465131692
2025-11-07 19:14:40.289101,-116,2025-11-07 19:14:42.472824000
2025-11-07 19:14:40.289101,18943,2025-11-07 19:14:42.480516308
2025-11-07 19:14:40.289101,-1,2025-11-07 19:14:42.488208615
2025-11-07 19:14:40.289101,-107,2025-11-07 19:14:42.495900923
2025-11-07 19:14:40.289101,-27137,2025-11-07 19:14:42.503593231
2025-11-07 19:14:40.289101,-1,2025-11-07 19:14:42.511285538
2025-11-07 19:14:40.289101,-133,2025-11-07 19:14:42.518977846
2025-11-07 19:14:40.289101,-25089,2025-11-07 19:14:42.526670154
2025-11-07 19:14:40.289101,-1,2025-11-07 19:14:42.534362462
2025-11-07 19:14:40.289101,-88,2025-11-07 19:14:42.542054769
2025-11-07 19:14:40.289101,-22785,2025-11-07 19:14:42.549747077
2025-11-07 19:14:40.289101,-1,2025-11-07 19:14:42.557439385
2025-11-07 19:14:40.289101,-61,2025-11-07 19:14:42.565131692
2025-11-07 19:14:40.289101,-9473,2025-11-07 19:14:42.572824000
2025-11-07 19:14:40.289101,-1,2025-11-07 19:14:42.580516308
2025-11-07 19:14:40.289101,-45,2025-11-07 19:14:42.588208615
2025-11-07 19:14:40.289101,-12289,2025-11-07 19:14:42.595900923
2025-11-07 19:14:40.289101,-1,2025-11-07 19:14:42.603593231
2025-11-07 19:14:40.289101,-16,2025-11-07 19:14:42.611285538
2025-11-07 19:14:40.289101,4351,2025-11-07 19:14:42.618977846
2025-11-07 19:14:40.289101,0,2025-11-07 19:14:42.626670154
2025-11-07 19:14:40.289101,14,2025-11-07 19:14:42.634362462
2025-11-07 19:14:40.289101,4096,2025-11-07 19:14:42.642054769
2025-11-07 19:14:40.289101,0,2025-11-07 19:14:42.649747077
2025-11-07 19:14:40.289101,42,2025-11-07 19:14:42.657439385
2025-11-07 19:14:40.289101,15616,2025-11-07 19:14:42.665131692
2025-11-07 19:14:40.289101,0,2025-11-07 19:14:42.672824000
2025-11-07 19:14:40.289101,83,2025-11-07 19:14:42.680516308
2025-11-07 19:14:40.289101,27392,2025-11-07 19:14:42.688208615
2025-11-07 19:14:40.289101,0,2025-11-07 19:14:42.695900923
2025-11-07 19:14:40.289101,119,2025-11-07 19:14:42.703593231
2025-11-07 19:14:40.289101,-32768,2025-11-07 19:14:42.711285538
2025-11-07 19:14:40.289101,0,2025-11-07 19:14:42.718977846
2025-11-07 19:14:40.289101,140,2025-11-07 19:14:42.726670154
2025-11-07 19:14:40.289101,-28416,2025-11-07 19:14:42.734362462
2025-11-07 19:14:40.289101,0,2025-11-07 19:14:42.742054769
2025-11-07 19:14:40.289101,140,2025-11-07 19:14:42.749747077
2025-11-07 19:14:40.289101,-30976,2025-11-07 19:14:42.757439385
2025-11-07 19:14:40.289101,0,2025-11-07 19:14:42.765131692
2025-11-07 19:14:40.289101,119,2025-11-07 19:14:42.772824000
2025-11-07 19:14:40.289101,18176,2025-11-07 19:14:42.780516308
2025-11-07 19:14:40.289101,0,2025-11-07 19:14:42.788208615
2025-11-07 19:14:40.289101,21,2025-11-07 19:14:42.795900923
2025-11-07 19:14:40.289101,-2304,2025-11-07 19:14:42.803593231
2025-11-07 19:14:40.289101,-1,2025-11-07 19:14:42.811285538
2025-11-07 19:14:40.289101,-35,2025-11-07 19:14:42.818977846
2025-11-07 19:14:40.289101,-15361,2025-11-07 19:14:42.826670154
2025-11-07 19:14:40.289101,-1,2025-11-07 19:14:42.834362462
2025-11-07 19:14:40.289101,-71,2025-11-07 19:14:42.842054769
2025-11-07 19:14:40.289101,-17409,2025-11-07 19:14:42.849747077
2025-11-07 19:14:40.289101,-1,2025-11-07 19:14:42.857439385
2025-11-07 19:14:40.289101,-69,2025-11-07 19:14:42.865131692
2025-11-07 19:14:40.289101,-16641,2025-11-07 19:14:42.872824000
2025-11-07 19:14:40.289101,-1,2025-11-07 19:14:42.880516308
2025-11-07 19:14:40.289101,-61,2025-11-07 19:14:42.888208615
2025-11-07 19:14:40.289101,-16129,2025-11-07 19:14:42.895900923
2025-11-07 19:14:40.289101,-1,2025-11-07 19:14:42.903593230
2025-11-07 19:14:40.289101,-69,2025-11-07 19:14:42.911285538
2025-11-07 19:14:40.289101,-12289,2025-11-07 19:14:42.918977846
2025-11-07 19:14:40.289101,-1,2025-11-07 19:14:42.926670154
2025-11-07 19:14:40.289101,-26,2025-11-07 19:14:42.934362462
2025-11-07 19:14:40.289101,-7425,2025-11-07 19:14:42.942054769
2025-11-07 19:14:40.289101,-1,2025-11-07 19:14:42.949747077
2025-11-07 19:14:40.289101,-49,2025-11-07 19:14:42.957439385
2025-11-07 19:14:40.289101,-10497,2025-11-07 19:14:42.965131692
2025-11-07 19:14:40.289101,-1,2025-11-07 19:14:42.972824000
2025-11-07 19:14:40.289101,-23,2025-11-07 19:14:42.980516308
2025-11-07 19:14:40.289101,-5633,2025-11-07 19:14:42.988208615
2025-11-07 19:14:40.289101,-1,2025-11-07 19:14:42.995900923
2025-11-07 19:14:40.289101,-33,2025-11-07 19:14:43.003593231
2025-11-07 19:14:40.289101,-7425,2025-11-07 19:14:43.011285538
2025-11-07 19:14:40.289101,-1,2025-11-07 19:14:43.018977846
2025-11-07 19:14:40.289101,-33,2025-11-07 19:14:43.026670154
2025-11-07 19:14:40.289101,-9473,2025-11-07 19:14:43.034362462
2025-11-07 19:14:40.289101,-1,2025-11-07 19:14:43.042054769
2025-11-07 19:14:40.289101,-30,2025-11-07 19:14:43.049747077
2025-11-07 19:14:40.289101,-3841,2025-11-07 19:14:43.057439385
2025-11-07 19:14:40.289101,-1,2025-11-07 19:14:43.065131692
2025-11-07 19:14:40.289101,-16,2025-11-07 19:14:43.072824000
2025-11-07 19:14:40.827562,-42,2025-11-07 19:14:43.080516308
2025-11-07 19:14:40.827562,-11777,2025-11-07 19:14:43.088208615
2025-11-07 19:14:40.827562,-1,2025-11-07 19:14:43.095900923
2025-11-07 19:14:40.827562,-21,2025-11-07 19:14:43.103593231
2025-11-07 19:14:40.827562,-3329,2025-11-07 19:14:43.111285538
2025-11-07 19:14:40.827562,-1,2025-11-07 19:14:43.118977846
2025-11-07 19:14:40.827562,-33,2025-11-07 19:14:43.126670154
2025-11-07 19:14:40.827562,-9985,2025-11-07 19:14:43.134362462
2025-11-07 19:14:40.827562,-1,2025-11-07 19:14:43.142054769
2025-11-07 19:14:40.827562,-26,2025-11-07 19:14:43.149747077
2025-11-07 19:14:40.827562,-2561,2025-11-07 19:14:43.157439385
2025-11-07 19:14:40.827562,-1,2025-11-07 19:14:43.165131692
2025-11-07 19:14:40.827562,-19,2025-11-07 19:14:43.172824000
2025-11-07 19:14:40.827562,-6913,2025-11-07 19:14:43.180516308
2025-11-07 19:14:40.827562,-1,2025-11-07 19:14:43.188208615
2025-11-07 19:14:40.827562,-16,2025-11-07 19:14:43.195900923
2025-11-07 19:14:40.827562,-257,2025-11-07 19:14:43.203593231
2025-11-07 19:14:40.827562,-1,2025-11-07 19:14:43.211285538
2025-11-07 19:14:40.827562,-4,2025-11-07 19:14:43.218977846
2025-11-07 19:14:40.827562,-2561,2025-11-07 19:14:43.226670154
2025-11-07 19:14:40.827562,-1,2025-11-07 19:14:43.234362462
2025-11-07 19:14:40.827562,-14,2025-11-07 19:14:43.242054769
2025-11-07 19:14:40.827562,-5121,2025-11-07 19:14:43.249747077
2025-11-07 19:14:40.827562,-1,2025-11-07 19:14:43.257439385
2025-11-07 19:14:40.827562,-28,2025-11-07 19:14:43.265131692
2025-11-07 19:14:40.827562,-3329,2025-11-07 19:14:43.272824000
2025-11-07 19:14:40.827562,-1,2025-11-07 19:14:43.280516308
2025-11-07 19:14:40.827562,11,2025-11-07 19:14:43.288208615
2025-11-07 19:14:40.827562,5376,2025-11-07 19:14:43.295900923
2025-11-07 19:14:40.827562,0,2025-11-07 19:14:43.303593231
2025-11-07 19:14:40.827562,19,2025-11-07 19:14:43.311285538
2025-11-07 19:14:40.827562,7168,2025-11-07 19:14:43.318977846
2025-11-07 19:14:40.827562,0,2025-11-07 19:14:43.326670154
2025-11-07 19:14:40.827562,30,2025-11-07 19:14:43.334362462
2025-11-07 19:14:40.827562,1792,2025-11-07 19:14:43.342054769
2025-11-07 19:14:40.827562,0,2025-11-07 19:14:43.349747077
2025-11-07 19:14:40.827562,-21,2025-11-07 19:14:43.357439385
2025-11-07 19:14:40.827562,-4609,2025-11-07 19:14:43.365131692
2025-11-07 19:14:40.827562,-1,2025-11-07 19:14:43.372824000
2025-11-07 19:14:40.827562,-11,2025-11-07 19:14:43.380516308
2025-11-07 19:14:40.827562,-5633,2025-11-07 19:14:43.388208615
2025-11-07 19:14:40.827562,-1,2025-11-07 19:14:43.395900923
2025-11-07 19:14:40.827562,-21,2025-11-07 19:14:43.403593231
2025-11-07 19:14:40.827562,255,2025-11-07 19:14:43.411285538
2025-11-07 19:14:40.827562,0,2025-11-07 19:14:43.418977846
2025-11-07 19:14:40.827562,4,2025-11-07 19:14:43.426670154
2025-11-07 19:14:40.827562,-1792,2025-11-07 19:14:43.434362462
2025-11-07 19:14:40.827562,-1,2025-11-07 19:14:43.442054769
2025-11-07 19:14:40.827562,-4,2025-11-07 19:14:43.449747077
2025-11-07 19:14:40.827562,-257,2025-11-07 19:14:43.457439385
2025-11-07 19:14:40.827562,-1,2025-11-07 19:14:43.465131692
2025-11-07 19:14:40.827562,-19,2025-11-07 19:14:43.472824000
2025-11-07 19:14:40.827562,-9985,2025-11-07 19:14:43.480516308
2025-11-07 19:14:40.827562,-1,2025-11-07 19:14:43.488208615
2025-11-07 19:14:40.827562,7,2025-11-07 19:14:43.495900923
2025-11-07 19:14:40.827562,3072,2025-11-07 19:14:43.503593231
2025-11-07 19:14:40.827562,1,2025-11-07 19:14:43.511285538
2025-11-07 19:14:40.827562,845,2025-11-07 19:14:43.518977846
2025-11-07 19:14:40.827562,19456,2025-11-07 19:14:43.526670154
2025-11-07 19:14:40.827562,5,2025-11-07 19:14:43.534362462
2025-11-07 19:14:40.827562,1028,2025-11-07 19:14:43.542054769
2025-11-07 19:14:40.827562,27392,2025-11-07 19:14:43.549747077
2025-11-07 19:14:40.827562,0,2025-11-07 19:14:43.557439385
2025-11-07 19:14:40.827562,-235,2025-11-07 19:14:43.565131692
2025-11-07 19:14:40.827562,-14849,2025-11-07 19:14:43.572824000
2025-11-07 19:14:40.827562,-1,2025-11-07 19:14:43.580516308
2025-11-07 19:14:40.827562,-95,2025-11-07 19:14:43.588208615
2025-11-07 19:14:40.827562,19711,2025-11-07 19:14:43.595900923
2025-11-07 19:14:40.827562,-1,2025-11-07 19:14:43.603593231
2025-11-07 19:14:40.827562,-99,2025-11-07 19:14:43.611285538
2025-11-07 19:14:40.827562,-21505,2025-11-07 19:14:43.618977846
2025-11-07 19:14:40.827562,-1,2025-11-07 19:14:43.626670154
2025-11-07 19:14:40.827562,-119,2025-11-07 19:14:43.634362462
2025-11-07 19:14:40.827562,-20225,2025-11-07 19:14:43.642054769
2025-11-07 19:14:40.827562,-1,2025-11-07 19:14:43.649747077
2025-11-07 19:14:40.827562,-52,2025-11-07 19:14:43.657439385
2025-11-07 19:14:40.827562,-18433,2025-11-07 19:14:43.665131692
2025-11-07 19:14:40.827562,-1,2025-11-07 19:14:43.672824000
2025-11-07 19:14:40.827562,-80,2025-11-07 19:14:43.680516308
2025-11-07 19:14:40.827562,-15361,2025-11-07 19:14:43.688208615
2025-11-07 19:14:40.827562,-1,2025-11-07 19:14:43.695900923
2025-11-07 19:14:40.827562,-42,2025-11-07 19:14:43.703593231
2025-11-07 19:14:40.827562,-7425,2025-11-07 19:14:43.711285538
2025-11-07 19:14:40.827562,-1,2025-11-07 19:14:43.718977846
2025-11-07 19:14:40.827562,-33,2025-11-07 19:14:43.726670154
2025-11-07 19:14:40.827562,-3841,2025-11-07 19:14:43.734362462
2025-11-07 19:14:40.827562,-1,2025-11-07 19:14:43.742054769
2025-11-07 19:14:40.827562,16,2025-11-07 19:14:43.749747077
2025-11-07 19:14:40.827562,7168,2025-11-07 19:14:43.757439385
2025-11-07 19:14:40.827562,0,2025-11-07 19:14:43.765131692
2025-11-07 19:14:40.827562,28,2025-11-07 19:14:43.772824000
2025-11-07 19:14:40.827562,10752,2025-11-07 19:14:43.780516308
2025-11-07 19:14:40.827562,0,2025-11-07 19:14:43.788208615
2025-11-07 19:14:40.827562,78,2025-11-07 19:14:43.795900923
2025-11-07 19:14:40.827562,26624,2025-11-07 19:14:43.803593231
2025-11-07 19:14:40.827562,0,2025-11-07 19:14:43.811285538
2025-11-07 19:14:40.827562,114,2025-11-07 19:14:43.818977846
2025-11-07 19:14:40.827562,-32768,2025-11-07 19:14:43.826670154
2025-11-07 19:14:40.827562,0,2025-11-07 19:14:43.834362462
2025-11-07 19:14:40.827562,147,2025-11-07 19:14:43.842054769
2025-11-07 19:14:40.827562,-21248,2025-11-07 19:14:43.849747077
2025-11-07 19:14:40.827562,0,2025-11-07 19:14:43.857439385
2025-11-07 19:14:40.827562,169,2025-11-07 19:14:43.865131692
2025-11-07 19:14:40.827562,28416,2025-11-07 19:14:43.872824000
2025-11-07 19:14:40.827562,0,2025-11-07 19:14:43.880516308
2025-11-07 19:14:40.827562,85,2025-11-07 19:14:43.888208615
2025-11-07 19:14:40.827562,23040,2025-11-07 19:14:43.895900923
2025-11-07 19:14:40.827562,0,2025-11-07 19:14:43.903593230
2025-11-07 19:14:40.827562,40,2025-11-07 19:14:43.911285538
2025-11-07 19:14:41.412561,-16,2025-11-07 19:14:43.918977846
2025-11-07 19:14:41.412561,-8193,2025-11-07 19:14:43.926670154
2025-11-07 19:14:41.412561,-1,2025-11-07 19:14:43.934362462
2025-11-07 19:14:41.412561,-54,2025-11-07 19:14:43.942054769
2025-11-07 19:14:41.412561,-19713,2025-11-07 19:14:43.949747077
2025-11-07 19:14:41.412561,-1,2025-11-07 19:14:43.957439385
2025-11-07 19:14:41.412561,-85,2025-11-07 19:14:43.965131692
2025-11-07 19:14:41.412561,-20225,2025-11-07 19:14:43.972824000
2025-11-07 19:14:41.412561,-1,2025-11-07 19:14:43.980516308
2025-11-07 19:14:41.412561,-80,2025-11-07 19:14:43.988208615
2025-11-07 19:14:41.412561,-16641,2025-11-07 19:14:43.995900923
2025-11-07 19:14:41.412561,-1,2025-11-07 19:14:44.003593231
2025-11-07 19:14:41.412561,-54,2025-11-07 19:14:44.011285538
2025-11-07 19:14:41.412561,-14337,2025-11-07 19:14:44.018977846
2025-11-07 19:14:41.412561,-1,2025-11-07 19:14:44.026670154
2025-11-07 19:14:41.412561,-40,2025-11-07 19:14:44.034362462
2025-11-07 19:14:41.412561,-8705,2025-11-07 19:14:44.042054769
2025-11-07 19:14:41.412561,-1,2025-11-07 19:14:44.049747077
2025-11-07 19:14:41.412561,-66,2025-11-07 19:14:44.057439385
2025-11-07 19:14:41.412561,-12289,2025-11-07 19:14:44.065131692
2025-11-07 19:14:41.412561,-1,2025-11-07 19:14:44.072824000
2025-11-07 19:14:41.412561,-19,2025-11-07 19:14:44.080516308
2025-11-07 19:14:41.412561,-7425,2025-11-07 19:14:44.088208615
2025-11-07 19:14:41.412561,-1,2025-11-07 19:14:44.095900923
2025-11-07 19:14:41.412561,-40,2025-11-07 19:14:44.103593231
2025-11-07 19:14:41.412561,-9473,2025-11-07 19:14:44.111285538
2025-11-07 19:14:41.412561,-1,2025-11-07 19:14:44.118977846
2025-11-07 19:14:41.412561,-30,2025-11-07 19:14:44.126670154
2025-11-07 19:14:41.412561,-4609,2025-11-07 19:14:44.134362462
2025-11-07 19:14:41.412561,-1,2025-11-07 19:14:44.142054769
2025-11-07 19:14:41.412561,-14,2025-11-07 19:14:44.149747077
2025-11-07 19:14:41.412561,-769,2025-11-07 19:14:44.157439385
2025-11-07 19:14:41.412561,-1,2025-11-07 19:14:44.165131692
2025-11-07 19:14:41.412561,-14,2025-11-07 19:14:44.172824000
2025-11-07 19:14:41.412561,-8705,2025-11-07 19:14:44.180516308
2025-11-07 19:14:41.412561,-1,2025-11-07 19:14:44.188208615
2025-11-07 19:14:41.412561,-40,2025-11-07 19:14:44.195900923
2025-11-07 19:14:41.412561,-8193,2025-11-07 19:14:44.203593231
2025-11-07 19:14:41.412561,-1,2025-11-07 19:14:44.211285538
2025-11-07 19:14:41.412561,-28,2025-11-07 19:14:44.218977846
2025-11-07 19:14:41.412561,-6401,2025-11-07 19:14:44.226670154
2025-11-07 19:14:41.412561,-1,2025-11-07 19:14:44.234362462
2025-11-07 19:14:41.412561,-23,2025-11-07 19:14:44.242054769
2025-11-07 19:14:41.412561,-5121,2025-11-07 19:14:44.249747077
2025-11-07 19:14:41.412561,-1,2025-11-07 19:14:44.257439385
2025-11-07 19:14:41.412561,-11,2025-11-07 19:14:44.265131692
2025-11-07 19:14:41.412561,2047,2025-11-07 19:14:44.272824000
2025-11-07 19:14:41.412561,0,2025-11-07 19:14:44.280516308
2025-11-07 19:14:41.412561,-19,2025-11-07 19:14:44.288208615
2025-11-07 19:14:41.412561,-13057,2025-11-07 19:14:44.295900923
2025-11-07 19:14:41.412561,-1,2025-11-07 19:14:44.303593231
2025-11-07 19:14:41.412561,-19,2025-11-07 19:14:44.311285538
2025-11-07 19:14:41.412561,-257,2025-11-07 19:14:44.318977846
2025-11-07 19:14:41.412561,-1,2025-11-07 19:14:44.326670154
2025-11-07 19:14:41.412561,-38,2025-11-07 19:14:44.334362462
2025-11-07 19:14:41.412561,-8193,2025-11-07 19:14:44.342054769
2025-11-07 19:14:41.412561,-1,2025-11-07 19:14:44.349747077
2025-11-07 19:14:41.412561,-9,2025-11-07 19:14:44.357439385
2025-11-07 19:14:41.412561,-3329,2025-11-07 19:14:44.365131692
2025-11-07 19:14:41.412561,-1,2025-11-07 19:14:44.372824000
2025-11-07 19:14:41.412561,-2,2025-11-07 19:14:44.380516308
2025-11-07 19:14:41.412561,7935,2025-11-07 19:14:44.388208615
2025-11-07 19:14:41.412561,0,2025-11-07 19:14:44.395900923
2025-11-07 19:14:41.412561,30,2025-11-07 19:14:44.403593231
2025-11-07 19:14:41.412561,5376,2025-11-07 19:14:44.411285538
2025-11-07 19:14:41.412561,0,2025-11-07 19:14:44.418977846
2025-11-07 19:14:41.412561,30,2025-11-07 19:14:44.426670154
2025-11-07 19:14:41.412561,5376,2025-11-07 19:14:44.434362462
2025-11-07 19:14:41.412561,0,2025-11-07 19:14:44.442054769
2025-11-07 19:14:41.412561,7,2025-11-07 19:14:44.449747077
2025-11-07 19:14:41.412561,-512,2025-11-07 19:14:44.457439385
2025-11-07 19:14:41.412561,-1,2025-11-07 19:14:44.465131692
2025-11-07 19:14:41.412561,-23,2025-11-07 19:14:44.472824000
2025-11-07 19:14:41.412561,-7425,2025-11-07 19:14:44.480516308
2025-11-07 19:14:41.412561,-1,2025-11-07 19:14:44.488208615
2025-11-07 19:14:41.412561,-19,2025-11-07 19:14:44.495900923
2025-11-07 19:14:41.412561,-5633,2025-11-07 19:14:44.503593231
2025-11-07 19:14:41.412561,-1,2025-11-07 19:14:44.511285538
2025-11-07 19:14:41.412561,-35,2025-11-07 19:14:44.518977846
2025-11-07 19:14:41.412561,-8705,2025-11-07 19:14:44.526670154
2025-11-07 19:14:41.412561,-1,2025-11-07 19:14:44.534362462
2025-11-07 19:14:41.412561,-23,2025-11-07 19:14:44.542054769
2025-11-07 19:14:41.412561,-2561,2025-11-07 19:14:44.549747077
2025-11-07 19:14:41.412561,-1,2025-11-07 19:14:44.557439385
2025-11-07 19:14:41.412561,-23,2025-11-07 19:14:44.565131692
2025-11-07 19:14:41.412561,-13057,2025-11-07 19:14:44.572824000
2025-11-07 19:14:41.412561,-1,2025-11-07 19:14:44.580516308
2025-11-07 19:14:41.412561,-7,2025-11-07 19:14:44.588208615
2025-11-07 19:14:41.412561,4095,2025-11-07 19:14:44.595900923
2025-11-07 19:14:41.412561,1,2025-11-07 19:14:44.603593231
2025-11-07 19:14:41.412561,833,2025-11-07 19:14:44.611285538
2025-11-07 19:14:41.412561,-512,2025-11-07 19:14:44.618977846
2025-11-07 19:14:41.412561,4,2025-11-07 19:14:44.626670154
2025-11-07 19:14:41.412561,921,2025-11-07 19:14:44.634362462
2025-11-07 19:14:41.412561,17664,2025-11-07 19:14:44.642054769
2025-11-07 19:14:41.412561,0,2025-11-07 19:14:44.649747077
2025-11-07 19:14:41.412561,-218,2025-11-07 19:14:44.657439385
2025-11-07 19:14:41.412561,-16129,2025-11-07 19:14:44.665131692
2025-11-07 19:14:41.412561,-1,2025-11-07 19:14:44.672824000
2025-11-07 19:14:41.412561,-114,2025-11-07 19:14:44.680516308
2025-11-07 19:14:41.412561,17151,2025-11-07 19:14:44.688208615
2025-11-07 19:14:41.412561,-1,2025-11-07 19:14:44.695900923
2025-11-07 19:14:41.412561,-123,2025-11-07 19:14:44.703593231
2025-11-07 19:14:41.412561,-27649,2025-11-07 19:14:44.711285538
2025-11-07 19:14:41.412561,-1,2025-11-07 19:14:44.718977846
2025-11-07 19:14:41.412561,-135,2025-11-07 19:14:44.726670154
2025-11-07 19:14:41.412561,-28929,2025-11-07 19:14:44.734362462
2025-11-07 19:14:41.412561,-1,2025-11-07 19:14:44.742054769
2025-11-07 19:14:41.412561,-92,2025-11-07 19:14:44.749747077
2025-11-07 19:14:41.952564,-92,2025-11-07 19:14:44.757439385
2025-11-07 19:14:41.952564,-20993,2025-11-07 19:14:44.765131692
2025-11-07 19:14:41.952564,-1,2025-11-07 19:14:44.772824000
2025-11-07 19:14:41.952564,-66,2025-11-07 19:14:44.780516308
2025-11-07 19:14:41.952564,-14337,2025-11-07 19:14:44.788208615
2025-11-07 19:14:41.952564,-1,2025-11-07 19:14:44.795900923
2025-11-07 19:14:41.952564,-47,2025-11-07 19:14:44.803593231
2025-11-07 19:14:41.952564,-9473,2025-11-07 19:14:44.811285538
2025-11-07 19:14:41.952564,-1,2025-11-07 19:14:44.818977846
2025-11-07 19:14:41.952564,-28,2025-11-07 19:14:44.826670154
2025-11-07 19:14:41.952564,-2049,2025-11-07 19:14:44.834362462
2025-11-07 19:14:41.952564,-1,2025-11-07 19:14:44.842054769
2025-11-07 19:14:41.952564,11,2025-11-07 19:14:44.849747077
2025-11-07 19:14:41.952564,6656,2025-11-07 19:14:44.857439385
2025-11-07 19:14:41.952564,0,2025-11-07 19:14:44.865131692
2025-11-07 19:14:41.952564,52,2025-11-07 19:14:44.872824000
2025-11-07 19:14:41.952564,25344,2025-11-07 19:14:44.880516308
2025-11-07 19:14:41.952564,0,2025-11-07 19:14:44.888208615
2025-11-07 19:14:41.952564,121,2025-11-07 19:14:44.895900923
2025-11-07 19:14:41.952564,-32768,2025-11-07 19:14:44.903593230
2025-11-07 19:14:41.952564,0,2025-11-07 19:14:44.911285538
2025-11-07 19:14:41.952564,159,2025-11-07 19:14:44.918977846
2025-11-07 19:14:41.952564,-21248,2025-11-07 19:14:44.926670154
2025-11-07 19:14:41.952564,0,2025-11-07 19:14:44.934362462
2025-11-07 19:14:41.952564,161,2025-11-07 19:14:44.942054769
2025-11-07 19:14:41.952564,-25344,2025-11-07 19:14:44.949747077
2025-11-07 19:14:41.952564,0,2025-11-07 19:14:44.957439385
2025-11-07 19:14:41.952564,145,2025-11-07 19:14:44.965131692
2025-11-07 19:14:41.952564,28416,2025-11-07 19:14:44.972824000
2025-11-07 19:14:41.952564,0,2025-11-07 19:14:44.980516308
2025-11-07 19:14:41.952564,73,2025-11-07 19:14:44.988208615
2025-11-07 19:14:41.952564,10240,2025-11-07 19:14:44.995900923
2025-11-07 19:14:41.952564,0,2025-11-07 19:14:45.003593231
2025-11-07 19:14:41.952564,9,2025-11-07 19:14:45.011285538
2025-11-07 19:14:41.952564,-5888,2025-11-07 19:14:45.018977846
2025-11-07 19:14:41.952564,-1,2025-11-07 19:14:45.026670154
2025-11-07 19:14:41.952564,-66,2025-11-07 19:14:45.034362462
2025-11-07 19:14:41.952564,-22785,2025-11-07 19:14:45.042054769
2025-11-07 19:14:41.952564,-1,2025-11-07 19:14:45.049747077
2025-11-07 19:14:41.952564,-76,2025-11-07 19:14:45.057439385
2025-11-07 19:14:41.952564,-17409,2025-11-07 19:14:45.065131692
2025-11-07 19:14:41.952564,-1,2025-11-07 19:14:45.072824000
2025-11-07 19:14:41.952564,-73,2025-11-07 19:14:45.080516308
2025-11-07 19:14:41.952564,-17921,2025-11-07 19:14:45.088208615
2025-11-07 19:14:41.952564,-1,2025-11-07 19:14:45.095900923
2025-11-07 19:14:41.952564,-69,2025-11-07 19:14:45.103593231
2025-11-07 19:14:41.952564,-16641,2025-11-07 19:14:45.111285538
2025-11-07 19:14:41.952564,-1,2025-11-07 19:14:45.118977846
2025-11-07 19:14:41.952564,-64,2025-11-07 19:14:45.126670154
2025-11-07 19:14:41.952564,-15361,2025-11-07 19:14:45.134362462
2025-11-07 19:14:41.952564,-1,2025-11-07 19:14:45.142054769
2025-11-07 19:14:41.952564,-59,2025-11-07 19:14:45.149747077
2025-11-07 19:14:41.952564,-14337,2025-11-07 19:14:45.157439385
2025-11-07 19:14:41.952564,-1,2025-11-07 19:14:45.165131692
2025-11-07 19:14:41.952564,-52,2025-11-07 19:14:45.172824000
2025-11-07 19:14:41.952564,-13057,2025-11-07 19:14:45.180516308
2025-11-07 19:14:41.952564,-1,2025-11-07 19:14:45.188208615
2025-11-07 19:14:41.952564,-49,2025-11-07 19:14:45.195900923
2025-11-07 19:14:41.952564,-11265,2025-11-07 19:14:45.203593231
2025-11-07 19:14:41.952564,-1,2025-11-07 19:14:45.211285538
2025-11-07 19:14:41.952564,-47,2025-11-07 19:14:45.218977846
2025-11-07 19:14:41.952564,-13569,2025-11-07 19:14:45.226670154
2025-11-07 19:14:41.952564,-1,2025-11-07 19:14:45.234362462
2025-11-07 19:14:41.952564,-57,2025-11-07 19:14:45.242054769
2025-11-07 19:14:41.952564,-14337,2025-11-07 19:14:45.249747077
2025-11-07 19:14:41.952564,-1,2025-11-07 19:14:45.257439385
2025-11-07 19:14:41.952564,-59,2025-11-07 19:14:45.265131692
2025-11-07 19:14:41.952564,-13569,2025-11-07 19:14:45.272824000
2025-11-07 19:14:41.952564,-1,2025-11-07 19:14:45.280516308
2025-11-07 19:14:41.952564,-52,2025-11-07 19:14:45.288208615
2025-11-07 19:14:41.952564,-14849,2025-11-07 19:14:45.295900923
2025-11-07 19:14:41.952564,-1,2025-11-07 19:14:45.303593231
2025-11-07 19:14:41.952564,-59,2025-11-07 19:14:45.311285538
2025-11-07 19:14:41.952564,-14337,2025-11-07 19:14:45.318977846
2025-11-07 19:14:41.952564,-1,2025-11-07 19:14:45.326670154
2025-11-07 19:14:41.952564,-64,2025-11-07 19:14:45.334362462
2025-11-07 19:14:41.952564,-17921,2025-11-07 19:14:45.342054769
2025-11-07 19:14:41.952564,-1,2025-11-07 19:14:45.349747077
2025-11-07 19:14:41.952564,-69,2025-11-07 19:14:45.357439385
2025-11-07 19:14:41.952564,-15361,2025-11-07 19:14:45.365131692
2025-11-07 19:14:41.952564,-1,2025-11-07 19:14:45.372824000
2025-11-07 19:14:41.952564,-57,2025-11-07 19:14:45.380516308
2025-11-07 19:14:41.952564,-14849,2025-11-07 19:14:45.388208615
2025-11-07 19:14:41.952564,-1,2025-11-07 19:14:45.395900923
2025-11-07 19:14:41.952564,-54,2025-11-07 19:14:45.403593231
2025-11-07 19:14:41.952564,-9985,2025-11-07 19:14:45.411285538
2025-11-07 19:14:41.952564,-1,2025-11-07 19:14:45.418977846
2025-11-07 19:14:41.952564,-30,2025-11-07 19:14:45.426670154
2025-11-07 19:14:41.952564,-6913,2025-11-07 19:14:45.434362462
2025-11-07 19:14:41.952564,-1,2025-11-07 19:14:45.442054769
2025-11-07 19:14:41.952564,-23,2025-11-07 19:14:45.449747077
2025-11-07 19:14:41.952564,-6913,2025-11-07 19:14:45.457439385
2025-11-07 19:14:41.952564,-1,2025-11-07 19:14:45.465131692
2025-11-07 19:14:41.952564,-47,2025-11-07 19:14:45.472824000
2025-11-07 19:14:41.952564,-19713,2025-11-07 19:14:45.480516308
2025-11-07 19:14:41.952564,-1,2025-11-07 19:14:45.488208615
2025-11-07 19:14:41.952564,-95,2025-11-07 19:14:45.495900923
2025-11-07 19:14:41.952564,-22785,2025-11-07 19:14:45.503593231
2025-11-07 19:14:41.952564,-1,2025-11-07 19:14:45.511285538
2025-11-07 19:14:41.952564,-85,2025-11-07 19:14:45.518977846
2025-11-07 19:14:41.952564,-22273,2025-11-07 19:14:45.526670154
2025-11-07 19:14:41.952564,-1,2025-11-07 19:14:45.534362462
2025-11-07 19:14:41.952564,-88,2025-11-07 19:14:45.542054769
2025-11-07 19:14:41.952564,-21505,2025-11-07 19:14:45.549747077
2025-11-07 19:14:41.952564,-1,2025-11-07 19:14:45.557439385
2025-11-07 19:14:41.952564,-83,2025-11-07 19:14:45.565131692
2025-11-07 19:14:41.952564,-21505,2025-11-07 19:14:45.572824000
2025-11-07 19:14:41.952564,-1,2025-11-07 19:14:45.580516308
2025-11-07 19:14:41.952564,-88,2025-11-07 19:14:45.588208615
2025-11-07 19:14:42.537576,-104,2025-11-07 19:14:45.595900923
2025-11-07 19:14:42.537576,-29441,2025-11-07 19:14:45.603593231
2025-11-07 19:14:42.537576,-1,2025-11-07 19:14:45.611285538
2025-11-07 19:14:42.537576,11,2025-11-07 19:14:45.618977846
2025-11-07 19:14:42.537576,-12288,2025-11-07 19:14:45.626670154
2025-11-07 19:14:42.537576,1,2025-11-07 19:14:45.634362462
2025-11-07 19:14:42.537576,1133,2025-11-07 19:14:45.642054769
2025-11-07 19:14:42.537576,11008,2025-11-07 19:14:45.649747077
2025-11-07 19:14:42.537576,5,2025-11-07 19:14:45.657439385
2025-11-07 19:14:42.537576,523,2025-11-07 19:14:45.665131692
2025-11-07 19:14:42.537576,-13056,2025-11-07 19:14:45.672824000
2025-11-07 19:14:42.537576,-2,2025-11-07 19:14:45.680516308
2025-11-07 19:14:42.537576,-247,2025-11-07 19:14:45.688208615
2025-11-07 19:14:42.537576,-13569,2025-11-07 19:14:45.695900923
2025-11-07 19:14:42.537576,-1,2025-11-07 19:14:45.703593231
2025-11-07 19:14:42.537576,-199,2025-11-07 19:14:45.711285538
2025-11-07 19:14:42.537576,9983,2025-11-07 19:14:45.718977846
2025-11-07 19:14:42.537576,-1,2025-11-07 19:14:45.726670154
2025-11-07 19:14:42.537576,-126,2025-11-07 19:14:45.734362462
2025-11-07 19:14:42.537576,29439,2025-11-07 19:14:45.742054769
2025-11-07 19:14:42.537576,-1,2025-11-07 19:14:45.749747077
2025-11-07 19:14:42.537576,-154,2025-11-07 19:14:45.757439385
2025-11-07 19:14:42.537576,-30721,2025-11-07 19:14:45.765131692
2025-11-07 19:14:42.537576,-1,2025-11-07 19:14:45.772824000
2025-11-07 19:14:42.537576,-119,2025-11-07 19:14:45.780516308
2025-11-07 19:14:42.537576,-29441,2025-11-07 19:14:45.788208615
2025-11-07 19:14:42.537576,-1,2025-11-07 19:14:45.795900923
2025-11-07 19:14:42.537576,-92,2025-11-07 19:14:45.803593231
2025-11-07 19:14:42.537576,-20225,2025-11-07 19:14:45.811285538
2025-11-07 19:14:42.537576,-1,2025-11-07 19:14:45.818977846
2025-11-07 19:14:42.537576,-71,2025-11-07 19:14:45.826670154
2025-11-07 19:14:42.537576,-13057,2025-11-07 19:14:45.834362462
2025-11-07 19:14:42.537576,-1,2025-11-07 19:14:45.842054769
2025-11-07 19:14:42.537576,-40,2025-11-07 19:14:45.849747077
2025-11-07 19:14:42.537576,-5633,2025-11-07 19:14:45.857439385
2025-11-07 19:14:42.537576,-1,2025-11-07 19:14:45.865131692
2025-11-07 19:14:42.537576,-2,2025-11-07 19:14:45.872824000
2025-11-07 19:14:42.537576,5119,2025-11-07 19:14:45.880516308
2025-11-07 19:14:42.537576,0,2025-11-07 19:14:45.888208615
2025-11-07 19:14:42.537576,45,2025-11-07 19:14:45.895900923
2025-11-07 19:14:42.537576,19456,2025-11-07 19:14:45.903593230
2025-11-07 19:14:42.537576,0,2025-11-07 19:14:45.911285538
2025-11-07 19:14:42.537576,104,2025-11-07 19:14:45.918977846
2025-11-07 19:14:42.537576,-32256,2025-11-07 19:14:45.926670154
2025-11-07 19:14:42.537576,0,2025-11-07 19:14:45.934362462
2025-11-07 19:14:42.537576,154,2025-11-07 19:14:45.942054769
2025-11-07 19:14:42.537576,-21760,2025-11-07 19:14:45.949747077
2025-11-07 19:14:42.537576,0,2025-11-07 19:14:45.957439385
2025-11-07 19:14:42.537576,173,2025-11-07 19:14:45.965131692
2025-11-07 19:14:42.537576,-22272,2025-11-07 19:14:45.972824000
2025-11-07 19:14:42.537576,0,2025-11-07 19:14:45.980516308
2025-11-07 19:14:42.537576,157,2025-11-07 19:14:45.988208615
2025-11-07 19:14:42.537576,-32768,2025-11-07 19:14:45.995900923
2025-11-07 19:14:42.537576,0,2025-11-07 19:14:46.003593231
2025-11-07 19:14:42.537576,78,2025-11-07 19:14:46.011285538
2025-11-07 19:14:42.537576,4096,2025-11-07 19:14:46.018977846
2025-11-07 19:14:42.537576,0,2025-11-07 19:14:46.026670154
2025-11-07 19:14:42.537576,-40,2025-11-07 19:14:46.034362462
2025-11-07 19:14:42.537576,-20993,2025-11-07 19:14:46.042054769
2025-11-07 19:14:42.537576,-1,2025-11-07 19:14:46.049747077
2025-11-07 19:14:42.537576,-114,2025-11-07 19:14:46.057439385
2025-11-07 19:14:42.537576,31231,2025-11-07 19:14:46.065131692
2025-11-07 19:14:42.537576,-1,2025-11-07 19:14:46.072824000
2025-11-07 19:14:42.537576,-145,2025-11-07 19:14:46.080516308
2025-11-07 19:14:42.537576,27647,2025-11-07 19:14:46.088208615
2025-11-07 19:14:42.537576,-1,2025-11-07 19:14:46.095900923
2025-11-07 19:14:42.537576,-152,2025-11-07 19:14:46.103593231
2025-11-07 19:14:42.537576,28671,2025-11-07 19:14:46.111285538
2025-11-07 19:14:42.537576,-1,2025-11-07 19:14:46.118977846
2025-11-07 19:14:42.537576,-138,2025-11-07 19:14:46.126670154
2025-11-07 19:14:42.537576,30463,2025-11-07 19:14:46.134362462
2025-11-07 19:14:42.537576,-1,2025-11-07 19:14:46.142054769
2025-11-07 19:14:42.537576,-135,2025-11-07 19:14:46.149747077
2025-11-07 19:14:42.537576,-31233,2025-11-07 19:14:46.157439385
2025-11-07 19:14:42.537576,-1,2025-11-07 19:14:46.165131692
2025-11-07 19:14:42.537576,-109,2025-11-07 19:14:46.172824000
2025-11-07 19:14:42.537576,-25857,2025-11-07 19:14:46.180516308
2025-11-07 19:14:42.537576,-1,2025-11-07 19:14:46.188208615
2025-11-07 19:14:42.537576,-102,2025-11-07 19:14:46.195900923
2025-11-07 19:14:42.537576,-25089,2025-11-07 19:14:46.203593231
2025-11-07 19:14:42.537576,-1,2025-11-07 19:14:46.211285538
2025-11-07 19:14:42.537576,-92,2025-11-07 19:14:46.218977846
2025-11-07 19:14:42.537576,-24065,2025-11-07 19:14:46.226670154
2025-11-07 19:14:42.537576,-1,2025-11-07 19:14:46.234362462
2025-11-07 19:14:42.537576,-97,2025-11-07 19:14:46.242054769
2025-11-07 19:14:42.537576,-23297,2025-11-07 19:14:46.249747077
2025-11-07 19:14:42.537576,-1,2025-11-07 19:14:46.257439385
2025-11-07 19:14:42.537576,-90,2025-11-07 19:14:46.265131692
2025-11-07 19:14:42.537576,-22273,2025-11-07 19:14:46.272824000
2025-11-07 19:14:42.537576,-1,2025-11-07 19:14:46.280516308
2025-11-07 19:14:42.537576,-90,2025-11-07 19:14:46.288208615
2025-11-07 19:14:42.537576,-23297,2025-11-07 19:14:46.295900923
2025-11-07 19:14:42.537576,-1,2025-11-07 19:14:46.303593231
2025-11-07 19:14:42.537576,-88,2025-11-07 19:14:46.311285538
2025-11-07 19:14:42.537576,-19201,2025-11-07 19:14:46.318977846
2025-11-07 19:14:42.537576,-1,2025-11-07 19:14:46.326670154
2025-11-07 19:14:42.537576,-73,2025-11-07 19:14:46.334362462
2025-11-07 19:14:42.537576,-20993,2025-11-07 19:14:46.342054769
2025-11-07 19:14:42.537576,-1,2025-11-07 19:14:46.349747077
2025-11-07 19:14:42.537576,-80,2025-11-07 19:14:46.357439385
2025-11-07 19:14:42.537576,-14337,2025-11-07 19:14:46.365131692
2025-11-07 19:14:42.537576,-1,2025-11-07 19:14:46.372824000
2025-11-07 19:14:42.537576,-38,2025-11-07 19:14:46.380516308
2025-11-07 19:14:42.537576,-6401,2025-11-07 19:14:46.388208615
2025-11-07 19:14:42.537576,-1,2025-11-07 19:14:46.395900923
2025-11-07 19:14:42.537576,-16,2025-11-07 19:14:46.403593231
2025-11-07 19:14:42.537576,-5633,2025-11-07 19:14:46.411285538
2025-11-07 19:14:42.537576,-1,2025-11-07 19:14:46.418977846
2025-11-07 19:14:42.537576,-40,2025-11-07 19:14:46.426670154
2025-11-07 19:14:43.078517,-61,2025-11-07 19:14:46.434362462
2025-11-07 19:14:43.078517,-20993,2025-11-07 19:14:46.442054769
2025-11-07 19:14:43.078517,-1,2025-11-07 19:14:46.449747077
2025-11-07 19:14:43.078517,-83,2025-11-07 19:14:46.457439385
2025-11-07 19:14:43.078517,-19201,2025-11-07 19:14:46.465131692
2025-11-07 19:14:43.078517,-1,2025-11-07 19:14:46.472824000
2025-11-07 19:14:43.078517,-76,2025-11-07 19:14:46.480516308
2025-11-07 19:14:43.078517,-19201,2025-11-07 19:14:46.488208615
2025-11-07 19:14:43.078517,-1,2025-11-07 19:14:46.495900923
2025-11-07 19:14:43.078517,-73,2025-11-07 19:14:46.503593231
2025-11-07 19:14:43.078517,-19201,2025-11-07 19:14:46.511285538
2025-11-07 19:14:43.078517,-1,2025-11-07 19:14:46.518977846
2025-11-07 19:14:43.078517,-69,2025-11-07 19:14:46.526670154
2025-11-07 19:14:43.078517,-14337,2025-11-07 19:14:46.534362462
2025-11-07 19:14:43.078517,-1,2025-11-07 19:14:46.542054769
2025-11-07 19:14:43.078517,-57,2025-11-07 19:14:46.549747077
2025-11-07 19:14:43.078517,-16129,2025-11-07 19:14:46.557439385
2025-11-07 19:14:43.078517,-1,2025-11-07 19:14:46.565131692
2025-11-07 19:14:43.078517,11,2025-11-07 19:14:46.572824000
2025-11-07 19:14:43.078517,22784,2025-11-07 19:14:46.580516308
2025-11-07 19:14:43.078517,1,2025-11-07 19:14:46.588208615
2025-11-07 19:14:43.078517,968,2025-11-07 19:14:46.595900923
2025-11-07 19:14:43.078517,12288,2025-11-07 19:14:46.603593231
2025-11-07 19:14:43.078517,5,2025-11-07 19:14:46.611285538
2025-11-07 19:14:43.078517,706,2025-11-07 19:14:46.618977846
2025-11-07 19:14:43.078517,3584,2025-11-07 19:14:46.626670154
2025-11-07 19:14:43.078517,-1,2025-11-07 19:14:46.634362462
2025-11-07 19:14:43.078517,-323,2025-11-07 19:14:46.642054769
2025-11-07 19:14:43.078517,-8193,2025-11-07 19:14:46.649747077
2025-11-07 19:14:43.078517,-1,2025-11-07 19:14:46.657439385
2025-11-07 19:14:43.078517,-128,2025-11-07 19:14:46.665131692
2025-11-07 19:14:43.078517,14079,2025-11-07 19:14:46.672824000
2025-11-07 19:14:43.078517,-1,2025-11-07 19:14:46.680516308
2025-11-07 19:14:43.078517,-99,2025-11-07 19:14:46.688208615
2025-11-07 19:14:43.078517,-24065,2025-11-07 19:14:46.695900923
2025-11-07 19:14:43.078517,-1,2025-11-07 19:14:46.703593231
2025-11-07 19:14:43.078517,-128,2025-11-07 19:14:46.711285538
2025-11-07 19:14:43.078517,-22785,2025-11-07 19:14:46.718977846
2025-11-07 19:14:43.078517,-1,2025-11-07 19:14:46.726670154
2025-11-07 19:14:43.078517,-69,2025-11-07 19:14:46.734362462
2025-11-07 19:14:43.078517,-19201,2025-11-07 19:14:46.742054769
2025-11-07 19:14:43.078517,-1,2025-11-07 19:14:46.749747077
2025-11-07 19:14:43.078517,-64,2025-11-07 19:14:46.757439385
2025-11-07 19:14:43.078517,-11265,2025-11-07 19:14:46.765131692
2025-11-07 19:14:43.078517,-1,2025-11-07 19:14:46.772824000
2025-11-07 19:14:43.078517,-30,2025-11-07 19:14:46.780516308
2025-11-07 19:14:43.078517,-3329,2025-11-07 19:14:46.788208615
2025-11-07 19:14:43.078517,-1,2025-11-07 19:14:46.795900923
2025-11-07 19:14:43.078517,4,2025-11-07 19:14:46.803593231
2025-11-07 19:14:43.078517,5376,2025-11-07 19:14:46.811285538
2025-11-07 19:14:43.078517,0,2025-11-07 19:14:46.818977846
2025-11-07 19:14:43.078517,38,2025-11-07 19:14:46.826670154
2025-11-07 19:14:43.078517,15616,2025-11-07 19:14:46.834362462
2025-11-07 19:14:43.078517,0,2025-11-07 19:14:46.842054769
2025-11-07 19:14:43.078517,95,2025-11-07 19:14:46.849747077
2025-11-07 19:14:43.078517,31488,2025-11-07 19:14:46.857439385
2025-11-07 19:14:43.078517,0,2025-11-07 19:14:46.865131692
2025-11-07 19:14:43.078517,149,2025-11-07 19:14:46.872824000
2025-11-07 19:14:43.078517,-19968,2025-11-07 19:14:46.880516308
2025-11-07 19:14:43.078517,0,2025-11-07 19:14:46.888208615
2025-11-07 19:14:43.078517,209,2025-11-07 19:14:46.895900923
2025-11-07 19:14:43.078517,-7680,2025-11-07 19:14:46.903593230
2025-11-07 19:14:43.078517,0,2025-11-07 19:14:46.911285538
2025-11-07 19:14:43.078517,221,2025-11-07 19:14:46.918977846
2025-11-07 19:14:43.078517,-11520,2025-11-07 19:14:46.926670154
2025-11-07 19:14:43.078517,0,2025-11-07 19:14:46.934362462
2025-11-07 19:14:43.078517,197,2025-11-07 19:14:46.942054769
2025-11-07 19:14:43.078517,-24832,2025-11-07 19:14:46.949747077
2025-11-07 19:14:43.078517,0,2025-11-07 19:14:46.957439385
2025-11-07 19:14:43.078517,109,2025-11-07 19:14:46.965131692
2025-11-07 19:14:43.078517,10240,2025-11-07 19:14:46.972824000
2025-11-07 19:14:43.078517,0,2025-11-07 19:14:46.980516308
2025-11-07 19:14:43.078517,-33,2025-11-07 19:14:46.988208615
2025-11-07 19:14:43.078517,-19713,2025-11-07 19:14:46.995900923
2025-11-07 19:14:43.078517,-1,2025-11-07 19:14:47.003593231
2025-11-07 19:14:43.078517,-104,2025-11-07 19:14:47.011285538
2025-11-07 19:14:43.078517,-32001,2025-11-07 19:14:47.018977846
2025-11-07 19:14:43.078517,-1,2025-11-07 19:14:47.026670154
2025-11-07 19:14:43.078517,-133,2025-11-07 19:14:47.034362462
2025-11-07 19:14:43.078517,31743,2025-11-07 19:14:47.042054769
2025-11-07 19:14:43.078517,-1,2025-11-07 19:14:47.049747077
2025-11-07 19:14:43.078517,-138,2025-11-07 19:14:47.057439385
2025-11-07 19:14:43.078517,31231,2025-11-07 19:14:47.065131692
2025-11-07 19:14:43.078517,-1,2025-11-07 19:14:47.072824000
2025-11-07 19:14:43.078517,-121,2025-11-07 19:14:47.080516308
2025-11-07 19:14:43.078517,-28161,2025-11-07 19:14:47.088208615
2025-11-07 19:14:43.078517,-1,2025-11-07 19:14:47.095900923
2025-11-07 19:14:43.078517,-111,2025-11-07 19:14:47.103593231
2025-11-07 19:14:43.078517,-25857,2025-11-07 19:14:47.111285538
2025-11-07 19:14:43.078517,-1,2025-11-07 19:14:47.118977846
2025-11-07 19:14:43.078517,-88,2025-11-07 19:14:47.126670154
2025-11-07 19:14:43.078517,-21505,2025-11-07 19:14:47.134362462
2025-11-07 19:14:43.078517,-1,2025-11-07 19:14:47.142054769
2025-11-07 19:14:43.078517,-76,2025-11-07 19:14:47.149747077
2025-11-07 19:14:43.078517,-17921,2025-11-07 19:14:47.157439385
2025-11-07 19:14:43.078517,-1,2025-11-07 19:14:47.165131692
2025-11-07 19:14:43.078517,-71,2025-11-07 19:14:47.172824000
2025-11-07 19:14:43.078517,-16129,2025-11-07 19:14:47.180516308
2025-11-07 19:14:43.078517,-1,2025-11-07 19:14:47.188208615
2025-11-07 19:14:43.078517,-54,2025-11-07 19:14:47.195900923
2025-11-07 19:14:43.078517,-12289,2025-11-07 19:14:47.203593231
2025-11-07 19:14:43.078517,-1,2025-11-07 19:14:47.211285538
2025-11-07 19:14:43.078517,-52,2025-11-07 19:14:47.218977846
2025-11-07 19:14:43.078517,-14337,2025-11-07 19:14:47.226670154
2025-11-07 19:14:43.078517,-1,2025-11-07 19:14:47.234362462
2025-11-07 19:14:43.078517,-52,2025-11-07 19:14:47.242054769
2025-11-07 19:14:43.078517,-10497,2025-11-07 19:14:47.249747077
2025-11-07 19:14:43.078517,-1,2025-11-07 19:14:47.257439385
2025-11-07 19:14:43.078517,-33,2025-11-07 19:14:47.265131692
2025-11-07 19:14:43.663957,-21,2025-11-07 19:14:47.272824000
2025-11-07 19:14:43.663957,-3329,2025-11-07 19:14:47.280516308
2025-11-07 19:14:43.663957,-1,2025-11-07 19:14:47.288208615
2025-11-07 19:14:43.663957,-16,2025-11-07 19:14:47.295900923
2025-11-07 19:14:43.663957,-7425,2025-11-07 19:14:47.303593231
2025-11-07 19:14:43.663957,-1,2025-11-07 19:14:47.311285538
2025-11-07 19:14:43.663957,-52,2025-11-07 19:14:47.318977846
2025-11-07 19:14:43.663957,-17409,2025-11-07 19:14:47.326670154
2025-11-07 19:14:43.663957,-1,2025-11-07 19:14:47.334362462
2025-11-07 19:14:43.663957,-76,2025-11-07 19:14:47.342054769
2025-11-07 19:14:43.663957,-17921,2025-11-07 19:14:47.349747077
2025-11-07 19:14:43.663957,-1,2025-11-07 19:14:47.357439385
2025-11-07 19:14:43.663957,-54,2025-11-07 19:14:47.365131692
2025-11-07 19:14:43.663957,-12289,2025-11-07 19:14:47.372824000
2025-11-07 19:14:43.663957,-1,2025-11-07 19:14:47.380516308
2025-11-07 19:14:43.663957,-54,2025-11-07 19:14:47.388208615
2025-11-07 19:14:43.663957,-12289,2025-11-07 19:14:47.395900923
2025-11-07 19:14:43.663957,-1,2025-11-07 19:14:47.403593231
2025-11-07 19:14:43.663957,-45,2025-11-07 19:14:47.411285538
2025-11-07 19:14:43.663957,-11777,2025-11-07 19:14:47.418977846
2025-11-07 19:14:43.663957,-1,2025-11-07 19:14:47.426670154
2025-11-07 19:14:43.663957,-49,2025-11-07 19:14:47.434362462
2025-11-07 19:14:43.663957,-14849,2025-11-07 19:14:47.442054769
2025-11-07 19:14:43.663957,-1,2025-11-07 19:14:47.449747077
2025-11-07 19:14:43.663957,-26,2025-11-07 19:14:47.457439385
2025-11-07 19:14:43.663957,-8193,2025-11-07 19:14:47.465131692
2025-11-07 19:14:43.663957,0,2025-11-07 19:14:47.472824000
2025-11-07 19:14:43.663957,787,2025-11-07 19:14:47.480516308
2025-11-07 19:14:43.663957,-1280,2025-11-07 19:14:47.488208615
2025-11-07 19:14:43.663957,4,2025-11-07 19:14:47.495900923
2025-11-07 19:14:43.663957,914,2025-11-07 19:14:47.503593231
2025-11-07 19:14:43.663957,-16896,2025-11-07 19:14:47.511285538
2025-11-07 19:14:43.663957,-1,2025-11-07 19:14:47.518977846
2025-11-07 19:14:43.663957,-383,2025-11-07 19:14:47.526670154
2025-11-07 19:14:43.663957,-17921,2025-11-07 19:14:47.534362462
2025-11-07 19:14:43.663957,-1,2025-11-07 19:14:47.542054769
2025-11-07 19:14:43.663957,-80,2025-11-07 19:14:47.549747077
2025-11-07 19:14:43.663957,12799,2025-11-07 19:14:47.557439385
2025-11-07 19:14:43.663957,-1,2025-11-07 19:14:47.565131692
2025-11-07 19:14:43.663957,-111,2025-11-07 19:14:47.572824000
2025-11-07 19:14:43.663957,-19713,2025-11-07 19:14:47.580516308
2025-11-07 19:14:43.663957,-1,2025-11-07 19:14:47.588208615
2025-11-07 19:14:43.663957,-123,2025-11-07 19:14:47.595900923
2025-11-07 19:14:43.663957,-26369,2025-11-07 19:14:47.603593231
2025-11-07 19:14:43.663957,-1,2025-11-07 19:14:47.611285538
2025-11-07 19:14:43.663957,-73,2025-11-07 19:14:47.618977846
2025-11-07 19:14:43.663957,-17921,2025-11-07 19:14:47.626670154
2025-11-07 19:14:43.663957,-1,2025-11-07 19:14:47.634362462
2025-11-07 19:14:43.663957,-64,2025-11-07 19:14:47.642054769
2025-11-07 19:14:43.663957,-11777,2025-11-07 19:14:47.649747077
2025-11-07 19:14:43.663957,-1,2025-11-07 19:14:47.657439385
2025-11-07 19:14:43.663957,-35,2025-11-07 19:14:47.665131692
2025-11-07 19:14:43.663957,-5121,2025-11-07 19:14:47.672824000
2025-11-07 19:14:43.663957,-1,2025-11-07 19:14:47.680516308
2025-11-07 19:14:43.663957,-7,2025-11-07 19:14:47.688208615
2025-11-07 19:14:43.663957,2047,2025-11-07 19:14:47.695900923
2025-11-07 19:14:43.663957,0,2025-11-07 19:14:47.703593231
2025-11-07 19:14:43.663957,28,2025-11-07 19:14:47.711285538
2025-11-07 19:14:43.663957,13312,2025-11-07 19:14:47.718977846
2025-11-07 19:14:43.663957,0,2025-11-07 19:14:47.726670154
2025-11-07 19:14:43.663957,76,2025-11-07 19:14:47.734362462
2025-11-07 19:14:43.663957,26624,2025-11-07 19:14:47.742054769
2025-11-07 19:14:43.663957,0,2025-11-07 19:14:47.749747077
2025-11-07 19:14:43.663957,138,2025-11-07 19:14:47.757439385
2025-11-07 19:14:43.663957,-21248,2025-11-07 19:14:47.765131692
2025-11-07 19:14:43.663957,0,2025-11-07 19:14:47.772824000
2025-11-07 19:14:43.663957,199,2025-11-07 19:14:47.780516308
2025-11-07 19:14:43.663957,-11520,2025-11-07 19:14:47.788208615
2025-11-07 19:14:43.663957,0,2025-11-07 19:14:47.795900923
2025-11-07 19:14:43.663957,216,2025-11-07 19:14:47.803593231
2025-11-07 19:14:43.663957,-11520,2025-11-07 19:14:47.811285538
2025-11-07 19:14:43.663957,0,2025-11-07 19:14:47.818977846
2025-11-07 19:14:43.663957,199,2025-11-07 19:14:47.826670154
2025-11-07 19:14:43.663957,-21760,2025-11-07 19:14:47.834362462
2025-11-07 19:14:43.663957,0,2025-11-07 19:14:47.842054769
2025-11-07 19:14:43.663957,114,2025-11-07 19:14:47.849747077
2025-11-07 19:14:43.663957,10752,2025-11-07 19:14:47.857439385
2025-11-07 19:14:43.663957,0,2025-11-07 19:14:47.865131692
2025-11-07 19:14:43.663957,-28,2025-11-07 19:14:47.872824000
2025-11-07 19:14:43.663957,-19201,2025-11-07 19:14:47.880516308
2025-11-07 19:14:43.663957,-1,2025-11-07 19:14:47.888208615
2025-11-07 19:14:43.663957,-97,2025-11-07 19:14:47.895900923
2025-11-07 19:14:43.663957,-28929,2025-11-07 19:14:47.903593230
2025-11-07 19:14:43.663957,-1,2025-11-07 19:14:47.911285538
2025-11-07 19:14:43.663957,-126,2025-11-07 19:14:47.918977846
2025-11-07 19:14:43.663957,-32001,2025-11-07 19:14:47.926670154
2025-11-07 19:14:43.663957,-1,2025-11-07 19:14:47.934362462
2025-11-07 19:14:43.663957,-123,2025-11-07 19:14:47.942054769
2025-11-07 19:14:43.663957,-30721,2025-11-07 19:14:47.949747077
2025-11-07 19:14:43.663957,-1,2025-11-07 19:14:47.957439385
2025-11-07 19:14:43.663957,-116,2025-11-07 19:14:47.965131692
2025-11-07 19:14:43.663957,-27649,2025-11-07 19:14:47.972824000
2025-11-07 19:14:43.663957,-1,2025-11-07 19:14:47.980516308
2025-11-07 19:14:43.663957,-99,2025-11-07 19:14:47.988208615
2025-11-07 19:14:43.663957,-24577,2025-11-07 19:14:47.995900923
2025-11-07 19:14:43.663957,-1,2025-11-07 19:14:48.003593231
2025-11-07 19:14:43.663957,-95,2025-11-07 19:14:48.011285538
2025-11-07 19:14:43.663957,-22785,2025-11-07 19:14:48.018977846
2025-11-07 19:14:43.663957,-1,2025-11-07 19:14:48.026670154
2025-11-07 19:14:43.663957,-80,2025-11-07 19:14:48.034362462
2025-11-07 19:14:43.663957,-16129,2025-11-07 19:14:48.042054769
2025-11-07 19:14:43.663957,-1,2025-11-07 19:14:48.049747077
2025-11-07 19:14:43.663957,-57,2025-11-07 19:14:48.057439385
2025-11-07 19:14:43.663957,-14849,2025-11-07 19:14:48.065131692
2025-11-07 19:14:43.663957,-1,2025-11-07 19:14:48.072824000
2025-11-07 19:14:43.663957,-61,2025-11-07 19:14:48.080516308
2025-11-07 19:14:43.663957,-14849,2025-11-07 19:14:48.088208615
2025-11-07 19:14:43.663957,-1,2025-11-07 19:14:48.095900923
2025-11-07 19:14:43.663957,-47,2025-11-07 19:14:48.103593231
2025-11-07 19:14:44.203818,-33,2025-11-07 19:14:48.111285538
2025-11-07 19:14:44.203818,-3841,2025-11-07 19:14:48.118977846
2025-11-07 19:14:44.203818,-1,2025-11-07 19:14:48.126670154
2025-11-07 19:14:44.203818,-4,2025-11-07 19:14:48.134362462
2025-11-07 19:14:44.203818,-2049,2025-11-07 19:14:48.142054769
2025-11-07 19:14:44.203818,-1,2025-11-07 19:14:48.149747077
2025-11-07 19:14:44.203818,-19,2025-11-07 19:14:48.157439385
2025-11-07 19:14:44.203818,-9985,2025-11-07 19:14:48.165131692
2025-11-07 19:14:44.203818,-1,2025-11-07 19:14:48.172824000
2025-11-07 19:14:44.203818,-61,2025-11-07 19:14:48.180516308
2025-11-07 19:14:44.203818,-17409,2025-11-07 19:14:48.188208615
2025-11-07 19:14:44.203818,-1,2025-11-07 19:14:48.195900923
2025-11-07 19:14:44.203818,-71,2025-11-07 19:14:48.203593231
2025-11-07 19:14:44.203818,-16641,2025-11-07 19:14:48.211285538
2025-11-07 19:14:44.203818,-1,2025-11-07 19:14:48.218977846
2025-11-07 19:14:44.203818,-61,2025-11-07 19:14:48.226670154
2025-11-07 19:14:44.203818,-13569,2025-11-07 19:14:48.234362462
2025-11-07 19:14:44.203818,-1,2025-11-07 19:14:48.242054769
2025-11-07 19:14:44.203818,-40,2025-11-07 19:14:48.249747077
2025-11-07 19:14:44.203818,-9473,2025-11-07 19:14:48.257439385
2025-11-07 19:14:44.203818,-1,2025-11-07 19:14:48.265131692
2025-11-07 19:14:44.203818,-45,2025-11-07 19:14:48.272824000
2025-11-07 19:14:44.203818,-9985,2025-11-07 19:14:48.280516308
2025-11-07 19:14:44.203818,-1,2025-11-07 19:14:48.288208615
2025-11-07 19:14:44.203818,-40,2025-11-07 19:14:48.295900923
2025-11-07 19:14:44.203818,-6401,2025-11-07 19:14:48.303593231
2025-11-07 19:14:44.203818,-1,2025-11-07 19:14:48.311285538
2025-11-07 19:14:44.203818,166,2025-11-07 19:14:48.318977846
2025-11-07 19:14:44.203818,-19456,2025-11-07 19:14:48.326670154
2025-11-07 19:14:44.203818,2,2025-11-07 19:14:48.334362462
2025-11-07 19:14:44.203818,1309,2025-11-07 19:14:48.342054769
2025-11-07 19:14:44.203818,-23040,2025-11-07 19:14:48.349747077
2025-11-07 19:14:44.203818,4,2025-11-07 19:14:48.357439385
2025-11-07 19:14:44.203818,192,2025-11-07 19:14:48.365131692
2025-11-07 19:14:44.203818,31744,2025-11-07 19:14:48.372824000
2025-11-07 19:14:44.203818,-2,2025-11-07 19:14:48.380516308
2025-11-07 19:14:44.203818,-133,2025-11-07 19:14:48.388208615
2025-11-07 19:14:44.203818,-13569,2025-11-07 19:14:48.395900923
2025-11-07 19:14:44.203818,-1,2025-11-07 19:14:48.403593231
2025-11-07 19:14:44.203818,-223,2025-11-07 19:14:48.411285538
2025-11-07 19:14:44.203818,24575,2025-11-07 19:14:48.418977846
2025-11-07 19:14:44.203818,-1,2025-11-07 19:14:48.426670154
2025-11-07 19:14:44.203818,-90,2025-11-07 19:14:48.434362462
2025-11-07 19:14:44.203818,31231,2025-11-07 19:14:48.442054769
2025-11-07 19:14:44.203818,-1,2025-11-07 19:14:48.449747077
2025-11-07 19:14:44.203818,-121,2025-11-07 19:14:48.457439385
2025-11-07 19:14:44.203818,-20225,2025-11-07 19:14:48.465131692
2025-11-07 19:14:44.203818,-1,2025-11-07 19:14:48.472824000
2025-11-07 19:14:44.203818,-92,2025-11-07 19:14:48.480516308
2025-11-07 19:14:44.203818,-22785,2025-11-07 19:14:48.488208615
2025-11-07 19:14:44.203818,-1,2025-11-07 19:14:48.495900923
2025-11-07 19:14:44.203818,-64,2025-11-07 19:14:48.503593231
2025-11-07 19:14:44.203818,-14849,2025-11-07 19:14:48.511285538
2025-11-07 19:14:44.203818,-1,2025-11-07 19:14:48.518977846
2025-11-07 19:14:44.203818,-49,2025-11-07 19:14:48.526670154
2025-11-07 19:14:44.203818,-7425,2025-11-07 19:14:48.534362462
2025-11-07 19:14:44.203818,-1,2025-11-07 19:14:48.542054769
2025-11-07 19:14:44.203818,-16,2025-11-07 19:14:48.549747077
2025-11-07 19:14:44.203818,-257,2025-11-07 19:14:48.557439385
2025-11-07 19:14:44.203818,-1,2025-11-07 19:14:48.565131692
2025-11-07 19:14:44.203818,28,2025-11-07 19:14:48.572824000
2025-11-07 19:14:44.203818,15616,2025-11-07 19:14:48.580516308
2025-11-07 19:14:44.203818,0,2025-11-07 19:14:48.588208615
2025-11-07 19:14:44.203818,90,2025-11-07 19:14:48.595900923
2025-11-07 19:14:44.203818,30976,2025-11-07 19:14:48.603593231
2025-11-07 19:14:44.203818,0,2025-11-07 19:14:48.611285538
2025-11-07 19:14:44.203818,145,2025-11-07 19:14:48.618977846
2025-11-07 19:14:44.203818,-23040,2025-11-07 19:14:48.626670154
2025-11-07 19:14:44.203818,0,2025-11-07 19:14:48.634362462
2025-11-07 19:14:44.203818,185,2025-11-07 19:14:48.642054769
2025-11-07 19:14:44.203818,-16384,2025-11-07 19:14:48.649747077
2025-11-07 19:14:44.203818,0,2025-11-07 19:14:48.657439385
2025-11-07 19:14:44.203818,185,2025-11-07 19:14:48.665131692
2025-11-07 19:14:44.203818,-21760,2025-11-07 19:14:48.672824000
2025-11-07 19:14:44.203818,0,2025-11-07 19:14:48.680516308
2025-11-07 19:14:44.203818,142,2025-11-07 19:14:48.688208615
2025-11-07 19:14:44.203818,24320,2025-11-07 19:14:48.695900923
2025-11-07 19:14:44.203818,0,2025-11-07 19:14:48.703593231
2025-11-07 19:14:44.203818,33,2025-11-07 19:14:48.711285538
2025-11-07 19:14:44.203818,-7168,2025-11-07 19:14:48.718977846
2025-11-07 19:14:44.203818,-1,2025-11-07 19:14:48.726670154
2025-11-07 19:14:44.203818,-71,2025-11-07 19:14:48.734362462
2025-11-07 19:14:44.203818,-25857,2025-11-07 19:14:48.742054769
2025-11-07 19:14:44.203818,-1,2025-11-07 19:14:48.749747077
2025-11-07 19:14:44.203818,-116,2025-11-07 19:14:48.757439385
2025-11-07 19:14:44.203818,-30721,2025-11-07 19:14:48.765131692
2025-11-07 19:14:44.203818,-1,2025-11-07 19:14:48.772824000
2025-11-07 19:14:44.203818,-123,2025-11-07 19:14:48.780516308
2025-11-07 19:14:44.203818,-31233,2025-11-07 19:14:48.788208615
2025-11-07 19:14:44.203818,-1,2025-11-07 19:14:48.795900923
2025-11-07 19:14:44.203818,-119,2025-11-07 19:14:48.803593231
2025-11-07 19:14:44.203818,-28161,2025-11-07 19:14:48.811285538
2025-11-07 19:14:44.203818,-1,2025-11-07 19:14:48.818977846
2025-11-07 19:14:44.203818,-109,2025-11-07 19:14:48.826670154
2025-11-07 19:14:44.203818,-27649,2025-11-07 19:14:48.834362462
2025-11-07 19:14:44.203818,-1,2025-11-07 19:14:48.842054769
2025-11-07 19:14:44.203818,-97,2025-11-07 19:14:48.849747077
2025-11-07 19:14:44.203818,-22273,2025-11-07 19:14:48.857439385
2025-11-07 19:14:44.203818,-1,2025-11-07 19:14:48.865131692
2025-11-07 19:14:44.203818,-83,2025-11-07 19:14:48.872824000
2025-11-07 19:14:44.203818,-19713,2025-11-07 19:14:48.880516308
2025-11-07 19:14:44.203818,-1,2025-11-07 19:14:48.888208615
2025-11-07 19:14:44.203818,-71,2025-11-07 19:14:48.895900923
2025-11-07 19:14:44.203818,-18433,2025-11-07 19:14:48.903593230
2025-11-07 19:14:44.203818,-1,2025-11-07 19:14:48.911285538
2025-11-07 19:14:44.203818,-78,2025-11-07 19:14:48.918977846
2025-11-07 19:14:44.203818,-16641,2025-11-07 19:14:48.926670154
2025-11-07 19:14:44.203818,-1,2025-11-07 19:14:48.934362462
2025-11-07 19:14:44.203818,-47,2025-11-07 19:14:48.942054769
2025-11-07 19:14:44.743873,-28,2025-11-07 19:14:48.949747077
2025-11-07 19:14:44.743873,-2049,2025-11-07 19:14:48.957439385
2025-11-07 19:14:44.743873,-1,2025-11-07 19:14:48.965131692
2025-11-07 19:14:44.743873,0,2025-11-07 19:14:48.972824000
2025-11-07 19:14:44.743873,-1792,2025-11-07 19:14:48.980516308
2025-11-07 19:14:44.743873,-1,2025-11-07 19:14:48.988208615
2025-11-07 19:14:44.743873,-21,2025-11-07 19:14:48.995900923
2025-11-07 19:14:44.743873,-9985,2025-11-07 19:14:49.003593231
2025-11-07 19:14:44.743873,-1,2025-11-07 19:14:49.011285538
2025-11-07 19:14:44.743873,-64,2025-11-07 19:14:49.018977846
2025-11-07 19:14:44.743873,-19201,2025-11-07 19:14:49.026670154
2025-11-07 19:14:44.743873,-1,2025-11-07 19:14:49.034362462
2025-11-07 19:14:44.743873,-66,2025-11-07 19:14:49.042054769
2025-11-07 19:14:44.743873,-11777,2025-11-07 19:14:49.049747077
2025-11-07 19:14:44.743873,-1,2025-11-07 19:14:49.057439385
2025-11-07 19:14:44.743873,-42,2025-11-07 19:14:49.065131692
2025-11-07 19:14:44.743873,-9985,2025-11-07 19:14:49.072824000
2025-11-07 19:14:44.743873,-1,2025-11-07 19:14:49.080516308
2025-11-07 19:14:44.743873,-30,2025-11-07 19:14:49.088208615
2025-11-07 19:14:44.743873,-6913,2025-11-07 19:14:49.095900923
2025-11-07 19:14:44.743873,-1,2025-11-07 19:14:49.103593231
2025-11-07 19:14:44.743873,-35,2025-11-07 19:14:49.111285538
2025-11-07 19:14:44.743873,-9985,2025-11-07 19:14:49.118977846
2025-11-07 19:14:44.743873,-1,2025-11-07 19:14:49.126670154
2025-11-07 19:14:44.743873,-54,2025-11-07 19:14:49.134362462
2025-11-07 19:14:44.743873,255,2025-11-07 19:14:49.142054769
2025-11-07 19:14:44.743873,0,2025-11-07 19:14:49.149747077
2025-11-07 19:14:44.743873,311,2025-11-07 19:14:49.157439385
2025-11-07 19:14:44.743873,-15360,2025-11-07 19:14:49.165131692
2025-11-07 19:14:44.743873,3,2025-11-07 19:14:49.172824000
2025-11-07 19:14:44.743873,1485,2025-11-07 19:14:49.180516308
2025-11-07 19:14:44.743873,-256,2025-11-07 19:14:49.188208615
2025-11-07 19:14:44.743873,3,2025-11-07 19:14:49.195900923
2025-11-07 19:14:44.743873,-30,2025-11-07 19:14:49.203593231
2025-11-07 19:14:44.743873,-16897,2025-11-07 19:14:49.211285538
2025-11-07 19:14:44.743873,-2,2025-11-07 19:14:49.218977846
2025-11-07 19:14:44.743873,-61,2025-11-07 19:14:49.226670154
2025-11-07 19:14:44.743873,-32513,2025-11-07 19:14:49.234362462
2025-11-07 19:14:44.743873,-1,2025-11-07 19:14:49.242054769
2025-11-07 19:14:44.743873,-235,2025-11-07 19:14:49.249747077
2025-11-07 19:14:44.743873,-32513,2025-11-07 19:14:49.257439385
2025-11-07 19:14:44.743873,-1,2025-11-07 19:14:49.265131692
2025-11-07 19:14:44.743873,-111,2025-11-07 19:14:49.272824000
2025-11-07 19:14:44.743873,24575,2025-11-07 19:14:49.280516308
2025-11-07 19:14:44.743873,-1,2025-11-07 19:14:49.288208615
2025-11-07 19:14:44.743873,-130,2025-11-07 19:14:49.295900923
2025-11-07 19:14:44.743873,-24577,2025-11-07 19:14:49.303593231
2025-11-07 19:14:44.743873,-1,2025-11-07 19:14:49.311285538
2025-11-07 19:14:44.743873,-104,2025-11-07 19:14:49.318977846
2025-11-07 19:14:44.743873,-22273,2025-11-07 19:14:49.326670154
2025-11-07 19:14:44.743873,-1,2025-11-07 19:14:49.334362462
2025-11-07 19:14:44.743873,-61,2025-11-07 19:14:49.342054769
2025-11-07 19:14:44.743873,-14849,2025-11-07 19:14:49.349747077
2025-11-07 19:14:44.743873,-1,2025-11-07 19:14:49.357439385
2025-11-07 19:14:44.743873,-57,2025-11-07 19:14:49.365131692
2025-11-07 19:14:44.743873,-8193,2025-11-07 19:14:49.372824000
2025-11-07 19:14:44.743873,-1,2025-11-07 19:14:49.380516308
2025-11-07 19:14:44.743873,-11,2025-11-07 19:14:49.388208615
2025-11-07 19:14:44.743873,-257,2025-11-07 19:14:49.395900923
2025-11-07 19:14:44.743873,-1,2025-11-07 19:14:49.403593231
2025-11-07 19:14:44.743873,14,2025-11-07 19:14:49.411285538
2025-11-07 19:14:44.743873,9728,2025-11-07 19:14:49.418977846
2025-11-07 19:14:44.743873,0,2025-11-07 19:14:49.426670154
2025-11-07 19:14:44.743873,64,2025-11-07 19:14:49.434362462
2025-11-07 19:14:44.743873,26624,2025-11-07 19:14:49.442054769
2025-11-07 19:14:44.743873,0,2025-11-07 19:14:49.449747077
2025-11-07 19:14:44.743873,133,2025-11-07 19:14:49.457439385
2025-11-07 19:14:44.743873,-28416,2025-11-07 19:14:49.465131692
2025-11-07 19:14:44.743873,0,2025-11-07 19:14:49.472824000
2025-11-07 19:14:44.743873,166,2025-11-07 19:14:49.480516308
2025-11-07 19:14:44.743873,-21248,2025-11-07 19:14:49.488208615
2025-11-07 19:14:44.743873,0,2025-11-07 19:14:49.495900923
2025-11-07 19:14:44.743873,161,2025-11-07 19:14:49.503593231
2025-11-07 19:14:44.743873,-28416,2025-11-07 19:14:49.511285538
2025-11-07 19:14:44.743873,0,2025-11-07 19:14:49.518977846
2025-11-07 19:14:44.743873,111,2025-11-07 19:14:49.526670154
2025-11-07 19:14:44.743873,14592,2025-11-07 19:14:49.534362462
2025-11-07 19:14:44.743873,0,2025-11-07 19:14:49.542054769
2025-11-07 19:14:44.743873,-4,2025-11-07 19:14:49.549747077
2025-11-07 19:14:44.743873,-14337,2025-11-07 19:14:49.557439385
2025-11-07 19:14:44.743873,-1,2025-11-07 19:14:49.565131692
2025-11-07 19:14:44.743873,-90,2025-11-07 19:14:49.572824000
2025-11-07 19:14:44.743873,-28929,2025-11-07 19:14:49.580516308
2025-11-07 19:14:44.743873,-1,2025-11-07 19:14:49.588208615
2025-11-07 19:14:44.743873,-121,2025-11-07 19:14:49.595900923
2025-11-07 19:14:44.743873,-29441,2025-11-07 19:14:49.603593231
2025-11-07 19:14:44.743873,-1,2025-11-07 19:14:49.611285538
2025-11-07 19:14:44.743873,-107,2025-11-07 19:14:49.618977846
2025-11-07 19:14:44.743873,-26369,2025-11-07 19:14:49.626670154
2025-11-07 19:14:44.743873,-1,2025-11-07 19:14:49.634362462
2025-11-07 19:14:44.743873,-111,2025-11-07 19:14:49.642054769
2025-11-07 19:14:44.743873,-27649,2025-11-07 19:14:49.649747077
2025-11-07 19:14:44.743873,-1,2025-11-07 19:14:49.657439385
2025-11-07 19:14:44.743873,-99,2025-11-07 19:14:49.665131692
2025-11-07 19:14:44.743873,-24577,2025-11-07 19:14:49.672824000
2025-11-07 19:14:44.743873,-1,2025-11-07 19:14:49.680516308
2025-11-07 19:14:44.743873,-97,2025-11-07 19:14:49.688208615
2025-11-07 19:14:44.743873,-22273,2025-11-07 19:14:49.695900923
2025-11-07 19:14:44.743873,-1,2025-11-07 19:14:49.703593231
2025-11-07 19:14:44.743873,-76,2025-11-07 19:14:49.711285538
2025-11-07 19:14:44.743873,-18433,2025-11-07 19:14:49.718977846
2025-11-07 19:14:44.743873,-1,2025-11-07 19:14:49.726670154
2025-11-07 19:14:44.743873,-78,2025-11-07 19:14:49.734362462
2025-11-07 19:14:44.743873,-18433,2025-11-07 19:14:49.742054769
2025-11-07 19:14:44.743873,-1,2025-11-07 19:14:49.749747077
2025-11-07 19:14:44.743873,-64,2025-11-07 19:14:49.757439385
2025-11-07 19:14:44.743873,-14849,2025-11-07 19:14:49.765131692
2025-11-07 19:14:44.743873,-1,2025-11-07 19:14:49.772824000
2025-11-07 19:14:44.743873,-59,2025-11-07 19:14:49.780516308
2025-11-07 19:14:45.282509,-47,2025-11-07 19:14:49.788208615
2025-11-07 19:14:45.282509,-3841,2025-11-07 19:14:49.795900923
2025-11-07 19:14:45.282509,-1,2025-11-07 19:14:49.803593231
2025-11-07 19:14:45.282509,-2,2025-11-07 19:14:49.811285538
2025-11-07 19:14:45.282509,-3329,2025-11-07 19:14:49.818977846
2025-11-07 19:14:45.282509,-1,2025-11-07 19:14:49.826670154
2025-11-07 19:14:45.282509,-16,2025-11-07 19:14:49.834362462
2025-11-07 19:14:45.282509,-5633,2025-11-07 19:14:49.842054769
2025-11-07 19:14:45.282509,-1,2025-11-07 19:14:49.849747077
2025-11-07 19:14:45.282509,-35,2025-11-07 19:14:49.857439385
2025-11-07 19:14:45.282509,-9985,2025-11-07 19:14:49.865131692
2025-11-07 19:14:45.282509,-1,2025-11-07 19:14:49.872824000
2025-11-07 19:14:45.282509,-49,2025-11-07 19:14:49.880516308
2025-11-07 19:14:45.282509,-13569,2025-11-07 19:14:49.888208615
2025-11-07 19:14:45.282509,-1,2025-11-07 19:14:49.895900923
2025-11-07 19:14:45.282509,-52,2025-11-07 19:14:49.903593230
2025-11-07 19:14:45.282509,-12289,2025-11-07 19:14:49.911285538
2025-11-07 19:14:45.282509,-1,2025-11-07 19:14:49.918977846
2025-11-07 19:14:45.282509,-42,2025-11-07 19:14:49.926670154
2025-11-07 19:14:45.282509,-9473,2025-11-07 19:14:49.934362462
2025-11-07 19:14:45.282509,-1,2025-11-07 19:14:49.942054769
2025-11-07 19:14:45.282509,-42,2025-11-07 19:14:49.949747077
2025-11-07 19:14:45.282509,-11777,2025-11-07 19:14:49.957439385
2025-11-07 19:14:45.282509,-1,2025-11-07 19:14:49.965131692
2025-11-07 19:14:45.282509,-61,2025-11-07 19:14:49.972824000
2025-11-07 19:14:45.282509,-20993,2025-11-07 19:14:49.980516308
2025-11-07 19:14:45.282509,-1,2025-11-07 19:14:49.988208615
2025-11-07 19:14:45.282509,9,2025-11-07 19:14:49.995900923
2025-11-07 19:14:45.282509,-14080,2025-11-07 19:14:50.003593231
2025-11-07 19:14:45.282509,1,2025-11-07 19:14:50.011285538
2025-11-07 19:14:45.282509,1228,2025-11-07 19:14:50.018977846
2025-11-07 19:14:45.282509,13056,2025-11-07 19:14:50.026670154
2025-11-07 19:14:45.282509,6,2025-11-07 19:14:50.034362462
2025-11-07 19:14:45.282509,811,2025-11-07 19:14:50.042054769
2025-11-07 19:14:45.282509,19456,2025-11-07 19:14:50.049747077
2025-11-07 19:14:45.282509,-1,2025-11-07 19:14:50.057439385
2025-11-07 19:14:45.282509,-238,2025-11-07 19:14:50.065131692
2025-11-07 19:14:45.282509,-12289,2025-11-07 19:14:50.072824000
2025-11-07 19:14:45.282509,-1,2025-11-07 19:14:50.080516308
2025-11-07 19:14:45.282509,-209,2025-11-07 19:14:50.088208615
2025-11-07 19:14:45.282509,5631,2025-11-07 19:14:50.095900923
2025-11-07 19:14:45.282509,-1,2025-11-07 19:14:50.103593231
2025-11-07 19:14:45.282509,-121,2025-11-07 19:14:50.111285538
2025-11-07 19:14:45.282509,28671,2025-11-07 19:14:50.118977846
2025-11-07 19:14:45.282509,-1,2025-11-07 19:14:50.126670154
2025-11-07 19:14:45.282509,-173,2025-11-07 19:14:50.134362462
2025-11-07 19:14:45.282509,-32513,2025-11-07 19:14:50.142054769
2025-11-07 19:14:45.282509,-1,2025-11-07 19:14:50.149747077
2025-11-07 19:14:45.282509,-111,2025-11-07 19:14:50.157439385
2025-11-07 19:14:45.282509,-30209,2025-11-07 19:14:50.165131692
2025-11-07 19:14:45.282509,-1,2025-11-07 19:14:50.172824000
2025-11-07 19:14:45.282509,-104,2025-11-07 19:14:50.180516308
2025-11-07 19:14:45.282509,-20993,2025-11-07 19:14:50.188208615
2025-11-07 19:14:45.282509,-1,2025-11-07 19:14:50.195900923
2025-11-07 19:14:45.282509,-73,2025-11-07 19:14:50.203593231
2025-11-07 19:14:45.282509,-16641,2025-11-07 19:14:50.211285538
2025-11-07 19:14:45.282509,-1,2025-11-07 19:14:50.218977846
2025-11-07 19:14:45.282509,-52,2025-11-07 19:14:50.226670154
2025-11-07 19:14:45.282509,-8705,2025-11-07 19:14:50.234362462
2025-11-07 19:14:45.282509,-1,2025-11-07 19:14:50.242054769
2025-11-07 19:14:45.282509,-11,2025-11-07 19:14:50.249747077
2025-11-07 19:14:45.282509,2559,2025-11-07 19:14:50.257439385
2025-11-07 19:14:45.282509,0,2025-11-07 19:14:50.265131692
2025-11-07 19:14:45.282509,28,2025-11-07 19:14:50.272824000
2025-11-07 19:14:45.282509,13312,2025-11-07 19:14:50.280516308
2025-11-07 19:14:45.282509,0,2025-11-07 19:14:50.288208615
2025-11-07 19:14:45.282509,83,2025-11-07 19:14:50.295900923
2025-11-07 19:14:45.282509,27904,2025-11-07 19:14:50.303593231
2025-11-07 19:14:45.282509,0,2025-11-07 19:14:50.311285538
2025-11-07 19:14:45.282509,128,2025-11-07 19:14:50.318977846
2025-11-07 19:14:45.282509,-29696,2025-11-07 19:14:50.326670154
2025-11-07 19:14:45.282509,0,2025-11-07 19:14:50.334362462
2025-11-07 19:14:45.282509,140,2025-11-07 19:14:50.342054769
2025-11-07 19:14:45.282509,-29184,2025-11-07 19:14:50.349747077
2025-11-07 19:14:45.282509,0,2025-11-07 19:14:50.357439385
2025-11-07 19:14:45.282509,126,2025-11-07 19:14:50.365131692
2025-11-07 19:14:45.282509,20480,2025-11-07 19:14:50.372824000
2025-11-07 19:14:45.282509,0,2025-11-07 19:14:50.380516308
2025-11-07 19:14:45.282509,23,2025-11-07 19:14:50.388208615
2025-11-07 19:14:45.282509,-6656,2025-11-07 19:14:50.395900923
2025-11-07 19:14:45.282509,-1,2025-11-07 19:14:50.403593231
2025-11-07 19:14:45.282509,-61,2025-11-07 19:14:50.411285538
2025-11-07 19:14:45.282509,-22785,2025-11-07 19:14:50.418977846
2025-11-07 19:14:45.282509,-1,2025-11-07 19:14:50.426670154
2025-11-07 19:14:45.282509,-107,2025-11-07 19:14:50.434362462
2025-11-07 19:14:45.282509,-29441,2025-11-07 19:14:50.442054769
2025-11-07 19:14:45.282509,-1,2025-11-07 19:14:50.449747077
2025-11-07 19:14:45.282509,-114,2025-11-07 19:14:50.457439385
2025-11-07 19:14:45.282509,-27137,2025-11-07 19:14:50.465131692
2025-11-07 19:14:45.282509,-1,2025-11-07 19:14:50.472824000
2025-11-07 19:14:45.282509,-109,2025-11-07 19:14:50.480516308
2025-11-07 19:14:45.282509,-27649,2025-11-07 19:14:50.488208615
2025-11-07 19:14:45.282509,-1,2025-11-07 19:14:50.495900923
2025-11-07 19:14:45.282509,-102,2025-11-07 19:14:50.503593231
2025-11-07 19:14:45.282509,-25089,2025-11-07 19:14:50.511285538
2025-11-07 19:14:45.282509,-1,2025-11-07 19:14:50.518977846
2025-11-07 19:14:45.282509,-95,2025-11-07 19:14:50.526670154
2025-11-07 19:14:45.282509,-22785,2025-11-07 19:14:50.534362462
2025-11-07 19:14:45.282509,-1,2025-11-07 19:14:50.542054769
2025-11-07 19:14:45.282509,-78,2025-11-07 19:14:50.549747077
2025-11-07 19:14:45.282509,-18433,2025-11-07 19:14:50.557439385
2025-11-07 19:14:45.282509,-1,2025-11-07 19:14:50.565131692
2025-11-07 19:14:45.282509,-80,2025-11-07 19:14:50.572824000
2025-11-07 19:14:45.282509,-19201,2025-11-07 19:14:50.580516308
2025-11-07 19:14:45.282509,-1,2025-11-07 19:14:50.588208615
2025-11-07 19:14:45.282509,-61,2025-11-07 19:14:50.595900923
2025-11-07 19:14:45.282509,-16129,2025-11-07 19:14:50.603593231
2025-11-07 19:14:45.282509,-1,2025-11-07 19:14:50.611285538
2025-11-07 19:14:45.282509,-71,2025-11-07 19:14:50.618977846
2025-11-07 19:14:45.957816,-61,2025-11-07 19:14:50.626670154
2025-11-07 19:14:45.957816,-13569,2025-11-07 19:14:50.634362462
2025-11-07 19:14:45.957816,-1,2025-11-07 19:14:50.642054769
2025-11-07 19:14:45.957816,-64,2025-11-07 19:14:50.649747077
2025-11-07 19:14:45.957816,-14849,2025-11-07 19:14:50.657439385
2025-11-07 19:14:45.957816,-1,2025-11-07 19:14:50.665131692
2025-11-07 19:14:45.957816,-40,2025-11-07 19:14:50.672824000
2025-11-07 19:14:45.957816,-5121,2025-11-07 19:14:50.680516308
2025-11-07 19:14:45.957816,-1,2025-11-07 19:14:50.688208615
2025-11-07 19:14:45.957816,0,2025-11-07 19:14:50.695900923
2025-11-07 19:14:45.957816,2816,2025-11-07 19:14:50.703593231
2025-11-07 19:14:45.957816,0,2025-11-07 19:14:50.711285538
2025-11-07 19:14:45.957816,9,2025-11-07 19:14:50.718977846
2025-11-07 19:14:45.957816,-512,2025-11-07 19:14:50.726670154
2025-11-07 19:14:45.957816,-1,2025-11-07 19:14:50.734362462
2025-11-07 19:14:45.957816,-23,2025-11-07 19:14:50.742054769
2025-11-07 19:14:45.957816,-9473,2025-11-07 19:14:50.749747077
2025-11-07 19:14:45.957816,-1,2025-11-07 19:14:50.757439385
2025-11-07 19:14:45.957816,-52,2025-11-07 19:14:50.765131692
2025-11-07 19:14:45.957816,-16129,2025-11-07 19:14:50.772824000
2025-11-07 19:14:45.957816,-1,2025-11-07 19:14:50.780516308
2025-11-07 19:14:45.957816,-54,2025-11-07 19:14:50.788208615
2025-11-07 19:14:45.957816,-10497,2025-11-07 19:14:50.795900923
2025-11-07 19:14:45.957816,-1,2025-11-07 19:14:50.803593231
2025-11-07 19:14:45.957816,-45,2025-11-07 19:14:50.811285538
2025-11-07 19:14:45.957816,-12289,2025-11-07 19:14:50.818977846
2025-11-07 19:14:45.957816,-1,2025-11-07 19:14:50.826670154
2025-11-07 19:14:45.957816,-49,2025-11-07 19:14:50.834362462
2025-11-07 19:14:45.957816,-11777,2025-11-07 19:14:50.842054769
2025-11-07 19:14:45.957816,-1,2025-11-07 19:14:50.849747077
2025-11-07 19:14:45.957816,-45,2025-11-07 19:14:50.857439385
2025-11-07 19:14:45.957816,-19201,2025-11-07 19:14:50.865131692
2025-11-07 19:14:45.957816,-1,2025-11-07 19:14:50.872824000
2025-11-07 19:14:45.957816,-64,2025-11-07 19:14:50.880516308
2025-11-07 19:14:45.957816,-7425,2025-11-07 19:14:50.888208615
2025-11-07 19:14:45.957816,0,2025-11-07 19:14:50.895900923
2025-11-07 19:14:45.957816,942,2025-11-07 19:14:50.903593230
2025-11-07 19:14:45.957816,29440,2025-11-07 19:14:50.911285538
2025-11-07 19:14:45.957816,6,2025-11-07 19:14:50.918977846
2025-11-07 19:14:45.957816,1356,2025-11-07 19:14:50.926670154
2025-11-07 19:14:45.957816,-12544,2025-11-07 19:14:50.934362462
2025-11-07 19:14:45.957816,0,2025-11-07 19:14:50.942054769
2025-11-07 19:14:45.957816,-316,2025-11-07 19:14:50.949747077
2025-11-07 19:14:45.957816,-25857,2025-11-07 19:14:50.957439385
2025-11-07 19:14:45.957816,-1,2025-11-07 19:14:50.965131692
2025-11-07 19:14:45.957816,-126,2025-11-07 19:14:50.972824000
2025-11-07 19:14:45.957816,-2305,2025-11-07 19:14:50.980516308
2025-11-07 19:14:45.957816,-2,2025-11-07 19:14:50.988208615
2025-11-07 19:14:45.957816,-183,2025-11-07 19:14:50.995900923
2025-11-07 19:14:45.957816,30463,2025-11-07 19:14:51.003593231
2025-11-07 19:14:45.957816,-1,2025-11-07 19:14:51.011285538
2025-11-07 19:14:45.957816,-180,2025-11-07 19:14:51.018977846
2025-11-07 19:14:45.957816,25599,2025-11-07 19:14:51.026670154
2025-11-07 19:14:45.957816,-1,2025-11-07 19:14:51.034362462
2025-11-07 19:14:45.957816,-126,2025-11-07 19:14:51.042054769
2025-11-07 19:14:45.957816,31743,2025-11-07 19:14:51.049747077
2025-11-07 19:14:45.957816,-1,2025-11-07 19:14:51.057439385
2025-11-07 19:14:45.957816,-119,2025-11-07 19:14:51.065131692
2025-11-07 19:14:45.957816,-24065,2025-11-07 19:14:51.072824000
2025-11-07 19:14:45.957816,-1,2025-11-07 19:14:51.080516308
2025-11-07 19:14:45.957816,-95,2025-11-07 19:14:51.088208615
2025-11-07 19:14:45.957816,-21505,2025-11-07 19:14:51.095900923
2025-11-07 19:14:45.957816,-1,2025-11-07 19:14:51.103593231
2025-11-07 19:14:45.957816,-61,2025-11-07 19:14:51.111285538
2025-11-07 19:14:45.957816,-13569,2025-11-07 19:14:51.118977846
2025-11-07 19:14:45.957816,-1,2025-11-07 19:14:51.126670154
2025-11-07 19:14:45.957816,-40,2025-11-07 19:14:51.134362462
2025-11-07 19:14:45.957816,-3841,2025-11-07 19:14:51.142054769
2025-11-07 19:14:45.957816,-1,2025-11-07 19:14:51.149747077
2025-11-07 19:14:45.957816,2,2025-11-07 19:14:51.157439385
2025-11-07 19:14:45.957816,7168,2025-11-07 19:14:51.165131692
2025-11-07 19:14:45.957816,0,2025-11-07 19:14:51.172824000
2025-11-07 19:14:45.957816,61,2025-11-07 19:14:51.180516308
2025-11-07 19:14:45.957816,24832,2025-11-07 19:14:51.188208615
2025-11-07 19:14:45.957816,0,2025-11-07 19:14:51.195900923
2025-11-07 19:14:45.957816,126,2025-11-07 19:14:51.203593231
2025-11-07 19:14:45.957816,-29184,2025-11-07 19:14:51.211285538
2025-11-07 19:14:45.957816,0,2025-11-07 19:14:51.218977846
2025-11-07 19:14:45.957816,147,2025-11-07 19:14:51.226670154
2025-11-07 19:14:45.957816,-28416,2025-11-07 19:14:51.234362462
2025-11-07 19:14:45.957816,0,2025-11-07 19:14:51.242054769
2025-11-07 19:14:45.957816,128,2025-11-07 19:14:51.249747077
2025-11-07 19:14:45.957816,26112,2025-11-07 19:14:51.257439385
2025-11-07 19:14:45.957816,0,2025-11-07 19:14:51.265131692
2025-11-07 19:14:45.957816,69,2025-11-07 19:14:51.272824000
2025-11-07 19:14:45.957816,3584,2025-11-07 19:14:51.280516308
2025-11-07 19:14:45.957816,0,2025-11-07 19:14:51.288208615
2025-11-07 19:14:45.957816,-47,2025-11-07 19:14:51.295900923
2025-11-07 19:14:45.957816,-20225,2025-11-07 19:14:51.303593231
2025-11-07 19:14:45.957816,-1,2025-11-07 19:14:51.311285538
2025-11-07 19:14:45.957816,-92,2025-11-07 19:14:51.318977846
2025-11-07 19:14:45.957816,-26369,2025-11-07 19:14:51.326670154
2025-11-07 19:14:45.957816,-1,2025-11-07 19:14:51.334362462
2025-11-07 19:14:45.957816,-114,2025-11-07 19:14:51.342054769
2025-11-07 19:14:45.957816,-27649,2025-11-07 19:14:51.349747077
2025-11-07 19:14:45.957816,-1,2025-11-07 19:14:51.357439385
2025-11-07 19:14:45.957816,-107,2025-11-07 19:14:51.365131692
2025-11-07 19:14:45.957816,-27137,2025-11-07 19:14:51.372824000
2025-11-07 19:14:45.957816,-1,2025-11-07 19:14:51.380516308
2025-11-07 19:14:45.957816,-95,2025-11-07 19:14:51.388208615
2025-11-07 19:14:45.957816,-22273,2025-11-07 19:14:51.395900923
