timestamp,ecg
10:56:55.833033,-30
10:56:55.833033,-6913
10:56:55.833033,-1
10:56:55.833033,-21
10:56:55.833033,-1537
10:56:55.833033,-1
10:56:55.833033,2
10:56:55.833033,512
10:56:55.833033,0
10:56:55.833033,0
10:56:55.833033,-512
10:56:55.833033,-1
10:56:55.833033,-4
10:56:55.833033,255
10:56:55.833033,0
10:56:55.833033,2
10:56:55.833033,-512
10:56:55.833033,-1
10:56:55.833033,-11
10:56:55.833033,-3841
10:56:55.833033,-1
10:56:55.833033,-16
10:56:55.833033,-2561
10:56:55.833033,-1
10:56:55.833033,0
10:56:55.833033,3584
10:56:55.833033,0
10:56:55.833033,19
10:56:55.833033,4864
10:56:55.833033,0
10:56:55.833033,11
10:56:55.833033,0
10:56:55.833033,0
10:56:55.833033,-14
10:56:55.833033,-4609
10:56:55.833033,-1
10:56:55.833033,-11
10:56:55.833033,-2049
10:56:55.833033,-1
10:56:55.833033,-9
10:56:55.833033,-1537
10:56:55.833033,-1
10:56:55.833033,-11
10:56:55.833033,-11265
10:56:55.833033,-1
10:56:55.833033,-61
10:56:55.833033,18943
10:56:55.833033,0
10:56:55.833033,419
10:56:55.833033,-15360
10:56:55.833033,2
10:56:55.833033,622
10:56:55.833033,21504
10:56:55.833033,1
10:56:55.833033,145
10:56:55.833033,-4096
10:56:55.833033,-1
10:56:55.833033,-114
10:56:55.833033,-24065
10:56:55.833033,-1
10:56:55.833033,-83
10:56:55.833033,-25857
10:56:55.833033,-1
10:56:55.833033,-92
10:56:55.833033,-20481
10:56:55.833033,-1
10:56:55.833033,-78
10:56:55.833033,-17409
10:56:55.833033,-1
10:56:55.833033,-64
10:56:55.833033,-16129
10:56:55.833033,-1
10:56:55.833033,-57
10:56:55.833033,-12545
10:56:55.833033,-1
10:56:55.833033,-50
10:56:55.833033,-11265
10:56:55.833033,-1
10:56:55.833033,-33
10:56:55.833033,-6401
10:56:55.833033,-1
10:56:55.833033,-23
10:56:55.833033,-3841
10:56:55.833033,-1
10:56:55.833033,4
10:56:55.833033,6656
10:56:55.833033,0
10:56:55.833033,40
10:56:55.833033,14592
10:56:55.833033,0
10:56:55.833033,71
10:56:55.833033,19456
10:56:55.833033,0
10:56:55.833033,73
10:56:55.833033,16384
10:56:55.833033,0
10:56:55.833033,42
10:56:55.833033,4096
10:56:55.833033,0
10:56:55.833033,-9
10:56:55.833033,-8193
10:56:55.833033,-1
10:56:55.833033,-42
10:56:55.833033,-10497
10:56:55.833033,-1
10:56:55.833033,-45
10:56:55.833033,-12545
10:56:55.833033,-1
10:56:55.833033,-45
10:56:56.433429,-40
10:56:56.433429,-9985
10:56:56.433429,-1
10:56:56.433429,-40
10:56:56.433429,-9473
10:56:56.433429,-1
10:56:56.433429,-38
10:56:56.433429,-7425
10:56:56.433429,-1
10:56:56.433429,-26
10:56:56.433429,-7425
10:56:56.433429,-1
10:56:56.433429,-19
10:56:56.433429,255
10:56:56.433429,0
10:56:56.433429,-4
10:56:56.433429,-2561
10:56:56.433429,-1
10:56:56.433429,-2
10:56:56.433429,767
10:56:56.433429,0
10:56:56.433429,2
10:56:56.433429,3584
10:56:56.433429,0
10:56:56.433429,19
10:56:56.433429,1024
10:56:56.433429,0
10:56:56.433429,-4
10:56:56.433429,255
10:56:56.433429,0
10:56:56.433429,9
10:56:56.433429,1024
10:56:56.433429,0
10:56:56.433429,-9
10:56:56.433429,-3841
10:56:56.433429,-1
10:56:56.433429,-4
10:56:56.433429,3839
10:56:56.433429,0
10:56:56.433429,21
10:56:56.433429,7680
10:56:56.433429,0
10:56:56.433429,45
10:56:56.433429,8960
10:56:56.433429,0
10:56:56.433429,7
10:56:56.433429,512
10:56:56.433429,0
10:56:56.433429,16
10:56:56.433429,5376
10:56:56.433429,0
10:56:56.433429,16
10:56:56.433429,2304
10:56:56.433429,0
10:56:56.433429,4
10:56:56.433429,0
10:56:56.433429,0
10:56:56.433429,-23
10:56:56.433429,-11265
10:56:56.433429,-1
10:56:56.433429,71
10:56:56.433429,-23808
10:56:56.433429,1
10:56:56.433429,789
10:56:56.433429,1024
10:56:56.433429,3
10:56:56.433429,417
10:56:56.433429,-31488
10:56:56.433429,0
10:56:56.433429,-21
10:56:56.433429,-28417
10:56:56.433429,-1
10:56:56.433429,-104
10:56:56.433429,-21505
10:56:56.433429,-1
10:56:56.433429,-100
10:56:56.433429,-24065
10:56:56.433429,-1
10:56:56.433429,-78
10:56:56.433429,-19201
10:56:56.433429,-1
10:56:56.433429,-66
10:56:56.433429,-14337
10:56:56.433429,-1
10:56:56.433429,-66
10:56:56.433429,-18433
10:56:56.433429,-1
10:56:56.433429,-57
10:56:56.433429,-11265
10:56:56.433429,-1
10:56:56.433429,-45
10:56:56.433429,-8705
10:56:56.433429,-1
10:56:56.433429,-28
10:56:56.433429,-5633
10:56:56.433429,-1
10:56:56.433429,-2
10:56:56.433429,4351
10:56:56.433429,0
10:56:56.433429,21
10:56:56.433429,7680
10:56:56.433429,0
10:56:56.433429,52
10:56:56.433429,16384
10:56:56.433429,0
10:56:56.433429,69
10:56:56.433429,20736
10:56:56.433429,0
10:56:56.433429,69
10:56:57.081810,33
10:56:57.081810,2304
10:56:57.081810,0
10:56:57.081810,-7
10:56:57.081810,-6913
10:56:57.081810,-1
10:56:57.081810,-42
10:56:57.081810,-11265
10:56:57.081810,-1
10:56:57.081810,-42
10:56:57.081810,-7425
10:56:57.081810,-1
10:56:57.081810,-33
10:56:57.081810,-11777
10:56:57.081810,-1
10:56:57.081810,-45
10:56:57.081810,-8705
10:56:57.081810,-1
10:56:57.081810,-42
10:56:57.081810,-9473
10:56:57.081810,-1
10:56:57.081810,-19
10:56:57.081810,-3329
10:56:57.081810,-1
10:56:57.081810,-21
10:56:57.081810,-5633
10:56:57.081810,-1
10:56:57.081810,-21
10:56:57.081810,-4609
10:56:57.081810,-1
10:56:57.081810,-14
10:56:57.081810,-4609
10:56:57.081810,-1
10:56:57.081810,-23
10:56:57.081810,-4609
10:56:57.081810,-1
10:56:57.081810,-11
10:56:57.081810,-2049
10:56:57.081810,-1
10:56:57.081810,-9
10:56:57.081810,-2049
10:56:57.081810,-1
10:56:57.081810,-14
10:56:57.081810,-5633
10:56:57.081810,-1
10:56:57.081810,-21
10:56:57.081810,-5121
10:56:57.081810,-1
10:56:57.081810,-33
10:56:57.081810,-8193
10:56:57.081810,-1
10:56:57.081810,-9
10:56:57.081810,3839
10:56:57.081810,0
10:56:57.081810,16
10:56:57.081810,4864
10:56:57.081810,0
10:56:57.081810,14
10:56:57.081810,0
10:56:57.081810,0
10:56:57.081810,-7
10:56:57.081810,-2561
10:56:57.081810,-1
10:56:57.081810,-21
10:56:57.081810,-4609
10:56:57.081810,-1
10:56:57.081810,-14
10:56:57.081810,-3841
10:56:57.081810,-1
10:56:57.081810,-19
10:56:57.081810,-7425
10:56:57.081810,-1
10:56:57.081810,-57
10:56:57.081810,6143
10:56:57.081810,0
10:56:57.081810,338
10:56:57.081810,-14336
10:56:57.081810,2
10:56:57.081810,746
10:56:57.081810,-23808
10:56:57.081810,1
10:56:57.081810,123
10:56:57.081810,-6656
10:56:57.081810,-1
10:56:57.081810,-116
10:56:57.081810,32255
10:56:57.081810,-1
10:56:57.081810,-109
10:56:57.081810,-28417
10:56:57.081810,-1
10:56:57.081810,-109
10:56:57.081810,-25857
10:56:57.081810,-1
10:56:57.081810,-102
10:56:57.081810,-25857
10:56:57.081810,-1
10:56:57.081810,-109
10:56:57.081810,-25345
10:56:57.081810,-1
10:56:57.081810,-73
10:56:57.081810,-17921
10:56:57.081810,-1
10:56:57.081810,-83
10:56:57.081810,-20481
10:56:57.081810,-1
10:56:57.081810,-69
10:56:57.081810,-15361
10:56:57.081810,-1
10:56:57.081810,-57
10:56:57.533314,-47
10:56:57.533314,-6913
10:56:57.533314,-1
10:56:57.533314,-11
10:56:57.533314,255
10:56:57.533314,0
10:56:57.533314,11
10:56:57.533314,8960
10:56:57.533314,0
10:56:57.533314,57
10:56:57.533314,12032
10:56:57.533314,0
10:56:57.533314,23
10:56:57.533314,512
10:56:57.533314,0
10:56:57.533314,-21
10:56:57.533314,-11265
10:56:57.533314,-1
10:56:57.533314,-57
10:56:57.533314,-17409
10:56:57.533314,-1
10:56:57.533314,-78
10:56:57.533314,-20481
10:56:57.533314,-1
10:56:57.533314,-92
10:56:57.533314,-22785
10:56:57.533314,-1
10:56:57.533314,-66
10:56:57.533314,-17921
10:56:57.533314,-1
10:56:57.533314,-92
10:56:57.533314,-21505
10:56:57.533314,-1
10:56:57.533314,-69
10:56:57.533314,-19201
10:56:57.533314,-1
10:56:57.533314,-81
10:56:57.533314,-16129
10:56:57.533314,-1
10:56:57.533314,-45
10:56:57.533314,-12545
10:56:57.533314,-1
10:56:57.533314,-64
10:56:57.533314,-16641
10:56:57.533314,-1
10:56:57.533314,-61
10:56:57.533314,-14337
10:56:57.533314,-1
10:56:57.533314,-47
10:56:57.533314,-11777
10:56:57.533314,-1
10:56:57.533314,-54
10:56:57.533314,-12545
10:56:57.533314,-1
10:56:57.533314,-38
10:56:57.533314,-9985
10:56:57.533314,-1
10:56:57.533314,-61
10:56:57.533314,-16641
10:56:57.533314,-1
10:56:57.533314,-52
10:56:57.533314,-11265
10:56:57.533314,-1
10:56:57.533314,-35
10:56:57.533314,-3329
10:56:57.533314,-1
10:56:57.533314,2
10:56:57.533314,-1792
10:56:57.533314,-1
10:56:57.533314,-26
10:56:57.533314,-9473
10:56:57.533314,-1
10:56:57.533314,-30
10:56:57.533314,-4609
10:56:57.533314,-1
10:56:57.533314,-26
10:56:57.533314,-7425
10:56:57.533314,-1
10:56:57.533314,-19
10:56:57.533314,-3329
10:56:57.533314,-1
10:56:57.533314,-33
10:56:57.533314,-17921
10:56:57.533314,-1
10:56:57.533314,-73
10:56:57.533314,23807
10:56:57.533314,0
10:56:57.533314,433
10:56:57.533314,31232
10:56:57.533314,2
10:56:57.533314,481
10:56:57.533314,8704
10:56:57.533314,1
10:56:57.533314,166
10:56:57.533314,-13312
10:56:57.533314,-1
10:56:57.533314,-157
10:56:57.533314,-22785
10:56:57.533314,-1
10:56:57.533314,-90
10:56:57.533314,31743
10:56:57.533314,-1
10:56:57.533314,-114
10:56:57.533314,-22273
10:56:57.533314,-1
10:56:57.533314,-90
10:56:57.533314,-23297
10:56:57.533314,-1
10:56:57.533314,-81
10:56:58.084282,-71
10:56:58.084282,-17409
10:56:58.084282,-1
10:56:58.084282,-71
10:56:58.084282,-16129
10:56:58.084282,-1
10:56:58.084282,-50
10:56:58.084282,-9473
10:56:58.084282,-1
10:56:58.084282,-33
10:56:58.084282,-5633
10:56:58.084282,-1
10:56:58.084282,-11
10:56:58.084282,767
10:56:58.084282,0
10:56:58.084282,33
10:56:58.084282,16896
10:56:58.084282,0
10:56:58.084282,73
10:56:58.084282,19456
10:56:58.084282,0
10:56:58.084282,83
10:56:58.084282,18688
10:56:58.084282,0
10:56:58.084282,54
10:56:58.084282,7168
10:56:58.084282,0
10:56:58.084282,-16
10:56:58.084282,-12545
10:56:58.084282,-1
10:56:58.084282,-59
10:56:58.084282,-19201
10:56:58.084282,-1
10:56:58.084282,-78
10:56:58.084282,-17409
10:56:58.084282,-1
10:56:58.084282,-76
10:56:58.084282,-20481
10:56:58.084282,-1
10:56:58.084282,-76
10:56:58.084282,-19201
10:56:58.084282,-1
10:56:58.084282,-76
10:56:58.084282,-20481
10:56:58.084282,-1
10:56:58.084282,-83
10:56:58.084282,-19713
10:56:58.084282,-1
10:56:58.084282,-78
10:56:58.084282,-19201
10:56:58.084282,-1
10:56:58.084282,-61
10:56:58.084282,-11265
10:56:58.084282,-1
10:56:58.084282,-33
10:56:58.084282,-8193
10:56:58.084282,-1
10:56:58.084282,-42
10:56:58.084282,-11777
10:56:58.084282,-1
10:56:58.084282,-47
10:56:58.084282,-11265
10:56:58.084282,-1
10:56:58.084282,-45
10:56:58.084282,-9473
10:56:58.084282,-1
10:56:58.084282,-40
10:56:58.084282,-14849
10:56:58.084282,-1
10:56:58.084282,-54
10:56:58.084282,-2561
10:56:58.084282,-1
10:56:58.084282,9
10:56:58.084282,-2304
10:56:58.084282,-1
10:56:58.084282,-47
10:56:58.084282,-13569
10:56:58.084282,-1
10:56:58.084282,-30
10:56:58.084282,-5633
10:56:58.084282,-1
10:56:58.084282,-38
10:56:58.084282,-11777
10:56:58.084282,-1
10:56:58.084282,-38
10:56:58.084282,-6401
10:56:58.084282,-1
10:56:58.084282,-38
10:56:58.084282,-13569
10:56:58.084282,-1
10:56:58.084282,-83
10:56:58.084282,-13057
10:56:58.084282,-1
10:56:58.084282,176
10:56:58.084282,-5376
10:56:58.084282,1
10:56:58.084282,534
10:56:58.084282,22272
10:56:58.084282,1
10:56:58.084282,271
10:56:58.084282,-23552
10:56:58.084282,0
10:56:58.084282,-90
10:56:58.084282,29951
10:56:58.084282,-1
10:56:58.084282,-64
10:56:58.084282,-25345
10:56:58.084282,-1
10:56:58.084282,-131
10:56:58.633337,-88
10:56:58.633337,-18433
10:56:58.633337,-1
10:56:58.633337,-85
10:56:58.633337,-18433
10:56:58.633337,-1
10:56:58.633337,-57
10:56:58.633337,-14849
10:56:58.633337,-1
10:56:58.633337,-54
10:56:58.633337,-11777
10:56:58.633337,-1
10:56:58.633337,-47
10:56:58.633337,-4609
10:56:58.633337,-1
10:56:58.633337,4
10:56:58.633337,-1792
10:56:58.633337,-1
10:56:58.633337,0
10:56:58.633337,6656
10:56:58.633337,0
10:56:58.633337,47
10:56:58.633337,16384
10:56:58.633337,0
10:56:58.633337,71
10:56:58.633337,20736
10:56:58.633337,0
10:56:58.633337,100
10:56:58.633337,21760
10:56:58.633337,0
10:56:58.633337,47
10:56:58.633337,9728
10:56:58.633337,0
10:56:58.633337,21
10:56:58.633337,-3584
10:56:58.633337,-1
10:56:58.633337,-33
10:56:58.633337,-8705
10:56:58.633337,-1
10:56:58.633337,-40
10:56:58.633337,-13569
10:56:58.633337,-1
10:56:58.633337,-47
10:56:58.633337,-8193
10:56:58.633337,-1
10:56:58.633337,-47
10:56:58.633337,-18433
10:56:58.633337,-1
10:56:58.633337,-52
10:56:58.633337,-2561
10:56:58.633337,-1
10:56:58.633337,-23
10:56:58.633337,-12545
10:56:58.633337,-1
10:56:58.633337,-54
10:56:58.633337,-10497
10:56:58.633337,-1
10:56:58.633337,-7
10:56:58.633337,-257
10:56:58.633337,-1
10:56:58.633337,-28
10:56:58.633337,-1537
10:56:58.633337,-1
10:56:58.633337,9
10:56:58.633337,-4096
10:56:58.633337,-1
10:56:58.633337,-14
10:56:58.633337,-3841
10:56:58.633337,-1
10:56:58.633337,-21
10:56:58.633337,2559
10:56:58.633337,0
10:56:58.633337,4
10:56:58.633337,-7168
10:56:58.633337,-1
10:56:58.633337,-2
10:56:58.633337,9215
10:56:58.633337,0
10:56:58.633337,30
10:56:58.633337,512
10:56:58.633337,0
10:56:58.633337,0
10:56:58.633337,2304
10:56:58.633337,0
10:56:58.633337,0
10:56:58.633337,-2304
10:56:58.633337,-1
10:56:58.633337,0
10:56:58.633337,1792
10:56:58.633337,0
10:56:58.633337,-4
10:56:58.633337,-4609
10:56:58.633337,-1
10:56:58.633337,-30
10:56:58.633337,-8705
10:56:58.633337,-1
10:56:58.633337,42
10:56:58.633337,6912
10:56:58.633337,1
10:56:58.633337,538
10:56:58.633337,7424
10:56:58.633337,2
10:56:58.633337,398
10:56:58.633337,24576
10:56:58.633337,1
10:56:58.633337,174
10:56:58.633337,-28672
10:56:58.633337,-1
10:56:58.633337,-104
10:56:59.281957,-14
10:56:59.281957,-27137
10:56:59.281957,-1
10:56:59.281957,-143
10:56:59.281957,-17921
10:56:59.281957,-1
10:56:59.281957,-54
10:56:59.281957,-20993
10:56:59.281957,-1
10:56:59.281957,-69
10:56:59.281957,-6913
10:56:59.281957,-1
10:56:59.281957,-14
10:56:59.281957,-5121
10:56:59.281957,-1
10:56:59.281957,-26
10:56:59.281957,-5121
10:56:59.281957,-1
10:56:59.281957,-7
10:56:59.281957,767
10:56:59.281957,0
10:56:59.281957,2
10:56:59.281957,5888
10:56:59.281957,0
10:56:59.281957,42
10:56:59.281957,11520
10:56:59.281957,0
10:56:59.281957,64
10:56:59.281957,19968
10:56:59.281957,0
10:56:59.281957,61
10:56:59.281957,14592
10:56:59.281957,0
10:56:59.281957,73
10:56:59.281957,18176
10:56:59.281957,0
10:56:59.281957,35
10:56:59.281957,1024
10:56:59.281957,0
10:56:59.281957,2
10:56:59.281957,-2304
10:56:59.281957,-1
10:56:59.281957,-21
10:56:59.281957,-5633
10:56:59.281957,-1
10:56:59.281957,-38
10:56:59.281957,-8705
10:56:59.281957,-1
10:56:59.281957,-19
10:56:59.281957,-5633
10:56:59.281957,-1
10:56:59.281957,-33
10:56:59.281957,-4609
10:56:59.281957,-1
10:56:59.281957,-16
10:56:59.281957,-8705
10:56:59.281957,-1
10:56:59.281957,-28
10:56:59.281957,255
10:56:59.281957,0
10:56:59.281957,-4
10:56:59.281957,-5121
10:56:59.281957,-1
10:56:59.281957,-14
10:56:59.281957,1279
10:56:59.281957,0
10:56:59.281957,0
10:56:59.281957,-2304
10:56:59.281957,-1
10:56:59.281957,4
10:56:59.281957,2304
10:56:59.281957,0
10:56:59.281957,0
10:56:59.281957,0
10:56:59.281957,0
10:56:59.281957,0
10:56:59.281957,0
10:56:59.281957,0
10:56:59.281957,-4
10:56:59.281957,-2049
10:56:59.281957,-1
10:56:59.281957,-2
10:56:59.281957,1279
10:56:59.281957,0
10:56:59.281957,23
10:56:59.281957,11520
10:56:59.281957,0
10:56:59.281957,40
10:56:59.281957,5888
10:56:59.281957,0
10:56:59.281957,9
10:56:59.281957,2304
10:56:59.281957,0
10:56:59.281957,23
10:56:59.281957,6656
10:56:59.281957,0
10:56:59.281957,16
10:56:59.281957,3584
10:56:59.281957,0
10:56:59.281957,9
10:56:59.281957,-1792
10:56:59.281957,-1
10:56:59.281957,-23
10:56:59.281957,-3329
10:56:59.281957,-1
10:56:59.281957,159
10:56:59.281957,9216
10:56:59.281957,2
10:56:59.281957,805
10:56:59.783429,634
10:56:59.783429,28928
10:56:59.783429,1
10:56:59.783429,202
10:56:59.783429,-7680
10:56:59.783429,-1
10:56:59.783429,-133
10:56:59.783429,-17409
10:56:59.783429,-1
10:56:59.783429,-83
10:56:59.783429,-28929
10:56:59.783429,-1
10:56:59.783429,-81
10:56:59.783429,-16129
10:56:59.783429,-1
10:56:59.783429,-64
10:56:59.783429,-13057
10:56:59.783429,-1
10:56:59.783429,-40
10:56:59.783429,-8705
10:56:59.783429,-1
10:56:59.783429,-35
10:56:59.783429,-9473
10:56:59.783429,-1
10:56:59.783429,-30
10:56:59.783429,-3329
10:56:59.783429,-1
10:56:59.783429,0
10:56:59.783429,512
10:56:59.783429,0
10:56:59.783429,-4
10:56:59.783429,1279
10:56:59.783429,0
10:56:59.783429,35
10:56:59.783429,12800
10:56:59.783429,0
10:56:59.783429,52
10:56:59.783429,15616
10:56:59.783429,0
10:56:59.783429,66
10:56:59.783429,18688
10:56:59.783429,0
10:56:59.783429,88
10:56:59.783429,17664
10:56:59.783429,0
10:56:59.783429,28
10:56:59.783429,7168
10:56:59.783429,0
10:56:59.783429,35
10:56:59.783429,3584
10:56:59.783429,0
10:56:59.783429,7
10:56:59.783429,3584
10:56:59.783429,0
10:56:59.783429,14
10:56:59.783429,3584
10:56:59.783429,0
10:56:59.783429,7
10:56:59.783429,-512
10:56:59.783429,-1
10:56:59.783429,-4
10:56:59.783429,-257
10:56:59.783429,-1
10:56:59.783429,2
10:56:59.783429,2816
10:56:59.783429,0
10:56:59.783429,23
10:56:59.783429,3584
10:56:59.783429,0
10:56:59.783429,-7
10:56:59.783429,-769
10:56:59.783429,-1
10:56:59.783429,14
10:56:59.783429,4864
10:56:59.783429,0
10:56:59.783429,9
10:56:59.783429,2304
10:56:59.783429,0
10:56:59.783429,21
10:56:59.783429,5376
10:56:59.783429,0
10:56:59.783429,11
10:56:59.783429,3584
10:56:59.783429,0
10:56:59.783429,14
10:56:59.783429,1792
10:56:59.783429,0
10:56:59.783429,16
10:56:59.783429,5376
10:56:59.783429,0
10:56:59.783429,16
10:56:59.783429,4864
10:56:59.783429,0
10:56:59.783429,11
10:56:59.783429,2304
10:56:59.783429,0
10:56:59.783429,26
10:56:59.783429,5888
10:56:59.783429,0
10:56:59.783429,2
10:56:59.783429,1024
10:56:59.783429,0
10:56:59.783429,9
10:56:59.783429,512
10:56:59.783429,0
10:56:59.783429,14
10:56:59.783429,8960
10:56:59.783429,0
10:56:59.783429,40
10:57:00.382875,40
10:57:00.382875,10752
10:57:00.382875,0
10:57:00.382875,35
10:57:00.382875,5888
10:57:00.382875,0
10:57:00.382875,28
10:57:00.382875,8448
10:57:00.382875,0
10:57:00.382875,21
10:57:00.382875,4864
10:57:00.382875,0
10:57:00.382875,28
10:57:00.382875,8960
10:57:00.382875,0
10:57:00.382875,11
10:57:00.382875,-10752
10:57:00.382875,-1
10:57:00.382875,42
10:57:00.382875,-16384
10:57:00.382875,1
10:57:00.382875,1051
10:57:00.382875,-7424
10:57:00.382875,4
10:57:00.382875,760
10:57:00.382875,-10752
10:57:00.382875,0
10:57:00.382875,16
10:57:00.382875,-18688
10:57:00.382875,-1
10:57:00.382875,-114
10:57:00.382875,-23297
10:57:00.382875,-1
10:57:00.382875,-102
10:57:00.382875,-25345
10:57:00.382875,-1
10:57:00.382875,-73
10:57:00.382875,-18433
10:57:00.382875,-1
10:57:00.382875,-88
10:57:00.382875,-22273
10:57:00.382875,-1
10:57:00.382875,-76
10:57:00.382875,-14849
10:57:00.382875,-1
10:57:00.382875,-47
10:57:00.382875,-10497
10:57:00.382875,-1
10:57:00.382875,-40
10:57:00.382875,-9985
10:57:00.382875,-1
10:57:00.382875,-47
10:57:00.382875,-8193
10:57:00.382875,-1
10:57:00.382875,-9
10:57:00.382875,2047
10:57:00.382875,0
10:57:00.382875,9
10:57:00.382875,4864
10:57:00.382875,0
10:57:00.382875,54
10:57:00.382875,17664
10:57:00.382875,0
10:57:00.382875,76
10:57:00.382875,26112
10:57:00.382875,0
10:57:00.382875,102
10:57:00.382875,23552
10:57:00.382875,0
10:57:00.382875,83
10:57:00.382875,7680
10:57:00.382875,0
10:57:00.382875,-9
10:57:00.382875,3839
10:57:00.382875,0
10:57:00.382875,21
10:57:00.382875,-2816
10:57:00.382875,-1
10:57:00.382875,-19
10:57:00.382875,-2049
10:57:00.382875,-1
10:57:00.382875,-4
10:57:00.382875,-257
10:57:00.382875,-1
10:57:00.382875,0
10:57:00.382875,1792
10:57:00.382875,0
10:57:00.382875,9
10:57:00.382875,0
10:57:00.382875,0
10:57:00.382875,-4
10:57:00.382875,-257
10:57:00.382875,-1
10:57:00.382875,2
10:57:00.382875,1024
10:57:00.382875,0
10:57:00.382875,7
10:57:00.382875,1792
10:57:00.382875,0
10:57:00.382875,-4
10:57:00.382875,-3329
10:57:00.382875,-1
10:57:00.382875,2
10:57:00.382875,4096
10:57:00.382875,0
10:57:00.382875,2
10:57:00.382875,-512
10:57:00.382875,-1
10:57:00.382875,14
10:57:00.883966,21
10:57:00.883966,1792
10:57:00.883966,0
10:57:00.883966,9
10:57:00.883966,4864
10:57:00.883966,0
10:57:00.883966,16
10:57:00.883966,7168
10:57:00.883966,0
10:57:00.883966,23
10:57:00.883966,1024
10:57:00.883966,0
10:57:00.883966,0
10:57:00.883966,-1792
10:57:00.883966,-1
10:57:00.883966,4
10:57:00.883966,11520
10:57:00.883966,0
10:57:00.883966,52
10:57:00.883966,10240
10:57:00.883966,0
10:57:00.883966,45
10:57:00.883966,7680
10:57:00.883966,0
10:57:00.883966,7
10:57:00.883966,8448
10:57:00.883966,0
10:57:00.883966,64
10:57:00.883966,12800
10:57:00.883966,0
10:57:00.883966,38
10:57:00.883966,10752
10:57:00.883966,0
10:57:00.883966,40
10:57:00.883966,5888
10:57:00.883966,0
10:57:00.883966,-21
10:57:00.883966,-2049
10:57:00.883966,-1
10:57:00.883966,274
10:57:00.883966,20480
10:57:00.883966,3
10:57:00.883966,1208
10:57:00.883966,26112
10:57:00.883966,3
10:57:00.883966,267
10:57:00.883966,4096
10:57:00.883966,0
10:57:00.883966,-26
10:57:00.883966,-23297
10:57:00.883966,-1
10:57:00.883966,-109
10:57:00.883966,-22273
10:57:00.883966,-1
10:57:00.883966,-78
10:57:00.883966,-17409
10:57:00.883966,-1
10:57:00.883966,-73
10:57:00.883966,-20993
10:57:00.883966,-1
10:57:00.883966,-64
10:57:00.883966,-10497
10:57:00.883966,-1
10:57:00.883966,-38
10:57:00.883966,-8705
10:57:00.883966,-1
10:57:00.883966,-30
10:57:00.883966,-6401
10:57:00.883966,-1
10:57:00.883966,-2
10:57:00.883966,3839
10:57:00.883966,0
10:57:00.883966,0
10:57:00.883966,1792
10:57:00.883966,0
10:57:00.883966,26
10:57:00.883966,9728
10:57:00.883966,0
10:57:00.883966,73
10:57:00.883966,26624
10:57:00.883966,0
10:57:00.883966,102
10:57:00.883966,28672
10:57:00.883966,0
10:57:00.883966,140
10:57:00.883966,-28928
10:57:00.883966,0
10:57:00.883966,107
10:57:00.883966,16896
10:57:00.883966,0
10:57:00.883966,45
10:57:00.883966,6656
10:57:00.883966,0
10:57:00.883966,7
10:57:00.883966,-1792
10:57:00.883966,-1
10:57:00.883966,-23
10:57:00.883966,-5633
10:57:00.883966,-1
10:57:00.883966,-7
10:57:00.883966,2559
10:57:00.883966,0
10:57:00.883966,7
10:57:00.883966,-4864
10:57:00.883966,-1
10:57:00.883966,-28
10:57:00.883966,-769
10:57:00.883966,-1
10:57:00.883966,-7
10:57:01.484184,-9
10:57:01.484184,5119
10:57:01.484184,0
10:57:01.484184,19
10:57:01.484184,512
10:57:01.484184,0
10:57:01.484184,14
10:57:01.484184,5888
10:57:01.484184,0
10:57:01.484184,2
10:57:01.484184,1024
10:57:01.484184,0
10:57:01.484184,23
10:57:01.484184,7680
10:57:01.484184,0
10:57:01.484184,35
10:57:01.484184,9728
10:57:01.484184,0
10:57:01.484184,30
10:57:01.484184,7680
10:57:01.484184,0
10:57:01.484184,35
10:57:01.484184,7680
10:57:01.484184,0
10:57:01.484184,19
10:57:01.484184,6656
10:57:01.484184,0
10:57:01.484184,35
10:57:01.484184,2816
10:57:01.484184,0
10:57:01.484184,-4
10:57:01.484184,5631
10:57:01.484184,0
10:57:01.484184,50
10:57:01.484184,13312
10:57:01.484184,0
10:57:01.484184,47
10:57:01.484184,11520
10:57:01.484184,0
10:57:01.484184,28
10:57:01.484184,2816
10:57:01.484184,0
10:57:01.484184,0
10:57:01.484184,-2304
10:57:01.484184,-1
10:57:01.484184,7
10:57:01.484184,5376
10:57:01.484184,0
10:57:01.484184,0
10:57:01.484184,-512
10:57:01.484184,-1
10:57:01.484184,19
10:57:01.484184,-2816
10:57:01.484184,-1
10:57:01.484184,-66
10:57:01.484184,5631
10:57:01.484184,0
10:57:01.484184,338
10:57:01.484184,-16640
10:57:01.484184,2
10:57:01.484184,746
10:57:01.484184,-23040
10:57:01.484184,1
10:57:01.484184,121
10:57:01.484184,-4096
10:57:01.484184,-1
10:57:01.484184,-102
10:57:01.484184,-27649
10:57:01.484184,-1
10:57:01.484184,-90
10:57:01.484184,-27649
10:57:01.484184,-1
10:57:01.484184,-104
10:57:01.484184,-20993
10:57:01.484184,-1
10:57:01.484184,-83
10:57:01.484184,-20993
10:57:01.484184,-1
10:57:01.484184,-81
10:57:01.484184,-16641
10:57:01.484184,-1
10:57:01.484184,-52
10:57:01.484184,-13569
10:57:01.484184,-1
10:57:01.484184,-52
10:57:01.484184,-8193
10:57:01.484184,-1
10:57:01.484184,-14
10:57:01.484184,-5121
10:57:01.484184,-1
10:57:01.484184,-33
10:57:01.484184,-1537
10:57:01.484184,-1
10:57:01.484184,28
10:57:01.484184,10240
10:57:01.484184,0
10:57:01.484184,57
10:57:01.484184,20736
10:57:01.484184,0
10:57:01.484184,95
10:57:01.484184,25600
10:57:01.484184,0
10:57:01.484184,90
10:57:01.484184,16896
10:57:01.484184,0
10:57:01.484184,52
10:57:01.484184,9728
10:57:01.484184,0
10:57:01.484184,2
10:57:01.984159,-33
10:57:01.984159,-12545
10:57:01.984159,-1
10:57:01.984159,-59
10:57:01.984159,-14849
10:57:01.984159,-1
10:57:01.984159,-57
10:57:01.984159,-13569
10:57:01.984159,-1
10:57:01.984159,-45
10:57:01.984159,-11777
10:57:01.984159,-1
10:57:01.984159,-59
10:57:01.984159,-11777
10:57:01.984159,-1
10:57:01.984159,-40
10:57:01.984159,-12545
10:57:01.984159,-1
10:57:01.984159,-50
10:57:01.984159,-10497
10:57:01.984159,-1
10:57:01.984159,-30
10:57:01.984159,-4609
10:57:01.984159,-1
10:57:01.984159,-21
10:57:01.984159,-7425
10:57:01.984159,-1
10:57:01.984159,-33
10:57:01.984159,-6913
10:57:01.984159,-1
10:57:01.984159,-26
10:57:01.984159,-6401
10:57:01.984159,-1
10:57:01.984159,-26
10:57:01.984159,-6913
10:57:01.984159,-1
10:57:01.984159,-33
10:57:01.984159,-8705
10:57:01.984159,-1
10:57:01.984159,-33
10:57:01.984159,-8705
10:57:01.984159,-1
10:57:01.984159,-42
10:57:01.984159,-9473
10:57:01.984159,-1
10:57:01.984159,-16
10:57:01.984159,-257
10:57:01.984159,-1
10:57:01.984159,-2
10:57:01.984159,255
10:57:01.984159,0
10:57:01.984159,-21
10:57:01.984159,-7425
10:57:01.984159,-1
10:57:01.984159,-16
10:57:01.984159,-7425
10:57:01.984159,-1
10:57:01.984159,-38
10:57:01.984159,-3329
10:57:01.984159,-1
10:57:01.984159,-19
10:57:01.984159,-9473
10:57:01.984159,-1
10:57:01.984159,-45
10:57:01.984159,-18433
10:57:01.984159,-1
10:57:01.984159,-42
10:57:01.984159,-14849
10:57:01.984159,0
10:57:01.984159,619
10:57:01.984159,19456
10:57:01.984159,3
10:57:01.984159,588
10:57:01.984159,-13824
10:57:01.984159,0
10:57:01.984159,-2
10:57:01.984159,-27137
10:57:01.984159,-1
10:57:01.984159,-123
10:57:01.984159,-24065
10:57:01.984159,-1
10:57:01.984159,-114
10:57:01.984159,32255
10:57:01.984159,-1
10:57:01.984159,-114
10:57:01.984159,-24577
10:57:01.984159,-1
10:57:01.984159,-102
10:57:01.984159,-23297
10:57:01.984159,-1
10:57:01.984159,-73
10:57:01.984159,-20993
10:57:01.984159,-1
10:57:01.984159,-81
10:57:01.984159,-13569
10:57:01.984159,-1
10:57:01.984159,-50
10:57:01.984159,-14849
10:57:01.984159,-1
10:57:01.984159,-52
10:57:01.984159,-9985
10:57:01.984159,-1
10:57:01.984159,-21
10:57:01.984159,-1537
10:57:01.984159,-1
10:57:01.984159,11
10:57:01.984159,10752
10:57:01.984159,0
10:57:01.984159,59
10:57:02.584260,59
10:57:02.584260,16896
10:57:02.584260,0
10:57:02.584260,71
10:57:02.584260,16384
10:57:02.584260,0
10:57:02.584260,40
10:57:02.584260,1792
10:57:02.584260,0
10:57:02.584260,-7
10:57:02.584260,-2049
10:57:02.584260,-1
10:57:02.584260,-33
10:57:02.584260,-16129
10:57:02.584260,-1
10:57:02.584260,-71
10:57:02.584260,-16129
10:57:02.584260,-1
10:57:02.584260,-59
10:57:02.584260,-13569
10:57:02.584260,-1
10:57:02.584260,-47
10:57:02.584260,-11265
10:57:02.584260,-1
10:57:02.584260,-50
10:57:02.584260,-15361
10:57:02.584260,-1
10:57:02.584260,-66
10:57:02.584260,-14337
10:57:02.584260,-1
10:57:02.584260,-45
10:57:02.584260,-11265
10:57:02.584260,-1
10:57:02.584260,-42
10:57:02.584260,-9473
10:57:02.584260,-1
10:57:02.584260,-50
10:57:02.584260,-11777
10:57:02.584260,-1
10:57:02.584260,-35
10:57:02.584260,-9985
10:57:02.584260,-1
10:57:02.584260,-42
10:57:02.584260,-8705
10:57:02.584260,-1
10:57:02.584260,-42
10:57:02.584260,-11777
10:57:02.584260,-1
10:57:02.584260,-40
10:57:02.584260,-8705
10:57:02.584260,-1
10:57:02.584260,-7
10:57:02.584260,3839
10:57:02.584260,0
10:57:02.584260,2
10:57:02.584260,-2816
10:57:02.584260,-1
10:57:02.584260,-16
10:57:02.584260,-6401
10:57:02.584260,-1
10:57:02.584260,-30
10:57:02.584260,-5633
10:57:02.584260,-1
10:57:02.584260,-16
10:57:02.584260,-3329
10:57:02.584260,-1
10:57:02.584260,-16
10:57:02.584260,-4609
10:57:02.584260,-1
10:57:02.584260,-30
10:57:02.584260,-16641
10:57:02.584260,-1
10:57:02.584260,-59
10:57:02.584260,-28161
10:57:02.584260,0
10:57:02.584260,574
10:57:02.584260,23040
10:57:02.584260,3
10:57:02.584260,636
10:57:02.584260,-2816
10:57:02.584260,0
10:57:02.584260,47
10:57:02.584260,-21248
10:57:02.584260,-1
10:57:02.584260,-143
10:57:02.584260,-24577
10:57:02.584260,-1
10:57:02.584260,-90
10:57:02.584260,-28929
10:57:02.584260,-1
10:57:02.584260,-97
10:57:02.584260,-20993
10:57:02.584260,-1
10:57:02.584260,-95
10:57:02.584260,-24065
10:57:02.584260,-1
10:57:02.584260,-73
10:57:02.584260,-14849
10:57:02.584260,-1
10:57:02.584260,-69
10:57:02.584260,-17921
10:57:02.584260,-1
10:57:02.584260,-47
10:57:02.584260,-7425
10:57:02.584260,-1
10:57:02.584260,-40
10:57:02.584260,-8193
10:57:02.584260,-1
10:57:02.584260,-7
10:57:03.184175,11
10:57:03.184175,5376
10:57:03.184175,0
10:57:03.184175,30
10:57:03.184175,11520
10:57:03.184175,0
10:57:03.184175,69
10:57:03.184175,22528
10:57:03.184175,0
10:57:03.184175,81
10:57:03.184175,16896
10:57:03.184175,0
10:57:03.184175,54
10:57:03.184175,6656
10:57:03.184175,0
10:57:03.184175,4
10:57:03.184175,512
10:57:03.184175,0
10:57:03.184175,-9
10:57:03.184175,-5633
10:57:03.184175,-1
10:57:03.184175,-26
10:57:03.184175,-7425
10:57:03.184175,-1
10:57:03.184175,-40
10:57:03.184175,-6401
10:57:03.184175,-1
10:57:03.184175,-9
10:57:03.184175,-5633
10:57:03.184175,-1
10:57:03.184175,-42
10:57:03.184175,-10497
10:57:03.184175,-1
10:57:03.184175,-45
10:57:03.184175,-8705
10:57:03.184175,-1
10:57:03.184175,-19
10:57:03.184175,-6913
10:57:03.184175,-1
10:57:03.184175,-40
10:57:03.184175,-3841
10:57:03.184175,-1
10:57:03.184175,-9
10:57:03.184175,-5633
10:57:03.184175,-1
10:57:03.184175,-26
10:57:03.184175,-5633
10:57:03.184175,-1
10:57:03.184175,-30
10:57:03.184175,-8705
10:57:03.184175,-1
10:57:03.184175,-35
10:57:03.184175,-6401
10:57:03.184175,-1
10:57:03.184175,-23
10:57:03.184175,-8705
10:57:03.184175,-1
10:57:03.184175,-30
10:57:03.184175,-257
10:57:03.184175,-1
10:57:03.184175,4
10:57:03.184175,2304
10:57:03.184175,0
10:57:03.184175,19
10:57:03.184175,-512
10:57:03.184175,-1
10:57:03.184175,-23
10:57:03.184175,-769
10:57:03.184175,-1
10:57:03.184175,4
10:57:03.184175,-3584
10:57:03.184175,-1
10:57:03.184175,-16
10:57:03.184175,-2049
10:57:03.184175,-1
10:57:03.184175,-16
10:57:03.184175,-7425
10:57:03.184175,-1
10:57:03.184175,-66
10:57:03.184175,-9985
10:57:03.184175,-1
10:57:03.184175,250
10:57:03.184175,1536
10:57:03.184175,3
10:57:03.184175,1044
10:57:03.184175,-18432
10:57:03.184175,2
10:57:03.184175,195
10:57:03.184175,-1024
10:57:03.184175,-1
10:57:03.184175,-90
10:57:03.184175,27391
10:57:03.184175,-1
10:57:03.184175,-133
10:57:03.184175,-31233
10:57:03.184175,-1
10:57:03.184175,-133
10:57:03.184175,31743
10:57:03.184175,-1
10:57:03.184175,-121
10:57:03.184175,-26369
10:57:03.184175,-1
10:57:03.184175,-95
10:57:03.184175,-22785
10:57:03.184175,-1
10:57:03.184175,-81
10:57:03.184175,-20481
10:57:03.184175,-1
10:57:03.184175,-83
10:57:03.683630,-76
10:57:03.683630,-17409
10:57:03.683630,-1
10:57:03.683630,-66
10:57:03.683630,-13569
10:57:03.683630,-1
10:57:03.683630,-35
10:57:03.683630,-3329
10:57:03.683630,-1
10:57:03.683630,-7
10:57:03.683630,767
10:57:03.683630,0
10:57:03.683630,19
10:57:03.683630,10752
10:57:03.683630,0
10:57:03.683630,69
10:57:03.683630,20736
10:57:03.683630,0
10:57:03.683630,54
10:57:03.683630,1792
10:57:03.683630,0
10:57:03.683630,-2
10:57:03.683630,1279
10:57:03.683630,0
10:57:03.683630,-2
10:57:03.683630,-4609
10:57:03.683630,-1
10:57:03.683630,-26
10:57:03.683630,-3329
10:57:03.683630,-1
10:57:03.683630,-14
10:57:03.683630,-6401
10:57:03.683630,-1
10:57:03.683630,-21
10:57:03.683630,-3841
10:57:03.683630,-1
10:57:03.683630,-16
10:57:03.683630,-769
10:57:03.683630,-1
10:57:03.683630,-7
10:57:03.683630,-7425
10:57:03.683630,-1
10:57:03.683630,-30
10:57:03.683630,-2561
10:57:03.683630,-1
10:57:03.683630,-19
10:57:03.683630,-5633
10:57:03.683630,-1
10:57:03.683630,-7
10:57:03.683630,-257
10:57:03.683630,-1
10:57:03.683630,-11
10:57:03.683630,-3841
10:57:03.683630,-1
10:57:03.683630,-11
10:57:03.683630,-2049
10:57:03.683630,-1
10:57:03.683630,-11
10:57:03.683630,-6401
10:57:03.683630,-1
10:57:03.683630,-33
10:57:03.683630,-5121
10:57:03.683630,-1
10:57:03.683630,-9
10:57:03.683630,1279
10:57:03.683630,0
10:57:03.683630,21
10:57:03.683630,6656
10:57:03.683630,0
10:57:03.683630,16
10:57:03.683630,1792
10:57:03.683630,0
10:57:03.683630,-7
10:57:03.683630,-2561
10:57:03.683630,-1
10:57:03.683630,-2
10:57:03.683630,767
10:57:03.683630,0
10:57:03.683630,-14
10:57:03.683630,-4609
10:57:03.683630,-1
10:57:03.683630,4
10:57:03.683630,-512
10:57:03.683630,-1
10:57:03.683630,-61
10:57:03.683630,-16641
10:57:03.683630,-1
10:57:03.683630,119
10:57:03.683630,-1280
10:57:03.683630,1
10:57:03.683630,827
10:57:03.683630,-15360
10:57:03.683630,2
10:57:03.683630,321
10:57:03.683630,17664
10:57:03.683630,0
10:57:03.683630,-54
10:57:03.683630,-28417
10:57:03.683630,-1
10:57:03.683630,-97
10:57:03.683630,-23297
10:57:03.683630,-1
10:57:03.683630,-104
10:57:03.683630,-22273
10:57:03.683630,-1
10:57:03.683630,-73
10:57:03.683630,-19201
10:57:03.683630,-1
10:57:03.683630,-66
10:57:04.233305,-61
10:57:04.233305,-17409
10:57:04.233305,-1
10:57:04.233305,-59
10:57:04.233305,-9473
10:57:04.233305,-1
10:57:04.233305,-30
10:57:04.233305,-11265
10:57:04.233305,-1
10:57:04.233305,-38
10:57:04.233305,-2561
10:57:04.233305,-1
10:57:04.233305,9
10:57:04.233305,5376
10:57:04.233305,0
10:57:04.233305,35
10:57:04.233305,13312
10:57:04.233305,0
10:57:04.233305,69
10:57:04.233305,21248
10:57:04.233305,0
10:57:04.233305,95
10:57:04.233305,23040
10:57:04.233305,0
10:57:04.233305,83
10:57:04.233305,21248
10:57:04.233305,0
10:57:04.233305,66
10:57:04.233305,5376
10:57:04.233305,0
10:57:04.233305,-16
10:57:04.233305,-4609
10:57:04.233305,-1
10:57:04.233305,-21
10:57:04.233305,-7425
10:57:04.233305,-1
10:57:04.233305,-23
10:57:04.233305,-3841
10:57:04.233305,-1
10:57:04.233305,-30
10:57:04.233305,-8193
10:57:04.233305,-1
10:57:04.233305,-14
10:57:04.233305,-3329
10:57:04.233305,-1
10:57:04.233305,-26
10:57:04.233305,-5633
10:57:04.233305,-1
10:57:04.233305,-21
10:57:04.233305,-4609
10:57:04.233305,-1
10:57:04.233305,-19
10:57:04.233305,-3841
10:57:04.233305,-1
10:57:04.233305,-9
10:57:04.233305,-1537
10:57:04.233305,-1
10:57:04.233305,-7
10:57:04.233305,-2049
10:57:04.233305,-1
10:57:04.233305,-4
10:57:04.233305,255
10:57:04.233305,0
10:57:04.233305,-4
10:57:04.233305,-3841
10:57:04.233305,-1
10:57:04.233305,-28
10:57:04.233305,-8193
10:57:04.233305,-1
10:57:04.233305,-21
10:57:04.233305,2559
10:57:04.233305,0
10:57:04.233305,23
10:57:04.233305,3584
10:57:04.233305,0
10:57:04.233305,2
10:57:04.233305,-1792
10:57:04.233305,-1
10:57:04.233305,-11
10:57:04.233305,-769
10:57:04.233305,-1
10:57:04.233305,4
10:57:04.233305,0
10:57:04.233305,0
10:57:04.233305,-2
10:57:04.233305,-257
10:57:04.233305,-1
10:57:04.233305,-9
10:57:04.233305,-4609
10:57:04.233305,-1
10:57:04.233305,-50
10:57:04.233305,-6913
10:57:04.233305,-1
10:57:04.233305,193
10:57:04.233305,13568
10:57:04.233305,2
10:57:04.233305,758
10:57:04.233305,12800
10:57:04.233305,2
10:57:04.233305,255
10:57:04.233305,18688
10:57:04.233305,0
10:57:04.233305,-59
10:57:04.233305,-27649
10:57:04.233305,-1
10:57:04.233305,-73
10:57:04.233305,-19201
10:57:04.233305,-1
10:57:04.233305,-92
10:57:04.783901,-73
10:57:04.783901,-14337
10:57:04.783901,-1
10:57:04.783901,-73
10:57:04.783901,-19201
10:57:04.783901,-1
10:57:04.783901,-50
10:57:04.783901,-8193
10:57:04.783901,-1
10:57:04.783901,-33
10:57:04.783901,-6401
10:57:04.783901,-1
10:57:04.783901,-14
10:57:04.783901,-257
10:57:04.783901,-1
10:57:04.783901,11
10:57:04.783901,2816
10:57:04.783901,0
10:57:04.783901,21
10:57:04.783901,11520
10:57:04.783901,0
10:57:04.783901,50
10:57:04.783901,15616
10:57:04.783901,0
10:57:04.783901,95
10:57:04.783901,26112
10:57:04.783901,0
10:57:04.783901,97
10:57:04.783901,26112
10:57:04.783901,0
10:57:04.783901,97
10:57:04.783901,19456
10:57:04.783901,0
10:57:04.783901,54
10:57:04.783901,7168
10:57:04.783901,0
10:57:04.783901,7
10:57:04.783901,-1792
10:57:04.783901,-1
10:57:04.783901,-21
10:57:04.783901,-5633
10:57:04.783901,-1
10:57:04.783901,-7
10:57:04.783901,-769
10:57:04.783901,-1
10:57:04.783901,-21
10:57:04.783901,-5633
10:57:04.783901,-1
10:57:04.783901,-14
10:57:04.783901,-2049
10:57:04.783901,-1
10:57:04.783901,-11
10:57:04.783901,-3329
10:57:04.783901,-1
10:57:04.783901,-16
10:57:04.783901,-3329
10:57:04.783901,-1
10:57:04.783901,-11
10:57:04.783901,-2049
10:57:04.783901,-1
10:57:04.783901,-4
10:57:04.783901,255
10:57:04.783901,0
10:57:04.783901,0
10:57:04.783901,0
10:57:04.783901,0
10:57:04.783901,2
10:57:04.783901,-1024
10:57:04.783901,-1
10:57:04.783901,-11
10:57:04.783901,-2049
10:57:04.783901,-1
10:57:04.783901,-4
10:57:04.783901,-1537
10:57:04.783901,-1
10:57:04.783901,-16
10:57:04.783901,-4609
10:57:04.783901,-1
10:57:04.783901,4
10:57:04.783901,7680
10:57:04.783901,0
10:57:04.783901,30
10:57:04.783901,4864
10:57:04.783901,0
10:57:04.783901,11
10:57:04.783901,0
10:57:04.783901,0
10:57:04.783901,-9
10:57:04.783901,-2561
10:57:04.783901,-1
10:57:04.783901,-4
10:57:04.783901,255
10:57:04.783901,0
10:57:04.783901,0
10:57:04.783901,-512
10:57:04.783901,-1
10:57:04.783901,-9
10:57:04.783901,-11777
10:57:04.783901,-1
10:57:04.783901,-38
10:57:04.783901,-19713
10:57:04.783901,0
10:57:04.783901,557
10:57:04.783901,-10496
10:57:04.783901,2
10:57:04.783901,510
10:57:04.783901,-4096
10:57:04.783901,0
10:57:04.783901,81
10:57:05.333735,-76
10:57:05.333735,-31233
10:57:05.333735,-1
10:57:05.333735,-76
10:57:05.333735,-20993
10:57:05.333735,-1
10:57:05.333735,-102
10:57:05.333735,-16129
10:57:05.333735,-1
10:57:05.333735,-42
10:57:05.333735,-15361
10:57:05.333735,-1
10:57:05.333735,-54
10:57:05.333735,-5633
10:57:05.333735,-1
10:57:05.333735,-23
10:57:05.333735,-8705
10:57:05.333735,-1
10:57:05.333735,-23
10:57:05.333735,-2561
10:57:05.333735,-1
10:57:05.333735,-9
10:57:05.333735,255
10:57:05.333735,0
10:57:05.333735,14
10:57:05.333735,5888
10:57:05.333735,0
10:57:05.333735,38
10:57:05.333735,14592
10:57:05.333735,0
10:57:05.333735,66
10:57:05.333735,19456
10:57:05.333735,0
10:57:05.333735,92
10:57:05.333735,24832
10:57:05.333735,0
10:57:05.333735,92
10:57:05.333735,22528
10:57:05.333735,0
10:57:05.333735,71
10:57:05.333735,9728
10:57:05.333735,0
10:57:05.333735,16
10:57:05.333735,1024
10:57:05.333735,0
10:57:05.333735,-4
10:57:05.333735,-3329
10:57:05.333735,-1
10:57:05.333735,-21
10:57:05.333735,-5121
10:57:05.333735,-1
10:57:05.333735,-26
10:57:05.333735,-8193
10:57:05.333735,-1
10:57:05.333735,-23
10:57:05.333735,-4609
10:57:05.333735,-1
10:57:05.333735,-28
10:57:05.333735,-6401
10:57:05.333735,-1
10:57:05.333735,-16
10:57:05.333735,-2049
10:57:05.333735,-1
10:57:05.333735,-7
10:57:05.333735,-2049
10:57:05.333735,-1
10:57:05.333735,-14
10:57:05.333735,-769
10:57:05.333735,-1
10:57:05.333735,2
10:57:05.333735,-512
10:57:05.333735,-1
10:57:05.333735,2
10:57:05.333735,0
10:57:05.333735,0
10:57:05.333735,-9
10:57:05.333735,-257
10:57:05.333735,-1
10:57:05.333735,0
10:57:05.333735,-2304
10:57:05.333735,-1
10:57:05.333735,-11
10:57:05.333735,-1537
10:57:05.333735,-1
10:57:05.333735,-19
10:57:05.333735,-3841
10:57:05.333735,-1
10:57:05.333735,16
10:57:05.333735,8448
10:57:05.333735,0
10:57:05.333735,16
10:57:05.333735,1024
10:57:05.333735,0
10:57:05.333735,0
10:57:05.333735,-1024
10:57:05.333735,-1
10:57:05.333735,-4
10:57:05.333735,-2049
10:57:05.333735,-1
10:57:05.333735,-11
10:57:05.333735,767
10:57:05.333735,0
10:57:05.333735,0
10:57:05.333735,-6656
10:57:05.333735,-1
10:57:05.333735,-45
10:57:05.333735,-10497
10:57:05.333735,-1
10:57:05.333735,78
10:57:05.934344,407
10:57:05.934344,-22784
10:57:05.934344,2
10:57:05.934344,577
10:57:05.934344,17408
10:57:05.934344,1
10:57:05.934344,181
10:57:05.934344,3584
10:57:05.934344,0
10:57:05.934344,-102
10:57:05.934344,-17409
10:57:05.934344,-1
10:57:05.934344,-52
10:57:05.934344,-20481
10:57:05.934344,-1
10:57:05.934344,-66
10:57:05.934344,-12545
10:57:05.934344,-1
10:57:05.934344,-54
10:57:05.934344,-12545
10:57:05.934344,-1
10:57:05.934344,-40
10:57:05.934344,-10497
10:57:05.934344,-1
10:57:05.934344,-38
10:57:05.934344,-6913
10:57:05.934344,-1
10:57:05.934344,-19
10:57:05.934344,-4609
10:57:05.934344,-1
10:57:05.934344,-19
10:57:05.934344,-2049
10:57:05.934344,-1
10:57:05.934344,2
10:57:05.934344,4096
10:57:05.934344,0
10:57:05.934344,35
10:57:05.934344,12032
10:57:05.934344,0
10:57:05.934344,59
10:57:05.934344,18688
10:57:05.934344,0
10:57:05.934344,83
10:57:05.934344,22528
10:57:05.934344,0
10:57:05.934344,81
10:57:05.934344,15616
10:57:05.934344,0
10:57:05.934344,35
10:57:05.934344,3584
10:57:05.934344,0
10:57:05.934344,-9
10:57:05.934344,-5633
10:57:05.934344,-1
10:57:05.934344,-28
10:57:05.934344,-8193
10:57:05.934344,-1
10:57:05.934344,-35
10:57:05.934344,-7425
10:57:05.934344,-1
10:57:05.934344,-30
10:57:05.934344,-7425
10:57:05.934344,-1
10:57:05.934344,-26
10:57:05.934344,-6401
10:57:05.934344,-1
10:57:05.934344,-23
10:57:05.934344,-5121
10:57:05.934344,-1
10:57:05.934344,-23
10:57:05.934344,-3841
10:57:05.934344,-1
10:57:05.934344,-7
10:57:05.934344,-2561
10:57:05.934344,-1
10:57:05.934344,-9
10:57:05.934344,-257
10:57:05.934344,-1
10:57:05.934344,-7
10:57:05.934344,-2049
10:57:05.934344,-1
10:57:05.934344,-4
10:57:05.934344,-1537
10:57:05.934344,-1
10:57:05.934344,-9
10:57:05.934344,-2561
10:57:05.934344,-1
10:57:05.934344,-21
10:57:05.934344,-6401
10:57:05.934344,-1
10:57:05.934344,-11
10:57:05.934344,3839
10:57:05.934344,0
10:57:05.934344,21
10:57:05.934344,4864
10:57:05.934344,0
10:57:05.934344,19
10:57:05.934344,1024
10:57:05.934344,0
10:57:05.934344,-4
10:57:05.934344,255
10:57:05.934344,0
10:57:05.934344,4
10:57:05.934344,1792
10:57:05.934344,0
10:57:05.934344,9
10:57:05.934344,2304
10:57:05.934344,0
10:57:05.934344,7
10:57:06.483568,-11
10:57:06.483568,-12545
10:57:06.483568,-1
10:57:06.483568,-2
10:57:06.483568,3583
10:57:06.483568,1
10:57:06.483568,684
10:57:06.483568,20480
10:57:06.483568,3
10:57:06.483568,557
10:57:06.483568,-15104
10:57:06.483568,0
10:57:06.483568,35
10:57:06.483568,-16896
10:57:06.483568,-1
10:57:06.483568,-95
10:57:06.483568,-17409
10:57:06.483568,-1
10:57:06.483568,-78
10:57:06.483568,-21505
10:57:06.483568,-1
10:57:06.483568,-66
10:57:06.483568,-15361
10:57:06.483568,-1
10:57:06.483568,-64
10:57:06.483568,-13569
10:57:06.483568,-1
10:57:06.483568,-47
10:57:06.483568,-11777
10:57:06.483568,-1
10:57:06.483568,-47
10:57:06.483568,-10497
10:57:06.483568,-1
10:57:06.483568,-35
10:57:06.483568,-7425
10:57:06.483568,-1
10:57:06.483568,-28
10:57:06.483568,-4609
10:57:06.483568,-1
10:57:06.483568,-9
10:57:06.483568,255
10:57:06.483568,0
10:57:06.483568,14
10:57:06.483568,8448
10:57:06.483568,0
10:57:06.483568,47
10:57:06.483568,14592
10:57:06.483568,0
10:57:06.483568,61
10:57:06.483568,17664
10:57:06.483568,0
10:57:06.483568,69
10:57:06.483568,12032
10:57:06.483568,0
10:57:06.483568,19
10:57:06.483568,0
10:57:06.483568,0
10:57:06.483568,-11
10:57:06.483568,-4609
10:57:06.483568,-1
10:57:06.483568,-23
10:57:06.483568,-6913
10:57:06.483568,-1
10:57:06.483568,-26
10:57:06.483568,-5121
10:57:06.483568,-1
10:57:06.483568,-26
10:57:06.483568,-7425
10:57:06.483568,-1
10:57:06.483568,-30
10:57:06.483568,-3841
10:57:06.483568,-1
10:57:06.483568,-16
10:57:06.483568,-8193
10:57:06.483568,-1
10:57:06.483568,-33
10:57:06.483568,-4609
10:57:06.483568,-1
10:57:06.483568,-14
10:57:06.483568,-3329
10:57:06.483568,-1
10:57:06.483568,-11
10:57:06.483568,-2049
10:57:06.483568,-1
10:57:06.483568,-2
10:57:06.483568,255
10:57:06.483568,0
10:57:06.483568,0
10:57:06.483568,-512
10:57:06.483568,-1
10:57:06.483568,2
10:57:06.483568,512
10:57:06.483568,0
10:57:06.483568,-4
10:57:06.483568,-1537
10:57:06.483568,-1
10:57:06.483568,-9
10:57:06.483568,-2561
10:57:06.483568,-1
10:57:06.483568,0
10:57:06.483568,6656
10:57:06.483568,0
10:57:06.483568,33
10:57:06.483568,5888
10:57:06.483568,0
10:57:06.483568,14
10:57:06.483568,1024
10:57:06.483568,0
10:57:06.483568,0
10:57:07.033655,9
10:57:07.033655,4096
10:57:07.033655,0
10:57:07.033655,4
10:57:07.033655,-1792
10:57:07.033655,-1
10:57:07.033655,2
10:57:07.033655,512
10:57:07.033655,0
10:57:07.033655,-30
10:57:07.033655,-9985
10:57:07.033655,-1
10:57:07.033655,102
10:57:07.033655,-16384
10:57:07.033655,1
10:57:07.033655,777
10:57:07.033655,-11264
10:57:07.033655,2
10:57:07.033655,386
10:57:07.033655,-30976
10:57:07.033655,0
10:57:07.033655,-14
10:57:07.033655,-25857
10:57:07.033655,-1
10:57:07.033655,-81
10:57:07.033655,-17409
10:57:07.033655,-1
10:57:07.033655,-90
10:57:07.033655,-19713
10:57:07.033655,-1
10:57:07.033655,-57
10:57:07.033655,-13569
10:57:07.033655,-1
10:57:07.033655,-57
10:57:07.033655,-13569
10:57:07.033655,-1
10:57:07.033655,-52
10:57:07.033655,-9985
10:57:07.033655,-1
10:57:07.033655,-30
10:57:07.033655,-8193
10:57:07.033655,-1
10:57:07.033655,-33
10:57:07.033655,-4609
10:57:07.033655,-1
10:57:07.033655,-14
10:57:07.033655,-3841
10:57:07.033655,-1
10:57:07.033655,-4
10:57:07.033655,2047
10:57:07.033655,0
10:57:07.033655,14
10:57:07.033655,9728
10:57:07.033655,0
10:57:07.033655,52
10:57:07.033655,13312
10:57:07.033655,0
10:57:07.033655,66
10:57:07.033655,19968
10:57:07.033655,0
10:57:07.033655,61
10:57:07.033655,7680
10:57:07.033655,0
10:57:07.033655,11
10:57:07.033655,0
10:57:07.033655,0
10:57:07.033655,-21
10:57:07.033655,-7425
10:57:07.033655,-1
10:57:07.033655,-28
10:57:07.033655,-8193
10:57:07.033655,-1
10:57:07.033655,-35
10:57:07.033655,-8193
10:57:07.033655,-1
10:57:07.033655,-33
10:57:07.033655,-7425
10:57:07.033655,-1
10:57:07.033655,-19
10:57:07.033655,-3841
10:57:07.033655,-1
10:57:07.033655,-21
10:57:07.033655,-3329
10:57:07.033655,-1
10:57:07.033655,-11
10:57:07.033655,-4609
10:57:07.033655,-1
10:57:07.033655,-11
10:57:07.033655,-257
10:57:07.033655,-1
10:57:07.033655,-9
10:57:07.033655,-3329
10:57:07.033655,-1
10:57:07.033655,-2
10:57:07.033655,-257
10:57:07.033655,-1
10:57:07.033655,-7
10:57:07.033655,1279
10:57:07.033655,0
10:57:07.033655,11
10:57:07.033655,512
10:57:07.033655,0
10:57:07.033655,-4
10:57:07.033655,-769
10:57:07.033655,-1
10:57:07.033655,-4
10:57:07.033655,-2049
10:57:07.033655,-1
10:57:07.033655,7
10:57:07.729788,40
10:57:07.729788,10240
10:57:07.729788,0
10:57:07.729788,19
10:57:07.729788,2816
10:57:07.729788,0
10:57:07.729788,7
10:57:07.729788,2304
10:57:07.729788,0
10:57:07.729788,28
10:57:07.729788,12032
10:57:07.729788,0
10:57:07.729788,40
10:57:07.729788,5888
10:57:07.729788,0
10:57:07.729788,23
10:57:07.729788,4096
10:57:07.729788,0
10:57:07.729788,-30
10:57:07.729788,2047
10:57:07.729788,0
10:57:07.729788,281
10:57:07.729788,-31232
10:57:07.729788,2
10:57:07.729788,743
10:57:07.729788,-4352
10:57:07.729788,1
10:57:07.729788,226
10:57:07.729788,18176
10:57:07.729788,0
10:57:07.729788,-50
10:57:07.729788,-19201
10:57:07.729788,-1
10:57:07.729788,-42
10:57:07.729788,-14849
10:57:07.729788,-1
10:57:07.729788,-76
10:57:07.729788,-14849
10:57:07.729788,-1
10:57:07.729788,-45
10:57:07.729788,-12545
10:57:07.729788,-1
10:57:07.729788,-52
10:57:07.729788,-10497
10:57:07.729788,-1
10:57:07.729788,-30
10:57:07.729788,-6401
10:57:07.729788,-1
10:57:07.729788,-28
10:57:07.729788,-6401
10:57:07.729788,-1
10:57:07.729788,-19
10:57:07.729788,-2561
10:57:07.729788,-1
10:57:07.729788,-2
10:57:07.729788,2047
10:57:07.729788,0
10:57:07.729788,23
10:57:07.729788,9728
10:57:07.729788,0
10:57:07.729788,45
10:57:07.729788,14592
10:57:07.729788,0
10:57:07.729788,73
10:57:07.729788,21248
10:57:07.729788,0
10:57:07.729788,85
10:57:07.729788,19968
10:57:07.729788,0
10:57:07.729788,54
10:57:07.729788,8448
10:57:07.729788,0
10:57:07.729788,16
10:57:07.729788,-512
10:57:07.729788,-1
10:57:07.729788,-11
10:57:07.729788,-2561
10:57:07.729788,-1
10:57:07.729788,-21
10:57:07.729788,-6913
10:57:07.729788,-1
10:57:07.729788,-23
10:57:07.729788,-4609
10:57:07.729788,-1
10:57:07.729788,-23
10:57:07.729788,-5633
10:57:07.729788,-1
10:57:07.729788,-19
10:57:07.729788,-4609
10:57:07.729788,-1
10:57:07.729788,-26
10:57:07.729788,-6913
10:57:07.729788,-1
10:57:07.729788,-14
10:57:07.729788,-1537
10:57:07.729788,-1
10:57:07.729788,-7
10:57:07.729788,767
10:57:07.729788,0
10:57:07.729788,14
10:57:07.729788,512
10:57:07.729788,0
10:57:07.729788,-4
10:57:07.729788,767
10:57:07.729788,0
10:57:07.729788,-2
10:57:07.729788,-1537
10:57:07.729788,-1
10:57:07.729788,-2
10:57:08.183650,-7
10:57:08.183650,-3841
10:57:08.183650,-1
10:57:08.183650,-14
10:57:08.183650,255
10:57:08.183650,0
10:57:08.183650,21
10:57:08.183650,8448
10:57:08.183650,0
10:57:08.183650,28
10:57:08.183650,4864
10:57:08.183650,0
10:57:08.183650,11
10:57:08.183650,-512
10:57:08.183650,-1
10:57:08.183650,-4
10:57:08.183650,3071
10:57:08.183650,0
10:57:08.183650,16
10:57:08.183650,1024
10:57:08.183650,0
10:57:08.183650,2
10:57:08.183650,512
10:57:08.183650,0
10:57:08.183650,-28
10:57:08.183650,-10497
10:57:08.183650,-1
10:57:08.183650,95
10:57:08.183650,-20224
10:57:08.183650,1
10:57:08.183650,743
10:57:08.183650,-22272
10:57:08.183650,2
10:57:08.183650,355
10:57:08.183650,28672
10:57:08.183650,0
10:57:08.183650,-19
10:57:08.183650,-22785
10:57:08.183650,-1
10:57:08.183650,-92
10:57:08.183650,-20993
10:57:08.183650,-1
10:57:08.183650,-83
10:57:08.183650,-19713
10:57:08.183650,-1
10:57:08.183650,-76
10:57:08.183650,-19201
10:57:08.183650,-1
10:57:08.183650,-71
10:57:08.183650,-14849
10:57:08.183650,-1
10:57:08.183650,-52
10:57:08.183650,-12545
10:57:08.183650,-1
10:57:08.183650,-47
10:57:08.183650,-11265
10:57:08.183650,-1
10:57:08.183650,-40
10:57:08.183650,-7425
10:57:08.183650,-1
10:57:08.183650,-14
10:57:08.183650,-769
10:57:08.183650,-1
10:57:08.183650,0
10:57:08.183650,3584
10:57:08.183650,0
10:57:08.183650,28
10:57:08.183650,7680
10:57:08.183650,0
10:57:08.183650,42
10:57:08.183650,15104
10:57:08.183650,0
10:57:08.183650,57
10:57:08.183650,14592
10:57:08.183650,0
10:57:08.183650,59
10:57:08.183650,7680
10:57:08.183650,0
10:57:08.183650,-7
10:57:08.183650,-5633
10:57:08.183650,-1
10:57:08.183650,-28
10:57:08.183650,-8705
10:57:08.183650,-1
10:57:08.183650,-40
10:57:08.183650,-9473
10:57:08.183650,-1
10:57:08.183650,-30
10:57:08.183650,-8705
10:57:08.183650,-1
10:57:08.183650,-38
10:57:08.183650,-9473
10:57:08.183650,-1
10:57:08.183650,-40
10:57:08.183650,-11265
10:57:08.183650,-1
10:57:08.183650,-42
10:57:08.183650,-8193
10:57:08.183650,-1
10:57:08.183650,-23
10:57:08.183650,-4609
10:57:08.183650,-1
10:57:08.183650,-21
10:57:08.183650,-5121
10:57:08.183650,-1
10:57:08.183650,-11
10:57:08.183650,-769
10:57:08.183650,-1
10:57:08.183650,-11
10:57:08.732989,-19
10:57:08.732989,-5121
10:57:08.732989,-1
10:57:08.732989,-21
10:57:08.732989,-3841
10:57:08.732989,-1
10:57:08.732989,-16
10:57:08.732989,-6401
10:57:08.732989,-1
10:57:08.732989,-23
10:57:08.732989,-3329
10:57:08.732989,-1
10:57:08.732989,2
10:57:08.732989,5888
10:57:08.732989,0
10:57:08.732989,35
10:57:08.732989,8448
10:57:08.732989,0
10:57:08.732989,23
10:57:08.732989,2304
10:57:08.732989,0
10:57:08.732989,4
10:57:08.732989,3584
10:57:08.732989,0
10:57:08.732989,19
10:57:08.732989,2304
10:57:08.732989,0
10:57:08.732989,4
10:57:08.732989,1792
10:57:08.732989,0
10:57:08.732989,-9
10:57:08.732989,-9985
10:57:08.732989,-1
10:57:08.732989,23
10:57:08.732989,9472
10:57:08.732989,1
10:57:08.732989,624
10:57:08.732989,-29440
10:57:08.732989,2
10:57:08.732989,364
10:57:08.732989,-27136
10:57:08.732989,0
10:57:08.732989,45
10:57:08.732989,-16896
10:57:08.732989,-1
10:57:08.732989,-81
10:57:08.732989,-11265
10:57:08.732989,-1
10:57:08.732989,-59
10:57:08.732989,-14337
10:57:08.732989,-1
10:57:08.732989,-33
10:57:08.732989,-6913
10:57:08.732989,-1
10:57:08.732989,-30
10:57:08.732989,-5121
10:57:08.732989,-1
10:57:08.732989,-14
10:57:08.732989,-2561
10:57:08.732989,-1
10:57:08.732989,-11
10:57:08.732989,-769
10:57:08.732989,-1
10:57:08.732989,4
10:57:08.732989,1792
10:57:08.732989,0
10:57:08.732989,11
10:57:08.732989,5376
10:57:08.732989,0
10:57:08.732989,35
10:57:08.732989,13312
10:57:08.732989,0
10:57:08.732989,61
10:57:08.732989,18176
10:57:08.732989,0
10:57:08.732989,92
10:57:08.732989,26112
10:57:08.732989,0
10:57:08.732989,102
10:57:08.732989,26112
10:57:08.732989,0
10:57:08.732989,92
10:57:08.732989,17664
10:57:08.732989,0
10:57:08.732989,30
10:57:08.732989,0
10:57:08.732989,0
10:57:08.732989,-9
10:57:08.732989,-2561
10:57:08.732989,-1
10:57:08.732989,-23
10:57:08.732989,-8193
10:57:08.732989,-1
10:57:08.732989,-33
10:57:08.732989,-5121
10:57:08.732989,-1
10:57:08.732989,-28
10:57:08.732989,-8193
10:57:08.732989,-1
10:57:08.732989,-26
10:57:08.732989,-6913
10:57:08.732989,-1
10:57:08.732989,-40
10:57:08.732989,-6913
10:57:08.732989,-1
10:57:08.732989,-11
10:57:08.732989,-4609
10:57:08.732989,-1
10:57:08.732989,-14
10:57:09.334323,19
10:57:09.334323,4096
10:57:09.334323,0
10:57:09.334323,-9
10:57:09.334323,-769
10:57:09.334323,-1
10:57:09.334323,7
10:57:09.334323,-1792
10:57:09.334323,-1
10:57:09.334323,-21
10:57:09.334323,-3841
10:57:09.334323,-1
10:57:09.334323,4
10:57:09.334323,2816
10:57:09.334323,0
10:57:09.334323,23
10:57:09.334323,14592
10:57:09.334323,0
10:57:09.334323,59
10:57:09.334323,6656
10:57:09.334323,0
10:57:09.334323,11
10:57:09.334323,3584
10:57:09.334323,0
10:57:09.334323,19
10:57:09.334323,3584
10:57:09.334323,0
10:57:09.334323,7
10:57:09.334323,1792
10:57:09.334323,0
10:57:09.334323,9
10:57:09.334323,2816
10:57:09.334323,0
10:57:09.334323,4
10:57:09.334323,-5888
10:57:09.334323,-1
10:57:09.334323,-11
10:57:09.334323,-18945
10:57:09.334323,0
10:57:09.334323,512
10:57:09.334323,24576
10:57:09.334323,2
10:57:09.334323,338
10:57:09.334323,-23040
10:57:09.334323,0
10:57:09.334323,143
10:57:09.334323,-7680
10:57:09.334323,-1
10:57:09.334323,-119
10:57:09.334323,-8193
10:57:09.334323,-1
10:57:09.334323,-30
10:57:09.334323,-16129
10:57:09.334323,-1
10:57:09.334323,-47
10:57:09.334323,-11265
10:57:09.334323,-1
10:57:09.334323,-52
10:57:09.334323,-8705
10:57:09.334323,-1
10:57:09.334323,-26
10:57:09.334323,-7425
10:57:09.334323,-1
10:57:09.334323,-35
10:57:09.334323,-3329
10:57:09.334323,-1
10:57:09.334323,11
10:57:09.334323,1024
10:57:09.334323,0
10:57:09.334323,4
10:57:09.334323,2816
10:57:09.334323,0
10:57:09.334323,-2
10:57:09.334323,2047
10:57:09.334323,0
10:57:09.334323,69
10:57:09.334323,28672
10:57:09.334323,0
10:57:09.334323,104
10:57:09.334323,26624
10:57:09.334323,0
10:57:09.334323,116
10:57:09.334323,29184
10:57:09.334323,0
10:57:09.334323,90
10:57:09.334323,12032
10:57:09.334323,0
10:57:09.334323,26
10:57:09.334323,4096
10:57:09.334323,0
10:57:09.334323,-14
10:57:09.334323,-8705
10:57:09.334323,-1
10:57:09.334323,-23
10:57:09.334323,-6401
10:57:09.334323,-1
10:57:09.334323,-35
10:57:09.334323,-4609
10:57:09.334323,-1
10:57:09.334323,-11
10:57:09.334323,-6401
10:57:09.334323,-1
10:57:09.334323,-30
10:57:09.334323,-7425
10:57:09.334323,-1
10:57:09.334323,-23
10:57:09.334323,-2049
10:57:09.334323,-1
10:57:09.334323,-4
10:57:09.933542,0
10:57:09.933542,2304
10:57:09.933542,0
10:57:09.933542,0
10:57:09.933542,-4864
10:57:09.933542,-1
10:57:09.933542,-2
10:57:09.933542,6911
10:57:09.933542,0
10:57:09.933542,38
10:57:09.933542,11520
10:57:09.933542,0
10:57:09.933542,40
10:57:09.933542,6656
10:57:09.933542,0
10:57:09.933542,11
10:57:09.933542,2304
10:57:09.933542,0
10:57:09.933542,14
10:57:09.933542,8448
10:57:09.933542,0
10:57:09.933542,69
10:57:09.933542,15616
10:57:09.933542,0
10:57:09.933542,40
10:57:09.933542,17664
10:57:09.933542,0
10:57:09.933542,76
10:57:09.933542,10752
10:57:09.933542,0
10:57:09.933542,35
10:57:09.933542,9728
10:57:09.933542,0
10:57:09.933542,30
10:57:09.933542,8960
10:57:09.933542,0
10:57:09.933542,38
10:57:09.933542,4096
10:57:09.933542,0
10:57:09.933542,-21
10:57:09.933542,-2049
10:57:09.933542,-1
10:57:09.933542,159
10:57:09.933542,-3072
10:57:09.933542,1
10:57:09.933542,653
10:57:09.933542,32512
10:57:09.933542,1
10:57:09.933542,162
10:57:09.933542,-27904
10:57:09.933542,0
10:57:09.933542,7
10:57:09.933542,-25600
10:57:09.933542,-1
10:57:09.933542,-33
10:57:09.933542,-5121
10:57:09.933542,-1
10:57:09.933542,-59
10:57:09.933542,-12545
10:57:09.933542,-1
10:57:09.933542,-47
10:57:09.933542,-10497
10:57:09.933542,-1
10:57:09.933542,-23
10:57:09.933542,-7425
10:57:09.933542,-1
10:57:09.933542,-35
10:57:09.933542,-3329
10:57:09.933542,-1
10:57:09.933542,-7
10:57:09.933542,-2049
10:57:09.933542,-1
10:57:09.933542,4
10:57:09.933542,512
10:57:09.933542,0
10:57:09.933542,-4
10:57:09.933542,4351
10:57:09.933542,0
10:57:09.933542,33
10:57:09.933542,8960
10:57:09.933542,0
10:57:09.933542,64
10:57:09.933542,23552
10:57:09.933542,0
10:57:09.933542,88
10:57:09.933542,24320
10:57:09.933542,0
10:57:09.933542,112
10:57:09.933542,22528
10:57:09.933542,0
10:57:09.933542,47
10:57:09.933542,8448
10:57:09.933542,0
10:57:09.933542,16
10:57:09.933542,-2304
10:57:09.933542,-1
10:57:09.933542,-9
10:57:09.933542,-2561
10:57:09.933542,-1
10:57:09.933542,-40
10:57:09.933542,-12545
10:57:09.933542,-1
10:57:09.933542,-45
10:57:09.933542,-10497
10:57:09.933542,-1
10:57:09.933542,-40
10:57:09.933542,-8193
10:57:09.933542,-1
10:57:09.933542,-16
10:57:10.433518,-9
10:57:10.433518,-6401
10:57:10.433518,-1
10:57:10.433518,-30
10:57:10.433518,-8193
10:57:10.433518,-1
10:57:10.433518,-42
10:57:10.433518,-5633
10:57:10.433518,-1
10:57:10.433518,2
10:57:10.433518,-1792
10:57:10.433518,-1
10:57:10.433518,-11
10:57:10.433518,767
10:57:10.433518,0
10:57:10.433518,7
10:57:10.433518,0
10:57:10.433518,0
10:57:10.433518,-2
10:57:10.433518,767
10:57:10.433518,0
10:57:10.433518,-4
10:57:10.433518,-3329
10:57:10.433518,-1
10:57:10.433518,-7
10:57:10.433518,2047
10:57:10.433518,0
10:57:10.433518,14
10:57:10.433518,8448
10:57:10.433518,0
10:57:10.433518,42
10:57:10.433518,6656
10:57:10.433518,0
10:57:10.433518,19
10:57:10.433518,6656
10:57:10.433518,0
10:57:10.433518,23
10:57:10.433518,3584
10:57:10.433518,0
10:57:10.433518,7
10:57:10.433518,0
10:57:10.433518,0
10:57:10.433518,4
10:57:10.433518,3584
10:57:10.433518,0
10:57:10.433518,-2
10:57:10.433518,-6913
10:57:10.433518,-1
10:57:10.433518,-26
10:57:10.433518,13567
10:57:10.433518,0
10:57:10.433518,319
10:57:10.433518,29440
10:57:10.433518,2
10:57:10.433518,579
10:57:10.433518,5632
10:57:10.433518,1
10:57:10.433518,143
10:57:10.433518,13312
10:57:10.433518,0
10:57:10.433518,-85
10:57:10.433518,-17921
10:57:10.433518,-1
10:57:10.433518,-30
10:57:10.433518,-19201
10:57:10.433518,-1
10:57:10.433518,-78
10:57:10.433518,-10497
10:57:10.433518,-1
10:57:10.433518,-47
10:57:10.433518,-13057
10:57:10.433518,-1
10:57:10.433518,-45
10:57:10.433518,-9985
10:57:10.433518,-1
10:57:10.433518,-7
10:57:10.433518,767
10:57:10.433518,0
10:57:10.433518,-11
10:57:10.433518,-1537
10:57:10.433518,-1
10:57:10.433518,0
10:57:10.433518,-1792
10:57:10.433518,-1
10:57:10.433518,9
10:57:10.433518,8960
10:57:10.433518,0
10:57:10.433518,40
10:57:10.433518,12800
10:57:10.433518,0
10:57:10.433518,78
10:57:10.433518,23552
10:57:10.433518,0
10:57:10.433518,92
10:57:10.433518,29184
10:57:10.433518,0
10:57:10.433518,112
10:57:10.433518,21760
10:57:10.433518,0
10:57:10.433518,69
10:57:10.433518,7680
10:57:10.433518,0
10:57:10.433518,-11
10:57:10.433518,-8193
10:57:10.433518,-1
10:57:10.433518,-40
10:57:10.433518,-9985
10:57:10.433518,-1
10:57:10.433518,-45
10:57:11.033159,-50
10:57:11.033159,-10497
10:57:11.033159,-1
10:57:11.033159,-23
10:57:11.033159,-5633
10:57:11.033159,-1
10:57:11.033159,-40
10:57:11.033159,-10497
10:57:11.033159,-1
10:57:11.033159,-26
10:57:11.033159,-4609
10:57:11.033159,-1
10:57:11.033159,-33
10:57:11.033159,-9473
10:57:11.033159,-1
10:57:11.033159,-19
10:57:11.033159,2047
10:57:11.033159,0
10:57:11.033159,9
10:57:11.033159,-2304
10:57:11.033159,-1
10:57:11.033159,-4
10:57:11.033159,3839
10:57:11.033159,0
10:57:11.033159,9
10:57:11.033159,0
10:57:11.033159,0
10:57:11.033159,9
10:57:11.033159,3584
10:57:11.033159,0
10:57:11.033159,9
10:57:11.033159,512
10:57:11.033159,0
10:57:11.033159,-4
10:57:11.033159,-769
10:57:11.033159,-1
10:57:11.033159,-2
10:57:11.033159,5119
10:57:11.033159,0
10:57:11.033159,42
10:57:11.033159,10752
10:57:11.033159,0
10:57:11.033159,28
10:57:11.033159,3584
10:57:11.033159,0
10:57:11.033159,4
10:57:11.033159,-512
10:57:11.033159,-1
10:57:11.033159,0
10:57:11.033159,-1024
10:57:11.033159,-1
10:57:11.033159,-16
10:57:11.033159,-4609
10:57:11.033159,-1
10:57:11.033159,-7
10:57:11.033159,-769
10:57:11.033159,-1
10:57:11.033159,-35
10:57:11.033159,-1537
10:57:11.033159,-1
10:57:11.033159,226
10:57:11.033159,19456
10:57:11.033159,2
10:57:11.033159,691
10:57:11.033159,-26112
10:57:11.033159,1
10:57:11.033159,145
10:57:11.033159,7168
10:57:11.033159,0
10:57:11.033159,-76
10:57:11.033159,-23297
10:57:11.033159,-1
10:57:11.033159,-61
10:57:11.033159,-20481
10:57:11.033159,-1
10:57:11.033159,-88
10:57:11.033159,-17921
10:57:11.033159,-1
10:57:11.033159,-64
10:57:11.033159,-15361
10:57:11.033159,-1
10:57:11.033159,-57
10:57:11.033159,-13569
10:57:11.033159,-1
10:57:11.033159,-45
10:57:11.033159,-9473
10:57:11.033159,-1
10:57:11.033159,-45
10:57:11.033159,-11265
10:57:11.033159,-1
10:57:11.033159,-23
10:57:11.033159,-3329
10:57:11.033159,-1
10:57:11.033159,-19
10:57:11.033159,-257
10:57:11.033159,-1
10:57:11.033159,28
10:57:11.033159,10240
10:57:11.033159,0
10:57:11.033159,45
10:57:11.033159,16384
10:57:11.033159,0
10:57:11.033159,78
10:57:11.033159,22528
10:57:11.033159,0
10:57:11.033159,85
10:57:11.033159,16384
10:57:11.033159,0
10:57:11.033159,42
10:57:11.533659,21
10:57:11.533659,-2816
10:57:11.533659,-1
10:57:11.533659,-30
10:57:11.533659,-8705
10:57:11.533659,-1
10:57:11.533659,-50
10:57:11.533659,-14337
10:57:11.533659,-1
10:57:11.533659,-59
10:57:11.533659,-17409
10:57:11.533659,-1
10:57:11.533659,-66
10:57:11.533659,-9473
10:57:11.533659,-1
10:57:11.533659,-26
10:57:11.533659,-11265
10:57:11.533659,-1
10:57:11.533659,-47
10:57:11.533659,-9985
10:57:11.533659,-1
10:57:11.533659,-42
10:57:11.533659,-9473
10:57:11.533659,-1
10:57:11.533659,-38
10:57:11.533659,-10497
10:57:11.533659,-1
10:57:11.533659,-26
10:57:11.533659,255
10:57:11.533659,0
10:57:11.533659,2
10:57:11.533659,-1792
10:57:11.533659,-1
10:57:11.533659,-11
10:57:11.533659,-4609
10:57:11.533659,-1
10:57:11.533659,-7
10:57:11.533659,767
10:57:11.533659,0
10:57:11.533659,-23
10:57:11.533659,-5121
10:57:11.533659,-1
10:57:11.533659,7
10:57:11.533659,0
10:57:11.533659,0
10:57:11.533659,-26
10:57:11.533659,-7425
10:57:11.533659,-1
10:57:11.533659,-21
10:57:11.533659,-2049
10:57:11.533659,-1
10:57:11.533659,23
10:57:11.533659,13312
10:57:11.533659,0
10:57:11.533659,35
10:57:11.533659,1792
10:57:11.533659,0
10:57:11.533659,2
10:57:11.533659,2816
10:57:11.533659,0
10:57:11.533659,9
10:57:11.533659,-1024
10:57:11.533659,-1
10:57:11.533659,-7
10:57:11.533659,255
10:57:11.533659,0
10:57:11.533659,-9
10:57:11.533659,-3329
10:57:11.533659,-1
10:57:11.533659,-14
10:57:11.533659,-9985
10:57:11.533659,-1
10:57:11.533659,23
10:57:11.533659,16640
10:57:11.533659,1
10:57:11.533659,665
10:57:11.533659,-24064
10:57:11.533659,2
10:57:11.533659,371
10:57:11.533659,32256
10:57:11.533659,0
10:57:11.533659,-2
10:57:11.533659,-23297
10:57:11.533659,-1
10:57:11.533659,-92
10:57:11.533659,-17409
10:57:11.533659,-1
10:57:11.533659,-85
10:57:11.533659,-19201
10:57:11.533659,-1
10:57:11.533659,-47
10:57:11.533659,-14337
10:57:11.533659,-1
10:57:11.533659,-76
10:57:11.533659,-14849
10:57:11.533659,-1
10:57:11.533659,-38
10:57:11.533659,-10497
10:57:11.533659,-1
10:57:11.533659,-45
10:57:11.533659,-6913
10:57:11.533659,-1
10:57:11.533659,-23
10:57:11.533659,-6913
10:57:11.533659,-1
10:57:11.533659,-26
10:57:11.533659,-1537
10:57:11.533659,-1
10:57:11.533659,7
10:57:12.084413,21
10:57:12.084413,11520
10:57:12.084413,0
10:57:12.084413,64
10:57:12.084413,18176
10:57:12.084413,0
10:57:12.084413,85
10:57:12.084413,28672
10:57:12.084413,0
10:57:12.084413,123
10:57:12.084413,26624
10:57:12.084413,0
10:57:12.084413,78
10:57:12.084413,12032
10:57:12.084413,0
10:57:12.084413,23
10:57:12.084413,4096
10:57:12.084413,0
10:57:12.084413,-9
10:57:12.084413,-7425
10:57:12.084413,-1
10:57:12.084413,-30
10:57:12.084413,-3329
10:57:12.084413,-1
10:57:12.084413,0
10:57:12.084413,-3584
10:57:12.084413,-1
10:57:12.084413,-33
10:57:12.084413,-6913
10:57:12.084413,-1
10:57:12.084413,-21
10:57:12.084413,-3329
10:57:12.084413,-1
10:57:12.084413,-9
10:57:12.084413,-5121
10:57:12.084413,-1
10:57:12.084413,-26
10:57:12.084413,-6913
10:57:12.084413,-1
10:57:12.084413,-14
10:57:12.084413,2559
10:57:12.084413,0
10:57:12.084413,-2
10:57:12.084413,-4609
10:57:12.084413,-1
10:57:12.084413,-16
10:57:12.084413,-2561
10:57:12.084413,-1
10:57:12.084413,0
10:57:12.084413,3584
10:57:12.084413,0
10:57:12.084413,9
10:57:12.084413,-512
10:57:12.084413,-1
10:57:12.084413,-9
10:57:12.084413,-2561
10:57:12.084413,-1
10:57:12.084413,-4
10:57:12.084413,-769
10:57:12.084413,-1
10:57:12.084413,-4
10:57:12.084413,767
10:57:12.084413,0
10:57:12.084413,4
10:57:12.084413,3584
10:57:12.084413,0
10:57:12.084413,30
10:57:12.084413,9728
10:57:12.084413,0
10:57:12.084413,26
10:57:12.084413,0
10:57:12.084413,0
10:57:12.084413,-16
10:57:12.084413,-769
10:57:12.084413,-1
10:57:12.084413,11
10:57:12.084413,0
10:57:12.084413,0
10:57:12.084413,-11
10:57:12.084413,-257
10:57:12.084413,-1
10:57:12.084413,0
10:57:12.084413,-2816
10:57:12.084413,-1
10:57:12.084413,-38
10:57:12.084413,5631
10:57:12.084413,0
10:57:12.084413,305
10:57:12.084413,-22272
10:57:12.084413,2
10:57:12.084413,746
10:57:12.084413,-25600
10:57:12.084413,1
10:57:12.084413,109
10:57:12.084413,0
10:57:12.084413,0
10:57:12.084413,-81
10:57:12.084413,-28929
10:57:12.084413,-1
10:57:12.084413,-83
10:57:12.084413,-18433
10:57:12.084413,-1
10:57:12.084413,-88
10:57:12.084413,-20481
10:57:12.084413,-1
10:57:12.084413,-66
10:57:12.084413,-15361
10:57:12.084413,-1
10:57:12.084413,-57
10:57:12.683112,-54
10:57:12.683112,-14849
10:57:12.683112,-1
10:57:12.683112,-52
10:57:12.683112,-8705
10:57:12.683112,-1
10:57:12.683112,-21
10:57:12.683112,-5121
10:57:12.683112,-1
10:57:12.683112,-14
10:57:12.683112,4351
10:57:12.683112,0
10:57:12.683112,40
10:57:12.683112,12032
10:57:12.683112,0
10:57:12.683112,64
10:57:12.683112,20736
10:57:12.683112,0
10:57:12.683112,81
10:57:12.683112,23552
10:57:12.683112,0
10:57:12.683112,109
10:57:12.683112,24832
10:57:12.683112,0
10:57:12.683112,71
10:57:12.683112,11520
10:57:12.683112,0
10:57:12.683112,23
10:57:12.683112,3584
10:57:12.683112,0
10:57:12.683112,-16
10:57:12.683112,-14849
10:57:12.683112,-1
10:57:12.683112,-66
10:57:12.683112,-11265
10:57:12.683112,-1
10:57:12.683112,-38
10:57:12.683112,-11265
10:57:12.683112,-1
10:57:12.683112,-45
10:57:12.683112,-11777
10:57:12.683112,-1
10:57:12.683112,-47
10:57:12.683112,-8193
10:57:12.683112,-1
10:57:12.683112,-23
10:57:12.683112,-7425
10:57:12.683112,-1
10:57:12.683112,-38
10:57:12.683112,-8705
10:57:12.683112,-1
10:57:12.683112,-30
10:57:12.683112,-5121
10:57:12.683112,-1
10:57:12.683112,-21
10:57:12.683112,-7425
10:57:12.683112,-1
10:57:12.683112,-33
10:57:12.683112,-6401
10:57:12.683112,-1
10:57:12.683112,-21
10:57:12.683112,-5121
10:57:12.683112,-1
10:57:12.683112,-28
10:57:12.683112,-7425
10:57:12.683112,-1
10:57:12.683112,-16
10:57:12.683112,-4609
10:57:12.683112,-1
10:57:12.683112,-33
10:57:12.683112,-8193
10:57:12.683112,-1
10:57:12.683112,-23
10:57:12.683112,-3329
10:57:12.683112,-1
10:57:12.683112,7
10:57:12.683112,7168
10:57:12.683112,0
10:57:12.683112,23
10:57:12.683112,0
10:57:12.683112,0
10:57:12.683112,-11
10:57:12.683112,-3329
10:57:12.683112,-1
10:57:12.683112,-19
10:57:12.683112,-5121
10:57:12.683112,-1
10:57:12.683112,-14
10:57:12.683112,-2049
10:57:12.683112,-1
10:57:12.683112,-19
10:57:12.683112,-6913
10:57:12.683112,-1
10:57:12.683112,-47
10:57:12.683112,-9473
10:57:12.683112,-1
10:57:12.683112,138
10:57:12.683112,-3072
10:57:12.683112,1
10:57:12.683112,705
10:57:12.683112,-7168
10:57:12.683112,1
10:57:12.683112,193
10:57:12.683112,23040
10:57:12.683112,0
10:57:12.683112,-35
10:57:12.683112,-32513
10:57:12.683112,-1
10:57:12.683112,-88
10:57:13.283912,-69
10:57:13.283912,-25345
10:57:13.283912,-1
10:57:13.283912,-92
10:57:13.283912,-20481
10:57:13.283912,-1
10:57:13.283912,-83
10:57:13.283912,-17921
10:57:13.283912,-1
10:57:13.283912,-59
10:57:13.283912,-16129
10:57:13.283912,-1
10:57:13.283912,-59
10:57:13.283912,-11265
10:57:13.283912,-1
10:57:13.283912,-45
10:57:13.283912,-9985
10:57:13.283912,-1
10:57:13.283912,-21
10:57:13.283912,255
10:57:13.283912,0
10:57:13.283912,19
10:57:13.283912,6656
10:57:13.283912,0
10:57:13.283912,35
10:57:13.283912,16384
10:57:13.283912,0
10:57:13.283912,78
10:57:13.283912,23040
10:57:13.283912,0
10:57:13.283912,102
10:57:13.283912,24832
10:57:13.283912,0
10:57:13.283912,78
10:57:13.283912,14592
10:57:13.283912,0
10:57:13.283912,21
10:57:13.283912,-3584
10:57:13.283912,-1
10:57:13.283912,-38
10:57:13.283912,-13057
10:57:13.283912,-1
10:57:13.283912,-59
10:57:13.283912,-14849
10:57:13.283912,-1
10:57:13.283912,-64
10:57:13.283912,-16129
10:57:13.283912,-1
10:57:13.283912,-64
10:57:13.283912,-15361
10:57:13.283912,-1
10:57:13.283912,-66
10:57:13.283912,-18433
10:57:13.283912,-1
10:57:13.283912,-66
10:57:13.283912,-14849
10:57:13.283912,-1
10:57:13.283912,-64
10:57:13.283912,-16129
10:57:13.283912,-1
10:57:13.283912,-52
10:57:13.283912,-11777
10:57:13.283912,-1
10:57:13.283912,-50
10:57:13.283912,-11265
10:57:13.283912,-1
10:57:13.283912,-40
10:57:13.283912,-9985
10:57:13.283912,-1
10:57:13.283912,-38
10:57:13.283912,-8705
10:57:13.283912,-1
10:57:13.283912,-38
10:57:13.283912,-11777
10:57:13.283912,-1
10:57:13.283912,-50
10:57:13.283912,-11265
10:57:13.283912,-1
10:57:13.283912,-47
10:57:13.283912,-12545
10:57:13.283912,-1
10:57:13.283912,-30
10:57:13.283912,-2049
10:57:13.283912,-1
10:57:13.283912,-7
10:57:13.283912,-3841
10:57:13.283912,-1
10:57:13.283912,-26
10:57:13.283912,-9473
10:57:13.283912,-1
10:57:13.283912,-38
10:57:13.283912,-9473
10:57:13.283912,-1
10:57:13.283912,-45
10:57:13.283912,-8705
10:57:13.283912,-1
10:57:13.283912,-28
10:57:13.283912,-10497
10:57:13.283912,-1
10:57:13.283912,-66
10:57:13.283912,-22273
10:57:13.283912,-1
10:57:13.283912,-19
10:57:13.283912,-3073
10:57:13.283912,0
10:57:13.283912,536
10:57:13.283912,1792
10:57:13.283912,2
10:57:13.283912,281
10:57:13.783215,178
10:57:13.783215,14592
10:57:13.783215,0
10:57:13.783215,-138
10:57:13.783215,29951
10:57:13.783215,-1
10:57:13.783215,-78
10:57:13.783215,-30209
10:57:13.783215,-1
10:57:13.783215,-128
10:57:13.783215,-24065
10:57:13.783215,-1
10:57:13.783215,-95
10:57:13.783215,-24577
10:57:13.783215,-1
10:57:13.783215,-81
10:57:13.783215,-19201
10:57:13.783215,-1
10:57:13.783215,-78
10:57:13.783215,-17921
10:57:13.783215,-1
10:57:13.783215,-66
10:57:13.783215,-14849
10:57:13.783215,-1
10:57:13.783215,-47
10:57:13.783215,-6401
10:57:13.783215,-1
10:57:13.783215,-2
10:57:13.783215,1279
10:57:13.783215,0
10:57:13.783215,11
10:57:13.783215,8448
10:57:13.783215,0
10:57:13.783215,57
10:57:13.783215,15616
10:57:13.783215,0
10:57:13.783215,69
10:57:13.783215,19968
10:57:13.783215,0
10:57:13.783215,78
10:57:13.783215,13824
10:57:13.783215,0
10:57:13.783215,19
10:57:13.783215,-3584
10:57:13.783215,-1
10:57:13.783215,-33
10:57:13.783215,-13057
10:57:13.783215,-1
10:57:13.783215,-61
10:57:13.783215,-15361
10:57:13.783215,-1
10:57:13.783215,-61
10:57:13.783215,-16129
10:57:13.783215,-1
10:57:13.783215,-59
10:57:13.783215,-14849
10:57:13.783215,-1
10:57:13.783215,-61
10:57:13.783215,-11777
10:57:13.783215,-1
10:57:13.783215,-40
10:57:13.783215,-13057
10:57:13.783215,-1
10:57:13.783215,-52
10:57:13.783215,-8705
10:57:13.783215,-1
10:57:13.783215,-30
10:57:13.783215,-9473
10:57:13.783215,-1
10:57:13.783215,-35
10:57:13.783215,-6913
10:57:13.783215,-1
10:57:13.783215,-26
10:57:13.783215,-5121
10:57:13.783215,-1
10:57:13.783215,-23
10:57:13.783215,-6913
10:57:13.783215,-1
10:57:13.783215,-28
10:57:13.783215,-6913
10:57:13.783215,-1
10:57:13.783215,-28
10:57:13.783215,-2561
10:57:13.783215,-1
10:57:13.783215,7
10:57:13.783215,2304
10:57:13.783215,0
10:57:13.783215,2
10:57:13.783215,-1024
10:57:13.783215,-1
10:57:13.783215,-14
10:57:13.783215,-5121
10:57:13.783215,-1
10:57:13.783215,-16
10:57:13.783215,-769
10:57:13.783215,-1
10:57:13.783215,-2
10:57:13.783215,-4609
10:57:13.783215,-1
10:57:13.783215,-23
10:57:13.783215,-5633
10:57:13.783215,-1
10:57:13.783215,-61
10:57:13.783215,-9985
10:57:13.783215,-1
10:57:13.783215,197
10:57:13.783215,9216
10:57:13.783215,2
10:57:13.783215,619
10:57:14.333430,379
10:57:14.333430,-1024
10:57:14.333430,0
10:57:14.333430,162
10:57:14.333430,-18176
10:57:14.333430,-1
10:57:14.333430,-140
10:57:14.333430,-17921
10:57:14.333430,-1
10:57:14.333430,-92
10:57:14.333430,-28417
10:57:14.333430,-1
10:57:14.333430,-78
10:57:14.333430,-17409
10:57:14.333430,-1
10:57:14.333430,-66
10:57:14.333430,-13569
10:57:14.333430,-1
10:57:14.333430,-57
10:57:14.333430,-14849
10:57:14.333430,-1
10:57:14.333430,-59
10:57:14.333430,-13569
10:57:14.333430,-1
10:57:14.333430,-28
10:57:14.333430,-3841
10:57:14.333430,-1
10:57:14.333430,-23
10:57:14.333430,-5633
10:57:14.333430,-1
10:57:14.333430,-11
10:57:14.333430,-257
10:57:14.333430,-1
10:57:14.333430,19
10:57:14.333430,14592
10:57:14.333430,0
10:57:14.333430,66
10:57:14.333430,16384
10:57:14.333430,0
10:57:14.333430,88
10:57:14.333430,18176
10:57:14.333430,0
10:57:14.333430,19
10:57:14.333430,-512
10:57:14.333430,-1
10:57:14.333430,-11
10:57:14.333430,-6913
10:57:14.333430,-1
10:57:14.333430,-40
10:57:14.333430,-11777
10:57:14.333430,-1
10:57:14.333430,-35
10:57:14.333430,-3841
10:57:14.333430,-1
10:57:14.333430,-33
10:57:14.333430,-15361
10:57:14.333430,-1
10:57:14.333430,-57
10:57:14.333430,-11777
10:57:14.333430,-1
10:57:14.333430,-47
10:57:14.333430,-9473
10:57:14.333430,-1
10:57:14.333430,-23
10:57:14.333430,-7425
10:57:14.333430,-1
10:57:14.333430,-30
10:57:14.333430,-3841
10:57:14.333430,-1
10:57:14.333430,-21
10:57:14.333430,-6401
10:57:14.333430,-1
10:57:14.333430,-14
10:57:14.333430,-1537
10:57:14.333430,-1
10:57:14.333430,-2
10:57:14.333430,255
10:57:14.333430,0
10:57:14.333430,2
10:57:14.333430,2304
10:57:14.333430,0
10:57:14.333430,-2
10:57:14.333430,-5121
10:57:14.333430,-1
10:57:14.333430,-4
10:57:14.333430,6143
10:57:14.333430,0
10:57:14.333430,23
10:57:14.333430,3584
10:57:14.333430,0
10:57:14.333430,11
10:57:14.333430,2304
10:57:14.333430,0
10:57:14.333430,9
10:57:14.333430,3584
10:57:14.333430,0
10:57:14.333430,11
10:57:14.333430,-1024
10:57:14.333430,-1
10:57:14.333430,-7
10:57:14.333430,767
10:57:14.333430,0
10:57:14.333430,-19
10:57:14.333430,-15361
10:57:14.333430,-1
10:57:14.333430,7
10:57:14.333430,14848
10:57:14.333430,1
10:57:14.333430,693
10:57:14.883638,741
10:57:14.883638,-12288
10:57:14.883638,1
10:57:14.883638,252
10:57:14.883638,19968
10:57:14.883638,0
10:57:14.883638,-112
10:57:14.883638,31231
10:57:14.883638,-1
10:57:14.883638,-78
10:57:14.883638,-21505
10:57:14.883638,-1
10:57:14.883638,-88
10:57:14.883638,-17921
10:57:14.883638,-1
10:57:14.883638,-71
10:57:14.883638,-19201
10:57:14.883638,-1
10:57:14.883638,-71
10:57:14.883638,-15361
10:57:14.883638,-1
10:57:14.883638,-61
10:57:14.883638,-14849
10:57:14.883638,-1
10:57:14.883638,-52
10:57:14.883638,-13057
10:57:14.883638,-1
10:57:14.883638,-45
10:57:14.883638,-5633
10:57:14.883638,-1
10:57:14.883638,-21
10:57:14.883638,-5633
10:57:14.883638,-1
10:57:14.883638,-14
10:57:14.883638,-769
10:57:14.883638,-1
10:57:14.883638,2
10:57:14.883638,4096
10:57:14.883638,0
10:57:14.883638,28
10:57:14.883638,9728
10:57:14.883638,0
10:57:14.883638,40
10:57:14.883638,5376
10:57:14.883638,0
10:57:14.883638,-2
10:57:14.883638,-3329
10:57:14.883638,-1
10:57:14.883638,-19
10:57:14.883638,-6913
10:57:14.883638,-1
10:57:14.883638,-42
10:57:14.883638,-14337
10:57:14.883638,-1
10:57:14.883638,-54
10:57:14.883638,-12545
10:57:14.883638,-1
10:57:14.883638,-54
10:57:14.883638,-14337
10:57:14.883638,-1
10:57:14.883638,-57
10:57:14.883638,-12545
10:57:14.883638,-1
10:57:14.883638,-38
10:57:14.883638,-8193
10:57:14.883638,-1
10:57:14.883638,-45
10:57:14.883638,-16129
10:57:14.883638,-1
10:57:14.883638,-64
10:57:14.883638,-10497
10:57:14.883638,-1
10:57:14.883638,-28
10:57:14.883638,-6913
10:57:14.883638,-1
10:57:14.883638,-40
10:57:14.883638,-10497
10:57:14.883638,-1
10:57:14.883638,-30
10:57:14.883638,-5121
10:57:14.883638,-1
10:57:14.883638,-30
10:57:14.883638,-13057
10:57:14.883638,-1
10:57:14.883638,-52
10:57:14.883638,-8705
10:57:14.883638,-1
10:57:14.883638,-35
10:57:14.883638,-9985
10:57:14.883638,-1
10:57:14.883638,-19
10:57:14.883638,1279
10:57:14.883638,0
10:57:14.883638,2
10:57:14.883638,-2816
10:57:14.883638,-1
10:57:14.883638,-11
10:57:14.883638,-4609
10:57:14.883638,-1
10:57:14.883638,-28
10:57:14.883638,-2561
10:57:14.883638,-1
10:57:14.883638,-7
10:57:14.883638,-8193
10:57:14.883638,-1
10:57:14.883638,-38
10:57:14.883638,-6401
10:57:14.883638,-1
10:57:14.883638,-52
10:57:15.433693,-104
10:57:15.433693,-9473
10:57:15.433693,-1
10:57:15.433693,302
10:57:15.433693,8448
10:57:15.433693,3
10:57:15.433693,941
10:57:15.433693,11520
10:57:15.433693,2
10:57:15.433693,190
10:57:15.433693,6656
10:57:15.433693,0
10:57:15.433693,-126
10:57:15.433693,24319
10:57:15.433693,-1
10:57:15.433693,-109
10:57:15.433693,-29441
10:57:15.433693,-1
10:57:15.433693,-121
10:57:15.433693,-24577
10:57:15.433693,-1
10:57:15.433693,-102
10:57:15.433693,-27649
10:57:15.433693,-1
10:57:15.433693,-107
10:57:15.433693,-25857
10:57:15.433693,-1
10:57:15.433693,-92
10:57:15.433693,-22273
10:57:15.433693,-1
10:57:15.433693,-83
10:57:15.433693,-18433
10:57:15.433693,-1
10:57:15.433693,-69
10:57:15.433693,-17921
10:57:15.433693,-1
10:57:15.433693,-64
10:57:15.433693,-9473
10:57:15.433693,-1
10:57:15.433693,-33
10:57:15.433693,-6401
10:57:15.433693,-1
10:57:15.433693,2
10:57:15.433693,5376
10:57:15.433693,0
10:57:15.433693,28
10:57:15.433693,8960
10:57:15.433693,0
10:57:15.433693,35
10:57:15.433693,8960
10:57:15.433693,0
10:57:15.433693,19
10:57:15.433693,-1024
10:57:15.433693,-1
10:57:15.433693,-21
10:57:15.433693,-7425
10:57:15.433693,-1
10:57:15.433693,-40
10:57:15.433693,-11777
10:57:15.433693,-1
10:57:15.433693,-50
10:57:15.433693,-13057
10:57:15.433693,-1
10:57:15.433693,-59
10:57:15.433693,-14849
10:57:15.433693,-1
10:57:15.433693,-47
10:57:15.433693,-8705
10:57:15.433693,-1
10:57:15.433693,-26
10:57:15.433693,-6401
10:57:15.433693,-1
10:57:15.433693,-35
10:57:15.433693,-8193
10:57:15.433693,-1
10:57:15.433693,-21
10:57:15.433693,-8193
10:57:15.433693,-1
10:57:15.433693,-38
10:57:15.433693,-4609
10:57:15.433693,-1
10:57:15.433693,-19
10:57:15.433693,-9985
10:57:15.433693,-1
10:57:15.433693,-35
10:57:15.433693,-5121
10:57:15.433693,-1
10:57:15.433693,-21
10:57:15.433693,-4609
10:57:15.433693,-1
10:57:15.433693,-7
10:57:15.433693,-2561
10:57:15.433693,-1
10:57:15.433693,-26
10:57:15.433693,-7425
10:57:15.433693,-1
10:57:15.433693,-33
10:57:15.433693,-6913
10:57:15.433693,-1
10:57:15.433693,-23
10:57:15.433693,-1537
10:57:15.433693,-1
10:57:15.433693,16
10:57:15.433693,5376
10:57:15.433693,0
10:57:15.433693,19
10:57:15.433693,5888
10:57:15.433693,0
10:57:15.433693,2
10:57:16.033836,-23
10:57:16.033836,-2049
10:57:16.033836,-1
10:57:16.033836,11
10:57:16.033836,1792
10:57:16.033836,0
10:57:16.033836,11
10:57:16.033836,8448
10:57:16.033836,0
10:57:16.033836,30
10:57:16.033836,-4864
10:57:16.033836,-1
10:57:16.033836,-64
10:57:16.033836,18943
10:57:16.033836,0
10:57:16.033836,557
10:57:16.033836,20992
10:57:16.033836,4
10:57:16.033836,1061
10:57:16.033836,-8448
10:57:16.033836,1
10:57:16.033836,97
10:57:16.033836,-1024
10:57:16.033836,-1
10:57:16.033836,-107
10:57:16.033836,-32001
10:57:16.033836,-1
10:57:16.033836,-90
10:57:16.033836,-30721
10:57:16.033836,-1
10:57:16.033836,-140
10:57:16.033836,-25345
10:57:16.033836,-1
10:57:16.033836,-92
10:57:16.033836,-29441
10:57:16.033836,-1
10:57:16.033836,-100
10:57:16.033836,-19201
10:57:16.033836,-1
10:57:16.033836,-78
10:57:16.033836,-19201
10:57:16.033836,-1
10:57:16.033836,-71
10:57:16.033836,-17409
10:57:16.033836,-1
10:57:16.033836,-57
10:57:16.033836,-13569
10:57:16.033836,-1
10:57:16.033836,-57
10:57:16.033836,-9473
10:57:16.033836,-1
10:57:16.033836,-16
10:57:16.033836,-1537
10:57:16.033836,-1
10:57:16.033836,11
10:57:16.033836,10752
10:57:16.033836,0
10:57:16.033836,69
10:57:16.033836,18688
10:57:16.033836,0
10:57:16.033836,61
10:57:16.033836,12800
10:57:16.033836,0
10:57:16.033836,30
10:57:16.033836,0
10:57:16.033836,0
10:57:16.033836,-9
10:57:16.033836,-2561
10:57:16.033836,-1
10:57:16.033836,-21
10:57:16.033836,-6401
10:57:16.033836,-1
10:57:16.033836,-23
10:57:16.033836,-4609
10:57:16.033836,-1
10:57:16.033836,-19
10:57:16.033836,-3841
10:57:16.033836,-1
10:57:16.033836,-28
10:57:16.033836,-9473
10:57:16.033836,-1
10:57:16.033836,-23
10:57:16.033836,-1537
10:57:16.033836,-1
10:57:16.033836,-7
10:57:16.033836,-1537
10:57:16.033836,-1
10:57:16.033836,-9
10:57:16.033836,-4609
10:57:16.033836,-1
10:57:16.033836,-19
10:57:16.033836,-769
10:57:16.033836,-1
10:57:16.033836,-7
10:57:16.033836,-5633
10:57:16.033836,-1
10:57:16.033836,-11
10:57:16.033836,2047
10:57:16.033836,0
10:57:16.033836,-2
10:57:16.033836,-3329
10:57:16.033836,-1
10:57:16.033836,-4
10:57:16.033836,2559
10:57:16.033836,0
10:57:16.033836,14
10:57:16.033836,3584
10:57:16.033836,0
10:57:16.033836,11
10:57:16.583976,11
10:57:16.583976,4864
10:57:16.583976,0
10:57:16.583976,0
10:57:16.583976,-3584
10:57:16.583976,-1
10:57:16.583976,26
10:57:16.583976,15104
10:57:16.583976,0
10:57:16.583976,40
10:57:16.583976,5888
10:57:16.583976,0
10:57:16.583976,26
10:57:16.583976,7168
10:57:16.583976,0
10:57:16.583976,45
10:57:16.583976,15616
10:57:16.583976,0
10:57:16.583976,61
10:57:16.583976,13824
10:57:16.583976,0
10:57:16.583976,38
10:57:16.583976,3584
10:57:16.583976,0
10:57:16.583976,-7
10:57:16.583976,-9985
10:57:16.583976,-1
10:57:16.583976,-2
10:57:16.583976,10239
10:57:16.583976,1
10:57:16.583976,839
10:57:16.583976,22272
10:57:16.583976,4
10:57:16.583976,748
10:57:16.583976,-256
10:57:16.583976,0
10:57:16.583976,64
10:57:16.583976,-10240
10:57:16.583976,-1
10:57:16.583976,-131
10:57:16.583976,-30209
10:57:16.583976,-1
10:57:16.583976,-88
10:57:16.583976,-22785
10:57:16.583976,-1
10:57:16.583976,-88
10:57:16.583976,-19201
10:57:16.583976,-1
10:57:16.583976,-73
10:57:16.583976,-17921
10:57:16.583976,-1
10:57:16.583976,-66
10:57:16.583976,-14849
10:57:16.583976,-1
10:57:16.583976,-52
10:57:16.583976,-11777
10:57:16.583976,-1
10:57:16.583976,-42
10:57:16.583976,-10497
10:57:16.583976,-1
10:57:16.583976,-30
10:57:16.583976,-3329
10:57:16.583976,-1
10:57:16.583976,-16
10:57:16.583976,-2049
10:57:16.583976,-1
10:57:16.583976,16
10:57:16.583976,9728
10:57:16.583976,0
10:57:16.583976,59
10:57:16.583976,19456
10:57:16.583976,0
10:57:16.583976,83
10:57:16.583976,23552
10:57:16.583976,0
10:57:16.583976,92
10:57:16.583976,17664
10:57:16.583976,0
10:57:16.583976,33
10:57:16.583976,-1792
10:57:16.583976,-1
10:57:16.583976,-23
10:57:16.583976,-1537
10:57:16.583976,-1
10:57:16.583976,-14
10:57:16.583976,-6913
10:57:16.583976,-1
10:57:16.583976,-23
10:57:16.583976,-4609
10:57:16.583976,-1
10:57:16.583976,-16
10:57:16.583976,767
10:57:16.583976,0
10:57:16.583976,23
10:57:16.583976,2304
10:57:16.583976,0
10:57:16.583976,-19
10:57:16.583976,-2561
10:57:16.583976,-1
10:57:16.583976,0
10:57:16.583976,-1792
10:57:16.583976,-1
10:57:16.583976,-11
10:57:16.583976,-2561
10:57:16.583976,-1
10:57:16.583976,-11
10:57:16.583976,-1537
10:57:16.583976,-1
10:57:16.583976,2
10:57:17.133302,2
10:57:17.133302,0
10:57:17.133302,0
10:57:17.133302,7
10:57:17.133302,3584
10:57:17.133302,0
10:57:17.133302,19
10:57:17.133302,5376
10:57:17.133302,0
10:57:17.133302,16
10:57:17.133302,4096
10:57:17.133302,0
10:57:17.133302,26
10:57:17.133302,8448
10:57:17.133302,0
10:57:17.133302,21
10:57:17.133302,-1792
10:57:17.133302,-1
10:57:17.133302,-4
10:57:17.133302,9215
10:57:17.133302,0
10:57:17.133302,59
10:57:17.133302,14592
10:57:17.133302,0
10:57:17.133302,50
10:57:17.133302,9728
10:57:17.133302,0
10:57:17.133302,42
10:57:17.133302,12800
10:57:17.133302,0
10:57:17.133302,30
10:57:17.133302,5376
10:57:17.133302,0
10:57:17.133302,33
10:57:17.133302,10752
10:57:17.133302,0
10:57:17.133302,33
10:57:17.133302,4096
10:57:17.133302,0
10:57:17.133302,-21
10:57:17.133302,-9473
10:57:17.133302,-1
10:57:17.133302,159
10:57:17.133302,27392
10:57:17.133302,2
10:57:17.133302,953
10:57:17.133302,1024
10:57:17.133302,3
10:57:17.133302,357
10:57:17.133302,24832
10:57:17.133302,0
10:57:17.133302,-38
10:57:17.133302,-20481
10:57:17.133302,-1
10:57:17.133302,-64
10:57:17.133302,-19713
10:57:17.133302,-1
10:57:17.133302,-88
10:57:17.133302,-17921
10:57:17.133302,-1
10:57:17.133302,-66
10:57:17.133302,-16641
10:57:17.133302,-1
10:57:17.133302,-54
10:57:17.133302,-11265
10:57:17.133302,-1
10:57:17.133302,-30
10:57:17.133302,-6401
10:57:17.133302,-1
10:57:17.133302,-42
10:57:17.133302,-11265
10:57:17.133302,-1
10:57:17.133302,-40
10:57:17.133302,-7425
10:57:17.133302,-1
10:57:17.133302,-19
10:57:17.133302,-3841
10:57:17.133302,-1
10:57:17.133302,-9
10:57:17.133302,4351
10:57:17.133302,0
10:57:17.133302,47
10:57:17.133302,17664
10:57:17.133302,0
10:57:17.133302,78
10:57:17.133302,20736
10:57:17.133302,0
10:57:17.133302,88
10:57:17.133302,21760
10:57:17.133302,0
10:57:17.133302,71
10:57:17.133302,14592
10:57:17.133302,0
10:57:17.133302,30
10:57:17.133302,2304
10:57:17.133302,0
10:57:17.133302,-2
10:57:17.133302,-6913
10:57:17.133302,-1
10:57:17.133302,-38
10:57:17.133302,-3841
10:57:17.133302,-1
10:57:17.133302,-9
10:57:17.133302,-4609
10:57:17.133302,-1
10:57:17.133302,-14
10:57:17.133302,1279
10:57:17.133302,0
10:57:17.133302,-2
10:57:17.684208,-16
10:57:17.684208,255
10:57:17.684208,0
10:57:17.684208,-7
10:57:17.684208,-9473
10:57:17.684208,-1
10:57:17.684208,-30
10:57:17.684208,767
10:57:17.684208,0
10:57:17.684208,7
10:57:17.684208,0
10:57:17.684208,0
10:57:17.684208,14
10:57:17.684208,6656
10:57:17.684208,0
10:57:17.684208,9
10:57:17.684208,1792
10:57:17.684208,0
10:57:17.684208,30
10:57:17.684208,8960
10:57:17.684208,0
10:57:17.684208,16
10:57:17.684208,4864
10:57:17.684208,0
10:57:17.684208,33
10:57:17.684208,4864
10:57:17.684208,0
10:57:17.684208,-9
10:57:17.684208,255
10:57:17.684208,0
10:57:17.684208,4
10:57:17.684208,-1024
10:57:17.684208,-1
10:57:17.684208,11
10:57:17.684208,7168
10:57:17.684208,0
10:57:17.684208,38
10:57:17.684208,7680
10:57:17.684208,0
10:57:17.684208,7
10:57:17.684208,0
10:57:17.684208,0
10:57:17.684208,7
10:57:17.684208,0
10:57:17.684208,0
10:57:17.684208,0
10:57:17.684208,3584
10:57:17.684208,0
10:57:17.684208,-2
10:57:17.684208,-4609
10:57:17.684208,-1
10:57:17.684208,-11
10:57:17.684208,-8193
10:57:17.684208,-1
10:57:17.684208,-66
10:57:17.684208,13567
10:57:17.684208,0
10:57:17.684208,419
10:57:17.684208,1536
10:57:17.684208,3
10:57:17.684208,720
10:57:17.684208,29440
10:57:17.684208,1
10:57:17.684208,119
10:57:17.684208,-7680
10:57:17.684208,-1
10:57:17.684208,-112
10:57:17.684208,-22273
10:57:17.684208,-1
10:57:17.684208,-78
10:57:17.684208,-27137
10:57:17.684208,-1
10:57:17.684208,-95
10:57:17.684208,-17409
10:57:17.684208,-1
10:57:17.684208,-85
10:57:17.684208,-23297
10:57:17.684208,-1
10:57:17.684208,-66
10:57:17.684208,-14849
10:57:17.684208,-1
10:57:17.684208,-61
10:57:17.684208,-13569
10:57:17.684208,-1
10:57:17.684208,-54
10:57:17.684208,-14337
10:57:17.684208,-1
10:57:17.684208,-40
10:57:17.684208,-6913
10:57:17.684208,-1
10:57:17.684208,-28
10:57:17.684208,-4609
10:57:17.684208,-1
10:57:17.684208,-4
10:57:17.684208,1279
10:57:17.684208,0
10:57:17.684208,23
10:57:17.684208,10752
10:57:17.684208,0
10:57:17.684208,50
10:57:17.684208,12800
10:57:17.684208,0
10:57:17.684208,50
10:57:17.684208,10752
10:57:17.684208,0
10:57:17.684208,16
10:57:17.684208,-1024
10:57:17.684208,-1
10:57:17.684208,-23
10:57:18.233630,-47
10:57:18.233630,-13569
10:57:18.233630,-1
10:57:18.233630,-50
10:57:18.233630,-13569
10:57:18.233630,-1
10:57:18.233630,-47
10:57:18.233630,-9985
10:57:18.233630,-1
10:57:18.233630,-40
10:57:18.233630,-6913
10:57:18.233630,-1
10:57:18.233630,-16
10:57:18.233630,-6913
10:57:18.233630,-1
10:57:18.233630,-35
10:57:18.233630,-5633
10:57:18.233630,-1
10:57:18.233630,-21
10:57:18.233630,-6913
10:57:18.233630,-1
10:57:18.233630,-23
10:57:18.233630,-5633
10:57:18.233630,-1
10:57:18.233630,-23
10:57:18.233630,-5121
10:57:18.233630,-1
10:57:18.233630,-19
10:57:18.233630,-3841
10:57:18.233630,-1
10:57:18.233630,-11
10:57:18.233630,-2561
10:57:18.233630,-1
10:57:18.233630,-14
10:57:18.233630,-1537
10:57:18.233630,-1
10:57:18.233630,-11
10:57:18.233630,-6401
10:57:18.233630,-1
10:57:18.233630,-28
10:57:18.233630,-5633
10:57:18.233630,-1
10:57:18.233630,-21
10:57:18.233630,-6401
10:57:18.233630,-1
10:57:18.233630,-38
10:57:18.233630,-10497
10:57:18.233630,-1
10:57:18.233630,-28
10:57:18.233630,255
10:57:18.233630,0
10:57:18.233630,21
10:57:18.233630,1792
10:57:18.233630,0
10:57:18.233630,-19
10:57:18.233630,-5121
10:57:18.233630,-1
10:57:18.233630,-4
10:57:18.233630,1279
10:57:18.233630,0
10:57:18.233630,4
10:57:18.233630,-2304
10:57:18.233630,-1
10:57:18.233630,-11
10:57:18.233630,-2561
10:57:18.233630,-1
10:57:18.233630,-38
10:57:18.233630,-19201
10:57:18.233630,-1
10:57:18.233630,-38
10:57:18.233630,-11777
10:57:18.233630,0
10:57:18.233630,627
10:57:18.233630,15616
10:57:18.233630,3
10:57:18.233630,586
10:57:18.233630,-4608
10:57:18.233630,0
10:57:18.233630,33
10:57:18.233630,-27392
10:57:18.233630,-1
10:57:18.233630,-145
10:57:18.233630,-24577
10:57:18.233630,-1
10:57:18.233630,-97
10:57:18.233630,-32513
10:57:18.233630,-1
10:57:18.233630,-121
10:57:18.233630,-25345
10:57:18.233630,-1
10:57:18.233630,-92
10:57:18.233630,-24065
10:57:18.233630,-1
10:57:18.233630,-92
10:57:18.233630,-23297
10:57:18.233630,-1
10:57:18.233630,-83
10:57:18.233630,-16641
10:57:18.233630,-1
10:57:18.233630,-59
10:57:18.233630,-15361
10:57:18.233630,-1
10:57:18.233630,-50
10:57:18.233630,-5633
10:57:18.233630,-1
10:57:18.233630,-23
10:57:18.233630,-8193
10:57:18.233630,-1
10:57:18.233630,-14
10:57:18.833636,19
10:57:18.833636,7680
10:57:18.833636,0
10:57:18.833636,33
10:57:18.833636,12800
10:57:18.833636,0
10:57:18.833636,66
10:57:18.833636,15616
10:57:18.833636,0
10:57:18.833636,45
10:57:18.833636,7168
10:57:18.833636,0
10:57:18.833636,-2
10:57:18.833636,-8705
10:57:18.833636,-1
10:57:18.833636,-26
10:57:18.833636,-3329
10:57:18.833636,-1
10:57:18.833636,-35
10:57:18.833636,-8705
10:57:18.833636,-1
10:57:18.833636,-21
10:57:18.833636,-8193
10:57:18.833636,-1
10:57:18.833636,-33
10:57:18.833636,-2561
10:57:18.833636,-1
10:57:18.833636,-23
10:57:18.833636,-11777
10:57:18.833636,-1
10:57:18.833636,-42
10:57:18.833636,-8705
10:57:18.833636,-1
10:57:18.833636,-38
10:57:18.833636,-8193
10:57:18.833636,-1
10:57:18.833636,-23
10:57:18.833636,-3841
10:57:18.833636,-1
10:57:18.833636,-11
10:57:18.833636,-3841
10:57:18.833636,-1
10:57:18.833636,-19
10:57:18.833636,-3329
10:57:18.833636,-1
10:57:18.833636,-11
10:57:18.833636,-3329
10:57:18.833636,-1
10:57:18.833636,-7
10:57:18.833636,2559
10:57:18.833636,0
10:57:18.833636,4
10:57:18.833636,-2304
10:57:18.833636,-1
10:57:18.833636,-19
10:57:18.833636,-4609
10:57:18.833636,-1
10:57:18.833636,-19
10:57:18.833636,-6401
10:57:18.833636,-1
10:57:18.833636,-28
10:57:18.833636,-3841
10:57:18.833636,-1
10:57:18.833636,11
10:57:18.833636,8448
10:57:18.833636,0
10:57:18.833636,11
10:57:18.833636,-2304
10:57:18.833636,-1
10:57:18.833636,-2
10:57:18.833636,-257
10:57:18.833636,-1
10:57:18.833636,-11
10:57:18.833636,-257
10:57:18.833636,-1
10:57:18.833636,4
10:57:18.833636,-1024
10:57:18.833636,-1
10:57:18.833636,-7
10:57:18.833636,2047
10:57:18.833636,0
10:57:18.833636,-14
10:57:18.833636,-22785
10:57:18.833636,-1
10:57:18.833636,-52
10:57:18.833636,511
10:57:18.833636,1
10:57:18.833636,698
10:57:18.833636,22528
10:57:18.833636,3
10:57:18.833636,562
10:57:18.833636,-12544
10:57:18.833636,0
10:57:18.833636,28
10:57:18.833636,-19456
10:57:18.833636,-1
10:57:18.833636,-114
10:57:18.833636,-30721
10:57:18.833636,-1
10:57:18.833636,-131
10:57:18.833636,-27649
10:57:18.833636,-1
10:57:18.833636,-85
10:57:18.833636,-22273
10:57:18.833636,-1
10:57:18.833636,-88
10:57:18.833636,-20481
10:57:18.833636,-1
10:57:18.833636,-78
10:57:19.484092,-73
10:57:19.484092,-17409
10:57:19.484092,-1
10:57:19.484092,-59
10:57:19.484092,-10497
10:57:19.484092,-1
10:57:19.484092,-45
10:57:19.484092,-13057
10:57:19.484092,-1
10:57:19.484092,-42
10:57:19.484092,-8705
10:57:19.484092,-1
10:57:19.484092,-21
10:57:19.484092,3071
10:57:19.484092,0
10:57:19.484092,40
10:57:19.484092,13312
10:57:19.484092,0
10:57:19.484092,66
10:57:19.484092,19456
10:57:19.484092,0
10:57:19.484092,76
10:57:19.484092,19456
10:57:19.484092,0
10:57:19.484092,71
10:57:19.484092,12800
10:57:19.484092,0
10:57:19.484092,9
10:57:19.484092,-7168
10:57:19.484092,-1
10:57:19.484092,-33
10:57:19.484092,-5633
10:57:19.484092,-1
10:57:19.484092,-26
10:57:19.484092,-6401
10:57:19.484092,-1
10:57:19.484092,-21
10:57:19.484092,-5121
10:57:19.484092,-1
10:57:19.484092,-19
10:57:19.484092,-3329
10:57:19.484092,-1
10:57:19.484092,-19
10:57:19.484092,-5121
10:57:19.484092,-1
10:57:19.484092,-16
10:57:19.484092,-4609
10:57:19.484092,-1
10:57:19.484092,-19
10:57:19.484092,-3841
10:57:19.484092,-1
10:57:19.484092,-16
10:57:19.484092,-3841
10:57:19.484092,-1
10:57:19.484092,-11
10:57:19.484092,-3841
10:57:19.484092,-1
10:57:19.484092,-21
10:57:19.484092,-2049
10:57:19.484092,-1
10:57:19.484092,-4
10:57:19.484092,-3841
10:57:19.484092,-1
10:57:19.484092,-11
10:57:19.484092,-769
10:57:19.484092,-1
10:57:19.484092,-9
10:57:19.484092,-3841
10:57:19.484092,-1
10:57:19.484092,-21
10:57:19.484092,-6913
10:57:19.484092,-1
10:57:19.484092,-35
10:57:19.484092,-8193
10:57:19.484092,-1
10:57:19.484092,-11
10:57:19.484092,2047
10:57:19.484092,0
10:57:19.484092,4
10:57:19.484092,-512
10:57:19.484092,-1
10:57:19.484092,0
10:57:19.484092,-1792
10:57:19.484092,-1
10:57:19.484092,-11
10:57:19.484092,-2561
10:57:19.484092,-1
10:57:19.484092,-11
10:57:19.484092,-3329
10:57:19.484092,-1
10:57:19.484092,-11
10:57:19.484092,-3329
10:57:19.484092,-1
10:57:19.484092,-21
10:57:19.484092,-10497
10:57:19.484092,-1
10:57:19.484092,-81
10:57:19.484092,-3841
10:57:19.484092,-1
10:57:19.484092,283
10:57:19.484092,-19712
10:57:19.484092,2
10:57:19.484092,798
10:57:19.484092,-3072
10:57:19.484092,1
10:57:19.484092,174
10:57:19.484092,-2304
10:57:19.484092,-1
10:57:19.484092,-123
10:57:19.982708,-133
10:57:19.982708,-26369
10:57:19.982708,-1
10:57:19.982708,-116
10:57:19.982708,-30721
10:57:19.982708,-1
10:57:19.982708,-107
10:57:19.982708,-26369
10:57:19.982708,-1
10:57:19.982708,-107
10:57:19.982708,-25345
10:57:19.982708,-1
10:57:19.982708,-88
10:57:19.982708,-20481
10:57:19.982708,-1
10:57:19.982708,-73
10:57:19.982708,-16129
10:57:19.982708,-1
10:57:19.982708,-61
10:57:19.982708,-15361
10:57:19.982708,-1
10:57:19.982708,-47
10:57:19.982708,-8705
10:57:19.982708,-1
10:57:19.982708,-35
10:57:19.982708,-7425
10:57:19.982708,-1
10:57:19.982708,-2
10:57:19.982708,6911
10:57:19.982708,0
10:57:19.982708,40
10:57:19.982708,14592
10:57:19.982708,0
10:57:19.982708,71
10:57:19.982708,16896
10:57:19.982708,0
10:57:19.982708,54
10:57:19.982708,7680
10:57:19.982708,0
10:57:19.982708,4
10:57:19.982708,-2816
10:57:19.982708,-1
10:57:19.982708,-14
10:57:19.982708,-5121
10:57:19.982708,-1
10:57:19.982708,-47
10:57:19.982708,-14849
10:57:19.982708,-1
10:57:19.982708,-47
10:57:19.982708,-9985
10:57:19.982708,-1
10:57:19.982708,-45
10:57:19.982708,-10497
10:57:19.982708,-1
10:57:19.982708,-45
10:57:19.982708,-12545
10:57:19.982708,-1
10:57:19.982708,-50
10:57:19.982708,-11777
10:57:19.982708,-1
10:57:19.982708,-45
10:57:19.982708,-9985
10:57:19.982708,-1
10:57:19.982708,-38
10:57:19.982708,-9473
10:57:19.982708,-1
10:57:19.982708,-30
10:57:19.982708,-5633
10:57:19.982708,-1
10:57:19.982708,-28
10:57:19.982708,-8705
10:57:19.982708,-1
10:57:19.982708,-30
10:57:19.982708,-6401
10:57:19.982708,-1
10:57:19.982708,-28
10:57:19.982708,-6913
10:57:19.982708,-1
10:57:19.982708,-26
10:57:19.982708,-6401
10:57:19.982708,-1
10:57:19.982708,-33
10:57:19.982708,-8705
10:57:19.982708,-1
10:57:19.982708,-33
10:57:19.982708,-5121
10:57:19.982708,-1
10:57:19.982708,2
10:57:19.982708,1792
10:57:19.982708,0
10:57:19.982708,-9
10:57:19.982708,-5121
10:57:19.982708,-1
10:57:19.982708,-7
10:57:19.982708,1279
10:57:19.982708,0
10:57:19.982708,-14
10:57:19.982708,-6401
10:57:19.982708,-1
10:57:19.982708,-4
10:57:19.982708,-769
10:57:19.982708,-1
10:57:19.982708,-30
10:57:19.982708,-8705
10:57:19.982708,-1
10:57:19.982708,-50
10:57:19.982708,-16641
10:57:19.982708,-1
10:57:19.982708,71
10:57:20.579518,450
10:57:20.579518,7168
10:57:20.579518,3
10:57:20.579518,729
10:57:20.579518,-32256
10:57:20.579518,1
10:57:20.579518,116
10:57:20.579518,-15616
10:57:20.579518,-1
10:57:20.579518,-138
10:57:20.579518,-25345
10:57:20.579518,-1
10:57:20.579518,-92
10:57:20.579518,-28417
10:57:20.579518,-1
10:57:20.579518,-90
10:57:20.579518,-17409
10:57:20.579518,-1
10:57:20.579518,-61
10:57:20.579518,-11777
10:57:20.579518,-1
10:57:20.579518,-45
10:57:20.579518,-13057
10:57:20.579518,-1
10:57:20.579518,-50
10:57:20.579518,-9985
10:57:20.579518,-1
10:57:20.579518,-33
10:57:20.579518,-5633
10:57:20.579518,-1
10:57:20.579518,-16
10:57:20.579518,-3329
10:57:20.579518,-1
10:57:20.579518,-2
10:57:20.579518,2559
10:57:20.579518,0
10:57:20.579518,19
10:57:20.579518,9728
10:57:20.579518,0
10:57:20.579518,54
10:57:20.579518,16896
10:57:20.579518,0
10:57:20.579518,78
10:57:20.579518,22528
10:57:20.579518,0
10:57:20.579518,71
10:57:20.579518,10240
10:57:20.579518,0
10:57:20.579518,21
10:57:20.579518,2304
10:57:20.579518,0
10:57:20.579518,-7
10:57:20.579518,-5121
10:57:20.579518,-1
10:57:20.579518,-28
10:57:20.579518,-7425
10:57:20.579518,-1
10:57:20.579518,-30
10:57:20.579518,-6913
10:57:20.579518,-1
10:57:20.579518,-26
10:57:20.579518,-6401
10:57:20.579518,-1
10:57:20.579518,-26
10:57:20.579518,-6913
10:57:20.579518,-1
10:57:20.579518,-33
10:57:20.579518,-8193
10:57:20.579518,-1
10:57:20.579518,-26
10:57:20.579518,-8193
10:57:20.579518,-1
10:57:20.579518,-42
10:57:20.579518,-8705
10:57:20.579518,-1
10:57:20.579518,-28
10:57:20.579518,-6401
10:57:20.579518,-1
10:57:20.579518,-19
10:57:20.579518,-3841
10:57:20.579518,-1
10:57:20.579518,-16
10:57:20.579518,-3841
10:57:20.579518,-1
10:57:20.579518,-16
10:57:20.579518,-3841
10:57:20.579518,-1
10:57:20.579518,-16
10:57:20.579518,-5633
10:57:20.579518,-1
10:57:20.579518,-30
10:57:20.579518,-8193
10:57:20.579518,-1
10:57:20.579518,-23
10:57:20.579518,255
10:57:20.579518,0
10:57:20.579518,16
10:57:20.579518,2304
10:57:20.579518,0
10:57:20.579518,2
10:57:20.579518,0
10:57:20.579518,0
10:57:20.579518,-7
10:57:20.579518,-1537
10:57:20.579518,-1
10:57:20.579518,-2
10:57:20.579518,-257
10:57:20.579518,-1
10:57:20.579518,-2
10:57:21.084172,-2
10:57:21.084172,-1537
10:57:21.084172,-1
10:57:21.084172,-28
10:57:21.084172,-15361
10:57:21.084172,-1
10:57:21.084172,19
10:57:21.084172,21504
10:57:21.084172,1
10:57:21.084172,734
10:57:21.084172,6656
10:57:21.084172,3
10:57:21.084172,474
10:57:21.084172,-23040
10:57:21.084172,0
10:57:21.084172,2
10:57:21.084172,-23552
10:57:21.084172,-1
10:57:21.084172,-88
10:57:21.084172,-16641
10:57:21.084172,-1
10:57:21.084172,-83
10:57:21.084172,-20993
10:57:21.084172,-1
10:57:21.084172,-71
10:57:21.084172,-18433
10:57:21.084172,-1
10:57:21.084172,-64
10:57:21.084172,-9473
10:57:21.084172,-1
10:57:21.084172,-30
10:57:21.084172,-13569
10:57:21.084172,-1
10:57:21.084172,-66
10:57:21.084172,-10497
10:57:21.084172,-1
10:57:21.084172,-28
10:57:21.084172,-7425
10:57:21.084172,-1
10:57:21.084172,-23
10:57:21.084172,-1537
10:57:21.084172,-1
10:57:21.084172,11
10:57:21.084172,7168
10:57:21.084172,0
10:57:21.084172,30
10:57:21.084172,7168
10:57:21.084172,0
10:57:21.084172,54
10:57:21.084172,19968
10:57:21.084172,0
10:57:21.084172,71
10:57:21.084172,14592
10:57:21.084172,0
10:57:21.084172,50
10:57:21.084172,7168
10:57:21.084172,0
10:57:21.084172,4
10:57:21.084172,1024
10:57:21.084172,0
10:57:21.084172,-14
10:57:21.084172,-13057
10:57:21.084172,-1
10:57:21.084172,-47
10:57:21.084172,-5633
10:57:21.084172,-1
10:57:21.084172,-38
10:57:21.084172,-12545
10:57:21.084172,-1
10:57:21.084172,-28
10:57:21.084172,-4609
10:57:21.084172,-1
10:57:21.084172,-26
10:57:21.084172,-5121
10:57:21.084172,-1
10:57:21.084172,-28
10:57:21.084172,-14337
10:57:21.084172,-1
10:57:21.084172,-52
10:57:21.084172,-6401
10:57:21.084172,-1
10:57:21.084172,-26
10:57:21.084172,-6913
10:57:21.084172,-1
10:57:21.084172,-16
10:57:21.084172,-1537
10:57:21.084172,-1
10:57:21.084172,-7
10:57:21.084172,-769
10:57:21.084172,-1
10:57:21.084172,9
10:57:21.084172,0
10:57:21.084172,0
10:57:21.084172,-38
10:57:21.084172,-9985
10:57:21.084172,-1
10:57:21.084172,-14
10:57:21.084172,-3841
10:57:21.084172,-1
10:57:21.084172,-23
10:57:21.084172,767
10:57:21.084172,0
10:57:21.084172,33
10:57:21.084172,10752
10:57:21.084172,0
10:57:21.084172,28
10:57:21.084172,-512
10:57:21.084172,-1
10:57:21.084172,-9
10:57:21.684073,11
10:57:21.684073,5376
10:57:21.684073,0
10:57:21.684073,7
10:57:21.684073,-512
10:57:21.684073,-1
10:57:21.684073,4
10:57:21.684073,4864
10:57:21.684073,0
10:57:21.684073,2
10:57:21.684073,-12800
10:57:21.684073,-1
10:57:21.684073,2
10:57:21.684073,22272
10:57:21.684073,1
10:57:21.684073,777
10:57:21.684073,16896
10:57:21.684073,3
10:57:21.684073,493
10:57:21.684073,-17408
10:57:21.684073,0
10:57:21.684073,30
10:57:21.684073,-18688
10:57:21.684073,-1
10:57:21.684073,-78
10:57:21.684073,-13569
10:57:21.684073,-1
10:57:21.684073,-64
10:57:21.684073,-14849
10:57:21.684073,-1
10:57:21.684073,-50
10:57:21.684073,-17409
10:57:21.684073,-1
10:57:21.684073,-73
10:57:21.684073,-10497
10:57:21.684073,-1
10:57:21.684073,-30
10:57:21.684073,-13057
10:57:21.684073,-1
10:57:21.684073,-47
10:57:21.684073,-6401
10:57:21.684073,-1
10:57:21.684073,-23
10:57:21.684073,-5121
10:57:21.684073,-1
10:57:21.684073,-9
10:57:21.684073,767
10:57:21.684073,0
10:57:21.684073,9
10:57:21.684073,5376
10:57:21.684073,0
10:57:21.684073,45
10:57:21.684073,18688
10:57:21.684073,0
10:57:21.684073,88
10:57:21.684073,22528
10:57:21.684073,0
10:57:21.684073,88
10:57:21.684073,18688
10:57:21.684073,0
10:57:21.684073,54
10:57:21.684073,9728
10:57:21.684073,0
10:57:21.684073,16
10:57:21.684073,-512
10:57:21.684073,-1
10:57:21.684073,-7
10:57:21.684073,-2561
10:57:21.684073,-1
10:57:21.684073,-14
10:57:21.684073,-3329
10:57:21.684073,-1
10:57:21.684073,-11
10:57:21.684073,-2561
10:57:21.684073,-1
10:57:21.684073,-7
10:57:21.684073,-2561
10:57:21.684073,-1
10:57:21.684073,-30
10:57:21.684073,-5633
10:57:21.684073,-1
10:57:21.684073,0
10:57:21.684073,-2816
10:57:21.684073,-1
10:57:21.684073,-30
10:57:21.684073,-3329
10:57:21.684073,-1
10:57:21.684073,-4
10:57:21.684073,-3841
10:57:21.684073,-1
10:57:21.684073,-16
10:57:21.684073,1279
10:57:21.684073,0
10:57:21.684073,16
10:57:21.684073,2816
10:57:21.684073,0
10:57:21.684073,9
10:57:21.684073,1024
10:57:21.684073,0
10:57:21.684073,0
10:57:21.684073,0
10:57:21.684073,0
10:57:21.684073,2
10:57:21.684073,4864
10:57:21.684073,0
10:57:21.684073,38
10:57:21.684073,7680
10:57:21.684073,0
10:57:21.684073,23
10:57:22.184123,21
10:57:22.184123,1792
10:57:22.184123,0
10:57:22.184123,2
10:57:22.184123,3584
10:57:22.184123,0
10:57:22.184123,21
10:57:22.184123,4096
10:57:22.184123,0
10:57:22.184123,19
10:57:22.184123,6656
10:57:22.184123,0
10:57:22.184123,28
10:57:22.184123,-2304
10:57:22.184123,-1
10:57:22.184123,-45
10:57:22.184123,24575
10:57:22.184123,0
10:57:22.184123,481
10:57:22.184123,12544
10:57:22.184123,3
10:57:22.184123,727
10:57:22.184123,-30976
10:57:22.184123,1
10:57:22.184123,157
10:57:22.184123,-512
10:57:22.184123,-1
10:57:22.184123,-90
10:57:22.184123,-17409
10:57:22.184123,-1
10:57:22.184123,-57
10:57:22.184123,-19713
10:57:22.184123,-1
10:57:22.184123,-69
10:57:22.184123,-14337
10:57:22.184123,-1
10:57:22.184123,-54
10:57:22.184123,-12545
10:57:22.184123,-1
10:57:22.184123,-47
10:57:22.184123,-13057
10:57:22.184123,-1
10:57:22.184123,-35
10:57:22.184123,-4609
10:57:22.184123,-1
10:57:22.184123,-30
10:57:22.184123,-8705
10:57:22.184123,-1
10:57:22.184123,-16
10:57:22.184123,-4609
10:57:22.184123,-1
10:57:22.184123,-21
10:57:22.184123,1279
10:57:22.184123,0
10:57:22.184123,23
10:57:22.184123,8960
10:57:22.184123,0
10:57:22.184123,57
10:57:22.184123,18176
10:57:22.184123,0
10:57:22.184123,69
10:57:22.184123,17664
10:57:22.184123,0
10:57:22.184123,71
10:57:22.184123,13312
10:57:22.184123,0
10:57:22.184123,19
10:57:22.184123,-512
10:57:22.184123,-1
10:57:22.184123,-7
10:57:22.184123,-5121
10:57:22.184123,-1
10:57:22.184123,-40
10:57:22.184123,-9473
10:57:22.184123,-1
10:57:22.184123,-30
10:57:22.184123,-7425
10:57:22.184123,-1
10:57:22.184123,-30
10:57:22.184123,-8705
10:57:22.184123,-1
10:57:22.184123,-35
10:57:22.184123,-6913
10:57:22.184123,-1
10:57:22.184123,-21
10:57:22.184123,-5121
10:57:22.184123,-1
10:57:22.184123,-33
10:57:22.184123,-9473
10:57:22.184123,-1
10:57:22.184123,-23
10:57:22.184123,-5121
10:57:22.184123,-1
10:57:22.184123,-33
10:57:22.184123,-7425
10:57:22.184123,-1
10:57:22.184123,-21
10:57:22.184123,-5121
10:57:22.184123,-1
10:57:22.184123,-21
10:57:22.184123,-4609
10:57:22.184123,-1
10:57:22.184123,-21
10:57:22.184123,-5121
10:57:22.184123,-1
10:57:22.184123,-19
10:57:22.184123,-5633
10:57:22.184123,-1
10:57:22.184123,-16
10:57:22.783991,9
10:57:22.783991,3584
10:57:22.783991,0
10:57:22.783991,-7
10:57:22.783991,-2561
10:57:22.783991,-1
10:57:22.783991,-9
10:57:22.783991,-3329
10:57:22.783991,-1
10:57:22.783991,-19
10:57:22.783991,-257
10:57:22.783991,-1
10:57:22.783991,21
10:57:22.783991,4096
10:57:22.783991,0
10:57:22.783991,0
10:57:22.783991,-2304
10:57:22.783991,-1
10:57:22.783991,-47
10:57:22.783991,-9473
10:57:22.783991,-1
10:57:22.783991,209
10:57:22.783991,32512
10:57:22.783991,2
10:57:22.783991,841
10:57:22.783991,21504
10:57:22.783991,2
10:57:22.783991,243
10:57:22.783991,10240
10:57:22.783991,0
10:57:22.783991,-92
10:57:22.783991,32255
10:57:22.783991,-1
10:57:22.783991,-102
10:57:22.783991,-27649
10:57:22.783991,-1
10:57:22.783991,-112
10:57:22.783991,-23297
10:57:22.783991,-1
10:57:22.783991,-95
10:57:22.783991,-24577
10:57:22.783991,-1
10:57:22.783991,-85
10:57:22.783991,-19713
10:57:22.783991,-1
10:57:22.783991,-83
10:57:22.783991,-19713
10:57:22.783991,-1
10:57:22.783991,-66
10:57:22.783991,-15361
10:57:22.783991,-1
10:57:22.783991,-59
10:57:22.783991,-13569
10:57:22.783991,-1
10:57:22.783991,-42
10:57:22.783991,-8193
10:57:22.783991,-1
10:57:22.783991,-21
10:57:22.783991,255
10:57:22.783991,0
10:57:22.783991,19
10:57:22.783991,7168
10:57:22.783991,0
10:57:22.783991,42
10:57:22.783991,13312
10:57:22.783991,0
10:57:22.783991,42
10:57:22.783991,5376
10:57:22.783991,0
10:57:22.783991,4
10:57:22.783991,-2304
10:57:22.783991,-1
10:57:22.783991,-23
10:57:22.783991,-11777
10:57:22.783991,-1
10:57:22.783991,-59
10:57:22.783991,-12545
10:57:22.783991,-1
10:57:22.783991,-40
10:57:22.783991,-9985
10:57:22.783991,-1
10:57:22.783991,-40
10:57:22.783991,-10497
10:57:22.783991,-1
10:57:22.783991,-45
10:57:22.783991,-11265
10:57:22.783991,-1
10:57:22.783991,-45
10:57:22.783991,-10497
10:57:22.783991,-1
10:57:22.783991,-38
10:57:22.783991,-8705
10:57:22.783991,-1
10:57:22.783991,-30
10:57:22.783991,-7425
10:57:22.783991,-1
10:57:22.783991,-30
10:57:22.783991,-5633
10:57:22.783991,-1
10:57:22.783991,-16
10:57:22.783991,-5121
10:57:22.783991,-1
10:57:22.783991,-26
10:57:22.783991,-2561
10:57:22.783991,-1
10:57:22.783991,-7
10:57:22.783991,-6401
10:57:22.783991,-1
10:57:22.783991,-38
10:57:23.383982,-40
10:57:23.383982,-10497
10:57:23.383982,-1
10:57:23.383982,-28
10:57:23.383982,-257
10:57:23.383982,-1
10:57:23.383982,9
10:57:23.383982,2304
10:57:23.383982,0
10:57:23.383982,-4
10:57:23.383982,-3841
10:57:23.383982,-1
10:57:23.383982,-11
10:57:23.383982,-2049
10:57:23.383982,-1
10:57:23.383982,-9
10:57:23.383982,-1537
10:57:23.383982,-1
10:57:23.383982,7
10:57:23.383982,5376
10:57:23.383982,0
10:57:23.383982,-4
10:57:23.383982,-14337
10:57:23.383982,-1
10:57:23.383982,0
10:57:23.383982,8704
10:57:23.383982,1
10:57:23.383982,691
10:57:23.383982,8960
10:57:23.383982,3
10:57:23.383982,526
10:57:23.383982,-7680
10:57:23.383982,0
10:57:23.383982,40
10:57:23.383982,-24832
10:57:23.383982,-1
10:57:23.383982,-114
10:57:23.383982,-20481
10:57:23.383982,-1
10:57:23.383982,-95
10:57:23.383982,-25857
10:57:23.383982,-1
10:57:23.383982,-83
10:57:23.383982,-19713
10:57:23.383982,-1
10:57:23.383982,-83
10:57:23.383982,-18433
10:57:23.383982,-1
10:57:23.383982,-66
10:57:23.383982,-16641
10:57:23.383982,-1
10:57:23.383982,-59
10:57:23.383982,-13057
10:57:23.383982,-1
10:57:23.383982,-54
10:57:23.383982,-11777
10:57:23.383982,-1
10:57:23.383982,-33
10:57:23.383982,-4609
10:57:23.383982,-1
10:57:23.383982,-7
10:57:23.383982,1279
10:57:23.383982,0
10:57:23.383982,16
10:57:23.383982,8448
10:57:23.383982,0
10:57:23.383982,52
10:57:23.383982,16896
10:57:23.383982,0
10:57:23.383982,71
10:57:23.383982,16896
10:57:23.383982,0
10:57:23.383982,42
10:57:23.383982,2816
10:57:23.383982,0
10:57:23.383982,-9
10:57:23.383982,-5121
10:57:23.383982,-1
10:57:23.383982,-30
10:57:23.383982,-9985
10:57:23.383982,-1
10:57:23.383982,-42
10:57:23.383982,-10497
10:57:23.383982,-1
10:57:23.383982,-42
10:57:23.383982,-9473
10:57:23.383982,-1
10:57:23.383982,-38
10:57:23.383982,-9985
10:57:23.383982,-1
10:57:23.383982,-40
10:57:23.383982,-9985
10:57:23.383982,-1
10:57:23.383982,-35
10:57:23.383982,-6913
10:57:23.383982,-1
10:57:23.383982,-23
10:57:23.383982,-5121
10:57:23.383982,-1
10:57:23.383982,-26
10:57:23.383982,-6401
10:57:23.383982,-1
10:57:23.383982,-21
10:57:23.383982,-3841
10:57:23.383982,-1
10:57:23.383982,-14
10:57:23.383982,-1537
10:57:23.383982,-1
10:57:23.383982,-9
10:57:23.884243,-14
10:57:23.884243,-5121
10:57:23.884243,-1
10:57:23.884243,-26
10:57:23.884243,-5121
10:57:23.884243,-1
10:57:23.884243,-2
10:57:23.884243,5119
10:57:23.884243,0
10:57:23.884243,26
10:57:23.884243,4096
10:57:23.884243,0
10:57:23.884243,-2
10:57:23.884243,-769
10:57:23.884243,-1
10:57:23.884243,4
10:57:23.884243,1792
10:57:23.884243,0
10:57:23.884243,4
10:57:23.884243,2304
10:57:23.884243,0
10:57:23.884243,11
10:57:23.884243,-1792
10:57:23.884243,-1
10:57:23.884243,-45
10:57:23.884243,-9985
10:57:23.884243,-1
10:57:23.884243,128
10:57:23.884243,-5376
10:57:23.884243,1
10:57:23.884243,755
10:57:23.884243,27392
10:57:23.884243,2
10:57:23.884243,340
10:57:23.884243,-22272
10:57:23.884243,0
10:57:23.884243,-14
10:57:23.884243,-27649
10:57:23.884243,-1
10:57:23.884243,-66
10:57:23.884243,-17409
10:57:23.884243,-1
10:57:23.884243,-100
10:57:23.884243,-19713
10:57:23.884243,-1
10:57:23.884243,-59
10:57:23.884243,-15361
10:57:23.884243,-1
10:57:23.884243,-61
10:57:23.884243,-14849
10:57:23.884243,-1
10:57:23.884243,-61
10:57:23.884243,-13569
10:57:23.884243,-1
10:57:23.884243,-45
10:57:23.884243,-10497
10:57:23.884243,-1
10:57:23.884243,-40
10:57:23.884243,-7425
10:57:23.884243,-1
10:57:23.884243,-21
10:57:23.884243,-2049
10:57:23.884243,-1
10:57:23.884243,7
10:57:23.884243,6656
10:57:23.884243,0
10:57:23.884243,38
10:57:23.884243,11520
10:57:23.884243,0
10:57:23.884243,54
10:57:23.884243,17664
10:57:23.884243,0
10:57:23.884243,71
10:57:23.884243,13312
10:57:23.884243,0
10:57:23.884243,26
10:57:23.884243,1024
10:57:23.884243,0
10:57:23.884243,-14
10:57:23.884243,-5633
10:57:23.884243,-1
10:57:23.884243,-28
10:57:23.884243,-8705
10:57:23.884243,-1
10:57:23.884243,-38
10:57:23.884243,-9473
10:57:23.884243,-1
10:57:23.884243,-40
10:57:23.884243,-9985
10:57:23.884243,-1
10:57:23.884243,-42
10:57:23.884243,-10497
10:57:23.884243,-1
10:57:23.884243,-40
10:57:23.884243,-9473
10:57:23.884243,-1
10:57:23.884243,-38
10:57:23.884243,-9985
10:57:23.884243,-1
10:57:23.884243,-35
10:57:23.884243,-8193
10:57:23.884243,-1
10:57:23.884243,-33
10:57:23.884243,-6401
10:57:23.884243,-1
10:57:23.884243,-19
10:57:23.884243,-3841
10:57:23.884243,-1
10:57:23.884243,-14
10:57:24.433252,-7
10:57:24.433252,-769
10:57:24.433252,-1
10:57:24.433252,-2
10:57:24.433252,-1537
10:57:24.433252,-1
10:57:24.433252,-14
10:57:24.433252,-3329
10:57:24.433252,-1
10:57:24.433252,-19
10:57:24.433252,-3841
10:57:24.433252,-1
10:57:24.433252,9
10:57:24.433252,10240
10:57:24.433252,0
10:57:24.433252,47
10:57:24.433252,7680
10:57:24.433252,0
10:57:24.433252,14
10:57:24.433252,2816
10:57:24.433252,0
10:57:24.433252,11
10:57:24.433252,2816
10:57:24.433252,0
10:57:24.433252,16
10:57:24.433252,4864
10:57:24.433252,0
10:57:24.433252,11
10:57:24.433252,0
10:57:24.433252,0
10:57:24.433252,-33
10:57:24.433252,-14337
10:57:24.433252,-1
10:57:24.433252,83
10:57:24.433252,-6144
10:57:24.433252,1
10:57:24.433252,913
10:57:24.433252,25344
10:57:24.433252,3
10:57:24.433252,431
10:57:24.433252,29184
10:57:24.433252,0
10:57:24.433252,-28
10:57:24.433252,-30209
10:57:24.433252,-1
10:57:24.433252,-119
10:57:24.433252,-23297
10:57:24.433252,-1
10:57:24.433252,-107
10:57:24.433252,-27649
10:57:24.433252,-1
10:57:24.433252,-95
10:57:24.433252,-22273
10:57:24.433252,-1
10:57:24.433252,-83
10:57:24.433252,-20993
10:57:24.433252,-1
10:57:24.433252,-88
10:57:24.433252,-19713
10:57:24.433252,-1
10:57:24.433252,-64
10:57:24.433252,-16641
10:57:24.433252,-1
10:57:24.433252,-64
10:57:24.433252,-11777
10:57:24.433252,-1
10:57:24.433252,-42
10:57:24.433252,-10497
10:57:24.433252,-1
10:57:24.433252,-28
10:57:24.433252,-1537
10:57:24.433252,-1
10:57:24.433252,9
10:57:24.433252,6656
10:57:24.433252,0
10:57:24.433252,35
10:57:24.433252,11520
10:57:24.433252,0
10:57:24.433252,50
10:57:24.433252,10752
10:57:24.433252,0
10:57:24.433252,21
10:57:24.433252,-512
10:57:24.433252,-1
10:57:24.433252,-19
10:57:24.433252,-8705
10:57:24.433252,-1
10:57:24.433252,-47
10:57:24.433252,-12545
10:57:24.433252,-1
10:57:24.433252,-50
10:57:24.433252,-11777
10:57:24.433252,-1
10:57:24.433252,-47
10:57:24.433252,-11777
10:57:24.433252,-1
10:57:24.433252,-42
10:57:24.433252,-9985
10:57:24.433252,-1
10:57:24.433252,-40
10:57:24.433252,-9473
10:57:24.433252,-1
10:57:24.433252,-33
10:57:24.433252,-8705
10:57:24.433252,-1
10:57:24.433252,-40
10:57:24.433252,-9985
10:57:24.433252,-1
10:57:24.433252,-38
10:57:24.985316,-35
10:57:24.985316,-7425
10:57:24.985316,-1
10:57:24.985316,-30
10:57:24.985316,-8193
10:57:24.985316,-1
10:57:24.985316,-26
10:57:24.985316,-4609
10:57:24.985316,-1
10:57:24.985316,-21
10:57:24.985316,-5121
10:57:24.985316,-1
10:57:24.985316,-7
10:57:24.985316,767
10:57:24.985316,0
10:57:24.985316,0
10:57:24.985316,2304
10:57:24.985316,0
10:57:24.985316,33
10:57:24.985316,9728
10:57:24.985316,0
10:57:24.985316,35
10:57:24.985316,6656
10:57:24.985316,0
10:57:24.985316,11
10:57:24.985316,3584
10:57:24.985316,0
10:57:24.985316,26
10:57:24.985316,5376
10:57:24.985316,0
10:57:24.985316,19
10:57:24.985316,6656
10:57:24.985316,0
10:57:24.985316,23
10:57:24.985316,-512
10:57:24.985316,-1
10:57:24.985316,-38
10:57:24.985316,-2049
10:57:24.985316,-1
10:57:24.985316,238
10:57:24.985316,-24064
10:57:24.985316,2
10:57:24.985316,903
10:57:24.985316,-30720
10:57:24.985316,2
10:57:24.985316,269
10:57:24.985316,16896
10:57:24.985316,0
10:57:24.985316,-64
10:57:24.985316,-30721
10:57:24.985316,-1
10:57:24.985316,-90
10:57:24.985316,-21505
10:57:24.985316,-1
10:57:24.985316,-100
10:57:24.985316,-22273
10:57:24.985316,-1
10:57:24.985316,-81
10:57:24.985316,-22273
10:57:24.985316,-1
10:57:24.985316,-78
10:57:24.985316,-17409
10:57:24.985316,-1
10:57:24.985316,-69
10:57:24.985316,-15361
10:57:24.985316,-1
10:57:24.985316,-54
10:57:24.985316,-14337
10:57:24.985316,-1
10:57:24.985316,-52
10:57:24.985316,-8705
10:57:24.985316,-1
10:57:24.985316,-23
10:57:24.985316,-3841
10:57:24.985316,-1
10:57:24.985316,-4
10:57:24.985316,3071
10:57:24.985316,0
10:57:24.985316,28
10:57:24.985316,11520
10:57:24.985316,0
10:57:24.985316,64
10:57:24.985316,17664
10:57:24.985316,0
10:57:24.985316,64
10:57:24.985316,12032
10:57:24.985316,0
10:57:24.985316,19
10:57:24.985316,-2304
10:57:24.985316,-1
10:57:24.985316,-21
10:57:24.985316,-6913
10:57:24.985316,-1
10:57:24.985316,-40
10:57:24.985316,-10497
10:57:24.985316,-1
10:57:24.985316,-40
10:57:24.985316,-11265
10:57:24.985316,-1
10:57:24.985316,-42
10:57:24.985316,-8705
10:57:24.985316,-1
10:57:24.985316,-33
10:57:24.985316,-7425
10:57:24.985316,-1
10:57:24.985316,-30
10:57:24.985316,-8705
10:57:24.985316,-1
10:57:24.985316,-40
10:57:25.533130,-38
10:57:25.533130,-7425
10:57:25.533130,-1
10:57:25.533130,-30
10:57:25.533130,-8193
10:57:25.533130,-1
10:57:25.533130,-28
10:57:25.533130,-5633
10:57:25.533130,-1
10:57:25.533130,-14
10:57:25.533130,1279
10:57:25.533130,0
10:57:25.533130,9
10:57:25.533130,1792
10:57:25.533130,0
10:57:25.533130,14
10:57:25.533130,5376
10:57:25.533130,0
10:57:25.533130,19
10:57:25.533130,2304
10:57:25.533130,0
10:57:25.533130,7
10:57:25.533130,2816
10:57:25.533130,0
10:57:25.533130,9
10:57:25.533130,2816
10:57:25.533130,0
10:57:25.533130,30
10:57:25.533130,13312
10:57:25.533130,0
10:57:25.533130,52
10:57:25.533130,10240
10:57:25.533130,0
10:57:25.533130,33
10:57:25.533130,6656
10:57:25.533130,0
10:57:25.533130,26
10:57:25.533130,7680
10:57:25.533130,0
10:57:25.533130,26
10:57:25.533130,4864
10:57:25.533130,0
10:57:25.533130,19
10:57:25.533130,3584
10:57:25.533130,0
10:57:25.533130,-21
10:57:25.533130,-10497
10:57:25.533130,-1
10:57:25.533130,92
10:57:25.533130,-11008
10:57:25.533130,1
10:57:25.533130,844
10:57:25.533130,7680
10:57:25.533130,3
10:57:25.533130,426
10:57:25.533130,-28928
10:57:25.533130,0
10:57:25.533130,-19
10:57:25.533130,-28417
10:57:25.533130,-1
10:57:25.533130,-102
10:57:25.533130,-20481
10:57:25.533130,-1
10:57:25.533130,-95
10:57:25.533130,-24065
10:57:25.533130,-1
10:57:25.533130,-85
10:57:25.533130,-20481
10:57:25.533130,-1
10:57:25.533130,-76
10:57:25.533130,-17409
10:57:25.533130,-1
10:57:25.533130,-64
10:57:25.533130,-15361
10:57:25.533130,-1
10:57:25.533130,-54
10:57:25.533130,-11777
10:57:25.533130,-1
10:57:25.533130,-40
10:57:25.533130,-8705
10:57:25.533130,-1
10:57:25.533130,-26
10:57:25.533130,-5121
10:57:25.533130,-1
10:57:25.533130,-14
10:57:25.533130,767
10:57:25.533130,0
10:57:25.533130,26
10:57:25.533130,10752
10:57:25.533130,0
10:57:25.533130,54
10:57:25.533130,16384
10:57:25.533130,0
10:57:25.533130,66
10:57:25.533130,15104
10:57:25.533130,0
10:57:25.533130,35
10:57:25.533130,1792
10:57:25.533130,0
10:57:25.533130,-11
10:57:25.533130,-6401
10:57:25.533130,-1
10:57:25.533130,-40
10:57:25.533130,-11265
10:57:25.533130,-1
10:57:25.533130,-42
10:57:25.533130,-11265
10:57:25.533130,-1
10:57:25.533130,-45
10:57:26.134884,-42
10:57:26.134884,-9985
10:57:26.134884,-1
10:57:26.134884,-38
10:57:26.134884,-6913
10:57:26.134884,-1
10:57:26.134884,-23
10:57:26.134884,-5121
10:57:26.134884,-1
10:57:26.134884,-9
10:57:26.134884,767
10:57:26.134884,0
10:57:26.134884,-2
10:57:26.134884,-2049
10:57:26.134884,-1
10:57:26.134884,-4
10:57:26.134884,-257
10:57:26.134884,-1
10:57:26.134884,4
10:57:26.134884,1792
10:57:26.134884,0
10:57:26.134884,0
10:57:26.134884,512
10:57:26.134884,0
10:57:26.134884,14
10:57:26.134884,4096
10:57:26.134884,0
10:57:26.134884,11
10:57:26.134884,1792
10:57:26.134884,0
10:57:26.134884,4
10:57:26.134884,512
10:57:26.134884,0
10:57:26.134884,-2
10:57:26.134884,767
10:57:26.134884,0
10:57:26.134884,23
10:57:26.134884,11520
10:57:26.134884,0
10:57:26.134884,47
10:57:26.134884,8960
10:57:26.134884,0
10:57:26.134884,23
10:57:26.134884,3584
10:57:26.134884,0
10:57:26.134884,9
10:57:26.134884,4096
10:57:26.134884,0
10:57:26.134884,23
10:57:26.134884,5376
10:57:26.134884,0
10:57:26.134884,16
10:57:26.134884,2304
10:57:26.134884,0
10:57:26.134884,-23
10:57:26.134884,-11265
10:57:26.134884,-1
10:57:26.134884,95
10:57:26.134884,-12800
10:57:26.134884,1
10:57:26.134884,786
10:57:26.134884,-15360
10:57:26.134884,2
10:57:26.134884,398
10:57:26.134884,-19200
10:57:26.134884,0
10:57:26.134884,0
10:57:26.134884,-27392
10:57:26.134884,-1
10:57:26.134884,-78
10:57:26.134884,-16641
10:57:26.134884,-1
10:57:26.134884,-97
10:57:26.134884,-22785
10:57:26.134884,-1
10:57:26.134884,-66
10:57:26.134884,-16641
10:57:26.134884,-1
10:57:26.134884,-69
10:57:26.134884,-15361
10:57:26.134884,-1
10:57:26.134884,-57
10:57:26.134884,-14337
10:57:26.134884,-1
10:57:26.134884,-47
10:57:26.134884,-9985
10:57:26.134884,-1
10:57:26.134884,-38
10:57:26.134884,-8193
10:57:26.134884,-1
10:57:26.134884,-23
10:57:26.134884,-3329
10:57:26.134884,-1
10:57:26.134884,-4
10:57:26.134884,2559
10:57:26.134884,0
10:57:26.134884,26
10:57:26.134884,10752
10:57:26.134884,0
10:57:26.134884,57
10:57:26.134884,16896
10:57:26.134884,0
10:57:26.134884,71
10:57:26.134884,16896
10:57:26.134884,0
10:57:26.134884,50
