timestamp,ecg,reconstructed_time
2025-11-07 10:56:55.833033,-30,2025-11-07 10:56:55.833033000
2025-11-07 10:56:55.833033,-6913,2025-11-07 10:56:55.840725308
2025-11-07 10:56:55.833033,-1,2025-11-07 10:56:55.848417615
2025-11-07 10:56:55.833033,-21,2025-11-07 10:56:55.856109923
2025-11-07 10:56:55.833033,-1537,2025-11-07 10:56:55.863802231
2025-11-07 10:56:55.833033,-1,2025-11-07 10:56:55.871494538
2025-11-07 10:56:55.833033,2,2025-11-07 10:56:55.879186846
2025-11-07 10:56:55.833033,512,2025-11-07 10:56:55.886879154
2025-11-07 10:56:55.833033,0,2025-11-07 10:56:55.894571462
2025-11-07 10:56:55.833033,0,2025-11-07 10:56:55.902263769
2025-11-07 10:56:55.833033,-512,2025-11-07 10:56:55.909956077
2025-11-07 10:56:55.833033,-1,2025-11-07 10:56:55.917648385
2025-11-07 10:56:55.833033,-4,2025-11-07 10:56:55.925340692
2025-11-07 10:56:55.833033,255,2025-11-07 10:56:55.933033000
2025-11-07 10:56:55.833033,0,2025-11-07 10:56:55.940725308
2025-11-07 10:56:55.833033,2,2025-11-07 10:56:55.948417615
2025-11-07 10:56:55.833033,-512,2025-11-07 10:56:55.956109923
2025-11-07 10:56:55.833033,-1,2025-11-07 10:56:55.963802231
2025-11-07 10:56:55.833033,-11,2025-11-07 10:56:55.971494538
2025-11-07 10:56:55.833033,-3841,2025-11-07 10:56:55.979186846
2025-11-07 10:56:55.833033,-1,2025-11-07 10:56:55.986879154
2025-11-07 10:56:55.833033,-16,2025-11-07 10:56:55.994571462
2025-11-07 10:56:55.833033,-2561,2025-11-07 10:56:56.002263769
2025-11-07 10:56:55.833033,-1,2025-11-07 10:56:56.009956077
2025-11-07 10:56:55.833033,0,2025-11-07 10:56:56.017648385
2025-11-07 10:56:55.833033,3584,2025-11-07 10:56:56.025340692
2025-11-07 10:56:55.833033,0,2025-11-07 10:56:56.033033000
2025-11-07 10:56:55.833033,19,2025-11-07 10:56:56.040725308
2025-11-07 10:56:55.833033,4864,2025-11-07 10:56:56.048417615
2025-11-07 10:56:55.833033,0,2025-11-07 10:56:56.056109923
2025-11-07 10:56:55.833033,11,2025-11-07 10:56:56.063802231
2025-11-07 10:56:55.833033,0,2025-11-07 10:56:56.071494538
2025-11-07 10:56:55.833033,0,2025-11-07 10:56:56.079186846
2025-11-07 10:56:55.833033,-14,2025-11-07 10:56:56.086879154
2025-11-07 10:56:55.833033,-4609,2025-11-07 10:56:56.094571462
2025-11-07 10:56:55.833033,-1,2025-11-07 10:56:56.102263769
2025-11-07 10:56:55.833033,-11,2025-11-07 10:56:56.109956077
2025-11-07 10:56:55.833033,-2049,2025-11-07 10:56:56.117648385
2025-11-07 10:56:55.833033,-1,2025-11-07 10:56:56.125340692
2025-11-07 10:56:55.833033,-9,2025-11-07 10:56:56.133033000
2025-11-07 10:56:55.833033,-1537,2025-11-07 10:56:56.140725308
2025-11-07 10:56:55.833033,-1,2025-11-07 10:56:56.148417615
2025-11-07 10:56:55.833033,-11,2025-11-07 10:56:56.156109923
2025-11-07 10:56:55.833033,-11265,2025-11-07 10:56:56.163802231
2025-11-07 10:56:55.833033,-1,2025-11-07 10:56:56.171494538
2025-11-07 10:56:55.833033,-61,2025-11-07 10:56:56.179186846
2025-11-07 10:56:55.833033,18943,2025-11-07 10:56:56.186879154
2025-11-07 10:56:55.833033,0,2025-11-07 10:56:56.194571462
2025-11-07 10:56:55.833033,419,2025-11-07 10:56:56.202263769
2025-11-07 10:56:55.833033,-15360,2025-11-07 10:56:56.209956077
2025-11-07 10:56:55.833033,2,2025-11-07 10:56:56.217648385
2025-11-07 10:56:55.833033,622,2025-11-07 10:56:56.225340692
2025-11-07 10:56:55.833033,21504,2025-11-07 10:56:56.233033000
2025-11-07 10:56:55.833033,1,2025-11-07 10:56:56.240725308
2025-11-07 10:56:55.833033,145,2025-11-07 10:56:56.248417615
2025-11-07 10:56:55.833033,-4096,2025-11-07 10:56:56.256109923
2025-11-07 10:56:55.833033,-1,2025-11-07 10:56:56.263802231
2025-11-07 10:56:55.833033,-114,2025-11-07 10:56:56.271494538
2025-11-07 10:56:55.833033,-24065,2025-11-07 10:56:56.279186846
2025-11-07 10:56:55.833033,-1,2025-11-07 10:56:56.286879154
2025-11-07 10:56:55.833033,-83,2025-11-07 10:56:56.294571462
2025-11-07 10:56:55.833033,-25857,2025-11-07 10:56:56.302263769
2025-11-07 10:56:55.833033,-1,2025-11-07 10:56:56.309956077
2025-11-07 10:56:55.833033,-92,2025-11-07 10:56:56.317648385
2025-11-07 10:56:55.833033,-20481,2025-11-07 10:56:56.325340692
2025-11-07 10:56:55.833033,-1,2025-11-07 10:56:56.333033000
2025-11-07 10:56:55.833033,-78,2025-11-07 10:56:56.340725308
2025-11-07 10:56:55.833033,-17409,2025-11-07 10:56:56.348417615
2025-11-07 10:56:55.833033,-1,2025-11-07 10:56:56.356109923
2025-11-07 10:56:55.833033,-64,2025-11-07 10:56:56.363802230
2025-11-07 10:56:55.833033,-16129,2025-11-07 10:56:56.371494538
2025-11-07 10:56:55.833033,-1,2025-11-07 10:56:56.379186846
2025-11-07 10:56:55.833033,-57,2025-11-07 10:56:56.386879154
2025-11-07 10:56:55.833033,-12545,2025-11-07 10:56:56.394571462
2025-11-07 10:56:55.833033,-1,2025-11-07 10:56:56.402263769
2025-11-07 10:56:55.833033,-50,2025-11-07 10:56:56.409956077
2025-11-07 10:56:55.833033,-11265,2025-11-07 10:56:56.417648385
2025-11-07 10:56:55.833033,-1,2025-11-07 10:56:56.425340692
2025-11-07 10:56:55.833033,-33,2025-11-07 10:56:56.433033000
2025-11-07 10:56:55.833033,-6401,2025-11-07 10:56:56.440725308
2025-11-07 10:56:55.833033,-1,2025-11-07 10:56:56.448417615
2025-11-07 10:56:55.833033,-23,2025-11-07 10:56:56.456109923
2025-11-07 10:56:55.833033,-3841,2025-11-07 10:56:56.463802231
2025-11-07 10:56:55.833033,-1,2025-11-07 10:56:56.471494538
2025-11-07 10:56:55.833033,4,2025-11-07 10:56:56.479186846
2025-11-07 10:56:55.833033,6656,2025-11-07 10:56:56.486879154
2025-11-07 10:56:55.833033,0,2025-11-07 10:56:56.494571462
2025-11-07 10:56:55.833033,40,2025-11-07 10:56:56.502263769
2025-11-07 10:56:55.833033,14592,2025-11-07 10:56:56.509956077
2025-11-07 10:56:55.833033,0,2025-11-07 10:56:56.517648385
2025-11-07 10:56:55.833033,71,2025-11-07 10:56:56.525340692
2025-11-07 10:56:55.833033,19456,2025-11-07 10:56:56.533033000
2025-11-07 10:56:55.833033,0,2025-11-07 10:56:56.540725308
2025-11-07 10:56:55.833033,73,2025-11-07 10:56:56.548417615
2025-11-07 10:56:55.833033,16384,2025-11-07 10:56:56.556109923
2025-11-07 10:56:55.833033,0,2025-11-07 10:56:56.563802231
2025-11-07 10:56:55.833033,42,2025-11-07 10:56:56.571494538
2025-11-07 10:56:55.833033,4096,2025-11-07 10:56:56.579186846
2025-11-07 10:56:55.833033,0,2025-11-07 10:56:56.586879154
2025-11-07 10:56:55.833033,-9,2025-11-07 10:56:56.594571462
2025-11-07 10:56:55.833033,-8193,2025-11-07 10:56:56.602263769
2025-11-07 10:56:55.833033,-1,2025-11-07 10:56:56.609956077
2025-11-07 10:56:55.833033,-42,2025-11-07 10:56:56.617648385
2025-11-07 10:56:55.833033,-10497,2025-11-07 10:56:56.625340692
2025-11-07 10:56:55.833033,-1,2025-11-07 10:56:56.633033000
2025-11-07 10:56:55.833033,-45,2025-11-07 10:56:56.640725308
2025-11-07 10:56:55.833033,-12545,2025-11-07 10:56:56.648417615
2025-11-07 10:56:55.833033,-1,2025-11-07 10:56:56.656109923
2025-11-07 10:56:55.833033,-45,2025-11-07 10:56:56.663802231
2025-11-07 10:56:56.433429,-40,2025-11-07 10:56:56.671494538
2025-11-07 10:56:56.433429,-9985,2025-11-07 10:56:56.679186846
2025-11-07 10:56:56.433429,-1,2025-11-07 10:56:56.686879154
2025-11-07 10:56:56.433429,-40,2025-11-07 10:56:56.694571462
2025-11-07 10:56:56.433429,-9473,2025-11-07 10:56:56.702263769
2025-11-07 10:56:56.433429,-1,2025-11-07 10:56:56.709956077
2025-11-07 10:56:56.433429,-38,2025-11-07 10:56:56.717648385
2025-11-07 10:56:56.433429,-7425,2025-11-07 10:56:56.725340692
2025-11-07 10:56:56.433429,-1,2025-11-07 10:56:56.733033000
2025-11-07 10:56:56.433429,-26,2025-11-07 10:56:56.740725308
2025-11-07 10:56:56.433429,-7425,2025-11-07 10:56:56.748417615
2025-11-07 10:56:56.433429,-1,2025-11-07 10:56:56.756109923
2025-11-07 10:56:56.433429,-19,2025-11-07 10:56:56.763802231
2025-11-07 10:56:56.433429,255,2025-11-07 10:56:56.771494538
2025-11-07 10:56:56.433429,0,2025-11-07 10:56:56.779186846
2025-11-07 10:56:56.433429,-4,2025-11-07 10:56:56.786879154
2025-11-07 10:56:56.433429,-2561,2025-11-07 10:56:56.794571462
2025-11-07 10:56:56.433429,-1,2025-11-07 10:56:56.802263769
2025-11-07 10:56:56.433429,-2,2025-11-07 10:56:56.809956077
2025-11-07 10:56:56.433429,767,2025-11-07 10:56:56.817648385
2025-11-07 10:56:56.433429,0,2025-11-07 10:56:56.825340692
2025-11-07 10:56:56.433429,2,2025-11-07 10:56:56.833033000
2025-11-07 10:56:56.433429,3584,2025-11-07 10:56:56.840725308
2025-11-07 10:56:56.433429,0,2025-11-07 10:56:56.848417615
2025-11-07 10:56:56.433429,19,2025-11-07 10:56:56.856109923
2025-11-07 10:56:56.433429,1024,2025-11-07 10:56:56.863802231
2025-11-07 10:56:56.433429,0,2025-11-07 10:56:56.871494538
2025-11-07 10:56:56.433429,-4,2025-11-07 10:56:56.879186846
2025-11-07 10:56:56.433429,255,2025-11-07 10:56:56.886879154
2025-11-07 10:56:56.433429,0,2025-11-07 10:56:56.894571462
2025-11-07 10:56:56.433429,9,2025-11-07 10:56:56.902263769
2025-11-07 10:56:56.433429,1024,2025-11-07 10:56:56.909956077
2025-11-07 10:56:56.433429,0,2025-11-07 10:56:56.917648385
2025-11-07 10:56:56.433429,-9,2025-11-07 10:56:56.925340692
2025-11-07 10:56:56.433429,-3841,2025-11-07 10:56:56.933033000
2025-11-07 10:56:56.433429,-1,2025-11-07 10:56:56.940725308
2025-11-07 10:56:56.433429,-4,2025-11-07 10:56:56.948417615
2025-11-07 10:56:56.433429,3839,2025-11-07 10:56:56.956109923
2025-11-07 10:56:56.433429,0,2025-11-07 10:56:56.963802231
2025-11-07 10:56:56.433429,21,2025-11-07 10:56:56.971494538
2025-11-07 10:56:56.433429,7680,2025-11-07 10:56:56.979186846
2025-11-07 10:56:56.433429,0,2025-11-07 10:56:56.986879154
2025-11-07 10:56:56.433429,45,2025-11-07 10:56:56.994571462
2025-11-07 10:56:56.433429,8960,2025-11-07 10:56:57.002263769
2025-11-07 10:56:56.433429,0,2025-11-07 10:56:57.009956077
2025-11-07 10:56:56.433429,7,2025-11-07 10:56:57.017648385
2025-11-07 10:56:56.433429,512,2025-11-07 10:56:57.025340692
2025-11-07 10:56:56.433429,0,2025-11-07 10:56:57.033033000
2025-11-07 10:56:56.433429,16,2025-11-07 10:56:57.040725308
2025-11-07 10:56:56.433429,5376,2025-11-07 10:56:57.048417615
2025-11-07 10:56:56.433429,0,2025-11-07 10:56:57.056109923
2025-11-07 10:56:56.433429,16,2025-11-07 10:56:57.063802231
2025-11-07 10:56:56.433429,2304,2025-11-07 10:56:57.071494538
2025-11-07 10:56:56.433429,0,2025-11-07 10:56:57.079186846
2025-11-07 10:56:56.433429,4,2025-11-07 10:56:57.086879154
2025-11-07 10:56:56.433429,0,2025-11-07 10:56:57.094571462
2025-11-07 10:56:56.433429,0,2025-11-07 10:56:57.102263769
2025-11-07 10:56:56.433429,-23,2025-11-07 10:56:57.109956077
2025-11-07 10:56:56.433429,-11265,2025-11-07 10:56:57.117648385
2025-11-07 10:56:56.433429,-1,2025-11-07 10:56:57.125340692
2025-11-07 10:56:56.433429,71,2025-11-07 10:56:57.133033000
2025-11-07 10:56:56.433429,-23808,2025-11-07 10:56:57.140725308
2025-11-07 10:56:56.433429,1,2025-11-07 10:56:57.148417615
2025-11-07 10:56:56.433429,789,2025-11-07 10:56:57.156109923
2025-11-07 10:56:56.433429,1024,2025-11-07 10:56:57.163802231
2025-11-07 10:56:56.433429,3,2025-11-07 10:56:57.171494538
2025-11-07 10:56:56.433429,417,2025-11-07 10:56:57.179186846
2025-11-07 10:56:56.433429,-31488,2025-11-07 10:56:57.186879154
2025-11-07 10:56:56.433429,0,2025-11-07 10:56:57.194571462
2025-11-07 10:56:56.433429,-21,2025-11-07 10:56:57.202263769
2025-11-07 10:56:56.433429,-28417,2025-11-07 10:56:57.209956077
2025-11-07 10:56:56.433429,-1,2025-11-07 10:56:57.217648385
2025-11-07 10:56:56.433429,-104,2025-11-07 10:56:57.225340692
2025-11-07 10:56:56.433429,-21505,2025-11-07 10:56:57.233033000
2025-11-07 10:56:56.433429,-1,2025-11-07 10:56:57.240725308
2025-11-07 10:56:56.433429,-100,2025-11-07 10:56:57.248417615
2025-11-07 10:56:56.433429,-24065,2025-11-07 10:56:57.256109923
2025-11-07 10:56:56.433429,-1,2025-11-07 10:56:57.263802231
2025-11-07 10:56:56.433429,-78,2025-11-07 10:56:57.271494538
2025-11-07 10:56:56.433429,-19201,2025-11-07 10:56:57.279186846
2025-11-07 10:56:56.433429,-1,2025-11-07 10:56:57.286879154
2025-11-07 10:56:56.433429,-66,2025-11-07 10:56:57.294571462
2025-11-07 10:56:56.433429,-14337,2025-11-07 10:56:57.302263769
2025-11-07 10:56:56.433429,-1,2025-11-07 10:56:57.309956077
2025-11-07 10:56:56.433429,-66,2025-11-07 10:56:57.317648385
2025-11-07 10:56:56.433429,-18433,2025-11-07 10:56:57.325340692
2025-11-07 10:56:56.433429,-1,2025-11-07 10:56:57.333033000
2025-11-07 10:56:56.433429,-57,2025-11-07 10:56:57.340725308
2025-11-07 10:56:56.433429,-11265,2025-11-07 10:56:57.348417615
2025-11-07 10:56:56.433429,-1,2025-11-07 10:56:57.356109923
2025-11-07 10:56:56.433429,-45,2025-11-07 10:56:57.363802230
2025-11-07 10:56:56.433429,-8705,2025-11-07 10:56:57.371494538
2025-11-07 10:56:56.433429,-1,2025-11-07 10:56:57.379186846
2025-11-07 10:56:56.433429,-28,2025-11-07 10:56:57.386879154
2025-11-07 10:56:56.433429,-5633,2025-11-07 10:56:57.394571462
2025-11-07 10:56:56.433429,-1,2025-11-07 10:56:57.402263769
2025-11-07 10:56:56.433429,-2,2025-11-07 10:56:57.409956077
2025-11-07 10:56:56.433429,4351,2025-11-07 10:56:57.417648385
2025-11-07 10:56:56.433429,0,2025-11-07 10:56:57.425340692
2025-11-07 10:56:56.433429,21,2025-11-07 10:56:57.433033000
2025-11-07 10:56:56.433429,7680,2025-11-07 10:56:57.440725308
2025-11-07 10:56:56.433429,0,2025-11-07 10:56:57.448417615
2025-11-07 10:56:56.433429,52,2025-11-07 10:56:57.456109923
2025-11-07 10:56:56.433429,16384,2025-11-07 10:56:57.463802231
2025-11-07 10:56:56.433429,0,2025-11-07 10:56:57.471494538
2025-11-07 10:56:56.433429,69,2025-11-07 10:56:57.479186846
2025-11-07 10:56:56.433429,20736,2025-11-07 10:56:57.486879154
2025-11-07 10:56:56.433429,0,2025-11-07 10:56:57.494571462
2025-11-07 10:56:56.433429,69,2025-11-07 10:56:57.502263769
2025-11-07 10:56:57.081810,33,2025-11-07 10:56:57.509956077
2025-11-07 10:56:57.081810,2304,2025-11-07 10:56:57.517648385
2025-11-07 10:56:57.081810,0,2025-11-07 10:56:57.525340692
2025-11-07 10:56:57.081810,-7,2025-11-07 10:56:57.533033000
2025-11-07 10:56:57.081810,-6913,2025-11-07 10:56:57.540725308
2025-11-07 10:56:57.081810,-1,2025-11-07 10:56:57.548417615
2025-11-07 10:56:57.081810,-42,2025-11-07 10:56:57.556109923
2025-11-07 10:56:57.081810,-11265,2025-11-07 10:56:57.563802231
2025-11-07 10:56:57.081810,-1,2025-11-07 10:56:57.571494538
2025-11-07 10:56:57.081810,-42,2025-11-07 10:56:57.579186846
2025-11-07 10:56:57.081810,-7425,2025-11-07 10:56:57.586879154
2025-11-07 10:56:57.081810,-1,2025-11-07 10:56:57.594571462
2025-11-07 10:56:57.081810,-33,2025-11-07 10:56:57.602263769
2025-11-07 10:56:57.081810,-11777,2025-11-07 10:56:57.609956077
2025-11-07 10:56:57.081810,-1,2025-11-07 10:56:57.617648385
2025-11-07 10:56:57.081810,-45,2025-11-07 10:56:57.625340692
2025-11-07 10:56:57.081810,-8705,2025-11-07 10:56:57.633033000
2025-11-07 10:56:57.081810,-1,2025-11-07 10:56:57.640725308
2025-11-07 10:56:57.081810,-42,2025-11-07 10:56:57.648417615
2025-11-07 10:56:57.081810,-9473,2025-11-07 10:56:57.656109923
2025-11-07 10:56:57.081810,-1,2025-11-07 10:56:57.663802231
2025-11-07 10:56:57.081810,-19,2025-11-07 10:56:57.671494538
2025-11-07 10:56:57.081810,-3329,2025-11-07 10:56:57.679186846
2025-11-07 10:56:57.081810,-1,2025-11-07 10:56:57.686879154
2025-11-07 10:56:57.081810,-21,2025-11-07 10:56:57.694571462
2025-11-07 10:56:57.081810,-5633,2025-11-07 10:56:57.702263769
2025-11-07 10:56:57.081810,-1,2025-11-07 10:56:57.709956077
2025-11-07 10:56:57.081810,-21,2025-11-07 10:56:57.717648385
2025-11-07 10:56:57.081810,-4609,2025-11-07 10:56:57.725340692
2025-11-07 10:56:57.081810,-1,2025-11-07 10:56:57.733033000
2025-11-07 10:56:57.081810,-14,2025-11-07 10:56:57.740725308
2025-11-07 10:56:57.081810,-4609,2025-11-07 10:56:57.748417615
2025-11-07 10:56:57.081810,-1,2025-11-07 10:56:57.756109923
2025-11-07 10:56:57.081810,-23,2025-11-07 10:56:57.763802231
2025-11-07 10:56:57.081810,-4609,2025-11-07 10:56:57.771494538
2025-11-07 10:56:57.081810,-1,2025-11-07 10:56:57.779186846
2025-11-07 10:56:57.081810,-11,2025-11-07 10:56:57.786879154
2025-11-07 10:56:57.081810,-2049,2025-11-07 10:56:57.794571462
2025-11-07 10:56:57.081810,-1,2025-11-07 10:56:57.802263769
2025-11-07 10:56:57.081810,-9,2025-11-07 10:56:57.809956077
2025-11-07 10:56:57.081810,-2049,2025-11-07 10:56:57.817648385
2025-11-07 10:56:57.081810,-1,2025-11-07 10:56:57.825340692
2025-11-07 10:56:57.081810,-14,2025-11-07 10:56:57.833033000
2025-11-07 10:56:57.081810,-5633,2025-11-07 10:56:57.840725308
2025-11-07 10:56:57.081810,-1,2025-11-07 10:56:57.848417615
2025-11-07 10:56:57.081810,-21,2025-11-07 10:56:57.856109923
2025-11-07 10:56:57.081810,-5121,2025-11-07 10:56:57.863802231
2025-11-07 10:56:57.081810,-1,2025-11-07 10:56:57.871494538
2025-11-07 10:56:57.081810,-33,2025-11-07 10:56:57.879186846
2025-11-07 10:56:57.081810,-8193,2025-11-07 10:56:57.886879154
2025-11-07 10:56:57.081810,-1,2025-11-07 10:56:57.894571462
2025-11-07 10:56:57.081810,-9,2025-11-07 10:56:57.902263769
2025-11-07 10:56:57.081810,3839,2025-11-07 10:56:57.909956077
2025-11-07 10:56:57.081810,0,2025-11-07 10:56:57.917648385
2025-11-07 10:56:57.081810,16,2025-11-07 10:56:57.925340692
2025-11-07 10:56:57.081810,4864,2025-11-07 10:56:57.933033000
2025-11-07 10:56:57.081810,0,2025-11-07 10:56:57.940725308
2025-11-07 10:56:57.081810,14,2025-11-07 10:56:57.948417615
2025-11-07 10:56:57.081810,0,2025-11-07 10:56:57.956109923
2025-11-07 10:56:57.081810,0,2025-11-07 10:56:57.963802231
2025-11-07 10:56:57.081810,-7,2025-11-07 10:56:57.971494538
2025-11-07 10:56:57.081810,-2561,2025-11-07 10:56:57.979186846
2025-11-07 10:56:57.081810,-1,2025-11-07 10:56:57.986879154
2025-11-07 10:56:57.081810,-21,2025-11-07 10:56:57.994571462
2025-11-07 10:56:57.081810,-4609,2025-11-07 10:56:58.002263769
2025-11-07 10:56:57.081810,-1,2025-11-07 10:56:58.009956077
2025-11-07 10:56:57.081810,-14,2025-11-07 10:56:58.017648385
2025-11-07 10:56:57.081810,-3841,2025-11-07 10:56:58.025340692
2025-11-07 10:56:57.081810,-1,2025-11-07 10:56:58.033033000
2025-11-07 10:56:57.081810,-19,2025-11-07 10:56:58.040725308
2025-11-07 10:56:57.081810,-7425,2025-11-07 10:56:58.048417615
2025-11-07 10:56:57.081810,-1,2025-11-07 10:56:58.056109923
2025-11-07 10:56:57.081810,-57,2025-11-07 10:56:58.063802231
2025-11-07 10:56:57.081810,6143,2025-11-07 10:56:58.071494538
2025-11-07 10:56:57.081810,0,2025-11-07 10:56:58.079186846
2025-11-07 10:56:57.081810,338,2025-11-07 10:56:58.086879154
2025-11-07 10:56:57.081810,-14336,2025-11-07 10:56:58.094571462
2025-11-07 10:56:57.081810,2,2025-11-07 10:56:58.102263769
2025-11-07 10:56:57.081810,746,2025-11-07 10:56:58.109956077
2025-11-07 10:56:57.081810,-23808,2025-11-07 10:56:58.117648385
2025-11-07 10:56:57.081810,1,2025-11-07 10:56:58.125340692
2025-11-07 10:56:57.081810,123,2025-11-07 10:56:58.133033000
2025-11-07 10:56:57.081810,-6656,2025-11-07 10:56:58.140725308
2025-11-07 10:56:57.081810,-1,2025-11-07 10:56:58.148417615
2025-11-07 10:56:57.081810,-116,2025-11-07 10:56:58.156109923
2025-11-07 10:56:57.081810,32255,2025-11-07 10:56:58.163802231
2025-11-07 10:56:57.081810,-1,2025-11-07 10:56:58.171494538
2025-11-07 10:56:57.081810,-109,2025-11-07 10:56:58.179186846
2025-11-07 10:56:57.081810,-28417,2025-11-07 10:56:58.186879154
2025-11-07 10:56:57.081810,-1,2025-11-07 10:56:58.194571462
2025-11-07 10:56:57.081810,-109,2025-11-07 10:56:58.202263769
2025-11-07 10:56:57.081810,-25857,2025-11-07 10:56:58.209956077
2025-11-07 10:56:57.081810,-1,2025-11-07 10:56:58.217648385
2025-11-07 10:56:57.081810,-102,2025-11-07 10:56:58.225340692
2025-11-07 10:56:57.081810,-25857,2025-11-07 10:56:58.233033000
2025-11-07 10:56:57.081810,-1,2025-11-07 10:56:58.240725308
2025-11-07 10:56:57.081810,-109,2025-11-07 10:56:58.248417615
2025-11-07 10:56:57.081810,-25345,2025-11-07 10:56:58.256109923
2025-11-07 10:56:57.081810,-1,2025-11-07 10:56:58.263802231
2025-11-07 10:56:57.081810,-73,2025-11-07 10:56:58.271494538
2025-11-07 10:56:57.081810,-17921,2025-11-07 10:56:58.279186846
2025-11-07 10:56:57.081810,-1,2025-11-07 10:56:58.286879154
2025-11-07 10:56:57.081810,-83,2025-11-07 10:56:58.294571462
2025-11-07 10:56:57.081810,-20481,2025-11-07 10:56:58.302263769
2025-11-07 10:56:57.081810,-1,2025-11-07 10:56:58.309956077
2025-11-07 10:56:57.081810,-69,2025-11-07 10:56:58.317648385
2025-11-07 10:56:57.081810,-15361,2025-11-07 10:56:58.325340692
2025-11-07 10:56:57.081810,-1,2025-11-07 10:56:58.333033000
2025-11-07 10:56:57.081810,-57,2025-11-07 10:56:58.340725308
2025-11-07 10:56:57.533314,-47,2025-11-07 10:56:58.348417615
2025-11-07 10:56:57.533314,-6913,2025-11-07 10:56:58.356109923
2025-11-07 10:56:57.533314,-1,2025-11-07 10:56:58.363802230
2025-11-07 10:56:57.533314,-11,2025-11-07 10:56:58.371494538
2025-11-07 10:56:57.533314,255,2025-11-07 10:56:58.379186846
2025-11-07 10:56:57.533314,0,2025-11-07 10:56:58.386879154
2025-11-07 10:56:57.533314,11,2025-11-07 10:56:58.394571462
2025-11-07 10:56:57.533314,8960,2025-11-07 10:56:58.402263769
2025-11-07 10:56:57.533314,0,2025-11-07 10:56:58.409956077
2025-11-07 10:56:57.533314,57,2025-11-07 10:56:58.417648385
2025-11-07 10:56:57.533314,12032,2025-11-07 10:56:58.425340692
2025-11-07 10:56:57.533314,0,2025-11-07 10:56:58.433033000
2025-11-07 10:56:57.533314,23,2025-11-07 10:56:58.440725308
2025-11-07 10:56:57.533314,512,2025-11-07 10:56:58.448417615
2025-11-07 10:56:57.533314,0,2025-11-07 10:56:58.456109923
2025-11-07 10:56:57.533314,-21,2025-11-07 10:56:58.463802231
2025-11-07 10:56:57.533314,-11265,2025-11-07 10:56:58.471494538
2025-11-07 10:56:57.533314,-1,2025-11-07 10:56:58.479186846
2025-11-07 10:56:57.533314,-57,2025-11-07 10:56:58.486879154
2025-11-07 10:56:57.533314,-17409,2025-11-07 10:56:58.494571462
2025-11-07 10:56:57.533314,-1,2025-11-07 10:56:58.502263769
2025-11-07 10:56:57.533314,-78,2025-11-07 10:56:58.509956077
2025-11-07 10:56:57.533314,-20481,2025-11-07 10:56:58.517648385
2025-11-07 10:56:57.533314,-1,2025-11-07 10:56:58.525340692
2025-11-07 10:56:57.533314,-92,2025-11-07 10:56:58.533033000
2025-11-07 10:56:57.533314,-22785,2025-11-07 10:56:58.540725308
2025-11-07 10:56:57.533314,-1,2025-11-07 10:56:58.548417615
2025-11-07 10:56:57.533314,-66,2025-11-07 10:56:58.556109923
2025-11-07 10:56:57.533314,-17921,2025-11-07 10:56:58.563802231
2025-11-07 10:56:57.533314,-1,2025-11-07 10:56:58.571494538
2025-11-07 10:56:57.533314,-92,2025-11-07 10:56:58.579186846
2025-11-07 10:56:57.533314,-21505,2025-11-07 10:56:58.586879154
2025-11-07 10:56:57.533314,-1,2025-11-07 10:56:58.594571462
2025-11-07 10:56:57.533314,-69,2025-11-07 10:56:58.602263769
2025-11-07 10:56:57.533314,-19201,2025-11-07 10:56:58.609956077
2025-11-07 10:56:57.533314,-1,2025-11-07 10:56:58.617648385
2025-11-07 10:56:57.533314,-81,2025-11-07 10:56:58.625340692
2025-11-07 10:56:57.533314,-16129,2025-11-07 10:56:58.633033000
2025-11-07 10:56:57.533314,-1,2025-11-07 10:56:58.640725308
2025-11-07 10:56:57.533314,-45,2025-11-07 10:56:58.648417615
2025-11-07 10:56:57.533314,-12545,2025-11-07 10:56:58.656109923
2025-11-07 10:56:57.533314,-1,2025-11-07 10:56:58.663802231
2025-11-07 10:56:57.533314,-64,2025-11-07 10:56:58.671494538
2025-11-07 10:56:57.533314,-16641,2025-11-07 10:56:58.679186846
2025-11-07 10:56:57.533314,-1,2025-11-07 10:56:58.686879154
2025-11-07 10:56:57.533314,-61,2025-11-07 10:56:58.694571462
2025-11-07 10:56:57.533314,-14337,2025-11-07 10:56:58.702263769
2025-11-07 10:56:57.533314,-1,2025-11-07 10:56:58.709956077
2025-11-07 10:56:57.533314,-47,2025-11-07 10:56:58.717648385
2025-11-07 10:56:57.533314,-11777,2025-11-07 10:56:58.725340692
2025-11-07 10:56:57.533314,-1,2025-11-07 10:56:58.733033000
2025-11-07 10:56:57.533314,-54,2025-11-07 10:56:58.740725308
2025-11-07 10:56:57.533314,-12545,2025-11-07 10:56:58.748417615
2025-11-07 10:56:57.533314,-1,2025-11-07 10:56:58.756109923
2025-11-07 10:56:57.533314,-38,2025-11-07 10:56:58.763802231
2025-11-07 10:56:57.533314,-9985,2025-11-07 10:56:58.771494538
2025-11-07 10:56:57.533314,-1,2025-11-07 10:56:58.779186846
2025-11-07 10:56:57.533314,-61,2025-11-07 10:56:58.786879154
2025-11-07 10:56:57.533314,-16641,2025-11-07 10:56:58.794571462
2025-11-07 10:56:57.533314,-1,2025-11-07 10:56:58.802263769
2025-11-07 10:56:57.533314,-52,2025-11-07 10:56:58.809956077
2025-11-07 10:56:57.533314,-11265,2025-11-07 10:56:58.817648385
2025-11-07 10:56:57.533314,-1,2025-11-07 10:56:58.825340692
2025-11-07 10:56:57.533314,-35,2025-11-07 10:56:58.833033000
2025-11-07 10:56:57.533314,-3329,2025-11-07 10:56:58.840725308
2025-11-07 10:56:57.533314,-1,2025-11-07 10:56:58.848417615
2025-11-07 10:56:57.533314,2,2025-11-07 10:56:58.856109923
2025-11-07 10:56:57.533314,-1792,2025-11-07 10:56:58.863802231
2025-11-07 10:56:57.533314,-1,2025-11-07 10:56:58.871494538
2025-11-07 10:56:57.533314,-26,2025-11-07 10:56:58.879186846
2025-11-07 10:56:57.533314,-9473,2025-11-07 10:56:58.886879154
2025-11-07 10:56:57.533314,-1,2025-11-07 10:56:58.894571462
2025-11-07 10:56:57.533314,-30,2025-11-07 10:56:58.902263769
2025-11-07 10:56:57.533314,-4609,2025-11-07 10:56:58.909956077
2025-11-07 10:56:57.533314,-1,2025-11-07 10:56:58.917648385
2025-11-07 10:56:57.533314,-26,2025-11-07 10:56:58.925340692
2025-11-07 10:56:57.533314,-7425,2025-11-07 10:56:58.933033000
2025-11-07 10:56:57.533314,-1,2025-11-07 10:56:58.940725308
2025-11-07 10:56:57.533314,-19,2025-11-07 10:56:58.948417615
2025-11-07 10:56:57.533314,-3329,2025-11-07 10:56:58.956109923
2025-11-07 10:56:57.533314,-1,2025-11-07 10:56:58.963802231
2025-11-07 10:56:57.533314,-33,2025-11-07 10:56:58.971494538
2025-11-07 10:56:57.533314,-17921,2025-11-07 10:56:58.979186846
2025-11-07 10:56:57.533314,-1,2025-11-07 10:56:58.986879154
2025-11-07 10:56:57.533314,-73,2025-11-07 10:56:58.994571462
2025-11-07 10:56:57.533314,23807,2025-11-07 10:56:59.002263769
2025-11-07 10:56:57.533314,0,2025-11-07 10:56:59.009956077
2025-11-07 10:56:57.533314,433,2025-11-07 10:56:59.017648385
2025-11-07 10:56:57.533314,31232,2025-11-07 10:56:59.025340692
2025-11-07 10:56:57.533314,2,2025-11-07 10:56:59.033033000
2025-11-07 10:56:57.533314,481,2025-11-07 10:56:59.040725308
2025-11-07 10:56:57.533314,8704,2025-11-07 10:56:59.048417615
2025-11-07 10:56:57.533314,1,2025-11-07 10:56:59.056109923
2025-11-07 10:56:57.533314,166,2025-11-07 10:56:59.063802231
2025-11-07 10:56:57.533314,-13312,2025-11-07 10:56:59.071494538
2025-11-07 10:56:57.533314,-1,2025-11-07 10:56:59.079186846
2025-11-07 10:56:57.533314,-157,2025-11-07 10:56:59.086879154
2025-11-07 10:56:57.533314,-22785,2025-11-07 10:56:59.094571462
2025-11-07 10:56:57.533314,-1,2025-11-07 10:56:59.102263769
2025-11-07 10:56:57.533314,-90,2025-11-07 10:56:59.109956077
2025-11-07 10:56:57.533314,31743,2025-11-07 10:56:59.117648385
2025-11-07 10:56:57.533314,-1,2025-11-07 10:56:59.125340692
2025-11-07 10:56:57.533314,-114,2025-11-07 10:56:59.133033000
2025-11-07 10:56:57.533314,-22273,2025-11-07 10:56:59.140725308
2025-11-07 10:56:57.533314,-1,2025-11-07 10:56:59.148417615
2025-11-07 10:56:57.533314,-90,2025-11-07 10:56:59.156109923
2025-11-07 10:56:57.533314,-23297,2025-11-07 10:56:59.163802231
2025-11-07 10:56:57.533314,-1,2025-11-07 10:56:59.171494538
2025-11-07 10:56:57.533314,-81,2025-11-07 10:56:59.179186846
2025-11-07 10:56:58.084282,-71,2025-11-07 10:56:59.186879154
2025-11-07 10:56:58.084282,-17409,2025-11-07 10:56:59.194571462
2025-11-07 10:56:58.084282,-1,2025-11-07 10:56:59.202263769
2025-11-07 10:56:58.084282,-71,2025-11-07 10:56:59.209956077
2025-11-07 10:56:58.084282,-16129,2025-11-07 10:56:59.217648385
2025-11-07 10:56:58.084282,-1,2025-11-07 10:56:59.225340692
2025-11-07 10:56:58.084282,-50,2025-11-07 10:56:59.233033000
2025-11-07 10:56:58.084282,-9473,2025-11-07 10:56:59.240725308
2025-11-07 10:56:58.084282,-1,2025-11-07 10:56:59.248417615
2025-11-07 10:56:58.084282,-33,2025-11-07 10:56:59.256109923
2025-11-07 10:56:58.084282,-5633,2025-11-07 10:56:59.263802231
2025-11-07 10:56:58.084282,-1,2025-11-07 10:56:59.271494538
2025-11-07 10:56:58.084282,-11,2025-11-07 10:56:59.279186846
2025-11-07 10:56:58.084282,767,2025-11-07 10:56:59.286879154
2025-11-07 10:56:58.084282,0,2025-11-07 10:56:59.294571462
2025-11-07 10:56:58.084282,33,2025-11-07 10:56:59.302263769
2025-11-07 10:56:58.084282,16896,2025-11-07 10:56:59.309956077
2025-11-07 10:56:58.084282,0,2025-11-07 10:56:59.317648385
2025-11-07 10:56:58.084282,73,2025-11-07 10:56:59.325340692
2025-11-07 10:56:58.084282,19456,2025-11-07 10:56:59.333033000
2025-11-07 10:56:58.084282,0,2025-11-07 10:56:59.340725308
2025-11-07 10:56:58.084282,83,2025-11-07 10:56:59.348417615
2025-11-07 10:56:58.084282,18688,2025-11-07 10:56:59.356109923
2025-11-07 10:56:58.084282,0,2025-11-07 10:56:59.363802230
2025-11-07 10:56:58.084282,54,2025-11-07 10:56:59.371494538
2025-11-07 10:56:58.084282,7168,2025-11-07 10:56:59.379186846
2025-11-07 10:56:58.084282,0,2025-11-07 10:56:59.386879154
2025-11-07 10:56:58.084282,-16,2025-11-07 10:56:59.394571462
2025-11-07 10:56:58.084282,-12545,2025-11-07 10:56:59.402263769
2025-11-07 10:56:58.084282,-1,2025-11-07 10:56:59.409956077
2025-11-07 10:56:58.084282,-59,2025-11-07 10:56:59.417648385
2025-11-07 10:56:58.084282,-19201,2025-11-07 10:56:59.425340692
2025-11-07 10:56:58.084282,-1,2025-11-07 10:56:59.433033000
2025-11-07 10:56:58.084282,-78,2025-11-07 10:56:59.440725308
2025-11-07 10:56:58.084282,-17409,2025-11-07 10:56:59.448417615
2025-11-07 10:56:58.084282,-1,2025-11-07 10:56:59.456109923
2025-11-07 10:56:58.084282,-76,2025-11-07 10:56:59.463802231
2025-11-07 10:56:58.084282,-20481,2025-11-07 10:56:59.471494538
2025-11-07 10:56:58.084282,-1,2025-11-07 10:56:59.479186846
2025-11-07 10:56:58.084282,-76,2025-11-07 10:56:59.486879154
2025-11-07 10:56:58.084282,-19201,2025-11-07 10:56:59.494571462
2025-11-07 10:56:58.084282,-1,2025-11-07 10:56:59.502263769
2025-11-07 10:56:58.084282,-76,2025-11-07 10:56:59.509956077
2025-11-07 10:56:58.084282,-20481,2025-11-07 10:56:59.517648385
2025-11-07 10:56:58.084282,-1,2025-11-07 10:56:59.525340692
2025-11-07 10:56:58.084282,-83,2025-11-07 10:56:59.533033000
2025-11-07 10:56:58.084282,-19713,2025-11-07 10:56:59.540725308
2025-11-07 10:56:58.084282,-1,2025-11-07 10:56:59.548417615
2025-11-07 10:56:58.084282,-78,2025-11-07 10:56:59.556109923
2025-11-07 10:56:58.084282,-19201,2025-11-07 10:56:59.563802231
2025-11-07 10:56:58.084282,-1,2025-11-07 10:56:59.571494538
2025-11-07 10:56:58.084282,-61,2025-11-07 10:56:59.579186846
2025-11-07 10:56:58.084282,-11265,2025-11-07 10:56:59.586879154
2025-11-07 10:56:58.084282,-1,2025-11-07 10:56:59.594571462
2025-11-07 10:56:58.084282,-33,2025-11-07 10:56:59.602263769
2025-11-07 10:56:58.084282,-8193,2025-11-07 10:56:59.609956077
2025-11-07 10:56:58.084282,-1,2025-11-07 10:56:59.617648385
2025-11-07 10:56:58.084282,-42,2025-11-07 10:56:59.625340692
2025-11-07 10:56:58.084282,-11777,2025-11-07 10:56:59.633033000
2025-11-07 10:56:58.084282,-1,2025-11-07 10:56:59.640725308
2025-11-07 10:56:58.084282,-47,2025-11-07 10:56:59.648417615
2025-11-07 10:56:58.084282,-11265,2025-11-07 10:56:59.656109923
2025-11-07 10:56:58.084282,-1,2025-11-07 10:56:59.663802231
2025-11-07 10:56:58.084282,-45,2025-11-07 10:56:59.671494538
2025-11-07 10:56:58.084282,-9473,2025-11-07 10:56:59.679186846
2025-11-07 10:56:58.084282,-1,2025-11-07 10:56:59.686879154
2025-11-07 10:56:58.084282,-40,2025-11-07 10:56:59.694571462
2025-11-07 10:56:58.084282,-14849,2025-11-07 10:56:59.702263769
2025-11-07 10:56:58.084282,-1,2025-11-07 10:56:59.709956077
2025-11-07 10:56:58.084282,-54,2025-11-07 10:56:59.717648385
2025-11-07 10:56:58.084282,-2561,2025-11-07 10:56:59.725340692
2025-11-07 10:56:58.084282,-1,2025-11-07 10:56:59.733033000
2025-11-07 10:56:58.084282,9,2025-11-07 10:56:59.740725308
2025-11-07 10:56:58.084282,-2304,2025-11-07 10:56:59.748417615
2025-11-07 10:56:58.084282,-1,2025-11-07 10:56:59.756109923
2025-11-07 10:56:58.084282,-47,2025-11-07 10:56:59.763802231
2025-11-07 10:56:58.084282,-13569,2025-11-07 10:56:59.771494538
2025-11-07 10:56:58.084282,-1,2025-11-07 10:56:59.779186846
2025-11-07 10:56:58.084282,-30,2025-11-07 10:56:59.786879154
2025-11-07 10:56:58.084282,-5633,2025-11-07 10:56:59.794571462
2025-11-07 10:56:58.084282,-1,2025-11-07 10:56:59.802263769
2025-11-07 10:56:58.084282,-38,2025-11-07 10:56:59.809956077
2025-11-07 10:56:58.084282,-11777,2025-11-07 10:56:59.817648385
2025-11-07 10:56:58.084282,-1,2025-11-07 10:56:59.825340692
2025-11-07 10:56:58.084282,-38,2025-11-07 10:56:59.833033000
2025-11-07 10:56:58.084282,-6401,2025-11-07 10:56:59.840725308
2025-11-07 10:56:58.084282,-1,2025-11-07 10:56:59.848417615
2025-11-07 10:56:58.084282,-38,2025-11-07 10:56:59.856109923
2025-11-07 10:56:58.084282,-13569,2025-11-07 10:56:59.863802231
2025-11-07 10:56:58.084282,-1,2025-11-07 10:56:59.871494538
2025-11-07 10:56:58.084282,-83,2025-11-07 10:56:59.879186846
2025-11-07 10:56:58.084282,-13057,2025-11-07 10:56:59.886879154
2025-11-07 10:56:58.084282,-1,2025-11-07 10:56:59.894571462
2025-11-07 10:56:58.084282,176,2025-11-07 10:56:59.902263769
2025-11-07 10:56:58.084282,-5376,2025-11-07 10:56:59.909956077
2025-11-07 10:56:58.084282,1,2025-11-07 10:56:59.917648385
2025-11-07 10:56:58.084282,534,2025-11-07 10:56:59.925340692
2025-11-07 10:56:58.084282,22272,2025-11-07 10:56:59.933033000
2025-11-07 10:56:58.084282,1,2025-11-07 10:56:59.940725308
2025-11-07 10:56:58.084282,271,2025-11-07 10:56:59.948417615
2025-11-07 10:56:58.084282,-23552,2025-11-07 10:56:59.956109923
2025-11-07 10:56:58.084282,0,2025-11-07 10:56:59.963802231
2025-11-07 10:56:58.084282,-90,2025-11-07 10:56:59.971494538
2025-11-07 10:56:58.084282,29951,2025-11-07 10:56:59.979186846
2025-11-07 10:56:58.084282,-1,2025-11-07 10:56:59.986879154
2025-11-07 10:56:58.084282,-64,2025-11-07 10:56:59.994571462
2025-11-07 10:56:58.084282,-25345,2025-11-07 10:57:00.002263769
2025-11-07 10:56:58.084282,-1,2025-11-07 10:57:00.009956077
2025-11-07 10:56:58.084282,-131,2025-11-07 10:57:00.017648385
2025-11-07 10:56:58.633337,-88,2025-11-07 10:57:00.025340692
2025-11-07 10:56:58.633337,-18433,2025-11-07 10:57:00.033033000
2025-11-07 10:56:58.633337,-1,2025-11-07 10:57:00.040725308
2025-11-07 10:56:58.633337,-85,2025-11-07 10:57:00.048417615
2025-11-07 10:56:58.633337,-18433,2025-11-07 10:57:00.056109923
2025-11-07 10:56:58.633337,-1,2025-11-07 10:57:00.063802231
2025-11-07 10:56:58.633337,-57,2025-11-07 10:57:00.071494538
2025-11-07 10:56:58.633337,-14849,2025-11-07 10:57:00.079186846
2025-11-07 10:56:58.633337,-1,2025-11-07 10:57:00.086879154
2025-11-07 10:56:58.633337,-54,2025-11-07 10:57:00.094571462
2025-11-07 10:56:58.633337,-11777,2025-11-07 10:57:00.102263769
2025-11-07 10:56:58.633337,-1,2025-11-07 10:57:00.109956077
2025-11-07 10:56:58.633337,-47,2025-11-07 10:57:00.117648385
2025-11-07 10:56:58.633337,-4609,2025-11-07 10:57:00.125340692
2025-11-07 10:56:58.633337,-1,2025-11-07 10:57:00.133033000
2025-11-07 10:56:58.633337,4,2025-11-07 10:57:00.140725308
2025-11-07 10:56:58.633337,-1792,2025-11-07 10:57:00.148417615
2025-11-07 10:56:58.633337,-1,2025-11-07 10:57:00.156109923
2025-11-07 10:56:58.633337,0,2025-11-07 10:57:00.163802231
2025-11-07 10:56:58.633337,6656,2025-11-07 10:57:00.171494538
2025-11-07 10:56:58.633337,0,2025-11-07 10:57:00.179186846
2025-11-07 10:56:58.633337,47,2025-11-07 10:57:00.186879154
2025-11-07 10:56:58.633337,16384,2025-11-07 10:57:00.194571462
2025-11-07 10:56:58.633337,0,2025-11-07 10:57:00.202263769
2025-11-07 10:56:58.633337,71,2025-11-07 10:57:00.209956077
2025-11-07 10:56:58.633337,20736,2025-11-07 10:57:00.217648385
2025-11-07 10:56:58.633337,0,2025-11-07 10:57:00.225340692
2025-11-07 10:56:58.633337,100,2025-11-07 10:57:00.233033000
2025-11-07 10:56:58.633337,21760,2025-11-07 10:57:00.240725308
2025-11-07 10:56:58.633337,0,2025-11-07 10:57:00.248417615
2025-11-07 10:56:58.633337,47,2025-11-07 10:57:00.256109923
2025-11-07 10:56:58.633337,9728,2025-11-07 10:57:00.263802231
2025-11-07 10:56:58.633337,0,2025-11-07 10:57:00.271494538
2025-11-07 10:56:58.633337,21,2025-11-07 10:57:00.279186846
2025-11-07 10:56:58.633337,-3584,2025-11-07 10:57:00.286879154
2025-11-07 10:56:58.633337,-1,2025-11-07 10:57:00.294571462
2025-11-07 10:56:58.633337,-33,2025-11-07 10:57:00.302263769
2025-11-07 10:56:58.633337,-8705,2025-11-07 10:57:00.309956077
2025-11-07 10:56:58.633337,-1,2025-11-07 10:57:00.317648385
2025-11-07 10:56:58.633337,-40,2025-11-07 10:57:00.325340692
2025-11-07 10:56:58.633337,-13569,2025-11-07 10:57:00.333033000
2025-11-07 10:56:58.633337,-1,2025-11-07 10:57:00.340725308
2025-11-07 10:56:58.633337,-47,2025-11-07 10:57:00.348417615
2025-11-07 10:56:58.633337,-8193,2025-11-07 10:57:00.356109923
2025-11-07 10:56:58.633337,-1,2025-11-07 10:57:00.363802230
2025-11-07 10:56:58.633337,-47,2025-11-07 10:57:00.371494538
2025-11-07 10:56:58.633337,-18433,2025-11-07 10:57:00.379186846
2025-11-07 10:56:58.633337,-1,2025-11-07 10:57:00.386879154
2025-11-07 10:56:58.633337,-52,2025-11-07 10:57:00.394571462
2025-11-07 10:56:58.633337,-2561,2025-11-07 10:57:00.402263769
2025-11-07 10:56:58.633337,-1,2025-11-07 10:57:00.409956077
2025-11-07 10:56:58.633337,-23,2025-11-07 10:57:00.417648385
2025-11-07 10:56:58.633337,-12545,2025-11-07 10:57:00.425340692
2025-11-07 10:56:58.633337,-1,2025-11-07 10:57:00.433033000
2025-11-07 10:56:58.633337,-54,2025-11-07 10:57:00.440725308
2025-11-07 10:56:58.633337,-10497,2025-11-07 10:57:00.448417615
2025-11-07 10:56:58.633337,-1,2025-11-07 10:57:00.456109923
2025-11-07 10:56:58.633337,-7,2025-11-07 10:57:00.463802231
2025-11-07 10:56:58.633337,-257,2025-11-07 10:57:00.471494538
2025-11-07 10:56:58.633337,-1,2025-11-07 10:57:00.479186846
2025-11-07 10:56:58.633337,-28,2025-11-07 10:57:00.486879154
2025-11-07 10:56:58.633337,-1537,2025-11-07 10:57:00.494571462
2025-11-07 10:56:58.633337,-1,2025-11-07 10:57:00.502263769
2025-11-07 10:56:58.633337,9,2025-11-07 10:57:00.509956077
2025-11-07 10:56:58.633337,-4096,2025-11-07 10:57:00.517648385
2025-11-07 10:56:58.633337,-1,2025-11-07 10:57:00.525340692
2025-11-07 10:56:58.633337,-14,2025-11-07 10:57:00.533033000
2025-11-07 10:56:58.633337,-3841,2025-11-07 10:57:00.540725308
2025-11-07 10:56:58.633337,-1,2025-11-07 10:57:00.548417615
2025-11-07 10:56:58.633337,-21,2025-11-07 10:57:00.556109923
2025-11-07 10:56:58.633337,2559,2025-11-07 10:57:00.563802231
2025-11-07 10:56:58.633337,0,2025-11-07 10:57:00.571494538
2025-11-07 10:56:58.633337,4,2025-11-07 10:57:00.579186846
2025-11-07 10:56:58.633337,-7168,2025-11-07 10:57:00.586879154
2025-11-07 10:56:58.633337,-1,2025-11-07 10:57:00.594571462
2025-11-07 10:56:58.633337,-2,2025-11-07 10:57:00.602263769
2025-11-07 10:56:58.633337,9215,2025-11-07 10:57:00.609956077
2025-11-07 10:56:58.633337,0,2025-11-07 10:57:00.617648385
2025-11-07 10:56:58.633337,30,2025-11-07 10:57:00.625340692
2025-11-07 10:56:58.633337,512,2025-11-07 10:57:00.633033000
2025-11-07 10:56:58.633337,0,2025-11-07 10:57:00.640725308
2025-11-07 10:56:58.633337,0,2025-11-07 10:57:00.648417615
2025-11-07 10:56:58.633337,2304,2025-11-07 10:57:00.656109923
2025-11-07 10:56:58.633337,0,2025-11-07 10:57:00.663802231
2025-11-07 10:56:58.633337,0,2025-11-07 10:57:00.671494538
2025-11-07 10:56:58.633337,-2304,2025-11-07 10:57:00.679186846
2025-11-07 10:56:58.633337,-1,2025-11-07 10:57:00.686879154
2025-11-07 10:56:58.633337,0,2025-11-07 10:57:00.694571462
2025-11-07 10:56:58.633337,1792,2025-11-07 10:57:00.702263769
2025-11-07 10:56:58.633337,0,2025-11-07 10:57:00.709956077
2025-11-07 10:56:58.633337,-4,2025-11-07 10:57:00.717648385
2025-11-07 10:56:58.633337,-4609,2025-11-07 10:57:00.725340692
2025-11-07 10:56:58.633337,-1,2025-11-07 10:57:00.733033000
2025-11-07 10:56:58.633337,-30,2025-11-07 10:57:00.740725308
2025-11-07 10:56:58.633337,-8705,2025-11-07 10:57:00.748417615
2025-11-07 10:56:58.633337,-1,2025-11-07 10:57:00.756109923
2025-11-07 10:56:58.633337,42,2025-11-07 10:57:00.763802231
2025-11-07 10:56:58.633337,6912,2025-11-07 10:57:00.771494538
2025-11-07 10:56:58.633337,1,2025-11-07 10:57:00.779186846
2025-11-07 10:56:58.633337,538,2025-11-07 10:57:00.786879154
2025-11-07 10:56:58.633337,7424,2025-11-07 10:57:00.794571462
2025-11-07 10:56:58.633337,2,2025-11-07 10:57:00.802263769
2025-11-07 10:56:58.633337,398,2025-11-07 10:57:00.809956077
2025-11-07 10:56:58.633337,24576,2025-11-07 10:57:00.817648385
2025-11-07 10:56:58.633337,1,2025-11-07 10:57:00.825340692
2025-11-07 10:56:58.633337,174,2025-11-07 10:57:00.833033000
2025-11-07 10:56:58.633337,-28672,2025-11-07 10:57:00.840725308
2025-11-07 10:56:58.633337,-1,2025-11-07 10:57:00.848417615
2025-11-07 10:56:58.633337,-104,2025-11-07 10:57:00.856109923
2025-11-07 10:56:59.281957,-14,2025-11-07 10:57:00.863802231
2025-11-07 10:56:59.281957,-27137,2025-11-07 10:57:00.871494538
2025-11-07 10:56:59.281957,-1,2025-11-07 10:57:00.879186846
2025-11-07 10:56:59.281957,-143,2025-11-07 10:57:00.886879154
2025-11-07 10:56:59.281957,-17921,2025-11-07 10:57:00.894571462
2025-11-07 10:56:59.281957,-1,2025-11-07 10:57:00.902263769
2025-11-07 10:56:59.281957,-54,2025-11-07 10:57:00.909956077
2025-11-07 10:56:59.281957,-20993,2025-11-07 10:57:00.917648385
2025-11-07 10:56:59.281957,-1,2025-11-07 10:57:00.925340692
2025-11-07 10:56:59.281957,-69,2025-11-07 10:57:00.933033000
2025-11-07 10:56:59.281957,-6913,2025-11-07 10:57:00.940725308
2025-11-07 10:56:59.281957,-1,2025-11-07 10:57:00.948417615
2025-11-07 10:56:59.281957,-14,2025-11-07 10:57:00.956109923
2025-11-07 10:56:59.281957,-5121,2025-11-07 10:57:00.963802231
2025-11-07 10:56:59.281957,-1,2025-11-07 10:57:00.971494538
2025-11-07 10:56:59.281957,-26,2025-11-07 10:57:00.979186846
2025-11-07 10:56:59.281957,-5121,2025-11-07 10:57:00.986879154
2025-11-07 10:56:59.281957,-1,2025-11-07 10:57:00.994571462
2025-11-07 10:56:59.281957,-7,2025-11-07 10:57:01.002263769
2025-11-07 10:56:59.281957,767,2025-11-07 10:57:01.009956077
2025-11-07 10:56:59.281957,0,2025-11-07 10:57:01.017648385
2025-11-07 10:56:59.281957,2,2025-11-07 10:57:01.025340692
2025-11-07 10:56:59.281957,5888,2025-11-07 10:57:01.033033000
2025-11-07 10:56:59.281957,0,2025-11-07 10:57:01.040725308
2025-11-07 10:56:59.281957,42,2025-11-07 10:57:01.048417615
2025-11-07 10:56:59.281957,11520,2025-11-07 10:57:01.056109923
2025-11-07 10:56:59.281957,0,2025-11-07 10:57:01.063802231
2025-11-07 10:56:59.281957,64,2025-11-07 10:57:01.071494538
2025-11-07 10:56:59.281957,19968,2025-11-07 10:57:01.079186846
2025-11-07 10:56:59.281957,0,2025-11-07 10:57:01.086879154
2025-11-07 10:56:59.281957,61,2025-11-07 10:57:01.094571462
2025-11-07 10:56:59.281957,14592,2025-11-07 10:57:01.102263769
2025-11-07 10:56:59.281957,0,2025-11-07 10:57:01.109956077
2025-11-07 10:56:59.281957,73,2025-11-07 10:57:01.117648385
2025-11-07 10:56:59.281957,18176,2025-11-07 10:57:01.125340692
2025-11-07 10:56:59.281957,0,2025-11-07 10:57:01.133033000
2025-11-07 10:56:59.281957,35,2025-11-07 10:57:01.140725308
2025-11-07 10:56:59.281957,1024,2025-11-07 10:57:01.148417615
2025-11-07 10:56:59.281957,0,2025-11-07 10:57:01.156109923
2025-11-07 10:56:59.281957,2,2025-11-07 10:57:01.163802231
2025-11-07 10:56:59.281957,-2304,2025-11-07 10:57:01.171494538
2025-11-07 10:56:59.281957,-1,2025-11-07 10:57:01.179186846
2025-11-07 10:56:59.281957,-21,2025-11-07 10:57:01.186879154
2025-11-07 10:56:59.281957,-5633,2025-11-07 10:57:01.194571462
2025-11-07 10:56:59.281957,-1,2025-11-07 10:57:01.202263769
2025-11-07 10:56:59.281957,-38,2025-11-07 10:57:01.209956077
2025-11-07 10:56:59.281957,-8705,2025-11-07 10:57:01.217648385
2025-11-07 10:56:59.281957,-1,2025-11-07 10:57:01.225340692
2025-11-07 10:56:59.281957,-19,2025-11-07 10:57:01.233033000
2025-11-07 10:56:59.281957,-5633,2025-11-07 10:57:01.240725308
2025-11-07 10:56:59.281957,-1,2025-11-07 10:57:01.248417615
2025-11-07 10:56:59.281957,-33,2025-11-07 10:57:01.256109923
2025-11-07 10:56:59.281957,-4609,2025-11-07 10:57:01.263802231
2025-11-07 10:56:59.281957,-1,2025-11-07 10:57:01.271494538
2025-11-07 10:56:59.281957,-16,2025-11-07 10:57:01.279186846
2025-11-07 10:56:59.281957,-8705,2025-11-07 10:57:01.286879154
2025-11-07 10:56:59.281957,-1,2025-11-07 10:57:01.294571462
2025-11-07 10:56:59.281957,-28,2025-11-07 10:57:01.302263769
2025-11-07 10:56:59.281957,255,2025-11-07 10:57:01.309956077
2025-11-07 10:56:59.281957,0,2025-11-07 10:57:01.317648385
2025-11-07 10:56:59.281957,-4,2025-11-07 10:57:01.325340692
2025-11-07 10:56:59.281957,-5121,2025-11-07 10:57:01.333033000
2025-11-07 10:56:59.281957,-1,2025-11-07 10:57:01.340725308
2025-11-07 10:56:59.281957,-14,2025-11-07 10:57:01.348417615
2025-11-07 10:56:59.281957,1279,2025-11-07 10:57:01.356109923
2025-11-07 10:56:59.281957,0,2025-11-07 10:57:01.363802230
2025-11-07 10:56:59.281957,0,2025-11-07 10:57:01.371494538
2025-11-07 10:56:59.281957,-2304,2025-11-07 10:57:01.379186846
2025-11-07 10:56:59.281957,-1,2025-11-07 10:57:01.386879154
2025-11-07 10:56:59.281957,4,2025-11-07 10:57:01.394571462
2025-11-07 10:56:59.281957,2304,2025-11-07 10:57:01.402263769
2025-11-07 10:56:59.281957,0,2025-11-07 10:57:01.409956077
2025-11-07 10:56:59.281957,0,2025-11-07 10:57:01.417648385
2025-11-07 10:56:59.281957,0,2025-11-07 10:57:01.425340692
2025-11-07 10:56:59.281957,0,2025-11-07 10:57:01.433033000
2025-11-07 10:56:59.281957,0,2025-11-07 10:57:01.440725308
2025-11-07 10:56:59.281957,0,2025-11-07 10:57:01.448417615
2025-11-07 10:56:59.281957,0,2025-11-07 10:57:01.456109923
2025-11-07 10:56:59.281957,-4,2025-11-07 10:57:01.463802231
2025-11-07 10:56:59.281957,-2049,2025-11-07 10:57:01.471494538
2025-11-07 10:56:59.281957,-1,2025-11-07 10:57:01.479186846
2025-11-07 10:56:59.281957,-2,2025-11-07 10:57:01.486879154
2025-11-07 10:56:59.281957,1279,2025-11-07 10:57:01.494571462
2025-11-07 10:56:59.281957,0,2025-11-07 10:57:01.502263769
2025-11-07 10:56:59.281957,23,2025-11-07 10:57:01.509956077
2025-11-07 10:56:59.281957,11520,2025-11-07 10:57:01.517648385
2025-11-07 10:56:59.281957,0,2025-11-07 10:57:01.525340692
2025-11-07 10:56:59.281957,40,2025-11-07 10:57:01.533033000
2025-11-07 10:56:59.281957,5888,2025-11-07 10:57:01.540725308
2025-11-07 10:56:59.281957,0,2025-11-07 10:57:01.548417615
2025-11-07 10:56:59.281957,9,2025-11-07 10:57:01.556109923
2025-11-07 10:56:59.281957,2304,2025-11-07 10:57:01.563802231
2025-11-07 10:56:59.281957,0,2025-11-07 10:57:01.571494538
2025-11-07 10:56:59.281957,23,2025-11-07 10:57:01.579186846
2025-11-07 10:56:59.281957,6656,2025-11-07 10:57:01.586879154
2025-11-07 10:56:59.281957,0,2025-11-07 10:57:01.594571462
2025-11-07 10:56:59.281957,16,2025-11-07 10:57:01.602263769
2025-11-07 10:56:59.281957,3584,2025-11-07 10:57:01.609956077
2025-11-07 10:56:59.281957,0,2025-11-07 10:57:01.617648385
2025-11-07 10:56:59.281957,9,2025-11-07 10:57:01.625340692
2025-11-07 10:56:59.281957,-1792,2025-11-07 10:57:01.633033000
2025-11-07 10:56:59.281957,-1,2025-11-07 10:57:01.640725308
2025-11-07 10:56:59.281957,-23,2025-11-07 10:57:01.648417615
2025-11-07 10:56:59.281957,-3329,2025-11-07 10:57:01.656109923
2025-11-07 10:56:59.281957,-1,2025-11-07 10:57:01.663802231
2025-11-07 10:56:59.281957,159,2025-11-07 10:57:01.671494538
2025-11-07 10:56:59.281957,9216,2025-11-07 10:57:01.679186846
2025-11-07 10:56:59.281957,2,2025-11-07 10:57:01.686879154
2025-11-07 10:56:59.281957,805,2025-11-07 10:57:01.694571462
2025-11-07 10:56:59.783429,634,2025-11-07 10:57:01.702263769
2025-11-07 10:56:59.783429,28928,2025-11-07 10:57:01.709956077
2025-11-07 10:56:59.783429,1,2025-11-07 10:57:01.717648385
2025-11-07 10:56:59.783429,202,2025-11-07 10:57:01.725340692
2025-11-07 10:56:59.783429,-7680,2025-11-07 10:57:01.733033000
2025-11-07 10:56:59.783429,-1,2025-11-07 10:57:01.740725308
2025-11-07 10:56:59.783429,-133,2025-11-07 10:57:01.748417615
2025-11-07 10:56:59.783429,-17409,2025-11-07 10:57:01.756109923
2025-11-07 10:56:59.783429,-1,2025-11-07 10:57:01.763802231
2025-11-07 10:56:59.783429,-83,2025-11-07 10:57:01.771494538
2025-11-07 10:56:59.783429,-28929,2025-11-07 10:57:01.779186846
2025-11-07 10:56:59.783429,-1,2025-11-07 10:57:01.786879154
2025-11-07 10:56:59.783429,-81,2025-11-07 10:57:01.794571462
2025-11-07 10:56:59.783429,-16129,2025-11-07 10:57:01.802263769
2025-11-07 10:56:59.783429,-1,2025-11-07 10:57:01.809956077
2025-11-07 10:56:59.783429,-64,2025-11-07 10:57:01.817648385
2025-11-07 10:56:59.783429,-13057,2025-11-07 10:57:01.825340692
2025-11-07 10:56:59.783429,-1,2025-11-07 10:57:01.833033000
2025-11-07 10:56:59.783429,-40,2025-11-07 10:57:01.840725308
2025-11-07 10:56:59.783429,-8705,2025-11-07 10:57:01.848417615
2025-11-07 10:56:59.783429,-1,2025-11-07 10:57:01.856109923
2025-11-07 10:56:59.783429,-35,2025-11-07 10:57:01.863802231
2025-11-07 10:56:59.783429,-9473,2025-11-07 10:57:01.871494538
2025-11-07 10:56:59.783429,-1,2025-11-07 10:57:01.879186846
2025-11-07 10:56:59.783429,-30,2025-11-07 10:57:01.886879154
2025-11-07 10:56:59.783429,-3329,2025-11-07 10:57:01.894571462
2025-11-07 10:56:59.783429,-1,2025-11-07 10:57:01.902263769
2025-11-07 10:56:59.783429,0,2025-11-07 10:57:01.909956077
2025-11-07 10:56:59.783429,512,2025-11-07 10:57:01.917648385
2025-11-07 10:56:59.783429,0,2025-11-07 10:57:01.925340692
2025-11-07 10:56:59.783429,-4,2025-11-07 10:57:01.933033000
2025-11-07 10:56:59.783429,1279,2025-11-07 10:57:01.940725308
2025-11-07 10:56:59.783429,0,2025-11-07 10:57:01.948417615
2025-11-07 10:56:59.783429,35,2025-11-07 10:57:01.956109923
2025-11-07 10:56:59.783429,12800,2025-11-07 10:57:01.963802231
2025-11-07 10:56:59.783429,0,2025-11-07 10:57:01.971494538
2025-11-07 10:56:59.783429,52,2025-11-07 10:57:01.979186846
2025-11-07 10:56:59.783429,15616,2025-11-07 10:57:01.986879154
2025-11-07 10:56:59.783429,0,2025-11-07 10:57:01.994571462
2025-11-07 10:56:59.783429,66,2025-11-07 10:57:02.002263769
2025-11-07 10:56:59.783429,18688,2025-11-07 10:57:02.009956077
2025-11-07 10:56:59.783429,0,2025-11-07 10:57:02.017648385
2025-11-07 10:56:59.783429,88,2025-11-07 10:57:02.025340692
2025-11-07 10:56:59.783429,17664,2025-11-07 10:57:02.033033000
2025-11-07 10:56:59.783429,0,2025-11-07 10:57:02.040725308
2025-11-07 10:56:59.783429,28,2025-11-07 10:57:02.048417615
2025-11-07 10:56:59.783429,7168,2025-11-07 10:57:02.056109923
2025-11-07 10:56:59.783429,0,2025-11-07 10:57:02.063802231
2025-11-07 10:56:59.783429,35,2025-11-07 10:57:02.071494538
2025-11-07 10:56:59.783429,3584,2025-11-07 10:57:02.079186846
2025-11-07 10:56:59.783429,0,2025-11-07 10:57:02.086879154
2025-11-07 10:56:59.783429,7,2025-11-07 10:57:02.094571462
2025-11-07 10:56:59.783429,3584,2025-11-07 10:57:02.102263769
2025-11-07 10:56:59.783429,0,2025-11-07 10:57:02.109956077
2025-11-07 10:56:59.783429,14,2025-11-07 10:57:02.117648385
2025-11-07 10:56:59.783429,3584,2025-11-07 10:57:02.125340692
2025-11-07 10:56:59.783429,0,2025-11-07 10:57:02.133033000
2025-11-07 10:56:59.783429,7,2025-11-07 10:57:02.140725308
2025-11-07 10:56:59.783429,-512,2025-11-07 10:57:02.148417615
2025-11-07 10:56:59.783429,-1,2025-11-07 10:57:02.156109923
2025-11-07 10:56:59.783429,-4,2025-11-07 10:57:02.163802231
2025-11-07 10:56:59.783429,-257,2025-11-07 10:57:02.171494538
2025-11-07 10:56:59.783429,-1,2025-11-07 10:57:02.179186846
2025-11-07 10:56:59.783429,2,2025-11-07 10:57:02.186879154
2025-11-07 10:56:59.783429,2816,2025-11-07 10:57:02.194571462
2025-11-07 10:56:59.783429,0,2025-11-07 10:57:02.202263769
2025-11-07 10:56:59.783429,23,2025-11-07 10:57:02.209956077
2025-11-07 10:56:59.783429,3584,2025-11-07 10:57:02.217648385
2025-11-07 10:56:59.783429,0,2025-11-07 10:57:02.225340692
2025-11-07 10:56:59.783429,-7,2025-11-07 10:57:02.233033000
2025-11-07 10:56:59.783429,-769,2025-11-07 10:57:02.240725308
2025-11-07 10:56:59.783429,-1,2025-11-07 10:57:02.248417615
2025-11-07 10:56:59.783429,14,2025-11-07 10:57:02.256109923
2025-11-07 10:56:59.783429,4864,2025-11-07 10:57:02.263802231
2025-11-07 10:56:59.783429,0,2025-11-07 10:57:02.271494538
2025-11-07 10:56:59.783429,9,2025-11-07 10:57:02.279186846
2025-11-07 10:56:59.783429,2304,2025-11-07 10:57:02.286879154
2025-11-07 10:56:59.783429,0,2025-11-07 10:57:02.294571462
2025-11-07 10:56:59.783429,21,2025-11-07 10:57:02.302263769
2025-11-07 10:56:59.783429,5376,2025-11-07 10:57:02.309956077
2025-11-07 10:56:59.783429,0,2025-11-07 10:57:02.317648385
2025-11-07 10:56:59.783429,11,2025-11-07 10:57:02.325340692
2025-11-07 10:56:59.783429,3584,2025-11-07 10:57:02.333033000
2025-11-07 10:56:59.783429,0,2025-11-07 10:57:02.340725308
2025-11-07 10:56:59.783429,14,2025-11-07 10:57:02.348417615
2025-11-07 10:56:59.783429,1792,2025-11-07 10:57:02.356109923
2025-11-07 10:56:59.783429,0,2025-11-07 10:57:02.363802230
2025-11-07 10:56:59.783429,16,2025-11-07 10:57:02.371494538
2025-11-07 10:56:59.783429,5376,2025-11-07 10:57:02.379186846
2025-11-07 10:56:59.783429,0,2025-11-07 10:57:02.386879154
2025-11-07 10:56:59.783429,16,2025-11-07 10:57:02.394571462
2025-11-07 10:56:59.783429,4864,2025-11-07 10:57:02.402263769
2025-11-07 10:56:59.783429,0,2025-11-07 10:57:02.409956077
2025-11-07 10:56:59.783429,11,2025-11-07 10:57:02.417648385
2025-11-07 10:56:59.783429,2304,2025-11-07 10:57:02.425340692
2025-11-07 10:56:59.783429,0,2025-11-07 10:57:02.433033000
2025-11-07 10:56:59.783429,26,2025-11-07 10:57:02.440725308
2025-11-07 10:56:59.783429,5888,2025-11-07 10:57:02.448417615
2025-11-07 10:56:59.783429,0,2025-11-07 10:57:02.456109923
2025-11-07 10:56:59.783429,2,2025-11-07 10:57:02.463802231
2025-11-07 10:56:59.783429,1024,2025-11-07 10:57:02.471494538
2025-11-07 10:56:59.783429,0,2025-11-07 10:57:02.479186846
2025-11-07 10:56:59.783429,9,2025-11-07 10:57:02.486879154
2025-11-07 10:56:59.783429,512,2025-11-07 10:57:02.494571462
2025-11-07 10:56:59.783429,0,2025-11-07 10:57:02.502263769
2025-11-07 10:56:59.783429,14,2025-11-07 10:57:02.509956077
2025-11-07 10:56:59.783429,8960,2025-11-07 10:57:02.517648385
2025-11-07 10:56:59.783429,0,2025-11-07 10:57:02.525340692
2025-11-07 10:56:59.783429,40,2025-11-07 10:57:02.533033000
2025-11-07 10:57:00.382875,40,2025-11-07 10:57:02.540725308
2025-11-07 10:57:00.382875,10752,2025-11-07 10:57:02.548417615
2025-11-07 10:57:00.382875,0,2025-11-07 10:57:02.556109923
2025-11-07 10:57:00.382875,35,2025-11-07 10:57:02.563802231
2025-11-07 10:57:00.382875,5888,2025-11-07 10:57:02.571494538
2025-11-07 10:57:00.382875,0,2025-11-07 10:57:02.579186846
2025-11-07 10:57:00.382875,28,2025-11-07 10:57:02.586879154
2025-11-07 10:57:00.382875,8448,2025-11-07 10:57:02.594571462
2025-11-07 10:57:00.382875,0,2025-11-07 10:57:02.602263769
2025-11-07 10:57:00.382875,21,2025-11-07 10:57:02.609956077
2025-11-07 10:57:00.382875,4864,2025-11-07 10:57:02.617648385
2025-11-07 10:57:00.382875,0,2025-11-07 10:57:02.625340692
2025-11-07 10:57:00.382875,28,2025-11-07 10:57:02.633033000
2025-11-07 10:57:00.382875,8960,2025-11-07 10:57:02.640725308
2025-11-07 10:57:00.382875,0,2025-11-07 10:57:02.648417615
2025-11-07 10:57:00.382875,11,2025-11-07 10:57:02.656109923
2025-11-07 10:57:00.382875,-10752,2025-11-07 10:57:02.663802231
2025-11-07 10:57:00.382875,-1,2025-11-07 10:57:02.671494538
2025-11-07 10:57:00.382875,42,2025-11-07 10:57:02.679186846
2025-11-07 10:57:00.382875,-16384,2025-11-07 10:57:02.686879154
2025-11-07 10:57:00.382875,1,2025-11-07 10:57:02.694571462
2025-11-07 10:57:00.382875,1051,2025-11-07 10:57:02.702263769
2025-11-07 10:57:00.382875,-7424,2025-11-07 10:57:02.709956077
2025-11-07 10:57:00.382875,4,2025-11-07 10:57:02.717648385
2025-11-07 10:57:00.382875,760,2025-11-07 10:57:02.725340692
2025-11-07 10:57:00.382875,-10752,2025-11-07 10:57:02.733033000
2025-11-07 10:57:00.382875,0,2025-11-07 10:57:02.740725308
2025-11-07 10:57:00.382875,16,2025-11-07 10:57:02.748417615
2025-11-07 10:57:00.382875,-18688,2025-11-07 10:57:02.756109923
2025-11-07 10:57:00.382875,-1,2025-11-07 10:57:02.763802231
2025-11-07 10:57:00.382875,-114,2025-11-07 10:57:02.771494538
2025-11-07 10:57:00.382875,-23297,2025-11-07 10:57:02.779186846
2025-11-07 10:57:00.382875,-1,2025-11-07 10:57:02.786879154
2025-11-07 10:57:00.382875,-102,2025-11-07 10:57:02.794571462
2025-11-07 10:57:00.382875,-25345,2025-11-07 10:57:02.802263769
2025-11-07 10:57:00.382875,-1,2025-11-07 10:57:02.809956077
2025-11-07 10:57:00.382875,-73,2025-11-07 10:57:02.817648385
2025-11-07 10:57:00.382875,-18433,2025-11-07 10:57:02.825340692
2025-11-07 10:57:00.382875,-1,2025-11-07 10:57:02.833033000
2025-11-07 10:57:00.382875,-88,2025-11-07 10:57:02.840725308
2025-11-07 10:57:00.382875,-22273,2025-11-07 10:57:02.848417615
2025-11-07 10:57:00.382875,-1,2025-11-07 10:57:02.856109923
2025-11-07 10:57:00.382875,-76,2025-11-07 10:57:02.863802231
2025-11-07 10:57:00.382875,-14849,2025-11-07 10:57:02.871494538
2025-11-07 10:57:00.382875,-1,2025-11-07 10:57:02.879186846
2025-11-07 10:57:00.382875,-47,2025-11-07 10:57:02.886879154
2025-11-07 10:57:00.382875,-10497,2025-11-07 10:57:02.894571462
2025-11-07 10:57:00.382875,-1,2025-11-07 10:57:02.902263769
2025-11-07 10:57:00.382875,-40,2025-11-07 10:57:02.909956077
2025-11-07 10:57:00.382875,-9985,2025-11-07 10:57:02.917648385
2025-11-07 10:57:00.382875,-1,2025-11-07 10:57:02.925340692
2025-11-07 10:57:00.382875,-47,2025-11-07 10:57:02.933033000
2025-11-07 10:57:00.382875,-8193,2025-11-07 10:57:02.940725308
2025-11-07 10:57:00.382875,-1,2025-11-07 10:57:02.948417615
2025-11-07 10:57:00.382875,-9,2025-11-07 10:57:02.956109923
2025-11-07 10:57:00.382875,2047,2025-11-07 10:57:02.963802231
2025-11-07 10:57:00.382875,0,2025-11-07 10:57:02.971494538
2025-11-07 10:57:00.382875,9,2025-11-07 10:57:02.979186846
2025-11-07 10:57:00.382875,4864,2025-11-07 10:57:02.986879154
2025-11-07 10:57:00.382875,0,2025-11-07 10:57:02.994571462
2025-11-07 10:57:00.382875,54,2025-11-07 10:57:03.002263769
2025-11-07 10:57:00.382875,17664,2025-11-07 10:57:03.009956077
2025-11-07 10:57:00.382875,0,2025-11-07 10:57:03.017648385
2025-11-07 10:57:00.382875,76,2025-11-07 10:57:03.025340692
2025-11-07 10:57:00.382875,26112,2025-11-07 10:57:03.033033000
2025-11-07 10:57:00.382875,0,2025-11-07 10:57:03.040725308
2025-11-07 10:57:00.382875,102,2025-11-07 10:57:03.048417615
2025-11-07 10:57:00.382875,23552,2025-11-07 10:57:03.056109923
2025-11-07 10:57:00.382875,0,2025-11-07 10:57:03.063802231
2025-11-07 10:57:00.382875,83,2025-11-07 10:57:03.071494538
2025-11-07 10:57:00.382875,7680,2025-11-07 10:57:03.079186846
2025-11-07 10:57:00.382875,0,2025-11-07 10:57:03.086879154
2025-11-07 10:57:00.382875,-9,2025-11-07 10:57:03.094571462
2025-11-07 10:57:00.382875,3839,2025-11-07 10:57:03.102263769
2025-11-07 10:57:00.382875,0,2025-11-07 10:57:03.109956077
2025-11-07 10:57:00.382875,21,2025-11-07 10:57:03.117648385
2025-11-07 10:57:00.382875,-2816,2025-11-07 10:57:03.125340692
2025-11-07 10:57:00.382875,-1,2025-11-07 10:57:03.133033000
2025-11-07 10:57:00.382875,-19,2025-11-07 10:57:03.140725308
2025-11-07 10:57:00.382875,-2049,2025-11-07 10:57:03.148417615
2025-11-07 10:57:00.382875,-1,2025-11-07 10:57:03.156109923
2025-11-07 10:57:00.382875,-4,2025-11-07 10:57:03.163802231
2025-11-07 10:57:00.382875,-257,2025-11-07 10:57:03.171494538
2025-11-07 10:57:00.382875,-1,2025-11-07 10:57:03.179186846
2025-11-07 10:57:00.382875,0,2025-11-07 10:57:03.186879154
2025-11-07 10:57:00.382875,1792,2025-11-07 10:57:03.194571462
2025-11-07 10:57:00.382875,0,2025-11-07 10:57:03.202263769
2025-11-07 10:57:00.382875,9,2025-11-07 10:57:03.209956077
2025-11-07 10:57:00.382875,0,2025-11-07 10:57:03.217648385
2025-11-07 10:57:00.382875,0,2025-11-07 10:57:03.225340692
2025-11-07 10:57:00.382875,-4,2025-11-07 10:57:03.233033000
2025-11-07 10:57:00.382875,-257,2025-11-07 10:57:03.240725308
2025-11-07 10:57:00.382875,-1,2025-11-07 10:57:03.248417615
2025-11-07 10:57:00.382875,2,2025-11-07 10:57:03.256109923
2025-11-07 10:57:00.382875,1024,2025-11-07 10:57:03.263802231
2025-11-07 10:57:00.382875,0,2025-11-07 10:57:03.271494538
2025-11-07 10:57:00.382875,7,2025-11-07 10:57:03.279186846
2025-11-07 10:57:00.382875,1792,2025-11-07 10:57:03.286879154
2025-11-07 10:57:00.382875,0,2025-11-07 10:57:03.294571462
2025-11-07 10:57:00.382875,-4,2025-11-07 10:57:03.302263769
2025-11-07 10:57:00.382875,-3329,2025-11-07 10:57:03.309956077
2025-11-07 10:57:00.382875,-1,2025-11-07 10:57:03.317648385
2025-11-07 10:57:00.382875,2,2025-11-07 10:57:03.325340692
2025-11-07 10:57:00.382875,4096,2025-11-07 10:57:03.333033000
2025-11-07 10:57:00.382875,0,2025-11-07 10:57:03.340725308
2025-11-07 10:57:00.382875,2,2025-11-07 10:57:03.348417615
2025-11-07 10:57:00.382875,-512,2025-11-07 10:57:03.356109923
2025-11-07 10:57:00.382875,-1,2025-11-07 10:57:03.363802230
2025-11-07 10:57:00.382875,14,2025-11-07 10:57:03.371494538
2025-11-07 10:57:00.883966,21,2025-11-07 10:57:03.379186846
2025-11-07 10:57:00.883966,1792,2025-11-07 10:57:03.386879154
2025-11-07 10:57:00.883966,0,2025-11-07 10:57:03.394571462
2025-11-07 10:57:00.883966,9,2025-11-07 10:57:03.402263769
2025-11-07 10:57:00.883966,4864,2025-11-07 10:57:03.409956077
2025-11-07 10:57:00.883966,0,2025-11-07 10:57:03.417648385
2025-11-07 10:57:00.883966,16,2025-11-07 10:57:03.425340692
2025-11-07 10:57:00.883966,7168,2025-11-07 10:57:03.433033000
2025-11-07 10:57:00.883966,0,2025-11-07 10:57:03.440725308
2025-11-07 10:57:00.883966,23,2025-11-07 10:57:03.448417615
2025-11-07 10:57:00.883966,1024,2025-11-07 10:57:03.456109923
2025-11-07 10:57:00.883966,0,2025-11-07 10:57:03.463802231
2025-11-07 10:57:00.883966,0,2025-11-07 10:57:03.471494538
2025-11-07 10:57:00.883966,-1792,2025-11-07 10:57:03.479186846
2025-11-07 10:57:00.883966,-1,2025-11-07 10:57:03.486879154
2025-11-07 10:57:00.883966,4,2025-11-07 10:57:03.494571462
2025-11-07 10:57:00.883966,11520,2025-11-07 10:57:03.502263769
2025-11-07 10:57:00.883966,0,2025-11-07 10:57:03.509956077
2025-11-07 10:57:00.883966,52,2025-11-07 10:57:03.517648385
2025-11-07 10:57:00.883966,10240,2025-11-07 10:57:03.525340692
2025-11-07 10:57:00.883966,0,2025-11-07 10:57:03.533033000
2025-11-07 10:57:00.883966,45,2025-11-07 10:57:03.540725308
2025-11-07 10:57:00.883966,7680,2025-11-07 10:57:03.548417615
2025-11-07 10:57:00.883966,0,2025-11-07 10:57:03.556109923
2025-11-07 10:57:00.883966,7,2025-11-07 10:57:03.563802231
2025-11-07 10:57:00.883966,8448,2025-11-07 10:57:03.571494538
2025-11-07 10:57:00.883966,0,2025-11-07 10:57:03.579186846
2025-11-07 10:57:00.883966,64,2025-11-07 10:57:03.586879154
2025-11-07 10:57:00.883966,12800,2025-11-07 10:57:03.594571462
2025-11-07 10:57:00.883966,0,2025-11-07 10:57:03.602263769
2025-11-07 10:57:00.883966,38,2025-11-07 10:57:03.609956077
2025-11-07 10:57:00.883966,10752,2025-11-07 10:57:03.617648385
2025-11-07 10:57:00.883966,0,2025-11-07 10:57:03.625340692
2025-11-07 10:57:00.883966,40,2025-11-07 10:57:03.633033000
2025-11-07 10:57:00.883966,5888,2025-11-07 10:57:03.640725308
2025-11-07 10:57:00.883966,0,2025-11-07 10:57:03.648417615
2025-11-07 10:57:00.883966,-21,2025-11-07 10:57:03.656109923
2025-11-07 10:57:00.883966,-2049,2025-11-07 10:57:03.663802231
2025-11-07 10:57:00.883966,-1,2025-11-07 10:57:03.671494538
2025-11-07 10:57:00.883966,274,2025-11-07 10:57:03.679186846
2025-11-07 10:57:00.883966,20480,2025-11-07 10:57:03.686879154
2025-11-07 10:57:00.883966,3,2025-11-07 10:57:03.694571462
2025-11-07 10:57:00.883966,1208,2025-11-07 10:57:03.702263769
2025-11-07 10:57:00.883966,26112,2025-11-07 10:57:03.709956077
2025-11-07 10:57:00.883966,3,2025-11-07 10:57:03.717648385
2025-11-07 10:57:00.883966,267,2025-11-07 10:57:03.725340692
2025-11-07 10:57:00.883966,4096,2025-11-07 10:57:03.733033000
2025-11-07 10:57:00.883966,0,2025-11-07 10:57:03.740725308
2025-11-07 10:57:00.883966,-26,2025-11-07 10:57:03.748417615
2025-11-07 10:57:00.883966,-23297,2025-11-07 10:57:03.756109923
2025-11-07 10:57:00.883966,-1,2025-11-07 10:57:03.763802231
2025-11-07 10:57:00.883966,-109,2025-11-07 10:57:03.771494538
2025-11-07 10:57:00.883966,-22273,2025-11-07 10:57:03.779186846
2025-11-07 10:57:00.883966,-1,2025-11-07 10:57:03.786879154
2025-11-07 10:57:00.883966,-78,2025-11-07 10:57:03.794571462
2025-11-07 10:57:00.883966,-17409,2025-11-07 10:57:03.802263769
2025-11-07 10:57:00.883966,-1,2025-11-07 10:57:03.809956077
2025-11-07 10:57:00.883966,-73,2025-11-07 10:57:03.817648385
2025-11-07 10:57:00.883966,-20993,2025-11-07 10:57:03.825340692
2025-11-07 10:57:00.883966,-1,2025-11-07 10:57:03.833033000
2025-11-07 10:57:00.883966,-64,2025-11-07 10:57:03.840725308
2025-11-07 10:57:00.883966,-10497,2025-11-07 10:57:03.848417615
2025-11-07 10:57:00.883966,-1,2025-11-07 10:57:03.856109923
2025-11-07 10:57:00.883966,-38,2025-11-07 10:57:03.863802231
2025-11-07 10:57:00.883966,-8705,2025-11-07 10:57:03.871494538
2025-11-07 10:57:00.883966,-1,2025-11-07 10:57:03.879186846
2025-11-07 10:57:00.883966,-30,2025-11-07 10:57:03.886879154
2025-11-07 10:57:00.883966,-6401,2025-11-07 10:57:03.894571462
2025-11-07 10:57:00.883966,-1,2025-11-07 10:57:03.902263769
2025-11-07 10:57:00.883966,-2,2025-11-07 10:57:03.909956077
2025-11-07 10:57:00.883966,3839,2025-11-07 10:57:03.917648385
2025-11-07 10:57:00.883966,0,2025-11-07 10:57:03.925340692
2025-11-07 10:57:00.883966,0,2025-11-07 10:57:03.933033000
2025-11-07 10:57:00.883966,1792,2025-11-07 10:57:03.940725308
2025-11-07 10:57:00.883966,0,2025-11-07 10:57:03.948417615
2025-11-07 10:57:00.883966,26,2025-11-07 10:57:03.956109923
2025-11-07 10:57:00.883966,9728,2025-11-07 10:57:03.963802231
2025-11-07 10:57:00.883966,0,2025-11-07 10:57:03.971494538
2025-11-07 10:57:00.883966,73,2025-11-07 10:57:03.979186846
2025-11-07 10:57:00.883966,26624,2025-11-07 10:57:03.986879154
2025-11-07 10:57:00.883966,0,2025-11-07 10:57:03.994571462
2025-11-07 10:57:00.883966,102,2025-11-07 10:57:04.002263769
2025-11-07 10:57:00.883966,28672,2025-11-07 10:57:04.009956077
2025-11-07 10:57:00.883966,0,2025-11-07 10:57:04.017648385
2025-11-07 10:57:00.883966,140,2025-11-07 10:57:04.025340692
2025-11-07 10:57:00.883966,-28928,2025-11-07 10:57:04.033033000
2025-11-07 10:57:00.883966,0,2025-11-07 10:57:04.040725308
2025-11-07 10:57:00.883966,107,2025-11-07 10:57:04.048417615
2025-11-07 10:57:00.883966,16896,2025-11-07 10:57:04.056109923
2025-11-07 10:57:00.883966,0,2025-11-07 10:57:04.063802231
2025-11-07 10:57:00.883966,45,2025-11-07 10:57:04.071494538
2025-11-07 10:57:00.883966,6656,2025-11-07 10:57:04.079186846
2025-11-07 10:57:00.883966,0,2025-11-07 10:57:04.086879154
2025-11-07 10:57:00.883966,7,2025-11-07 10:57:04.094571462
2025-11-07 10:57:00.883966,-1792,2025-11-07 10:57:04.102263769
2025-11-07 10:57:00.883966,-1,2025-11-07 10:57:04.109956077
2025-11-07 10:57:00.883966,-23,2025-11-07 10:57:04.117648385
2025-11-07 10:57:00.883966,-5633,2025-11-07 10:57:04.125340692
2025-11-07 10:57:00.883966,-1,2025-11-07 10:57:04.133033000
2025-11-07 10:57:00.883966,-7,2025-11-07 10:57:04.140725308
2025-11-07 10:57:00.883966,2559,2025-11-07 10:57:04.148417615
2025-11-07 10:57:00.883966,0,2025-11-07 10:57:04.156109923
2025-11-07 10:57:00.883966,7,2025-11-07 10:57:04.163802231
2025-11-07 10:57:00.883966,-4864,2025-11-07 10:57:04.171494538
2025-11-07 10:57:00.883966,-1,2025-11-07 10:57:04.179186846
2025-11-07 10:57:00.883966,-28,2025-11-07 10:57:04.186879154
2025-11-07 10:57:00.883966,-769,2025-11-07 10:57:04.194571462
2025-11-07 10:57:00.883966,-1,2025-11-07 10:57:04.202263769
2025-11-07 10:57:00.883966,-7,2025-11-07 10:57:04.209956077
2025-11-07 10:57:01.484184,-9,2025-11-07 10:57:04.217648385
2025-11-07 10:57:01.484184,5119,2025-11-07 10:57:04.225340692
2025-11-07 10:57:01.484184,0,2025-11-07 10:57:04.233033000
2025-11-07 10:57:01.484184,19,2025-11-07 10:57:04.240725308
2025-11-07 10:57:01.484184,512,2025-11-07 10:57:04.248417615
2025-11-07 10:57:01.484184,0,2025-11-07 10:57:04.256109923
2025-11-07 10:57:01.484184,14,2025-11-07 10:57:04.263802231
2025-11-07 10:57:01.484184,5888,2025-11-07 10:57:04.271494538
2025-11-07 10:57:01.484184,0,2025-11-07 10:57:04.279186846
2025-11-07 10:57:01.484184,2,2025-11-07 10:57:04.286879154
2025-11-07 10:57:01.484184,1024,2025-11-07 10:57:04.294571462
2025-11-07 10:57:01.484184,0,2025-11-07 10:57:04.302263769
2025-11-07 10:57:01.484184,23,2025-11-07 10:57:04.309956077
2025-11-07 10:57:01.484184,7680,2025-11-07 10:57:04.317648385
2025-11-07 10:57:01.484184,0,2025-11-07 10:57:04.325340692
2025-11-07 10:57:01.484184,35,2025-11-07 10:57:04.333033000
2025-11-07 10:57:01.484184,9728,2025-11-07 10:57:04.340725308
2025-11-07 10:57:01.484184,0,2025-11-07 10:57:04.348417615
2025-11-07 10:57:01.484184,30,2025-11-07 10:57:04.356109923
2025-11-07 10:57:01.484184,7680,2025-11-07 10:57:04.363802230
2025-11-07 10:57:01.484184,0,2025-11-07 10:57:04.371494538
2025-11-07 10:57:01.484184,35,2025-11-07 10:57:04.379186846
2025-11-07 10:57:01.484184,7680,2025-11-07 10:57:04.386879154
2025-11-07 10:57:01.484184,0,2025-11-07 10:57:04.394571462
2025-11-07 10:57:01.484184,19,2025-11-07 10:57:04.402263769
2025-11-07 10:57:01.484184,6656,2025-11-07 10:57:04.409956077
2025-11-07 10:57:01.484184,0,2025-11-07 10:57:04.417648385
2025-11-07 10:57:01.484184,35,2025-11-07 10:57:04.425340692
2025-11-07 10:57:01.484184,2816,2025-11-07 10:57:04.433033000
2025-11-07 10:57:01.484184,0,2025-11-07 10:57:04.440725308
2025-11-07 10:57:01.484184,-4,2025-11-07 10:57:04.448417615
2025-11-07 10:57:01.484184,5631,2025-11-07 10:57:04.456109923
2025-11-07 10:57:01.484184,0,2025-11-07 10:57:04.463802231
2025-11-07 10:57:01.484184,50,2025-11-07 10:57:04.471494538
2025-11-07 10:57:01.484184,13312,2025-11-07 10:57:04.479186846
2025-11-07 10:57:01.484184,0,2025-11-07 10:57:04.486879154
2025-11-07 10:57:01.484184,47,2025-11-07 10:57:04.494571462
2025-11-07 10:57:01.484184,11520,2025-11-07 10:57:04.502263769
2025-11-07 10:57:01.484184,0,2025-11-07 10:57:04.509956077
2025-11-07 10:57:01.484184,28,2025-11-07 10:57:04.517648385
2025-11-07 10:57:01.484184,2816,2025-11-07 10:57:04.525340692
2025-11-07 10:57:01.484184,0,2025-11-07 10:57:04.533033000
2025-11-07 10:57:01.484184,0,2025-11-07 10:57:04.540725308
2025-11-07 10:57:01.484184,-2304,2025-11-07 10:57:04.548417615
2025-11-07 10:57:01.484184,-1,2025-11-07 10:57:04.556109923
2025-11-07 10:57:01.484184,7,2025-11-07 10:57:04.563802231
2025-11-07 10:57:01.484184,5376,2025-11-07 10:57:04.571494538
2025-11-07 10:57:01.484184,0,2025-11-07 10:57:04.579186846
2025-11-07 10:57:01.484184,0,2025-11-07 10:57:04.586879154
2025-11-07 10:57:01.484184,-512,2025-11-07 10:57:04.594571462
2025-11-07 10:57:01.484184,-1,2025-11-07 10:57:04.602263769
2025-11-07 10:57:01.484184,19,2025-11-07 10:57:04.609956077
2025-11-07 10:57:01.484184,-2816,2025-11-07 10:57:04.617648385
2025-11-07 10:57:01.484184,-1,2025-11-07 10:57:04.625340692
2025-11-07 10:57:01.484184,-66,2025-11-07 10:57:04.633033000
2025-11-07 10:57:01.484184,5631,2025-11-07 10:57:04.640725308
2025-11-07 10:57:01.484184,0,2025-11-07 10:57:04.648417615
2025-11-07 10:57:01.484184,338,2025-11-07 10:57:04.656109923
2025-11-07 10:57:01.484184,-16640,2025-11-07 10:57:04.663802231
2025-11-07 10:57:01.484184,2,2025-11-07 10:57:04.671494538
2025-11-07 10:57:01.484184,746,2025-11-07 10:57:04.679186846
2025-11-07 10:57:01.484184,-23040,2025-11-07 10:57:04.686879154
2025-11-07 10:57:01.484184,1,2025-11-07 10:57:04.694571462
2025-11-07 10:57:01.484184,121,2025-11-07 10:57:04.702263769
2025-11-07 10:57:01.484184,-4096,2025-11-07 10:57:04.709956077
2025-11-07 10:57:01.484184,-1,2025-11-07 10:57:04.717648385
2025-11-07 10:57:01.484184,-102,2025-11-07 10:57:04.725340692
2025-11-07 10:57:01.484184,-27649,2025-11-07 10:57:04.733033000
2025-11-07 10:57:01.484184,-1,2025-11-07 10:57:04.740725308
2025-11-07 10:57:01.484184,-90,2025-11-07 10:57:04.748417615
2025-11-07 10:57:01.484184,-27649,2025-11-07 10:57:04.756109923
2025-11-07 10:57:01.484184,-1,2025-11-07 10:57:04.763802231
2025-11-07 10:57:01.484184,-104,2025-11-07 10:57:04.771494538
2025-11-07 10:57:01.484184,-20993,2025-11-07 10:57:04.779186846
2025-11-07 10:57:01.484184,-1,2025-11-07 10:57:04.786879154
2025-11-07 10:57:01.484184,-83,2025-11-07 10:57:04.794571462
2025-11-07 10:57:01.484184,-20993,2025-11-07 10:57:04.802263769
2025-11-07 10:57:01.484184,-1,2025-11-07 10:57:04.809956077
2025-11-07 10:57:01.484184,-81,2025-11-07 10:57:04.817648385
2025-11-07 10:57:01.484184,-16641,2025-11-07 10:57:04.825340692
2025-11-07 10:57:01.484184,-1,2025-11-07 10:57:04.833033000
2025-11-07 10:57:01.484184,-52,2025-11-07 10:57:04.840725308
2025-11-07 10:57:01.484184,-13569,2025-11-07 10:57:04.848417615
2025-11-07 10:57:01.484184,-1,2025-11-07 10:57:04.856109923
2025-11-07 10:57:01.484184,-52,2025-11-07 10:57:04.863802231
2025-11-07 10:57:01.484184,-8193,2025-11-07 10:57:04.871494538
2025-11-07 10:57:01.484184,-1,2025-11-07 10:57:04.879186846
2025-11-07 10:57:01.484184,-14,2025-11-07 10:57:04.886879154
2025-11-07 10:57:01.484184,-5121,2025-11-07 10:57:04.894571462
2025-11-07 10:57:01.484184,-1,2025-11-07 10:57:04.902263769
2025-11-07 10:57:01.484184,-33,2025-11-07 10:57:04.909956077
2025-11-07 10:57:01.484184,-1537,2025-11-07 10:57:04.917648385
2025-11-07 10:57:01.484184,-1,2025-11-07 10:57:04.925340692
2025-11-07 10:57:01.484184,28,2025-11-07 10:57:04.933033000
2025-11-07 10:57:01.484184,10240,2025-11-07 10:57:04.940725308
2025-11-07 10:57:01.484184,0,2025-11-07 10:57:04.948417615
2025-11-07 10:57:01.484184,57,2025-11-07 10:57:04.956109923
2025-11-07 10:57:01.484184,20736,2025-11-07 10:57:04.963802231
2025-11-07 10:57:01.484184,0,2025-11-07 10:57:04.971494538
2025-11-07 10:57:01.484184,95,2025-11-07 10:57:04.979186846
2025-11-07 10:57:01.484184,25600,2025-11-07 10:57:04.986879154
2025-11-07 10:57:01.484184,0,2025-11-07 10:57:04.994571462
2025-11-07 10:57:01.484184,90,2025-11-07 10:57:05.002263769
2025-11-07 10:57:01.484184,16896,2025-11-07 10:57:05.009956077
2025-11-07 10:57:01.484184,0,2025-11-07 10:57:05.017648385
2025-11-07 10:57:01.484184,52,2025-11-07 10:57:05.025340692
2025-11-07 10:57:01.484184,9728,2025-11-07 10:57:05.033033000
2025-11-07 10:57:01.484184,0,2025-11-07 10:57:05.040725308
2025-11-07 10:57:01.484184,2,2025-11-07 10:57:05.048417615
2025-11-07 10:57:01.984159,-33,2025-11-07 10:57:05.056109923
2025-11-07 10:57:01.984159,-12545,2025-11-07 10:57:05.063802231
2025-11-07 10:57:01.984159,-1,2025-11-07 10:57:05.071494538
2025-11-07 10:57:01.984159,-59,2025-11-07 10:57:05.079186846
2025-11-07 10:57:01.984159,-14849,2025-11-07 10:57:05.086879154
2025-11-07 10:57:01.984159,-1,2025-11-07 10:57:05.094571462
2025-11-07 10:57:01.984159,-57,2025-11-07 10:57:05.102263769
2025-11-07 10:57:01.984159,-13569,2025-11-07 10:57:05.109956077
2025-11-07 10:57:01.984159,-1,2025-11-07 10:57:05.117648385
2025-11-07 10:57:01.984159,-45,2025-11-07 10:57:05.125340692
2025-11-07 10:57:01.984159,-11777,2025-11-07 10:57:05.133033000
2025-11-07 10:57:01.984159,-1,2025-11-07 10:57:05.140725308
2025-11-07 10:57:01.984159,-59,2025-11-07 10:57:05.148417615
2025-11-07 10:57:01.984159,-11777,2025-11-07 10:57:05.156109923
2025-11-07 10:57:01.984159,-1,2025-11-07 10:57:05.163802231
2025-11-07 10:57:01.984159,-40,2025-11-07 10:57:05.171494538
2025-11-07 10:57:01.984159,-12545,2025-11-07 10:57:05.179186846
2025-11-07 10:57:01.984159,-1,2025-11-07 10:57:05.186879154
2025-11-07 10:57:01.984159,-50,2025-11-07 10:57:05.194571462
2025-11-07 10:57:01.984159,-10497,2025-11-07 10:57:05.202263769
2025-11-07 10:57:01.984159,-1,2025-11-07 10:57:05.209956077
2025-11-07 10:57:01.984159,-30,2025-11-07 10:57:05.217648385
2025-11-07 10:57:01.984159,-4609,2025-11-07 10:57:05.225340692
2025-11-07 10:57:01.984159,-1,2025-11-07 10:57:05.233033000
2025-11-07 10:57:01.984159,-21,2025-11-07 10:57:05.240725308
2025-11-07 10:57:01.984159,-7425,2025-11-07 10:57:05.248417615
2025-11-07 10:57:01.984159,-1,2025-11-07 10:57:05.256109923
2025-11-07 10:57:01.984159,-33,2025-11-07 10:57:05.263802231
2025-11-07 10:57:01.984159,-6913,2025-11-07 10:57:05.271494538
2025-11-07 10:57:01.984159,-1,2025-11-07 10:57:05.279186846
2025-11-07 10:57:01.984159,-26,2025-11-07 10:57:05.286879154
2025-11-07 10:57:01.984159,-6401,2025-11-07 10:57:05.294571462
2025-11-07 10:57:01.984159,-1,2025-11-07 10:57:05.302263769
2025-11-07 10:57:01.984159,-26,2025-11-07 10:57:05.309956077
2025-11-07 10:57:01.984159,-6913,2025-11-07 10:57:05.317648385
2025-11-07 10:57:01.984159,-1,2025-11-07 10:57:05.325340692
2025-11-07 10:57:01.984159,-33,2025-11-07 10:57:05.333033000
2025-11-07 10:57:01.984159,-8705,2025-11-07 10:57:05.340725308
2025-11-07 10:57:01.984159,-1,2025-11-07 10:57:05.348417615
2025-11-07 10:57:01.984159,-33,2025-11-07 10:57:05.356109923
2025-11-07 10:57:01.984159,-8705,2025-11-07 10:57:05.363802230
2025-11-07 10:57:01.984159,-1,2025-11-07 10:57:05.371494538
2025-11-07 10:57:01.984159,-42,2025-11-07 10:57:05.379186846
2025-11-07 10:57:01.984159,-9473,2025-11-07 10:57:05.386879154
2025-11-07 10:57:01.984159,-1,2025-11-07 10:57:05.394571462
2025-11-07 10:57:01.984159,-16,2025-11-07 10:57:05.402263769
2025-11-07 10:57:01.984159,-257,2025-11-07 10:57:05.409956077
2025-11-07 10:57:01.984159,-1,2025-11-07 10:57:05.417648385
2025-11-07 10:57:01.984159,-2,2025-11-07 10:57:05.425340692
2025-11-07 10:57:01.984159,255,2025-11-07 10:57:05.433033000
2025-11-07 10:57:01.984159,0,2025-11-07 10:57:05.440725308
2025-11-07 10:57:01.984159,-21,2025-11-07 10:57:05.448417615
2025-11-07 10:57:01.984159,-7425,2025-11-07 10:57:05.456109923
2025-11-07 10:57:01.984159,-1,2025-11-07 10:57:05.463802231
2025-11-07 10:57:01.984159,-16,2025-11-07 10:57:05.471494538
2025-11-07 10:57:01.984159,-7425,2025-11-07 10:57:05.479186846
2025-11-07 10:57:01.984159,-1,2025-11-07 10:57:05.486879154
2025-11-07 10:57:01.984159,-38,2025-11-07 10:57:05.494571462
2025-11-07 10:57:01.984159,-3329,2025-11-07 10:57:05.502263769
2025-11-07 10:57:01.984159,-1,2025-11-07 10:57:05.509956077
2025-11-07 10:57:01.984159,-19,2025-11-07 10:57:05.517648385
2025-11-07 10:57:01.984159,-9473,2025-11-07 10:57:05.525340692
2025-11-07 10:57:01.984159,-1,2025-11-07 10:57:05.533033000
2025-11-07 10:57:01.984159,-45,2025-11-07 10:57:05.540725308
2025-11-07 10:57:01.984159,-18433,2025-11-07 10:57:05.548417615
2025-11-07 10:57:01.984159,-1,2025-11-07 10:57:05.556109923
2025-11-07 10:57:01.984159,-42,2025-11-07 10:57:05.563802231
2025-11-07 10:57:01.984159,-14849,2025-11-07 10:57:05.571494538
2025-11-07 10:57:01.984159,0,2025-11-07 10:57:05.579186846
2025-11-07 10:57:01.984159,619,2025-11-07 10:57:05.586879154
2025-11-07 10:57:01.984159,19456,2025-11-07 10:57:05.594571462
2025-11-07 10:57:01.984159,3,2025-11-07 10:57:05.602263769
2025-11-07 10:57:01.984159,588,2025-11-07 10:57:05.609956077
2025-11-07 10:57:01.984159,-13824,2025-11-07 10:57:05.617648385
2025-11-07 10:57:01.984159,0,2025-11-07 10:57:05.625340692
2025-11-07 10:57:01.984159,-2,2025-11-07 10:57:05.633033000
2025-11-07 10:57:01.984159,-27137,2025-11-07 10:57:05.640725308
2025-11-07 10:57:01.984159,-1,2025-11-07 10:57:05.648417615
2025-11-07 10:57:01.984159,-123,2025-11-07 10:57:05.656109923
2025-11-07 10:57:01.984159,-24065,2025-11-07 10:57:05.663802231
2025-11-07 10:57:01.984159,-1,2025-11-07 10:57:05.671494538
2025-11-07 10:57:01.984159,-114,2025-11-07 10:57:05.679186846
2025-11-07 10:57:01.984159,32255,2025-11-07 10:57:05.686879154
2025-11-07 10:57:01.984159,-1,2025-11-07 10:57:05.694571462
2025-11-07 10:57:01.984159,-114,2025-11-07 10:57:05.702263769
2025-11-07 10:57:01.984159,-24577,2025-11-07 10:57:05.709956077
2025-11-07 10:57:01.984159,-1,2025-11-07 10:57:05.717648385
2025-11-07 10:57:01.984159,-102,2025-11-07 10:57:05.725340692
2025-11-07 10:57:01.984159,-23297,2025-11-07 10:57:05.733033000
2025-11-07 10:57:01.984159,-1,2025-11-07 10:57:05.740725308
2025-11-07 10:57:01.984159,-73,2025-11-07 10:57:05.748417615
2025-11-07 10:57:01.984159,-20993,2025-11-07 10:57:05.756109923
2025-11-07 10:57:01.984159,-1,2025-11-07 10:57:05.763802231
2025-11-07 10:57:01.984159,-81,2025-11-07 10:57:05.771494538
2025-11-07 10:57:01.984159,-13569,2025-11-07 10:57:05.779186846
2025-11-07 10:57:01.984159,-1,2025-11-07 10:57:05.786879154
2025-11-07 10:57:01.984159,-50,2025-11-07 10:57:05.794571462
2025-11-07 10:57:01.984159,-14849,2025-11-07 10:57:05.802263769
2025-11-07 10:57:01.984159,-1,2025-11-07 10:57:05.809956077
2025-11-07 10:57:01.984159,-52,2025-11-07 10:57:05.817648385
2025-11-07 10:57:01.984159,-9985,2025-11-07 10:57:05.825340692
2025-11-07 10:57:01.984159,-1,2025-11-07 10:57:05.833033000
2025-11-07 10:57:01.984159,-21,2025-11-07 10:57:05.840725308
2025-11-07 10:57:01.984159,-1537,2025-11-07 10:57:05.848417615
2025-11-07 10:57:01.984159,-1,2025-11-07 10:57:05.856109923
2025-11-07 10:57:01.984159,11,2025-11-07 10:57:05.863802231
2025-11-07 10:57:01.984159,10752,2025-11-07 10:57:05.871494538
2025-11-07 10:57:01.984159,0,2025-11-07 10:57:05.879186846
2025-11-07 10:57:01.984159,59,2025-11-07 10:57:05.886879154
2025-11-07 10:57:02.584260,59,2025-11-07 10:57:05.894571462
2025-11-07 10:57:02.584260,16896,2025-11-07 10:57:05.902263769
2025-11-07 10:57:02.584260,0,2025-11-07 10:57:05.909956077
2025-11-07 10:57:02.584260,71,2025-11-07 10:57:05.917648385
2025-11-07 10:57:02.584260,16384,2025-11-07 10:57:05.925340692
2025-11-07 10:57:02.584260,0,2025-11-07 10:57:05.933033000
2025-11-07 10:57:02.584260,40,2025-11-07 10:57:05.940725308
2025-11-07 10:57:02.584260,1792,2025-11-07 10:57:05.948417615
2025-11-07 10:57:02.584260,0,2025-11-07 10:57:05.956109923
2025-11-07 10:57:02.584260,-7,2025-11-07 10:57:05.963802231
2025-11-07 10:57:02.584260,-2049,2025-11-07 10:57:05.971494538
2025-11-07 10:57:02.584260,-1,2025-11-07 10:57:05.979186846
2025-11-07 10:57:02.584260,-33,2025-11-07 10:57:05.986879154
2025-11-07 10:57:02.584260,-16129,2025-11-07 10:57:05.994571462
2025-11-07 10:57:02.584260,-1,2025-11-07 10:57:06.002263769
2025-11-07 10:57:02.584260,-71,2025-11-07 10:57:06.009956077
2025-11-07 10:57:02.584260,-16129,2025-11-07 10:57:06.017648385
2025-11-07 10:57:02.584260,-1,2025-11-07 10:57:06.025340692
2025-11-07 10:57:02.584260,-59,2025-11-07 10:57:06.033033000
2025-11-07 10:57:02.584260,-13569,2025-11-07 10:57:06.040725308
2025-11-07 10:57:02.584260,-1,2025-11-07 10:57:06.048417615
2025-11-07 10:57:02.584260,-47,2025-11-07 10:57:06.056109923
2025-11-07 10:57:02.584260,-11265,2025-11-07 10:57:06.063802231
2025-11-07 10:57:02.584260,-1,2025-11-07 10:57:06.071494538
2025-11-07 10:57:02.584260,-50,2025-11-07 10:57:06.079186846
2025-11-07 10:57:02.584260,-15361,2025-11-07 10:57:06.086879154
2025-11-07 10:57:02.584260,-1,2025-11-07 10:57:06.094571462
2025-11-07 10:57:02.584260,-66,2025-11-07 10:57:06.102263769
2025-11-07 10:57:02.584260,-14337,2025-11-07 10:57:06.109956077
2025-11-07 10:57:02.584260,-1,2025-11-07 10:57:06.117648385
2025-11-07 10:57:02.584260,-45,2025-11-07 10:57:06.125340692
2025-11-07 10:57:02.584260,-11265,2025-11-07 10:57:06.133033000
2025-11-07 10:57:02.584260,-1,2025-11-07 10:57:06.140725308
2025-11-07 10:57:02.584260,-42,2025-11-07 10:57:06.148417615
2025-11-07 10:57:02.584260,-9473,2025-11-07 10:57:06.156109923
2025-11-07 10:57:02.584260,-1,2025-11-07 10:57:06.163802231
2025-11-07 10:57:02.584260,-50,2025-11-07 10:57:06.171494538
2025-11-07 10:57:02.584260,-11777,2025-11-07 10:57:06.179186846
2025-11-07 10:57:02.584260,-1,2025-11-07 10:57:06.186879154
2025-11-07 10:57:02.584260,-35,2025-11-07 10:57:06.194571462
2025-11-07 10:57:02.584260,-9985,2025-11-07 10:57:06.202263769
2025-11-07 10:57:02.584260,-1,2025-11-07 10:57:06.209956077
2025-11-07 10:57:02.584260,-42,2025-11-07 10:57:06.217648385
2025-11-07 10:57:02.584260,-8705,2025-11-07 10:57:06.225340692
2025-11-07 10:57:02.584260,-1,2025-11-07 10:57:06.233033000
2025-11-07 10:57:02.584260,-42,2025-11-07 10:57:06.240725308
2025-11-07 10:57:02.584260,-11777,2025-11-07 10:57:06.248417615
2025-11-07 10:57:02.584260,-1,2025-11-07 10:57:06.256109923
2025-11-07 10:57:02.584260,-40,2025-11-07 10:57:06.263802231
2025-11-07 10:57:02.584260,-8705,2025-11-07 10:57:06.271494538
2025-11-07 10:57:02.584260,-1,2025-11-07 10:57:06.279186846
2025-11-07 10:57:02.584260,-7,2025-11-07 10:57:06.286879154
2025-11-07 10:57:02.584260,3839,2025-11-07 10:57:06.294571462
2025-11-07 10:57:02.584260,0,2025-11-07 10:57:06.302263769
2025-11-07 10:57:02.584260,2,2025-11-07 10:57:06.309956077
2025-11-07 10:57:02.584260,-2816,2025-11-07 10:57:06.317648385
2025-11-07 10:57:02.584260,-1,2025-11-07 10:57:06.325340692
2025-11-07 10:57:02.584260,-16,2025-11-07 10:57:06.333033000
2025-11-07 10:57:02.584260,-6401,2025-11-07 10:57:06.340725308
2025-11-07 10:57:02.584260,-1,2025-11-07 10:57:06.348417615
2025-11-07 10:57:02.584260,-30,2025-11-07 10:57:06.356109923
2025-11-07 10:57:02.584260,-5633,2025-11-07 10:57:06.363802230
2025-11-07 10:57:02.584260,-1,2025-11-07 10:57:06.371494538
2025-11-07 10:57:02.584260,-16,2025-11-07 10:57:06.379186846
2025-11-07 10:57:02.584260,-3329,2025-11-07 10:57:06.386879154
2025-11-07 10:57:02.584260,-1,2025-11-07 10:57:06.394571462
2025-11-07 10:57:02.584260,-16,2025-11-07 10:57:06.402263769
2025-11-07 10:57:02.584260,-4609,2025-11-07 10:57:06.409956077
2025-11-07 10:57:02.584260,-1,2025-11-07 10:57:06.417648385
2025-11-07 10:57:02.584260,-30,2025-11-07 10:57:06.425340692
2025-11-07 10:57:02.584260,-16641,2025-11-07 10:57:06.433033000
2025-11-07 10:57:02.584260,-1,2025-11-07 10:57:06.440725308
2025-11-07 10:57:02.584260,-59,2025-11-07 10:57:06.448417615
2025-11-07 10:57:02.584260,-28161,2025-11-07 10:57:06.456109923
2025-11-07 10:57:02.584260,0,2025-11-07 10:57:06.463802231
2025-11-07 10:57:02.584260,574,2025-11-07 10:57:06.471494538
2025-11-07 10:57:02.584260,23040,2025-11-07 10:57:06.479186846
2025-11-07 10:57:02.584260,3,2025-11-07 10:57:06.486879154
2025-11-07 10:57:02.584260,636,2025-11-07 10:57:06.494571462
2025-11-07 10:57:02.584260,-2816,2025-11-07 10:57:06.502263769
2025-11-07 10:57:02.584260,0,2025-11-07 10:57:06.509956077
2025-11-07 10:57:02.584260,47,2025-11-07 10:57:06.517648385
2025-11-07 10:57:02.584260,-21248,2025-11-07 10:57:06.525340692
2025-11-07 10:57:02.584260,-1,2025-11-07 10:57:06.533033000
2025-11-07 10:57:02.584260,-143,2025-11-07 10:57:06.540725308
2025-11-07 10:57:02.584260,-24577,2025-11-07 10:57:06.548417615
2025-11-07 10:57:02.584260,-1,2025-11-07 10:57:06.556109923
2025-11-07 10:57:02.584260,-90,2025-11-07 10:57:06.563802231
2025-11-07 10:57:02.584260,-28929,2025-11-07 10:57:06.571494538
2025-11-07 10:57:02.584260,-1,2025-11-07 10:57:06.579186846
2025-11-07 10:57:02.584260,-97,2025-11-07 10:57:06.586879154
2025-11-07 10:57:02.584260,-20993,2025-11-07 10:57:06.594571462
2025-11-07 10:57:02.584260,-1,2025-11-07 10:57:06.602263769
2025-11-07 10:57:02.584260,-95,2025-11-07 10:57:06.609956077
2025-11-07 10:57:02.584260,-24065,2025-11-07 10:57:06.617648385
2025-11-07 10:57:02.584260,-1,2025-11-07 10:57:06.625340692
2025-11-07 10:57:02.584260,-73,2025-11-07 10:57:06.633033000
2025-11-07 10:57:02.584260,-14849,2025-11-07 10:57:06.640725308
2025-11-07 10:57:02.584260,-1,2025-11-07 10:57:06.648417615
2025-11-07 10:57:02.584260,-69,2025-11-07 10:57:06.656109923
2025-11-07 10:57:02.584260,-17921,2025-11-07 10:57:06.663802231
2025-11-07 10:57:02.584260,-1,2025-11-07 10:57:06.671494538
2025-11-07 10:57:02.584260,-47,2025-11-07 10:57:06.679186846
2025-11-07 10:57:02.584260,-7425,2025-11-07 10:57:06.686879154
2025-11-07 10:57:02.584260,-1,2025-11-07 10:57:06.694571462
2025-11-07 10:57:02.584260,-40,2025-11-07 10:57:06.702263769
2025-11-07 10:57:02.584260,-8193,2025-11-07 10:57:06.709956077
2025-11-07 10:57:02.584260,-1,2025-11-07 10:57:06.717648385
2025-11-07 10:57:02.584260,-7,2025-11-07 10:57:06.725340692
2025-11-07 10:57:03.184175,11,2025-11-07 10:57:06.733033000
2025-11-07 10:57:03.184175,5376,2025-11-07 10:57:06.740725308
2025-11-07 10:57:03.184175,0,2025-11-07 10:57:06.748417615
2025-11-07 10:57:03.184175,30,2025-11-07 10:57:06.756109923
2025-11-07 10:57:03.184175,11520,2025-11-07 10:57:06.763802231
2025-11-07 10:57:03.184175,0,2025-11-07 10:57:06.771494538
2025-11-07 10:57:03.184175,69,2025-11-07 10:57:06.779186846
2025-11-07 10:57:03.184175,22528,2025-11-07 10:57:06.786879154
2025-11-07 10:57:03.184175,0,2025-11-07 10:57:06.794571462
2025-11-07 10:57:03.184175,81,2025-11-07 10:57:06.802263769
2025-11-07 10:57:03.184175,16896,2025-11-07 10:57:06.809956077
2025-11-07 10:57:03.184175,0,2025-11-07 10:57:06.817648385
2025-11-07 10:57:03.184175,54,2025-11-07 10:57:06.825340692
2025-11-07 10:57:03.184175,6656,2025-11-07 10:57:06.833033000
2025-11-07 10:57:03.184175,0,2025-11-07 10:57:06.840725308
2025-11-07 10:57:03.184175,4,2025-11-07 10:57:06.848417615
2025-11-07 10:57:03.184175,512,2025-11-07 10:57:06.856109923
2025-11-07 10:57:03.184175,0,2025-11-07 10:57:06.863802231
2025-11-07 10:57:03.184175,-9,2025-11-07 10:57:06.871494538
2025-11-07 10:57:03.184175,-5633,2025-11-07 10:57:06.879186846
2025-11-07 10:57:03.184175,-1,2025-11-07 10:57:06.886879154
2025-11-07 10:57:03.184175,-26,2025-11-07 10:57:06.894571462
2025-11-07 10:57:03.184175,-7425,2025-11-07 10:57:06.902263769
2025-11-07 10:57:03.184175,-1,2025-11-07 10:57:06.909956077
2025-11-07 10:57:03.184175,-40,2025-11-07 10:57:06.917648385
2025-11-07 10:57:03.184175,-6401,2025-11-07 10:57:06.925340692
2025-11-07 10:57:03.184175,-1,2025-11-07 10:57:06.933033000
2025-11-07 10:57:03.184175,-9,2025-11-07 10:57:06.940725308
2025-11-07 10:57:03.184175,-5633,2025-11-07 10:57:06.948417615
2025-11-07 10:57:03.184175,-1,2025-11-07 10:57:06.956109923
2025-11-07 10:57:03.184175,-42,2025-11-07 10:57:06.963802231
2025-11-07 10:57:03.184175,-10497,2025-11-07 10:57:06.971494538
2025-11-07 10:57:03.184175,-1,2025-11-07 10:57:06.979186846
2025-11-07 10:57:03.184175,-45,2025-11-07 10:57:06.986879154
2025-11-07 10:57:03.184175,-8705,2025-11-07 10:57:06.994571462
2025-11-07 10:57:03.184175,-1,2025-11-07 10:57:07.002263769
2025-11-07 10:57:03.184175,-19,2025-11-07 10:57:07.009956077
2025-11-07 10:57:03.184175,-6913,2025-11-07 10:57:07.017648385
2025-11-07 10:57:03.184175,-1,2025-11-07 10:57:07.025340692
2025-11-07 10:57:03.184175,-40,2025-11-07 10:57:07.033033000
2025-11-07 10:57:03.184175,-3841,2025-11-07 10:57:07.040725308
2025-11-07 10:57:03.184175,-1,2025-11-07 10:57:07.048417615
2025-11-07 10:57:03.184175,-9,2025-11-07 10:57:07.056109923
2025-11-07 10:57:03.184175,-5633,2025-11-07 10:57:07.063802231
2025-11-07 10:57:03.184175,-1,2025-11-07 10:57:07.071494538
2025-11-07 10:57:03.184175,-26,2025-11-07 10:57:07.079186846
2025-11-07 10:57:03.184175,-5633,2025-11-07 10:57:07.086879154
2025-11-07 10:57:03.184175,-1,2025-11-07 10:57:07.094571462
2025-11-07 10:57:03.184175,-30,2025-11-07 10:57:07.102263769
2025-11-07 10:57:03.184175,-8705,2025-11-07 10:57:07.109956077
2025-11-07 10:57:03.184175,-1,2025-11-07 10:57:07.117648385
2025-11-07 10:57:03.184175,-35,2025-11-07 10:57:07.125340692
2025-11-07 10:57:03.184175,-6401,2025-11-07 10:57:07.133033000
2025-11-07 10:57:03.184175,-1,2025-11-07 10:57:07.140725308
2025-11-07 10:57:03.184175,-23,2025-11-07 10:57:07.148417615
2025-11-07 10:57:03.184175,-8705,2025-11-07 10:57:07.156109923
2025-11-07 10:57:03.184175,-1,2025-11-07 10:57:07.163802231
2025-11-07 10:57:03.184175,-30,2025-11-07 10:57:07.171494538
2025-11-07 10:57:03.184175,-257,2025-11-07 10:57:07.179186846
2025-11-07 10:57:03.184175,-1,2025-11-07 10:57:07.186879154
2025-11-07 10:57:03.184175,4,2025-11-07 10:57:07.194571462
2025-11-07 10:57:03.184175,2304,2025-11-07 10:57:07.202263769
2025-11-07 10:57:03.184175,0,2025-11-07 10:57:07.209956077
2025-11-07 10:57:03.184175,19,2025-11-07 10:57:07.217648385
2025-11-07 10:57:03.184175,-512,2025-11-07 10:57:07.225340692
2025-11-07 10:57:03.184175,-1,2025-11-07 10:57:07.233033000
2025-11-07 10:57:03.184175,-23,2025-11-07 10:57:07.240725308
2025-11-07 10:57:03.184175,-769,2025-11-07 10:57:07.248417615
2025-11-07 10:57:03.184175,-1,2025-11-07 10:57:07.256109923
2025-11-07 10:57:03.184175,4,2025-11-07 10:57:07.263802231
2025-11-07 10:57:03.184175,-3584,2025-11-07 10:57:07.271494538
2025-11-07 10:57:03.184175,-1,2025-11-07 10:57:07.279186846
2025-11-07 10:57:03.184175,-16,2025-11-07 10:57:07.286879154
2025-11-07 10:57:03.184175,-2049,2025-11-07 10:57:07.294571462
2025-11-07 10:57:03.184175,-1,2025-11-07 10:57:07.302263769
2025-11-07 10:57:03.184175,-16,2025-11-07 10:57:07.309956077
2025-11-07 10:57:03.184175,-7425,2025-11-07 10:57:07.317648385
2025-11-07 10:57:03.184175,-1,2025-11-07 10:57:07.325340692
2025-11-07 10:57:03.184175,-66,2025-11-07 10:57:07.333033000
2025-11-07 10:57:03.184175,-9985,2025-11-07 10:57:07.340725308
2025-11-07 10:57:03.184175,-1,2025-11-07 10:57:07.348417615
2025-11-07 10:57:03.184175,250,2025-11-07 10:57:07.356109923
2025-11-07 10:57:03.184175,1536,2025-11-07 10:57:07.363802230
2025-11-07 10:57:03.184175,3,2025-11-07 10:57:07.371494538
2025-11-07 10:57:03.184175,1044,2025-11-07 10:57:07.379186846
2025-11-07 10:57:03.184175,-18432,2025-11-07 10:57:07.386879154
2025-11-07 10:57:03.184175,2,2025-11-07 10:57:07.394571462
2025-11-07 10:57:03.184175,195,2025-11-07 10:57:07.402263769
2025-11-07 10:57:03.184175,-1024,2025-11-07 10:57:07.409956077
2025-11-07 10:57:03.184175,-1,2025-11-07 10:57:07.417648385
2025-11-07 10:57:03.184175,-90,2025-11-07 10:57:07.425340692
2025-11-07 10:57:03.184175,27391,2025-11-07 10:57:07.433033000
2025-11-07 10:57:03.184175,-1,2025-11-07 10:57:07.440725308
2025-11-07 10:57:03.184175,-133,2025-11-07 10:57:07.448417615
2025-11-07 10:57:03.184175,-31233,2025-11-07 10:57:07.456109923
2025-11-07 10:57:03.184175,-1,2025-11-07 10:57:07.463802231
2025-11-07 10:57:03.184175,-133,2025-11-07 10:57:07.471494538
2025-11-07 10:57:03.184175,31743,2025-11-07 10:57:07.479186846
2025-11-07 10:57:03.184175,-1,2025-11-07 10:57:07.486879154
2025-11-07 10:57:03.184175,-121,2025-11-07 10:57:07.494571462
2025-11-07 10:57:03.184175,-26369,2025-11-07 10:57:07.502263769
2025-11-07 10:57:03.184175,-1,2025-11-07 10:57:07.509956077
2025-11-07 10:57:03.184175,-95,2025-11-07 10:57:07.517648385
2025-11-07 10:57:03.184175,-22785,2025-11-07 10:57:07.525340692
2025-11-07 10:57:03.184175,-1,2025-11-07 10:57:07.533033000
2025-11-07 10:57:03.184175,-81,2025-11-07 10:57:07.540725308
2025-11-07 10:57:03.184175,-20481,2025-11-07 10:57:07.548417615
2025-11-07 10:57:03.184175,-1,2025-11-07 10:57:07.556109923
2025-11-07 10:57:03.184175,-83,2025-11-07 10:57:07.563802231
2025-11-07 10:57:03.683630,-76,2025-11-07 10:57:07.571494538
2025-11-07 10:57:03.683630,-17409,2025-11-07 10:57:07.579186846
2025-11-07 10:57:03.683630,-1,2025-11-07 10:57:07.586879154
2025-11-07 10:57:03.683630,-66,2025-11-07 10:57:07.594571462
2025-11-07 10:57:03.683630,-13569,2025-11-07 10:57:07.602263769
2025-11-07 10:57:03.683630,-1,2025-11-07 10:57:07.609956077
2025-11-07 10:57:03.683630,-35,2025-11-07 10:57:07.617648385
2025-11-07 10:57:03.683630,-3329,2025-11-07 10:57:07.625340692
2025-11-07 10:57:03.683630,-1,2025-11-07 10:57:07.633033000
2025-11-07 10:57:03.683630,-7,2025-11-07 10:57:07.640725308
2025-11-07 10:57:03.683630,767,2025-11-07 10:57:07.648417615
2025-11-07 10:57:03.683630,0,2025-11-07 10:57:07.656109923
2025-11-07 10:57:03.683630,19,2025-11-07 10:57:07.663802231
2025-11-07 10:57:03.683630,10752,2025-11-07 10:57:07.671494538
2025-11-07 10:57:03.683630,0,2025-11-07 10:57:07.679186846
2025-11-07 10:57:03.683630,69,2025-11-07 10:57:07.686879154
2025-11-07 10:57:03.683630,20736,2025-11-07 10:57:07.694571462
2025-11-07 10:57:03.683630,0,2025-11-07 10:57:07.702263769
2025-11-07 10:57:03.683630,54,2025-11-07 10:57:07.709956077
2025-11-07 10:57:03.683630,1792,2025-11-07 10:57:07.717648385
2025-11-07 10:57:03.683630,0,2025-11-07 10:57:07.725340692
2025-11-07 10:57:03.683630,-2,2025-11-07 10:57:07.733033000
2025-11-07 10:57:03.683630,1279,2025-11-07 10:57:07.740725308
2025-11-07 10:57:03.683630,0,2025-11-07 10:57:07.748417615
2025-11-07 10:57:03.683630,-2,2025-11-07 10:57:07.756109923
2025-11-07 10:57:03.683630,-4609,2025-11-07 10:57:07.763802231
2025-11-07 10:57:03.683630,-1,2025-11-07 10:57:07.771494538
2025-11-07 10:57:03.683630,-26,2025-11-07 10:57:07.779186846
2025-11-07 10:57:03.683630,-3329,2025-11-07 10:57:07.786879154
2025-11-07 10:57:03.683630,-1,2025-11-07 10:57:07.794571462
2025-11-07 10:57:03.683630,-14,2025-11-07 10:57:07.802263769
2025-11-07 10:57:03.683630,-6401,2025-11-07 10:57:07.809956077
2025-11-07 10:57:03.683630,-1,2025-11-07 10:57:07.817648385
2025-11-07 10:57:03.683630,-21,2025-11-07 10:57:07.825340692
2025-11-07 10:57:03.683630,-3841,2025-11-07 10:57:07.833033000
2025-11-07 10:57:03.683630,-1,2025-11-07 10:57:07.840725308
2025-11-07 10:57:03.683630,-16,2025-11-07 10:57:07.848417615
2025-11-07 10:57:03.683630,-769,2025-11-07 10:57:07.856109923
2025-11-07 10:57:03.683630,-1,2025-11-07 10:57:07.863802231
2025-11-07 10:57:03.683630,-7,2025-11-07 10:57:07.871494538
2025-11-07 10:57:03.683630,-7425,2025-11-07 10:57:07.879186846
2025-11-07 10:57:03.683630,-1,2025-11-07 10:57:07.886879154
2025-11-07 10:57:03.683630,-30,2025-11-07 10:57:07.894571462
2025-11-07 10:57:03.683630,-2561,2025-11-07 10:57:07.902263769
2025-11-07 10:57:03.683630,-1,2025-11-07 10:57:07.909956077
2025-11-07 10:57:03.683630,-19,2025-11-07 10:57:07.917648385
2025-11-07 10:57:03.683630,-5633,2025-11-07 10:57:07.925340692
2025-11-07 10:57:03.683630,-1,2025-11-07 10:57:07.933033000
2025-11-07 10:57:03.683630,-7,2025-11-07 10:57:07.940725308
2025-11-07 10:57:03.683630,-257,2025-11-07 10:57:07.948417615
2025-11-07 10:57:03.683630,-1,2025-11-07 10:57:07.956109923
2025-11-07 10:57:03.683630,-11,2025-11-07 10:57:07.963802231
2025-11-07 10:57:03.683630,-3841,2025-11-07 10:57:07.971494538
2025-11-07 10:57:03.683630,-1,2025-11-07 10:57:07.979186846
2025-11-07 10:57:03.683630,-11,2025-11-07 10:57:07.986879154
2025-11-07 10:57:03.683630,-2049,2025-11-07 10:57:07.994571462
2025-11-07 10:57:03.683630,-1,2025-11-07 10:57:08.002263769
2025-11-07 10:57:03.683630,-11,2025-11-07 10:57:08.009956077
2025-11-07 10:57:03.683630,-6401,2025-11-07 10:57:08.017648385
2025-11-07 10:57:03.683630,-1,2025-11-07 10:57:08.025340692
2025-11-07 10:57:03.683630,-33,2025-11-07 10:57:08.033033000
2025-11-07 10:57:03.683630,-5121,2025-11-07 10:57:08.040725308
2025-11-07 10:57:03.683630,-1,2025-11-07 10:57:08.048417615
2025-11-07 10:57:03.683630,-9,2025-11-07 10:57:08.056109923
2025-11-07 10:57:03.683630,1279,2025-11-07 10:57:08.063802231
2025-11-07 10:57:03.683630,0,2025-11-07 10:57:08.071494538
2025-11-07 10:57:03.683630,21,2025-11-07 10:57:08.079186846
2025-11-07 10:57:03.683630,6656,2025-11-07 10:57:08.086879154
2025-11-07 10:57:03.683630,0,2025-11-07 10:57:08.094571462
2025-11-07 10:57:03.683630,16,2025-11-07 10:57:08.102263769
2025-11-07 10:57:03.683630,1792,2025-11-07 10:57:08.109956077
2025-11-07 10:57:03.683630,0,2025-11-07 10:57:08.117648385
2025-11-07 10:57:03.683630,-7,2025-11-07 10:57:08.125340692
2025-11-07 10:57:03.683630,-2561,2025-11-07 10:57:08.133033000
2025-11-07 10:57:03.683630,-1,2025-11-07 10:57:08.140725308
2025-11-07 10:57:03.683630,-2,2025-11-07 10:57:08.148417615
2025-11-07 10:57:03.683630,767,2025-11-07 10:57:08.156109923
2025-11-07 10:57:03.683630,0,2025-11-07 10:57:08.163802231
2025-11-07 10:57:03.683630,-14,2025-11-07 10:57:08.171494538
2025-11-07 10:57:03.683630,-4609,2025-11-07 10:57:08.179186846
2025-11-07 10:57:03.683630,-1,2025-11-07 10:57:08.186879154
2025-11-07 10:57:03.683630,4,2025-11-07 10:57:08.194571462
2025-11-07 10:57:03.683630,-512,2025-11-07 10:57:08.202263769
2025-11-07 10:57:03.683630,-1,2025-11-07 10:57:08.209956077
2025-11-07 10:57:03.683630,-61,2025-11-07 10:57:08.217648385
2025-11-07 10:57:03.683630,-16641,2025-11-07 10:57:08.225340692
2025-11-07 10:57:03.683630,-1,2025-11-07 10:57:08.233033000
2025-11-07 10:57:03.683630,119,2025-11-07 10:57:08.240725308
2025-11-07 10:57:03.683630,-1280,2025-11-07 10:57:08.248417615
2025-11-07 10:57:03.683630,1,2025-11-07 10:57:08.256109923
2025-11-07 10:57:03.683630,827,2025-11-07 10:57:08.263802231
2025-11-07 10:57:03.683630,-15360,2025-11-07 10:57:08.271494538
2025-11-07 10:57:03.683630,2,2025-11-07 10:57:08.279186846
2025-11-07 10:57:03.683630,321,2025-11-07 10:57:08.286879154
2025-11-07 10:57:03.683630,17664,2025-11-07 10:57:08.294571462
2025-11-07 10:57:03.683630,0,2025-11-07 10:57:08.302263769
2025-11-07 10:57:03.683630,-54,2025-11-07 10:57:08.309956077
2025-11-07 10:57:03.683630,-28417,2025-11-07 10:57:08.317648385
2025-11-07 10:57:03.683630,-1,2025-11-07 10:57:08.325340692
2025-11-07 10:57:03.683630,-97,2025-11-07 10:57:08.333033000
2025-11-07 10:57:03.683630,-23297,2025-11-07 10:57:08.340725308
2025-11-07 10:57:03.683630,-1,2025-11-07 10:57:08.348417615
2025-11-07 10:57:03.683630,-104,2025-11-07 10:57:08.356109923
2025-11-07 10:57:03.683630,-22273,2025-11-07 10:57:08.363802230
2025-11-07 10:57:03.683630,-1,2025-11-07 10:57:08.371494538
2025-11-07 10:57:03.683630,-73,2025-11-07 10:57:08.379186846
2025-11-07 10:57:03.683630,-19201,2025-11-07 10:57:08.386879154
2025-11-07 10:57:03.683630,-1,2025-11-07 10:57:08.394571462
2025-11-07 10:57:03.683630,-66,2025-11-07 10:57:08.402263769
2025-11-07 10:57:04.233305,-61,2025-11-07 10:57:08.409956077
2025-11-07 10:57:04.233305,-17409,2025-11-07 10:57:08.417648385
2025-11-07 10:57:04.233305,-1,2025-11-07 10:57:08.425340692
2025-11-07 10:57:04.233305,-59,2025-11-07 10:57:08.433033000
2025-11-07 10:57:04.233305,-9473,2025-11-07 10:57:08.440725308
2025-11-07 10:57:04.233305,-1,2025-11-07 10:57:08.448417615
2025-11-07 10:57:04.233305,-30,2025-11-07 10:57:08.456109923
2025-11-07 10:57:04.233305,-11265,2025-11-07 10:57:08.463802231
2025-11-07 10:57:04.233305,-1,2025-11-07 10:57:08.471494538
2025-11-07 10:57:04.233305,-38,2025-11-07 10:57:08.479186846
2025-11-07 10:57:04.233305,-2561,2025-11-07 10:57:08.486879154
2025-11-07 10:57:04.233305,-1,2025-11-07 10:57:08.494571462
2025-11-07 10:57:04.233305,9,2025-11-07 10:57:08.502263769
2025-11-07 10:57:04.233305,5376,2025-11-07 10:57:08.509956077
2025-11-07 10:57:04.233305,0,2025-11-07 10:57:08.517648385
2025-11-07 10:57:04.233305,35,2025-11-07 10:57:08.525340692
2025-11-07 10:57:04.233305,13312,2025-11-07 10:57:08.533033000
2025-11-07 10:57:04.233305,0,2025-11-07 10:57:08.540725308
2025-11-07 10:57:04.233305,69,2025-11-07 10:57:08.548417615
2025-11-07 10:57:04.233305,21248,2025-11-07 10:57:08.556109923
2025-11-07 10:57:04.233305,0,2025-11-07 10:57:08.563802231
2025-11-07 10:57:04.233305,95,2025-11-07 10:57:08.571494538
2025-11-07 10:57:04.233305,23040,2025-11-07 10:57:08.579186846
2025-11-07 10:57:04.233305,0,2025-11-07 10:57:08.586879154
2025-11-07 10:57:04.233305,83,2025-11-07 10:57:08.594571462
2025-11-07 10:57:04.233305,21248,2025-11-07 10:57:08.602263769
2025-11-07 10:57:04.233305,0,2025-11-07 10:57:08.609956077
2025-11-07 10:57:04.233305,66,2025-11-07 10:57:08.617648385
2025-11-07 10:57:04.233305,5376,2025-11-07 10:57:08.625340692
2025-11-07 10:57:04.233305,0,2025-11-07 10:57:08.633033000
2025-11-07 10:57:04.233305,-16,2025-11-07 10:57:08.640725308
2025-11-07 10:57:04.233305,-4609,2025-11-07 10:57:08.648417615
2025-11-07 10:57:04.233305,-1,2025-11-07 10:57:08.656109923
2025-11-07 10:57:04.233305,-21,2025-11-07 10:57:08.663802231
2025-11-07 10:57:04.233305,-7425,2025-11-07 10:57:08.671494538
2025-11-07 10:57:04.233305,-1,2025-11-07 10:57:08.679186846
2025-11-07 10:57:04.233305,-23,2025-11-07 10:57:08.686879154
2025-11-07 10:57:04.233305,-3841,2025-11-07 10:57:08.694571462
2025-11-07 10:57:04.233305,-1,2025-11-07 10:57:08.702263769
2025-11-07 10:57:04.233305,-30,2025-11-07 10:57:08.709956077
2025-11-07 10:57:04.233305,-8193,2025-11-07 10:57:08.717648385
2025-11-07 10:57:04.233305,-1,2025-11-07 10:57:08.725340692
2025-11-07 10:57:04.233305,-14,2025-11-07 10:57:08.733033000
2025-11-07 10:57:04.233305,-3329,2025-11-07 10:57:08.740725308
2025-11-07 10:57:04.233305,-1,2025-11-07 10:57:08.748417615
2025-11-07 10:57:04.233305,-26,2025-11-07 10:57:08.756109923
2025-11-07 10:57:04.233305,-5633,2025-11-07 10:57:08.763802231
2025-11-07 10:57:04.233305,-1,2025-11-07 10:57:08.771494538
2025-11-07 10:57:04.233305,-21,2025-11-07 10:57:08.779186846
2025-11-07 10:57:04.233305,-4609,2025-11-07 10:57:08.786879154
2025-11-07 10:57:04.233305,-1,2025-11-07 10:57:08.794571462
2025-11-07 10:57:04.233305,-19,2025-11-07 10:57:08.802263769
2025-11-07 10:57:04.233305,-3841,2025-11-07 10:57:08.809956077
2025-11-07 10:57:04.233305,-1,2025-11-07 10:57:08.817648385
2025-11-07 10:57:04.233305,-9,2025-11-07 10:57:08.825340692
2025-11-07 10:57:04.233305,-1537,2025-11-07 10:57:08.833033000
2025-11-07 10:57:04.233305,-1,2025-11-07 10:57:08.840725308
2025-11-07 10:57:04.233305,-7,2025-11-07 10:57:08.848417615
2025-11-07 10:57:04.233305,-2049,2025-11-07 10:57:08.856109923
2025-11-07 10:57:04.233305,-1,2025-11-07 10:57:08.863802231
2025-11-07 10:57:04.233305,-4,2025-11-07 10:57:08.871494538
2025-11-07 10:57:04.233305,255,2025-11-07 10:57:08.879186846
2025-11-07 10:57:04.233305,0,2025-11-07 10:57:08.886879154
2025-11-07 10:57:04.233305,-4,2025-11-07 10:57:08.894571462
2025-11-07 10:57:04.233305,-3841,2025-11-07 10:57:08.902263769
2025-11-07 10:57:04.233305,-1,2025-11-07 10:57:08.909956077
2025-11-07 10:57:04.233305,-28,2025-11-07 10:57:08.917648385
2025-11-07 10:57:04.233305,-8193,2025-11-07 10:57:08.925340692
2025-11-07 10:57:04.233305,-1,2025-11-07 10:57:08.933033000
2025-11-07 10:57:04.233305,-21,2025-11-07 10:57:08.940725308
2025-11-07 10:57:04.233305,2559,2025-11-07 10:57:08.948417615
2025-11-07 10:57:04.233305,0,2025-11-07 10:57:08.956109923
2025-11-07 10:57:04.233305,23,2025-11-07 10:57:08.963802231
2025-11-07 10:57:04.233305,3584,2025-11-07 10:57:08.971494538
2025-11-07 10:57:04.233305,0,2025-11-07 10:57:08.979186846
2025-11-07 10:57:04.233305,2,2025-11-07 10:57:08.986879154
2025-11-07 10:57:04.233305,-1792,2025-11-07 10:57:08.994571462
2025-11-07 10:57:04.233305,-1,2025-11-07 10:57:09.002263769
2025-11-07 10:57:04.233305,-11,2025-11-07 10:57:09.009956077
2025-11-07 10:57:04.233305,-769,2025-11-07 10:57:09.017648385
2025-11-07 10:57:04.233305,-1,2025-11-07 10:57:09.025340692
2025-11-07 10:57:04.233305,4,2025-11-07 10:57:09.033033000
2025-11-07 10:57:04.233305,0,2025-11-07 10:57:09.040725308
2025-11-07 10:57:04.233305,0,2025-11-07 10:57:09.048417615
2025-11-07 10:57:04.233305,-2,2025-11-07 10:57:09.056109923
2025-11-07 10:57:04.233305,-257,2025-11-07 10:57:09.063802231
2025-11-07 10:57:04.233305,-1,2025-11-07 10:57:09.071494538
2025-11-07 10:57:04.233305,-9,2025-11-07 10:57:09.079186846
2025-11-07 10:57:04.233305,-4609,2025-11-07 10:57:09.086879154
2025-11-07 10:57:04.233305,-1,2025-11-07 10:57:09.094571462
2025-11-07 10:57:04.233305,-50,2025-11-07 10:57:09.102263769
2025-11-07 10:57:04.233305,-6913,2025-11-07 10:57:09.109956077
2025-11-07 10:57:04.233305,-1,2025-11-07 10:57:09.117648385
2025-11-07 10:57:04.233305,193,2025-11-07 10:57:09.125340692
2025-11-07 10:57:04.233305,13568,2025-11-07 10:57:09.133033000
2025-11-07 10:57:04.233305,2,2025-11-07 10:57:09.140725308
2025-11-07 10:57:04.233305,758,2025-11-07 10:57:09.148417615
2025-11-07 10:57:04.233305,12800,2025-11-07 10:57:09.156109923
2025-11-07 10:57:04.233305,2,2025-11-07 10:57:09.163802231
2025-11-07 10:57:04.233305,255,2025-11-07 10:57:09.171494538
2025-11-07 10:57:04.233305,18688,2025-11-07 10:57:09.179186846
2025-11-07 10:57:04.233305,0,2025-11-07 10:57:09.186879154
2025-11-07 10:57:04.233305,-59,2025-11-07 10:57:09.194571462
2025-11-07 10:57:04.233305,-27649,2025-11-07 10:57:09.202263769
2025-11-07 10:57:04.233305,-1,2025-11-07 10:57:09.209956077
2025-11-07 10:57:04.233305,-73,2025-11-07 10:57:09.217648385
2025-11-07 10:57:04.233305,-19201,2025-11-07 10:57:09.225340692
2025-11-07 10:57:04.233305,-1,2025-11-07 10:57:09.233033000
2025-11-07 10:57:04.233305,-92,2025-11-07 10:57:09.240725308
2025-11-07 10:57:04.783901,-73,2025-11-07 10:57:09.248417615
2025-11-07 10:57:04.783901,-14337,2025-11-07 10:57:09.256109923
2025-11-07 10:57:04.783901,-1,2025-11-07 10:57:09.263802231
2025-11-07 10:57:04.783901,-73,2025-11-07 10:57:09.271494538
2025-11-07 10:57:04.783901,-19201,2025-11-07 10:57:09.279186846
2025-11-07 10:57:04.783901,-1,2025-11-07 10:57:09.286879154
2025-11-07 10:57:04.783901,-50,2025-11-07 10:57:09.294571462
2025-11-07 10:57:04.783901,-8193,2025-11-07 10:57:09.302263769
2025-11-07 10:57:04.783901,-1,2025-11-07 10:57:09.309956077
2025-11-07 10:57:04.783901,-33,2025-11-07 10:57:09.317648385
2025-11-07 10:57:04.783901,-6401,2025-11-07 10:57:09.325340692
2025-11-07 10:57:04.783901,-1,2025-11-07 10:57:09.333033000
2025-11-07 10:57:04.783901,-14,2025-11-07 10:57:09.340725308
2025-11-07 10:57:04.783901,-257,2025-11-07 10:57:09.348417615
2025-11-07 10:57:04.783901,-1,2025-11-07 10:57:09.356109923
2025-11-07 10:57:04.783901,11,2025-11-07 10:57:09.363802230
2025-11-07 10:57:04.783901,2816,2025-11-07 10:57:09.371494538
2025-11-07 10:57:04.783901,0,2025-11-07 10:57:09.379186846
2025-11-07 10:57:04.783901,21,2025-11-07 10:57:09.386879154
2025-11-07 10:57:04.783901,11520,2025-11-07 10:57:09.394571462
2025-11-07 10:57:04.783901,0,2025-11-07 10:57:09.402263769
2025-11-07 10:57:04.783901,50,2025-11-07 10:57:09.409956077
2025-11-07 10:57:04.783901,15616,2025-11-07 10:57:09.417648385
2025-11-07 10:57:04.783901,0,2025-11-07 10:57:09.425340692
2025-11-07 10:57:04.783901,95,2025-11-07 10:57:09.433033000
2025-11-07 10:57:04.783901,26112,2025-11-07 10:57:09.440725308
2025-11-07 10:57:04.783901,0,2025-11-07 10:57:09.448417615
2025-11-07 10:57:04.783901,97,2025-11-07 10:57:09.456109923
2025-11-07 10:57:04.783901,26112,2025-11-07 10:57:09.463802231
2025-11-07 10:57:04.783901,0,2025-11-07 10:57:09.471494538
2025-11-07 10:57:04.783901,97,2025-11-07 10:57:09.479186846
2025-11-07 10:57:04.783901,19456,2025-11-07 10:57:09.486879154
2025-11-07 10:57:04.783901,0,2025-11-07 10:57:09.494571462
2025-11-07 10:57:04.783901,54,2025-11-07 10:57:09.502263769
2025-11-07 10:57:04.783901,7168,2025-11-07 10:57:09.509956077
2025-11-07 10:57:04.783901,0,2025-11-07 10:57:09.517648385
2025-11-07 10:57:04.783901,7,2025-11-07 10:57:09.525340692
2025-11-07 10:57:04.783901,-1792,2025-11-07 10:57:09.533033000
2025-11-07 10:57:04.783901,-1,2025-11-07 10:57:09.540725308
2025-11-07 10:57:04.783901,-21,2025-11-07 10:57:09.548417615
2025-11-07 10:57:04.783901,-5633,2025-11-07 10:57:09.556109923
2025-11-07 10:57:04.783901,-1,2025-11-07 10:57:09.563802231
2025-11-07 10:57:04.783901,-7,2025-11-07 10:57:09.571494538
2025-11-07 10:57:04.783901,-769,2025-11-07 10:57:09.579186846
2025-11-07 10:57:04.783901,-1,2025-11-07 10:57:09.586879154
2025-11-07 10:57:04.783901,-21,2025-11-07 10:57:09.594571462
2025-11-07 10:57:04.783901,-5633,2025-11-07 10:57:09.602263769
2025-11-07 10:57:04.783901,-1,2025-11-07 10:57:09.609956077
2025-11-07 10:57:04.783901,-14,2025-11-07 10:57:09.617648385
2025-11-07 10:57:04.783901,-2049,2025-11-07 10:57:09.625340692
2025-11-07 10:57:04.783901,-1,2025-11-07 10:57:09.633033000
2025-11-07 10:57:04.783901,-11,2025-11-07 10:57:09.640725308
2025-11-07 10:57:04.783901,-3329,2025-11-07 10:57:09.648417615
2025-11-07 10:57:04.783901,-1,2025-11-07 10:57:09.656109923
2025-11-07 10:57:04.783901,-16,2025-11-07 10:57:09.663802231
2025-11-07 10:57:04.783901,-3329,2025-11-07 10:57:09.671494538
2025-11-07 10:57:04.783901,-1,2025-11-07 10:57:09.679186846
2025-11-07 10:57:04.783901,-11,2025-11-07 10:57:09.686879154
2025-11-07 10:57:04.783901,-2049,2025-11-07 10:57:09.694571462
2025-11-07 10:57:04.783901,-1,2025-11-07 10:57:09.702263769
2025-11-07 10:57:04.783901,-4,2025-11-07 10:57:09.709956077
2025-11-07 10:57:04.783901,255,2025-11-07 10:57:09.717648385
2025-11-07 10:57:04.783901,0,2025-11-07 10:57:09.725340692
2025-11-07 10:57:04.783901,0,2025-11-07 10:57:09.733033000
2025-11-07 10:57:04.783901,0,2025-11-07 10:57:09.740725308
2025-11-07 10:57:04.783901,0,2025-11-07 10:57:09.748417615
2025-11-07 10:57:04.783901,2,2025-11-07 10:57:09.756109923
2025-11-07 10:57:04.783901,-1024,2025-11-07 10:57:09.763802231
2025-11-07 10:57:04.783901,-1,2025-11-07 10:57:09.771494538
2025-11-07 10:57:04.783901,-11,2025-11-07 10:57:09.779186846
2025-11-07 10:57:04.783901,-2049,2025-11-07 10:57:09.786879154
2025-11-07 10:57:04.783901,-1,2025-11-07 10:57:09.794571462
2025-11-07 10:57:04.783901,-4,2025-11-07 10:57:09.802263769
2025-11-07 10:57:04.783901,-1537,2025-11-07 10:57:09.809956077
2025-11-07 10:57:04.783901,-1,2025-11-07 10:57:09.817648385
2025-11-07 10:57:04.783901,-16,2025-11-07 10:57:09.825340692
2025-11-07 10:57:04.783901,-4609,2025-11-07 10:57:09.833033000
2025-11-07 10:57:04.783901,-1,2025-11-07 10:57:09.840725308
2025-11-07 10:57:04.783901,4,2025-11-07 10:57:09.848417615
2025-11-07 10:57:04.783901,7680,2025-11-07 10:57:09.856109923
2025-11-07 10:57:04.783901,0,2025-11-07 10:57:09.863802231
2025-11-07 10:57:04.783901,30,2025-11-07 10:57:09.871494538
2025-11-07 10:57:04.783901,4864,2025-11-07 10:57:09.879186846
2025-11-07 10:57:04.783901,0,2025-11-07 10:57:09.886879154
2025-11-07 10:57:04.783901,11,2025-11-07 10:57:09.894571462
2025-11-07 10:57:04.783901,0,2025-11-07 10:57:09.902263769
2025-11-07 10:57:04.783901,0,2025-11-07 10:57:09.909956077
2025-11-07 10:57:04.783901,-9,2025-11-07 10:57:09.917648385
2025-11-07 10:57:04.783901,-2561,2025-11-07 10:57:09.925340692
2025-11-07 10:57:04.783901,-1,2025-11-07 10:57:09.933033000
2025-11-07 10:57:04.783901,-4,2025-11-07 10:57:09.940725308
2025-11-07 10:57:04.783901,255,2025-11-07 10:57:09.948417615
2025-11-07 10:57:04.783901,0,2025-11-07 10:57:09.956109923
2025-11-07 10:57:04.783901,0,2025-11-07 10:57:09.963802231
2025-11-07 10:57:04.783901,-512,2025-11-07 10:57:09.971494538
2025-11-07 10:57:04.783901,-1,2025-11-07 10:57:09.979186846
2025-11-07 10:57:04.783901,-9,2025-11-07 10:57:09.986879154
2025-11-07 10:57:04.783901,-11777,2025-11-07 10:57:09.994571462
2025-11-07 10:57:04.783901,-1,2025-11-07 10:57:10.002263769
2025-11-07 10:57:04.783901,-38,2025-11-07 10:57:10.009956077
2025-11-07 10:57:04.783901,-19713,2025-11-07 10:57:10.017648385
2025-11-07 10:57:04.783901,0,2025-11-07 10:57:10.025340692
2025-11-07 10:57:04.783901,557,2025-11-07 10:57:10.033033000
2025-11-07 10:57:04.783901,-10496,2025-11-07 10:57:10.040725308
2025-11-07 10:57:04.783901,2,2025-11-07 10:57:10.048417615
2025-11-07 10:57:04.783901,510,2025-11-07 10:57:10.056109923
2025-11-07 10:57:04.783901,-4096,2025-11-07 10:57:10.063802231
2025-11-07 10:57:04.783901,0,2025-11-07 10:57:10.071494538
2025-11-07 10:57:04.783901,81,2025-11-07 10:57:10.079186846
2025-11-07 10:57:05.333735,-76,2025-11-07 10:57:10.086879154
2025-11-07 10:57:05.333735,-31233,2025-11-07 10:57:10.094571462
2025-11-07 10:57:05.333735,-1,2025-11-07 10:57:10.102263769
2025-11-07 10:57:05.333735,-76,2025-11-07 10:57:10.109956077
2025-11-07 10:57:05.333735,-20993,2025-11-07 10:57:10.117648385
2025-11-07 10:57:05.333735,-1,2025-11-07 10:57:10.125340692
2025-11-07 10:57:05.333735,-102,2025-11-07 10:57:10.133033000
2025-11-07 10:57:05.333735,-16129,2025-11-07 10:57:10.140725308
2025-11-07 10:57:05.333735,-1,2025-11-07 10:57:10.148417615
2025-11-07 10:57:05.333735,-42,2025-11-07 10:57:10.156109923
2025-11-07 10:57:05.333735,-15361,2025-11-07 10:57:10.163802231
2025-11-07 10:57:05.333735,-1,2025-11-07 10:57:10.171494538
2025-11-07 10:57:05.333735,-54,2025-11-07 10:57:10.179186846
2025-11-07 10:57:05.333735,-5633,2025-11-07 10:57:10.186879154
2025-11-07 10:57:05.333735,-1,2025-11-07 10:57:10.194571462
2025-11-07 10:57:05.333735,-23,2025-11-07 10:57:10.202263769
2025-11-07 10:57:05.333735,-8705,2025-11-07 10:57:10.209956077
2025-11-07 10:57:05.333735,-1,2025-11-07 10:57:10.217648385
2025-11-07 10:57:05.333735,-23,2025-11-07 10:57:10.225340692
2025-11-07 10:57:05.333735,-2561,2025-11-07 10:57:10.233033000
2025-11-07 10:57:05.333735,-1,2025-11-07 10:57:10.240725308
2025-11-07 10:57:05.333735,-9,2025-11-07 10:57:10.248417615
2025-11-07 10:57:05.333735,255,2025-11-07 10:57:10.256109923
2025-11-07 10:57:05.333735,0,2025-11-07 10:57:10.263802231
2025-11-07 10:57:05.333735,14,2025-11-07 10:57:10.271494538
2025-11-07 10:57:05.333735,5888,2025-11-07 10:57:10.279186846
2025-11-07 10:57:05.333735,0,2025-11-07 10:57:10.286879154
2025-11-07 10:57:05.333735,38,2025-11-07 10:57:10.294571462
2025-11-07 10:57:05.333735,14592,2025-11-07 10:57:10.302263769
2025-11-07 10:57:05.333735,0,2025-11-07 10:57:10.309956077
2025-11-07 10:57:05.333735,66,2025-11-07 10:57:10.317648385
2025-11-07 10:57:05.333735,19456,2025-11-07 10:57:10.325340692
2025-11-07 10:57:05.333735,0,2025-11-07 10:57:10.333033000
2025-11-07 10:57:05.333735,92,2025-11-07 10:57:10.340725308
2025-11-07 10:57:05.333735,24832,2025-11-07 10:57:10.348417615
2025-11-07 10:57:05.333735,0,2025-11-07 10:57:10.356109923
2025-11-07 10:57:05.333735,92,2025-11-07 10:57:10.363802230
2025-11-07 10:57:05.333735,22528,2025-11-07 10:57:10.371494538
2025-11-07 10:57:05.333735,0,2025-11-07 10:57:10.379186846
2025-11-07 10:57:05.333735,71,2025-11-07 10:57:10.386879154
2025-11-07 10:57:05.333735,9728,2025-11-07 10:57:10.394571462
2025-11-07 10:57:05.333735,0,2025-11-07 10:57:10.402263769
2025-11-07 10:57:05.333735,16,2025-11-07 10:57:10.409956077
2025-11-07 10:57:05.333735,1024,2025-11-07 10:57:10.417648385
2025-11-07 10:57:05.333735,0,2025-11-07 10:57:10.425340692
2025-11-07 10:57:05.333735,-4,2025-11-07 10:57:10.433033000
2025-11-07 10:57:05.333735,-3329,2025-11-07 10:57:10.440725308
2025-11-07 10:57:05.333735,-1,2025-11-07 10:57:10.448417615
2025-11-07 10:57:05.333735,-21,2025-11-07 10:57:10.456109923
2025-11-07 10:57:05.333735,-5121,2025-11-07 10:57:10.463802231
2025-11-07 10:57:05.333735,-1,2025-11-07 10:57:10.471494538
2025-11-07 10:57:05.333735,-26,2025-11-07 10:57:10.479186846
2025-11-07 10:57:05.333735,-8193,2025-11-07 10:57:10.486879154
2025-11-07 10:57:05.333735,-1,2025-11-07 10:57:10.494571462
2025-11-07 10:57:05.333735,-23,2025-11-07 10:57:10.502263769
2025-11-07 10:57:05.333735,-4609,2025-11-07 10:57:10.509956077
2025-11-07 10:57:05.333735,-1,2025-11-07 10:57:10.517648385
2025-11-07 10:57:05.333735,-28,2025-11-07 10:57:10.525340692
2025-11-07 10:57:05.333735,-6401,2025-11-07 10:57:10.533033000
2025-11-07 10:57:05.333735,-1,2025-11-07 10:57:10.540725308
2025-11-07 10:57:05.333735,-16,2025-11-07 10:57:10.548417615
2025-11-07 10:57:05.333735,-2049,2025-11-07 10:57:10.556109923
2025-11-07 10:57:05.333735,-1,2025-11-07 10:57:10.563802231
2025-11-07 10:57:05.333735,-7,2025-11-07 10:57:10.571494538
2025-11-07 10:57:05.333735,-2049,2025-11-07 10:57:10.579186846
2025-11-07 10:57:05.333735,-1,2025-11-07 10:57:10.586879154
2025-11-07 10:57:05.333735,-14,2025-11-07 10:57:10.594571462
2025-11-07 10:57:05.333735,-769,2025-11-07 10:57:10.602263769
2025-11-07 10:57:05.333735,-1,2025-11-07 10:57:10.609956077
2025-11-07 10:57:05.333735,2,2025-11-07 10:57:10.617648385
2025-11-07 10:57:05.333735,-512,2025-11-07 10:57:10.625340692
2025-11-07 10:57:05.333735,-1,2025-11-07 10:57:10.633033000
2025-11-07 10:57:05.333735,2,2025-11-07 10:57:10.640725308
2025-11-07 10:57:05.333735,0,2025-11-07 10:57:10.648417615
2025-11-07 10:57:05.333735,0,2025-11-07 10:57:10.656109923
2025-11-07 10:57:05.333735,-9,2025-11-07 10:57:10.663802231
2025-11-07 10:57:05.333735,-257,2025-11-07 10:57:10.671494538
2025-11-07 10:57:05.333735,-1,2025-11-07 10:57:10.679186846
2025-11-07 10:57:05.333735,0,2025-11-07 10:57:10.686879154
2025-11-07 10:57:05.333735,-2304,2025-11-07 10:57:10.694571462
2025-11-07 10:57:05.333735,-1,2025-11-07 10:57:10.702263769
2025-11-07 10:57:05.333735,-11,2025-11-07 10:57:10.709956077
2025-11-07 10:57:05.333735,-1537,2025-11-07 10:57:10.717648385
2025-11-07 10:57:05.333735,-1,2025-11-07 10:57:10.725340692
2025-11-07 10:57:05.333735,-19,2025-11-07 10:57:10.733033000
2025-11-07 10:57:05.333735,-3841,2025-11-07 10:57:10.740725308
2025-11-07 10:57:05.333735,-1,2025-11-07 10:57:10.748417615
2025-11-07 10:57:05.333735,16,2025-11-07 10:57:10.756109923
2025-11-07 10:57:05.333735,8448,2025-11-07 10:57:10.763802231
2025-11-07 10:57:05.333735,0,2025-11-07 10:57:10.771494538
2025-11-07 10:57:05.333735,16,2025-11-07 10:57:10.779186846
2025-11-07 10:57:05.333735,1024,2025-11-07 10:57:10.786879154
2025-11-07 10:57:05.333735,0,2025-11-07 10:57:10.794571462
2025-11-07 10:57:05.333735,0,2025-11-07 10:57:10.802263769
2025-11-07 10:57:05.333735,-1024,2025-11-07 10:57:10.809956077
2025-11-07 10:57:05.333735,-1,2025-11-07 10:57:10.817648385
2025-11-07 10:57:05.333735,-4,2025-11-07 10:57:10.825340692
2025-11-07 10:57:05.333735,-2049,2025-11-07 10:57:10.833033000
2025-11-07 10:57:05.333735,-1,2025-11-07 10:57:10.840725308
2025-11-07 10:57:05.333735,-11,2025-11-07 10:57:10.848417615
2025-11-07 10:57:05.333735,767,2025-11-07 10:57:10.856109923
2025-11-07 10:57:05.333735,0,2025-11-07 10:57:10.863802231
2025-11-07 10:57:05.333735,0,2025-11-07 10:57:10.871494538
2025-11-07 10:57:05.333735,-6656,2025-11-07 10:57:10.879186846
2025-11-07 10:57:05.333735,-1,2025-11-07 10:57:10.886879154
2025-11-07 10:57:05.333735,-45,2025-11-07 10:57:10.894571462
2025-11-07 10:57:05.333735,-10497,2025-11-07 10:57:10.902263769
2025-11-07 10:57:05.333735,-1,2025-11-07 10:57:10.909956077
2025-11-07 10:57:05.333735,78,2025-11-07 10:57:10.917648385
2025-11-07 10:57:05.934344,407,2025-11-07 10:57:10.925340692
2025-11-07 10:57:05.934344,-22784,2025-11-07 10:57:10.933033000
2025-11-07 10:57:05.934344,2,2025-11-07 10:57:10.940725308
2025-11-07 10:57:05.934344,577,2025-11-07 10:57:10.948417615
