timestamp,ecg
13:59:37.803527,-21
13:59:37.803527,255
13:59:37.803527,0
13:59:37.803527,12
13:59:37.803527,5376
13:59:37.803527,0
13:59:37.803527,24
13:59:37.803527,-4096
13:59:37.803527,-1
13:59:37.803527,-69
13:59:37.803527,-27137
13:59:37.803527,0
13:59:37.803527,855
13:59:37.803527,1536
13:59:37.803527,5
13:59:37.803527,604
13:59:37.803527,18176
13:59:37.803527,-1
13:59:37.803527,-96
13:59:37.803527,14335
13:59:37.803527,0
13:59:37.803527,-122
13:59:37.803527,32511
13:59:37.803527,-1
13:59:37.803527,-43
13:59:37.803527,-19969
13:59:37.803527,-1
13:59:37.803527,-93
13:59:37.803527,-12545
13:59:37.803527,-1
13:59:37.803527,-45
13:59:37.803527,-12545
13:59:37.803527,-1
13:59:37.803527,-38
13:59:37.803527,-8193
13:59:37.803527,-1
13:59:37.803527,-36
13:59:37.803527,-7681
13:59:37.803527,-1
13:59:37.803527,-26
13:59:37.803527,-5889
13:59:37.803527,-1
13:59:37.803527,-24
13:59:37.803527,-5889
13:59:37.803527,-1
13:59:37.803527,-24
13:59:37.803527,-6401
13:59:37.803527,-1
13:59:37.803527,-28
13:59:37.803527,-7681
13:59:37.803527,-1
13:59:37.803527,-40
13:59:37.803527,-11265
13:59:37.803527,-1
13:59:37.803527,-48
13:59:37.803527,-12545
13:59:37.803527,-1
13:59:37.803527,-55
13:59:37.803527,-14337
13:59:37.803527,-1
13:59:37.803527,-55
13:59:37.803527,-14337
13:59:37.803527,-1
13:59:37.803527,-60
13:59:37.803527,-15617
13:59:37.803527,-1
13:59:37.803527,-62
13:59:37.803527,-15617
13:59:37.803527,-1
13:59:37.803527,-62
13:59:37.803527,-16385
13:59:37.803527,-1
13:59:37.803527,-62
13:59:37.803527,-15105
13:59:37.803527,-1
13:59:37.803527,-55
13:59:37.803527,-12545
13:59:37.803527,-1
13:59:37.803527,-50
13:59:37.803527,-12545
13:59:37.803527,-1
13:59:37.803527,-52
13:59:37.803527,-12545
13:59:37.803527,-1
13:59:37.803527,-48
13:59:37.803527,-12033
13:59:37.803527,-1
13:59:37.803527,-48
13:59:37.803527,-11265
13:59:37.803527,-1
13:59:37.803527,-43
13:59:37.803527,-10753
13:59:37.803527,-1
13:59:37.803527,-38
13:59:37.803527,-9473
13:59:37.803527,-1
13:59:37.803527,-40
13:59:37.803527,-9473
13:59:37.803527,-1
13:59:37.803527,-33
13:59:37.803527,-7681
13:59:37.803527,-1
13:59:37.803527,-36
13:59:37.803527,-8961
13:59:37.803527,-1
13:59:37.803527,-36
13:59:37.803527,-8961
13:59:37.803527,-1
13:59:37.803527,-36
13:59:38.334053,-36
13:59:38.334053,-9473
13:59:38.334053,-1
13:59:38.334053,-52
13:59:38.334053,-18689
13:59:38.334053,-1
13:59:38.334053,-77
13:59:38.334053,-12545
13:59:38.334053,-1
13:59:38.334053,-26
13:59:38.334053,-257
13:59:38.334053,-1
13:59:38.334053,4
13:59:38.334053,-4864
13:59:38.334053,-1
13:59:38.334053,-33
13:59:38.334053,-3329
13:59:38.334053,-1
13:59:38.334053,7
13:59:38.334053,1792
13:59:38.334053,0
13:59:38.334053,-2
13:59:38.334053,-6913
13:59:38.334053,-1
13:59:38.334053,-86
13:59:38.334053,6911
13:59:38.334053,0
13:59:38.334053,640
13:59:38.334053,-8448
13:59:38.334053,4
13:59:38.334053,794
13:59:38.334053,-27648
13:59:38.334053,-1
13:59:38.334053,-178
13:59:38.334053,12543
13:59:38.334053,0
13:59:38.334053,-105
13:59:38.334053,21503
13:59:38.334053,-1
13:59:38.334053,-74
13:59:38.334053,-21761
13:59:38.334053,-1
13:59:38.334053,-118
13:59:38.334053,-20481
13:59:38.334053,-1
13:59:38.334053,-69
13:59:38.334053,-19969
13:59:38.334053,-1
13:59:38.334053,-65
13:59:38.334053,-12545
13:59:38.334053,-1
13:59:38.334053,-55
13:59:38.334053,-13825
13:59:38.334053,-1
13:59:38.334053,-48
13:59:38.334053,-12033
13:59:38.334053,-1
13:59:38.334053,-48
13:59:38.334053,-12033
13:59:38.334053,-1
13:59:38.334053,-45
13:59:38.334053,-10753
13:59:38.334053,-1
13:59:38.334053,-45
13:59:38.334053,-11265
13:59:38.334053,-1
13:59:38.334053,-55
13:59:38.334053,-16897
13:59:38.334053,-1
13:59:38.334053,-69
13:59:38.334053,-17409
13:59:38.334053,-1
13:59:38.334053,-79
13:59:38.334053,-20481
13:59:38.334053,-1
13:59:38.334053,-79
13:59:38.334053,-21249
13:59:38.334053,-1
13:59:38.334053,-89
13:59:38.334053,-22529
13:59:38.334053,-1
13:59:38.334053,-89
13:59:38.334053,-22529
13:59:38.334053,-1
13:59:38.334053,-89
13:59:38.334053,-21761
13:59:38.334053,-1
13:59:38.334053,-86
13:59:38.334053,-20481
13:59:38.334053,-1
13:59:38.334053,-81
13:59:38.334053,-19969
13:59:38.334053,-1
13:59:38.334053,-74
13:59:38.334053,-18689
13:59:38.334053,-1
13:59:38.334053,-77
13:59:38.334053,-19457
13:59:38.334053,-1
13:59:38.334053,-72
13:59:38.334053,-16385
13:59:38.334053,-1
13:59:38.334053,-62
13:59:38.334053,-16385
13:59:38.334053,-1
13:59:38.334053,-62
13:59:38.334053,-14337
13:59:38.334053,-1
13:59:38.334053,-55
13:59:38.868757,-55
13:59:38.868757,-13825
13:59:38.868757,-1
13:59:38.868757,-55
13:59:38.868757,-13825
13:59:38.868757,-1
13:59:38.868757,-52
13:59:38.868757,-13057
13:59:38.868757,-1
13:59:38.868757,-55
13:59:38.868757,-13057
13:59:38.868757,-1
13:59:38.868757,-52
13:59:38.868757,-11265
13:59:38.868757,-1
13:59:38.868757,-31
13:59:38.868757,-7681
13:59:38.868757,-1
13:59:38.868757,-43
13:59:38.868757,-12545
13:59:38.868757,-1
13:59:38.868757,-62
13:59:38.868757,-16897
13:59:38.868757,-1
13:59:38.868757,-50
13:59:38.868757,-5889
13:59:38.868757,-1
13:59:38.868757,0
13:59:38.868757,0
13:59:38.868757,0
13:59:38.868757,-26
13:59:38.868757,-8961
13:59:38.868757,-1
13:59:38.868757,-19
13:59:38.868757,-2817
13:59:38.868757,-1
13:59:38.868757,-19
13:59:38.868757,-3841
13:59:38.868757,-1
13:59:38.868757,-50
13:59:38.868757,-28673
13:59:38.868757,-1
13:59:38.868757,69
13:59:38.868757,-6144
13:59:38.868757,2
13:59:38.868757,1180
13:59:38.868757,8192
13:59:38.868757,2
13:59:38.868757,-190
13:59:38.868757,-21761
13:59:38.868757,-1
13:59:38.868757,43
13:59:38.868757,29952
13:59:38.868757,-1
13:59:38.868757,-142
13:59:38.868757,-13825
13:59:38.868757,-1
13:59:38.868757,-91
13:59:38.868757,-25601
13:59:38.868757,-1
13:59:38.868757,-62
13:59:38.868757,-15617
13:59:38.868757,-1
13:59:38.868757,-67
13:59:38.868757,-12545
13:59:38.868757,-1
13:59:38.868757,-43
13:59:38.868757,-11265
13:59:38.868757,-1
13:59:38.868757,-43
13:59:38.868757,-9473
13:59:38.868757,-1
13:59:38.868757,-33
13:59:38.868757,-7681
13:59:38.868757,-1
13:59:38.868757,-28
13:59:38.868757,-6401
13:59:38.868757,-1
13:59:38.868757,-24
13:59:38.868757,-5889
13:59:38.868757,-1
13:59:38.868757,-28
13:59:38.868757,-8193
13:59:38.868757,-1
13:59:38.868757,-38
13:59:38.868757,-9985
13:59:38.868757,-1
13:59:38.868757,-45
13:59:38.868757,-12545
13:59:38.868757,-1
13:59:38.868757,-57
13:59:38.868757,-15105
13:59:38.868757,-1
13:59:38.868757,-60
13:59:38.868757,-15617
13:59:38.868757,-1
13:59:38.868757,-65
13:59:38.868757,-16385
13:59:38.868757,-1
13:59:38.868757,-62
13:59:38.868757,-15105
13:59:38.868757,-1
13:59:38.868757,-60
13:59:38.868757,-14337
13:59:38.868757,-1
13:59:38.868757,-55
13:59:38.868757,-13057
13:59:38.868757,-1
13:59:38.868757,-48
13:59:39.453759,-43
13:59:39.453759,-9473
13:59:39.453759,-1
13:59:39.453759,-33
13:59:39.453759,-7681
13:59:39.453759,-1
13:59:39.453759,-26
13:59:39.453759,-5121
13:59:39.453759,-1
13:59:39.453759,-9
13:59:39.453759,1279
13:59:39.453759,0
13:59:39.453759,7
13:59:39.453759,512
13:59:39.453759,0
13:59:39.453759,2
13:59:39.453759,1792
13:59:39.453759,0
13:59:39.453759,7
13:59:39.453759,1792
13:59:39.453759,0
13:59:39.453759,4
13:59:39.453759,1024
13:59:39.453759,0
13:59:39.453759,4
13:59:39.453759,1792
13:59:39.453759,0
13:59:39.453759,9
13:59:39.453759,3072
13:59:39.453759,0
13:59:39.453759,12
13:59:39.453759,2304
13:59:39.453759,0
13:59:39.453759,9
13:59:39.453759,3072
13:59:39.453759,0
13:59:39.453759,12
13:59:39.453759,2304
13:59:39.453759,0
13:59:39.453759,-7
13:59:39.453759,-6401
13:59:39.453759,-1
13:59:39.453759,-19
13:59:39.453759,3839
13:59:39.453759,0
13:59:39.453759,40
13:59:39.453759,14080
13:59:39.453759,0
13:59:39.453759,52
13:59:39.453759,6144
13:59:39.453759,0
13:59:39.453759,12
13:59:39.453759,7168
13:59:39.453759,0
13:59:39.453759,36
13:59:39.453759,7168
13:59:39.453759,0
13:59:39.453759,19
13:59:39.453759,-5376
13:59:39.453759,-1
13:59:39.453759,-57
13:59:39.453759,-9217
13:59:39.453759,0
13:59:39.453759,965
13:59:39.453759,2816
13:59:39.453759,5
13:59:39.453759,508
13:59:39.453759,11520
13:59:39.453759,-1
13:59:39.453759,-65
13:59:39.453759,13055
13:59:39.453759,0
13:59:39.453759,-132
13:59:39.453759,-30465
13:59:39.453759,-1
13:59:39.453759,-40
13:59:39.453759,-20481
13:59:39.453759,-1
13:59:39.453759,-89
13:59:39.453759,-12033
13:59:39.453759,-1
13:59:39.453759,-48
13:59:39.453759,-13825
13:59:39.453759,-1
13:59:39.453759,-43
13:59:39.453759,-9473
13:59:39.453759,-1
13:59:39.453759,-33
13:59:39.453759,-5889
13:59:39.453759,-1
13:59:39.453759,-24
13:59:39.453759,-6913
13:59:39.453759,-1
13:59:39.453759,-28
13:59:39.453759,-6401
13:59:39.453759,-1
13:59:39.453759,-24
13:59:39.453759,-5121
13:59:39.453759,-1
13:59:39.453759,-21
13:59:39.453759,-6913
13:59:39.453759,-1
13:59:39.453759,-40
13:59:39.453759,-11265
13:59:39.453759,-1
13:59:39.453759,-48
13:59:39.453759,-12545
13:59:39.453759,-1
13:59:39.453759,-52
13:59:40.038784,-57
13:59:40.038784,-15617
13:59:40.038784,-1
13:59:40.038784,-65
13:59:40.038784,-16897
13:59:40.038784,-1
13:59:40.038784,-69
13:59:40.038784,-16897
13:59:40.038784,-1
13:59:40.038784,-69
13:59:40.038784,-18177
13:59:40.038784,-1
13:59:40.038784,-69
13:59:40.038784,-15617
13:59:40.038784,-1
13:59:40.038784,-48
13:59:40.038784,-9985
13:59:40.038784,-1
13:59:40.038784,-45
13:59:40.038784,-12545
13:59:40.038784,-1
13:59:40.038784,-43
13:59:40.038784,-8961
13:59:40.038784,-1
13:59:40.038784,-31
13:59:40.038784,-6401
13:59:40.038784,-1
13:59:40.038784,-21
13:59:40.038784,-3329
13:59:40.038784,-1
13:59:40.038784,-2
13:59:40.038784,1279
13:59:40.038784,0
13:59:40.038784,9
13:59:40.038784,3584
13:59:40.038784,0
13:59:40.038784,19
13:59:40.038784,5376
13:59:40.038784,0
13:59:40.038784,19
13:59:40.038784,5376
13:59:40.038784,0
13:59:40.038784,21
13:59:40.038784,4096
13:59:40.038784,0
13:59:40.038784,9
13:59:40.038784,1024
13:59:40.038784,0
13:59:40.038784,4
13:59:40.038784,1024
13:59:40.038784,0
13:59:40.038784,2
13:59:40.038784,-512
13:59:40.038784,-1
13:59:40.038784,-4
13:59:40.038784,-2049
13:59:40.038784,-1
13:59:40.038784,-12
13:59:40.038784,-3841
13:59:40.038784,-1
13:59:40.038784,-26
13:59:40.038784,-13057
13:59:40.038784,-1
13:59:40.038784,-65
13:59:40.038784,-10753
13:59:40.038784,-1
13:59:40.038784,-14
13:59:40.038784,1279
13:59:40.038784,0
13:59:40.038784,14
13:59:40.038784,-512
13:59:40.038784,-1
13:59:40.038784,-26
13:59:40.038784,-3841
13:59:40.038784,-1
13:59:40.038784,-2
13:59:40.038784,-769
13:59:40.038784,-1
13:59:40.038784,-7
13:59:40.038784,-5121
13:59:40.038784,-1
13:59:40.038784,-79
13:59:40.038784,-2817
13:59:40.038784,-1
13:59:40.038784,527
13:59:40.038784,-19968
13:59:40.038784,4
13:59:40.038784,929
13:59:40.038784,512
13:59:40.038784,0
13:59:40.038784,-204
13:59:40.038784,11775
13:59:40.038784,0
13:59:40.038784,-55
13:59:40.038784,24063
13:59:40.038784,-1
13:59:40.038784,-69
13:59:40.038784,-15105
13:59:40.038784,-1
13:59:40.038784,-98
13:59:40.038784,-17409
13:59:40.038784,-1
13:59:40.038784,-45
13:59:40.038784,-13057
13:59:40.038784,-1
13:59:40.038784,-45
13:59:40.038784,-8961
13:59:40.038784,-1
13:59:40.038784,-36
13:59:40.535330,-33
13:59:40.535330,-6913
13:59:40.535330,-1
13:59:40.535330,-28
13:59:40.535330,-6913
13:59:40.535330,-1
13:59:40.535330,-24
13:59:40.535330,-5121
13:59:40.535330,-1
13:59:40.535330,-24
13:59:40.535330,-6401
13:59:40.535330,-1
13:59:40.535330,-33
13:59:40.535330,-9473
13:59:40.535330,-1
13:59:40.535330,-45
13:59:40.535330,-12545
13:59:40.535330,-1
13:59:40.535330,-52
13:59:40.535330,-10753
13:59:40.535330,-1
13:59:40.535330,-33
13:59:40.535330,-10753
13:59:40.535330,-1
13:59:40.535330,-52
13:59:40.535330,-12545
13:59:40.535330,-1
13:59:40.535330,-52
13:59:40.535330,-15105
13:59:40.535330,-1
13:59:40.535330,-65
13:59:40.535330,-16897
13:59:40.535330,-1
13:59:40.535330,-62
13:59:40.535330,-14337
13:59:40.535330,-1
13:59:40.535330,-57
13:59:40.535330,-14337
13:59:40.535330,-1
13:59:40.535330,-60
13:59:40.535330,-15105
13:59:40.535330,-1
13:59:40.535330,-57
13:59:40.535330,-13825
13:59:40.535330,-1
13:59:40.535330,-55
13:59:40.535330,-15105
13:59:40.535330,-1
13:59:40.535330,-60
13:59:40.535330,-14337
13:59:40.535330,-1
13:59:40.535330,-52
13:59:40.535330,-12033
13:59:40.535330,-1
13:59:40.535330,-50
13:59:40.535330,-13057
13:59:40.535330,-1
13:59:40.535330,-50
13:59:40.535330,-10753
13:59:40.535330,-1
13:59:40.535330,-38
13:59:40.535330,-9985
13:59:40.535330,-1
13:59:40.535330,-48
13:59:40.535330,-11265
13:59:40.535330,-1
13:59:40.535330,-40
13:59:40.535330,-8961
13:59:40.535330,-1
13:59:40.535330,-48
13:59:40.535330,-12545
13:59:40.535330,-1
13:59:40.535330,-38
13:59:40.535330,-10753
13:59:40.535330,-1
13:59:40.535330,-48
13:59:40.535330,-9985
13:59:40.535330,-1
13:59:40.535330,-43
13:59:40.535330,-13057
13:59:40.535330,-1
13:59:40.535330,-67
13:59:40.535330,-19457
13:59:40.535330,-1
13:59:40.535330,-69
13:59:40.535330,-12545
13:59:40.535330,-1
13:59:40.535330,-31
13:59:40.535330,-2817
13:59:40.535330,-1
13:59:40.535330,-14
13:59:40.535330,-10753
13:59:40.535330,-1
13:59:40.535330,-60
13:59:40.535330,-10753
13:59:40.535330,-1
13:59:40.535330,-31
13:59:40.535330,-9473
13:59:40.535330,-1
13:59:40.535330,-50
13:59:40.535330,-23553
13:59:40.535330,-1
13:59:40.535330,-130
13:59:40.535330,-25345
13:59:40.535330,0
13:59:40.535330,874
13:59:40.535330,21504
13:59:40.535330,4
13:59:40.535330,320
13:59:41.164141,-250
13:59:41.164141,-10753
13:59:41.164141,-1
13:59:41.164141,2
13:59:41.164141,19968
13:59:41.164141,-1
13:59:41.164141,-130
13:59:41.164141,-13825
13:59:41.164141,-1
13:59:41.164141,-98
13:59:41.164141,-25601
13:59:41.164141,-1
13:59:41.164141,-67
13:59:41.164141,-16385
13:59:41.164141,-1
13:59:41.164141,-69
13:59:41.164141,-15105
13:59:41.164141,-1
13:59:41.164141,-60
13:59:41.164141,-16897
13:59:41.164141,-1
13:59:41.164141,-62
13:59:41.164141,-13825
13:59:41.164141,-1
13:59:41.164141,-50
13:59:41.164141,-12033
13:59:41.164141,-1
13:59:41.164141,-45
13:59:41.164141,-9985
13:59:41.164141,-1
13:59:41.164141,-38
13:59:41.164141,-9985
13:59:41.164141,-1
13:59:41.164141,-43
13:59:41.164141,-12033
13:59:41.164141,-1
13:59:41.164141,-55
13:59:41.164141,-15617
13:59:41.164141,-1
13:59:41.164141,-67
13:59:41.164141,-17409
13:59:41.164141,-1
13:59:41.164141,-77
13:59:41.164141,-20481
13:59:41.164141,-1
13:59:41.164141,-79
13:59:41.164141,-19969
13:59:41.164141,-1
13:59:41.164141,-84
13:59:41.164141,-21249
13:59:41.164141,-1
13:59:41.164141,-86
13:59:41.164141,-21761
13:59:41.164141,-1
13:59:41.164141,-89
13:59:41.164141,-22529
13:59:41.164141,-1
13:59:41.164141,-84
13:59:41.164141,-19969
13:59:41.164141,-1
13:59:41.164141,-72
13:59:41.164141,-17409
13:59:41.164141,-1
13:59:41.164141,-65
13:59:41.164141,-14337
13:59:41.164141,-1
13:59:41.164141,-52
13:59:41.164141,-10753
13:59:41.164141,-1
13:59:41.164141,-38
13:59:41.164141,-8961
13:59:41.164141,-1
13:59:41.164141,-28
13:59:41.164141,-6401
13:59:41.164141,-1
13:59:41.164141,-24
13:59:41.164141,-3841
13:59:41.164141,-1
13:59:41.164141,-9
13:59:41.164141,-1537
13:59:41.164141,-1
13:59:41.164141,-7
13:59:41.164141,255
13:59:41.164141,0
13:59:41.164141,7
13:59:41.164141,1024
13:59:41.164141,0
13:59:41.164141,4
13:59:41.164141,1024
13:59:41.164141,0
13:59:41.164141,2
13:59:41.164141,1792
13:59:41.164141,0
13:59:41.164141,7
13:59:41.164141,-1024
13:59:41.164141,-1
13:59:41.164141,-26
13:59:41.164141,-5889
13:59:41.164141,-1
13:59:41.164141,7
13:59:41.164141,7168
13:59:41.164141,0
13:59:41.164141,45
13:59:41.164141,11520
13:59:41.164141,0
13:59:41.164141,14
13:59:41.164141,-512
13:59:41.164141,-1
13:59:41.164141,14
13:59:41.833610,21
13:59:41.833610,3584
13:59:41.833610,0
13:59:41.833610,9
13:59:41.833610,-5376
13:59:41.833610,-1
13:59:41.833610,-81
13:59:41.833610,18687
13:59:41.833610,0
13:59:41.833610,729
13:59:41.833610,-4608
13:59:41.833610,4
13:59:41.833610,710
13:59:41.833610,30464
13:59:41.833610,-1
13:59:41.833610,-125
13:59:41.833610,17919
13:59:41.833610,0
13:59:41.833610,-98
13:59:41.833610,32511
13:59:41.833610,-1
13:59:41.833610,-16
13:59:41.833610,-9473
13:59:41.833610,-1
13:59:41.833610,-69
13:59:41.833610,-6401
13:59:41.833610,-1
13:59:41.833610,-14
13:59:41.833610,-4609
13:59:41.833610,-1
13:59:41.833610,-2
13:59:41.833610,2047
13:59:41.833610,0
13:59:41.833610,4
13:59:41.833610,2304
13:59:41.833610,0
13:59:41.833610,14
13:59:41.833610,4096
13:59:41.833610,0
13:59:41.833610,16
13:59:41.833610,5376
13:59:41.833610,0
13:59:41.833610,26
13:59:41.833610,7168
13:59:41.833610,0
13:59:41.833610,26
13:59:41.833610,6144
13:59:41.833610,0
13:59:41.833610,21
13:59:41.833610,3584
13:59:41.833610,0
13:59:41.833610,7
13:59:41.833610,512
13:59:41.833610,0
13:59:41.833610,-7
13:59:41.833610,-3329
13:59:41.833610,-1
13:59:41.833610,-24
13:59:41.833610,-8961
13:59:41.833610,-1
13:59:41.833610,-40
13:59:41.833610,-10753
13:59:41.833610,-1
13:59:41.833610,-50
13:59:41.833610,-13057
13:59:41.833610,-1
13:59:41.833610,-52
13:59:41.833610,-13825
13:59:41.833610,-1
13:59:41.833610,-57
13:59:41.833610,-14337
13:59:41.833610,-1
13:59:41.833610,-55
13:59:41.833610,-13825
13:59:41.833610,-1
13:59:41.833610,-55
13:59:41.833610,-13825
13:59:41.833610,-1
13:59:41.833610,-57
13:59:41.833610,-13057
13:59:41.833610,-1
13:59:41.833610,-48
13:59:41.833610,-12545
13:59:41.833610,-1
13:59:41.833610,-48
13:59:41.833610,-11265
13:59:41.833610,-1
13:59:41.833610,-45
13:59:41.833610,-11265
13:59:41.833610,-1
13:59:41.833610,-40
13:59:41.833610,-8961
13:59:41.833610,-1
13:59:41.833610,-33
13:59:41.833610,-7681
13:59:41.833610,-1
13:59:41.833610,-28
13:59:41.833610,-6913
13:59:41.833610,-1
13:59:41.833610,-28
13:59:41.833610,-6401
13:59:41.833610,-1
13:59:41.833610,-24
13:59:41.833610,-5889
13:59:41.833610,-1
13:59:41.833610,-24
13:59:41.833610,-6401
13:59:41.833610,-1
13:59:41.833610,-38
13:59:42.244583,-60
13:59:42.244583,-16897
13:59:42.244583,-1
13:59:42.244583,-50
13:59:42.244583,-4609
13:59:42.244583,-1
13:59:42.244583,2
13:59:42.244583,1792
13:59:42.244583,0
13:59:42.244583,-12
13:59:42.244583,-8961
13:59:42.244583,-1
13:59:42.244583,-26
13:59:42.244583,-3329
13:59:42.244583,-1
13:59:42.244583,-14
13:59:42.244583,-2817
13:59:42.244583,-1
13:59:42.244583,-28
13:59:42.244583,-22529
13:59:42.244583,-1
13:59:42.244583,-67
13:59:42.244583,-29697
13:59:42.244583,1
13:59:42.244583,1127
13:59:42.244583,2304
13:59:42.244583,4
13:59:42.244583,86
13:59:42.244583,-3328
13:59:42.244583,-2
13:59:42.244583,-9
13:59:42.244583,-15617
13:59:42.244583,-1
13:59:42.244583,-202
13:59:42.244583,-29185
13:59:42.244583,-1
13:59:42.244583,-86
13:59:42.244583,31999
13:59:42.244583,-1
13:59:42.244583,-105
13:59:42.244583,-18689
13:59:42.244583,-1
13:59:42.244583,-91
13:59:42.244583,-23041
13:59:42.244583,-1
13:59:42.244583,-79
13:59:42.244583,-21761
13:59:42.244583,-1
13:59:42.244583,-89
13:59:42.244583,-20481
13:59:42.244583,-1
13:59:42.244583,-86
13:59:42.244583,-21249
13:59:42.244583,-1
13:59:42.244583,-69
13:59:42.244583,-15617
13:59:42.244583,-1
13:59:42.244583,-65
13:59:42.244583,-16897
13:59:42.244583,-1
13:59:42.244583,-65
13:59:42.244583,-18177
13:59:42.244583,-1
13:59:42.244583,-86
13:59:42.244583,-23041
13:59:42.244583,-1
13:59:42.244583,-91
13:59:42.244583,-23553
13:59:42.244583,-1
13:59:42.244583,-96
13:59:42.244583,-26625
13:59:42.244583,-1
13:59:42.244583,-120
13:59:42.244583,-31745
13:59:42.244583,-1
13:59:42.244583,-127
13:59:42.244583,30207
13:59:42.244583,-1
13:59:42.244583,-125
13:59:42.244583,-20481
13:59:42.244583,-1
13:59:42.244583,-72
13:59:42.244583,-23041
13:59:42.244583,-1
13:59:42.244583,-98
13:59:42.244583,-25601
13:59:42.244583,-1
13:59:42.244583,-72
13:59:42.244583,-11265
13:59:42.244583,-1
13:59:42.244583,-62
13:59:42.244583,-21761
13:59:42.244583,-1
13:59:42.244583,-93
13:59:42.244583,-21761
13:59:42.244583,-1
13:59:42.244583,-55
13:59:42.244583,-8193
13:59:42.244583,-1
13:59:42.244583,-55
13:59:42.244583,-15617
13:59:42.244583,-1
13:59:42.244583,-48
13:59:42.244583,-13057
13:59:42.244583,-1
13:59:42.244583,-65
13:59:42.244583,-12545
13:59:42.244583,-1
13:59:42.244583,-33
13:59:42.783755,-45
13:59:42.783755,-12545
13:59:42.783755,-1
13:59:42.783755,-38
13:59:42.783755,-9985
13:59:42.783755,-1
13:59:42.783755,-43
13:59:42.783755,-12033
13:59:42.783755,-1
13:59:42.783755,-74
13:59:42.783755,-18689
13:59:42.783755,-1
13:59:42.783755,-24
13:59:42.783755,1279
13:59:42.783755,0
13:59:42.783755,2
13:59:42.783755,5376
13:59:42.783755,0
13:59:42.783755,16
13:59:42.783755,-3584
13:59:42.783755,-1
13:59:42.783755,-14
13:59:42.783755,767
13:59:42.783755,0
13:59:42.783755,0
13:59:42.783755,-512
13:59:42.783755,-1
13:59:42.783755,-7
13:59:42.783755,-15105
13:59:42.783755,-1
13:59:42.783755,-98
13:59:42.783755,-12289
13:59:42.783755,0
13:59:42.783755,934
13:59:42.783755,28672
13:59:42.783755,4
13:59:42.783755,322
13:59:42.783755,6400
13:59:42.783755,-1
13:59:42.783755,-21
13:59:42.783755,4351
13:59:42.783755,0
13:59:42.783755,-161
13:59:42.783755,-27905
13:59:42.783755,-1
13:59:42.783755,-50
13:59:42.783755,-24833
13:59:42.783755,-1
13:59:42.783755,-86
13:59:42.783755,-12033
13:59:42.783755,-1
13:59:42.783755,-50
13:59:42.783755,-12033
13:59:42.783755,-1
13:59:42.783755,-28
13:59:42.783755,-3841
13:59:42.783755,-1
13:59:42.783755,-12
13:59:42.783755,-1537
13:59:42.783755,-1
13:59:42.783755,-9
13:59:42.783755,-1537
13:59:42.783755,-1
13:59:42.783755,12
13:59:42.783755,6144
13:59:42.783755,0
13:59:42.783755,24
13:59:42.783755,7168
13:59:42.783755,0
13:59:42.783755,33
13:59:42.783755,5376
13:59:42.783755,0
13:59:42.783755,9
13:59:42.783755,4864
13:59:42.783755,0
13:59:42.783755,33
13:59:42.783755,6144
13:59:42.783755,0
13:59:42.783755,0
13:59:42.783755,-4096
13:59:42.783755,-1
13:59:42.783755,-24
13:59:42.783755,-6913
13:59:42.783755,-1
13:59:42.783755,-43
13:59:42.783755,-14337
13:59:42.783755,-1
13:59:42.783755,-60
13:59:42.783755,-16385
13:59:42.783755,-1
13:59:42.783755,-69
13:59:42.783755,-17409
13:59:42.783755,-1
13:59:42.783755,-67
13:59:42.783755,-15617
13:59:42.783755,-1
13:59:42.783755,-57
13:59:42.783755,-13825
13:59:42.783755,-1
13:59:42.783755,-52
13:59:42.783755,-12033
13:59:42.783755,-1
13:59:42.783755,-43
13:59:42.783755,-9985
13:59:42.783755,-1
13:59:42.783755,-38
13:59:42.783755,-8961
13:59:42.783755,-1
13:59:42.783755,-40
13:59:43.368746,-38
13:59:43.368746,-4609
13:59:43.368746,-1
13:59:43.368746,-7
13:59:43.368746,-2817
13:59:43.368746,-1
13:59:43.368746,-9
13:59:43.368746,767
13:59:43.368746,0
13:59:43.368746,-2
13:59:43.368746,-769
13:59:43.368746,-1
13:59:43.368746,12
13:59:43.368746,4096
13:59:43.368746,0
13:59:43.368746,2
13:59:43.368746,-3072
13:59:43.368746,-1
13:59:43.368746,-16
13:59:43.368746,-1537
13:59:43.368746,-1
13:59:43.368746,7
13:59:43.368746,6656
13:59:43.368746,0
13:59:43.368746,62
13:59:43.368746,17152
13:59:43.368746,0
13:59:43.368746,24
13:59:43.368746,7936
13:59:43.368746,0
13:59:43.368746,77
13:59:43.368746,19712
13:59:43.368746,0
13:59:43.368746,60
13:59:43.368746,15360
13:59:43.368746,0
13:59:43.368746,38
13:59:43.368746,-3584
13:59:43.368746,-1
13:59:43.368746,108
13:59:43.368746,-11776
13:59:43.368746,2
13:59:43.368746,1356
13:59:43.368746,-24832
13:59:43.368746,3
13:59:43.368746,-12
13:59:43.368746,-27905
13:59:43.368746,-1
13:59:43.368746,139
13:59:43.368746,-512
13:59:43.368746,-1
13:59:43.368746,-81
13:59:43.368746,6399
13:59:43.368746,0
13:59:43.368746,9
13:59:43.368746,-7168
13:59:43.368746,-1
13:59:43.368746,19
13:59:43.368746,7168
13:59:43.368746,0
13:59:43.368746,9
13:59:43.368746,9728
13:59:43.368746,0
13:59:43.368746,60
13:59:43.368746,12288
13:59:43.368746,0
13:59:43.368746,43
13:59:43.368746,12288
13:59:43.368746,0
13:59:43.368746,45
13:59:43.368746,14080
13:59:43.368746,0
13:59:43.368746,65
13:59:43.368746,17152
13:59:43.368746,0
13:59:43.368746,57
13:59:43.368746,12800
13:59:43.368746,0
13:59:43.368746,74
13:59:43.368746,22016
13:59:43.368746,0
13:59:43.368746,62
13:59:43.368746,10240
13:59:43.368746,0
13:59:43.368746,40
13:59:43.368746,8448
13:59:43.368746,0
13:59:43.368746,4
13:59:43.368746,-3072
13:59:43.368746,-1
13:59:43.368746,4
13:59:43.368746,4864
13:59:43.368746,0
13:59:43.368746,9
13:59:43.368746,3072
13:59:43.368746,0
13:59:43.368746,28
13:59:43.368746,6144
13:59:43.368746,0
13:59:43.368746,16
13:59:43.368746,6656
13:59:43.368746,0
13:59:43.368746,36
13:59:43.368746,12800
13:59:43.368746,0
13:59:43.368746,60
13:59:43.368746,14080
13:59:43.368746,0
13:59:43.368746,43
13:59:43.908761,55
13:59:43.908761,17152
13:59:43.908761,0
13:59:43.908761,60
13:59:43.908761,14080
13:59:43.908761,0
13:59:43.908761,57
13:59:43.908761,14592
13:59:43.908761,0
13:59:43.908761,62
13:59:43.908761,17152
13:59:43.908761,0
13:59:43.908761,69
13:59:43.908761,21504
13:59:43.908761,0
13:59:43.908761,96
13:59:43.908761,20224
13:59:43.908761,0
13:59:43.908761,65
13:59:43.908761,17152
13:59:43.908761,0
13:59:43.908761,60
13:59:43.908761,7936
13:59:43.908761,0
13:59:43.908761,-7
13:59:43.908761,255
13:59:43.908761,0
13:59:43.908761,60
13:59:43.908761,23808
13:59:43.908761,0
13:59:43.908761,120
13:59:43.908761,-29184
13:59:43.908761,0
13:59:43.908761,91
13:59:43.908761,14080
13:59:43.908761,0
13:59:43.908761,91
13:59:43.908761,22784
13:59:43.908761,0
13:59:43.908761,45
13:59:43.908761,14080
13:59:43.908761,0
13:59:43.908761,89
13:59:43.908761,12800
13:59:43.908761,0
13:59:43.908761,60
13:59:43.908761,1280
13:59:43.908761,2
13:59:43.908761,1218
13:59:43.908761,11008
13:59:43.908761,4
13:59:43.908761,154
13:59:43.908761,29184
13:59:43.908761,-1
13:59:43.908761,101
13:59:43.908761,8448
13:59:43.908761,0
13:59:43.908761,-101
13:59:43.908761,-13057
13:59:43.908761,-1
13:59:43.908761,-50
13:59:43.908761,-19457
13:59:43.908761,-1
13:59:43.908761,-38
13:59:43.908761,-257
13:59:43.908761,-1
13:59:43.908761,-21
13:59:43.908761,-13057
13:59:43.908761,-1
13:59:43.908761,-60
13:59:43.908761,-17409
13:59:43.908761,-1
13:59:43.908761,-77
13:59:43.908761,-14337
13:59:43.908761,-1
13:59:43.908761,-43
13:59:43.908761,-11265
13:59:43.908761,-1
13:59:43.908761,-50
13:59:43.908761,-10753
13:59:43.908761,-1
13:59:43.908761,-31
13:59:43.908761,-11265
13:59:43.908761,-1
13:59:43.908761,-77
13:59:43.908761,-23041
13:59:43.908761,-1
13:59:43.908761,-89
13:59:43.908761,-21249
13:59:43.908761,-1
13:59:43.908761,-93
13:59:43.908761,-30465
13:59:43.908761,-1
13:59:43.908761,-137
13:59:43.908761,-32257
13:59:43.908761,-1
13:59:43.908761,-132
13:59:43.908761,21503
13:59:43.908761,-1
13:59:43.908761,-199
13:59:43.908761,20991
13:59:43.908761,-1
13:59:43.908761,-158
13:59:43.908761,25343
13:59:43.908761,-1
13:59:43.908761,-154
13:59:43.908761,25343
13:59:43.908761,-1
13:59:43.908761,-171
13:59:44.538758,-166
13:59:44.538758,24575
13:59:44.538758,-1
13:59:44.538758,-168
13:59:44.538758,19711
13:59:44.538758,-1
13:59:44.538758,-187
13:59:44.538758,23295
13:59:44.538758,-1
13:59:44.538758,-118
13:59:44.538758,-27905
13:59:44.538758,-1
13:59:44.538758,-134
13:59:44.538758,32511
13:59:44.538758,-1
13:59:44.538758,-144
13:59:44.538758,25343
13:59:44.538758,-1
13:59:44.538758,-139
13:59:44.538758,-32257
13:59:44.538758,-1
13:59:44.538758,-132
13:59:44.538758,21503
13:59:44.538758,-1
13:59:44.538758,-207
13:59:44.538758,24575
13:59:44.538758,-1
13:59:44.538758,-105
13:59:44.538758,31999
13:59:44.538758,-1
13:59:44.538758,-127
13:59:44.538758,-10753
13:59:44.538758,-1
13:59:44.538758,-4
13:59:44.538758,-13057
13:59:44.538758,-1
13:59:44.538758,-130
13:59:44.538758,24575
13:59:44.538758,-1
13:59:44.538758,-130
13:59:44.538758,-27905
13:59:44.538758,-1
13:59:44.538758,-98
13:59:44.538758,-19969
13:59:44.538758,-1
13:59:44.538758,-91
13:59:44.538758,26367
13:59:44.538758,-1
13:59:44.538758,-231
13:59:44.538758,-6913
13:59:44.538758,-1
13:59:44.538758,679
13:59:44.538758,16384
13:59:44.538758,4
13:59:44.538758,479
13:59:44.538758,29952
13:59:44.538758,-1
13:59:44.538758,-55
13:59:44.538758,-2817
13:59:44.538758,-1
13:59:44.538758,-197
13:59:44.538758,17919
13:59:44.538758,-1
13:59:44.538758,-120
13:59:44.538758,28415
13:59:44.538758,-1
13:59:44.538758,-161
13:59:44.538758,20223
13:59:44.538758,-1
13:59:44.538758,-197
13:59:44.538758,30207
13:59:44.538758,-1
13:59:44.538758,-101
13:59:44.538758,24063
13:59:44.538758,-1
13:59:44.538758,-163
13:59:44.538758,-18177
13:59:44.538758,-1
13:59:44.538758,-57
13:59:44.538758,-30465
13:59:44.538758,-1
13:59:44.538758,-137
13:59:44.538758,-13825
13:59:44.538758,-1
13:59:44.538758,9
13:59:44.538758,-7936
13:59:44.538758,-1
13:59:44.538758,-21
13:59:44.538758,10495
13:59:44.538758,0
13:59:44.538758,0
13:59:44.538758,-4864
13:59:44.538758,-1
13:59:44.538758,74
13:59:44.538758,29440
13:59:44.538758,0
13:59:44.538758,55
13:59:44.538758,14592
13:59:44.538758,0
13:59:44.538758,105
13:59:44.538758,20224
13:59:44.538758,0
13:59:44.538758,36
13:59:44.538758,10240
13:59:44.538758,0
13:59:44.538758,43
13:59:44.538758,7168
13:59:44.538758,0
13:59:44.538758,2
13:59:45.123038,-16
13:59:45.123038,2047
13:59:45.123038,0
13:59:45.123038,7
13:59:45.123038,-18944
13:59:45.123038,-1
13:59:45.123038,-108
13:59:45.123038,-24321
13:59:45.123038,-1
13:59:45.123038,-158
13:59:45.123038,18431
13:59:45.123038,-1
13:59:45.123038,-93
13:59:45.123038,-19969
13:59:45.123038,-1
13:59:45.123038,-175
13:59:45.123038,19711
13:59:45.123038,-1
13:59:45.123038,-127
13:59:45.123038,-31745
13:59:45.123038,-1
13:59:45.123038,-139
13:59:45.123038,12799
13:59:45.123038,-1
13:59:45.123038,-257
13:59:45.123038,20223
13:59:45.123038,-1
13:59:45.123038,-163
13:59:45.123038,-3841
13:59:45.123038,-2
13:59:45.123038,-269
13:59:45.123038,19711
13:59:45.123038,-1
13:59:45.123038,-158
13:59:45.123038,30719
13:59:45.123038,-1
13:59:45.123038,-108
13:59:45.123038,25855
13:59:45.123038,-1
13:59:45.123038,-219
13:59:45.123038,11007
13:59:45.123038,-1
13:59:45.123038,-173
13:59:45.123038,16639
13:59:45.123038,-1
13:59:45.123038,-238
13:59:45.123038,12799
13:59:45.123038,-1
13:59:45.123038,-204
13:59:45.123038,-9985
13:59:45.123038,-2
13:59:45.123038,-139
13:59:45.123038,19455
13:59:45.123038,2
13:59:45.123038,1276
13:59:45.123038,0
13:59:45.123038,3
13:59:45.123038,-308
13:59:45.123038,25343
13:59:45.123038,-2
13:59:45.123038,-81
13:59:45.123038,-3841
13:59:45.123038,-2
13:59:45.123038,-460
13:59:45.123038,-13057
13:59:45.123038,-2
13:59:45.123038,-284
13:59:45.123038,16639
13:59:45.123038,-2
13:59:45.123038,-397
13:59:45.123038,27135
13:59:45.123038,-1
13:59:45.123038,-103
13:59:45.123038,511
13:59:45.123038,-1
13:59:45.123038,-298
13:59:45.123038,-6145
13:59:45.123038,-2
13:59:45.123038,-339
13:59:45.123038,-21761
13:59:45.123038,-2
13:59:45.123038,-315
13:59:45.123038,-22273
13:59:45.123038,-2
13:59:45.123038,-320
13:59:45.123038,-14849
13:59:45.123038,-2
13:59:45.123038,-380
13:59:45.123038,-23553
13:59:45.123038,-2
13:59:45.123038,-322
13:59:45.123038,32767
13:59:45.123038,-2
13:59:45.123038,-390
13:59:45.123038,-26625
13:59:45.123038,-2
13:59:45.123038,-373
13:59:45.123038,22271
13:59:45.123038,-2
13:59:45.123038,-496
13:59:45.123038,16127
13:59:45.123038,-2
13:59:45.123038,-342
13:59:45.123038,32255
13:59:45.123038,-2
13:59:45.123038,-484
13:59:45.123038,3071
13:59:45.123038,-2
13:59:45.123038,-464
13:59:45.619714,-423
13:59:45.619714,11775
13:59:45.619714,-2
13:59:45.619714,-474
13:59:45.619714,-26625
13:59:45.619714,-2
13:59:45.619714,-339
13:59:45.619714,27903
13:59:45.619714,-2
13:59:45.619714,-402
13:59:45.619714,-26625
13:59:45.619714,-2
13:59:45.619714,-363
13:59:45.619714,29695
13:59:45.619714,-2
13:59:45.619714,-397
13:59:45.619714,24063
13:59:45.619714,-2
13:59:45.619714,-450
13:59:45.619714,-28417
13:59:45.619714,-2
13:59:45.619714,-279
13:59:45.619714,-14849
13:59:45.619714,-2
13:59:45.619714,-339
13:59:45.619714,-3073
13:59:45.619714,-2
13:59:45.619714,-221
13:59:45.619714,6655
13:59:45.619714,-1
13:59:45.619714,-228
13:59:45.619714,20223
13:59:45.619714,-1
13:59:45.619714,-122
13:59:45.619714,23295
13:59:45.619714,-1
13:59:45.619714,-214
13:59:45.619714,-32257
13:59:45.619714,-1
13:59:45.619714,-62
13:59:45.619714,30207
13:59:45.619714,-1
13:59:45.619714,-185
13:59:45.619714,-27905
13:59:45.619714,-1
13:59:45.619714,-26
13:59:45.619714,-12033
13:59:45.619714,-1
13:59:45.619714,-185
13:59:45.619714,-22273
13:59:45.619714,-2
13:59:45.619714,-175
13:59:45.619714,-22529
13:59:45.619714,2
13:59:45.619714,1389
13:59:45.619714,-9984
13:59:45.619714,2
13:59:45.619714,-342
13:59:45.619714,26111
13:59:45.619714,-2
13:59:45.619714,-228
13:59:45.619714,28415
13:59:45.619714,-2
13:59:45.619714,-416
13:59:45.619714,-19201
13:59:45.619714,-2
13:59:45.619714,-411
13:59:45.619714,11775
13:59:45.619714,-2
13:59:45.619714,-421
13:59:45.619714,-27137
13:59:45.619714,-2
13:59:45.619714,-370
13:59:45.619714,20479
13:59:45.619714,-2
13:59:45.619714,-423
13:59:45.619714,-25857
13:59:45.619714,-2
13:59:45.619714,-383
13:59:45.619714,22271
13:59:45.619714,-2
13:59:45.619714,-399
13:59:45.619714,-30977
13:59:45.619714,-2
13:59:45.619714,-419
13:59:45.619714,27135
13:59:45.619714,-2
13:59:45.619714,-334
13:59:45.619714,-25857
13:59:45.619714,-2
13:59:45.619714,-399
13:59:45.619714,-23553
13:59:45.619714,-2
13:59:45.619714,-339
13:59:45.619714,29695
13:59:45.619714,-2
13:59:45.619714,-416
13:59:45.619714,-27905
13:59:45.619714,-2
13:59:45.619714,-337
13:59:45.619714,-24065
13:59:45.619714,-2
13:59:45.619714,-310
13:59:45.619714,-3841
13:59:45.619714,-2
13:59:45.619714,-308
13:59:45.619714,-19201
13:59:45.619714,-2
13:59:45.619714,-313
13:59:46.158747,-313
13:59:46.158747,32255
13:59:46.158747,-2
13:59:46.158747,-426
13:59:46.158747,-14849
13:59:46.158747,-2
13:59:46.158747,-243
13:59:46.158747,-14337
13:59:46.158747,-2
13:59:46.158747,-317
13:59:46.158747,-769
13:59:46.158747,-2
13:59:46.158747,-284
13:59:46.158747,-17921
13:59:46.158747,-2
13:59:46.158747,-325
13:59:46.158747,-14849
13:59:46.158747,-2
13:59:46.158747,-332
13:59:46.158747,-19201
13:59:46.158747,-2
13:59:46.158747,-293
13:59:46.158747,-5121
13:59:46.158747,-2
13:59:46.158747,-293
13:59:46.158747,-16641
13:59:46.158747,-2
13:59:46.158747,-298
13:59:46.158747,3071
13:59:46.158747,-1
13:59:46.158747,-252
13:59:46.158747,-5121
13:59:46.158747,-2
13:59:46.158747,-262
13:59:46.158747,2303
13:59:46.158747,-1
13:59:46.158747,-252
13:59:46.158747,-1793
13:59:46.158747,-2
13:59:46.158747,-262
13:59:46.158747,11007
13:59:46.158747,-1
13:59:46.158747,-202
13:59:46.158747,-3073
13:59:46.158747,-2
13:59:46.158747,-298
13:59:46.158747,-1281
13:59:46.158747,-2
13:59:46.158747,-327
13:59:46.158747,-21761
13:59:46.158747,-2
13:59:46.158747,284
13:59:46.158747,-17664
13:59:46.158747,4
13:59:46.158747,975
13:59:46.158747,28160
13:59:46.158747,-1
13:59:46.158747,-421
13:59:46.158747,30207
13:59:46.158747,-1
13:59:46.158747,-291
13:59:46.158747,20479
13:59:46.158747,-2
13:59:46.158747,-330
13:59:46.158747,-11777
13:59:46.158747,-2
13:59:46.158747,-310
13:59:46.158747,-9985
13:59:46.158747,-2
13:59:46.158747,-313
13:59:46.158747,-9217
13:59:46.158747,-2
13:59:46.158747,-238
13:59:46.158747,11775
13:59:46.158747,-1
13:59:46.158747,-228
13:59:46.158747,-769
13:59:46.158747,-2
13:59:46.158747,-279
13:59:46.158747,-5633
13:59:46.158747,-2
13:59:46.158747,-238
13:59:46.158747,14079
13:59:46.158747,-1
13:59:46.158747,-233
13:59:46.158747,-3073
13:59:46.158747,-2
13:59:46.158747,-250
13:59:46.158747,1791
13:59:46.158747,-1
13:59:46.158747,-310
13:59:46.158747,-22785
13:59:46.158747,-2
13:59:46.158747,-298
13:59:46.158747,6143
13:59:46.158747,-1
13:59:46.158747,-236
13:59:46.158747,-11777
13:59:46.158747,-2
13:59:46.158747,-315
13:59:46.158747,3071
13:59:46.158747,-1
13:59:46.158747,-228
13:59:46.158747,6143
13:59:46.158747,-1
13:59:46.158747,-216
13:59:46.158747,-3841
13:59:46.158747,-2
13:59:46.158747,-305
13:59:46.699347,-240
13:59:46.699347,11775
13:59:46.699347,-1
13:59:46.699347,-257
13:59:46.699347,-10497
13:59:46.699347,-2
13:59:46.699347,-296
13:59:46.699347,4863
13:59:46.699347,-1
13:59:46.699347,-185
13:59:46.699347,9727
13:59:46.699347,-1
13:59:46.699347,-272
13:59:46.699347,5375
13:59:46.699347,-1
13:59:46.699347,-180
13:59:46.699347,9727
13:59:46.699347,-1
13:59:46.699347,-233
13:59:46.699347,22015
13:59:46.699347,-1
13:59:46.699347,-180
13:59:46.699347,4351
13:59:46.699347,-1
13:59:46.699347,-226
13:59:46.699347,21503
13:59:46.699347,-1
13:59:46.699347,-158
13:59:46.699347,10495
13:59:46.699347,-1
13:59:46.699347,-257
13:59:46.699347,17151
13:59:46.699347,-1
13:59:46.699347,-132
13:59:46.699347,27135
13:59:46.699347,-1
13:59:46.699347,-156
13:59:46.699347,25855
13:59:46.699347,-1
13:59:46.699347,-207
13:59:46.699347,6655
13:59:46.699347,-1
13:59:46.699347,-166
13:59:46.699347,-30465
13:59:46.699347,-1
13:59:46.699347,-175
13:59:46.699347,14079
13:59:46.699347,-1
13:59:46.699347,-207
13:59:46.699347,-6145
13:59:46.699347,-2
13:59:46.699347,-33
13:59:46.699347,18175
13:59:46.699347,3
13:59:46.699347,1276
13:59:46.699347,-25856
13:59:46.699347,1
13:59:46.699347,-411
13:59:46.699347,-1
13:59:46.699347,-2
13:59:46.699347,-86
13:59:46.699347,6655
13:59:46.699347,-1
13:59:46.699347,-257
13:59:46.699347,8447
13:59:46.699347,-1
13:59:46.699347,-250
13:59:46.699347,3583
13:59:46.699347,-1
13:59:46.699347,-221
13:59:46.699347,4351
13:59:46.699347,-1
13:59:46.699347,-207
13:59:46.699347,30207
13:59:46.699347,-1
13:59:46.699347,-187
13:59:46.699347,2303
13:59:46.699347,-1
13:59:46.699347,-163
13:59:46.699347,-24321
13:59:46.699347,-1
13:59:46.699347,-166
13:59:46.699347,6655
13:59:46.699347,-1
13:59:46.699347,-238
13:59:46.699347,12287
13:59:46.699347,-1
13:59:46.699347,-168
13:59:46.699347,20223
13:59:46.699347,-1
13:59:46.699347,-199
13:59:46.699347,15359
13:59:46.699347,-1
13:59:46.699347,-207
13:59:46.699347,14079
13:59:46.699347,-1
13:59:46.699347,-178
13:59:46.699347,20991
13:59:46.699347,-1
13:59:46.699347,-195
13:59:46.699347,11775
13:59:46.699347,-1
13:59:46.699347,-228
13:59:46.699347,4863
13:59:46.699347,-1
13:59:46.699347,-202
13:59:46.699347,15871
13:59:46.699347,-1
13:59:46.699347,-233
13:59:47.283712,-219
13:59:47.283712,21503
13:59:47.283712,-1
13:59:47.283712,-178
13:59:47.283712,16639
13:59:47.283712,-1
13:59:47.283712,-175
13:59:47.283712,27647
13:59:47.283712,-1
13:59:47.283712,-151
13:59:47.283712,24575
13:59:47.283712,-1
13:59:47.283712,-149
13:59:47.283712,28927
13:59:47.283712,-1
13:59:47.283712,-142
13:59:47.283712,-30465
13:59:47.283712,-1
13:59:47.283712,-96
13:59:47.283712,-22529
13:59:47.283712,-1
13:59:47.283712,-72
13:59:47.283712,-8193
13:59:47.283712,-1
13:59:47.283712,-12
13:59:47.283712,1279
13:59:47.283712,0
13:59:47.283712,33
13:59:47.283712,15872
13:59:47.283712,0
13:59:47.283712,81
13:59:47.283712,22016
13:59:47.283712,0
13:59:47.283712,84
13:59:47.283712,26880
13:59:47.283712,0
13:59:47.283712,144
13:59:47.283712,-21760
13:59:47.283712,0
13:59:47.283712,185
13:59:47.283712,-17664
13:59:47.283712,0
13:59:47.283712,168
13:59:47.283712,-26880
13:59:47.283712,0
13:59:47.283712,139
13:59:47.283712,-29184
13:59:47.283712,0
13:59:47.283712,156
13:59:47.283712,-28672
13:59:47.283712,0
13:59:47.283712,98
13:59:47.283712,10240
13:59:47.283712,0
13:59:47.283712,122
13:59:47.283712,-14848
13:59:47.283712,2
13:59:47.283712,1445
13:59:47.283712,28672
13:59:47.283712,4
13:59:47.283712,144
13:59:47.283712,-12288
13:59:47.283712,-1
13:59:47.283712,224
13:59:47.283712,22016
13:59:47.283712,0
13:59:47.283712,-38
13:59:47.283712,18687
13:59:47.283712,0
13:59:47.283712,91
13:59:47.283712,14592
13:59:47.283712,0
13:59:47.283712,101
13:59:47.283712,27648
13:59:47.283712,0
13:59:47.283712,84
13:59:47.283712,30208
13:59:47.283712,0
13:59:47.283712,132
13:59:47.283712,21504
13:59:47.283712,0
13:59:47.283712,79
13:59:47.283712,26880
13:59:47.283712,0
13:59:47.283712,91
13:59:47.283712,15872
13:59:47.283712,0
13:59:47.283712,55
13:59:47.283712,13312
13:59:47.283712,0
13:59:47.283712,48
13:59:47.283712,13312
13:59:47.283712,0
13:59:47.283712,67
13:59:47.283712,19712
13:59:47.283712,0
13:59:47.283712,72
13:59:47.283712,17664
13:59:47.283712,0
13:59:47.283712,81
13:59:47.283712,20736
13:59:47.283712,0
13:59:47.283712,52
13:59:47.283712,8448
13:59:47.283712,0
13:59:47.283712,31
13:59:47.283712,4864
13:59:47.283712,0
13:59:47.283712,9
13:59:47.914743,4
13:59:47.914743,-1024
13:59:47.914743,-1
13:59:47.914743,-14
13:59:47.914743,-4609
13:59:47.914743,-1
13:59:47.914743,-24
13:59:47.914743,-9473
13:59:47.914743,-1
13:59:47.914743,-60
13:59:47.914743,-10753
13:59:47.914743,-1
13:59:47.914743,14
13:59:47.914743,4096
13:59:47.914743,0
13:59:47.914743,-16
13:59:47.914743,-3329
13:59:47.914743,-1
13:59:47.914743,-4
13:59:47.914743,767
13:59:47.914743,0
13:59:47.914743,14
13:59:47.914743,3584
13:59:47.914743,0
13:59:47.914743,9
13:59:47.914743,3072
13:59:47.914743,0
13:59:47.914743,4
13:59:47.914743,-1792
13:59:47.914743,-1
13:59:47.914743,-9
13:59:47.914743,-257
13:59:47.914743,-1
13:59:47.914743,-9
13:59:47.914743,-9473
13:59:47.914743,-1
13:59:47.914743,-52
13:59:47.914743,-9473
13:59:47.914743,-1
13:59:47.914743,-28
13:59:47.914743,-3841
13:59:47.914743,-1
13:59:47.914743,4
13:59:47.914743,-1792
13:59:47.914743,-1
13:59:47.914743,-36
13:59:47.914743,-12033
13:59:47.914743,-1
13:59:47.914743,-50
13:59:47.914743,-12545
13:59:47.914743,-1
13:59:47.914743,-55
13:59:47.914743,-16897
13:59:47.914743,-1
13:59:47.914743,-113
13:59:47.914743,31487
13:59:47.914743,-1
13:59:47.914743,233
13:59:47.914743,2304
13:59:47.914743,4
13:59:47.914743,1177
13:59:47.914743,2048
13:59:47.914743,1
13:59:47.914743,-269
13:59:47.914743,-9473
13:59:47.914743,-1
13:59:47.914743,-36
13:59:47.914743,14079
13:59:47.914743,-1
13:59:47.914743,-125
13:59:47.914743,-22529
13:59:47.914743,-1
13:59:47.914743,-158
13:59:47.914743,28415
13:59:47.914743,-1
13:59:47.914743,-108
13:59:47.914743,-26625
13:59:47.914743,-1
13:59:47.914743,-98
13:59:47.914743,-22529
13:59:47.914743,-1
13:59:47.914743,-89
13:59:47.914743,-19969
13:59:47.914743,-1
13:59:47.914743,-74
13:59:47.914743,-22529
13:59:47.914743,-1
13:59:47.914743,-89
13:59:47.914743,-17409
13:59:47.914743,-1
13:59:47.914743,-50
13:59:47.914743,-13057
13:59:47.914743,-1
13:59:47.914743,-79
13:59:47.914743,-23041
13:59:47.914743,-1
13:59:47.914743,-86
13:59:47.914743,-24833
13:59:47.914743,-1
13:59:47.914743,-101
13:59:47.914743,-20481
13:59:47.914743,-1
13:59:47.914743,-67
13:59:47.914743,-15617
13:59:47.914743,-1
13:59:47.914743,-65
13:59:47.914743,-15105
13:59:47.914743,-1
13:59:47.914743,-67
13:59:48.409169,-93
13:59:48.409169,-21761
13:59:48.409169,-1
13:59:48.409169,-43
13:59:48.409169,-8193
13:59:48.409169,-1
13:59:48.409169,-50
13:59:48.409169,-16385
13:59:48.409169,-1
13:59:48.409169,-69
13:59:48.409169,-13057
13:59:48.409169,-1
13:59:48.409169,-52
13:59:48.409169,-17409
13:59:48.409169,-1
13:59:48.409169,-62
13:59:48.409169,-12033
13:59:48.409169,-1
13:59:48.409169,-52
13:59:48.409169,-15617
13:59:48.409169,-1
13:59:48.409169,-45
13:59:48.409169,-8961
13:59:48.409169,-1
13:59:48.409169,-26
13:59:48.409169,3327
13:59:48.409169,0
13:59:48.409169,9
13:59:48.409169,-6656
13:59:48.409169,-1
13:59:48.409169,-28
13:59:48.409169,-5121
13:59:48.409169,-1
13:59:48.409169,-12
13:59:48.409169,-257
13:59:48.409169,-1
13:59:48.409169,-26
13:59:48.409169,-18689
13:59:48.409169,-1
13:59:48.409169,-86
13:59:48.409169,-14337
13:59:48.409169,-1
13:59:48.409169,-40
13:59:48.409169,-8193
13:59:48.409169,-1
13:59:48.409169,12
13:59:48.409169,7936
13:59:48.409169,0
13:59:48.409169,-2
13:59:48.409169,-4609
13:59:48.409169,-1
13:59:48.409169,4
13:59:48.409169,3584
13:59:48.409169,0
13:59:48.409169,2
13:59:48.409169,512
13:59:48.409169,0
13:59:48.409169,-26
13:59:48.409169,-25601
13:59:48.409169,-1
13:59:48.409169,-24
13:59:48.409169,10239
13:59:48.409169,2
13:59:48.409169,1320
13:59:48.409169,23808
13:59:48.409169,4
13:59:48.409169,118
13:59:48.409169,19456
13:59:48.409169,-1
13:59:48.409169,72
13:59:48.409169,-6656
13:59:48.409169,-1
13:59:48.409169,-154
13:59:48.409169,-13825
13:59:48.409169,-1
13:59:48.409169,-52
13:59:48.409169,-30465
13:59:48.409169,-1
13:59:48.409169,-81
13:59:48.409169,-6913
13:59:48.409169,-1
13:59:48.409169,-45
13:59:48.409169,-9473
13:59:48.409169,-1
13:59:48.409169,-7
13:59:48.409169,-2049
13:59:48.409169,-1
13:59:48.409169,-21
13:59:48.409169,-6913
13:59:48.409169,-1
13:59:48.409169,-40
13:59:48.409169,-8193
13:59:48.409169,-1
13:59:48.409169,-16
13:59:48.409169,-3329
13:59:48.409169,-1
13:59:48.409169,-24
13:59:48.409169,-7681
13:59:48.409169,-1
13:59:48.409169,-52
13:59:48.409169,-21761
13:59:48.409169,-1
13:59:48.409169,-62
13:59:48.409169,-257
13:59:48.409169,-1
13:59:48.409169,-4
13:59:48.409169,-8961
13:59:48.409169,-1
13:59:48.409169,-21
13:59:48.993773,-14
13:59:48.993773,-6401
13:59:48.993773,-1
13:59:48.993773,-16
13:59:48.993773,-2049
13:59:48.993773,-1
13:59:48.993773,-28
13:59:48.993773,-7681
13:59:48.993773,-1
13:59:48.993773,-14
13:59:48.993773,-769
13:59:48.993773,-1
13:59:48.993773,16
13:59:48.993773,11008
13:59:48.993773,0
13:59:48.993773,33
13:59:48.993773,3072
13:59:48.993773,0
13:59:48.993773,16
13:59:48.993773,12800
13:59:48.993773,0
13:59:48.993773,65
13:59:48.993773,9728
13:59:48.993773,0
13:59:48.993773,21
13:59:48.993773,7168
13:59:48.993773,0
13:59:48.993773,33
13:59:48.993773,9216
13:59:48.993773,0
13:59:48.993773,33
13:59:48.993773,9728
13:59:48.993773,0
13:59:48.993773,38
13:59:48.993773,8448
13:59:48.993773,0
13:59:48.993773,62
13:59:48.993773,19712
13:59:48.993773,0
13:59:48.993773,60
13:59:48.993773,9728
13:59:48.993773,0
13:59:48.993773,4
13:59:48.993773,-3584
13:59:48.993773,-1
13:59:48.993773,28
13:59:48.993773,20224
13:59:48.993773,0
13:59:48.993773,79
13:59:48.993773,17664
13:59:48.993773,0
13:59:48.993773,72
13:59:48.993773,12288
13:59:48.993773,0
13:59:48.993773,12
13:59:48.993773,3584
13:59:48.993773,0
13:59:48.993773,43
13:59:48.993773,14592
13:59:48.993773,0
13:59:48.993773,26
13:59:48.993773,-12800
13:59:48.993773,-1
13:59:48.993773,-125
13:59:48.993773,10495
13:59:48.993773,0
13:59:48.993773,722
13:59:48.993773,-2304
13:59:48.993773,4
13:59:48.993773,710
13:59:48.993773,23808
13:59:48.993773,-1
13:59:48.993773,-154
13:59:48.993773,11263
13:59:48.993773,0
13:59:48.993773,-149
13:59:48.993773,14847
13:59:48.993773,-1
13:59:48.993773,-89
13:59:48.993773,-27905
13:59:48.993773,-1
13:59:48.993773,-132
13:59:48.993773,-22529
13:59:48.993773,-1
13:59:48.993773,-91
13:59:48.993773,-27905
13:59:48.993773,-1
13:59:48.993773,-96
13:59:48.993773,-19969
13:59:48.993773,-1
13:59:48.993773,-67
13:59:48.993773,-14337
13:59:48.993773,-1
13:59:48.993773,-62
13:59:48.993773,-13057
13:59:48.993773,-1
13:59:48.993773,-36
13:59:48.993773,-8961
13:59:48.993773,-1
13:59:48.993773,-24
13:59:48.993773,-4609
13:59:48.993773,-1
13:59:48.993773,-36
13:59:48.993773,-16385
13:59:48.993773,-1
13:59:48.993773,-84
13:59:48.993773,-21249
13:59:48.993773,-1
13:59:48.993773,-79
13:59:49.578600,-62
13:59:49.578600,-10753
13:59:49.578600,-1
13:59:49.578600,-74
13:59:49.578600,-29185
13:59:49.578600,-1
13:59:49.578600,-110
13:59:49.578600,-26113
13:59:49.578600,-1
13:59:49.578600,-125
13:59:49.578600,30719
13:59:49.578600,-1
13:59:49.578600,-120
13:59:49.578600,-29953
13:59:49.578600,-1
13:59:49.578600,-127
13:59:49.578600,-27393
13:59:49.578600,-1
13:59:49.578600,-89
13:59:49.578600,-24321
13:59:49.578600,-1
13:59:49.578600,-101
13:59:49.578600,-27905
13:59:49.578600,-1
13:59:49.578600,-108
13:59:49.578600,-21761
13:59:49.578600,-1
13:59:49.578600,-93
13:59:49.578600,-28673
13:59:49.578600,-1
13:59:49.578600,-105
13:59:49.578600,-29185
13:59:49.578600,-1
13:59:49.578600,-115
13:59:49.578600,-18177
13:59:49.578600,-1
13:59:49.578600,-55
13:59:49.578600,-19969
13:59:49.578600,-1
13:59:49.578600,-89
13:59:49.578600,-18689
13:59:49.578600,-1
13:59:49.578600,-79
13:59:49.578600,-27393
13:59:49.578600,-1
13:59:49.578600,-132
13:59:49.578600,-32257
13:59:49.578600,-1
13:59:49.578600,-96
13:59:49.578600,-12033
13:59:49.578600,-1
13:59:49.578600,-2
13:59:49.578600,3839
13:59:49.578600,0
13:59:49.578600,-26
13:59:49.578600,-14337
13:59:49.578600,-1
13:59:49.578600,-26
13:59:49.578600,-257
13:59:49.578600,-1
13:59:49.578600,-36
13:59:49.578600,-12545
13:59:49.578600,-1
13:59:49.578600,-33
13:59:49.578600,-23041
13:59:49.578600,-1
13:59:49.578600,-168
13:59:49.578600,-27137
13:59:49.578600,0
13:59:49.578600,963
13:59:49.578600,-12800
13:59:49.578600,4
13:59:49.578600,366
13:59:49.578600,-2816
13:59:49.578600,-2
13:59:49.578600,-62
13:59:49.578600,-5889
13:59:49.578600,-1
13:59:49.578600,-233
13:59:49.578600,18431
13:59:49.578600,-1
13:59:49.578600,-110
13:59:49.578600,20991
13:59:49.578600,-1
13:59:49.578600,-171
13:59:49.578600,-27393
13:59:49.578600,-1
13:59:49.578600,-120
13:59:49.578600,27135
13:59:49.578600,-1
13:59:49.578600,-132
13:59:49.578600,-27905
13:59:49.578600,-1
13:59:49.578600,-122
13:59:49.578600,-31745
13:59:49.578600,-1
13:59:49.578600,-120
13:59:49.578600,-31745
13:59:49.578600,-1
13:59:49.578600,-139
13:59:49.578600,32511
13:59:49.578600,-1
13:59:49.578600,-91
13:59:49.578600,-23041
13:59:49.578600,-1
13:59:49.578600,-122
13:59:49.578600,-32257
13:59:49.578600,-1
13:59:49.578600,-122
13:59:50.074922,-130
13:59:50.074922,28927
13:59:50.074922,-1
13:59:50.074922,-144
13:59:50.074922,-27905
13:59:50.074922,-1
13:59:50.074922,-98
13:59:50.074922,-30465
13:59:50.074922,-1
13:59:50.074922,-108
13:59:50.074922,-26625
13:59:50.074922,-1
13:59:50.074922,-125
13:59:50.074922,-29953
13:59:50.074922,-1
13:59:50.074922,-115
13:59:50.074922,-30465
13:59:50.074922,-1
13:59:50.074922,-118
13:59:50.074922,-27905
13:59:50.074922,-1
13:59:50.074922,-89
13:59:50.074922,-16897
13:59:50.074922,-1
13:59:50.074922,-67
13:59:50.074922,-18689
13:59:50.074922,-1
13:59:50.074922,-77
13:59:50.074922,-20481
13:59:50.074922,-1
13:59:50.074922,-60
13:59:50.074922,-4609
13:59:50.074922,-1
13:59:50.074922,-28
13:59:50.074922,-19457
13:59:50.074922,-1
13:59:50.074922,-91
13:59:50.074922,-12033
13:59:50.074922,-1
13:59:50.074922,0
13:59:50.074922,-6656
13:59:50.074922,-1
13:59:50.074922,-67
13:59:50.074922,-11265
13:59:50.074922,-1
13:59:50.074922,-36
13:59:50.074922,-18689
13:59:50.074922,-1
13:59:50.074922,-89
13:59:50.074922,-17409
13:59:50.074922,-1
13:59:50.074922,-48
13:59:50.074922,-5889
13:59:50.074922,-1
13:59:50.074922,-2
13:59:50.074922,1279
13:59:50.074922,0
13:59:50.074922,9
13:59:50.074922,2304
13:59:50.074922,0
13:59:50.074922,7
13:59:50.074922,4864
13:59:50.074922,0
13:59:50.074922,26
13:59:50.074922,3072
13:59:50.074922,0
13:59:50.074922,-33
13:59:50.074922,-19969
13:59:50.074922,-1
13:59:50.074922,120
13:59:50.074922,26624
13:59:50.074922,3
13:59:50.074922,1428
13:59:50.074922,-4864
13:59:50.074922,2
13:59:50.074922,-144
13:59:50.074922,-15105
13:59:50.074922,-1
13:59:50.074922,127
13:59:50.074922,-22784
13:59:50.074922,-1
13:59:50.074922,-146
13:59:50.074922,-13057
13:59:50.074922,-1
13:59:50.074922,-65
13:59:50.074922,-22529
13:59:50.074922,-1
13:59:50.074922,-57
13:59:50.074922,-11265
13:59:50.074922,-1
13:59:50.074922,-50
13:59:50.074922,-6401
13:59:50.074922,-1
13:59:50.074922,-12
13:59:50.074922,-8193
13:59:50.074922,-1
13:59:50.074922,-31
13:59:50.074922,4351
13:59:50.074922,0
13:59:50.074922,21
13:59:50.074922,-8448
13:59:50.074922,-1
13:59:50.074922,-57
13:59:50.074922,-8193
13:59:50.074922,-1
13:59:50.074922,-14
13:59:50.074922,-257
13:59:50.074922,-1
13:59:50.074922,-4
13:59:50.615109,-31
13:59:50.615109,-6913
13:59:50.615109,-1
13:59:50.615109,-19
13:59:50.615109,-6913
13:59:50.615109,-1
13:59:50.615109,-7
13:59:50.615109,9471
13:59:50.615109,0
13:59:50.615109,60
13:59:50.615109,14592
13:59:50.615109,0
13:59:50.615109,33
13:59:50.615109,5376
13:59:50.615109,0
13:59:50.615109,26
13:59:50.615109,4096
13:59:50.615109,0
13:59:50.615109,14
13:59:50.615109,8448
13:59:50.615109,0
13:59:50.615109,26
13:59:50.615109,4864
13:59:50.615109,0
13:59:50.615109,69
13:59:50.615109,23296
13:59:50.615109,0
13:59:50.615109,62
13:59:50.615109,13312
13:59:50.615109,0
13:59:50.615109,45
13:59:50.615109,9728
13:59:50.615109,0
13:59:50.615109,52
13:59:50.615109,14592
13:59:50.615109,0
13:59:50.615109,45
13:59:50.615109,3584
13:59:50.615109,0
13:59:50.615109,21
13:59:50.615109,22784
13:59:50.615109,0
13:59:50.615109,98
13:59:50.615109,19712
13:59:50.615109,0
13:59:50.615109,108
13:59:50.615109,22016
13:59:50.615109,0
13:59:50.615109,33
13:59:50.615109,12800
13:59:50.615109,0
13:59:50.615109,89
13:59:50.615109,26880
13:59:50.615109,0
13:59:50.615109,118
13:59:50.615109,32512
13:59:50.615109,0
13:59:50.615109,103
13:59:50.615109,17664
13:59:50.615109,0
13:59:50.615109,67
13:59:50.615109,32512
13:59:50.615109,0
13:59:50.615109,166
13:59:50.615109,32000
13:59:50.615109,0
13:59:50.615109,113
13:59:50.615109,20736
13:59:50.615109,0
13:59:50.615109,81
13:59:50.615109,15616
13:59:50.615109,2
13:59:50.615109,1332
13:59:50.615109,-25600
13:59:50.615109,4
13:59:50.615109,202
13:59:50.615109,28160
13:59:50.615109,-1
13:59:50.615109,86
13:59:50.615109,9728
13:59:50.615109,0
13:59:50.615109,-60
13:59:50.615109,5631
13:59:50.615109,0
13:59:50.615109,52
13:59:50.615109,2304
13:59:50.615109,0
13:59:50.615109,-2
13:59:50.615109,3327
13:59:50.615109,0
13:59:50.615109,21
13:59:50.615109,7168
13:59:50.615109,0
13:59:50.615109,31
13:59:50.615109,7936
13:59:50.615109,0
13:59:50.615109,40
13:59:50.615109,12288
13:59:50.615109,0
13:59:50.615109,45
13:59:50.615109,11008
13:59:50.615109,0
13:59:50.615109,60
13:59:50.615109,18944
13:59:50.615109,0
13:59:50.615109,60
13:59:50.615109,10240
13:59:50.615109,0
13:59:50.615109,36
13:59:51.243792,33
13:59:51.243792,5376
13:59:51.243792,0
13:59:51.243792,21
13:59:51.243792,10240
13:59:51.243792,0
13:59:51.243792,55
13:59:51.243792,10240
13:59:51.243792,0
13:59:51.243792,12
13:59:51.243792,1024
13:59:51.243792,0
13:59:51.243792,28
13:59:51.243792,9216
13:59:51.243792,0
13:59:51.243792,14
13:59:51.243792,0
13:59:51.243792,0
13:59:51.243792,4
13:59:51.243792,512
13:59:51.243792,0
13:59:51.243792,-7
13:59:51.243792,-769
13:59:51.243792,-1
13:59:51.243792,-2
13:59:51.243792,-2817
13:59:51.243792,-1
13:59:51.243792,-26
13:59:51.243792,-5889
13:59:51.243792,-1
13:59:51.243792,-2
13:59:51.243792,-257
13:59:51.243792,-1
13:59:51.243792,-21
13:59:51.243792,-6401
13:59:51.243792,-1
13:59:51.243792,-19
13:59:51.243792,-4609
13:59:51.243792,-1
13:59:51.243792,-16
13:59:51.243792,-3329
13:59:51.243792,-1
13:59:51.243792,-16
13:59:51.243792,-3329
13:59:51.243792,-1
13:59:51.243792,-19
13:59:51.243792,-7681
13:59:51.243792,-1
13:59:51.243792,-50
13:59:51.243792,-14337
13:59:51.243792,-1
13:59:51.243792,-40
13:59:51.243792,-257
13:59:51.243792,-1
13:59:51.243792,24
13:59:51.243792,5376
13:59:51.243792,0
13:59:51.243792,-9
13:59:51.243792,-6913
13:59:51.243792,-1
13:59:51.243792,-16
13:59:51.243792,-2049
13:59:51.243792,-1
13:59:51.243792,-4
13:59:51.243792,6911
13:59:51.243792,0
13:59:51.243792,0
13:59:51.243792,-23808
13:59:51.243792,-1
13:59:51.243792,-55
13:59:51.243792,-12033
13:59:51.243792,1
13:59:51.243792,1199
13:59:51.243792,-2560
13:59:51.243792,3
13:59:51.243792,55
13:59:51.243792,9472
13:59:51.243792,-1
13:59:51.243792,31
13:59:51.243792,-17152
13:59:51.243792,-1
13:59:51.243792,-197
13:59:51.243792,-27393
13:59:51.243792,-1
13:59:51.243792,-91
13:59:51.243792,-32257
13:59:51.243792,-1
13:59:51.243792,-98
13:59:51.243792,-19969
13:59:51.243792,-1
13:59:51.243792,-86
13:59:51.243792,-19457
13:59:51.243792,-1
13:59:51.243792,-69
13:59:51.243792,-17409
13:59:51.243792,-1
13:59:51.243792,-67
13:59:51.243792,-18177
13:59:51.243792,-1
13:59:51.243792,-69
13:59:51.243792,-15105
13:59:51.243792,-1
13:59:51.243792,-62
13:59:51.243792,-16385
13:59:51.243792,-1
13:59:51.243792,-62
13:59:51.243792,-15105
13:59:51.243792,-1
13:59:51.243792,-72
13:59:51.784547,-86
13:59:51.784547,-23041
13:59:51.784547,-1
13:59:51.784547,-84
13:59:51.784547,-19969
13:59:51.784547,-1
13:59:51.784547,-79
13:59:51.784547,-16897
13:59:51.784547,-1
13:59:51.784547,-57
13:59:51.784547,-16385
13:59:51.784547,-1
13:59:51.784547,-72
13:59:51.784547,-19457
13:59:51.784547,-1
13:59:51.784547,-79
13:59:51.784547,-19457
13:59:51.784547,-1
13:59:51.784547,-72
13:59:51.784547,-13825
13:59:51.784547,-1
13:59:51.784547,-43
13:59:51.784547,-13057
13:59:51.784547,-1
13:59:51.784547,-57
13:59:51.784547,-13057
13:59:51.784547,-1
13:59:51.784547,-45
13:59:51.784547,-9985
13:59:51.784547,-1
13:59:51.784547,-43
13:59:51.784547,-11265
13:59:51.784547,-1
13:59:51.784547,-31
13:59:51.784547,-6401
13:59:51.784547,-1
13:59:51.784547,-31
13:59:51.784547,-4609
13:59:51.784547,-1
13:59:51.784547,-12
13:59:51.784547,-5121
13:59:51.784547,-1
13:59:51.784547,-28
13:59:51.784547,-4609
13:59:51.784547,-1
13:59:51.784547,-12
13:59:51.784547,-7681
13:59:51.784547,-1
13:59:51.784547,-50
13:59:51.784547,-9985
13:59:51.784547,-1
13:59:51.784547,-12
13:59:51.784547,3839
13:59:51.784547,0
13:59:51.784547,36
13:59:51.784547,7936
13:59:51.784547,0
13:59:51.784547,-2
13:59:51.784547,-1537
13:59:51.784547,-1
13:59:51.784547,16
13:59:51.784547,5376
13:59:51.784547,0
13:59:51.784547,9
13:59:51.784547,3072
13:59:51.784547,0
13:59:51.784547,-12
13:59:51.784547,-19457
13:59:51.784547,-1
13:59:51.784547,62
13:59:51.784547,-9984
13:59:51.784547,2
13:59:51.784547,1310
13:59:51.784547,1792
13:59:51.784547,3
13:59:51.784547,-103
13:59:51.784547,-28673
13:59:51.784547,-1
13:59:51.784547,84
13:59:51.784547,-22016
13:59:51.784547,-1
13:59:51.784547,-127
13:59:51.784547,-5889
13:59:51.784547,-1
13:59:51.784547,-48
13:59:51.784547,-19969
13:59:51.784547,-1
13:59:51.784547,-40
13:59:51.784547,-7681
13:59:51.784547,-1
13:59:51.784547,-43
13:59:51.784547,-8193
13:59:51.784547,-1
13:59:51.784547,-21
13:59:51.784547,-3841
13:59:51.784547,-1
13:59:51.784547,-7
13:59:51.784547,-1537
13:59:51.784547,-1
13:59:51.784547,-16
13:59:51.784547,-3329
13:59:51.784547,-1
13:59:51.784547,-7
13:59:51.784547,-2049
13:59:51.784547,-1
13:59:51.784547,-19
13:59:51.784547,-6913
13:59:51.784547,-1
13:59:51.784547,-38
13:59:52.323808,-48
13:59:52.323808,-12033
13:59:52.323808,-1
13:59:52.323808,-33
13:59:52.323808,-4609
13:59:52.323808,-1
13:59:52.323808,-21
13:59:52.323808,-8193
13:59:52.323808,-1
13:59:52.323808,-36
13:59:52.323808,-8961
13:59:52.323808,-1
13:59:52.323808,-38
13:59:52.323808,-8193
13:59:52.323808,-1
13:59:52.323808,-26
13:59:52.323808,-8961
13:59:52.323808,-1
13:59:52.323808,-36
13:59:52.323808,-6401
13:59:52.323808,-1
13:59:52.323808,-21
13:59:52.323808,-5121
13:59:52.323808,-1
13:59:52.323808,-19
13:59:52.323808,-3329
13:59:52.323808,-1
13:59:52.323808,-7
13:59:52.323808,255
13:59:52.323808,0
13:59:52.323808,0
13:59:52.323808,0
13:59:52.323808,0
13:59:52.323808,2
13:59:52.323808,1792
13:59:52.323808,0
13:59:52.323808,14
13:59:52.323808,3584
13:59:52.323808,0
13:59:52.323808,12
13:59:52.323808,4864
13:59:52.323808,0
13:59:52.323808,24
13:59:52.323808,6656
13:59:52.323808,0
13:59:52.323808,21
13:59:52.323808,512
13:59:52.323808,0
13:59:52.323808,-16
13:59:52.323808,-3329
13:59:52.323808,-1
13:59:52.323808,7
13:59:52.323808,8448
13:59:52.323808,0
13:59:52.323808,55
13:59:52.323808,13312
13:59:52.323808,0
13:59:52.323808,26
13:59:52.323808,4864
13:59:52.323808,0
13:59:52.323808,40
13:59:52.323808,12288
13:59:52.323808,0
13:59:52.323808,40
13:59:52.323808,10240
13:59:52.323808,0
13:59:52.323808,24
13:59:52.323808,-9728
13:59:52.323808,-1
13:59:52.323808,57
13:59:52.323808,-26624
13:59:52.323808,2
13:59:52.323808,1310
13:59:52.323808,-30464
13:59:52.323808,3
13:59:52.323808,-12
13:59:52.323808,-30465
13:59:52.323808,-1
13:59:52.323808,101
13:59:52.323808,-10240
13:59:52.323808,-1
13:59:52.323808,-113
13:59:52.323808,-2817
13:59:52.323808,-1
13:59:52.323808,-24
13:59:52.323808,-17409
13:59:52.323808,-1
13:59:52.323808,-40
13:59:52.323808,-6401
13:59:52.323808,-1
13:59:52.323808,-36
13:59:52.323808,-4609
13:59:52.323808,-1
13:59:52.323808,-2
13:59:52.323808,-1537
13:59:52.323808,-1
13:59:52.323808,-12
13:59:52.323808,-1537
13:59:52.323808,-1
13:59:52.323808,-7
13:59:52.323808,-3329
13:59:52.323808,-1
13:59:52.323808,-19
13:59:52.323808,-4609
13:59:52.323808,-1
13:59:52.323808,-19
13:59:52.323808,-6401
13:59:52.323808,-1
13:59:52.323808,-45
13:59:52.909901,-55
13:59:52.909901,-12545
13:59:52.909901,-1
13:59:52.909901,-40
13:59:52.909901,-7681
13:59:52.909901,-1
13:59:52.909901,-24
13:59:52.909901,-5121
13:59:52.909901,-1
13:59:52.909901,-14
13:59:52.909901,-769
13:59:52.909901,-1
13:59:52.909901,-7
13:59:52.909901,-5121
13:59:52.909901,-1
13:59:52.909901,-26
13:59:52.909901,-5889
13:59:52.909901,-1
13:59:52.909901,-21
13:59:52.909901,-4609
13:59:52.909901,-1
13:59:52.909901,-19
13:59:52.909901,-5121
13:59:52.909901,-1
13:59:52.909901,-21
13:59:52.909901,-2817
13:59:52.909901,-1
13:59:52.909901,-4
13:59:52.909901,-257
13:59:52.909901,-1
13:59:52.909901,0
13:59:52.909901,0
13:59:52.909901,0
13:59:52.909901,0
13:59:52.909901,0
13:59:52.909901,0
13:59:52.909901,7
13:59:52.909901,2304
13:59:52.909901,0
13:59:52.909901,9
13:59:52.909901,1792
13:59:52.909901,0
13:59:52.909901,9
13:59:52.909901,4096
13:59:52.909901,0
13:59:52.909901,12
13:59:52.909901,-1792
13:59:52.909901,-1
13:59:52.909901,-26
13:59:52.909901,-8961
13:59:52.909901,-1
13:59:52.909901,-21
13:59:52.909901,2047
13:59:52.909901,0
13:59:52.909901,40
13:59:52.909901,14080
13:59:52.909901,0
13:59:52.909901,28
13:59:52.909901,1024
13:59:52.909901,0
13:59:52.909901,12
13:59:52.909901,6656
13:59:52.909901,0
13:59:52.909901,19
13:59:52.909901,3072
13:59:52.909901,0
13:59:52.909901,0
13:59:52.909901,-13312
13:59:52.909901,-1
13:59:52.909901,-24
13:59:52.909901,-13057
13:59:52.909901,1
13:59:52.909901,1194
13:59:52.909901,7936
13:59:52.909901,4
13:59:52.909901,115
13:59:52.909901,15104
13:59:52.909901,-1
13:59:52.909901,52
13:59:52.909901,-4096
13:59:52.909901,-1
13:59:52.909901,-154
13:59:52.909901,-18177
13:59:52.909901,-1
13:59:52.909901,-50
13:59:52.909901,-23553
13:59:52.909901,-1
13:59:52.909901,-72
13:59:52.909901,-11265
13:59:52.909901,-1
13:59:52.909901,-57
13:59:52.909901,-13825
13:59:52.909901,-1
13:59:52.909901,-45
13:59:52.909901,-11265
13:59:52.909901,-1
13:59:52.909901,-40
13:59:52.909901,-7681
13:59:52.909901,-1
13:59:52.909901,-33
13:59:52.909901,-10753
13:59:52.909901,-1
13:59:52.909901,-45
13:59:52.909901,-9473
13:59:52.909901,-1
13:59:52.909901,-31
13:59:52.909901,-10753
13:59:52.909901,-1
13:59:52.909901,-62
13:59:53.493684,-72
13:59:53.493684,-19969
13:59:53.493684,-1
13:59:53.493684,-79
13:59:53.493684,-13057
13:59:53.493684,-1
13:59:53.493684,-31
13:59:53.493684,-8193
13:59:53.493684,-1
13:59:53.493684,-43
13:59:53.493684,-9985
13:59:53.493684,-1
13:59:53.493684,-43
13:59:53.493684,-12033
13:59:53.493684,-1
13:59:53.493684,-40
13:59:53.493684,-8961
13:59:53.493684,-1
13:59:53.493684,-40
13:59:53.493684,-10753
13:59:53.493684,-1
13:59:53.493684,-38
13:59:53.493684,-8193
13:59:53.493684,-1
13:59:53.493684,-33
13:59:53.493684,-8193
13:59:53.493684,-1
13:59:53.493684,-26
13:59:53.493684,-5889
13:59:53.493684,-1
13:59:53.493684,-26
13:59:53.493684,-6401
13:59:53.493684,-1
13:59:53.493684,-21
13:59:53.493684,-4609
13:59:53.493684,-1
13:59:53.493684,-19
13:59:53.493684,-3841
13:59:53.493684,-1
13:59:53.493684,-12
13:59:53.493684,-2049
13:59:53.493684,-1
13:59:53.493684,0
13:59:53.493684,3584
13:59:53.493684,0
13:59:53.493684,-2
13:59:53.493684,-8961
13:59:53.493684,-1
13:59:53.493684,-43
13:59:53.493684,-6913
13:59:53.493684,-1
13:59:53.493684,-24
13:59:53.493684,-1537
13:59:53.493684,-1
13:59:53.493684,31
13:59:53.493684,9216
13:59:53.493684,0
13:59:53.493684,-2
13:59:53.493684,-3329
13:59:53.493684,-1
13:59:53.493684,12
13:59:53.493684,4864
13:59:53.493684,0
13:59:53.493684,0
13:59:53.493684,-1792
13:59:53.493684,-1
13:59:53.493684,-19
13:59:53.493684,-19457
13:59:53.493684,-1
13:59:53.493684,-9
13:59:53.493684,13311
13:59:53.493684,2
13:59:53.493684,1235
13:59:53.493684,30208
13:59:53.493684,3
13:59:53.493684,-26
13:59:53.493684,25343
13:59:53.493684,-1
13:59:53.493684,67
13:59:53.493684,-18944
13:59:53.493684,-1
13:59:53.493684,-166
13:59:53.493684,-16897
13:59:53.493684,-1
13:59:53.493684,-69
13:59:53.493684,-27393
13:59:53.493684,-1
13:59:53.493684,-81
13:59:53.493684,-16897
13:59:53.493684,-1
13:59:53.493684,-74
13:59:53.493684,-16385
13:59:53.493684,-1
13:59:53.493684,-57
13:59:53.493684,-14337
13:59:53.493684,-1
13:59:53.493684,-52
13:59:53.493684,-10753
13:59:53.493684,-1
13:59:53.493684,-43
13:59:53.493684,-12033
13:59:53.493684,-1
13:59:53.493684,-48
13:59:53.493684,-12545
13:59:53.493684,-1
13:59:53.493684,-57
13:59:53.493684,-13825
13:59:53.493684,-1
13:59:53.493684,-57
13:59:54.074487,-72
13:59:54.074487,-18177
13:59:54.074487,-1
13:59:54.074487,-55
13:59:54.074487,-10753
13:59:54.074487,-1
13:59:54.074487,-38
13:59:54.074487,-9473
13:59:54.074487,-1
13:59:54.074487,-48
13:59:54.074487,-16897
13:59:54.074487,-1
13:59:54.074487,-77
13:59:54.074487,-19457
13:59:54.074487,-1
13:59:54.074487,-81
13:59:54.074487,-18689
13:59:54.074487,-1
13:59:54.074487,-43
13:59:54.074487,-6401
13:59:54.074487,-1
13:59:54.074487,-43
13:59:54.074487,-11265
13:59:54.074487,-1
13:59:54.074487,-33
13:59:54.074487,-9473
13:59:54.074487,-1
13:59:54.074487,-43
13:59:54.074487,-5889
13:59:54.074487,-1
13:59:54.074487,-14
13:59:54.074487,-4609
13:59:54.074487,-1
13:59:54.074487,-21
13:59:54.074487,-3329
13:59:54.074487,-1
13:59:54.074487,-12
13:59:54.074487,-2817
13:59:54.074487,-1
13:59:54.074487,-14
13:59:54.074487,-3841
13:59:54.074487,-1
13:59:54.074487,-12
13:59:54.074487,-2817
13:59:54.074487,-1
13:59:54.074487,-26
13:59:54.074487,-12033
13:59:54.074487,-1
13:59:54.074487,-48
13:59:54.074487,-6913
13:59:54.074487,-1
13:59:54.074487,-2
13:59:54.074487,6911
13:59:54.074487,0
13:59:54.074487,33
13:59:54.074487,1024
13:59:54.074487,0
13:59:54.074487,-7
13:59:54.074487,3839
13:59:54.074487,0
13:59:54.074487,21
13:59:54.074487,3072
13:59:54.074487,0
13:59:54.074487,14
13:59:54.074487,-2304
13:59:54.074487,-1
13:59:54.074487,-81
13:59:54.074487,255
13:59:54.074487,0
13:59:54.074487,594
13:59:54.074487,-11520
13:59:54.074487,4
13:59:54.074487,835
13:59:54.074487,-14592
13:59:54.074487,-1
13:59:54.074487,-139
13:59:54.074487,20991
13:59:54.074487,0
13:59:54.074487,-72
13:59:54.074487,29439
13:59:54.074487,-1
13:59:54.074487,-40
13:59:54.074487,-13825
13:59:54.074487,-1
13:59:54.074487,-91
13:59:54.074487,-13057
13:59:54.074487,-1
13:59:54.074487,-40
13:59:54.074487,-13057
13:59:54.074487,-1
13:59:54.074487,-40
13:59:54.074487,-6913
13:59:54.074487,-1
13:59:54.074487,-28
13:59:54.074487,-4609
13:59:54.074487,-1
13:59:54.074487,-9
13:59:54.074487,-3329
13:59:54.074487,-1
13:59:54.074487,-16
13:59:54.074487,-3841
13:59:54.074487,-1
13:59:54.074487,-21
13:59:54.074487,-6401
13:59:54.074487,-1
13:59:54.074487,-31
13:59:54.074487,-9985
13:59:54.074487,-1
13:59:54.074487,-45
13:59:54.620474,-40
13:59:54.620474,-8961
13:59:54.620474,-1
13:59:54.620474,-31
13:59:54.620474,-6401
13:59:54.620474,-1
13:59:54.620474,-19
13:59:54.620474,-3841
13:59:54.620474,-1
13:59:54.620474,-28
13:59:54.620474,-9473
13:59:54.620474,-1
13:59:54.620474,-40
13:59:54.620474,-11265
13:59:54.620474,-1
13:59:54.620474,-43
13:59:54.620474,-8961
13:59:54.620474,-1
13:59:54.620474,-36
13:59:54.620474,-9985
13:59:54.620474,-1
13:59:54.620474,-33
13:59:54.620474,-5121
13:59:54.620474,-1
13:59:54.620474,-16
13:59:54.620474,-2817
13:59:54.620474,-1
13:59:54.620474,-7
13:59:54.620474,-2049
13:59:54.620474,-1
13:59:54.620474,-9
13:59:54.620474,-769
13:59:54.620474,-1
13:59:54.620474,2
13:59:54.620474,1024
13:59:54.620474,0
13:59:54.620474,0
13:59:54.620474,0
13:59:54.620474,0
13:59:54.620474,4
13:59:54.620474,1792
13:59:54.620474,0
13:59:54.620474,-2
13:59:54.620474,-4609
13:59:54.620474,-1
13:59:54.620474,-36
13:59:54.620474,-6401
13:59:54.620474,-1
13:59:54.620474,2
13:59:54.620474,7936
13:59:54.620474,0
13:59:54.620474,52
13:59:54.620474,10240
13:59:54.620474,0
13:59:54.620474,9
13:59:54.620474,2304
13:59:54.620474,0
13:59:54.620474,26
13:59:54.620474,7168
13:59:54.620474,0
13:59:54.620474,26
13:59:54.620474,5376
13:59:54.620474,0
13:59:54.620474,-24
13:59:54.620474,-13057
13:59:54.620474,-1
13:59:54.620474,277
13:59:54.620474,3584
13:59:54.620474,4
13:59:54.620474,1238
13:59:54.620474,32512
13:59:54.620474,1
13:59:54.620474,-209
13:59:54.620474,-2049
13:59:54.620474,-1
13:59:54.620474,38
13:59:54.620474,30464
13:59:54.620474,-1
13:59:54.620474,-89
13:59:54.620474,-6913
13:59:54.620474,-1
13:59:54.620474,-81
13:59:54.620474,-19457
13:59:54.620474,-1
13:59:54.620474,-38
13:59:54.620474,-9985
13:59:54.620474,-1
13:59:54.620474,-43
13:59:54.620474,-6913
13:59:54.620474,-1
13:59:54.620474,-28
13:59:54.620474,-8193
13:59:54.620474,-1
13:59:54.620474,-26
13:59:54.620474,-5121
13:59:54.620474,-1
13:59:54.620474,-24
13:59:54.620474,-6401
13:59:54.620474,-1
13:59:54.620474,-28
13:59:54.620474,-8961
13:59:54.620474,-1
13:59:54.620474,-40
13:59:54.620474,-11265
13:59:54.620474,-1
13:59:54.620474,-52
13:59:54.620474,-14337
13:59:54.620474,-1
13:59:54.620474,-55
13:59:55.159515,-45
13:59:55.159515,-7681
13:59:55.159515,-1
13:59:55.159515,-24
13:59:55.159515,-8193
13:59:55.159515,-1
13:59:55.159515,-45
13:59:55.159515,-12033
13:59:55.159515,-1
13:59:55.159515,-52
13:59:55.159515,-12545
13:59:55.159515,-1
13:59:55.159515,-45
13:59:55.159515,-12033
13:59:55.159515,-1
13:59:55.159515,-50
13:59:55.159515,-12545
13:59:55.159515,-1
13:59:55.159515,-43
13:59:55.159515,-5889
13:59:55.159515,-1
13:59:55.159515,-9
13:59:55.159515,-3841
13:59:55.159515,-1
13:59:55.159515,-19
13:59:55.159515,-2817
13:59:55.159515,-1
13:59:55.159515,-9
13:59:55.159515,-2817
13:59:55.159515,-1
13:59:55.159515,-12
13:59:55.159515,-2817
13:59:55.159515,-1
13:59:55.159515,-7
13:59:55.159515,-769
13:59:55.159515,-1
13:59:55.159515,-4
13:59:55.159515,-769
13:59:55.159515,-1
13:59:55.159515,-7
13:59:55.159515,-5889
13:59:55.159515,-1
13:59:55.159515,-40
13:59:55.159515,-8193
13:59:55.159515,-1
13:59:55.159515,-9
13:59:55.159515,4351
13:59:55.159515,0
13:59:55.159515,43
13:59:55.159515,11008
13:59:55.159515,0
13:59:55.159515,14
13:59:55.159515,1024
13:59:55.159515,0
13:59:55.159515,24
13:59:55.159515,7936
13:59:55.159515,0
13:59:55.159515,21
13:59:55.159515,4864
13:59:55.159515,0
13:59:55.159515,-12
13:59:55.159515,-17409
13:59:55.159515,-1
13:59:55.159515,120
13:59:55.159515,14848
13:59:55.159515,3
13:59:55.159515,1303
13:59:55.159515,-30208
13:59:55.159515,2
13:59:55.159515,-158
13:59:55.159515,-22529
13:59:55.159515,-1
13:59:55.159515,69
13:59:55.159515,-26880
13:59:55.159515,-1
13:59:55.159515,-120
13:59:55.159515,-7681
13:59:55.159515,-1
13:59:55.159515,-65
13:59:55.159515,-21249
13:59:55.159515,-1
13:59:55.159515,-48
13:59:55.159515,-12033
13:59:55.159515,-1
13:59:55.159515,-50
13:59:55.159515,-8193
13:59:55.159515,-1
13:59:55.159515,-28
13:59:55.159515,-8193
13:59:55.159515,-1
13:59:55.159515,-24
13:59:55.159515,-3841
13:59:55.159515,-1
13:59:55.159515,-19
13:59:55.159515,-5121
13:59:55.159515,-1
13:59:55.159515,-21
13:59:55.159515,-5889
13:59:55.159515,-1
13:59:55.159515,-28
13:59:55.159515,-9473
13:59:55.159515,-1
13:59:55.159515,-45
13:59:55.159515,-12033
13:59:55.159515,-1
13:59:55.159515,-52
13:59:55.159515,-12033
13:59:55.159515,-1
13:59:55.159515,-33
13:59:55.700111,-24
13:59:55.700111,-6401
13:59:55.700111,-1
13:59:55.700111,-36
13:59:55.700111,-9985
13:59:55.700111,-1
13:59:55.700111,-45
13:59:55.700111,-13057
13:59:55.700111,-1
13:59:55.700111,-55
13:59:55.700111,-13825
13:59:55.700111,-1
13:59:55.700111,-55
13:59:55.700111,-13057
13:59:55.700111,-1
13:59:55.700111,-43
13:59:55.700111,-6401
13:59:55.700111,-1
13:59:55.700111,-19
13:59:55.700111,-6401
13:59:55.700111,-1
13:59:55.700111,-24
13:59:55.700111,-5121
13:59:55.700111,-1
13:59:55.700111,-19
13:59:55.700111,-3329
13:59:55.700111,-1
13:59:55.700111,-12
13:59:55.700111,-3329
13:59:55.700111,-1
13:59:55.700111,-16
13:59:55.700111,-3329
13:59:55.700111,-1
13:59:55.700111,-7
13:59:55.700111,-1537
13:59:55.700111,-1
13:59:55.700111,-9
13:59:55.700111,-5889
13:59:55.700111,-1
13:59:55.700111,-45
13:59:55.700111,-10753
13:59:55.700111,-1
13:59:55.700111,-16
13:59:55.700111,1279
13:59:55.700111,0
13:59:55.700111,31
13:59:55.700111,9216
13:59:55.700111,0
13:59:55.700111,2
13:59:55.700111,-2304
13:59:55.700111,-1
13:59:55.700111,12
13:59:55.700111,4096
13:59:55.700111,0
13:59:55.700111,12
13:59:55.700111,2304
13:59:55.700111,0
13:59:55.700111,-24
13:59:55.700111,-21761
13:59:55.700111,-1
13:59:55.700111,74
13:59:55.700111,-3840
13:59:55.700111,2
13:59:55.700111,1279
13:59:55.700111,-21504
13:59:55.700111,2
13:59:55.700111,-154
13:59:55.700111,-28673
13:59:55.700111,-1
13:59:55.700111,60
13:59:55.700111,-30208
13:59:55.700111,-1
13:59:55.700111,-146
13:59:55.700111,-13057
13:59:55.700111,-1
13:59:55.700111,-86
13:59:55.700111,-27905
13:59:55.700111,-1
13:59:55.700111,-69
13:59:55.700111,-16385
13:59:55.700111,-1
13:59:55.700111,-77
13:59:55.700111,-14337
13:59:55.700111,-1
13:59:55.700111,-43
13:59:55.700111,-12033
13:59:55.700111,-1
13:59:55.700111,-52
13:59:55.700111,-12545
13:59:55.700111,-1
13:59:55.700111,-45
13:59:55.700111,-10753
13:59:55.700111,-1
13:59:55.700111,-48
13:59:55.700111,-13057
13:59:55.700111,-1
13:59:55.700111,-52
13:59:55.700111,-14337
13:59:55.700111,-1
13:59:55.700111,-65
13:59:55.700111,-16385
13:59:55.700111,-1
13:59:55.700111,-57
13:59:55.700111,-13825
13:59:55.700111,-1
13:59:55.700111,-52
13:59:55.700111,-12033
13:59:55.700111,-1
13:59:55.700111,-48
13:59:56.238945,-57
13:59:56.238945,-16897
13:59:56.238945,-1
13:59:56.238945,-74
13:59:56.238945,-20481
13:59:56.238945,-1
13:59:56.238945,-81
13:59:56.238945,-19969
13:59:56.238945,-1
13:59:56.238945,-79
13:59:56.238945,-18177
13:59:56.238945,-1
13:59:56.238945,-52
13:59:56.238945,-11265
13:59:56.238945,-1
13:59:56.238945,-52
13:59:56.238945,-13057
13:59:56.238945,-1
13:59:56.238945,-43
13:59:56.238945,-10753
13:59:56.238945,-1
13:59:56.238945,-45
13:59:56.238945,-10753
13:59:56.238945,-1
13:59:56.238945,-40
13:59:56.238945,-9473
13:59:56.238945,-1
13:59:56.238945,-36
13:59:56.238945,-9985
13:59:56.238945,-1
13:59:56.238945,-43
13:59:56.238945,-9985
13:59:56.238945,-1
13:59:56.238945,-40
13:59:56.238945,-12545
13:59:56.238945,-1
13:59:56.238945,-65
13:59:56.238945,-18689
13:59:56.238945,-1
13:59:56.238945,-69
13:59:56.238945,-11265
13:59:56.238945,-1
13:59:56.238945,-9
13:59:56.238945,3327
13:59:56.238945,0
13:59:56.238945,-9
13:59:56.238945,-8193
13:59:56.238945,-1
13:59:56.238945,-24
13:59:56.238945,-2049
13:59:56.238945,-1
13:59:56.238945,-7
13:59:56.238945,-2817
13:59:56.238945,-1
13:59:56.238945,-26
13:59:56.238945,-20481
13:59:56.238945,-1
13:59:56.238945,-89
13:59:56.238945,16639
13:59:56.238945,1
13:59:56.238945,1067
13:59:56.238945,7168
13:59:56.238945,4
13:59:56.238945,156
13:59:56.238945,10752
13:59:56.238945,-1
13:59:56.238945,26
13:59:56.238945,-7936
13:59:56.238945,-1
13:59:56.238945,-178
13:59:56.238945,-23041
13:59:56.238945,-1
13:59:56.238945,-57
13:59:56.238945,-27393
13:59:56.238945,-1
13:59:56.238945,-93
13:59:56.238945,-16385
13:59:56.238945,-1
13:59:56.238945,-72
13:59:56.238945,-17409
13:59:56.238945,-1
13:59:56.238945,-52
13:59:56.238945,-12545
13:59:56.238945,-1
13:59:56.238945,-52
13:59:56.238945,-11265
13:59:56.238945,-1
13:59:56.238945,-38
13:59:56.238945,-7681
13:59:56.238945,-1
13:59:56.238945,-28
13:59:56.238945,-8193
13:59:56.238945,-1
13:59:56.238945,-38
13:59:56.238945,-10753
13:59:56.238945,-1
13:59:56.238945,-50
13:59:56.238945,-13057
13:59:56.238945,-1
13:59:56.238945,-55
13:59:56.238945,-12545
13:59:56.238945,-1
13:59:56.238945,-43
13:59:56.238945,-10753
13:59:56.238945,-1
13:59:56.238945,-50
13:59:56.238945,-14337
13:59:56.238945,-1
13:59:56.238945,-60
13:59:56.825135,-67
13:59:56.825135,-20481
13:59:56.825135,-1
13:59:56.825135,-86
13:59:56.825135,-21249
13:59:56.825135,-1
13:59:56.825135,-77
13:59:56.825135,-16385
13:59:56.825135,-1
13:59:56.825135,-50
13:59:56.825135,-11265
13:59:56.825135,-1
13:59:56.825135,-50
13:59:56.825135,-11265
13:59:56.825135,-1
13:59:56.825135,-38
13:59:56.825135,-8961
13:59:56.825135,-1
13:59:56.825135,-33
13:59:56.825135,-6913
13:59:56.825135,-1
13:59:56.825135,-24
13:59:56.825135,-5889
13:59:56.825135,-1
13:59:56.825135,-19
13:59:56.825135,-3329
13:59:56.825135,-1
13:59:56.825135,-19
13:59:56.825135,-5121
13:59:56.825135,-1
13:59:56.825135,-16
13:59:56.825135,-3329
13:59:56.825135,-1
13:59:56.825135,-24
13:59:56.825135,-9985
13:59:56.825135,-1
13:59:56.825135,-48
13:59:56.825135,-8961
13:59:56.825135,-1
13:59:56.825135,-9
13:59:56.825135,6399
13:59:56.825135,0
13:59:56.825135,40
13:59:56.825135,5376
13:59:56.825135,0
13:59:56.825135,0
13:59:56.825135,3584
13:59:56.825135,0
13:59:56.825135,28
13:59:56.825135,6144
13:59:56.825135,0
13:59:56.825135,21
13:59:56.825135,1792
13:59:56.825135,0
13:59:56.825135,-57
13:59:56.825135,3839
13:59:56.825135,0
13:59:56.825135,602
13:59:56.825135,-256
13:59:56.825135,4
13:59:56.825135,920
13:59:56.825135,-3072
13:59:56.825135,-1
13:59:56.825135,-154
13:59:56.825135,19967
13:59:56.825135,0
13:59:56.825135,-57
13:59:56.825135,28927
13:59:56.825135,-1
13:59:56.825135,-45
13:59:56.825135,-12033
13:59:56.825135,-1
13:59:56.825135,-86
13:59:56.825135,-13825
13:59:56.825135,-1
13:59:56.825135,-38
13:59:56.825135,-12545
13:59:56.825135,-1
13:59:56.825135,-36
13:59:56.825135,-4609
13:59:56.825135,-1
13:59:56.825135,-24
13:59:56.825135,-5889
13:59:56.825135,-1
13:59:56.825135,-19
13:59:56.825135,-5121
13:59:56.825135,-1
13:59:56.825135,-21
13:59:56.825135,-4609
13:59:56.825135,-1
13:59:56.825135,-21
13:59:56.825135,-7681
13:59:56.825135,-1
13:59:56.825135,-36
13:59:56.825135,-10753
13:59:56.825135,-1
13:59:56.825135,-48
13:59:56.825135,-10753
13:59:56.825135,-1
13:59:56.825135,-38
13:59:56.825135,-9473
13:59:56.825135,-1
13:59:56.825135,-38
13:59:56.825135,-9473
13:59:56.825135,-1
13:59:56.825135,-45
13:59:56.825135,-12033
13:59:56.825135,-1
13:59:56.825135,-48
13:59:57.363572,-57
13:59:57.363572,-16385
13:59:57.363572,-1
13:59:57.363572,-57
13:59:57.363572,-13057
13:59:57.363572,-1
13:59:57.363572,-57
13:59:57.363572,-13825
13:59:57.363572,-1
13:59:57.363572,-50
13:59:57.363572,-11265
13:59:57.363572,-1
13:59:57.363572,-36
13:59:57.363572,-5889
13:59:57.363572,-1
13:59:57.363572,-21
13:59:57.363572,-4609
13:59:57.363572,-1
13:59:57.363572,-19
13:59:57.363572,-5121
13:59:57.363572,-1
13:59:57.363572,-14
13:59:57.363572,-2049
13:59:57.363572,-1
13:59:57.363572,-12
13:59:57.363572,-2817
13:59:57.363572,-1
13:59:57.363572,-2
13:59:57.363572,255
13:59:57.363572,0
13:59:57.363572,-12
13:59:57.363572,-2817
13:59:57.363572,-1
13:59:57.363572,-19
13:59:57.363572,-10753
13:59:57.363572,-1
13:59:57.363572,-40
13:59:57.363572,-4609
13:59:57.363572,-1
13:59:57.363572,4
13:59:57.363572,7936
13:59:57.363572,0
13:59:57.363572,38
13:59:57.363572,3584
13:59:57.363572,0
13:59:57.363572,2
13:59:57.363572,4096
13:59:57.363572,0
13:59:57.363572,24
13:59:57.363572,3584
13:59:57.363572,0
13:59:57.363572,12
13:59:57.363572,-4096
13:59:57.363572,-1
13:59:57.363572,-77
13:59:57.363572,-28929
13:59:57.363572,0
13:59:57.363572,891
13:59:57.363572,7680
13:59:57.363572,5
13:59:57.363572,573
13:59:57.363572,17664
13:59:57.363572,-1
13:59:57.363572,-62
13:59:57.363572,14847
13:59:57.363572,0
13:59:57.363572,-130
13:59:57.363572,-29185
13:59:57.363572,-1
13:59:57.363572,-24
13:59:57.363572,-17409
13:59:57.363572,-1
13:59:57.363572,-89
13:59:57.363572,-10753
13:59:57.363572,-1
13:59:57.363572,-40
13:59:57.363572,-13057
13:59:57.363572,-1
13:59:57.363572,-38
13:59:57.363572,-6401
13:59:57.363572,-1
13:59:57.363572,-33
13:59:57.363572,-6401
13:59:57.363572,-1
13:59:57.363572,-14
13:59:57.363572,-4609
13:59:57.363572,-1
13:59:57.363572,-21
13:59:57.363572,-4609
13:59:57.363572,-1
13:59:57.363572,-19
13:59:57.363572,-6913
13:59:57.363572,-1
13:59:57.363572,-33
13:59:57.363572,-9473
13:59:57.363572,-1
13:59:57.363572,-48
13:59:57.363572,-13057
13:59:57.363572,-1
13:59:57.363572,-45
13:59:57.363572,-8193
13:59:57.363572,-1
13:59:57.363572,-33
13:59:57.363572,-9473
13:59:57.363572,-1
13:59:57.363572,-43
13:59:57.363572,-12545
13:59:57.363572,-1
13:59:57.363572,-57
13:59:57.949741,-60
13:59:57.949741,-15105
13:59:57.949741,-1
13:59:57.949741,-60
13:59:57.949741,-13825
13:59:57.949741,-1
13:59:57.949741,-50
13:59:57.949741,-9985
13:59:57.949741,-1
13:59:57.949741,-26
13:59:57.949741,-6401
13:59:57.949741,-1
13:59:57.949741,-31
13:59:57.949741,-7681
13:59:57.949741,-1
13:59:57.949741,-28
13:59:57.949741,-6401
13:59:57.949741,-1
13:59:57.949741,-19
13:59:57.949741,-3841
13:59:57.949741,-1
13:59:57.949741,-21
13:59:57.949741,-5121
13:59:57.949741,-1
13:59:57.949741,-19
13:59:57.949741,-5121
13:59:57.949741,-1
13:59:57.949741,-21
13:59:57.949741,-5121
13:59:57.949741,-1
13:59:57.949741,-19
13:59:57.949741,-4609
13:59:57.949741,-1
13:59:57.949741,-31
13:59:57.949741,-12033
13:59:57.949741,-1
13:59:57.949741,-60
13:59:57.949741,-12033
13:59:57.949741,-1
13:59:57.949741,-24
13:59:57.949741,2047
13:59:57.949741,0
13:59:57.949741,26
13:59:57.949741,3072
13:59:57.949741,0
13:59:57.949741,-16
13:59:57.949741,-3329
13:59:57.949741,-1
13:59:57.949741,2
13:59:57.949741,1024
13:59:57.949741,0
13:59:57.949741,0
13:59:57.949741,-3584
13:59:57.949741,-1
13:59:57.949741,-74
13:59:57.949741,-13825
13:59:57.949741,-1
13:59:57.949741,428
13:59:57.949741,-25600
13:59:57.949741,4
13:59:57.949741,1050
13:59:57.949741,26368
13:59:57.949741,0
13:59:57.949741,-209
13:59:57.949741,10495
13:59:57.949741,0
13:59:57.949741,-40
13:59:57.949741,20991
13:59:57.949741,-1
13:59:57.949741,-93
13:59:57.949741,-18689
13:59:57.949741,-1
13:59:57.949741,-113
13:59:57.949741,-22529
13:59:57.949741,-1
13:59:57.949741,-72
13:59:57.949741,-20481
13:59:57.949741,-1
13:59:57.949741,-72
13:59:57.949741,-13057
13:59:57.949741,-1
13:59:57.949741,-55
13:59:57.949741,-14337
13:59:57.949741,-1
13:59:57.949741,-55
13:59:57.949741,-12545
13:59:57.949741,-1
13:59:57.949741,-48
13:59:57.949741,-11265
13:59:57.949741,-1
13:59:57.949741,-43
13:59:57.949741,-11265
13:59:57.949741,-1
13:59:57.949741,-55
13:59:57.949741,-15105
13:59:57.949741,-1
13:59:57.949741,-62
13:59:57.949741,-18177
13:59:57.949741,-1
13:59:57.949741,-72
13:59:57.949741,-16385
13:59:57.949741,-1
13:59:57.949741,-62
13:59:57.949741,-16385
13:59:57.949741,-1
13:59:57.949741,-72
13:59:57.949741,-19457
13:59:57.949741,-1
13:59:57.949741,-81
13:59:58.534769,-91
13:59:58.534769,-24833
13:59:58.534769,-1
13:59:58.534769,-89
13:59:58.534769,-21249
13:59:58.534769,-1
13:59:58.534769,-86
13:59:58.534769,-21249
13:59:58.534769,-1
13:59:58.534769,-84
13:59:58.534769,-19969
13:59:58.534769,-1
13:59:58.534769,-67
13:59:58.534769,-13825
13:59:58.534769,-1
13:59:58.534769,-48
13:59:58.534769,-11265
13:59:58.534769,-1
13:59:58.534769,-45
13:59:58.534769,-9473
13:59:58.534769,-1
13:59:58.534769,-36
13:59:58.534769,-8961
13:59:58.534769,-1
13:59:58.534769,-31
13:59:58.534769,-8193
13:59:58.534769,-1
13:59:58.534769,-43
13:59:58.534769,-10753
13:59:58.534769,-1
13:59:58.534769,-40
13:59:58.534769,-9473
13:59:58.534769,-1
13:59:58.534769,-40
13:59:58.534769,-13825
13:59:58.534769,-1
13:59:58.534769,-72
13:59:58.534769,-18689
13:59:58.534769,-1
13:59:58.534769,-60
13:59:58.534769,-8961
13:59:58.534769,-1
13:59:58.534769,-2
13:59:58.534769,3327
13:59:58.534769,0
13:59:58.534769,-16
13:59:58.534769,-8193
13:59:58.534769,-1
13:59:58.534769,-14
13:59:58.534769,255
13:59:58.534769,0
13:59:58.534769,-4
13:59:58.534769,-3329
13:59:58.534769,-1
13:59:58.534769,-45
13:59:58.534769,-27905
13:59:58.534769,-1
13:59:58.534769,40
13:59:58.534769,-12288
13:59:58.534769,2
13:59:58.534769,1250
13:59:58.534769,-27136
13:59:58.534769,2
13:59:58.534769,-146
13:59:58.534769,-24321
13:59:58.534769,-1
13:59:58.534769,55
13:59:58.534769,31232
13:59:58.534769,-1
13:59:58.534769,-158
13:59:58.534769,-16897
13:59:58.534769,-1
13:59:58.534769,-96
13:59:58.534769,-27905
13:59:58.534769,-1
13:59:58.534769,-74
13:59:58.534769,-18689
13:59:58.534769,-1
13:59:58.534769,-84
13:59:58.534769,-16385
13:59:58.534769,-1
13:59:58.534769,-57
13:59:58.534769,-15105
13:59:58.534769,-1
13:59:58.534769,-52
13:59:58.534769,-12033
13:59:58.534769,-1
13:59:58.534769,-38
13:59:58.534769,-7681
13:59:58.534769,-1
13:59:58.534769,-31
13:59:58.534769,-8193
13:59:58.534769,-1
13:59:58.534769,-33
13:59:58.534769,-9473
13:59:58.534769,-1
13:59:58.534769,-48
13:59:58.534769,-12545
13:59:58.534769,-1
13:59:58.534769,-48
13:59:58.534769,-10753
13:59:58.534769,-1
13:59:58.534769,-40
13:59:58.534769,-9985
13:59:58.534769,-1
13:59:58.534769,-45
13:59:58.534769,-13825
13:59:58.534769,-1
13:59:58.534769,-62
13:59:59.073797,-65
13:59:59.073797,-18177
13:59:59.073797,-1
13:59:59.073797,-79
13:59:59.073797,-19457
13:59:59.073797,-1
13:59:59.073797,-72
13:59:59.073797,-18177
13:59:59.073797,-1
13:59:59.073797,-67
13:59:59.073797,-14337
13:59:59.073797,-1
13:59:59.073797,-60
13:59:59.073797,-15105
13:59:59.073797,-1
13:59:59.073797,-50
13:59:59.073797,-9985
13:59:59.073797,-1
13:59:59.073797,-21
13:59:59.073797,-1537
13:59:59.073797,-1
13:59:59.073797,-12
13:59:59.073797,-3841
13:59:59.073797,-1
13:59:59.073797,-12
13:59:59.073797,-2049
13:59:59.073797,-1
13:59:59.073797,-2
13:59:59.073797,255
13:59:59.073797,0
13:59:59.073797,-2
13:59:59.073797,-769
13:59:59.073797,-1
13:59:59.073797,-4
13:59:59.073797,-257
13:59:59.073797,-1
13:59:59.073797,-12
13:59:59.073797,-8961
13:59:59.073797,-1
13:59:59.073797,-40
13:59:59.073797,-3841
13:59:59.073797,-1
13:59:59.073797,12
13:59:59.073797,10240
13:59:59.073797,0
13:59:59.073797,45
13:59:59.073797,5376
13:59:59.073797,0
13:59:59.073797,7
13:59:59.073797,6656
13:59:59.073797,0
13:59:59.073797,40
13:59:59.073797,8448
13:59:59.073797,0
13:59:59.073797,26
13:59:59.073797,-4096
13:59:59.073797,-1
13:59:59.073797,-62
13:59:59.073797,-7937
13:59:59.073797,0
13:59:59.073797,1006
13:59:59.073797,16384
13:59:59.073797,5
13:59:59.073797,529
13:59:59.073797,16384
13:59:59.073797,-1
13:59:59.073797,-33
13:59:59.073797,15615
13:59:59.073797,0
13:59:59.073797,-130
13:59:59.073797,-26625
13:59:59.073797,-1
13:59:59.073797,-31
13:59:59.073797,-18689
13:59:59.073797,-1
13:59:59.073797,-79
13:59:59.073797,-10753
13:59:59.073797,-1
13:59:59.073797,-48
13:59:59.073797,-11265
13:59:59.073797,-1
13:59:59.073797,-28
13:59:59.073797,-6913
13:59:59.073797,-1
13:59:59.073797,-26
13:59:59.073797,-4609
13:59:59.073797,-1
13:59:59.073797,-14
13:59:59.073797,-3329
13:59:59.073797,-1
13:59:59.073797,-14
13:59:59.073797,-3329
13:59:59.073797,-1
13:59:59.073797,-14
13:59:59.073797,-4609
13:59:59.073797,-1
13:59:59.073797,-26
13:59:59.073797,-8193
13:59:59.073797,-1
13:59:59.073797,-36
13:59:59.073797,-8961
13:59:59.073797,-1
13:59:59.073797,-31
13:59:59.073797,-6913
13:59:59.073797,-1
13:59:59.073797,-33
13:59:59.073797,-9473
13:59:59.073797,-1
13:59:59.073797,-43
13:59:59.614154,-45
13:59:59.614154,-12545
13:59:59.614154,-1
13:59:59.614154,-55
13:59:59.614154,-13825
13:59:59.614154,-1
13:59:59.614154,-52
13:59:59.614154,-12545
13:59:59.614154,-1
13:59:59.614154,-48
13:59:59.614154,-10753
13:59:59.614154,-1
13:59:59.614154,-40
13:59:59.614154,-7681
13:59:59.614154,-1
13:59:59.614154,-14
13:59:59.614154,-3329
13:59:59.614154,-1
13:59:59.614154,-21
13:59:59.614154,-4609
13:59:59.614154,-1
13:59:59.614154,-16
13:59:59.614154,-2817
13:59:59.614154,-1
13:59:59.614154,0
13:59:59.614154,1024
13:59:59.614154,0
13:59:59.614154,2
13:59:59.614154,0
13:59:59.614154,0
13:59:59.614154,2
13:59:59.614154,1024
13:59:59.614154,0
13:59:59.614154,4
13:59:59.614154,2304
13:59:59.614154,0
13:59:59.614154,14
13:59:59.614154,4864
13:59:59.614154,0
13:59:59.614154,24
13:59:59.614154,5376
13:59:59.614154,0
13:59:59.614154,4
13:59:59.614154,-4864
13:59:59.614154,-1
13:59:59.614154,-26
13:59:59.614154,-1537
13:59:59.614154,-1
13:59:59.614154,21
13:59:59.614154,12800
13:59:59.614154,0
13:59:59.614154,60
13:59:59.614154,8448
13:59:59.614154,0
13:59:59.614154,14
13:59:59.614154,6656
13:59:59.614154,0
13:59:59.614154,38
13:59:59.614154,7936
13:59:59.614154,0
13:59:59.614154,21
13:59:59.614154,-3584
13:59:59.614154,-1
13:59:59.614154,-69
13:59:59.614154,-32001
13:59:59.614154,0
13:59:59.614154,859
13:59:59.614154,19968
13:59:59.614154,5
13:59:59.614154,691
13:59:59.614154,26112
13:59:59.614154,-1
13:59:59.614154,-96
13:59:59.614154,17919
13:59:59.614154,0
13:59:59.614154,-110
13:59:59.614154,30719
13:59:59.614154,-1
13:59:59.614154,-48
13:59:59.614154,-19457
13:59:59.614154,-1
13:59:59.614154,-93
13:59:59.614154,-13825
13:59:59.614154,-1
13:59:59.614154,-48
13:59:59.614154,-13825
13:59:59.614154,-1
13:59:59.614154,-40
13:59:59.614154,-6401
13:59:59.614154,-1
13:59:59.614154,-28
13:59:59.614154,-5889
13:59:59.614154,-1
13:59:59.614154,-16
13:59:59.614154,-3841
13:59:59.614154,-1
13:59:59.614154,-19
13:59:59.614154,-3329
13:59:59.614154,-1
13:59:59.614154,-14
13:59:59.614154,-4609
13:59:59.614154,-1
13:59:59.614154,-26
13:59:59.614154,-6913
13:59:59.614154,-1
13:59:59.614154,-36
13:59:59.614154,-10753
13:59:59.614154,-1
13:59:59.614154,-40
14:00:00.153998,-33
14:00:00.153998,-8961
14:00:00.153998,-1
14:00:00.153998,-40
14:00:00.153998,-9985
14:00:00.153998,-1
14:00:00.153998,-43
14:00:00.153998,-12545
14:00:00.153998,-1
14:00:00.153998,-45
14:00:00.153998,-7681
14:00:00.153998,-1
14:00:00.153998,-31
14:00:00.153998,-8961
14:00:00.153998,-1
14:00:00.153998,-28
14:00:00.153998,-5121
14:00:00.153998,-1
14:00:00.153998,-16
14:00:00.153998,-2817
14:00:00.153998,-1
14:00:00.153998,-16
14:00:00.153998,-4609
14:00:00.153998,-1
14:00:00.153998,-12
14:00:00.153998,-1537
14:00:00.153998,-1
14:00:00.153998,-12
14:00:00.153998,-2817
14:00:00.153998,-1
14:00:00.153998,-7
14:00:00.153998,-769
14:00:00.153998,-1
14:00:00.153998,-7
14:00:00.153998,-769
14:00:00.153998,-1
14:00:00.153998,2
14:00:00.153998,512
14:00:00.153998,0
14:00:00.153998,0
14:00:00.153998,-512
14:00:00.153998,-1
14:00:00.153998,-2
14:00:00.153998,767
14:00:00.153998,0
14:00:00.153998,2
14:00:00.153998,0
14:00:00.153998,0
14:00:00.153998,-2
14:00:00.153998,-1537
14:00:00.153998,-1
14:00:00.153998,-4
14:00:00.153998,767
14:00:00.153998,0
14:00:00.153998,-2
14:00:00.153998,-1537
14:00:00.153998,-1
14:00:00.153998,-16
14:00:00.153998,-10753
14:00:00.153998,-1
14:00:00.153998,-57
14:00:00.153998,-9473
14:00:00.153998,-1
14:00:00.153998,-12
14:00:00.153998,3839
14:00:00.153998,0
14:00:00.153998,28
14:00:00.153998,1024
14:00:00.153998,0
14:00:00.153998,-26
14:00:00.153998,-5121
14:00:00.153998,-1
14:00:00.153998,-9
14:00:00.153998,-3329
14:00:00.153998,-1
14:00:00.153998,-16
14:00:00.153998,-10753
14:00:00.153998,-1
14:00:00.153998,-110
14:00:00.153998,8703
14:00:00.153998,0
14:00:00.153998,725
14:00:00.153998,9472
14:00:00.153998,5
14:00:00.153998,766
14:00:00.153998,29184
14:00:00.153998,-1
14:00:00.153998,-163
14:00:00.153998,8703
14:00:00.153998,0
14:00:00.153998,-144
14:00:00.153998,14847
14:00:00.153998,-1
14:00:00.153998,-103
14:00:00.153998,-31745
14:00:00.153998,-1
14:00:00.153998,-146
14:00:00.153998,-26625
14:00:00.153998,-1
14:00:00.153998,-103
14:00:00.153998,-28673
14:00:00.153998,-1
14:00:00.153998,-98
14:00:00.153998,-23041
14:00:00.153998,-1
14:00:00.153998,-91
14:00:00.153998,-21249
14:00:00.153998,-1
14:00:00.153998,-81
14:00:00.738576,-79
14:00:00.738576,-19457
14:00:00.738576,-1
14:00:00.738576,-72
14:00:00.738576,-15105
14:00:00.738576,-1
14:00:00.738576,-48
14:00:00.738576,-15105
14:00:00.738576,-1
14:00:00.738576,-77
14:00:00.738576,-19969
14:00:00.738576,-1
14:00:00.738576,-74
14:00:00.738576,-19457
14:00:00.738576,-1
14:00:00.738576,-77
14:00:00.738576,-18177
14:00:00.738576,-1
14:00:00.738576,-77
14:00:00.738576,-21761
14:00:00.738576,-1
14:00:00.738576,-81
14:00:00.738576,-19969
14:00:00.738576,-1
14:00:00.738576,-89
14:00:00.738576,-24321
14:00:00.738576,-1
14:00:00.738576,-98
14:00:00.738576,-24321
14:00:00.738576,-1
14:00:00.738576,-91
14:00:00.738576,-19969
14:00:00.738576,-1
14:00:00.738576,-74
14:00:00.738576,-19969
14:00:00.738576,-1
14:00:00.738576,-79
14:00:00.738576,-18689
14:00:00.738576,-1
14:00:00.738576,-72
14:00:00.738576,-16385
14:00:00.738576,-1
14:00:00.738576,-62
14:00:00.738576,-16385
14:00:00.738576,-1
14:00:00.738576,-62
14:00:00.738576,-14337
14:00:00.738576,-1
14:00:00.738576,-52
14:00:00.738576,-12545
14:00:00.738576,-1
14:00:00.738576,-52
14:00:00.738576,-13057
14:00:00.738576,-1
14:00:00.738576,-55
14:00:00.738576,-13057
14:00:00.738576,-1
14:00:00.738576,-52
14:00:00.738576,-14337
14:00:00.738576,-1
14:00:00.738576,-52
14:00:00.738576,-12033
14:00:00.738576,-1
14:00:00.738576,-50
14:00:00.738576,-13057
14:00:00.738576,-1
14:00:00.738576,-52
14:00:00.738576,-13057
14:00:00.738576,-1
14:00:00.738576,-55
14:00:00.738576,-15617
14:00:00.738576,-1
14:00:00.738576,-84
14:00:00.738576,-23553
14:00:00.738576,-1
14:00:00.738576,-81
14:00:00.738576,-15617
14:00:00.738576,-1
14:00:00.738576,-31
14:00:00.738576,-1537
14:00:00.738576,-1
14:00:00.738576,-21
14:00:00.738576,-13057
14:00:00.738576,-1
14:00:00.738576,-48
14:00:00.738576,-6913
14:00:00.738576,-1
14:00:00.738576,-28
14:00:00.738576,-8961
14:00:00.738576,-1
14:00:00.738576,-65
14:00:00.738576,29439
14:00:00.738576,-1
14:00:00.738576,-57
14:00:00.738576,14591
14:00:00.738576,2
14:00:00.738576,1235
14:00:00.738576,15360
14:00:00.738576,3
14:00:00.738576,-81
14:00:00.738576,22783
14:00:00.738576,-1
14:00:00.738576,40
14:00:00.738576,-29440
14:00:00.738576,-1
14:00:00.738576,-183
14:00:00.738576,-22529
14:00:00.738576,-1
14:00:00.738576,-103
14:00:01.324559,-130
14:00:01.324559,-23553
14:00:01.324559,-1
14:00:01.324559,-84
14:00:01.324559,-24321
14:00:01.324559,-1
14:00:01.324559,-84
14:00:01.324559,-18177
14:00:01.324559,-1
14:00:01.324559,-67
14:00:01.324559,-13057
14:00:01.324559,-1
14:00:01.324559,-38
14:00:01.324559,-9985
14:00:01.324559,-1
14:00:01.324559,-38
14:00:01.324559,-8193
14:00:01.324559,-1
14:00:01.324559,-33
14:00:01.324559,-7681
14:00:01.324559,-1
14:00:01.324559,-26
14:00:01.324559,-8961
14:00:01.324559,-1
14:00:01.324559,-50
14:00:01.324559,-12545
14:00:01.324559,-1
14:00:01.324559,-38
14:00:01.324559,-9473
14:00:01.324559,-1
14:00:01.324559,-48
14:00:01.324559,-13057
14:00:01.324559,-1
14:00:01.324559,-55
14:00:01.324559,-14337
14:00:01.324559,-1
14:00:01.324559,-57
14:00:01.324559,-15105
14:00:01.324559,-1
14:00:01.324559,-67
14:00:01.324559,-18689
14:00:01.324559,-1
14:00:01.324559,-74
14:00:01.324559,-18177
14:00:01.324559,-1
14:00:01.324559,-72
14:00:01.324559,-18177
14:00:01.324559,-1
14:00:01.324559,-67
14:00:01.324559,-15105
14:00:01.324559,-1
14:00:01.324559,-55
14:00:01.324559,-13057
14:00:01.324559,-1
14:00:01.324559,-45
14:00:01.324559,-9985
14:00:01.324559,-1
14:00:01.324559,-40
14:00:01.324559,-9473
14:00:01.324559,-1
14:00:01.324559,-33
14:00:01.324559,-8961
14:00:01.324559,-1
14:00:01.324559,-36
14:00:01.324559,-8193
14:00:01.324559,-1
14:00:01.324559,-33
14:00:01.324559,-8961
14:00:01.324559,-1
14:00:01.324559,-36
14:00:01.324559,-8193
14:00:01.324559,-1
14:00:01.324559,-33
14:00:01.324559,-8193
14:00:01.324559,-1
14:00:01.324559,-28
14:00:01.324559,-6401
14:00:01.324559,-1
14:00:01.324559,-33
14:00:01.324559,-10753
14:00:01.324559,-1
14:00:01.324559,-57
14:00:01.324559,-17409
14:00:01.324559,-1
14:00:01.324559,-57
14:00:01.324559,-6913
14:00:01.324559,-1
14:00:01.324559,2
14:00:01.324559,4096
14:00:01.324559,0
14:00:01.324559,7
14:00:01.324559,-3072
14:00:01.324559,-1
14:00:01.324559,-4
14:00:01.324559,3327
14:00:01.324559,0
14:00:01.324559,14
14:00:01.324559,1024
14:00:01.324559,0
14:00:01.324559,-31
14:00:01.324559,-26113
14:00:01.324559,-1
14:00:01.324559,50
14:00:01.324559,-1280
14:00:01.324559,2
14:00:01.324559,1363
14:00:01.324559,8704
14:00:01.324559,3
14:00:01.324559,-110
14:00:01.863567,-132
14:00:01.863567,14847
14:00:01.863567,0
14:00:01.863567,-113
14:00:01.863567,26367
14:00:01.863567,-1
14:00:01.863567,-55
14:00:01.863567,-20481
14:00:01.863567,-1
14:00:01.863567,-110
14:00:01.863567,-17409
14:00:01.863567,-1
14:00:01.863567,-57
14:00:01.863567,-16897
14:00:01.863567,-1
14:00:01.863567,-45
14:00:01.863567,-5121
14:00:01.863567,-1
14:00:01.863567,-24
14:00:01.863567,-5889
14:00:01.863567,-1
14:00:01.863567,-14
14:00:01.863567,-3329
14:00:01.863567,-1
14:00:01.863567,-14
14:00:01.863567,-1537
14:00:01.863567,-1
14:00:01.863567,-9
14:00:01.863567,-3329
14:00:01.863567,-1
14:00:01.863567,-14
14:00:01.863567,-3841
14:00:01.863567,-1
14:00:01.863567,-19
14:00:01.863567,-5121
14:00:01.863567,-1
14:00:01.863567,-24
14:00:01.863567,-5889
14:00:01.863567,-1
14:00:01.863567,-24
14:00:01.863567,-8193
14:00:01.863567,-1
14:00:01.863567,-40
14:00:01.863567,-10753
14:00:01.863567,-1
14:00:01.863567,-45
14:00:01.863567,-13057
14:00:01.863567,-1
14:00:01.863567,-55
14:00:01.863567,-13057
14:00:01.863567,-1
14:00:01.863567,-52
14:00:01.863567,-12545
14:00:01.863567,-1
14:00:01.863567,-48
14:00:01.863567,-12033
14:00:01.863567,-1
14:00:01.863567,-48
14:00:01.863567,-9985
14:00:01.863567,-1
14:00:01.863567,-38
14:00:01.863567,-9473
14:00:01.863567,-1
14:00:01.863567,-33
14:00:01.863567,-6913
14:00:01.863567,-1
14:00:01.863567,-28
14:00:01.863567,-6913
14:00:01.863567,-1
14:00:01.863567,-24
14:00:01.863567,-5121
14:00:01.863567,-1
14:00:01.863567,-21
14:00:01.863567,-5121
14:00:01.863567,-1
14:00:01.863567,-19
14:00:01.863567,-3841
14:00:01.863567,-1
14:00:01.863567,-12
14:00:01.863567,-1537
14:00:01.863567,-1
14:00:01.863567,-4
14:00:01.863567,-257
14:00:01.863567,-1
14:00:01.863567,-2
14:00:01.863567,255
14:00:01.863567,0
14:00:01.863567,0
14:00:01.863567,0
14:00:01.863567,0
14:00:01.863567,0
14:00:01.863567,-512
14:00:01.863567,-1
14:00:01.863567,-12
14:00:01.863567,-8961
14:00:01.863567,-1
14:00:01.863567,-50
14:00:01.863567,-8193
14:00:01.863567,-1
14:00:01.863567,-9
14:00:01.863567,3839
14:00:01.863567,0
14:00:01.863567,36
14:00:01.863567,6656
14:00:01.863567,0
14:00:01.863567,-2
14:00:01.863567,-257
14:00:01.863567,-1
14:00:01.863567,14
14:00:02.448373,14
14:00:02.448373,3584
14:00:02.448373,0
14:00:02.448373,-2
14:00:02.448373,-18689
14:00:02.448373,-1
14:00:02.448373,7
14:00:02.448373,30464
14:00:02.448373,2
14:00:02.448373,1361
14:00:02.448373,-768
14:00:02.448373,3
14:00:02.448373,28
14:00:02.448373,18176
14:00:02.448373,-1
14:00:02.448373,50
14:00:02.448373,-16640
14:00:02.448373,-1
14:00:02.448373,-163
14:00:02.448373,-16897
14:00:02.448373,-1
14:00:02.448373,-57
14:00:02.448373,-24833
14:00:02.448373,-1
14:00:02.448373,-69
14:00:02.448373,-12545
14:00:02.448373,-1
14:00:02.448373,-57
14:00:02.448373,-12033
14:00:02.448373,-1
14:00:02.448373,-33
14:00:02.448373,-8193
14:00:02.448373,-1
14:00:02.448373,-33
14:00:02.448373,-6913
14:00:02.448373,-1
14:00:02.448373,-24
14:00:02.448373,-4609
14:00:02.448373,-1
14:00:02.448373,-19
14:00:02.448373,-5889
14:00:02.448373,-1
14:00:02.448373,-24
14:00:02.448373,-6401
14:00:02.448373,-1
14:00:02.448373,-36
14:00:02.448373,-10753
14:00:02.448373,-1
14:00:02.448373,-45
14:00:02.448373,-13057
14:00:02.448373,-1
14:00:02.448373,-55
14:00:02.448373,-13057
14:00:02.448373,-1
14:00:02.448373,-52
14:00:02.448373,-14337
14:00:02.448373,-1
14:00:02.448373,-62
14:00:02.448373,-16897
14:00:02.448373,-1
14:00:02.448373,-69
14:00:02.448373,-17409
14:00:02.448373,-1
14:00:02.448373,-65
14:00:02.448373,-16385
14:00:02.448373,-1
14:00:02.448373,-62
14:00:02.448373,-13825
14:00:02.448373,-1
14:00:02.448373,-50
14:00:02.448373,-12545
14:00:02.448373,-1
14:00:02.448373,-48
14:00:02.448373,-10753
14:00:02.448373,-1
14:00:02.448373,-43
14:00:02.448373,-12033
14:00:02.448373,-1
14:00:02.448373,-45
14:00:02.448373,-9985
14:00:02.448373,-1
14:00:02.448373,-38
14:00:02.448373,-8961
14:00:02.448373,-1
14:00:02.448373,-33
14:00:02.448373,-7681
14:00:02.448373,-1
14:00:02.448373,-28
14:00:02.448373,-6913
14:00:02.448373,-1
14:00:02.448373,-28
14:00:02.448373,-5889
14:00:02.448373,-1
14:00:02.448373,-19
14:00:02.448373,-4609
14:00:02.448373,-1
14:00:02.448373,-21
14:00:02.448373,-5121
14:00:02.448373,-1
14:00:02.448373,-21
14:00:02.448373,-3841
14:00:02.448373,-1
14:00:02.448373,-14
14:00:02.448373,-4609
14:00:02.448373,-1
14:00:02.448373,-16
14:00:02.448373,-3841
14:00:02.448373,-1
14:00:02.448373,-19
14:00:02.989214,-16
14:00:02.989214,-4609
14:00:02.989214,-1
14:00:02.989214,-33
14:00:02.989214,-13057
14:00:02.989214,-1
14:00:02.989214,-57
14:00:02.989214,-8193
14:00:02.989214,-1
14:00:02.989214,-4
14:00:02.989214,5119
14:00:02.989214,0
14:00:02.989214,26
14:00:02.989214,1792
14:00:02.989214,0
14:00:02.989214,-12
14:00:02.989214,2559
14:00:02.989214,0
14:00:02.989214,28
14:00:02.989214,5376
14:00:02.989214,0
14:00:02.989214,14
14:00:02.989214,-3584
14:00:02.989214,-1
14:00:02.989214,-74
14:00:02.989214,28415
14:00:02.989214,0
14:00:02.989214,835
14:00:02.989214,22528
14:00:02.989214,5
14:00:02.989214,732
14:00:02.989214,29184
14:00:02.989214,-1
14:00:02.989214,-110
14:00:02.989214,17407
14:00:02.989214,0
14:00:02.989214,-110
14:00:02.989214,30719
14:00:02.989214,-1
14:00:02.989214,-43
14:00:02.989214,-19457
14:00:02.989214,-1
14:00:02.989214,-93
14:00:02.989214,-12545
14:00:02.989214,-1
14:00:02.989214,-50
14:00:02.989214,-16385
14:00:02.989214,-1
14:00:02.989214,-50
14:00:02.989214,-9985
14:00:02.989214,-1
14:00:02.989214,-40
14:00:02.989214,-9473
14:00:02.989214,-1
14:00:02.989214,-31
14:00:02.989214,-5889
14:00:02.989214,-1
14:00:02.989214,-19
14:00:02.989214,-5889
14:00:02.989214,-1
14:00:02.989214,-28
14:00:02.989214,-7681
14:00:02.989214,-1
14:00:02.989214,-38
14:00:02.989214,-10753
14:00:02.989214,-1
14:00:02.989214,-48
14:00:02.989214,-14337
14:00:02.989214,-1
14:00:02.989214,-62
14:00:02.989214,-14337
14:00:02.989214,-1
14:00:02.989214,-60
14:00:02.989214,-16897
14:00:02.989214,-1
14:00:02.989214,-74
14:00:02.989214,-18177
14:00:02.989214,-1
14:00:02.989214,-72
14:00:02.989214,-21249
14:00:02.989214,-1
14:00:02.989214,-89
14:00:02.989214,-20481
14:00:02.989214,-1
14:00:02.989214,-81
14:00:02.989214,-21249
14:00:02.989214,-1
14:00:02.989214,-84
14:00:02.989214,-20481
14:00:02.989214,-1
14:00:02.989214,-77
14:00:02.989214,-19457
14:00:02.989214,-1
14:00:02.989214,-77
14:00:02.989214,-19457
14:00:02.989214,-1
14:00:02.989214,-77
14:00:02.989214,-18689
14:00:02.989214,-1
14:00:02.989214,-65
14:00:02.989214,-15617
14:00:02.989214,-1
14:00:02.989214,-65
14:00:02.989214,-15105
14:00:02.989214,-1
14:00:02.989214,-55
14:00:02.989214,-13825
14:00:02.989214,-1
14:00:02.989214,-57
14:00:03.528881,-55
14:00:03.528881,-13825
14:00:03.528881,-1
14:00:03.528881,-57
14:00:03.528881,-13057
14:00:03.528881,-1
14:00:03.528881,-48
14:00:03.528881,-13057
14:00:03.528881,-1
14:00:03.528881,-57
14:00:03.528881,-13057
14:00:03.528881,-1
14:00:03.528881,-36
14:00:03.528881,-8193
14:00:03.528881,-1
14:00:03.528881,-40
14:00:03.528881,-9473
14:00:03.528881,-1
14:00:03.528881,-38
14:00:03.528881,-9985
14:00:03.528881,-1
14:00:03.528881,-38
14:00:03.528881,-8961
14:00:03.528881,-1
14:00:03.528881,-40
14:00:03.528881,-12545
14:00:03.528881,-1
14:00:03.528881,-65
14:00:03.528881,-18689
14:00:03.528881,-1
14:00:03.528881,-60
14:00:03.528881,-9985
14:00:03.528881,-1
14:00:03.528881,-16
14:00:03.528881,2559
14:00:03.528881,0
14:00:03.528881,-4
14:00:03.528881,-9473
14:00:03.528881,-1
14:00:03.528881,-36
14:00:03.528881,-3841
14:00:03.528881,-1
14:00:03.528881,-12
14:00:03.528881,-2817
14:00:03.528881,-1
14:00:03.528881,-36
14:00:03.528881,-27393
14:00:03.528881,-1
14:00:03.528881,-26
14:00:03.528881,18175
14:00:03.528881,2
14:00:03.528881,1267
14:00:03.528881,29696
14:00:03.528881,3
14:00:03.528881,-72
14:00:03.528881,11007
14:00:03.528881,-1
14:00:03.528881,12
14:00:03.528881,30464
14:00:03.528881,-1
14:00:03.528881,-224
14:00:03.528881,-29185
14:00:03.528881,-1
14:00:03.528881,-108
14:00:03.528881,31999
14:00:03.528881,-1
14:00:03.528881,-86
14:00:03.528881,-18177
14:00:03.528881,-1
14:00:03.528881,-96
14:00:03.528881,-23041
14:00:03.528881,-1
14:00:03.528881,-72
14:00:03.528881,-17409
14:00:03.528881,-1
14:00:03.528881,-72
14:00:03.528881,-16385
14:00:03.528881,-1
14:00:03.528881,-60
14:00:03.528881,-15617
14:00:03.528881,-1
14:00:03.528881,-57
14:00:03.528881,-12545
14:00:03.528881,-1
14:00:03.528881,-57
14:00:03.528881,-15105
14:00:03.528881,-1
14:00:03.528881,-60
14:00:03.528881,-16385
14:00:03.528881,-1
14:00:03.528881,-72
14:00:03.528881,-18689
14:00:03.528881,-1
14:00:03.528881,-77
14:00:03.528881,-19457
14:00:03.528881,-1
14:00:03.528881,-74
14:00:03.528881,-18689
14:00:03.528881,-1
14:00:03.528881,-77
14:00:03.528881,-21249
14:00:03.528881,-1
14:00:03.528881,-91
14:00:03.528881,-23553
14:00:03.528881,-1
14:00:03.528881,-93
14:00:03.528881,-24321
14:00:03.528881,-1
14:00:03.528881,-91
14:00:04.114760,-86
14:00:04.114760,-23041
14:00:04.114760,-1
14:00:04.114760,-91
14:00:04.114760,-21249
14:00:04.114760,-1
14:00:04.114760,-77
14:00:04.114760,-15617
14:00:04.114760,-1
14:00:04.114760,-48
14:00:04.114760,-11265
14:00:04.114760,-1
14:00:04.114760,-48
14:00:04.114760,-11265
14:00:04.114760,-1
14:00:04.114760,-38
14:00:04.114760,-9473
14:00:04.114760,-1
14:00:04.114760,-45
14:00:04.114760,-12033
14:00:04.114760,-1
14:00:04.114760,-45
14:00:04.114760,-11265
14:00:04.114760,-1
14:00:04.114760,-45
14:00:04.114760,-9985
14:00:04.114760,-1
14:00:04.114760,-38
14:00:04.114760,-9473
14:00:04.114760,-1
14:00:04.114760,-33
14:00:04.114760,-8193
14:00:04.114760,-1
14:00:04.114760,-28
14:00:04.114760,-4609
14:00:04.114760,-1
14:00:04.114760,-19
14:00:04.114760,-5889
14:00:04.114760,-1
14:00:04.114760,-21
14:00:04.114760,-6401
14:00:04.114760,-1
14:00:04.114760,-50
14:00:04.114760,-16897
14:00:04.114760,-1
14:00:04.114760,-52
14:00:04.114760,-8193
14:00:04.114760,-1
14:00:04.114760,-7
14:00:04.114760,5631
14:00:04.114760,0
14:00:04.114760,14
14:00:04.114760,-4864
14:00:04.114760,-1
14:00:04.114760,-16
14:00:04.114760,1279
14:00:04.114760,0
14:00:04.114760,2
14:00:04.114760,-512
14:00:04.114760,-1
14:00:04.114760,-12
14:00:04.114760,-20481
14:00:04.114760,-1
14:00:04.114760,-72
14:00:04.114760,-19201
14:00:04.114760,1
14:00:04.114760,1202
14:00:04.114760,7936
14:00:04.114760,4
14:00:04.114760,101
14:00:04.114760,14592
14:00:04.114760,-1
14:00:04.114760,43
14:00:04.114760,-11520
14:00:04.114760,-1
14:00:04.114760,-173
14:00:04.114760,-19969
14:00:04.114760,-1
14:00:04.114760,-55
14:00:04.114760,-25601
14:00:04.114760,-1
14:00:04.114760,-77
14:00:04.114760,-12545
14:00:04.114760,-1
14:00:04.114760,-60
14:00:04.114760,-14337
14:00:04.114760,-1
14:00:04.114760,-45
14:00:04.114760,-9985
14:00:04.114760,-1
14:00:04.114760,-40
14:00:04.114760,-8193
14:00:04.114760,-1
14:00:04.114760,-31
14:00:04.114760,-7681
14:00:04.114760,-1
14:00:04.114760,-26
14:00:04.114760,-5121
14:00:04.114760,-1
14:00:04.114760,-24
14:00:04.114760,-6401
14:00:04.114760,-1
14:00:04.114760,-31
14:00:04.114760,-8193
14:00:04.114760,-1
14:00:04.114760,-36
14:00:04.114760,-9473
14:00:04.114760,-1
14:00:04.114760,-40
14:00:04.699027,-43
14:00:04.699027,-12033
14:00:04.699027,-1
14:00:04.699027,-55
14:00:04.699027,-14337
14:00:04.699027,-1
14:00:04.699027,-62
14:00:04.699027,-16897
14:00:04.699027,-1
14:00:04.699027,-72
14:00:04.699027,-18689
14:00:04.699027,-1
14:00:04.699027,-62
14:00:04.699027,-12033
14:00:04.699027,-1
14:00:04.699027,-48
14:00:04.699027,-12033
14:00:04.699027,-1
14:00:04.699027,-43
14:00:04.699027,-10753
14:00:04.699027,-1
14:00:04.699027,-38
14:00:04.699027,-7681
14:00:04.699027,-1
14:00:04.699027,-31
14:00:04.699027,-7681
14:00:04.699027,-1
14:00:04.699027,-24
14:00:04.699027,-5121
14:00:04.699027,-1
14:00:04.699027,-16
14:00:04.699027,-2817
14:00:04.699027,-1
14:00:04.699027,-16
14:00:04.699027,-4609
14:00:04.699027,-1
14:00:04.699027,-14
14:00:04.699027,-2049
14:00:04.699027,-1
14:00:04.699027,-14
14:00:04.699027,-3329
14:00:04.699027,-1
14:00:04.699027,-9
14:00:04.699027,-769
14:00:04.699027,-1
14:00:04.699027,-4
14:00:04.699027,-769
14:00:04.699027,-1
14:00:04.699027,-2
14:00:04.699027,255
14:00:04.699027,0
14:00:04.699027,2
14:00:04.699027,1024
14:00:04.699027,0
14:00:04.699027,0
14:00:04.699027,-2304
14:00:04.699027,-1
14:00:04.699027,-28
14:00:04.699027,-9985
14:00:04.699027,-1
14:00:04.699027,-24
14:00:04.699027,1279
14:00:04.699027,0
14:00:04.699027,33
14:00:04.699027,12288
14:00:04.699027,0
14:00:04.699027,31
14:00:04.699027,1792
14:00:04.699027,0
14:00:04.699027,12
14:00:04.699027,6656
14:00:04.699027,0
14:00:04.699027,26
14:00:04.699027,5376
14:00:04.699027,0
14:00:04.699027,-7
14:00:04.699027,-17409
14:00:04.699027,-1
14:00:04.699027,65
14:00:04.699027,-6144
14:00:04.699027,2
14:00:04.699027,1382
14:00:04.699027,29696
14:00:04.699027,3
14:00:04.699027,-72
14:00:04.699027,25855
14:00:04.699027,-1
14:00:04.699027,62
14:00:04.699027,-23296
14:00:04.699027,-1
14:00:04.699027,-158
14:00:04.699027,-15105
14:00:04.699027,-1
14:00:04.699027,-77
14:00:04.699027,-28673
14:00:04.699027,-1
14:00:04.699027,-79
14:00:04.699027,-16385
14:00:04.699027,-1
14:00:04.699027,-69
14:00:04.699027,-15105
14:00:04.699027,-1
14:00:04.699027,-50
14:00:04.699027,-11265
14:00:04.699027,-1
14:00:04.699027,-40
14:00:04.699027,-9473
14:00:04.699027,-1
14:00:04.699027,-38
14:00:05.239052,-31
14:00:05.239052,-6913
14:00:05.239052,-1
14:00:05.239052,-28
14:00:05.239052,-7681
14:00:05.239052,-1
14:00:05.239052,-36
14:00:05.239052,-9985
14:00:05.239052,-1
14:00:05.239052,-45
14:00:05.239052,-12033
14:00:05.239052,-1
14:00:05.239052,-50
14:00:05.239052,-13825
14:00:05.239052,-1
14:00:05.239052,-55
14:00:05.239052,-11265
14:00:05.239052,-1
14:00:05.239052,-36
14:00:05.239052,-9985
14:00:05.239052,-1
14:00:05.239052,-50
14:00:05.239052,-12545
14:00:05.239052,-1
14:00:05.239052,-50
14:00:05.239052,-13825
14:00:05.239052,-1
14:00:05.239052,-50
14:00:05.239052,-13057
14:00:05.239052,-1
14:00:05.239052,-57
14:00:05.239052,-13825
14:00:05.239052,-1
14:00:05.239052,-50
14:00:05.239052,-12033
14:00:05.239052,-1
14:00:05.239052,-43
14:00:05.239052,-9985
14:00:05.239052,-1
14:00:05.239052,-45
14:00:05.239052,-11265
14:00:05.239052,-1
14:00:05.239052,-43
14:00:05.239052,-9473
14:00:05.239052,-1
14:00:05.239052,-31
14:00:05.239052,-6401
14:00:05.239052,-1
14:00:05.239052,-28
14:00:05.239052,-6913
14:00:05.239052,-1
14:00:05.239052,-24
14:00:05.239052,-5121
14:00:05.239052,-1
14:00:05.239052,-21
14:00:05.239052,-3841
14:00:05.239052,-1
14:00:05.239052,-12
14:00:05.239052,-2817
14:00:05.239052,-1
14:00:05.239052,-12
14:00:05.239052,-1537
14:00:05.239052,-1
14:00:05.239052,-7
14:00:05.239052,-2817
14:00:05.239052,-1
14:00:05.239052,-7
14:00:05.239052,-769
14:00:05.239052,-1
14:00:05.239052,-14
14:00:05.239052,-9985
14:00:05.239052,-1
14:00:05.239052,-52
14:00:05.239052,-8193
14:00:05.239052,-1
14:00:05.239052,-4
14:00:05.239052,4351
14:00:05.239052,0
14:00:05.239052,33
14:00:05.239052,5376
14:00:05.239052,0
14:00:05.239052,-7
14:00:05.239052,-769
14:00:05.239052,-1
14:00:05.239052,14
14:00:05.239052,3584
14:00:05.239052,0
14:00:05.239052,4
14:00:05.239052,-4096
14:00:05.239052,-1
14:00:05.239052,-81
14:00:05.239052,-5889
14:00:05.239052,-1
14:00:05.239052,544
14:00:05.239052,768
14:00:05.239052,5
14:00:05.239052,1028
14:00:05.239052,11008
14:00:05.239052,0
14:00:05.239052,-209
14:00:05.239052,11263
14:00:05.239052,0
14:00:05.239052,-60
14:00:05.239052,20223
14:00:05.239052,-1
14:00:05.239052,-84
14:00:05.239052,-17409
14:00:05.239052,-1
14:00:05.239052,-113
14:00:05.779006,-79
14:00:05.779006,-13825
14:00:05.779006,-1
14:00:05.779006,-72
14:00:05.779006,-17409
14:00:05.779006,-1
14:00:05.779006,-50
14:00:05.779006,-11265
14:00:05.779006,-1
14:00:05.779006,-48
14:00:05.779006,-12033
14:00:05.779006,-1
14:00:05.779006,-43
14:00:05.779006,-6401
14:00:05.779006,-1
14:00:05.779006,-14
14:00:05.779006,-5889
14:00:05.779006,-1
14:00:05.779006,-33
14:00:05.779006,-9473
14:00:05.779006,-1
14:00:05.779006,-43
14:00:05.779006,-12545
14:00:05.779006,-1
14:00:05.779006,-60
14:00:05.779006,-16897
14:00:05.779006,-1
14:00:05.779006,-67
14:00:05.779006,-16385
14:00:05.779006,-1
14:00:05.779006,-69
14:00:05.779006,-19969
14:00:05.779006,-1
14:00:05.779006,-79
14:00:05.779006,-19457
14:00:05.779006,-1
14:00:05.779006,-81
14:00:05.779006,-22529
14:00:05.779006,-1
14:00:05.779006,-89
14:00:05.779006,-21249
14:00:05.779006,-1
14:00:05.779006,-81
14:00:05.779006,-20481
14:00:05.779006,-1
14:00:05.779006,-81
14:00:05.779006,-21249
14:00:05.779006,-1
14:00:05.779006,-77
14:00:05.779006,-18689
14:00:05.779006,-1
14:00:05.779006,-81
14:00:05.779006,-19457
14:00:05.779006,-1
14:00:05.779006,-67
14:00:05.779006,-16385
14:00:05.779006,-1
14:00:05.779006,-62
14:00:05.779006,-15105
14:00:05.779006,-1
14:00:05.779006,-57
14:00:05.779006,-13825
14:00:05.779006,-1
14:00:05.779006,-57
14:00:05.779006,-13825
14:00:05.779006,-1
14:00:05.779006,-40
14:00:05.779006,-9985
14:00:05.779006,-1
14:00:05.779006,-48
14:00:05.779006,-10753
14:00:05.779006,-1
14:00:05.779006,-36
14:00:05.779006,-9473
14:00:05.779006,-1
14:00:05.779006,-36
14:00:05.779006,-8193
14:00:05.779006,-1
14:00:05.779006,-36
14:00:05.779006,-9473
14:00:05.779006,-1
14:00:05.779006,-40
14:00:05.779006,-11265
14:00:05.779006,-1
14:00:05.779006,-57
14:00:05.779006,-18689
14:00:05.779006,-1
14:00:05.779006,-72
14:00:05.779006,-12033
14:00:05.779006,-1
14:00:05.779006,-19
14:00:05.779006,3327
14:00:05.779006,0
14:00:05.779006,0
14:00:05.779006,-9216
14:00:05.779006,-1
14:00:05.779006,-36
14:00:05.779006,-2049
14:00:05.779006,-1
14:00:05.779006,-7
14:00:05.779006,-3329
14:00:05.779006,-1
14:00:05.779006,-26
14:00:05.779006,-21761
14:00:05.779006,-1
14:00:05.779006,-96
14:00:05.779006,20991
14:00:05.779006,1
14:00:05.779006,1112
14:00:06.364640,1088
14:00:06.364640,-29952
14:00:06.364640,0
14:00:06.364640,-267
14:00:06.364640,-4609
14:00:06.364640,-1
14:00:06.364640,-67
14:00:06.364640,11007
14:00:06.364640,-1
14:00:06.364640,-118
14:00:06.364640,-16897
14:00:06.364640,-1
14:00:06.364640,-110
14:00:06.364640,-21761
14:00:06.364640,-1
14:00:06.364640,-52
14:00:06.364640,-16897
14:00:06.364640,-1
14:00:06.364640,-69
14:00:06.364640,-12033
14:00:06.364640,-1
14:00:06.364640,-48
14:00:06.364640,-13825
14:00:06.364640,-1
14:00:06.364640,-40
14:00:06.364640,-6401
14:00:06.364640,-1
14:00:06.364640,-21
14:00:06.364640,-6401
14:00:06.364640,-1
14:00:06.364640,-28
14:00:06.364640,-5889
14:00:06.364640,-1
14:00:06.364640,-24
14:00:06.364640,-7681
14:00:06.364640,-1
14:00:06.364640,-33
14:00:06.364640,-9473
14:00:06.364640,-1
14:00:06.364640,-50
14:00:06.364640,-12545
14:00:06.364640,-1
14:00:06.364640,-45
14:00:06.364640,-12545
14:00:06.364640,-1
14:00:06.364640,-60
14:00:06.364640,-16897
14:00:06.364640,-1
14:00:06.364640,-69
14:00:06.364640,-18177
14:00:06.364640,-1
14:00:06.364640,-81
14:00:06.364640,-22529
14:00:06.364640,-1
14:00:06.364640,-81
14:00:06.364640,-18689
14:00:06.364640,-1
14:00:06.364640,-81
14:00:06.364640,-21249
14:00:06.364640,-1
14:00:06.364640,-77
14:00:06.364640,-17409
14:00:06.364640,-1
14:00:06.364640,-67
14:00:06.364640,-16897
14:00:06.364640,-1
14:00:06.364640,-62
14:00:06.364640,-15105
14:00:06.364640,-1
14:00:06.364640,-57
14:00:06.364640,-13057
14:00:06.364640,-1
14:00:06.364640,-45
14:00:06.364640,-11265
14:00:06.364640,-1
14:00:06.364640,-48
14:00:06.364640,-11265
14:00:06.364640,-1
14:00:06.364640,-45
14:00:06.364640,-12033
14:00:06.364640,-1
14:00:06.364640,-43
14:00:06.364640,-9473
14:00:06.364640,-1
14:00:06.364640,-40
14:00:06.364640,-9985
14:00:06.364640,-1
14:00:06.364640,-33
14:00:06.364640,-6913
14:00:06.364640,-1
14:00:06.364640,-26
14:00:06.364640,-8193
14:00:06.364640,-1
14:00:06.364640,-52
14:00:06.364640,-18177
14:00:06.364640,-1
14:00:06.364640,-67
14:00:06.364640,-10753
14:00:06.364640,-1
14:00:06.364640,-12
14:00:06.364640,4351
14:00:06.364640,0
14:00:06.364640,7
14:00:06.364640,-5376
14:00:06.364640,-1
14:00:06.364640,-24
14:00:06.364640,255
14:00:06.364640,0
14:00:06.364640,9
14:00:06.904636,-2
14:00:06.904636,-5121
14:00:06.904636,-1
14:00:06.904636,-81
14:00:06.904636,-24321
14:00:06.904636,-1
14:00:06.904636,325
14:00:06.904636,23296
14:00:06.904636,4
14:00:06.904636,1156
14:00:06.904636,-6400
14:00:06.904636,0
14:00:06.904636,-219
14:00:06.904636,6911
14:00:06.904636,0
14:00:06.904636,9
14:00:06.904636,28160
14:00:06.904636,-1
14:00:06.904636,-81
14:00:06.904636,-9985
14:00:06.904636,-1
14:00:06.904636,-89
14:00:06.904636,-18177
14:00:06.904636,-1
14:00:06.904636,-38
14:00:06.904636,-12545
14:00:06.904636,-1
14:00:06.904636,-55
14:00:06.904636,-8961
14:00:06.904636,-1
14:00:06.904636,-28
14:00:06.904636,-6913
14:00:06.904636,-1
14:00:06.904636,-26
14:00:06.904636,-4609
14:00:06.904636,-1
14:00:06.904636,-14
14:00:06.904636,-3329
14:00:06.904636,-1
14:00:06.904636,-16
14:00:06.904636,-3329
14:00:06.904636,-1
14:00:06.904636,-12
14:00:06.904636,-3841
14:00:06.904636,-1
14:00:06.904636,-21
14:00:06.904636,-5889
14:00:06.904636,-1
14:00:06.904636,-28
14:00:06.904636,-7681
14:00:06.904636,-1
14:00:06.904636,-31
14:00:06.904636,-8961
14:00:06.904636,-1
14:00:06.904636,-45
14:00:06.904636,-13825
14:00:06.904636,-1
14:00:06.904636,-55
14:00:06.904636,-15617
14:00:06.904636,-1
14:00:06.904636,-62
14:00:06.904636,-15105
14:00:06.904636,-1
14:00:06.904636,-65
14:00:06.904636,-18177
14:00:06.904636,-1
14:00:06.904636,-67
14:00:06.904636,-13825
14:00:06.904636,-1
14:00:06.904636,-55
14:00:06.904636,-14337
14:00:06.904636,-1
14:00:06.904636,-55
14:00:06.904636,-12033
14:00:06.904636,-1
14:00:06.904636,-43
14:00:06.904636,-8961
14:00:06.904636,-1
14:00:06.904636,-28
14:00:06.904636,-6913
14:00:06.904636,-1
14:00:06.904636,-26
14:00:06.904636,-5121
14:00:06.904636,-1
14:00:06.904636,-24
14:00:06.904636,-5889
14:00:06.904636,-1
14:00:06.904636,-19
14:00:06.904636,-3329
14:00:06.904636,-1
14:00:06.904636,-19
14:00:06.904636,-5889
14:00:06.904636,-1
14:00:06.904636,-19
14:00:06.904636,-1537
14:00:06.904636,-1
14:00:06.904636,-7
14:00:06.904636,-1537
14:00:06.904636,-1
14:00:06.904636,-7
14:00:06.904636,-1537
14:00:06.904636,-1
14:00:06.904636,-16
14:00:06.904636,-8193
14:00:06.904636,-1
14:00:06.904636,-45
14:00:06.904636,-8193
14:00:06.904636,-1
14:00:06.904636,-7
14:00:07.489141,21
14:00:07.489141,12288
14:00:07.489141,0
14:00:07.489141,43
14:00:07.489141,3072
14:00:07.489141,0
14:00:07.489141,7
14:00:07.489141,6144
14:00:07.489141,0
14:00:07.489141,33
14:00:07.489141,10240
14:00:07.489141,0
14:00:07.489141,31
14:00:07.489141,-7936
14:00:07.489141,-1
14:00:07.489141,-57
14:00:07.489141,16639
14:00:07.489141,1
14:00:07.489141,1146
14:00:07.489141,13824
14:00:07.489141,5
14:00:07.489141,409
14:00:07.489141,10240
14:00:07.489141,-1
14:00:07.489141,-7
14:00:07.489141,9471
14:00:07.489141,0
14:00:07.489141,-146
14:00:07.489141,-24833
14:00:07.489141,-1
14:00:07.489141,-38
14:00:07.489141,-22529
14:00:07.489141,-1
14:00:07.489141,-84
14:00:07.489141,-11265
14:00:07.489141,-1
14:00:07.489141,-50
14:00:07.489141,-13825
14:00:07.489141,-1
14:00:07.489141,-40
14:00:07.489141,-8193
14:00:07.489141,-1
14:00:07.489141,-33
14:00:07.489141,-7681
14:00:07.489141,-1
14:00:07.489141,-28
14:00:07.489141,-6401
14:00:07.489141,-1
14:00:07.489141,-26
14:00:07.489141,-5889
14:00:07.489141,-1
14:00:07.489141,-26
14:00:07.489141,-6913
14:00:07.489141,-1
14:00:07.489141,-28
14:00:07.489141,-7681
14:00:07.489141,-1
14:00:07.489141,-40
14:00:07.489141,-12033
14:00:07.489141,-1
14:00:07.489141,-50
14:00:07.489141,-12033
14:00:07.489141,-1
14:00:07.489141,-48
14:00:07.489141,-12545
14:00:07.489141,-1
14:00:07.489141,-52
14:00:07.489141,-14337
14:00:07.489141,-1
14:00:07.489141,-62
14:00:07.489141,-16385
14:00:07.489141,-1
14:00:07.489141,-67
14:00:07.489141,-16897
14:00:07.489141,-1
14:00:07.489141,-65
14:00:07.489141,-15617
14:00:07.489141,-1
14:00:07.489141,-57
14:00:07.489141,-13825
14:00:07.489141,-1
14:00:07.489141,-55
14:00:07.489141,-13825
14:00:07.489141,-1
14:00:07.489141,-55
14:00:07.489141,-12545
14:00:07.489141,-1
14:00:07.489141,-45
14:00:07.489141,-12033
14:00:07.489141,-1
14:00:07.489141,-48
14:00:07.489141,-9985
14:00:07.489141,-1
14:00:07.489141,-33
14:00:07.489141,-8193
14:00:07.489141,-1
14:00:07.489141,-31
14:00:07.489141,-6401
14:00:07.489141,-1
14:00:07.489141,-26
14:00:07.489141,-6401
14:00:07.489141,-1
14:00:07.489141,-26
14:00:07.489141,-5889
14:00:07.489141,-1
14:00:07.489141,-21
14:00:07.489141,-5121
14:00:07.489141,-1
14:00:07.489141,-19
14:00:08.075273,-21
14:00:08.075273,-5121
14:00:08.075273,-1
14:00:08.075273,-21
14:00:08.075273,-5121
14:00:08.075273,-1
14:00:08.075273,-21
14:00:08.075273,-8193
14:00:08.075273,-1
14:00:08.075273,-55
14:00:08.075273,-15105
14:00:08.075273,-1
14:00:08.075273,-40
14:00:08.075273,-769
14:00:08.075273,-1
14:00:08.075273,36
14:00:08.075273,12288
14:00:08.075273,0
14:00:08.075273,14
14:00:08.075273,0
14:00:08.075273,0
14:00:08.075273,21
14:00:08.075273,7168
14:00:08.075273,0
14:00:08.075273,24
14:00:08.075273,5376
14:00:08.075273,0
