timestamp,ecg
14:29:04.887923,66
14:29:04.887923,24320
14:29:04.887923,0
14:29:04.887923,124
14:29:04.887923,-28416
14:29:04.887923,0
14:29:04.887923,162
14:29:04.887923,-23552
14:29:04.887923,0
14:29:04.887923,145
14:29:04.887923,26880
14:29:04.887923,0
14:29:04.887923,45
14:29:04.887923,-512
14:29:04.887923,-1
14:29:04.887923,-35
14:29:04.887923,-16641
14:29:04.887923,-1
14:29:04.887923,-83
14:29:04.887923,-20481
14:29:04.887923,-1
14:29:04.887923,-88
14:29:04.887923,-23553
14:29:04.887923,-1
14:29:04.887923,-83
14:29:04.887923,-19201
14:29:04.887923,-1
14:29:04.887923,-78
14:29:04.887923,-19201
14:29:04.887923,-1
14:29:04.887923,-64
14:29:04.887923,-13569
14:29:04.887923,-1
14:29:04.887923,-50
14:29:04.887923,-10497
14:29:04.887923,-1
14:29:04.887923,-38
14:29:04.887923,-9985
14:29:04.887923,-1
14:29:04.887923,-28
14:29:04.887923,-2049
14:29:04.887923,-1
14:29:04.887923,-2
14:29:04.887923,255
14:29:04.887923,0
14:29:04.887923,-9
14:29:04.887923,-5633
14:29:04.887923,-1
14:29:04.887923,-19
14:29:04.887923,-1537
14:29:04.887923,-1
14:29:04.887923,-9
14:29:04.887923,-2049
14:29:04.887923,-1
14:29:04.887923,-4
14:29:04.887923,-257
14:29:04.887923,-1
14:29:04.887923,7
14:29:04.887923,2816
14:29:04.887923,0
14:29:04.887923,-9
14:29:04.887923,-6401
14:29:04.887923,-1
14:29:04.887923,-16
14:29:04.887923,-2049
14:29:04.887923,-1
14:29:04.887923,-11
14:29:04.887923,2559
14:29:04.887923,0
14:29:04.887923,31
14:29:04.887923,12032
14:29:04.887923,0
14:29:04.887923,47
14:29:04.887923,4864
14:29:04.887923,0
14:29:04.887923,4
14:29:04.887923,4096
14:29:04.887923,0
14:29:04.887923,14
14:29:04.887923,1792
14:29:04.887923,0
14:29:04.887923,23
14:29:04.887923,9728
14:29:04.887923,0
14:29:04.887923,35
14:29:04.887923,-1024
14:29:04.887923,-1
14:29:04.887923,-4
14:29:04.887923,-4865
14:29:04.887923,0
14:29:04.887923,785
14:29:04.887923,-20992
14:29:04.887923,5
14:29:04.887923,1552
14:29:04.887923,-26112
14:29:04.887923,2
14:29:04.887923,-164
14:29:04.887923,-32513
14:29:04.887923,-1
14:29:04.887923,-14
14:29:04.887923,19455
14:29:04.887923,-1
14:29:04.887923,-181
14:29:04.887923,-25345
14:29:04.887923,-1
14:29:04.887923,-148
14:29:04.887923,23807
14:29:04.887923,-1
14:29:04.887923,-124
14:29:05.472908,-121
14:29:05.472908,-29697
14:29:05.472908,-1
14:29:05.472908,-85
14:29:05.472908,-17921
14:29:05.472908,-1
14:29:05.472908,-62
14:29:05.472908,-9985
14:29:05.472908,-1
14:29:05.472908,-45
14:29:05.472908,-11265
14:29:05.472908,-1
14:29:05.472908,2
14:29:05.472908,10240
14:29:05.472908,0
14:29:05.472908,47
14:29:05.472908,17664
14:29:05.472908,0
14:29:05.472908,90
14:29:05.472908,27904
14:29:05.472908,0
14:29:05.472908,126
14:29:05.472908,32256
14:29:05.472908,0
14:29:05.472908,128
14:29:05.472908,30976
14:29:05.472908,0
14:29:05.472908,71
14:29:05.472908,512
14:29:05.472908,0
14:29:05.472908,-40
14:29:05.472908,-14849
14:29:05.472908,-1
14:29:05.472908,-66
14:29:05.472908,-19201
14:29:05.472908,-1
14:29:05.472908,-85
14:29:05.472908,-20993
14:29:05.472908,-1
14:29:05.472908,-74
14:29:05.472908,-16129
14:29:05.472908,-1
14:29:05.472908,-59
14:29:05.472908,-13569
14:29:05.472908,-1
14:29:05.472908,-50
14:29:05.472908,-11265
14:29:05.472908,-1
14:29:05.472908,-42
14:29:05.472908,-9473
14:29:05.472908,-1
14:29:05.472908,-35
14:29:05.472908,-9985
14:29:05.472908,-1
14:29:05.472908,-35
14:29:05.472908,-6401
14:29:05.472908,-1
14:29:05.472908,-21
14:29:05.472908,-5121
14:29:05.472908,-1
14:29:05.472908,-23
14:29:05.472908,-3329
14:29:05.472908,-1
14:29:05.472908,-9
14:29:05.472908,-2049
14:29:05.472908,-1
14:29:05.472908,-9
14:29:05.472908,-2561
14:29:05.472908,-1
14:29:05.472908,-11
14:29:05.472908,-2049
14:29:05.472908,-1
14:29:05.472908,-4
14:29:05.472908,-769
14:29:05.472908,-1
14:29:05.472908,-2
14:29:05.472908,-257
14:29:05.472908,-1
14:29:05.472908,-9
14:29:05.472908,-2049
14:29:05.472908,-1
14:29:05.472908,-9
14:29:05.472908,-3841
14:29:05.472908,-1
14:29:05.472908,-16
14:29:05.472908,255
14:29:05.472908,0
14:29:05.472908,14
14:29:05.472908,5376
14:29:05.472908,0
14:29:05.472908,28
14:29:05.472908,7168
14:29:05.472908,0
14:29:05.472908,21
14:29:05.472908,3584
14:29:05.472908,0
14:29:05.472908,9
14:29:05.472908,3584
14:29:05.472908,0
14:29:05.472908,23
14:29:05.472908,5888
14:29:05.472908,0
14:29:05.472908,19
14:29:05.472908,1024
14:29:05.472908,0
14:29:05.472908,-4
14:29:05.472908,-29441
14:29:05.472908,0
14:29:05.472908,563
14:29:06.057915,1222
14:29:06.057915,-27904
14:29:06.057915,6
14:29:06.057915,1203
14:29:06.057915,-28928
14:29:06.057915,0
14:29:06.057915,-226
14:29:06.057915,-5633
14:29:06.057915,-1
14:29:06.057915,-85
14:29:06.057915,11007
14:29:06.057915,-1
14:29:06.057915,-148
14:29:06.057915,-30721
14:29:06.057915,-1
14:29:06.057915,-160
14:29:06.057915,32255
14:29:06.057915,-1
14:29:06.057915,-88
14:29:06.057915,-21505
14:29:06.057915,-1
14:29:06.057915,-83
14:29:06.057915,-14849
14:29:06.057915,-1
14:29:06.057915,-45
14:29:06.057915,-8193
14:29:06.057915,-1
14:29:06.057915,-26
14:29:06.057915,-5121
14:29:06.057915,-1
14:29:06.057915,4
14:29:06.057915,10240
14:29:06.057915,0
14:29:06.057915,47
14:29:06.057915,15104
14:29:06.057915,0
14:29:06.057915,93
14:29:06.057915,30976
14:29:06.057915,0
14:29:06.057915,140
14:29:06.057915,-24576
14:29:06.057915,0
14:29:06.057915,155
14:29:06.057915,31744
14:29:06.057915,0
14:29:06.057915,83
14:29:06.057915,10240
14:29:06.057915,0
14:29:06.057915,-11
14:29:06.057915,-13569
14:29:06.057915,-1
14:29:06.057915,-78
14:29:06.057915,-25857
14:29:06.057915,-1
14:29:06.057915,-117
14:29:06.057915,-27137
14:29:06.057915,-1
14:29:06.057915,-102
14:29:06.057915,-25345
14:29:06.057915,-1
14:29:06.057915,-90
14:29:06.057915,-19713
14:29:06.057915,-1
14:29:06.057915,-71
14:29:06.057915,-17921
14:29:06.057915,-1
14:29:06.057915,-74
14:29:06.057915,-17409
14:29:06.057915,-1
14:29:06.057915,-54
14:29:06.057915,-10497
14:29:06.057915,-1
14:29:06.057915,-45
14:29:06.057915,-12545
14:29:06.057915,-1
14:29:06.057915,-38
14:29:06.057915,-7681
14:29:06.057915,-1
14:29:06.057915,-28
14:29:06.057915,-6401
14:29:06.057915,-1
14:29:06.057915,-23
14:29:06.057915,-5121
14:29:06.057915,-1
14:29:06.057915,-16
14:29:06.057915,-3841
14:29:06.057915,-1
14:29:06.057915,-16
14:29:06.057915,-3841
14:29:06.057915,-1
14:29:06.057915,-16
14:29:06.057915,-3329
14:29:06.057915,-1
14:29:06.057915,-2
14:29:06.057915,-257
14:29:06.057915,-1
14:29:06.057915,-16
14:29:06.057915,-3329
14:29:06.057915,-1
14:29:06.057915,-9
14:29:06.057915,-5633
14:29:06.057915,-1
14:29:06.057915,-21
14:29:06.057915,255
14:29:06.057915,0
14:29:06.057915,16
14:29:06.057915,6656
14:29:06.057915,0
14:29:06.057915,26
14:29:06.553719,19
14:29:06.553719,2816
14:29:06.553719,0
14:29:06.553719,7
14:29:06.553719,512
14:29:06.553719,0
14:29:06.553719,9
14:29:06.553719,2816
14:29:06.553719,0
14:29:06.553719,7
14:29:06.553719,1024
14:29:06.553719,0
14:29:06.553719,-11
14:29:06.553719,-1537
14:29:06.553719,-1
14:29:06.553719,200
14:29:06.553719,-16384
14:29:06.553719,2
14:29:06.553719,1354
14:29:06.553719,15616
14:29:06.553719,6
14:29:06.553719,878
14:29:06.553719,-16384
14:29:06.553719,-1
14:29:06.553719,-167
14:29:06.553719,3839
14:29:06.553719,0
14:29:06.553719,-136
14:29:06.553719,11519
14:29:06.553719,-1
14:29:06.553719,-117
14:29:06.553719,-29697
14:29:06.553719,-1
14:29:06.553719,-150
14:29:06.553719,-28929
14:29:06.553719,-1
14:29:06.553719,-95
14:29:06.553719,-26625
14:29:06.553719,-1
14:29:06.553719,-90
14:29:06.553719,-18689
14:29:06.553719,-1
14:29:06.553719,-71
14:29:06.553719,-14337
14:29:06.553719,-1
14:29:06.553719,-35
14:29:06.553719,-6401
14:29:06.553719,-1
14:29:06.553719,-11
14:29:06.553719,5119
14:29:06.553719,0
14:29:06.553719,45
14:29:06.553719,16896
14:29:06.553719,0
14:29:06.553719,95
14:29:06.553719,29184
14:29:06.553719,0
14:29:06.553719,128
14:29:06.553719,-29696
14:29:06.553719,0
14:29:06.553719,128
14:29:06.553719,24832
14:29:06.553719,0
14:29:06.553719,59
14:29:06.553719,4096
14:29:06.553719,0
14:29:06.553719,-31
14:29:06.553719,-17921
14:29:06.553719,-1
14:29:06.553719,-97
14:29:06.553719,-27137
14:29:06.553719,-1
14:29:06.553719,-114
14:29:06.553719,-28929
14:29:06.553719,-1
14:29:06.553719,-109
14:29:06.553719,-27649
14:29:06.553719,-1
14:29:06.553719,-100
14:29:06.553719,-22273
14:29:06.553719,-1
14:29:06.553719,-81
14:29:06.553719,-17921
14:29:06.553719,-1
14:29:06.553719,-62
14:29:06.553719,-14337
14:29:06.553719,-1
14:29:06.553719,-50
14:29:06.553719,-11777
14:29:06.553719,-1
14:29:06.553719,-42
14:29:06.553719,-8193
14:29:06.553719,-1
14:29:06.553719,-28
14:29:06.553719,-8193
14:29:06.553719,-1
14:29:06.553719,-35
14:29:06.553719,-6401
14:29:06.553719,-1
14:29:06.553719,-21
14:29:06.553719,-5633
14:29:06.553719,-1
14:29:06.553719,-26
14:29:06.553719,-6401
14:29:06.553719,-1
14:29:06.553719,-28
14:29:06.553719,-7681
14:29:06.553719,-1
14:29:06.553719,-31
14:29:07.138268,-31
14:29:07.138268,-5633
14:29:07.138268,-1
14:29:07.138268,-16
14:29:07.138268,-3841
14:29:07.138268,-1
14:29:07.138268,-16
14:29:07.138268,-2561
14:29:07.138268,-1
14:29:07.138268,-4
14:29:07.138268,2047
14:29:07.138268,0
14:29:07.138268,4
14:29:07.138268,-1792
14:29:07.138268,-1
14:29:07.138268,-2
14:29:07.138268,1279
14:29:07.138268,0
14:29:07.138268,-9
14:29:07.138268,-5121
14:29:07.138268,-1
14:29:07.138268,-14
14:29:07.138268,-1537
14:29:07.138268,-1
14:29:07.138268,2
14:29:07.138268,6656
14:29:07.138268,0
14:29:07.138268,33
14:29:07.138268,5376
14:29:07.138268,0
14:29:07.138268,16
14:29:07.138268,1792
14:29:07.138268,0
14:29:07.138268,-9
14:29:07.138268,-2049
14:29:07.138268,-1
14:29:07.138268,4
14:29:07.138268,512
14:29:07.138268,0
14:29:07.138268,-9
14:29:07.138268,-3841
14:29:07.138268,-1
14:29:07.138268,-40
14:29:07.138268,5631
14:29:07.138268,0
14:29:07.138268,346
14:29:07.138268,-6144
14:29:07.138268,3
14:29:07.138268,1662
14:29:07.138268,-8192
14:29:07.138268,5
14:29:07.138268,437
14:29:07.138268,256
14:29:07.138268,-1
14:29:07.138268,-124
14:29:07.138268,-20993
14:29:07.138268,-1
14:29:07.138268,-262
14:29:07.138268,7935
14:29:07.138268,-1
14:29:07.138268,-155
14:29:07.138268,17663
14:29:07.138268,-1
14:29:07.138268,-183
14:29:07.138268,27391
14:29:07.138268,-1
14:29:07.138268,-148
14:29:07.138268,29951
14:29:07.138268,-1
14:29:07.138268,-124
14:29:07.138268,-28929
14:29:07.138268,-1
14:29:07.138268,-102
14:29:07.138268,-21505
14:29:07.138268,-1
14:29:07.138268,-76
14:29:07.138268,-16129
14:29:07.138268,-1
14:29:07.138268,-42
14:29:07.138268,-5121
14:29:07.138268,-1
14:29:07.138268,-4
14:29:07.138268,5631
14:29:07.138268,0
14:29:07.138268,50
14:29:07.138268,18176
14:29:07.138268,0
14:29:07.138268,88
14:29:07.138268,23040
14:29:07.138268,0
14:29:07.138268,85
14:29:07.138268,19968
14:29:07.138268,0
14:29:07.138268,54
14:29:07.138268,2304
14:29:07.138268,0
14:29:07.138268,-28
14:29:07.138268,-14849
14:29:07.138268,-1
14:29:07.138268,-85
14:29:07.138268,-24065
14:29:07.138268,-1
14:29:07.138268,-93
14:29:07.138268,-23553
14:29:07.138268,-1
14:29:07.138268,-85
14:29:07.138268,-17921
14:29:07.138268,-1
14:29:07.138268,-66
14:29:07.677923,-64
14:29:07.677923,-13569
14:29:07.677923,-1
14:29:07.677923,-50
14:29:07.677923,-12545
14:29:07.677923,-1
14:29:07.677923,-45
14:29:07.677923,-9985
14:29:07.677923,-1
14:29:07.677923,-31
14:29:07.677923,-5633
14:29:07.677923,-1
14:29:07.677923,-19
14:29:07.677923,-769
14:29:07.677923,-1
14:29:07.677923,7
14:29:07.677923,2304
14:29:07.677923,0
14:29:07.677923,11
14:29:07.677923,3584
14:29:07.677923,0
14:29:07.677923,19
14:29:07.677923,5376
14:29:07.677923,0
14:29:07.677923,14
14:29:07.677923,3584
14:29:07.677923,0
14:29:07.677923,16
14:29:07.677923,3584
14:29:07.677923,0
14:29:07.677923,14
14:29:07.677923,4864
14:29:07.677923,0
14:29:07.677923,23
14:29:07.677923,4864
14:29:07.677923,0
14:29:07.677923,9
14:29:07.677923,1024
14:29:07.677923,0
14:29:07.677923,2
14:29:07.677923,0
14:29:07.677923,0
14:29:07.677923,19
14:29:07.677923,10240
14:29:07.677923,0
14:29:07.677923,45
14:29:07.677923,10752
14:29:07.677923,0
14:29:07.677923,42
14:29:07.677923,8960
14:29:07.677923,0
14:29:07.677923,23
14:29:07.677923,7168
14:29:07.677923,0
14:29:07.677923,38
14:29:07.677923,7936
14:29:07.677923,0
14:29:07.677923,23
14:29:07.677923,5888
14:29:07.677923,0
14:29:07.677923,0
14:29:07.677923,13312
14:29:07.677923,0
14:29:07.677923,370
14:29:07.677923,-12800
14:29:07.677923,3
14:29:07.677923,1602
14:29:07.677923,512
14:29:07.677923,6
14:29:07.677923,539
14:29:07.677923,14336
14:29:07.677923,-1
14:29:07.677923,-90
14:29:07.677923,-5633
14:29:07.677923,-1
14:29:07.677923,-207
14:29:07.677923,16895
14:29:07.677923,-1
14:29:07.677923,-117
14:29:07.677923,27391
14:29:07.677923,-1
14:29:07.677923,-148
14:29:07.677923,-28929
14:29:07.677923,-1
14:29:07.677923,-117
14:29:07.677923,-28929
14:29:07.677923,-1
14:29:07.677923,-90
14:29:07.677923,-19201
14:29:07.677923,-1
14:29:07.677923,-66
14:29:07.677923,-13569
14:29:07.677923,-1
14:29:07.677923,-40
14:29:07.677923,-5121
14:29:07.677923,-1
14:29:07.677923,2
14:29:07.677923,5888
14:29:07.677923,0
14:29:07.677923,47
14:29:07.677923,18176
14:29:07.677923,0
14:29:07.677923,93
14:29:07.677923,29952
14:29:07.677923,0
14:29:07.677923,138
14:29:07.677923,-30208
14:29:07.677923,0
14:29:07.677923,119
14:29:08.263359,100
14:29:08.263359,16384
14:29:08.263359,0
14:29:08.263359,9
14:29:08.263359,-8960
14:29:08.263359,-1
14:29:08.263359,-59
14:29:08.263359,-19713
14:29:08.263359,-1
14:29:08.263359,-83
14:29:08.263359,-17921
14:29:08.263359,-1
14:29:08.263359,-69
14:29:08.263359,-18689
14:29:08.263359,-1
14:29:08.263359,-69
14:29:08.263359,-14849
14:29:08.263359,-1
14:29:08.263359,-59
14:29:08.263359,-13057
14:29:08.263359,-1
14:29:08.263359,-42
14:29:08.263359,-9473
14:29:08.263359,-1
14:29:08.263359,-33
14:29:08.263359,-6401
14:29:08.263359,-1
14:29:08.263359,-9
14:29:08.263359,255
14:29:08.263359,0
14:29:08.263359,-4
14:29:08.263359,-257
14:29:08.263359,-1
14:29:08.263359,2
14:29:08.263359,512
14:29:08.263359,0
14:29:08.263359,0
14:29:08.263359,512
14:29:08.263359,0
14:29:08.263359,2
14:29:08.263359,-512
14:29:08.263359,-1
14:29:08.263359,0
14:29:08.263359,-512
14:29:08.263359,-1
14:29:08.263359,-7
14:29:08.263359,-1537
14:29:08.263359,-1
14:29:08.263359,0
14:29:08.263359,1024
14:29:08.263359,0
14:29:08.263359,0
14:29:08.263359,-1792
14:29:08.263359,-1
14:29:08.263359,-11
14:29:08.263359,-3329
14:29:08.263359,-1
14:29:08.263359,-16
14:29:08.263359,-2561
14:29:08.263359,-1
14:29:08.263359,0
14:29:08.263359,4864
14:29:08.263359,0
14:29:08.263359,26
14:29:08.263359,5376
14:29:08.263359,0
14:29:08.263359,11
14:29:08.263359,2304
14:29:08.263359,0
14:29:08.263359,4
14:29:08.263359,512
14:29:08.263359,0
14:29:08.263359,11
14:29:08.263359,4096
14:29:08.263359,0
14:29:08.263359,11
14:29:08.263359,-1024
14:29:08.263359,-1
14:29:08.263359,-28
14:29:08.263359,19711
14:29:08.263359,0
14:29:08.263359,475
14:29:08.263359,-30720
14:29:08.263359,4
14:29:08.263359,1707
14:29:08.263359,7168
14:29:08.263359,5
14:29:08.263359,203
14:29:08.263359,-1024
14:29:08.263359,-2
14:29:08.263359,-62
14:29:08.263359,-27137
14:29:08.263359,-1
14:29:08.263359,-253
14:29:08.263359,19967
14:29:08.263359,-1
14:29:08.263359,-143
14:29:08.263359,17663
14:29:08.263359,-1
14:29:08.263359,-164
14:29:08.263359,30975
14:29:08.263359,-1
14:29:08.263359,-148
14:29:08.263359,30463
14:29:08.263359,-1
14:29:08.263359,-107
14:29:08.263359,-25345
14:29:08.263359,-1
14:29:08.263359,-100
14:29:08.848649,-83
14:29:08.848649,-15617
14:29:08.848649,-1
14:29:08.848649,-47
14:29:08.848649,-7681
14:29:08.848649,-1
14:29:08.848649,-7
14:29:08.848649,3839
14:29:08.848649,0
14:29:08.848649,33
14:29:08.848649,16384
14:29:08.848649,0
14:29:08.848649,90
14:29:08.848649,26112
14:29:08.848649,0
14:29:08.848649,112
14:29:08.848649,26112
14:29:08.848649,0
14:29:08.848649,69
14:29:08.848649,8960
14:29:08.848649,0
14:29:08.848649,0
14:29:08.848649,-8960
14:29:08.848649,-1
14:29:08.848649,-66
14:29:08.848649,-19713
14:29:08.848649,-1
14:29:08.848649,-85
14:29:08.848649,-21505
14:29:08.848649,-1
14:29:08.848649,-74
14:29:08.848649,-17921
14:29:08.848649,-1
14:29:08.848649,-74
14:29:08.848649,-17409
14:29:08.848649,-1
14:29:08.848649,-64
14:29:08.848649,-14337
14:29:08.848649,-1
14:29:08.848649,-47
14:29:08.848649,-9985
14:29:08.848649,-1
14:29:08.848649,-38
14:29:08.848649,-9473
14:29:08.848649,-1
14:29:08.848649,-38
14:29:08.848649,-6913
14:29:08.848649,-1
14:29:08.848649,-21
14:29:08.848649,-5121
14:29:08.848649,-1
14:29:08.848649,-21
14:29:08.848649,-4609
14:29:08.848649,-1
14:29:08.848649,-16
14:29:08.848649,-3329
14:29:08.848649,-1
14:29:08.848649,-14
14:29:08.848649,-3329
14:29:08.848649,-1
14:29:08.848649,-7
14:29:08.848649,-769
14:29:08.848649,-1
14:29:08.848649,-16
14:29:08.848649,-3841
14:29:08.848649,-1
14:29:08.848649,-7
14:29:08.848649,-2049
14:29:08.848649,-1
14:29:08.848649,-16
14:29:08.848649,-3841
14:29:08.848649,-1
14:29:08.848649,-19
14:29:08.848649,-6401
14:29:08.848649,-1
14:29:08.848649,-28
14:29:08.848649,-4609
14:29:08.848649,-1
14:29:08.848649,-4
14:29:08.848649,2559
14:29:08.848649,0
14:29:08.848649,19
14:29:08.848649,5376
14:29:08.848649,0
14:29:08.848649,16
14:29:08.848649,1792
14:29:08.848649,0
14:29:08.848649,0
14:29:08.848649,0
14:29:08.848649,0
14:29:08.848649,0
14:29:08.848649,512
14:29:08.848649,0
14:29:08.848649,4
14:29:08.848649,-512
14:29:08.848649,-1
14:29:08.848649,-28
14:29:08.848649,-769
14:29:08.848649,-1
14:29:08.848649,248
14:29:08.848649,14336
14:29:08.848649,3
14:29:08.848649,1514
14:29:08.848649,12544
14:29:08.848649,6
14:29:08.848649,656
14:29:08.848649,17920
14:29:08.848649,-1
14:29:08.848649,-155
14:29:09.432915,-42
14:29:09.432915,11519
14:29:09.432915,-1
14:29:09.432915,-219
14:29:09.432915,30463
14:29:09.432915,-1
14:29:09.432915,-171
14:29:09.432915,18943
14:29:09.432915,-1
14:29:09.432915,-143
14:29:09.432915,30975
14:29:09.432915,-1
14:29:09.432915,-136
14:29:09.432915,-28417
14:29:09.432915,-1
14:29:09.432915,-100
14:29:09.432915,-25345
14:29:09.432915,-1
14:29:09.432915,-78
14:29:09.432915,-11265
14:29:09.432915,-1
14:29:09.432915,-31
14:29:09.432915,-5121
14:29:09.432915,-1
14:29:09.432915,-2
14:29:09.432915,5119
14:29:09.432915,0
14:29:09.432915,42
14:29:09.432915,18176
14:29:09.432915,0
14:29:09.432915,85
14:29:09.432915,23808
14:29:09.432915,0
14:29:09.432915,93
14:29:09.432915,21760
14:29:09.432915,0
14:29:09.432915,71
14:29:09.432915,11520
14:29:09.432915,0
14:29:09.432915,7
14:29:09.432915,-6656
14:29:09.432915,-1
14:29:09.432915,-47
14:29:09.432915,-14849
14:29:09.432915,-1
14:29:09.432915,-64
14:29:09.432915,-17409
14:29:09.432915,-1
14:29:09.432915,-64
14:29:09.432915,-15617
14:29:09.432915,-1
14:29:09.432915,-59
14:29:09.432915,-12545
14:29:09.432915,-1
14:29:09.432915,-45
14:29:09.432915,-11265
14:29:09.432915,-1
14:29:09.432915,-38
14:29:09.432915,-7681
14:29:09.432915,-1
14:29:09.432915,-31
14:29:09.432915,-6401
14:29:09.432915,-1
14:29:09.432915,-21
14:29:09.432915,-5121
14:29:09.432915,-1
14:29:09.432915,-16
14:29:09.432915,-2561
14:29:09.432915,-1
14:29:09.432915,-11
14:29:09.432915,-1537
14:29:09.432915,-1
14:29:09.432915,0
14:29:09.432915,1792
14:29:09.432915,0
14:29:09.432915,9
14:29:09.432915,2816
14:29:09.432915,0
14:29:09.432915,9
14:29:09.432915,1024
14:29:09.432915,0
14:29:09.432915,4
14:29:09.432915,2304
14:29:09.432915,0
14:29:09.432915,9
14:29:09.432915,1792
14:29:09.432915,0
14:29:09.432915,-4
14:29:09.432915,-3329
14:29:09.432915,-1
14:29:09.432915,-14
14:29:09.432915,767
14:29:09.432915,0
14:29:09.432915,14
14:29:09.432915,7168
14:29:09.432915,0
14:29:09.432915,42
14:29:09.432915,9728
14:29:09.432915,0
14:29:09.432915,26
14:29:09.432915,5376
14:29:09.432915,0
14:29:09.432915,16
14:29:09.432915,3584
14:29:09.432915,0
14:29:09.432915,21
14:29:09.432915,7936
14:29:09.432915,0
14:29:09.432915,28
14:29:09.927919,0
14:29:09.927919,-3584
14:29:09.927919,-1
14:29:09.927919,143
14:29:09.927919,17920
14:29:09.927919,2
14:29:09.927919,1246
14:29:09.927919,-32000
14:29:09.927919,6
14:29:09.927919,1124
14:29:09.927919,21248
14:29:09.927919,0
14:29:09.927919,-212
14:29:09.927919,-5633
14:29:09.927919,-1
14:29:09.927919,-124
14:29:09.927919,6655
14:29:09.927919,-1
14:29:09.927919,-140
14:29:09.927919,-31489
14:29:09.927919,-1
14:29:09.927919,-162
14:29:09.927919,32255
14:29:09.927919,-1
14:29:09.927919,-88
14:29:09.927919,-20993
14:29:09.927919,-1
14:29:09.927919,-81
14:29:09.927919,-16129
14:29:09.927919,-1
14:29:09.927919,-52
14:29:09.927919,-8705
14:29:09.927919,-1
14:29:09.927919,-21
14:29:09.927919,-3841
14:29:09.927919,-1
14:29:09.927919,0
14:29:09.927919,5376
14:29:09.927919,0
14:29:09.927919,38
14:29:09.927919,15872
14:29:09.927919,0
14:29:09.927919,83
14:29:09.927919,24320
14:29:09.927919,0
14:29:09.927919,107
14:29:09.927919,27392
14:29:09.927919,0
14:29:09.927919,97
14:29:09.927919,22528
14:29:09.927919,0
14:29:09.927919,62
14:29:09.927919,6656
14:29:09.927919,0
14:29:09.927919,-7
14:29:09.927919,-8705
14:29:09.927919,-1
14:29:09.927919,-57
14:29:09.927919,-17409
14:29:09.927919,-1
14:29:09.927919,-78
14:29:09.927919,-20481
14:29:09.927919,-1
14:29:09.927919,-71
14:29:09.927919,-16129
14:29:09.927919,-1
14:29:09.927919,-59
14:29:09.927919,-13057
14:29:09.927919,-1
14:29:09.927919,-45
14:29:09.927919,-9473
14:29:09.927919,-1
14:29:09.927919,-31
14:29:09.927919,-6401
14:29:09.927919,-1
14:29:09.927919,-23
14:29:09.927919,-5121
14:29:09.927919,-1
14:29:09.927919,-11
14:29:09.927919,-257
14:29:09.927919,-1
14:29:09.927919,-2
14:29:09.927919,-257
14:29:09.927919,-1
14:29:09.927919,0
14:29:09.927919,512
14:29:09.927919,0
14:29:09.927919,2
14:29:09.927919,0
14:29:09.927919,0
14:29:09.927919,-2
14:29:09.927919,255
14:29:09.927919,0
14:29:09.927919,0
14:29:09.927919,-512
14:29:09.927919,-1
14:29:09.927919,0
14:29:09.927919,-512
14:29:09.927919,-1
14:29:09.927919,-11
14:29:09.927919,-3841
14:29:09.927919,-1
14:29:09.927919,-19
14:29:09.927919,-3841
14:29:09.927919,-1
14:29:09.927919,0
14:29:09.927919,4864
14:29:09.927919,0
14:29:09.927919,31
14:29:10.467923,26
14:29:10.467923,4864
14:29:10.467923,0
14:29:10.467923,9
14:29:10.467923,0
14:29:10.467923,0
14:29:10.467923,4
14:29:10.467923,5376
14:29:10.467923,0
14:29:10.467923,26
14:29:10.467923,5888
14:29:10.467923,0
14:29:10.467923,21
14:29:10.467923,1024
14:29:10.467923,0
14:29:10.467923,107
14:29:10.467923,-3328
14:29:10.467923,1
14:29:10.467923,1146
14:29:10.467923,24832
14:29:10.467923,6
14:29:10.467923,1227
14:29:10.467923,-16128
14:29:10.467923,0
14:29:10.467923,-222
14:29:10.467923,-8705
14:29:10.467923,-1
14:29:10.467923,-90
14:29:10.467923,7167
14:29:10.467923,-1
14:29:10.467923,-157
14:29:10.467923,-28929
14:29:10.467923,-1
14:29:10.467923,-160
14:29:10.467923,27391
14:29:10.467923,-1
14:29:10.467923,-119
14:29:10.467923,-30721
14:29:10.467923,-1
14:29:10.467923,-114
14:29:10.467923,-25345
14:29:10.467923,-1
14:29:10.467923,-88
14:29:10.467923,-18689
14:29:10.467923,-1
14:29:10.467923,-66
14:29:10.467923,-14849
14:29:10.467923,-1
14:29:10.467923,-42
14:29:10.467923,-5633
14:29:10.467923,-1
14:29:10.467923,-4
14:29:10.467923,4351
14:29:10.467923,0
14:29:10.467923,35
14:29:10.467923,13312
14:29:10.467923,0
14:29:10.467923,59
14:29:10.467923,13312
14:29:10.467923,0
14:29:10.467923,42
14:29:10.467923,8448
14:29:10.467923,0
14:29:10.467923,16
14:29:10.467923,-2304
14:29:10.467923,-1
14:29:10.467923,-40
14:29:10.467923,-16129
14:29:10.467923,-1
14:29:10.467923,-71
14:29:10.467923,-20993
14:29:10.467923,-1
14:29:10.467923,-95
14:29:10.467923,-23553
14:29:10.467923,-1
14:29:10.467923,-85
14:29:10.467923,-19201
14:29:10.467923,-1
14:29:10.467923,-69
14:29:10.467923,-15617
14:29:10.467923,-1
14:29:10.467923,-57
14:29:10.467923,-11777
14:29:10.467923,-1
14:29:10.467923,-35
14:29:10.467923,-8705
14:29:10.467923,-1
14:29:10.467923,-35
14:29:10.467923,-6913
14:29:10.467923,-1
14:29:10.467923,-21
14:29:10.467923,-4609
14:29:10.467923,-1
14:29:10.467923,-21
14:29:10.467923,-5121
14:29:10.467923,-1
14:29:10.467923,-16
14:29:10.467923,-3841
14:29:10.467923,-1
14:29:10.467923,-16
14:29:10.467923,-1537
14:29:10.467923,-1
14:29:10.467923,-9
14:29:10.467923,-5121
14:29:10.467923,-1
14:29:10.467923,-16
14:29:10.467923,-1537
14:29:10.467923,-1
14:29:10.467923,-9
14:29:11.052909,-19
14:29:11.052909,-4609
14:29:11.052909,-1
14:29:11.052909,-19
14:29:11.052909,-3841
14:29:11.052909,-1
14:29:11.052909,7
14:29:11.052909,10752
14:29:11.052909,0
14:29:11.052909,52
14:29:11.052909,10752
14:29:11.052909,0
14:29:11.052909,28
14:29:11.052909,7168
14:29:11.052909,0
14:29:11.052909,31
14:29:11.052909,5376
14:29:11.052909,0
14:29:11.052909,23
14:29:11.052909,6656
14:29:11.052909,0
14:29:11.052909,19
14:29:11.052909,1792
14:29:11.052909,0
14:29:11.052909,-11
14:29:11.052909,17919
14:29:11.052909,0
14:29:11.052909,417
14:29:11.052909,6144
14:29:11.052909,4
14:29:11.052909,1576
14:29:11.052909,-3840
14:29:11.052909,4
14:29:11.052909,265
14:29:11.052909,8704
14:29:11.052909,-1
14:29:11.052909,-66
14:29:11.052909,-20993
14:29:11.052909,-1
14:29:11.052909,-224
14:29:11.052909,21247
14:29:11.052909,-1
14:29:11.052909,-126
14:29:11.052909,24831
14:29:11.052909,-1
14:29:11.052909,-148
14:29:11.052909,-31489
14:29:11.052909,-1
14:29:11.052909,-126
14:29:11.052909,-28929
14:29:11.052909,-1
14:29:11.052909,-93
14:29:11.052909,-22785
14:29:11.052909,-1
14:29:11.052909,-85
14:29:11.052909,-16641
14:29:11.052909,-1
14:29:11.052909,-52
14:29:11.052909,-9985
14:29:11.052909,-1
14:29:11.052909,-14
14:29:11.052909,1279
14:29:11.052909,0
14:29:11.052909,9
14:29:11.052909,5888
14:29:11.052909,0
14:29:11.052909,38
14:29:11.052909,12032
14:29:11.052909,0
14:29:11.052909,50
14:29:11.052909,10752
14:29:11.052909,0
14:29:11.052909,28
14:29:11.052909,1792
14:29:11.052909,0
14:29:11.052909,-14
14:29:11.052909,-7681
14:29:11.052909,-1
14:29:11.052909,-54
14:29:11.052909,-19713
14:29:11.052909,-1
14:29:11.052909,-93
14:29:11.052909,-26625
14:29:11.052909,-1
14:29:11.052909,-95
14:29:11.052909,-16641
14:29:11.052909,-1
14:29:11.052909,-62
14:29:11.052909,-17409
14:29:11.052909,-1
14:29:11.052909,-64
14:29:11.052909,-14337
14:29:11.052909,-1
14:29:11.052909,-54
14:29:11.052909,-11265
14:29:11.052909,-1
14:29:11.052909,-28
14:29:11.052909,-4609
14:29:11.052909,-1
14:29:11.052909,-21
14:29:11.052909,-4609
14:29:11.052909,-1
14:29:11.052909,-19
14:29:11.052909,-3841
14:29:11.052909,-1
14:29:11.052909,-7
14:29:11.052909,-257
14:29:11.052909,-1
14:29:11.052909,0
14:29:11.638867,0
14:29:11.638867,0
14:29:11.638867,0
14:29:11.638867,2
14:29:11.638867,-512
14:29:11.638867,-1
14:29:11.638867,-4
14:29:11.638867,-1537
14:29:11.638867,-1
14:29:11.638867,-11
14:29:11.638867,-2561
14:29:11.638867,-1
14:29:11.638867,0
14:29:11.638867,1024
14:29:11.638867,0
14:29:11.638867,7
14:29:11.638867,5376
14:29:11.638867,0
14:29:11.638867,38
14:29:11.638867,10752
14:29:11.638867,0
14:29:11.638867,40
14:29:11.638867,6656
14:29:11.638867,0
14:29:11.638867,16
14:29:11.638867,4096
14:29:11.638867,0
14:29:11.638867,19
14:29:11.638867,6656
14:29:11.638867,0
14:29:11.638867,23
14:29:11.638867,3584
14:29:11.638867,0
14:29:11.638867,-11
14:29:11.638867,1279
14:29:11.638867,0
14:29:11.638867,234
14:29:11.638867,-5888
14:29:11.638867,2
14:29:11.638867,1363
14:29:11.638867,-5120
14:29:11.638867,5
14:29:11.638867,745
14:29:11.638867,-26880
14:29:11.638867,-1
14:29:11.638867,-148
14:29:11.638867,-3841
14:29:11.638867,-1
14:29:11.638867,-174
14:29:11.638867,11519
14:29:11.638867,-1
14:29:11.638867,-133
14:29:11.638867,27903
14:29:11.638867,-1
14:29:11.638867,-160
14:29:11.638867,-30721
14:29:11.638867,-1
14:29:11.638867,-112
14:29:11.638867,-30209
14:29:11.638867,-1
14:29:11.638867,-100
14:29:11.638867,-20481
14:29:11.638867,-1
14:29:11.638867,-76
14:29:11.638867,-16641
14:29:11.638867,-1
14:29:11.638867,-52
14:29:11.638867,-10497
14:29:11.638867,-1
14:29:11.638867,-26
14:29:11.638867,255
14:29:11.638867,0
14:29:11.638867,19
14:29:11.638867,7936
14:29:11.638867,0
14:29:11.638867,42
14:29:11.638867,13312
14:29:11.638867,0
14:29:11.638867,54
14:29:11.638867,13312
14:29:11.638867,0
14:29:11.638867,47
14:29:11.638867,7168
14:29:11.638867,0
14:29:11.638867,7
14:29:11.638867,-1792
14:29:11.638867,-1
14:29:11.638867,-33
14:29:11.638867,-15617
14:29:11.638867,-1
14:29:11.638867,-71
14:29:11.638867,-18689
14:29:11.638867,-1
14:29:11.638867,-78
14:29:11.638867,-20993
14:29:11.638867,-1
14:29:11.638867,-81
14:29:11.638867,-16641
14:29:11.638867,-1
14:29:11.638867,-54
14:29:11.638867,-13569
14:29:11.638867,-1
14:29:11.638867,-45
14:29:11.638867,-7681
14:29:11.638867,-1
14:29:11.638867,-28
14:29:11.638867,-5633
14:29:11.638867,-1
14:29:11.638867,-16
14:29:12.178493,-19
14:29:12.178493,-2561
14:29:12.178493,-1
14:29:12.178493,-2
14:29:12.178493,255
14:29:12.178493,0
14:29:12.178493,-4
14:29:12.178493,-257
14:29:12.178493,-1
14:29:12.178493,2
14:29:12.178493,512
14:29:12.178493,0
14:29:12.178493,0
14:29:12.178493,512
14:29:12.178493,0
14:29:12.178493,11
14:29:12.178493,5376
14:29:12.178493,0
14:29:12.178493,14
14:29:12.178493,0
14:29:12.178493,0
14:29:12.178493,-2
14:29:12.178493,3839
14:29:12.178493,0
14:29:12.178493,33
14:29:12.178493,11520
14:29:12.178493,0
14:29:12.178493,50
14:29:12.178493,12032
14:29:12.178493,0
14:29:12.178493,35
14:29:12.178493,8960
14:29:12.178493,0
14:29:12.178493,33
14:29:12.178493,7168
14:29:12.178493,0
14:29:12.178493,31
14:29:12.178493,8448
14:29:12.178493,0
14:29:12.178493,28
14:29:12.178493,-512
14:29:12.178493,-1
14:29:12.178493,31
14:29:12.178493,8960
14:29:12.178493,1
14:29:12.178493,821
14:29:12.178493,-23296
14:29:12.178493,5
14:29:12.178493,1519
14:29:12.178493,-30464
14:29:12.178493,2
14:29:12.178493,-152
14:29:12.178493,-28929
14:29:12.178493,-1
14:29:12.178493,-19
14:29:12.178493,15871
14:29:12.178493,-1
14:29:12.178493,-198
14:29:12.178493,-28929
14:29:12.178493,-1
14:29:12.178493,-145
14:29:12.178493,24319
14:29:12.178493,-1
14:29:12.178493,-128
14:29:12.178493,-29697
14:29:12.178493,-1
14:29:12.178493,-112
14:29:12.178493,-24065
14:29:12.178493,-1
14:29:12.178493,-88
14:29:12.178493,-19713
14:29:12.178493,-1
14:29:12.178493,-59
14:29:12.178493,-9985
14:29:12.178493,-1
14:29:12.178493,-26
14:29:12.178493,-2561
14:29:12.178493,-1
14:29:12.178493,4
14:29:12.178493,5376
14:29:12.178493,0
14:29:12.178493,40
14:29:12.178493,12800
14:29:12.178493,0
14:29:12.178493,57
14:29:12.178493,14592
14:29:12.178493,0
14:29:12.178493,47
14:29:12.178493,8960
14:29:12.178493,0
14:29:12.178493,21
14:29:12.178493,-512
14:29:12.178493,-1
14:29:12.178493,-31
14:29:12.178493,-13057
14:29:12.178493,-1
14:29:12.178493,-69
14:29:12.178493,-20993
14:29:12.178493,-1
14:29:12.178493,-88
14:29:12.178493,-22785
14:29:12.178493,-1
14:29:12.178493,-83
14:29:12.178493,-18689
14:29:12.178493,-1
14:29:12.178493,-71
14:29:12.178493,-17409
14:29:12.178493,-1
14:29:12.178493,-62
14:29:12.762695,-50
14:29:12.762695,-11777
14:29:12.762695,-1
14:29:12.762695,-47
14:29:12.762695,-9985
14:29:12.762695,-1
14:29:12.762695,-33
14:29:12.762695,-7681
14:29:12.762695,-1
14:29:12.762695,-28
14:29:12.762695,-3841
14:29:12.762695,-1
14:29:12.762695,0
14:29:12.762695,2304
14:29:12.762695,0
14:29:12.762695,7
14:29:12.762695,1024
14:29:12.762695,0
14:29:12.762695,4
14:29:12.762695,1024
14:29:12.762695,0
14:29:12.762695,7
14:29:12.762695,1792
14:29:12.762695,0
14:29:12.762695,0
14:29:12.762695,-512
14:29:12.762695,-1
14:29:12.762695,-7
14:29:12.762695,-1537
14:29:12.762695,-1
14:29:12.762695,0
14:29:12.762695,3584
14:29:12.762695,0
14:29:12.762695,33
14:29:12.762695,10240
14:29:12.762695,0
14:29:12.762695,31
14:29:12.762695,5888
14:29:12.762695,0
14:29:12.762695,19
14:29:12.762695,4096
14:29:12.762695,0
14:29:12.762695,11
14:29:12.762695,3584
14:29:12.762695,0
14:29:12.762695,23
14:29:12.762695,5376
14:29:12.762695,0
14:29:12.762695,-7
14:29:12.762695,2047
14:29:12.762695,0
14:29:12.762695,229
14:29:12.762695,-5888
14:29:12.762695,2
14:29:12.762695,1404
14:29:12.762695,6656
14:29:12.762695,6
14:29:12.762695,735
14:29:12.762695,32000
14:29:12.762695,-1
14:29:12.762695,-152
14:29:12.762695,-5633
14:29:12.762695,-1
14:29:12.762695,-176
14:29:12.762695,15871
14:29:12.762695,-1
14:29:12.762695,-117
14:29:12.762695,29183
14:29:12.762695,-1
14:29:12.762695,-152
14:29:12.762695,-28929
14:29:12.762695,-1
14:29:12.762695,-114
14:29:12.762695,-29697
14:29:12.762695,-1
14:29:12.762695,-97
14:29:12.762695,-21505
14:29:12.762695,-1
14:29:12.762695,-81
14:29:12.762695,-16641
14:29:12.762695,-1
14:29:12.762695,-52
14:29:12.762695,-9473
14:29:12.762695,-1
14:29:12.762695,-28
14:29:12.762695,-3841
14:29:12.762695,-1
14:29:12.762695,0
14:29:12.762695,4096
14:29:12.762695,0
14:29:12.762695,33
14:29:12.762695,10752
14:29:12.762695,0
14:29:12.762695,42
14:29:12.762695,8448
14:29:12.762695,0
14:29:12.762695,23
14:29:12.762695,1792
14:29:12.762695,0
14:29:12.762695,-11
14:29:12.762695,-7681
14:29:12.762695,-1
14:29:12.762695,-50
14:29:12.762695,-16641
14:29:12.762695,-1
14:29:12.762695,-76
14:29:12.762695,-19713
14:29:12.762695,-1
14:29:12.762695,-74
14:29:13.303740,-64
14:29:13.303740,-15617
14:29:13.303740,-1
14:29:13.303740,-62
14:29:13.303740,-13569
14:29:13.303740,-1
14:29:13.303740,-47
14:29:13.303740,-11265
14:29:13.303740,-1
14:29:13.303740,-40
14:29:13.303740,-7681
14:29:13.303740,-1
14:29:13.303740,-26
14:29:13.303740,-5633
14:29:13.303740,-1
14:29:13.303740,-21
14:29:13.303740,-2049
14:29:13.303740,-1
14:29:13.303740,7
14:29:13.303740,2304
14:29:13.303740,0
14:29:13.303740,2
14:29:13.303740,512
14:29:13.303740,0
14:29:13.303740,11
14:29:13.303740,4864
14:29:13.303740,0
14:29:13.303740,14
14:29:13.303740,2816
14:29:13.303740,0
14:29:13.303740,11
14:29:13.303740,512
14:29:13.303740,0
14:29:13.303740,-2
14:29:13.303740,255
14:29:13.303740,0
14:29:13.303740,2
14:29:13.303740,2304
14:29:13.303740,0
14:29:13.303740,28
14:29:13.303740,12032
14:29:13.303740,0
14:29:13.303740,47
14:29:13.303740,9728
14:29:13.303740,0
14:29:13.303740,38
14:29:13.303740,10752
14:29:13.303740,0
14:29:13.303740,38
14:29:13.303740,10240
14:29:13.303740,0
14:29:13.303740,42
14:29:13.303740,11520
14:29:13.303740,0
14:29:13.303740,35
14:29:13.303740,2816
14:29:13.303740,0
14:29:13.303740,76
14:29:13.303740,-32256
14:29:13.303740,1
14:29:13.303740,967
14:29:13.303740,1536
14:29:13.303740,6
14:29:13.303740,1404
14:29:13.303740,-17408
14:29:13.303740,1
14:29:13.303740,-181
14:29:13.303740,-14849
14:29:13.303740,-1
14:29:13.303740,-26
14:29:13.303740,18175
14:29:13.303740,-1
14:29:13.303740,-162
14:29:13.303740,-27649
14:29:13.303740,-1
14:29:13.303740,-140
14:29:13.303740,32255
14:29:13.303740,-1
14:29:13.303740,-95
14:29:13.303740,-25345
14:29:13.303740,-1
14:29:13.303740,-97
14:29:13.303740,-19713
14:29:13.303740,-1
14:29:13.303740,-69
14:29:13.303740,-15617
14:29:13.303740,-1
14:29:13.303740,-47
14:29:13.303740,-7681
14:29:13.303740,-1
14:29:13.303740,-16
14:29:13.303740,767
14:29:13.303740,0
14:29:13.303740,16
14:29:13.303740,7936
14:29:13.303740,0
14:29:13.303740,50
14:29:13.303740,13824
14:29:13.303740,0
14:29:13.303740,54
14:29:13.303740,15104
14:29:13.303740,0
14:29:13.303740,50
14:29:13.303740,7168
14:29:13.303740,0
14:29:13.303740,14
14:29:13.303740,512
14:29:13.303740,0
14:29:13.303740,-28
14:29:13.842689,-54
14:29:13.842689,-15617
14:29:13.842689,-1
14:29:13.842689,-66
14:29:13.842689,-17921
14:29:13.842689,-1
14:29:13.842689,-69
14:29:13.842689,-15617
14:29:13.842689,-1
14:29:13.842689,-54
14:29:13.842689,-12545
14:29:13.842689,-1
14:29:13.842689,-40
14:29:13.842689,-3841
14:29:13.842689,-1
14:29:13.842689,-7
14:29:13.842689,-2561
14:29:13.842689,-1
14:29:13.842689,-2
14:29:13.842689,1279
14:29:13.842689,0
14:29:13.842689,2
14:29:13.842689,1792
14:29:13.842689,0
14:29:13.842689,7
14:29:13.842689,1792
14:29:13.842689,0
14:29:13.842689,7
14:29:13.842689,1792
14:29:13.842689,0
14:29:13.842689,7
14:29:13.842689,2816
14:29:13.842689,0
14:29:13.842689,14
14:29:13.842689,2816
14:29:13.842689,0
14:29:13.842689,14
14:29:13.842689,3584
14:29:13.842689,0
14:29:13.842689,9
14:29:13.842689,2816
14:29:13.842689,0
14:29:13.842689,14
14:29:13.842689,1792
14:29:13.842689,0
14:29:13.842689,4
14:29:13.842689,5888
14:29:13.842689,0
14:29:13.842689,45
14:29:13.842689,13824
14:29:13.842689,0
14:29:13.842689,62
14:29:13.842689,15104
14:29:13.842689,0
14:29:13.842689,40
14:29:13.842689,8448
14:29:13.842689,0
14:29:13.842689,42
14:29:13.842689,11520
14:29:13.842689,0
14:29:13.842689,45
14:29:13.842689,10752
14:29:13.842689,0
14:29:13.842689,23
14:29:13.842689,1792
14:29:13.842689,0
14:29:13.842689,145
14:29:13.842689,13056
14:29:13.842689,2
14:29:13.842689,1184
14:29:13.842689,15104
14:29:13.842689,6
14:29:13.842689,1110
14:29:13.842689,31744
14:29:13.842689,0
14:29:13.842689,-181
14:29:13.842689,-1537
14:29:13.842689,-1
14:29:13.842689,-97
14:29:13.842689,14591
14:29:13.842689,-1
14:29:13.842689,-121
14:29:13.842689,-26625
14:29:13.842689,-1
14:29:13.842689,-138
14:29:13.842689,-28417
14:29:13.842689,-1
14:29:13.842689,-93
14:29:13.842689,-24065
14:29:13.842689,-1
14:29:13.842689,-85
14:29:13.842689,-18689
14:29:13.842689,-1
14:29:13.842689,-64
14:29:13.842689,-12545
14:29:13.842689,-1
14:29:13.842689,-38
14:29:13.842689,-6401
14:29:13.842689,-1
14:29:13.842689,-9
14:29:13.842689,767
14:29:13.842689,0
14:29:13.842689,16
14:29:13.842689,9728
14:29:13.842689,0
14:29:13.842689,50
14:29:13.842689,14592
14:29:13.842689,0
14:29:13.842689,66
14:29:14.429893,59
14:29:14.429893,10752
14:29:14.429893,0
14:29:14.429893,28
14:29:14.429893,2304
14:29:14.429893,0
14:29:14.429893,-11
14:29:14.429893,-5633
14:29:14.429893,-1
14:29:14.429893,-33
14:29:14.429893,-11777
14:29:14.429893,-1
14:29:14.429893,-59
14:29:14.429893,-15617
14:29:14.429893,-1
14:29:14.429893,-64
14:29:14.429893,-15617
14:29:14.429893,-1
14:29:14.429893,-50
14:29:14.429893,-10497
14:29:14.429893,-1
14:29:14.429893,-35
14:29:14.429893,-6913
14:29:14.429893,-1
14:29:14.429893,-23
14:29:14.429893,-4609
14:29:14.429893,-1
14:29:14.429893,-16
14:29:14.429893,-2561
14:29:14.429893,-1
14:29:14.429893,-2
14:29:14.429893,1279
14:29:14.429893,0
14:29:14.429893,4
14:29:14.429893,0
14:29:14.429893,0
14:29:14.429893,2
14:29:14.429893,1792
14:29:14.429893,0
14:29:14.429893,2
14:29:14.429893,-512
14:29:14.429893,-1
14:29:14.429893,-2
14:29:14.429893,-257
14:29:14.429893,-1
14:29:14.429893,0
14:29:14.429893,1024
14:29:14.429893,0
14:29:14.429893,2
14:29:14.429893,-1792
14:29:14.429893,-1
14:29:14.429893,-4
14:29:14.429893,-769
14:29:14.429893,-1
14:29:14.429893,-9
14:29:14.429893,-769
14:29:14.429893,-1
14:29:14.429893,11
14:29:14.429893,7168
14:29:14.429893,0
14:29:14.429893,42
14:29:14.429893,10752
14:29:14.429893,0
14:29:14.429893,28
14:29:14.429893,4864
14:29:14.429893,0
14:29:14.429893,23
14:29:14.429893,8960
14:29:14.429893,0
14:29:14.429893,40
14:29:14.429893,8960
14:29:14.429893,0
14:29:14.429893,33
14:29:14.429893,2304
14:29:14.429893,0
14:29:14.429893,38
14:29:14.429893,8448
14:29:14.429893,1
14:29:14.429893,833
14:29:14.429893,-17408
14:29:14.429893,5
14:29:14.429893,1504
14:29:14.429893,25344
14:29:14.429893,2
14:29:14.429893,-162
14:29:14.429893,-29697
14:29:14.429893,-1
14:29:14.429893,-19
14:29:14.429893,19967
14:29:14.429893,-1
14:29:14.429893,-183
14:29:14.429893,-27649
14:29:14.429893,-1
14:29:14.429893,-133
14:29:14.429893,28671
14:29:14.429893,-1
14:29:14.429893,-109
14:29:14.429893,-25345
14:29:14.429893,-1
14:29:14.429893,-102
14:29:14.429893,-22785
14:29:14.429893,-1
14:29:14.429893,-78
14:29:14.429893,-17409
14:29:14.429893,-1
14:29:14.429893,-59
14:29:14.429893,-11265
14:29:14.429893,-1
14:29:14.429893,-28
14:29:15.012823,-11
14:29:15.012823,-257
14:29:15.012823,-1
14:29:15.012823,11
14:29:15.012823,8960
14:29:15.012823,0
14:29:15.012823,50
14:29:15.012823,12800
14:29:15.012823,0
14:29:15.012823,47
14:29:15.012823,10752
14:29:15.012823,0
14:29:15.012823,33
14:29:15.012823,5888
14:29:15.012823,0
14:29:15.012823,14
14:29:15.012823,-1792
14:29:15.012823,-1
14:29:15.012823,-31
14:29:15.012823,-11265
14:29:15.012823,-1
14:29:15.012823,-52
14:29:15.012823,-14337
14:29:15.012823,-1
14:29:15.012823,-59
14:29:15.012823,-13057
14:29:15.012823,-1
14:29:15.012823,-50
14:29:15.012823,-12545
14:29:15.012823,-1
14:29:15.012823,-42
14:29:15.012823,-8193
14:29:15.012823,-1
14:29:15.012823,-31
14:29:15.012823,-8193
14:29:15.012823,-1
14:29:15.012823,-28
14:29:15.012823,-5633
14:29:15.012823,-1
14:29:15.012823,-23
14:29:15.012823,-5121
14:29:15.012823,-1
14:29:15.012823,-14
14:29:15.012823,-1537
14:29:15.012823,-1
14:29:15.012823,-4
14:29:15.012823,-2049
14:29:15.012823,-1
14:29:15.012823,-7
14:29:15.012823,-257
14:29:15.012823,-1
14:29:15.012823,-9
14:29:15.012823,-3841
14:29:15.012823,-1
14:29:15.012823,-9
14:29:15.012823,-257
14:29:15.012823,-1
14:29:15.012823,-4
14:29:15.012823,-2049
14:29:15.012823,-1
14:29:15.012823,-14
14:29:15.012823,-3841
14:29:15.012823,-1
14:29:15.012823,-21
14:29:15.012823,-4609
14:29:15.012823,-1
14:29:15.012823,-4
14:29:15.012823,5119
14:29:15.012823,0
14:29:15.012823,33
14:29:15.012823,7936
14:29:15.012823,0
14:29:15.012823,21
14:29:15.012823,4096
14:29:15.012823,0
14:29:15.012823,14
14:29:15.012823,3584
14:29:15.012823,0
14:29:15.012823,14
14:29:15.012823,4864
14:29:15.012823,0
14:29:15.012823,16
14:29:15.012823,-2304
14:29:15.012823,-1
14:29:15.012823,19
14:29:15.012823,5376
14:29:15.012823,1
14:29:15.012823,819
14:29:15.012823,-24576
14:29:15.012823,5
14:29:15.012823,1480
14:29:15.012823,23552
14:29:15.012823,2
14:29:15.012823,-164
14:29:15.012823,-29697
14:29:15.012823,-1
14:29:15.012823,-26
14:29:15.012823,15103
14:29:15.012823,-1
14:29:15.012823,-200
14:29:15.012823,-28929
14:29:15.012823,-1
14:29:15.012823,-136
14:29:15.012823,27903
14:29:15.012823,-1
14:29:15.012823,-119
14:29:15.012823,-27649
14:29:15.012823,-1
14:29:15.012823,-107
14:29:15.553377,-93
14:29:15.553377,-20481
14:29:15.553377,-1
14:29:15.553377,-69
14:29:15.553377,-13057
14:29:15.553377,-1
14:29:15.553377,-38
14:29:15.553377,-5633
14:29:15.553377,-1
14:29:15.553377,-9
14:29:15.553377,2047
14:29:15.553377,0
14:29:15.553377,23
14:29:15.553377,9728
14:29:15.553377,0
14:29:15.553377,45
14:29:15.553377,13312
14:29:15.553377,0
14:29:15.553377,66
14:29:15.553377,17664
14:29:15.553377,0
14:29:15.553377,52
14:29:15.553377,6656
14:29:15.553377,0
14:29:15.553377,4
14:29:15.553377,-2304
14:29:15.553377,-1
14:29:15.553377,-33
14:29:15.553377,-13569
14:29:15.553377,-1
14:29:15.553377,-69
14:29:15.553377,-17921
14:29:15.553377,-1
14:29:15.553377,-71
14:29:15.553377,-17921
14:29:15.553377,-1
14:29:15.553377,-69
14:29:15.553377,-14337
14:29:15.553377,-1
14:29:15.553377,-42
14:29:15.553377,-10497
14:29:15.553377,-1
14:29:15.553377,-45
14:29:15.553377,-8193
14:29:15.553377,-1
14:29:15.553377,-26
14:29:15.553377,-6401
14:29:15.553377,-1
14:29:15.553377,-19
14:29:15.553377,-3329
14:29:15.553377,-1
14:29:15.553377,-21
14:29:15.553377,-3841
14:29:15.553377,-1
14:29:15.553377,-9
14:29:15.553377,-2561
14:29:15.553377,-1
14:29:15.553377,-9
14:29:15.553377,-2561
14:29:15.553377,-1
14:29:15.553377,-19
14:29:15.553377,-3329
14:29:15.553377,-1
14:29:15.553377,-4
14:29:15.553377,-257
14:29:15.553377,-1
14:29:15.553377,-4
14:29:15.553377,-3329
14:29:15.553377,-1
14:29:15.553377,-21
14:29:15.553377,-4609
14:29:15.553377,-1
14:29:15.553377,-19
14:29:15.553377,-3329
14:29:15.553377,-1
14:29:15.553377,0
14:29:15.553377,4096
14:29:15.553377,0
14:29:15.553377,28
14:29:15.553377,6656
14:29:15.553377,0
14:29:15.553377,19
14:29:15.553377,3584
14:29:15.553377,0
14:29:15.553377,14
14:29:15.553377,4864
14:29:15.553377,0
14:29:15.553377,21
14:29:15.553377,4864
14:29:15.553377,0
14:29:15.553377,16
14:29:15.553377,-1792
14:29:15.553377,-1
14:29:15.553377,16
14:29:15.553377,3328
14:29:15.553377,1
14:29:15.553377,814
14:29:15.553377,-25856
14:29:15.553377,5
14:29:15.553377,1514
14:29:15.553377,-26624
14:29:15.553377,2
14:29:15.553377,-136
14:29:15.553377,-28929
14:29:15.553377,-1
14:29:15.553377,-16
14:29:15.553377,18943
14:29:15.553377,-1
14:29:15.553377,-191
14:29:16.092838,-112
14:29:16.092838,30975
14:29:16.092838,-1
14:29:16.092838,-150
14:29:16.092838,-29697
14:29:16.092838,-1
14:29:16.092838,-109
14:29:16.092838,-26625
14:29:16.092838,-1
14:29:16.092838,-83
14:29:16.092838,-17921
14:29:16.092838,-1
14:29:16.092838,-66
14:29:16.092838,-11265
14:29:16.092838,-1
14:29:16.092838,-19
14:29:16.092838,-1537
14:29:16.092838,-1
14:29:16.092838,7
14:29:16.092838,6656
14:29:16.092838,0
14:29:16.092838,42
14:29:16.092838,15104
14:29:16.092838,0
14:29:16.092838,71
14:29:16.092838,19456
14:29:16.092838,0
14:29:16.092838,81
14:29:16.092838,18176
14:29:16.092838,0
14:29:16.092838,47
14:29:16.092838,7936
14:29:16.092838,0
14:29:16.092838,19
14:29:16.092838,-1792
14:29:16.092838,-1
14:29:16.092838,-42
14:29:16.092838,-16641
14:29:16.092838,-1
14:29:16.092838,-78
14:29:16.092838,-20993
14:29:16.092838,-1
14:29:16.092838,-88
14:29:16.092838,-22273
14:29:16.092838,-1
14:29:16.092838,-81
14:29:16.092838,-18689
14:29:16.092838,-1
14:29:16.092838,-64
14:29:16.092838,-13569
14:29:16.092838,-1
14:29:16.092838,-47
14:29:16.092838,-10497
14:29:16.092838,-1
14:29:16.092838,-38
14:29:16.092838,-7681
14:29:16.092838,-1
14:29:16.092838,-28
14:29:16.092838,-6401
14:29:16.092838,-1
14:29:16.092838,-19
14:29:16.092838,-5121
14:29:16.092838,-1
14:29:16.092838,-21
14:29:16.092838,-3329
14:29:16.092838,-1
14:29:16.092838,-16
14:29:16.092838,-5633
14:29:16.092838,-1
14:29:16.092838,-21
14:29:16.092838,-5121
14:29:16.092838,-1
14:29:16.092838,-26
14:29:16.092838,-5633
14:29:16.092838,-1
14:29:16.092838,-11
14:29:16.092838,-2049
14:29:16.092838,-1
14:29:16.092838,-11
14:29:16.092838,-3329
14:29:16.092838,-1
14:29:16.092838,-21
14:29:16.092838,-6401
14:29:16.092838,-1
14:29:16.092838,-26
14:29:16.092838,-5121
14:29:16.092838,-1
14:29:16.092838,-11
14:29:16.092838,1279
14:29:16.092838,0
14:29:16.092838,21
14:29:16.092838,7168
14:29:16.092838,0
14:29:16.092838,23
14:29:16.092838,4096
14:29:16.092838,0
14:29:16.092838,19
14:29:16.092838,4096
14:29:16.092838,0
14:29:16.092838,19
14:29:16.092838,4864
14:29:16.092838,0
14:29:16.092838,14
14:29:16.092838,0
14:29:16.092838,0
14:29:16.092838,-14
14:29:16.092838,25855
14:29:16.092838,0
14:29:16.092838,492
14:29:16.677855,1151
14:29:16.677855,24320
14:29:16.677855,6
14:29:16.677855,1177
14:29:16.677855,-28928
14:29:16.677855,0
14:29:16.677855,-226
14:29:16.677855,-10497
14:29:16.677855,-1
14:29:16.677855,-102
14:29:16.677855,12031
14:29:16.677855,-1
14:29:16.677855,-133
14:29:16.677855,-27649
14:29:16.677855,-1
14:29:16.677855,-145
14:29:16.677855,-30721
14:29:16.677855,-1
14:29:16.677855,-95
14:29:16.677855,-25857
14:29:16.677855,-1
14:29:16.677855,-95
14:29:16.677855,-20481
14:29:16.677855,-1
14:29:16.677855,-74
14:29:16.677855,-16129
14:29:16.677855,-1
14:29:16.677855,-50
14:29:16.677855,-9473
14:29:16.677855,-1
14:29:16.677855,-26
14:29:16.677855,-2561
14:29:16.677855,-1
14:29:16.677855,4
14:29:16.677855,5376
14:29:16.677855,0
14:29:16.677855,40
14:29:16.677855,12800
14:29:16.677855,0
14:29:16.677855,45
14:29:16.677855,10752
14:29:16.677855,0
14:29:16.677855,38
14:29:16.677855,5376
14:29:16.677855,0
14:29:16.677855,2
14:29:16.677855,-4096
14:29:16.677855,-1
14:29:16.677855,-40
14:29:16.677855,-15617
14:29:16.677855,-1
14:29:16.677855,-76
14:29:16.677855,-21505
14:29:16.677855,-1
14:29:16.677855,-88
14:29:16.677855,-20993
14:29:16.677855,-1
14:29:16.677855,-76
14:29:16.677855,-18689
14:29:16.677855,-1
14:29:16.677855,-71
14:29:16.677855,-14849
14:29:16.677855,-1
14:29:16.677855,-50
14:29:16.677855,-12545
14:29:16.677855,-1
14:29:16.677855,-47
14:29:16.677855,-10497
14:29:16.677855,-1
14:29:16.677855,-42
14:29:16.677855,-9473
14:29:16.677855,-1
14:29:16.677855,-28
14:29:16.677855,-6401
14:29:16.677855,-1
14:29:16.677855,-26
14:29:16.677855,-5121
14:29:16.677855,-1
14:29:16.677855,-16
14:29:16.677855,-3841
14:29:16.677855,-1
14:29:16.677855,-14
14:29:16.677855,-2561
14:29:16.677855,-1
14:29:16.677855,-9
14:29:16.677855,-1537
14:29:16.677855,-1
14:29:16.677855,-4
14:29:16.677855,-1537
14:29:16.677855,-1
14:29:16.677855,0
14:29:16.677855,1024
14:29:16.677855,0
14:29:16.677855,0
14:29:16.677855,512
14:29:16.677855,0
14:29:16.677855,7
14:29:16.677855,1792
14:29:16.677855,0
14:29:16.677855,9
14:29:16.677855,1792
14:29:16.677855,0
14:29:16.677855,4
14:29:16.677855,1024
14:29:16.677855,0
14:29:16.677855,0
14:29:16.677855,-1792
14:29:16.677855,-1
14:29:16.677855,-11
14:29:17.218319,-9
14:29:17.218319,767
14:29:17.218319,0
14:29:17.218319,19
14:29:17.218319,8448
14:29:17.218319,0
14:29:17.218319,38
14:29:17.218319,8448
14:29:17.218319,0
14:29:17.218319,26
14:29:17.218319,4864
14:29:17.218319,0
14:29:17.218319,11
14:29:17.218319,4096
14:29:17.218319,0
14:29:17.218319,33
14:29:17.218319,10752
14:29:17.218319,0
14:29:17.218319,31
14:29:17.218319,-512
14:29:17.218319,-1
14:29:17.218319,35
14:29:17.218319,12544
14:29:17.218319,1
14:29:17.218319,869
14:29:17.218319,-8704
14:29:17.218319,5
14:29:17.218319,1504
14:29:17.218319,17920
14:29:17.218319,2
14:29:17.218319,-174
14:29:17.218319,-28417
14:29:17.218319,-1
14:29:17.218319,-28
14:29:17.218319,16383
14:29:17.218319,-1
14:29:17.218319,-188
14:29:17.218319,-29697
14:29:17.218319,-1
14:29:17.218319,-143
14:29:17.218319,26111
14:29:17.218319,-1
14:29:17.218319,-121
14:29:17.218319,-28929
14:29:17.218319,-1
14:29:17.218319,-114
14:29:17.218319,-24577
14:29:17.218319,-1
14:29:17.218319,-83
14:29:17.218319,-17921
14:29:17.218319,-1
14:29:17.218319,-57
14:29:17.218319,-9985
14:29:17.218319,-1
14:29:17.218319,-33
14:29:17.218319,-5633
14:29:17.218319,-1
14:29:17.218319,-9
14:29:17.218319,2559
14:29:17.218319,0
14:29:17.218319,31
14:29:17.218319,12032
14:29:17.218319,0
14:29:17.218319,54
14:29:17.218319,13312
14:29:17.218319,0
14:29:17.218319,45
14:29:17.218319,8448
14:29:17.218319,0
14:29:17.218319,16
14:29:17.218319,512
14:29:17.218319,0
14:29:17.218319,-16
14:29:17.218319,-9473
14:29:17.218319,-1
14:29:17.218319,-62
14:29:17.218319,-19201
14:29:17.218319,-1
14:29:17.218319,-78
14:29:17.218319,-19713
14:29:17.218319,-1
14:29:17.218319,-78
14:29:17.218319,-19201
14:29:17.218319,-1
14:29:17.218319,-74
14:29:17.218319,-15617
14:29:17.218319,-1
14:29:17.218319,-52
14:29:17.218319,-13569
14:29:17.218319,-1
14:29:17.218319,-52
14:29:17.218319,-9985
14:29:17.218319,-1
14:29:17.218319,-35
14:29:17.218319,-8193
14:29:17.218319,-1
14:29:17.218319,-26
14:29:17.218319,-3329
14:29:17.218319,-1
14:29:17.218319,-11
14:29:17.218319,-2561
14:29:17.218319,-1
14:29:17.218319,-9
14:29:17.218319,-1537
14:29:17.218319,-1
14:29:17.218319,-7
14:29:17.218319,-257
14:29:17.218319,-1
14:29:17.218319,0
14:29:17.757704,-7
14:29:17.757704,-769
14:29:17.757704,-1
14:29:17.757704,-4
14:29:17.757704,-1537
14:29:17.757704,-1
14:29:17.757704,-2
14:29:17.757704,767
14:29:17.757704,0
14:29:17.757704,2
14:29:17.757704,3584
14:29:17.757704,0
14:29:17.757704,28
14:29:17.757704,5888
14:29:17.757704,0
14:29:17.757704,19
14:29:17.757704,5888
14:29:17.757704,0
14:29:17.757704,23
14:29:17.757704,4864
14:29:17.757704,0
14:29:17.757704,14
14:29:17.757704,2304
14:29:17.757704,0
14:29:17.757704,11
14:29:17.757704,4096
14:29:17.757704,0
14:29:17.757704,4
14:29:17.757704,-1792
14:29:17.757704,-1
14:29:17.757704,4
14:29:17.757704,5888
14:29:17.757704,0
14:29:17.757704,33
14:29:17.757704,10240
14:29:17.757704,0
14:29:17.757704,38
14:29:17.757704,7168
14:29:17.757704,0
14:29:17.757704,23
14:29:17.757704,5888
14:29:17.757704,0
14:29:17.757704,26
14:29:17.757704,5888
14:29:17.757704,0
14:29:17.757704,19
14:29:17.757704,2304
14:29:17.757704,0
14:29:17.757704,-19
14:29:17.757704,17151
14:29:17.757704,0
14:29:17.757704,437
14:29:17.757704,7936
14:29:17.757704,4
14:29:17.757704,1583
14:29:17.757704,7936
14:29:17.757704,5
14:29:17.757704,300
14:29:17.757704,10752
14:29:17.757704,-1
14:29:17.757704,-45
14:29:17.757704,-15617
14:29:17.757704,-1
14:29:17.757704,-214
14:29:17.757704,26111
14:29:17.757704,-1
14:29:17.757704,-109
14:29:17.757704,27391
14:29:17.757704,-1
14:29:17.757704,-136
14:29:17.757704,-25857
14:29:17.757704,-1
14:29:17.757704,-107
14:29:17.757704,-25857
14:29:17.757704,-1
14:29:17.757704,-74
14:29:17.757704,-16129
14:29:17.757704,-1
14:29:17.757704,-59
14:29:17.757704,-11265
14:29:17.757704,-1
14:29:17.757704,-31
14:29:17.757704,-3841
14:29:17.757704,-1
14:29:17.757704,2
14:29:17.757704,5888
14:29:17.757704,0
14:29:17.757704,42
14:29:17.757704,16896
14:29:17.757704,0
14:29:17.757704,83
14:29:17.757704,23040
14:29:17.757704,0
14:29:17.757704,90
14:29:17.757704,19968
14:29:17.757704,0
14:29:17.757704,62
14:29:17.757704,11520
14:29:17.757704,0
14:29:17.757704,23
14:29:17.757704,-1792
14:29:17.757704,-1
14:29:17.757704,-38
14:29:17.757704,-16129
14:29:17.757704,-1
14:29:17.757704,-83
14:29:17.757704,-22273
14:29:17.757704,-1
14:29:17.757704,-90
14:29:18.387852,-90
14:29:18.387852,-20993
14:29:18.387852,-1
14:29:18.387852,-76
14:29:18.387852,-15617
14:29:18.387852,-1
14:29:18.387852,-45
14:29:18.387852,-5633
14:29:18.387852,-1
14:29:18.387852,-11
14:29:18.387852,-2561
14:29:18.387852,-1
14:29:18.387852,-4
14:29:18.387852,767
14:29:18.387852,0
14:29:18.387852,7
14:29:18.387852,2304
14:29:18.387852,0
14:29:18.387852,11
14:29:18.387852,4096
14:29:18.387852,0
14:29:18.387852,14
14:29:18.387852,2816
14:29:18.387852,0
14:29:18.387852,14
14:29:18.387852,2304
14:29:18.387852,0
14:29:18.387852,7
14:29:18.387852,1792
14:29:18.387852,0
14:29:18.387852,4
14:29:18.387852,1024
14:29:18.387852,0
14:29:18.387852,2
14:29:18.387852,0
14:29:18.387852,0
14:29:18.387852,0
14:29:18.387852,512
14:29:18.387852,0
14:29:18.387852,0
14:29:18.387852,0
14:29:18.387852,0
14:29:18.387852,4
14:29:18.387852,512
14:29:18.387852,0
14:29:18.387852,0
14:29:18.387852,1024
14:29:18.387852,0
14:29:18.387852,-2
14:29:18.387852,-2561
14:29:18.387852,-1
14:29:18.387852,-14
14:29:18.387852,-3329
14:29:18.387852,-1
14:29:18.387852,-2
14:29:18.387852,3071
14:29:18.387852,0
14:29:18.387852,23
14:29:18.387852,8448
14:29:18.387852,0
14:29:18.387852,28
14:29:18.387852,4096
14:29:18.387852,0
14:29:18.387852,9
14:29:18.387852,1024
14:29:18.387852,0
14:29:18.387852,4
14:29:18.387852,2304
14:29:18.387852,0
14:29:18.387852,14
14:29:18.387852,512
14:29:18.387852,0
14:29:18.387852,-28
14:29:18.387852,6911
14:29:18.387852,0
14:29:18.387852,334
14:29:18.387852,-23808
14:29:18.387852,3
14:29:18.387852,1552
14:29:18.387852,-24064
14:29:18.387852,5
14:29:18.387852,451
14:29:18.387852,8192
14:29:18.387852,-1
14:29:18.387852,-107
14:29:18.387852,-14337
14:29:18.387852,-1
14:29:18.387852,-219
14:29:18.387852,16383
14:29:18.387852,-1
14:29:18.387852,-126
14:29:18.387852,24831
14:29:18.387852,-1
14:29:18.387852,-160
14:29:18.387852,-32001
14:29:18.387852,-1
14:29:18.387852,-124
14:29:18.387852,-30721
14:29:18.387852,-1
14:29:18.387852,-100
14:29:18.387852,-22273
14:29:18.387852,-1
14:29:18.387852,-81
14:29:18.387852,-17409
14:29:18.387852,-1
14:29:18.387852,-57
14:29:18.387852,-11265
14:29:18.387852,-1
14:29:18.387852,-21
14:29:18.928185,0
14:29:18.928185,3584
14:29:18.928185,0
14:29:18.928185,31
14:29:18.928185,13312
14:29:18.928185,0
14:29:18.928185,69
14:29:18.928185,19456
14:29:18.928185,0
14:29:18.928185,71
14:29:18.928185,15104
14:29:18.928185,0
14:29:18.928185,38
14:29:18.928185,2816
14:29:18.928185,0
14:29:18.928185,-14
14:29:18.928185,-10497
14:29:18.928185,-1
14:29:18.928185,-69
14:29:18.928185,-18689
14:29:18.928185,-1
14:29:18.928185,-66
14:29:18.928185,-16129
14:29:18.928185,-1
14:29:18.928185,-66
14:29:18.928185,-16129
14:29:18.928185,-1
14:29:18.928185,-62
14:29:18.928185,-14337
14:29:18.928185,-1
14:29:18.928185,-50
14:29:18.928185,-11777
14:29:18.928185,-1
14:29:18.928185,-42
14:29:18.928185,-9473
14:29:18.928185,-1
14:29:18.928185,-35
14:29:18.928185,-7681
14:29:18.928185,-1
14:29:18.928185,-23
14:29:18.928185,-2561
14:29:18.928185,-1
14:29:18.928185,-9
14:29:18.928185,-2561
14:29:18.928185,-1
14:29:18.928185,-9
14:29:18.928185,-1537
14:29:18.928185,-1
14:29:18.928185,-7
14:29:18.928185,-2049
14:29:18.928185,-1
14:29:18.928185,-14
14:29:18.928185,-2561
14:29:18.928185,-1
14:29:18.928185,-9
14:29:18.928185,-2049
14:29:18.928185,-1
14:29:18.928185,-4
14:29:18.928185,-1537
14:29:18.928185,-1
14:29:18.928185,-11
14:29:18.928185,-2561
14:29:18.928185,-1
14:29:18.928185,-7
14:29:18.928185,-2049
14:29:18.928185,-1
14:29:18.928185,-11
14:29:18.928185,-2561
14:29:18.928185,-1
14:29:18.928185,-14
14:29:18.928185,-5121
14:29:18.928185,-1
14:29:18.928185,-26
14:29:18.928185,-6913
14:29:18.928185,-1
14:29:18.928185,-23
14:29:18.928185,-2049
14:29:18.928185,-1
14:29:18.928185,4
14:29:18.928185,2816
14:29:18.928185,0
14:29:18.928185,14
14:29:18.928185,2816
14:29:18.928185,0
14:29:18.928185,0
14:29:18.928185,-1024
14:29:18.928185,-1
14:29:18.928185,-4
14:29:18.928185,-1537
14:29:18.928185,-1
14:29:18.928185,-9
14:29:18.928185,-1537
14:29:18.928185,-1
14:29:18.928185,-31
14:29:18.928185,-6401
14:29:18.928185,-1
14:29:18.928185,181
14:29:18.928185,-20736
14:29:18.928185,2
14:29:18.928185,1354
14:29:18.928185,8448
14:29:18.928185,6
14:29:18.928185,792
14:29:18.928185,-30976
14:29:18.928185,-1
14:29:18.928185,-191
14:29:18.928185,-9473
14:29:18.928185,-1
14:29:18.928185,-188
14:29:19.467454,-234
14:29:19.467454,28671
14:29:19.467454,-1
14:29:19.467454,-157
14:29:19.467454,21247
14:29:19.467454,-1
14:29:19.467454,-138
14:29:19.467454,-32513
14:29:19.467454,-1
14:29:19.467454,-131
14:29:19.467454,-28929
14:29:19.467454,-1
14:29:19.467454,-100
14:29:19.467454,-22785
14:29:19.467454,-1
14:29:19.467454,-66
14:29:19.467454,-8705
14:29:19.467454,-1
14:29:19.467454,-21
14:29:19.467454,-3841
14:29:19.467454,-1
14:29:19.467454,4
14:29:19.467454,8448
14:29:19.467454,0
14:29:19.467454,52
14:29:19.467454,16384
14:29:19.467454,0
14:29:19.467454,83
14:29:19.467454,23808
14:29:19.467454,0
14:29:19.467454,90
14:29:19.467454,19968
14:29:19.467454,0
14:29:19.467454,57
14:29:19.467454,6656
14:29:19.467454,0
14:29:19.467454,0
14:29:19.467454,-5888
14:29:19.467454,-1
14:29:19.467454,-54
14:29:19.467454,-19713
14:29:19.467454,-1
14:29:19.467454,-83
14:29:19.467454,-20993
14:29:19.467454,-1
14:29:19.467454,-85
14:29:19.467454,-19713
14:29:19.467454,-1
14:29:19.467454,-74
14:29:19.467454,-18689
14:29:19.467454,-1
14:29:19.467454,-62
14:29:19.467454,-11777
14:29:19.467454,-1
14:29:19.467454,-47
14:29:19.467454,-13057
14:29:19.467454,-1
14:29:19.467454,-47
14:29:19.467454,-10497
14:29:19.467454,-1
14:29:19.467454,-35
14:29:19.467454,-6913
14:29:19.467454,-1
14:29:19.467454,-26
14:29:19.467454,-4609
14:29:19.467454,-1
14:29:19.467454,-16
14:29:19.467454,-4609
14:29:19.467454,-1
14:29:19.467454,-21
14:29:19.467454,-5121
14:29:19.467454,-1
14:29:19.467454,-16
14:29:19.467454,-2561
14:29:19.467454,-1
14:29:19.467454,-11
14:29:19.467454,-4609
14:29:19.467454,-1
14:29:19.467454,-19
14:29:19.467454,-2561
14:29:19.467454,-1
14:29:19.467454,-16
14:29:19.467454,-3841
14:29:19.467454,-1
14:29:19.467454,-7
14:29:19.467454,-2561
14:29:19.467454,-1
14:29:19.467454,-26
14:29:19.467454,-5633
14:29:19.467454,-1
14:29:19.467454,-19
14:29:19.467454,-5633
14:29:19.467454,-1
14:29:19.467454,-26
14:29:19.467454,-2561
14:29:19.467454,-1
14:29:19.467454,9
14:29:19.467454,4864
14:29:19.467454,0
14:29:19.467454,19
14:29:19.467454,3584
14:29:19.467454,0
14:29:19.467454,9
14:29:19.467454,0
14:29:19.467454,0
14:29:19.467454,-4
14:29:19.467454,-257
14:29:19.467454,-1
14:29:19.467454,2
14:29:20.008915,9
14:29:20.008915,-4096
14:29:20.008915,-1
14:29:20.008915,-26
14:29:20.008915,-22529
14:29:20.008915,0
14:29:20.008915,656
14:29:20.008915,7168
14:29:20.008915,5
14:29:20.008915,1593
14:29:20.008915,-29184
14:29:20.008915,3
14:29:20.008915,-40
14:29:20.008915,22015
14:29:20.008915,-1
14:29:20.008915,-2
14:29:20.008915,28671
14:29:20.008915,-1
14:29:20.008915,-207
14:29:20.008915,-28929
14:29:20.008915,-1
14:29:20.008915,-119
14:29:20.008915,27903
14:29:20.008915,-1
14:29:20.008915,-114
14:29:20.008915,-23553
14:29:20.008915,-1
14:29:20.008915,-97
14:29:20.008915,-22273
14:29:20.008915,-1
14:29:20.008915,-64
14:29:20.008915,-13057
14:29:20.008915,-1
14:29:20.008915,-47
14:29:20.008915,-7681
14:29:20.008915,-1
14:29:20.008915,-7
14:29:20.008915,3071
14:29:20.008915,0
14:29:20.008915,26
14:29:20.008915,10752
14:29:20.008915,0
14:29:20.008915,66
14:29:20.008915,22528
14:29:20.008915,0
14:29:20.008915,102
14:29:20.008915,27904
14:29:20.008915,0
14:29:20.008915,105
14:29:20.008915,22528
14:29:20.008915,0
14:29:20.008915,69
14:29:20.008915,12032
14:29:20.008915,0
14:29:20.008915,11
14:29:20.008915,-6656
14:29:20.008915,-1
14:29:20.008915,-59
14:29:20.008915,-20993
14:29:20.008915,-1
14:29:20.008915,-100
14:29:20.008915,-26625
14:29:20.008915,-1
14:29:20.008915,-105
14:29:20.008915,-25345
14:29:20.008915,-1
14:29:20.008915,-93
14:29:20.008915,-20481
14:29:20.008915,-1
14:29:20.008915,-74
14:29:20.008915,-17409
14:29:20.008915,-1
14:29:20.008915,-57
14:29:20.008915,-10497
14:29:20.008915,-1
14:29:20.008915,-35
14:29:20.008915,-7681
14:29:20.008915,-1
14:29:20.008915,-21
14:29:20.008915,-4609
14:29:20.008915,-1
14:29:20.008915,-16
14:29:20.008915,-2561
14:29:20.008915,-1
14:29:20.008915,-11
14:29:20.008915,-3329
14:29:20.008915,-1
14:29:20.008915,-16
14:29:20.008915,-3329
14:29:20.008915,-1
14:29:20.008915,-9
14:29:20.008915,-2561
14:29:20.008915,-1
14:29:20.008915,-14
14:29:20.008915,-3329
14:29:20.008915,-1
14:29:20.008915,-16
14:29:20.008915,-3329
14:29:20.008915,-1
14:29:20.008915,-9
14:29:20.008915,-769
14:29:20.008915,-1
14:29:20.008915,-7
14:29:20.008915,-3841
14:29:20.008915,-1
14:29:20.008915,-23
14:29:20.008915,-6401
14:29:20.008915,-1
14:29:20.008915,-23
14:29:20.593532,-19
14:29:20.593532,-1537
14:29:20.593532,-1
14:29:20.593532,4
14:29:20.593532,4864
14:29:20.593532,0
14:29:20.593532,28
14:29:20.593532,8448
14:29:20.593532,0
14:29:20.593532,38
14:29:20.593532,8960
14:29:20.593532,0
14:29:20.593532,28
14:29:20.593532,7168
14:29:20.593532,0
14:29:20.593532,35
14:29:20.593532,7936
14:29:20.593532,0
14:29:20.593532,14
14:29:20.593532,-2304
14:29:20.593532,-1
14:29:20.593532,93
14:29:20.593532,-10752
14:29:20.593532,1
14:29:20.593532,1124
14:29:20.593532,-32000
14:29:20.593532,6
14:29:20.593532,1304
14:29:20.593532,-5120
14:29:20.593532,0
14:29:20.593532,-231
14:29:20.593532,-11265
14:29:20.593532,-1
14:29:20.593532,-83
14:29:20.593532,8447
14:29:20.593532,-1
14:29:20.593532,-157
14:29:20.593532,-31489
14:29:20.593532,-1
14:29:20.593532,-162
14:29:20.593532,29951
14:29:20.593532,-1
14:29:20.593532,-117
14:29:20.593532,-30209
14:29:20.593532,-1
14:29:20.593532,-107
14:29:20.593532,-22785
14:29:20.593532,-1
14:29:20.593532,-85
14:29:20.593532,-18689
14:29:20.593532,-1
14:29:20.593532,-52
14:29:20.593532,-9985
14:29:20.593532,-1
14:29:20.593532,-26
14:29:20.593532,-769
14:29:20.593532,-1
14:29:20.593532,11
14:29:20.593532,7936
14:29:20.593532,0
14:29:20.593532,57
14:29:20.593532,19456
14:29:20.593532,0
14:29:20.593532,85
14:29:20.593532,23040
14:29:20.593532,0
14:29:20.593532,81
14:29:20.593532,15104
14:29:20.593532,0
14:29:20.593532,38
14:29:20.593532,4096
14:29:20.593532,0
14:29:20.593532,-14
14:29:20.593532,-11777
14:29:20.593532,-1
14:29:20.593532,-71
14:29:20.593532,-20993
14:29:20.593532,-1
14:29:20.593532,-85
14:29:20.593532,-22273
14:29:20.593532,-1
14:29:20.593532,-88
14:29:20.593532,-19713
14:29:20.593532,-1
14:29:20.593532,-71
14:29:20.593532,-17409
14:29:20.593532,-1
14:29:20.593532,-62
14:29:20.593532,-13057
14:29:20.593532,-1
14:29:20.593532,-50
14:29:20.593532,-12545
14:29:20.593532,-1
14:29:20.593532,-45
14:29:20.593532,-8705
14:29:20.593532,-1
14:29:20.593532,-33
14:29:20.593532,-7681
14:29:20.593532,-1
14:29:20.593532,-28
14:29:20.593532,-5121
14:29:20.593532,-1
14:29:20.593532,-16
14:29:20.593532,-3329
14:29:20.593532,-1
14:29:20.593532,-9
14:29:20.593532,-1537
14:29:20.593532,-1
14:29:20.593532,-11
14:29:21.132776,-11
14:29:21.132776,-3329
14:29:21.132776,-1
14:29:21.132776,-9
14:29:21.132776,-257
14:29:21.132776,-1
14:29:21.132776,-7
14:29:21.132776,-2561
14:29:21.132776,-1
14:29:21.132776,-4
14:29:21.132776,-769
14:29:21.132776,-1
14:29:21.132776,-7
14:29:21.132776,-769
14:29:21.132776,-1
14:29:21.132776,-2
14:29:21.132776,-257
14:29:21.132776,-1
14:29:21.132776,11
14:29:21.132776,5888
14:29:21.132776,0
14:29:21.132776,33
14:29:21.132776,9728
14:29:21.132776,0
14:29:21.132776,31
14:29:21.132776,5888
14:29:21.132776,0
14:29:21.132776,19
14:29:21.132776,3584
14:29:21.132776,0
14:29:21.132776,16
14:29:21.132776,4864
14:29:21.132776,0
14:29:21.132776,16
14:29:21.132776,512
14:29:21.132776,0
14:29:21.132776,-23
14:29:21.132776,17151
14:29:21.132776,0
14:29:21.132776,437
14:29:21.132776,17664
14:29:21.132776,4
14:29:21.132776,1643
14:29:21.132776,3072
14:29:21.132776,5
14:29:21.132776,234
14:29:21.132776,3840
14:29:21.132776,-1
14:29:21.132776,-62
14:29:21.132776,-22785
14:29:21.132776,-1
14:29:21.132776,-231
14:29:21.132776,22527
14:29:21.132776,-1
14:29:21.132776,-128
14:29:21.132776,23039
14:29:21.132776,-1
14:29:21.132776,-150
14:29:21.132776,-30721
14:29:21.132776,-1
14:29:21.132776,-124
14:29:21.132776,-29697
14:29:21.132776,-1
14:29:21.132776,-95
14:29:21.132776,-22273
14:29:21.132776,-1
14:29:21.132776,-81
14:29:21.132776,-16641
14:29:21.132776,-1
14:29:21.132776,-54
14:29:21.132776,-9985
14:29:21.132776,-1
14:29:21.132776,-16
14:29:21.132776,1279
14:29:21.132776,0
14:29:21.132776,23
14:29:21.132776,12032
14:29:21.132776,0
14:29:21.132776,64
14:29:21.132776,17664
14:29:21.132776,0
14:29:21.132776,69
14:29:21.132776,16384
14:29:21.132776,0
14:29:21.132776,50
14:29:21.132776,7168
14:29:21.132776,0
14:29:21.132776,2
14:29:21.132776,-7168
14:29:21.132776,-1
14:29:21.132776,-54
14:29:21.132776,-17921
14:29:21.132776,-1
14:29:21.132776,-78
14:29:21.132776,-19713
14:29:21.132776,-1
14:29:21.132776,-76
14:29:21.132776,-17921
14:29:21.132776,-1
14:29:21.132776,-69
14:29:21.132776,-15617
14:29:21.132776,-1
14:29:21.132776,-59
14:29:21.132776,-14337
14:29:21.132776,-1
14:29:21.132776,-47
14:29:21.132776,-10497
14:29:21.132776,-1
14:29:21.132776,-45
14:29:21.717658,-35
14:29:21.717658,-7681
14:29:21.717658,-1
14:29:21.717658,-31
14:29:21.717658,-5121
14:29:21.717658,-1
14:29:21.717658,-14
14:29:21.717658,-2561
14:29:21.717658,-1
14:29:21.717658,2
14:29:21.717658,2816
14:29:21.717658,0
14:29:21.717658,2
14:29:21.717658,512
14:29:21.717658,0
14:29:21.717658,7
14:29:21.717658,1024
14:29:21.717658,0
14:29:21.717658,4
14:29:21.717658,1792
14:29:21.717658,0
14:29:21.717658,7
14:29:21.717658,1024
14:29:21.717658,0
14:29:21.717658,7
14:29:21.717658,1792
14:29:21.717658,0
14:29:21.717658,4
14:29:21.717658,1792
14:29:21.717658,0
14:29:21.717658,9
14:29:21.717658,1792
14:29:21.717658,0
14:29:21.717658,7
14:29:21.717658,1792
14:29:21.717658,0
14:29:21.717658,4
14:29:21.717658,-512
14:29:21.717658,-1
14:29:21.717658,-7
14:29:21.717658,-2561
14:29:21.717658,-1
14:29:21.717658,-7
14:29:21.717658,3071
14:29:21.717658,0
14:29:21.717658,28
14:29:21.717658,8448
14:29:21.717658,0
14:29:21.717658,35
14:29:21.717658,8448
14:29:21.717658,0
14:29:21.717658,19
14:29:21.717658,1792
14:29:21.717658,0
14:29:21.717658,9
14:29:21.717658,1792
14:29:21.717658,0
14:29:21.717658,7
14:29:21.717658,3584
14:29:21.717658,0
14:29:21.717658,-2
14:29:21.717658,-5633
14:29:21.717658,-1
14:29:21.717658,124
14:29:21.717658,13056
14:29:21.717658,2
14:29:21.717658,1208
14:29:21.717658,19968
14:29:21.717658,6
14:29:21.717658,1096
14:29:21.717658,19968
14:29:21.717658,0
14:29:21.717658,-222
14:29:21.717658,-8193
14:29:21.717658,-1
14:29:21.717658,-124
14:29:21.717658,5375
14:29:21.717658,-1
14:29:21.717658,-152
14:29:21.717658,-32513
14:29:21.717658,-1
14:29:21.717658,-160
14:29:21.717658,30975
14:29:21.717658,-1
14:29:21.717658,-109
14:29:21.717658,-27137
14:29:21.717658,-1
14:29:21.717658,-95
14:29:21.717658,-20993
14:29:21.717658,-1
14:29:21.717658,-81
14:29:21.717658,-17409
14:29:21.717658,-1
14:29:21.717658,-45
14:29:21.717658,-5121
14:29:21.717658,-1
14:29:21.717658,-9
14:29:21.717658,255
14:29:21.717658,0
14:29:21.717658,21
14:29:21.717658,11520
14:29:21.717658,0
14:29:21.717658,57
14:29:21.717658,17664
14:29:21.717658,0
14:29:21.717658,83
14:29:21.717658,21760
14:29:21.717658,0
14:29:21.717658,78
14:29:22.303418,62
14:29:22.303418,10240
14:29:22.303418,0
14:29:22.303418,16
14:29:22.303418,-3584
14:29:22.303418,-1
14:29:22.303418,-42
14:29:22.303418,-15617
14:29:22.303418,-1
14:29:22.303418,-81
14:29:22.303418,-22785
14:29:22.303418,-1
14:29:22.303418,-85
14:29:22.303418,-17921
14:29:22.303418,-1
14:29:22.303418,-57
14:29:22.303418,-13057
14:29:22.303418,-1
14:29:22.303418,-50
14:29:22.303418,-9473
14:29:22.303418,-1
14:29:22.303418,-33
14:29:22.303418,-6913
14:29:22.303418,-1
14:29:22.303418,-21
14:29:22.303418,-3841
14:29:22.303418,-1
14:29:22.303418,-14
14:29:22.303418,-2561
14:29:22.303418,-1
14:29:22.303418,-11
14:29:22.303418,-769
14:29:22.303418,-1
14:29:22.303418,-2
14:29:22.303418,-769
14:29:22.303418,-1
14:29:22.303418,-11
14:29:22.303418,-1537
14:29:22.303418,-1
14:29:22.303418,-2
14:29:22.303418,-257
14:29:22.303418,-1
14:29:22.303418,-7
14:29:22.303418,-2049
14:29:22.303418,-1
14:29:22.303418,-4
14:29:22.303418,-257
14:29:22.303418,-1
14:29:22.303418,-2
14:29:22.303418,-257
14:29:22.303418,-1
14:29:22.303418,-4
14:29:22.303418,-2561
14:29:22.303418,-1
14:29:22.303418,-21
14:29:22.303418,-6913
14:29:22.303418,-1
14:29:22.303418,-23
14:29:22.303418,-2049
14:29:22.303418,-1
14:29:22.303418,7
14:29:22.303418,5376
14:29:22.303418,0
14:29:22.303418,26
14:29:22.303418,5376
14:29:22.303418,0
14:29:22.303418,14
14:29:22.303418,1792
14:29:22.303418,0
14:29:22.303418,4
14:29:22.303418,2816
14:29:22.303418,0
14:29:22.303418,23
14:29:22.303418,6656
14:29:22.303418,0
14:29:22.303418,11
14:29:22.303418,-4864
14:29:22.303418,-1
14:29:22.303418,81
14:29:22.303418,-8960
14:29:22.303418,1
14:29:22.303418,1139
14:29:22.303418,-28928
14:29:22.303418,6
14:29:22.303418,1328
14:29:22.303418,-2560
14:29:22.303418,0
14:29:22.303418,-236
14:29:22.303418,-9985
14:29:22.303418,-1
14:29:22.303418,-78
14:29:22.303418,7167
14:29:22.303418,-1
14:29:22.303418,-157
14:29:22.303418,-30209
14:29:22.303418,-1
14:29:22.303418,-160
14:29:22.303418,30463
14:29:22.303418,-1
14:29:22.303418,-107
14:29:22.303418,-27649
14:29:22.303418,-1
14:29:22.303418,-97
14:29:22.303418,-20481
14:29:22.303418,-1
14:29:22.303418,-71
14:29:22.303418,-14849
14:29:22.303418,-1
14:29:22.303418,-45
14:29:22.843445,-31
14:29:22.843445,-3329
14:29:22.843445,-1
14:29:22.843445,9
14:29:22.843445,7936
14:29:22.843445,0
14:29:22.843445,52
14:29:22.843445,18944
14:29:22.843445,0
14:29:22.843445,93
14:29:22.843445,26880
14:29:22.843445,0
14:29:22.843445,107
14:29:22.843445,22528
14:29:22.843445,0
14:29:22.843445,64
14:29:22.843445,11520
14:29:22.843445,0
14:29:22.843445,28
14:29:22.843445,512
14:29:22.843445,0
14:29:22.843445,-31
14:29:22.843445,-14849
14:29:22.843445,-1
14:29:22.843445,-74
14:29:22.843445,-20993
14:29:22.843445,-1
14:29:22.843445,-78
14:29:22.843445,-17921
14:29:22.843445,-1
14:29:22.843445,-74
14:29:22.843445,-17409
14:29:22.843445,-1
14:29:22.843445,-50
14:29:22.843445,-9985
14:29:22.843445,-1
14:29:22.843445,-38
14:29:22.843445,-8193
14:29:22.843445,-1
14:29:22.843445,-28
14:29:22.843445,-5633
14:29:22.843445,-1
14:29:22.843445,-16
14:29:22.843445,-2049
14:29:22.843445,-1
14:29:22.843445,-4
14:29:22.843445,-257
14:29:22.843445,-1
14:29:22.843445,-2
14:29:22.843445,-1537
14:29:22.843445,-1
14:29:22.843445,-9
14:29:22.843445,-2049
14:29:22.843445,-1
14:29:22.843445,-7
14:29:22.843445,-1537
14:29:22.843445,-1
14:29:22.843445,-7
14:29:22.843445,-257
14:29:22.843445,-1
14:29:22.843445,-2
14:29:22.843445,-257
14:29:22.843445,-1
14:29:22.843445,0
14:29:22.843445,512
14:29:22.843445,0
14:29:22.843445,2
14:29:22.843445,-512
14:29:22.843445,-1
14:29:22.843445,-4
14:29:22.843445,-1537
14:29:22.843445,-1
14:29:22.843445,-16
14:29:22.843445,-4609
14:29:22.843445,-1
14:29:22.843445,-11
14:29:22.843445,-257
14:29:22.843445,-1
14:29:22.843445,4
14:29:22.843445,4096
14:29:22.843445,0
14:29:22.843445,21
14:29:22.843445,4864
14:29:22.843445,0
14:29:22.843445,14
14:29:22.843445,1024
14:29:22.843445,0
14:29:22.843445,2
14:29:22.843445,2816
14:29:22.843445,0
14:29:22.843445,11
14:29:22.843445,1792
14:29:22.843445,0
14:29:22.843445,-4
14:29:22.843445,-6913
14:29:22.843445,-1
14:29:22.843445,71
14:29:22.843445,-12032
14:29:22.843445,1
14:29:22.843445,1153
14:29:22.843445,-23552
14:29:22.843445,6
14:29:22.843445,1296
14:29:22.843445,-14336
14:29:22.843445,0
14:29:22.843445,-262
14:29:22.843445,-17921
14:29:22.843445,-1
14:29:22.843445,-107
14:29:23.382604,-250
14:29:23.382604,18175
14:29:23.382604,-1
14:29:23.382604,-150
14:29:23.382604,18175
14:29:23.382604,-1
14:29:23.382604,-164
14:29:23.382604,31743
14:29:23.382604,-1
14:29:23.382604,-138
14:29:23.382604,32255
14:29:23.382604,-1
14:29:23.382604,-114
14:29:23.382604,-24577
14:29:23.382604,-1
14:29:23.382604,-78
14:29:23.382604,-16129
14:29:23.382604,-1
14:29:23.382604,-47
14:29:23.382604,-7681
14:29:23.382604,-1
14:29:23.382604,-19
14:29:23.382604,255
14:29:23.382604,0
14:29:23.382604,21
14:29:23.382604,9728
14:29:23.382604,0
14:29:23.382604,52
14:29:23.382604,15104
14:29:23.382604,0
14:29:23.382604,59
14:29:23.382604,13824
14:29:23.382604,0
14:29:23.382604,40
14:29:23.382604,4096
14:29:23.382604,0
14:29:23.382604,-4
14:29:23.382604,-7681
14:29:23.382604,-1
14:29:23.382604,-64
14:29:23.382604,-20481
14:29:23.382604,-1
14:29:23.382604,-85
14:29:23.382604,-23553
14:29:23.382604,-1
14:29:23.382604,-90
14:29:23.382604,-19201
14:29:23.382604,-1
14:29:23.382604,-62
14:29:23.382604,-14849
14:29:23.382604,-1
14:29:23.382604,-62
14:29:23.382604,-13057
14:29:23.382604,-1
14:29:23.382604,-45
14:29:23.382604,-11777
14:29:23.382604,-1
14:29:23.382604,-45
14:29:23.382604,-9473
14:29:23.382604,-1
14:29:23.382604,-35
14:29:23.382604,-8193
14:29:23.382604,-1
14:29:23.382604,-26
14:29:23.382604,-5121
14:29:23.382604,-1
14:29:23.382604,-19
14:29:23.382604,-5121
14:29:23.382604,-1
14:29:23.382604,-16
14:29:23.382604,-2561
14:29:23.382604,-1
14:29:23.382604,-14
14:29:23.382604,-3329
14:29:23.382604,-1
14:29:23.382604,-9
14:29:23.382604,-2049
14:29:23.382604,-1
14:29:23.382604,-14
14:29:23.382604,-3841
14:29:23.382604,-1
14:29:23.382604,-16
14:29:23.382604,-3841
14:29:23.382604,-1
14:29:23.382604,-11
14:29:23.382604,-2049
14:29:23.382604,-1
14:29:23.382604,-14
14:29:23.382604,-4609
14:29:23.382604,-1
14:29:23.382604,-21
14:29:23.382604,-6401
14:29:23.382604,-1
14:29:23.382604,-26
14:29:23.382604,-3329
14:29:23.382604,-1
14:29:23.382604,4
14:29:23.382604,5376
14:29:23.382604,0
14:29:23.382604,23
14:29:23.382604,4864
14:29:23.382604,0
14:29:23.382604,16
14:29:23.382604,2304
14:29:23.382604,0
14:29:23.382604,0
14:29:23.382604,-512
14:29:23.382604,-1
14:29:23.382604,4
14:29:23.923342,7
14:29:23.923342,0
14:29:23.923342,0
14:29:23.923342,-28
14:29:23.923342,767
14:29:23.923342,0
14:29:23.923342,272
14:29:23.923342,18432
14:29:23.923342,3
14:29:23.923342,1509
14:29:23.923342,2304
14:29:23.923342,6
14:29:23.923342,601
14:29:23.923342,17408
14:29:23.923342,-1
14:29:23.923342,-119
14:29:23.923342,-6401
14:29:23.923342,-1
14:29:23.923342,-198
14:29:23.923342,16895
14:29:23.923342,-1
14:29:23.923342,-117
14:29:23.923342,27391
14:29:23.923342,-1
14:29:23.923342,-152
14:29:23.923342,-28417
14:29:23.923342,-1
14:29:23.923342,-112
14:29:23.923342,-28929
14:29:23.923342,-1
14:29:23.923342,-93
14:29:23.923342,-20481
14:29:23.923342,-1
14:29:23.923342,-74
14:29:23.923342,-15617
14:29:23.923342,-1
14:29:23.923342,-47
14:29:23.923342,-6401
14:29:23.923342,-1
14:29:23.923342,-7
14:29:23.923342,1279
14:29:23.923342,0
14:29:23.923342,21
14:29:23.923342,12032
14:29:23.923342,0
14:29:23.923342,66
14:29:23.923342,18944
14:29:23.923342,0
14:29:23.923342,69
14:29:23.923342,15104
14:29:23.923342,0
14:29:23.923342,50
14:29:23.923342,8960
14:29:23.923342,0
14:29:23.923342,7
14:29:23.923342,-4864
14:29:23.923342,-1
14:29:23.923342,-38
14:29:23.923342,-13569
14:29:23.923342,-1
14:29:23.923342,-74
14:29:23.923342,-20481
14:29:23.923342,-1
14:29:23.923342,-74
14:29:23.923342,-17921
14:29:23.923342,-1
14:29:23.923342,-74
14:29:23.923342,-17409
14:29:23.923342,-1
14:29:23.923342,-59
14:29:23.923342,-12545
14:29:23.923342,-1
14:29:23.923342,-47
14:29:23.923342,-11777
14:29:23.923342,-1
14:29:23.923342,-45
14:29:23.923342,-9473
14:29:23.923342,-1
14:29:23.923342,-28
14:29:23.923342,-5633
14:29:23.923342,-1
14:29:23.923342,-21
14:29:23.923342,-5633
14:29:23.923342,-1
14:29:23.923342,-23
14:29:23.923342,-3841
14:29:23.923342,-1
14:29:23.923342,-7
14:29:23.923342,-769
14:29:23.923342,-1
14:29:23.923342,-7
14:29:23.923342,-2049
14:29:23.923342,-1
14:29:23.923342,-7
14:29:23.923342,-2049
14:29:23.923342,-1
14:29:23.923342,-16
14:29:23.923342,-2049
14:29:23.923342,-1
14:29:23.923342,-4
14:29:23.923342,-257
14:29:23.923342,-1
14:29:23.923342,-2
14:29:23.923342,-769
14:29:23.923342,-1
14:29:23.923342,-4
14:29:23.923342,767
14:29:23.923342,0
14:29:23.923342,2
14:29:24.508077,-4
14:29:24.508077,255
14:29:24.508077,0
14:29:24.508077,7
14:29:24.508077,-512
14:29:24.508077,-1
14:29:24.508077,2
14:29:24.508077,1792
14:29:24.508077,0
14:29:24.508077,2
14:29:24.508077,2816
14:29:24.508077,0
14:29:24.508077,33
14:29:24.508077,10240
14:29:24.508077,0
14:29:24.508077,40
14:29:24.508077,10240
14:29:24.508077,0
14:29:24.508077,33
14:29:24.508077,5888
14:29:24.508077,0
14:29:24.508077,19
14:29:24.508077,5376
14:29:24.508077,0
14:29:24.508077,31
14:29:24.508077,8960
14:29:24.508077,0
14:29:24.508077,31
14:29:24.508077,1024
14:29:24.508077,0
14:29:24.508077,4
14:29:24.508077,-14848
14:29:24.508077,0
14:29:24.508077,683
14:29:24.508077,10240
14:29:24.508077,5
14:29:24.508077,1602
14:29:24.508077,-23808
14:29:24.508077,3
14:29:24.508077,-28
14:29:24.508077,19967
14:29:24.508077,-1
14:29:24.508077,0
14:29:24.508077,30720
14:29:24.508077,-1
14:29:24.508077,-210
14:29:24.508077,-30209
14:29:24.508077,-1
14:29:24.508077,-124
14:29:24.508077,26111
14:29:24.508077,-1
14:29:24.508077,-117
14:29:24.508077,-24065
14:29:24.508077,-1
14:29:24.508077,-105
14:29:24.508077,-23553
14:29:24.508077,-1
14:29:24.508077,-76
14:29:24.508077,-16641
14:29:24.508077,-1
14:29:24.508077,-47
14:29:24.508077,-5633
14:29:24.508077,-1
14:29:24.508077,-14
14:29:24.508077,-1537
14:29:24.508077,-1
14:29:24.508077,11
14:29:24.508077,9728
14:29:24.508077,0
14:29:24.508077,62
14:29:24.508077,19968
14:29:24.508077,0
14:29:24.508077,88
14:29:24.508077,24320
14:29:24.508077,0
14:29:24.508077,95
14:29:24.508077,19968
14:29:24.508077,0
14:29:24.508077,62
14:29:24.508077,12032
14:29:24.508077,0
14:29:24.508077,19
14:29:24.508077,-3584
14:29:24.508077,-1
14:29:24.508077,-38
14:29:24.508077,-14849
14:29:24.508077,-1
14:29:24.508077,-78
14:29:24.508077,-21505
14:29:24.508077,-1
14:29:24.508077,-85
14:29:24.508077,-20481
14:29:24.508077,-1
14:29:24.508077,-71
14:29:24.508077,-15617
14:29:24.508077,-1
14:29:24.508077,-54
14:29:24.508077,-12545
14:29:24.508077,-1
14:29:24.508077,-42
14:29:24.508077,-9473
14:29:24.508077,-1
14:29:24.508077,-28
14:29:24.508077,-5121
14:29:24.508077,-1
14:29:24.508077,-21
14:29:24.508077,-5121
14:29:24.508077,-1
14:29:24.508077,-16
14:29:25.093867,-7
14:29:25.093867,-1537
14:29:25.093867,-1
14:29:25.093867,-9
14:29:25.093867,-769
14:29:25.093867,-1
14:29:25.093867,-7
14:29:25.093867,-1537
14:29:25.093867,-1
14:29:25.093867,0
14:29:25.093867,4096
14:29:25.093867,0
14:29:25.093867,23
14:29:25.093867,5376
14:29:25.093867,0
14:29:25.093867,21
14:29:25.093867,6656
14:29:25.093867,0
14:29:25.093867,28
14:29:25.093867,6656
14:29:25.093867,0
14:29:25.093867,26
14:29:25.093867,7168
14:29:25.093867,0
14:29:25.093867,26
14:29:25.093867,6656
14:29:25.093867,0
14:29:25.093867,31
14:29:25.093867,6656
14:29:25.093867,0
14:29:25.093867,16
14:29:25.093867,2816
14:29:25.093867,0
14:29:25.093867,9
14:29:25.093867,512
14:29:25.093867,0
14:29:25.093867,0
14:29:25.093867,5376
14:29:25.093867,0
14:29:25.093867,42
14:29:25.093867,12032
14:29:25.093867,0
14:29:25.093867,42
14:29:25.093867,8960
14:29:25.093867,0
14:29:25.093867,26
14:29:25.093867,5376
14:29:25.093867,0
14:29:25.093867,23
14:29:25.093867,7936
14:29:25.093867,0
14:29:25.093867,31
14:29:25.093867,6656
14:29:25.093867,0
14:29:25.093867,23
14:29:25.093867,-512
14:29:25.093867,-1
14:29:25.093867,23
14:29:25.093867,7680
14:29:25.093867,1
14:29:25.093867,855
14:29:25.093867,-5632
14:29:25.093867,5
14:29:25.093867,1574
14:29:25.093867,-30464
14:29:25.093867,2
14:29:25.093867,-174
14:29:25.093867,-30721
14:29:25.093867,-1
14:29:25.093867,-14
14:29:25.093867,16383
14:29:25.093867,-1
14:29:25.093867,-193
14:29:25.093867,-27137
14:29:25.093867,-1
14:29:25.093867,-143
14:29:25.093867,25599
14:29:25.093867,-1
14:29:25.093867,-119
14:29:25.093867,-27649
14:29:25.093867,-1
14:29:25.093867,-109
14:29:25.093867,-22785
14:29:25.093867,-1
14:29:25.093867,-76
14:29:25.093867,-16641
14:29:25.093867,-1
14:29:25.093867,-54
14:29:25.093867,-9985
14:29:25.093867,-1
14:29:25.093867,-23
14:29:25.093867,-769
14:29:25.093867,-1
14:29:25.093867,9
14:29:25.093867,7936
14:29:25.093867,0
14:29:25.093867,57
14:29:25.093867,18944
14:29:25.093867,0
14:29:25.093867,83
14:29:25.093867,22528
14:29:25.093867,0
14:29:25.093867,88
14:29:25.093867,19968
14:29:25.093867,0
14:29:25.093867,54
14:29:25.093867,6656
14:29:25.093867,0
14:29:25.093867,4
14:29:25.632893,-21
14:29:25.632893,-12545
14:29:25.632893,-1
14:29:25.632893,-64
14:29:25.632893,-16641
14:29:25.632893,-1
14:29:25.632893,-71
14:29:25.632893,-17921
14:29:25.632893,-1
14:29:25.632893,-69
14:29:25.632893,-15617
14:29:25.632893,-1
14:29:25.632893,-54
14:29:25.632893,-11265
14:29:25.632893,-1
14:29:25.632893,-31
14:29:25.632893,-3841
14:29:25.632893,-1
14:29:25.632893,-11
14:29:25.632893,-2561
14:29:25.632893,-1
14:29:25.632893,-9
14:29:25.632893,-257
14:29:25.632893,-1
14:29:25.632893,2
14:29:25.632893,1792
14:29:25.632893,0
14:29:25.632893,9
14:29:25.632893,2304
14:29:25.632893,0
14:29:25.632893,7
14:29:25.632893,1792
14:29:25.632893,0
14:29:25.632893,9
14:29:25.632893,2304
14:29:25.632893,0
14:29:25.632893,4
14:29:25.632893,1024
14:29:25.632893,0
14:29:25.632893,11
14:29:25.632893,2816
14:29:25.632893,0
14:29:25.632893,4
14:29:25.632893,1792
14:29:25.632893,0
14:29:25.632893,14
14:29:25.632893,3584
14:29:25.632893,0
14:29:25.632893,9
14:29:25.632893,2304
14:29:25.632893,0
14:29:25.632893,11
14:29:25.632893,2816
14:29:25.632893,0
14:29:25.632893,11
14:29:25.632893,2816
14:29:25.632893,0
14:29:25.632893,11
14:29:25.632893,1792
14:29:25.632893,0
14:29:25.632893,0
14:29:25.632893,-1792
14:29:25.632893,-1
14:29:25.632893,-9
14:29:25.632893,255
14:29:25.632893,0
14:29:25.632893,16
14:29:25.632893,8448
14:29:25.632893,0
14:29:25.632893,38
14:29:25.632893,8960
14:29:25.632893,0
14:29:25.632893,26
14:29:25.632893,4096
14:29:25.632893,0
14:29:25.632893,9
14:29:25.632893,4096
14:29:25.632893,0
14:29:25.632893,19
14:29:25.632893,2816
14:29:25.632893,0
14:29:25.632893,9
14:29:25.632893,0
14:29:25.632893,0
14:29:25.632893,-16
14:29:25.632893,27647
14:29:25.632893,0
14:29:25.632893,530
14:29:25.632893,-17920
14:29:25.632893,4
14:29:25.632893,1667
14:29:25.632893,-31232
14:29:25.632893,4
14:29:25.632893,114
14:29:25.632893,8192
14:29:25.632893,-1
14:29:25.632893,-40
14:29:25.632893,-29697
14:29:25.632893,-1
14:29:25.632893,-224
14:29:25.632893,28671
14:29:25.632893,-1
14:29:25.632893,-126
14:29:25.632893,25599
14:29:25.632893,-1
14:29:25.632893,-131
14:29:25.632893,-27137
14:29:25.632893,-1
14:29:25.632893,-114
14:29:26.218317,-102
14:29:26.218317,-20481
14:29:26.218317,-1
14:29:26.218317,-69
14:29:26.218317,-13569
14:29:26.218317,-1
14:29:26.218317,-40
14:29:26.218317,-7681
14:29:26.218317,-1
14:29:26.218317,-14
14:29:26.218317,4351
14:29:26.218317,0
14:29:26.218317,45
14:29:26.218317,15104
14:29:26.218317,0
14:29:26.218317,74
14:29:26.218317,22528
14:29:26.218317,0
14:29:26.218317,97
14:29:26.218317,24320
14:29:26.218317,0
14:29:26.218317,88
14:29:26.218317,18176
14:29:26.218317,0
14:29:26.218317,45
14:29:26.218317,4864
14:29:26.218317,0
14:29:26.218317,-4
14:29:26.218317,-8705
14:29:26.218317,-1
14:29:26.218317,-62
14:29:26.218317,-19201
14:29:26.218317,-1
14:29:26.218317,-76
14:29:26.218317,-17409
14:29:26.218317,-1
14:29:26.218317,-66
14:29:26.218317,-16129
14:29:26.218317,-1
14:29:26.218317,-62
14:29:26.218317,-14849
14:29:26.218317,-1
14:29:26.218317,-54
14:29:26.218317,-13057
14:29:26.218317,-1
14:29:26.218317,-50
14:29:26.218317,-9473
14:29:26.218317,-1
14:29:26.218317,-33
14:29:26.218317,-8705
14:29:26.218317,-1
14:29:26.218317,-38
14:29:26.218317,-6913
14:29:26.218317,-1
14:29:26.218317,-21
14:29:26.218317,-5121
14:29:26.218317,-1
14:29:26.218317,-19
14:29:26.218317,-5121
14:29:26.218317,-1
14:29:26.218317,-26
14:29:26.218317,-3841
14:29:26.218317,-1
14:29:26.218317,-9
14:29:26.218317,-3329
14:29:26.218317,-1
14:29:26.218317,-21
14:29:26.218317,-4609
14:29:26.218317,-1
14:29:26.218317,-16
14:29:26.218317,-3841
14:29:26.218317,-1
14:29:26.218317,-16
14:29:26.218317,-3841
14:29:26.218317,-1
14:29:26.218317,-9
14:29:26.218317,767
14:29:26.218317,0
14:29:26.218317,-2
14:29:26.218317,-2561
14:29:26.218317,-1
14:29:26.218317,-7
14:29:26.218317,255
14:29:26.218317,0
14:29:26.218317,-2
14:29:26.218317,-1537
14:29:26.218317,-1
14:29:26.218317,-9
14:29:26.218317,-3841
14:29:26.218317,-1
14:29:26.218317,-23
14:29:26.218317,-5121
14:29:26.218317,-1
14:29:26.218317,-9
14:29:26.218317,1279
14:29:26.218317,0
14:29:26.218317,16
14:29:26.218317,7168
14:29:26.218317,0
14:29:26.218317,26
14:29:26.218317,4864
14:29:26.218317,0
14:29:26.218317,14
14:29:26.218317,1024
14:29:26.218317,0
14:29:26.218317,-2
14:29:26.218317,2047
14:29:26.218317,0
14:29:26.218317,14
14:29:26.757915,9
14:29:26.757915,-512
14:29:26.757915,-1
14:29:26.757915,-21
14:29:26.757915,1279
14:29:26.757915,0
14:29:26.757915,248
14:29:26.757915,2560
14:29:26.757915,3
14:29:26.757915,1428
14:29:26.757915,10752
14:29:26.757915,6
14:29:26.757915,747
14:29:26.757915,31488
14:29:26.757915,-1
14:29:26.757915,-143
14:29:26.757915,767
14:29:26.757915,0
14:29:26.757915,-155
14:29:26.757915,18175
14:29:26.757915,-1
14:29:26.757915,-105
14:29:26.757915,-30209
14:29:26.757915,-1
14:29:26.757915,-124
14:29:26.757915,-22273
14:29:26.757915,-1
14:29:26.757915,-88
14:29:26.757915,-22785
14:29:26.757915,-1
14:29:26.757915,-66
14:29:26.757915,-13569
14:29:26.757915,-1
14:29:26.757915,-54
14:29:26.757915,-10497
14:29:26.757915,-1
14:29:26.757915,-21
14:29:26.757915,-769
14:29:26.757915,-1
14:29:26.757915,14
14:29:26.757915,8960
14:29:26.757915,0
14:29:26.757915,50
14:29:26.757915,16896
14:29:26.757915,0
14:29:26.757915,90
14:29:26.757915,24832
14:29:26.757915,0
14:29:26.757915,95
14:29:26.757915,23040
14:29:26.757915,0
14:29:26.757915,74
14:29:26.757915,12800
14:29:26.757915,0
14:29:26.757915,28
14:29:26.757915,0
14:29:26.757915,0
14:29:26.757915,-33
14:29:26.757915,-14337
14:29:26.757915,-1
14:29:26.757915,-76
14:29:26.757915,-23553
14:29:26.757915,-1
14:29:26.757915,-100
14:29:26.757915,-24065
14:29:26.757915,-1
14:29:26.757915,-93
14:29:26.757915,-20481
14:29:26.757915,-1
14:29:26.757915,-74
14:29:26.757915,-18689
14:29:26.757915,-1
14:29:26.757915,-62
14:29:26.757915,-11265
14:29:26.757915,-1
14:29:26.757915,-47
14:29:26.757915,-14337
14:29:26.757915,-1
14:29:26.757915,-45
14:29:26.757915,-6401
14:29:26.757915,-1
14:29:26.757915,-14
14:29:26.757915,-3841
14:29:26.757915,-1
14:29:26.757915,-21
14:29:26.757915,-5121
14:29:26.757915,-1
14:29:26.757915,-19
14:29:26.757915,-3841
14:29:26.757915,-1
14:29:26.757915,-21
14:29:26.757915,-5633
14:29:26.757915,-1
14:29:26.757915,-16
14:29:26.757915,-3329
14:29:26.757915,-1
14:29:26.757915,-19
14:29:26.757915,-4609
14:29:26.757915,-1
14:29:26.757915,-9
14:29:26.757915,-769
14:29:26.757915,-1
14:29:26.757915,-11
14:29:26.757915,-2049
14:29:26.757915,-1
14:29:26.757915,-4
14:29:26.757915,-2561
14:29:26.757915,-1
14:29:26.757915,-16
14:29:27.297909,-16
14:29:27.297909,-3329
14:29:27.297909,-1
14:29:27.297909,-19
14:29:27.297909,-5633
14:29:27.297909,-1
14:29:27.297909,-16
14:29:27.297909,767
14:29:27.297909,0
14:29:27.297909,21
14:29:27.297909,7936
14:29:27.297909,0
14:29:27.297909,38
14:29:27.297909,9728
14:29:27.297909,0
14:29:27.297909,31
14:29:27.297909,7168
14:29:27.297909,0
14:29:27.297909,33
14:29:27.297909,7936
14:29:27.297909,0
14:29:27.297909,28
14:29:27.297909,7936
14:29:27.297909,0
14:29:27.297909,19
14:29:27.297909,-1792
14:29:27.297909,-1
14:29:27.297909,109
14:29:27.297909,5888
14:29:27.297909,2
14:29:27.297909,1213
14:29:27.297909,-21760
14:29:27.297909,6
14:29:27.297909,1273
14:29:27.297909,-14848
14:29:27.297909,0
14:29:27.297909,-217
14:29:27.297909,-5121
14:29:27.297909,-1
14:29:27.297909,-85
14:29:27.297909,9727
14:29:27.297909,-1
14:29:27.297909,-140
14:29:27.297909,-27137
14:29:27.297909,-1
14:29:27.297909,-143
14:29:27.297909,-29697
14:29:27.297909,-1
14:29:27.297909,-90
14:29:27.297909,-24577
14:29:27.297909,-1
14:29:27.297909,-83
14:29:27.297909,-14849
14:29:27.297909,-1
14:29:27.297909,-57
14:29:27.297909,-12545
14:29:27.297909,-1
14:29:27.297909,-28
14:29:27.297909,-3329
14:29:27.297909,-1
14:29:27.297909,-4
14:29:27.297909,5119
14:29:27.297909,0
14:29:27.297909,45
14:29:27.297909,15872
14:29:27.297909,0
14:29:27.297909,76
14:29:27.297909,24320
14:29:27.297909,0
14:29:27.297909,107
14:29:27.297909,26112
14:29:27.297909,0
14:29:27.297909,88
14:29:27.297909,18176
14:29:27.297909,0
14:29:27.297909,47
14:29:27.297909,3584
14:29:27.297909,0
14:29:27.297909,-21
14:29:27.297909,-12545
14:29:27.297909,-1
14:29:27.297909,-74
14:29:27.297909,-22785
14:29:27.297909,-1
14:29:27.297909,-93
14:29:27.297909,-22785
14:29:27.297909,-1
14:29:27.297909,-93
14:29:27.297909,-20993
14:29:27.297909,-1
14:29:27.297909,-74
14:29:27.297909,-17409
14:29:27.297909,-1
14:29:27.297909,-64
14:29:27.297909,-14849
14:29:27.297909,-1
14:29:27.297909,-50
14:29:27.297909,-9985
14:29:27.297909,-1
14:29:27.297909,-31
14:29:27.297909,-6401
14:29:27.297909,-1
14:29:27.297909,-23
14:29:27.297909,-4609
14:29:27.297909,-1
14:29:27.297909,-14
14:29:27.297909,-3329
14:29:27.297909,-1
14:29:27.297909,-11
14:29:27.882894,-19
14:29:27.882894,-5121
14:29:27.882894,-1
14:29:27.882894,-14
14:29:27.882894,-2561
14:29:27.882894,-1
14:29:27.882894,-16
14:29:27.882894,-1537
14:29:27.882894,-1
14:29:27.882894,14
14:29:27.882894,2304
14:29:27.882894,0
14:29:27.882894,0
14:29:27.882894,1024
14:29:27.882894,0
14:29:27.882894,9
14:29:27.882894,2304
14:29:27.882894,0
14:29:27.882894,7
14:29:27.882894,-1024
14:29:27.882894,-1
14:29:27.882894,-11
14:29:27.882894,-3329
14:29:27.882894,-1
14:29:27.882894,-14
14:29:27.882894,-3329
14:29:27.882894,-1
14:29:27.882894,0
14:29:27.882894,4864
14:29:27.882894,0
14:29:27.882894,28
14:29:27.882894,7936
14:29:27.882894,0
14:29:27.882894,31
14:29:27.882894,4864
14:29:27.882894,0
14:29:27.882894,9
14:29:27.882894,1792
14:29:27.882894,0
14:29:27.882894,11
14:29:27.882894,3584
14:29:27.882894,0
14:29:27.882894,9
14:29:27.882894,1024
14:29:27.882894,0
14:29:27.882894,-11
14:29:27.882894,3071
14:29:27.882894,0
14:29:27.882894,255
14:29:27.882894,15360
14:29:27.882894,3
14:29:27.882894,1523
14:29:27.882894,16896
14:29:27.882894,6
14:29:27.882894,675
14:29:27.882894,19712
14:29:27.882894,-1
14:29:27.882894,-150
14:29:27.882894,-6913
14:29:27.882894,-1
14:29:27.882894,-195
14:29:27.882894,12799
14:29:27.882894,-1
14:29:27.882894,-121
14:29:27.882894,28671
14:29:27.882894,-1
14:29:27.882894,-162
14:29:27.882894,-30721
14:29:27.882894,-1
14:29:27.882894,-112
14:29:27.882894,-28929
14:29:27.882894,-1
14:29:27.882894,-93
14:29:27.882894,-19713
14:29:27.882894,-1
14:29:27.882894,-76
14:29:27.882894,-14849
14:29:27.882894,-1
14:29:27.882894,-42
14:29:27.882894,-8193
14:29:27.882894,-1
14:29:27.882894,-16
14:29:27.882894,2047
14:29:27.882894,0
14:29:27.882894,26
14:29:27.882894,11520
14:29:27.882894,0
14:29:27.882894,64
14:29:27.882894,18944
14:29:27.882894,0
14:29:27.882894,69
14:29:27.882894,15872
14:29:27.882894,0
14:29:27.882894,47
14:29:27.882894,7168
14:29:27.882894,0
14:29:27.882894,4
14:29:27.882894,-6656
14:29:27.882894,-1
14:29:27.882894,-57
14:29:27.882894,-19201
14:29:27.882894,-1
14:29:27.882894,-85
14:29:27.882894,-23553
14:29:27.882894,-1
14:29:27.882894,-95
14:29:27.882894,-23553
14:29:27.882894,-1
14:29:27.882894,-90
14:29:28.467884,-81
14:29:28.467884,-18689
14:29:28.467884,-1
14:29:28.467884,-71
14:29:28.467884,-16641
14:29:28.467884,-1
14:29:28.467884,-62
14:29:28.467884,-15617
14:29:28.467884,-1
14:29:28.467884,-59
14:29:28.467884,-13057
14:29:28.467884,-1
14:29:28.467884,-38
14:29:28.467884,-5633
14:29:28.467884,-1
14:29:28.467884,-21
14:29:28.467884,-4609
14:29:28.467884,-1
14:29:28.467884,-9
14:29:28.467884,-2049
14:29:28.467884,-1
14:29:28.467884,-14
14:29:28.467884,-2049
14:29:28.467884,-1
14:29:28.467884,-7
14:29:28.467884,-2561
14:29:28.467884,-1
14:29:28.467884,-14
14:29:28.467884,-2049
14:29:28.467884,-1
14:29:28.467884,-4
14:29:28.467884,-2049
14:29:28.467884,-1
14:29:28.467884,-14
14:29:28.467884,-2561
14:29:28.467884,-1
14:29:28.467884,-9
14:29:28.467884,-769
14:29:28.467884,-1
14:29:28.467884,0
14:29:28.467884,-1024
14:29:28.467884,-1
14:29:28.467884,-11
14:29:28.467884,-2561
14:29:28.467884,-1
14:29:28.467884,-9
14:29:28.467884,-2561
14:29:28.467884,-1
14:29:28.467884,-16
14:29:28.467884,-5121
14:29:28.467884,-1
14:29:28.467884,-16
14:29:28.467884,1279
14:29:28.467884,0
14:29:28.467884,19
14:29:28.467884,5376
14:29:28.467884,0
14:29:28.467884,26
14:29:28.467884,5376
14:29:28.467884,0
14:29:28.467884,4
14:29:28.467884,0
14:29:28.467884,0
14:29:28.467884,7
14:29:28.467884,1024
14:29:28.467884,0
14:29:28.467884,2
14:29:28.467884,2816
14:29:28.467884,0
14:29:28.467884,0
14:29:28.467884,-7936
14:29:28.467884,-1
14:29:28.467884,64
14:29:28.467884,-19200
14:29:28.467884,1
14:29:28.467884,1079
14:29:28.467884,21248
14:29:28.467884,6
14:29:28.467884,1306
14:29:28.467884,4608
14:29:28.467884,1
14:29:28.467884,-234
14:29:28.467884,-16641
14:29:28.467884,-1
14:29:28.467884,-81
14:29:28.467884,6655
14:29:28.467884,-1
14:29:28.467884,-176
14:29:28.467884,-30721
14:29:28.467884,-1
14:29:28.467884,-157
14:29:28.467884,28671
14:29:28.467884,-1
14:29:28.467884,-109
14:29:28.467884,-27649
14:29:28.467884,-1
14:29:28.467884,-105
14:29:28.467884,-20993
14:29:28.467884,-1
14:29:28.467884,-66
14:29:28.467884,-14849
14:29:28.467884,-1
14:29:28.467884,-50
14:29:28.467884,-7681
14:29:28.467884,-1
14:29:28.467884,-14
14:29:28.467884,767
14:29:28.467884,0
14:29:28.467884,19
14:29:29.007898,33
14:29:29.007898,13824
14:29:29.007898,0
14:29:29.007898,76
14:29:29.007898,19968
14:29:29.007898,0
14:29:29.007898,71
14:29:29.007898,16896
14:29:29.007898,0
14:29:29.007898,52
14:29:29.007898,7936
14:29:29.007898,0
14:29:29.007898,4
14:29:29.007898,-5888
14:29:29.007898,-1
14:29:29.007898,-52
14:29:29.007898,-17409
14:29:29.007898,-1
14:29:29.007898,-66
14:29:29.007898,-16641
14:29:29.007898,-1
14:29:29.007898,-74
14:29:29.007898,-19201
14:29:29.007898,-1
14:29:29.007898,-66
14:29:29.007898,-14337
14:29:29.007898,-1
14:29:29.007898,-52
14:29:29.007898,-12545
14:29:29.007898,-1
14:29:29.007898,-42
14:29:29.007898,-7681
14:29:29.007898,-1
14:29:29.007898,-26
14:29:29.007898,-7681
14:29:29.007898,-1
14:29:29.007898,-23
14:29:29.007898,-2049
14:29:29.007898,-1
14:29:29.007898,-9
14:29:29.007898,-1537
14:29:29.007898,-1
14:29:29.007898,-2
14:29:29.007898,-769
14:29:29.007898,-1
14:29:29.007898,-11
14:29:29.007898,-2561
14:29:29.007898,-1
14:29:29.007898,-7
14:29:29.007898,-2049
14:29:29.007898,-1
14:29:29.007898,-9
14:29:29.007898,-769
14:29:29.007898,-1
14:29:29.007898,-2
14:29:29.007898,-257
14:29:29.007898,-1
14:29:29.007898,-4
14:29:29.007898,-257
14:29:29.007898,-1
14:29:29.007898,2
14:29:29.007898,512
14:29:29.007898,0
14:29:29.007898,-9
14:29:29.007898,-4609
14:29:29.007898,-1
14:29:29.007898,-19
14:29:29.007898,-3841
14:29:29.007898,-1
14:29:29.007898,-11
14:29:29.007898,1279
14:29:29.007898,0
14:29:29.007898,16
14:29:29.007898,4864
14:29:29.007898,0
14:29:29.007898,21
14:29:29.007898,4864
14:29:29.007898,0
14:29:29.007898,9
14:29:29.007898,2304
14:29:29.007898,0
14:29:29.007898,7
14:29:29.007898,2304
14:29:29.007898,0
14:29:29.007898,16
14:29:29.007898,4864
14:29:29.007898,0
14:29:29.007898,-2
14:29:29.007898,-6913
14:29:29.007898,-1
14:29:29.007898,83
14:29:29.007898,-3328
14:29:29.007898,1
14:29:29.007898,1172
14:29:29.007898,-26624
14:29:29.007898,6
14:29:29.007898,1282
14:29:29.007898,-14336
14:29:29.007898,0
14:29:29.007898,-236
14:29:29.007898,-8705
14:29:29.007898,-1
14:29:29.007898,-93
14:29:29.007898,4095
14:29:29.007898,-1
14:29:29.007898,-152
14:29:29.007898,-27649
14:29:29.007898,-1
14:29:29.007898,-162
14:29:29.547901,-143
14:29:29.547901,-26625
14:29:29.547901,-1
14:29:29.547901,-107
14:29:29.547901,-24577
14:29:29.547901,-1
14:29:29.547901,-71
14:29:29.547901,-16129
14:29:29.547901,-1
14:29:29.547901,-62
14:29:29.547901,-9473
14:29:29.547901,-1
14:29:29.547901,-4
14:29:29.547901,6911
14:29:29.547901,0
14:29:29.547901,47
14:29:29.547901,15872
14:29:29.547901,0
14:29:29.547901,83
14:29:29.547901,26880
14:29:29.547901,0
14:29:29.547901,117
14:29:29.547901,29952
14:29:29.547901,0
14:29:29.547901,114
14:29:29.547901,27392
14:29:29.547901,0
14:29:29.547901,90
14:29:29.547901,15104
14:29:29.547901,0
14:29:29.547901,26
14:29:29.547901,-1792
14:29:29.547901,-1
14:29:29.547901,-40
14:29:29.547901,-15617
14:29:29.547901,-1
14:29:29.547901,-69
14:29:29.547901,-19713
14:29:29.547901,-1
14:29:29.547901,-83
14:29:29.547901,-18689
14:29:29.547901,-1
14:29:29.547901,-69
14:29:29.547901,-15617
14:29:29.547901,-1
14:29:29.547901,-45
14:29:29.547901,-9473
14:29:29.547901,-1
14:29:29.547901,-35
14:29:29.547901,-6401
14:29:29.547901,-1
14:29:29.547901,-16
14:29:29.547901,-3841
14:29:29.547901,-1
14:29:29.547901,-11
14:29:29.547901,-1537
14:29:29.547901,-1
14:29:29.547901,-9
14:29:29.547901,-1537
14:29:29.547901,-1
14:29:29.547901,2
14:29:29.547901,0
14:29:29.547901,0
14:29:29.547901,-4
14:29:29.547901,-769
14:29:29.547901,-1
14:29:29.547901,-2
14:29:29.547901,-257
14:29:29.547901,-1
14:29:29.547901,-4
14:29:29.547901,-2049
14:29:29.547901,-1
14:29:29.547901,-4
14:29:29.547901,767
14:29:29.547901,0
14:29:29.547901,2
14:29:29.547901,-512
14:29:29.547901,-1
14:29:29.547901,0
14:29:29.547901,512
14:29:29.547901,0
14:29:29.547901,0
14:29:29.547901,-512
14:29:29.547901,-1
14:29:29.547901,-7
14:29:29.547901,-3329
14:29:29.547901,-1
14:29:29.547901,-19
14:29:29.547901,-3329
14:29:29.547901,-1
14:29:29.547901,-4
14:29:29.547901,4351
14:29:29.547901,0
14:29:29.547901,31
14:29:29.547901,8448
14:29:29.547901,0
14:29:29.547901,28
14:29:29.547901,5376
14:29:29.547901,0
14:29:29.547901,11
14:29:29.547901,2816
14:29:29.547901,0
14:29:29.547901,14
14:29:29.547901,4096
14:29:29.547901,0
14:29:29.547901,19
14:29:29.547901,2816
14:29:29.547901,0
14:29:29.547901,-19
14:29:30.179219,0
14:29:30.179219,-6400
14:29:30.179219,0
14:29:30.179219,781
14:29:30.179219,-13056
14:29:30.179219,5
14:29:30.179219,1648
14:29:30.179219,4352
14:29:30.179219,3
14:29:30.179219,-117
14:29:30.179219,30463
14:29:30.179219,-1
14:29:30.179219,-7
14:29:30.179219,19967
14:29:30.179219,-1
14:29:30.179219,-200
14:29:30.179219,-26625
14:29:30.179219,-1
14:29:30.179219,-124
14:29:30.179219,27903
14:29:30.179219,-1
14:29:30.179219,-109
14:29:30.179219,-24577
14:29:30.179219,-1
14:29:30.179219,-102
14:29:30.179219,-22785
14:29:30.179219,-1
14:29:30.179219,-74
14:29:30.179219,-14849
14:29:30.179219,-1
14:29:30.179219,-45
14:29:30.179219,-9473
14:29:30.179219,-1
14:29:30.179219,-26
14:29:30.179219,-257
14:29:30.179219,-1
14:29:30.179219,19
14:29:30.179219,8960
14:29:30.179219,0
14:29:30.179219,57
14:29:30.179219,19456
14:29:30.179219,0
14:29:30.179219,88
14:29:30.179219,22528
14:29:30.179219,0
14:29:30.179219,81
14:29:30.179219,17664
14:29:30.179219,0
14:29:30.179219,45
14:29:30.179219,3584
14:29:30.179219,0
14:29:30.179219,-11
14:29:30.179219,-8705
14:29:30.179219,-1
14:29:30.179219,-57
14:29:30.179219,-19201
14:29:30.179219,-1
14:29:30.179219,-78
14:29:30.179219,-19201
14:29:30.179219,-1
14:29:30.179219,-78
14:29:30.179219,-19201
14:29:30.179219,-1
14:29:30.179219,-66
14:29:30.179219,-14337
14:29:30.179219,-1
14:29:30.179219,-54
14:29:30.179219,-13057
14:29:30.179219,-1
14:29:30.179219,-45
14:29:30.179219,-9473
14:29:30.179219,-1
14:29:30.179219,-35
14:29:30.179219,-8705
14:29:30.179219,-1
14:29:30.179219,-33
14:29:30.179219,-6913
14:29:30.179219,-1
14:29:30.179219,-19
14:29:30.179219,-2561
14:29:30.179219,-1
14:29:30.179219,-9
14:29:30.179219,-1537
14:29:30.179219,-1
14:29:30.179219,-9
14:29:30.179219,-3329
14:29:30.179219,-1
14:29:30.179219,-9
14:29:30.179219,-257
14:29:30.179219,-1
14:29:30.179219,-7
14:29:30.179219,-2561
14:29:30.179219,-1
14:29:30.179219,-7
14:29:30.179219,255
14:29:30.179219,0
14:29:30.179219,-2
14:29:30.179219,-769
14:29:30.179219,-1
14:29:30.179219,-4
14:29:30.179219,-1537
14:29:30.179219,-1
14:29:30.179219,-11
14:29:30.179219,-4609
14:29:30.179219,-1
14:29:30.179219,-21
14:29:30.179219,-3329
14:29:30.179219,-1
14:29:30.179219,0
14:29:30.672894,14
14:29:30.672894,6656
14:29:30.672894,0
14:29:30.672894,26
14:29:30.672894,4096
14:29:30.672894,0
14:29:30.672894,11
14:29:30.672894,2304
14:29:30.672894,0
14:29:30.672894,7
14:29:30.672894,2304
14:29:30.672894,0
14:29:30.672894,11
14:29:30.672894,3584
14:29:30.672894,0
14:29:30.672894,7
14:29:30.672894,-5376
14:29:30.672894,-1
14:29:30.672894,14
14:29:30.672894,5376
14:29:30.672894,1
14:29:30.672894,850
14:29:30.672894,-2048
14:29:30.672894,5
14:29:30.672894,1562
14:29:30.672894,26624
14:29:30.672894,2
14:29:30.672894,-171
14:29:30.672894,-27649
14:29:30.672894,-1
14:29:30.672894,-21
14:29:30.672894,18175
14:29:30.672894,-1
14:29:30.672894,-183
14:29:30.672894,-28417
14:29:30.672894,-1
14:29:30.672894,-140
14:29:30.672894,27903
14:29:30.672894,-1
14:29:30.672894,-117
14:29:30.672894,-27649
14:29:30.672894,-1
14:29:30.672894,-107
14:29:30.672894,-22785
14:29:30.672894,-1
14:29:30.672894,-78
14:29:30.672894,-19201
14:29:30.672894,-1
14:29:30.672894,-62
14:29:30.672894,-10497
14:29:30.672894,-1
14:29:30.672894,-28
14:29:30.672894,-2049
14:29:30.672894,-1
14:29:30.672894,9
14:29:30.672894,7936
14:29:30.672894,0
14:29:30.672894,52
14:29:30.672894,15872
14:29:30.672894,0
14:29:30.672894,64
14:29:30.672894,16384
14:29:30.672894,0
14:29:30.672894,59
14:29:30.672894,12800
14:29:30.672894,0
14:29:30.672894,31
14:29:30.672894,1024
14:29:30.672894,0
14:29:30.672894,-31
14:29:30.672894,-14849
14:29:30.672894,-1
14:29:30.672894,-78
14:29:30.672894,-22273
14:29:30.672894,-1
14:29:30.672894,-93
14:29:30.672894,-22785
14:29:30.672894,-1
14:29:30.672894,-85
14:29:30.672894,-17921
14:29:30.672894,-1
14:29:30.672894,-71
14:29:30.672894,-19201
14:29:30.672894,-1
14:29:30.672894,-69
14:29:30.672894,-13569
14:29:30.672894,-1
14:29:30.672894,-50
14:29:30.672894,-12545
14:29:30.672894,-1
14:29:30.672894,-47
14:29:30.672894,-11265
14:29:30.672894,-1
14:29:30.672894,-45
14:29:30.672894,-10497
14:29:30.672894,-1
14:29:30.672894,-35
14:29:30.672894,-7681
14:29:30.672894,-1
14:29:30.672894,-31
14:29:30.672894,-6401
14:29:30.672894,-1
14:29:30.672894,-16
14:29:30.672894,-5121
14:29:30.672894,-1
14:29:30.672894,-23
14:29:30.672894,-3841
14:29:30.672894,-1
14:29:30.672894,-14
14:29:31.213196,-16
14:29:31.213196,-3329
14:29:31.213196,-1
14:29:31.213196,-16
14:29:31.213196,-3329
14:29:31.213196,-1
14:29:31.213196,-7
14:29:31.213196,-2049
14:29:31.213196,-1
14:29:31.213196,-9
14:29:31.213196,1279
14:29:31.213196,0
14:29:31.213196,4
14:29:31.213196,-2816
14:29:31.213196,-1
14:29:31.213196,-16
14:29:31.213196,767
14:29:31.213196,0
14:29:31.213196,26
14:29:31.213196,8960
14:29:31.213196,0
14:29:31.213196,33
14:29:31.213196,7168
14:29:31.213196,0
14:29:31.213196,21
14:29:31.213196,2816
14:29:31.213196,0
14:29:31.213196,7
14:29:31.213196,1792
14:29:31.213196,0
14:29:31.213196,7
14:29:31.213196,2304
14:29:31.213196,0
14:29:31.213196,14
14:29:31.213196,-2304
14:29:31.213196,-1
14:29:31.213196,-19
14:29:31.213196,-19457
14:29:31.213196,0
14:29:31.213196,683
14:29:31.213196,15104
14:29:31.213196,5
14:29:31.213196,1605
14:29:31.213196,-30464
14:29:31.213196,3
14:29:31.213196,-47
14:29:31.213196,18943
14:29:31.213196,-1
14:29:31.213196,-23
14:29:31.213196,22015
14:29:31.213196,-1
14:29:31.213196,-234
14:29:31.213196,30463
14:29:31.213196,-1
14:29:31.213196,-138
14:29:31.213196,23807
14:29:31.213196,-1
14:29:31.213196,-136
14:29:31.213196,-30209
14:29:31.213196,-1
14:29:31.213196,-121
14:29:31.213196,-26625
14:29:31.213196,-1
14:29:31.213196,-85
14:29:31.213196,-19201
14:29:31.213196,-1
14:29:31.213196,-66
14:29:31.213196,-13057
14:29:31.213196,-1
14:29:31.213196,-35
14:29:31.213196,-3841
14:29:31.213196,-1
14:29:31.213196,2
14:29:31.213196,6656
14:29:31.213196,0
14:29:31.213196,57
14:29:31.213196,18176
14:29:31.213196,0
14:29:31.213196,76
14:29:31.213196,21760
14:29:31.213196,0
14:29:31.213196,76
14:29:31.213196,13312
14:29:31.213196,0
14:29:31.213196,31
14:29:31.213196,2304
14:29:31.213196,0
14:29:31.213196,-21
14:29:31.213196,-14337
14:29:31.213196,-1
14:29:31.213196,-81
14:29:31.213196,-22785
14:29:31.213196,-1
14:29:31.213196,-95
14:29:31.213196,-25345
14:29:31.213196,-1
14:29:31.213196,-102
14:29:31.213196,-24065
14:29:31.213196,-1
14:29:31.213196,-81
14:29:31.213196,-17409
14:29:31.213196,-1
14:29:31.213196,-62
14:29:31.213196,-13057
14:29:31.213196,-1
14:29:31.213196,-45
14:29:31.213196,-10497
14:29:31.213196,-1
14:29:31.213196,-33
14:29:31.842842,-26
14:29:31.842842,-6401
14:29:31.842842,-1
14:29:31.842842,-21
14:29:31.842842,-3329
14:29:31.842842,-1
14:29:31.842842,0
14:29:31.842842,2816
14:29:31.842842,0
14:29:31.842842,9
14:29:31.842842,512
14:29:31.842842,0
14:29:31.842842,4
14:29:31.842842,512
14:29:31.842842,0
14:29:31.842842,2
14:29:31.842842,1024
14:29:31.842842,0
14:29:31.842842,4
14:29:31.842842,1792
14:29:31.842842,0
14:29:31.842842,7
14:29:31.842842,2304
14:29:31.842842,0
14:29:31.842842,9
14:29:31.842842,512
14:29:31.842842,0
14:29:31.842842,0
14:29:31.842842,-512
14:29:31.842842,-1
14:29:31.842842,-4
14:29:31.842842,-769
14:29:31.842842,-1
14:29:31.842842,0
14:29:31.842842,2304
14:29:31.842842,0
14:29:31.842842,23
14:29:31.842842,9728
14:29:31.842842,0
14:29:31.842842,45
14:29:31.842842,9728
14:29:31.842842,0
14:29:31.842842,26
14:29:31.842842,4864
14:29:31.842842,0
14:29:31.842842,16
14:29:31.842842,4864
14:29:31.842842,0
14:29:31.842842,21
14:29:31.842842,7168
14:29:31.842842,0
14:29:31.842842,19
14:29:31.842842,-5376
14:29:31.842842,-1
14:29:31.842842,40
14:29:31.842842,-32256
14:29:31.842842,1
14:29:31.842842,1015
14:29:31.842842,23040
14:29:31.842842,6
14:29:31.842842,1471
14:29:31.842842,-18176
14:29:31.842842,1
14:29:31.842842,-219
14:29:31.842842,-20993
14:29:31.842842,-1
14:29:31.842842,-50
14:29:31.842842,10239
14:29:31.842842,-1
14:29:31.842842,-181
14:29:31.842842,-29697
14:29:31.842842,-1
14:29:31.842842,-157
14:29:31.842842,26879
14:29:31.842842,-1
14:29:31.842842,-112
14:29:31.842842,-27649
14:29:31.842842,-1
14:29:31.842842,-112
14:29:31.842842,-23553
14:29:31.842842,-1
14:29:31.842842,-74
14:29:31.842842,-16641
14:29:31.842842,-1
14:29:31.842842,-54
14:29:31.842842,-8193
14:29:31.842842,-1
14:29:31.842842,-9
14:29:31.842842,767
14:29:31.842842,0
14:29:31.842842,21
14:29:31.842842,11520
14:29:31.842842,0
14:29:31.842842,62
14:29:31.842842,19968
14:29:31.842842,0
14:29:31.842842,88
14:29:31.842842,19456
14:29:31.842842,0
14:29:31.842842,62
14:29:31.842842,12032
14:29:31.842842,0
14:29:31.842842,26
14:29:31.842842,-1792
14:29:31.842842,-1
14:29:31.842842,-35
14:29:31.842842,-14337
14:29:31.842842,-1
14:29:31.842842,-78
14:29:32.382892,-88
14:29:32.382892,-22273
14:29:32.382892,-1
14:29:32.382892,-83
14:29:32.382892,-20481
14:29:32.382892,-1
14:29:32.382892,-83
14:29:32.382892,-19713
14:29:32.382892,-1
14:29:32.382892,-66
14:29:32.382892,-15617
14:29:32.382892,-1
14:29:32.382892,-64
14:29:32.382892,-14337
14:29:32.382892,-1
14:29:32.382892,-45
14:29:32.382892,-9985
14:29:32.382892,-1
14:29:32.382892,-31
14:29:32.382892,-3329
14:29:32.382892,-1
14:29:32.382892,-4
14:29:32.382892,-257
14:29:32.382892,-1
14:29:32.382892,-2
14:29:32.382892,255
14:29:32.382892,0
14:29:32.382892,4
14:29:32.382892,1792
14:29:32.382892,0
14:29:32.382892,4
14:29:32.382892,1024
14:29:32.382892,0
14:29:32.382892,4
14:29:32.382892,-512
14:29:32.382892,-1
14:29:32.382892,-7
14:29:32.382892,767
14:29:32.382892,0
14:29:32.382892,7
14:29:32.382892,512
14:29:32.382892,0
14:29:32.382892,0
14:29:32.382892,0
14:29:32.382892,0
14:29:32.382892,2
14:29:32.382892,0
14:29:32.382892,0
14:29:32.382892,-7
14:29:32.382892,-3329
14:29:32.382892,-1
14:29:32.382892,-16
14:29:32.382892,-2561
14:29:32.382892,-1
14:29:32.382892,2
14:29:32.382892,4864
14:29:32.382892,0
14:29:32.382892,26
14:29:32.382892,5888
14:29:32.382892,0
14:29:32.382892,19
14:29:32.382892,3584
14:29:32.382892,0
14:29:32.382892,9
14:29:32.382892,2304
14:29:32.382892,0
14:29:32.382892,11
14:29:32.382892,1792
14:29:32.382892,0
14:29:32.382892,9
14:29:32.382892,1792
14:29:32.382892,0
14:29:32.382892,-16
14:29:32.382892,7423
14:29:32.382892,0
14:29:32.382892,322
14:29:32.382892,-25088
14:29:32.382892,3
14:29:32.382892,1578
14:29:32.382892,-4352
14:29:32.382892,5
14:29:32.382892,527
14:29:32.382892,11264
14:29:32.382892,-1
14:29:32.382892,-117
14:29:32.382892,-11265
14:29:32.382892,-1
14:29:32.382892,-219
14:29:32.382892,13823
14:29:32.382892,-1
14:29:32.382892,-124
14:29:32.382892,26879
14:29:32.382892,-1
14:29:32.382892,-160
14:29:32.382892,32255
14:29:32.382892,-1
14:29:32.382892,-128
14:29:32.382892,-30721
14:29:32.382892,-1
14:29:32.382892,-102
14:29:32.382892,-23553
14:29:32.382892,-1
14:29:32.382892,-85
14:29:32.382892,-17921
14:29:32.382892,-1
14:29:32.382892,-54
14:29:32.382892,-8193
14:29:32.382892,-1
14:29:32.382892,-19
14:29:32.922887,-7
14:29:32.922887,4351
14:29:32.922887,0
14:29:32.922887,40
14:29:32.922887,14592
14:29:32.922887,0
14:29:32.922887,69
14:29:32.922887,16384
14:29:32.922887,0
14:29:32.922887,47
14:29:32.922887,8448
14:29:32.922887,0
14:29:32.922887,19
14:29:32.922887,-1792
14:29:32.922887,-1
14:29:32.922887,-33
14:29:32.922887,-11777
14:29:32.922887,-1
14:29:32.922887,-57
14:29:32.922887,-16641
14:29:32.922887,-1
14:29:32.922887,-71
14:29:32.922887,-17409
14:29:32.922887,-1
14:29:32.922887,-64
14:29:32.922887,-14849
14:29:32.922887,-1
14:29:32.922887,-57
14:29:32.922887,-14337
14:29:32.922887,-1
14:29:32.922887,-54
14:29:32.922887,-11777
14:29:32.922887,-1
14:29:32.922887,-38
14:29:32.922887,-9473
14:29:32.922887,-1
14:29:32.922887,-42
14:29:32.922887,-8705
14:29:32.922887,-1
14:29:32.922887,-26
14:29:32.922887,-6913
14:29:32.922887,-1
14:29:32.922887,-21
14:29:32.922887,-3329
14:29:32.922887,-1
14:29:32.922887,-21
14:29:32.922887,-5633
14:29:32.922887,-1
14:29:32.922887,-19
14:29:32.922887,-3329
14:29:32.922887,-1
14:29:32.922887,-11
14:29:32.922887,-2561
14:29:32.922887,-1
14:29:32.922887,-14
14:29:32.922887,-3329
14:29:32.922887,-1
14:29:32.922887,-9
14:29:32.922887,-257
14:29:32.922887,-1
14:29:32.922887,-2
14:29:32.922887,-1537
14:29:32.922887,-1
14:29:32.922887,-7
14:29:32.922887,-1537
14:29:32.922887,-1
14:29:32.922887,-11
14:29:32.922887,-4609
14:29:32.922887,-1
14:29:32.922887,-19
14:29:32.922887,-4609
14:29:32.922887,-1
14:29:32.922887,-9
14:29:32.922887,2047
14:29:32.922887,0
14:29:32.922887,21
14:29:32.922887,5888
14:29:32.922887,0
14:29:32.922887,19
14:29:32.922887,2304
14:29:32.922887,0
14:29:32.922887,2
14:29:32.922887,-512
14:29:32.922887,-1
14:29:32.922887,0
14:29:32.922887,2304
14:29:32.922887,0
14:29:32.922887,11
14:29:32.922887,-512
14:29:32.922887,-1
14:29:32.922887,-26
14:29:32.922887,-6401
14:29:32.922887,-1
14:29:32.922887,164
14:29:32.922887,-27392
14:29:32.922887,2
14:29:32.922887,1332
14:29:32.922887,22528
14:29:32.922887,6
14:29:32.922887,933
14:29:32.922887,-10752
14:29:32.922887,-1
14:29:32.922887,-203
14:29:32.922887,-8193
14:29:32.922887,-1
14:29:32.922887,-169
14:29:32.922887,4095
14:29:32.922887,-1
14:29:32.922887,-150
14:29:33.463829,-157
14:29:33.463829,18175
14:29:33.463829,-1
14:29:33.463829,-143
14:29:33.463829,-30721
14:29:33.463829,-1
14:29:33.463829,-133
14:29:33.463829,-30721
14:29:33.463829,-1
14:29:33.463829,-95
14:29:33.463829,-19201
14:29:33.463829,-1
14:29:33.463829,-54
14:29:33.463829,-7681
14:29:33.463829,-1
14:29:33.463829,-26
14:29:33.463829,-3841
14:29:33.463829,-1
14:29:33.463829,11
14:29:33.463829,10752
14:29:33.463829,0
14:29:33.463829,59
14:29:33.463829,18944
14:29:33.463829,0
14:29:33.463829,85
14:29:33.463829,21248
14:29:33.463829,0
14:29:33.463829,76
14:29:33.463829,15104
14:29:33.463829,0
14:29:33.463829,26
14:29:33.463829,-512
14:29:33.463829,-1
14:29:33.463829,-31
14:29:33.463829,-16641
14:29:33.463829,-1
14:29:33.463829,-88
14:29:33.463829,-22785
14:29:33.463829,-1
14:29:33.463829,-102
14:29:33.463829,-27649
14:29:33.463829,-1
14:29:33.463829,-107
14:29:33.463829,-25857
14:29:33.463829,-1
14:29:33.463829,-97
14:29:33.463829,-20993
14:29:33.463829,-1
14:29:33.463829,-66
14:29:33.463829,-14849
14:29:33.463829,-1
14:29:33.463829,-52
14:29:33.463829,-10497
14:29:33.463829,-1
14:29:33.463829,-33
14:29:33.463829,-5121
14:29:33.463829,-1
14:29:33.463829,-19
14:29:33.463829,-6401
14:29:33.463829,-1
14:29:33.463829,-21
14:29:33.463829,-2561
14:29:33.463829,-1
14:29:33.463829,-9
14:29:33.463829,-1537
14:29:33.463829,-1
14:29:33.463829,-7
14:29:33.463829,-3329
14:29:33.463829,-1
14:29:33.463829,-16
14:29:33.463829,-3841
14:29:33.463829,-1
14:29:33.463829,-14
14:29:33.463829,-2561
14:29:33.463829,-1
14:29:33.463829,-11
14:29:33.463829,-2561
14:29:33.463829,-1
14:29:33.463829,-4
14:29:33.463829,-2049
14:29:33.463829,-1
14:29:33.463829,-14
14:29:33.463829,-1537
14:29:33.463829,-1
14:29:33.463829,-11
14:29:33.463829,-6401
14:29:33.463829,-1
14:29:33.463829,-35
14:29:33.463829,-7681
14:29:33.463829,-1
14:29:33.463829,-4
14:29:33.463829,5119
14:29:33.463829,0
14:29:33.463829,19
14:29:33.463829,4096
14:29:33.463829,0
14:29:33.463829,26
14:29:33.463829,5888
14:29:33.463829,0
14:29:33.463829,9
14:29:33.463829,2304
14:29:33.463829,0
14:29:33.463829,19
14:29:33.463829,4096
14:29:33.463829,0
14:29:33.463829,7
14:29:33.463829,1792
14:29:33.463829,0
14:29:33.463829,-16
14:29:34.048630,0
14:29:34.048630,1024
14:29:34.048630,1
14:29:34.048630,855
14:29:34.048630,3584
14:29:34.048630,6
14:29:34.048630,1645
14:29:34.048630,-8960
14:29:34.048630,2
14:29:34.048630,-140
14:29:34.048630,-32001
14:29:34.048630,-1
14:29:34.048630,-4
14:29:34.048630,18943
14:29:34.048630,-1
14:29:34.048630,-200
14:29:34.048630,-28417
14:29:34.048630,-1
14:29:34.048630,-138
14:29:34.048630,26879
14:29:34.048630,-1
14:29:34.048630,-112
14:29:34.048630,-26625
14:29:34.048630,-1
14:29:34.048630,-109
14:29:34.048630,-21505
14:29:34.048630,-1
14:29:34.048630,-69
14:29:34.048630,-16641
14:29:34.048630,-1
14:29:34.048630,-52
14:29:34.048630,-8705
14:29:34.048630,-1
14:29:34.048630,-23
14:29:34.048630,-257
14:29:34.048630,-1
14:29:34.048630,28
14:29:34.048630,13312
14:29:34.048630,0
14:29:34.048630,76
14:29:34.048630,24320
14:29:34.048630,0
14:29:34.048630,105
14:29:34.048630,25600
14:29:34.048630,0
14:29:34.048630,83
14:29:34.048630,16896
14:29:34.048630,0
14:29:34.048630,40
14:29:34.048630,512
14:29:34.048630,0
14:29:34.048630,-33
14:29:34.048630,-13569
14:29:34.048630,-1
14:29:34.048630,-69
14:29:34.048630,-19713
14:29:34.048630,-1
14:29:34.048630,-88
14:29:34.048630,-22785
14:29:34.048630,-1
14:29:34.048630,-88
14:29:34.048630,-20993
14:29:34.048630,-1
14:29:34.048630,-74
14:29:34.048630,-16641
14:29:34.048630,-1
14:29:34.048630,-59
14:29:34.048630,-12545
14:29:34.048630,-1
14:29:34.048630,-42
14:29:34.048630,-9473
14:29:34.048630,-1
14:29:34.048630,-33
14:29:34.048630,-6401
14:29:34.048630,-1
14:29:34.048630,-21
14:29:34.048630,-3841
14:29:34.048630,-1
14:29:34.048630,-7
14:29:34.048630,255
14:29:34.048630,0
14:29:34.048630,4
14:29:34.048630,1792
14:29:34.048630,0
14:29:34.048630,0
14:29:34.048630,-512
14:29:34.048630,-1
14:29:34.048630,-4
14:29:34.048630,-257
14:29:34.048630,-1
14:29:34.048630,7
14:29:34.048630,2304
14:29:34.048630,0
14:29:34.048630,-2
14:29:34.048630,-769
14:29:34.048630,-1
14:29:34.048630,4
14:29:34.048630,1024
14:29:34.048630,0
14:29:34.048630,-2
14:29:34.048630,767
14:29:34.048630,0
14:29:34.048630,9
14:29:34.048630,1024
14:29:34.048630,0
14:29:34.048630,-4
14:29:34.048630,-2049
14:29:34.048630,-1
14:29:34.048630,-19
14:29:34.678610,-21
14:29:34.678610,-769
14:29:34.678610,-1
14:29:34.678610,14
14:29:34.678610,7168
14:29:34.678610,0
14:29:34.678610,35
14:29:34.678610,7168
14:29:34.678610,0
14:29:34.678610,14
14:29:34.678610,3584
14:29:34.678610,0
14:29:34.678610,23
14:29:34.678610,7168
14:29:34.678610,0
14:29:34.678610,31
14:29:34.678610,5888
14:29:34.678610,0
14:29:34.678610,16
14:29:34.678610,1024
14:29:34.678610,0
14:29:34.678610,-4
14:29:34.678610,-32513
14:29:34.678610,0
14:29:34.678610,573
14:29:34.678610,4864
14:29:34.678610,5
14:29:34.678610,1755
14:29:34.678610,-28928
14:29:34.678610,4
14:29:34.678610,85
14:29:34.678610,9984
14:29:34.678610,-1
14:29:34.678610,-28
14:29:34.678610,-29697
14:29:34.678610,-1
14:29:34.678610,-217
14:29:34.678610,27391
14:29:34.678610,-1
14:29:34.678610,-136
14:29:34.678610,27391
14:29:34.678610,-1
14:29:34.678610,-126
14:29:34.678610,-30209
14:29:34.678610,-1
14:29:34.678610,-128
14:29:34.678610,-27649
14:29:34.678610,-1
14:29:34.678610,-83
14:29:34.678610,-19201
14:29:34.678610,-1
14:29:34.678610,-76
14:29:34.678610,-16641
14:29:34.678610,-1
14:29:34.678610,-40
14:29:34.678610,-5121
14:29:34.678610,-1
14:29:34.678610,-21
14:29:34.678610,-769
14:29:34.678610,-1
14:29:34.678610,33
14:29:34.678610,14592
14:29:34.678610,0
14:29:34.678610,64
14:29:34.678610,18944
14:29:34.678610,0
14:29:34.678610,66
14:29:34.678610,10752
14:29:34.678610,0
14:29:34.678610,19
14:29:34.678610,-1792
14:29:34.678610,-1
14:29:34.678610,-21
14:29:34.678610,-8193
14:29:34.678610,-1
14:29:34.678610,-74
14:29:34.678610,-24577
14:29:34.678610,-1
14:29:34.678610,-88
14:29:34.678610,-23553
14:29:34.678610,-1
14:29:34.678610,-102
14:29:34.678610,-24577
14:29:34.678610,-1
14:29:34.678610,-100
14:29:34.678610,-25857
14:29:34.678610,-1
14:29:34.678610,-95
14:29:34.678610,-20481
14:29:34.678610,-1
14:29:34.678610,-62
14:29:34.678610,-14849
14:29:34.678610,-1
14:29:34.678610,-69
14:29:34.678610,-17409
14:29:34.678610,-1
14:29:34.678610,-76
14:29:34.678610,-19713
14:29:34.678610,-1
14:29:34.678610,-62
14:29:34.678610,-14337
14:29:34.678610,-1
14:29:34.678610,-62
14:29:34.678610,-14337
14:29:34.678610,-1
14:29:34.678610,-47
14:29:34.678610,-10497
14:29:34.678610,-1
14:29:34.678610,-50
14:29:35.173960,-59
14:29:35.173960,-12545
14:29:35.173960,-1
14:29:35.173960,-40
14:29:35.173960,-10497
14:29:35.173960,-1
14:29:35.173960,-45
14:29:35.173960,-8193
14:29:35.173960,-1
14:29:35.173960,-23
14:29:35.173960,-6401
14:29:35.173960,-1
14:29:35.173960,-33
14:29:35.173960,-8705
14:29:35.173960,-1
14:29:35.173960,-47
14:29:35.173960,-13057
14:29:35.173960,-1
14:29:35.173960,-45
14:29:35.173960,-8705
14:29:35.173960,-1
14:29:35.173960,-23
14:29:35.173960,-769
14:29:35.173960,-1
14:29:35.173960,4
14:29:35.173960,2304
14:29:35.173960,0
14:29:35.173960,19
14:29:35.173960,3584
14:29:35.173960,0
14:29:35.173960,2
14:29:35.173960,0
14:29:35.173960,0
14:29:35.173960,9
14:29:35.173960,3584
14:29:35.173960,0
14:29:35.173960,9
14:29:35.173960,-2304
14:29:35.173960,-1
14:29:35.173960,-33
14:29:35.173960,20223
14:29:35.173960,0
14:29:35.173960,499
14:29:35.173960,-18944
14:29:35.173960,4
14:29:35.173960,1748
14:29:35.173960,7936
14:29:35.173960,5
14:29:35.173960,186
14:29:35.173960,-1024
14:29:35.173960,-2
14:29:35.173960,-52
14:29:35.173960,-25345
14:29:35.173960,-1
14:29:35.173960,-250
14:29:35.173960,18943
14:29:35.173960,-1
14:29:35.173960,-145
14:29:35.173960,19455
14:29:35.173960,-1
14:29:35.173960,-162
14:29:35.173960,-32001
14:29:35.173960,-1
14:29:35.173960,-128
14:29:35.173960,-32001
14:29:35.173960,-1
14:29:35.173960,-107
14:29:35.173960,-23553
14:29:35.173960,-1
14:29:35.173960,-78
14:29:35.173960,-13569
14:29:35.173960,-1
14:29:35.173960,-40
14:29:35.173960,-6401
14:29:35.173960,-1
14:29:35.173960,0
14:29:35.173960,6656
14:29:35.173960,0
14:29:35.173960,52
14:29:35.173960,18944
14:29:35.173960,0
14:29:35.173960,93
14:29:35.173960,25600
14:29:35.173960,0
14:29:35.173960,88
14:29:35.173960,18176
14:29:35.173960,0
14:29:35.173960,57
14:29:35.173960,5888
14:29:35.173960,0
14:29:35.173960,-21
14:29:35.173960,-13057
14:29:35.173960,-1
14:29:35.173960,-74
14:29:35.173960,-23553
14:29:35.173960,-1
14:29:35.173960,-102
14:29:35.173960,-23553
14:29:35.173960,-1
14:29:35.173960,-90
14:29:35.173960,-24577
14:29:35.173960,-1
