timestamp,ecg,reconstructed_time
2025-11-07 11:43:11.760782,-251,2025-11-07 11:43:11.760782000
2025-11-07 11:43:11.760782,27135,2025-11-07 11:43:11.768474308
2025-11-07 11:43:11.760782,-1,2025-11-07 11:43:11.776166615
2025-11-07 11:43:11.760782,505,2025-11-07 11:43:11.783858923
2025-11-07 11:43:11.760782,-7680,2025-11-07 11:43:11.791551231
2025-11-07 11:43:11.760782,5,2025-11-07 11:43:11.799243538
2025-11-07 11:43:11.760782,1726,2025-11-07 11:43:11.806935846
2025-11-07 11:43:11.760782,20224,2025-11-07 11:43:11.814628154
2025-11-07 11:43:11.760782,5,2025-11-07 11:43:11.822320462
2025-11-07 11:43:11.760782,1252,2025-11-07 11:43:11.830012769
2025-11-07 11:43:11.760782,-30208,2025-11-07 11:43:11.837705077
2025-11-07 11:43:11.760782,4,2025-11-07 11:43:11.845397385
2025-11-07 11:43:11.760782,858,2025-11-07 11:43:11.853089692
2025-11-07 11:43:11.760782,26112,2025-11-07 11:43:11.860782000
2025-11-07 11:43:11.760782,2,2025-11-07 11:43:11.868474308
2025-11-07 11:43:11.760782,427,2025-11-07 11:43:11.876166615
2025-11-07 11:43:11.760782,-21248,2025-11-07 11:43:11.883858923
2025-11-07 11:43:11.760782,0,2025-11-07 11:43:11.891551231
2025-11-07 11:43:11.760782,-73,2025-11-07 11:43:11.899243538
2025-11-07 11:43:11.760782,-6913,2025-11-07 11:43:11.906935846
2025-11-07 11:43:11.760782,-2,2025-11-07 11:43:11.914628154
2025-11-07 11:43:11.760782,-500,2025-11-07 11:43:11.922320462
2025-11-07 11:43:11.760782,15359,2025-11-07 11:43:11.930012769
2025-11-07 11:43:11.760782,-3,2025-11-07 11:43:11.937705077
2025-11-07 11:43:11.760782,-887,2025-11-07 11:43:11.945397385
2025-11-07 11:43:11.760782,-8449,2025-11-07 11:43:11.953089692
2025-11-07 11:43:11.760782,-5,2025-11-07 11:43:11.960782000
2025-11-07 11:43:11.760782,-1216,2025-11-07 11:43:11.968474308
2025-11-07 11:43:11.760782,-16385,2025-11-07 11:43:11.976166615
2025-11-07 11:43:11.760782,-6,2025-11-07 11:43:11.983858923
2025-11-07 11:43:11.760782,-1456,2025-11-07 11:43:11.991551231
2025-11-07 11:43:11.760782,-4865,2025-11-07 11:43:11.999243538
2025-11-07 11:43:11.760782,-7,2025-11-07 11:43:12.006935846
2025-11-07 11:43:11.760782,-1636,2025-11-07 11:43:12.014628154
2025-11-07 11:43:11.760782,19455,2025-11-07 11:43:12.022320462
2025-11-07 11:43:11.760782,-7,2025-11-07 11:43:12.030012769
2025-11-07 11:43:11.760782,-1802,2025-11-07 11:43:12.037705077
2025-11-07 11:43:11.760782,-24321,2025-11-07 11:43:12.045397385
2025-11-07 11:43:11.760782,-8,2025-11-07 11:43:12.053089692
2025-11-07 11:43:11.760782,-1968,2025-11-07 11:43:12.060782000
2025-11-07 11:43:11.760782,-1281,2025-11-07 11:43:12.068474308
2025-11-07 11:43:11.760782,-9,2025-11-07 11:43:12.076166615
2025-11-07 11:43:11.760782,-2139,2025-11-07 11:43:12.083858923
2025-11-07 11:43:11.760782,22271,2025-11-07 11:43:12.091551231
2025-11-07 11:43:11.760782,-9,2025-11-07 11:43:12.099243538
2025-11-07 11:43:11.760782,-2291,2025-11-07 11:43:12.106935846
2025-11-07 11:43:11.760782,-14593,2025-11-07 11:43:12.114628154
2025-11-07 11:43:11.760782,-10,2025-11-07 11:43:12.122320462
2025-11-07 11:43:11.760782,-2429,2025-11-07 11:43:12.130012769
2025-11-07 11:43:11.760782,17407,2025-11-07 11:43:12.137705077
2025-11-07 11:43:11.760782,-10,2025-11-07 11:43:12.145397385
2025-11-07 11:43:11.760782,-2550,2025-11-07 11:43:12.153089692
2025-11-07 11:43:11.760782,-10497,2025-11-07 11:43:12.160782000
2025-11-07 11:43:11.760782,-11,2025-11-07 11:43:12.168474308
2025-11-07 11:43:11.760782,-2652,2025-11-07 11:43:12.176166615
2025-11-07 11:43:11.760782,30207,2025-11-07 11:43:12.183858923
2025-11-07 11:43:11.760782,-11,2025-11-07 11:43:12.191551231
2025-11-07 11:43:11.760782,-2747,2025-11-07 11:43:12.199243538
2025-11-07 11:43:11.760782,7679,2025-11-07 11:43:12.206935846
2025-11-07 11:43:11.760782,-11,2025-11-07 11:43:12.214628154
2025-11-07 11:43:11.760782,-2818,2025-11-07 11:43:12.222320462
2025-11-07 11:43:11.760782,-8705,2025-11-07 11:43:12.230012769
2025-11-07 11:43:11.760782,-12,2025-11-07 11:43:12.237705077
2025-11-07 11:43:11.760782,-2879,2025-11-07 11:43:12.245397385
2025-11-07 11:43:11.760782,-21505,2025-11-07 11:43:12.253089692
2025-11-07 11:43:11.760782,-12,2025-11-07 11:43:12.260782000
2025-11-07 11:43:11.760782,-2936,2025-11-07 11:43:12.268474308
2025-11-07 11:43:11.760782,27647,2025-11-07 11:43:12.276166615
2025-11-07 11:43:11.760782,-12,2025-11-07 11:43:12.283858923
2025-11-07 11:43:11.760782,-2972,2025-11-07 11:43:12.291551230
2025-11-07 11:43:11.760782,22271,2025-11-07 11:43:12.299243538
2025-11-07 11:43:11.760782,-12,2025-11-07 11:43:12.306935846
2025-11-07 11:43:11.760782,-3005,2025-11-07 11:43:12.314628154
2025-11-07 11:43:11.760782,13823,2025-11-07 11:43:12.322320462
2025-11-07 11:43:11.760782,-12,2025-11-07 11:43:12.330012769
2025-11-07 11:43:11.760782,-3034,2025-11-07 11:43:12.337705077
2025-11-07 11:43:11.760782,6399,2025-11-07 11:43:12.345397385
2025-11-07 11:43:11.760782,-12,2025-11-07 11:43:12.353089692
2025-11-07 11:43:11.760782,-3057,2025-11-07 11:43:12.360782000
2025-11-07 11:43:11.760782,2303,2025-11-07 11:43:12.368474308
2025-11-07 11:43:11.760782,-12,2025-11-07 11:43:12.376166615
2025-11-07 11:43:11.760782,-3067,2025-11-07 11:43:12.383858923
2025-11-07 11:43:11.760782,255,2025-11-07 11:43:12.391551231
2025-11-07 11:43:11.760782,-12,2025-11-07 11:43:12.399243538
2025-11-07 11:43:11.760782,-3083,2025-11-07 11:43:12.406935846
2025-11-07 11:43:11.760782,-3329,2025-11-07 11:43:12.414628154
2025-11-07 11:43:11.760782,-13,2025-11-07 11:43:12.422320462
2025-11-07 11:43:11.760782,-3091,2025-11-07 11:43:12.430012769
2025-11-07 11:43:11.760782,-9985,2025-11-07 11:43:12.437705077
2025-11-07 11:43:11.760782,-13,2025-11-07 11:43:12.445397385
2025-11-07 11:43:11.760782,-3126,2025-11-07 11:43:12.453089692
2025-11-07 11:43:11.760782,-12289,2025-11-07 11:43:12.460782000
2025-11-07 11:43:11.760782,-13,2025-11-07 11:43:12.468474308
2025-11-07 11:43:11.760782,-3112,2025-11-07 11:43:12.476166615
2025-11-07 11:43:11.760782,-8193,2025-11-07 11:43:12.483858923
2025-11-07 11:43:11.760782,-13,2025-11-07 11:43:12.491551231
2025-11-07 11:43:11.760782,-3095,2025-11-07 11:43:12.499243538
2025-11-07 11:43:11.760782,255,2025-11-07 11:43:12.506935846
2025-11-07 11:43:11.760782,-12,2025-11-07 11:43:12.514628154
2025-11-07 11:43:11.760782,-3050,2025-11-07 11:43:12.522320462
2025-11-07 11:43:11.760782,5119,2025-11-07 11:43:12.530012769
2025-11-07 11:43:11.760782,-12,2025-11-07 11:43:12.537705077
2025-11-07 11:43:11.760782,-3060,2025-11-07 11:43:12.545397385
2025-11-07 11:43:11.760782,7167,2025-11-07 11:43:12.553089692
2025-11-07 11:43:11.760782,-12,2025-11-07 11:43:12.560782000
2025-11-07 11:43:11.760782,-3026,2025-11-07 11:43:12.568474308
2025-11-07 11:43:11.760782,13055,2025-11-07 11:43:12.576166615
2025-11-07 11:43:11.760782,-12,2025-11-07 11:43:12.583858923
2025-11-07 11:43:11.760782,-3012,2025-11-07 11:43:12.591551231
2025-11-07 11:43:12.310748,-3000,2025-11-07 11:43:12.599243538
2025-11-07 11:43:12.310748,19711,2025-11-07 11:43:12.606935846
2025-11-07 11:43:12.310748,-12,2025-11-07 11:43:12.614628154
2025-11-07 11:43:12.310748,-2991,2025-11-07 11:43:12.622320462
2025-11-07 11:43:12.310748,23551,2025-11-07 11:43:12.630012769
2025-11-07 11:43:12.310748,-12,2025-11-07 11:43:12.637705077
2025-11-07 11:43:12.310748,-2970,2025-11-07 11:43:12.645397385
2025-11-07 11:43:12.310748,28927,2025-11-07 11:43:12.653089692
2025-11-07 11:43:12.310748,-12,2025-11-07 11:43:12.660782000
2025-11-07 11:43:12.310748,-2970,2025-11-07 11:43:12.668474308
2025-11-07 11:43:12.310748,18687,2025-11-07 11:43:12.676166615
2025-11-07 11:43:12.310748,-12,2025-11-07 11:43:12.683858923
2025-11-07 11:43:12.310748,-3024,2025-11-07 11:43:12.691551231
2025-11-07 11:43:12.310748,-8705,2025-11-07 11:43:12.699243538
2025-11-07 11:43:12.310748,-12,2025-11-07 11:43:12.706935846
2025-11-07 11:43:12.310748,-2189,2025-11-07 11:43:12.714628154
2025-11-07 11:43:12.310748,16383,2025-11-07 11:43:12.722320462
2025-11-07 11:43:12.310748,-6,2025-11-07 11:43:12.730012769
2025-11-07 11:43:12.310748,-1689,2025-11-07 11:43:12.737705077
2025-11-07 11:43:12.310748,6655,2025-11-07 11:43:12.745397385
2025-11-07 11:43:12.310748,-10,2025-11-07 11:43:12.753089692
2025-11-07 11:43:12.310748,-2924,2025-11-07 11:43:12.760782000
2025-11-07 11:43:12.310748,-21505,2025-11-07 11:43:12.768474308
2025-11-07 11:43:12.310748,-12,2025-11-07 11:43:12.776166615
2025-11-07 11:43:12.310748,-2941,2025-11-07 11:43:12.783858923
2025-11-07 11:43:12.310748,24063,2025-11-07 11:43:12.791551231
2025-11-07 11:43:12.310748,-12,2025-11-07 11:43:12.799243538
2025-11-07 11:43:12.310748,-2941,2025-11-07 11:43:12.806935846
2025-11-07 11:43:12.310748,-29441,2025-11-07 11:43:12.814628154
2025-11-07 11:43:12.310748,-12,2025-11-07 11:43:12.822320462
2025-11-07 11:43:12.310748,-2936,2025-11-07 11:43:12.830012769
2025-11-07 11:43:12.310748,-26369,2025-11-07 11:43:12.837705077
2025-11-07 11:43:12.310748,-12,2025-11-07 11:43:12.845397385
2025-11-07 11:43:12.310748,-2896,2025-11-07 11:43:12.853089692
2025-11-07 11:43:12.310748,-15361,2025-11-07 11:43:12.860782000
2025-11-07 11:43:12.310748,-12,2025-11-07 11:43:12.868474308
2025-11-07 11:43:12.310748,-2870,2025-11-07 11:43:12.876166615
2025-11-07 11:43:12.310748,-11777,2025-11-07 11:43:12.883858923
2025-11-07 11:43:12.310748,-12,2025-11-07 11:43:12.891551231
2025-11-07 11:43:12.310748,-2853,2025-11-07 11:43:12.899243538
2025-11-07 11:43:12.310748,-6145,2025-11-07 11:43:12.906935846
2025-11-07 11:43:12.310748,-12,2025-11-07 11:43:12.914628154
2025-11-07 11:43:12.310748,-2837,2025-11-07 11:43:12.922320462
2025-11-07 11:43:12.310748,-3841,2025-11-07 11:43:12.930012769
2025-11-07 11:43:12.310748,-12,2025-11-07 11:43:12.937705077
2025-11-07 11:43:12.310748,-2825,2025-11-07 11:43:12.945397385
2025-11-07 11:43:12.310748,-3841,2025-11-07 11:43:12.953089692
2025-11-07 11:43:12.310748,-12,2025-11-07 11:43:12.960782000
2025-11-07 11:43:12.310748,-2834,2025-11-07 11:43:12.968474308
2025-11-07 11:43:12.310748,-1281,2025-11-07 11:43:12.976166615
2025-11-07 11:43:12.310748,-12,2025-11-07 11:43:12.983858923
2025-11-07 11:43:12.310748,-2815,2025-11-07 11:43:12.991551231
2025-11-07 11:43:12.310748,2303,2025-11-07 11:43:12.999243538
2025-11-07 11:43:12.310748,-11,2025-11-07 11:43:13.006935846
2025-11-07 11:43:12.310748,-2789,2025-11-07 11:43:13.014628154
2025-11-07 11:43:12.310748,13823,2025-11-07 11:43:13.022320462
2025-11-07 11:43:12.310748,-11,2025-11-07 11:43:13.030012769
2025-11-07 11:43:12.310748,-2732,2025-11-07 11:43:13.037705077
2025-11-07 11:43:12.310748,-32257,2025-11-07 11:43:13.045397385
2025-11-07 11:43:12.310748,-11,2025-11-07 11:43:13.053089692
2025-11-07 11:43:12.310748,-2628,2025-11-07 11:43:13.060782000
2025-11-07 11:43:12.310748,-3073,2025-11-07 11:43:13.068474308
2025-11-07 11:43:12.310748,-11,2025-11-07 11:43:13.076166615
2025-11-07 11:43:12.310748,-2526,2025-11-07 11:43:13.083858923
2025-11-07 11:43:12.310748,20479,2025-11-07 11:43:13.091551231
2025-11-07 11:43:12.310748,-10,2025-11-07 11:43:13.099243538
2025-11-07 11:43:12.310748,-2448,2025-11-07 11:43:13.106935846
2025-11-07 11:43:12.310748,-30465,2025-11-07 11:43:13.114628154
2025-11-07 11:43:12.310748,-10,2025-11-07 11:43:13.122320462
2025-11-07 11:43:12.310748,-2400,2025-11-07 11:43:13.130012769
2025-11-07 11:43:12.310748,-20225,2025-11-07 11:43:13.137705077
2025-11-07 11:43:12.310748,-10,2025-11-07 11:43:13.145397385
2025-11-07 11:43:12.310748,-2374,2025-11-07 11:43:13.153089692
2025-11-07 11:43:12.310748,-14593,2025-11-07 11:43:13.160782000
2025-11-07 11:43:12.310748,-10,2025-11-07 11:43:13.168474308
2025-11-07 11:43:12.310748,-2353,2025-11-07 11:43:13.176166615
2025-11-07 11:43:12.310748,-9217,2025-11-07 11:43:13.183858923
2025-11-07 11:43:12.310748,-10,2025-11-07 11:43:13.191551231
2025-11-07 11:43:12.310748,-2327,2025-11-07 11:43:13.199243538
2025-11-07 11:43:12.310748,-2561,2025-11-07 11:43:13.206935846
2025-11-07 11:43:12.310748,-10,2025-11-07 11:43:13.214628154
2025-11-07 11:43:12.310748,-2308,2025-11-07 11:43:13.222320462
2025-11-07 11:43:12.310748,2303,2025-11-07 11:43:13.230012769
2025-11-07 11:43:12.310748,-9,2025-11-07 11:43:13.237705077
2025-11-07 11:43:12.310748,-2284,2025-11-07 11:43:13.245397385
2025-11-07 11:43:12.310748,8447,2025-11-07 11:43:13.253089692
2025-11-07 11:43:12.310748,-9,2025-11-07 11:43:13.260782000
2025-11-07 11:43:12.310748,-2265,2025-11-07 11:43:13.268474308
2025-11-07 11:43:12.310748,13823,2025-11-07 11:43:13.276166615
2025-11-07 11:43:12.310748,-9,2025-11-07 11:43:13.283858923
2025-11-07 11:43:12.310748,-2234,2025-11-07 11:43:13.291551230
2025-11-07 11:43:12.310748,19967,2025-11-07 11:43:13.299243538
2025-11-07 11:43:12.310748,-9,2025-11-07 11:43:13.306935846
2025-11-07 11:43:12.310748,-2215,2025-11-07 11:43:13.314628154
2025-11-07 11:43:12.310748,26111,2025-11-07 11:43:13.322320462
2025-11-07 11:43:12.310748,-9,2025-11-07 11:43:13.330012769
2025-11-07 11:43:12.310748,-2194,2025-11-07 11:43:13.337705077
2025-11-07 11:43:12.310748,30207,2025-11-07 11:43:13.345397385
2025-11-07 11:43:12.310748,-9,2025-11-07 11:43:13.353089692
2025-11-07 11:43:12.310748,-2175,2025-11-07 11:43:13.360782000
2025-11-07 11:43:12.310748,-30977,2025-11-07 11:43:13.368474308
2025-11-07 11:43:12.310748,-9,2025-11-07 11:43:13.376166615
2025-11-07 11:43:12.310748,-2163,2025-11-07 11:43:13.383858923
2025-11-07 11:43:12.310748,-24833,2025-11-07 11:43:13.391551231
2025-11-07 11:43:12.310748,-9,2025-11-07 11:43:13.399243538
2025-11-07 11:43:12.310748,-2135,2025-11-07 11:43:13.406935846
2025-11-07 11:43:12.310748,-21249,2025-11-07 11:43:13.414628154
2025-11-07 11:43:12.310748,-9,2025-11-07 11:43:13.422320462
2025-11-07 11:43:12.310748,-2123,2025-11-07 11:43:13.430012769
2025-11-07 11:43:12.859864,-2111,2025-11-07 11:43:13.437705077
2025-11-07 11:43:12.859864,-15105,2025-11-07 11:43:13.445397385
2025-11-07 11:43:12.859864,-9,2025-11-07 11:43:13.453089692
2025-11-07 11:43:12.859864,-2099,2025-11-07 11:43:13.460782000
2025-11-07 11:43:12.859864,-9729,2025-11-07 11:43:13.468474308
2025-11-07 11:43:12.859864,-9,2025-11-07 11:43:13.476166615
2025-11-07 11:43:12.859864,-2085,2025-11-07 11:43:13.483858923
2025-11-07 11:43:12.859864,-9217,2025-11-07 11:43:13.491551231
2025-11-07 11:43:12.859864,-9,2025-11-07 11:43:13.499243538
2025-11-07 11:43:12.859864,-2089,2025-11-07 11:43:13.506935846
2025-11-07 11:43:12.859864,-11521,2025-11-07 11:43:13.514628154
2025-11-07 11:43:12.859864,-9,2025-11-07 11:43:13.522320462
2025-11-07 11:43:12.859864,-2094,2025-11-07 11:43:13.530012769
2025-11-07 11:43:12.859864,-8449,2025-11-07 11:43:13.537705077
2025-11-07 11:43:12.859864,-9,2025-11-07 11:43:13.545397385
2025-11-07 11:43:12.859864,-2066,2025-11-07 11:43:13.553089692
2025-11-07 11:43:12.859864,-2561,2025-11-07 11:43:13.560782000
2025-11-07 11:43:12.859864,-9,2025-11-07 11:43:13.568474308
2025-11-07 11:43:12.859864,-2030,2025-11-07 11:43:13.576166615
2025-11-07 11:43:12.859864,15871,2025-11-07 11:43:13.583858923
2025-11-07 11:43:12.859864,-8,2025-11-07 11:43:13.591551231
2025-11-07 11:43:12.859864,-1985,2025-11-07 11:43:13.599243538
2025-11-07 11:43:12.859864,15103,2025-11-07 11:43:13.606935846
2025-11-07 11:43:12.859864,-8,2025-11-07 11:43:13.614628154
2025-11-07 11:43:12.859864,-1971,2025-11-07 11:43:13.622320462
2025-11-07 11:43:12.859864,23039,2025-11-07 11:43:13.630012769
2025-11-07 11:43:12.859864,-8,2025-11-07 11:43:13.637705077
2025-11-07 11:43:12.859864,-1957,2025-11-07 11:43:13.645397385
2025-11-07 11:43:12.859864,26623,2025-11-07 11:43:13.653089692
2025-11-07 11:43:12.859864,-8,2025-11-07 11:43:13.660782000
2025-11-07 11:43:12.859864,-1935,2025-11-07 11:43:13.668474308
2025-11-07 11:43:12.859864,29695,2025-11-07 11:43:13.676166615
2025-11-07 11:43:12.859864,-8,2025-11-07 11:43:13.683858923
2025-11-07 11:43:12.859864,-1926,2025-11-07 11:43:13.691551231
2025-11-07 11:43:12.859864,32767,2025-11-07 11:43:13.699243538
2025-11-07 11:43:12.859864,-8,2025-11-07 11:43:13.706935846
2025-11-07 11:43:12.859864,-1919,2025-11-07 11:43:13.714628154
2025-11-07 11:43:12.859864,-30977,2025-11-07 11:43:13.722320462
2025-11-07 11:43:12.859864,-8,2025-11-07 11:43:13.730012769
2025-11-07 11:43:12.859864,-1919,2025-11-07 11:43:13.737705077
2025-11-07 11:43:12.859864,23039,2025-11-07 11:43:13.745397385
2025-11-07 11:43:12.859864,-8,2025-11-07 11:43:13.753089692
2025-11-07 11:43:12.859864,-1992,2025-11-07 11:43:13.760782000
2025-11-07 11:43:12.859864,-7937,2025-11-07 11:43:13.768474308
2025-11-07 11:43:12.859864,-8,2025-11-07 11:43:13.776166615
2025-11-07 11:43:12.859864,-1160,2025-11-07 11:43:13.783858923
2025-11-07 11:43:12.859864,-31233,2025-11-07 11:43:13.791551231
2025-11-07 11:43:12.859864,-2,2025-11-07 11:43:13.799243538
2025-11-07 11:43:12.859864,-514,2025-11-07 11:43:13.806935846
2025-11-07 11:43:12.859864,28671,2025-11-07 11:43:13.814628154
2025-11-07 11:43:12.859864,-6,2025-11-07 11:43:13.822320462
2025-11-07 11:43:12.859864,-1954,2025-11-07 11:43:13.830012769
2025-11-07 11:43:12.859864,23039,2025-11-07 11:43:13.837705077
2025-11-07 11:43:12.859864,-8,2025-11-07 11:43:13.845397385
2025-11-07 11:43:12.859864,-1976,2025-11-07 11:43:13.853089692
2025-11-07 11:43:12.859864,4863,2025-11-07 11:43:13.860782000
2025-11-07 11:43:12.859864,-8,2025-11-07 11:43:13.868474308
2025-11-07 11:43:12.859864,-2004,2025-11-07 11:43:13.876166615
2025-11-07 11:43:12.859864,16383,2025-11-07 11:43:13.883858923
2025-11-07 11:43:12.859864,-8,2025-11-07 11:43:13.891551231
2025-11-07 11:43:12.859864,-1999,2025-11-07 11:43:13.899243538
2025-11-07 11:43:12.859864,15871,2025-11-07 11:43:13.906935846
2025-11-07 11:43:12.859864,-8,2025-11-07 11:43:13.914628154
2025-11-07 11:43:12.859864,-1973,2025-11-07 11:43:13.922320462
2025-11-07 11:43:12.859864,19455,2025-11-07 11:43:13.930012769
2025-11-07 11:43:12.859864,-8,2025-11-07 11:43:13.937705077
2025-11-07 11:43:12.859864,-1966,2025-11-07 11:43:13.945397385
2025-11-07 11:43:12.859864,24319,2025-11-07 11:43:13.953089692
2025-11-07 11:43:12.859864,-8,2025-11-07 11:43:13.960782000
2025-11-07 11:43:12.859864,-1952,2025-11-07 11:43:13.968474308
2025-11-07 11:43:12.859864,24319,2025-11-07 11:43:13.976166615
2025-11-07 11:43:12.859864,-8,2025-11-07 11:43:13.983858923
2025-11-07 11:43:12.859864,-1957,2025-11-07 11:43:13.991551231
2025-11-07 11:43:12.859864,21247,2025-11-07 11:43:13.999243538
2025-11-07 11:43:12.859864,-8,2025-11-07 11:43:14.006935846
2025-11-07 11:43:12.859864,-1973,2025-11-07 11:43:14.014628154
2025-11-07 11:43:12.859864,18687,2025-11-07 11:43:14.022320462
2025-11-07 11:43:12.859864,-8,2025-11-07 11:43:14.030012769
2025-11-07 11:43:12.859864,-1980,2025-11-07 11:43:14.037705077
2025-11-07 11:43:12.859864,16383,2025-11-07 11:43:14.045397385
2025-11-07 11:43:12.859864,-8,2025-11-07 11:43:14.053089692
2025-11-07 11:43:12.859864,-1980,2025-11-07 11:43:14.060782000
2025-11-07 11:43:12.859864,19967,2025-11-07 11:43:14.068474308
2025-11-07 11:43:12.859864,-8,2025-11-07 11:43:14.076166615
2025-11-07 11:43:12.859864,-1959,2025-11-07 11:43:14.083858923
2025-11-07 11:43:12.859864,27903,2025-11-07 11:43:14.091551231
2025-11-07 11:43:12.859864,-8,2025-11-07 11:43:14.099243538
2025-11-07 11:43:12.859864,-1909,2025-11-07 11:43:14.106935846
2025-11-07 11:43:12.859864,-19457,2025-11-07 11:43:14.114628154
2025-11-07 11:43:12.859864,-8,2025-11-07 11:43:14.122320462
2025-11-07 11:43:12.859864,-1814,2025-11-07 11:43:14.130012769
2025-11-07 11:43:12.859864,9727,2025-11-07 11:43:14.137705077
2025-11-07 11:43:12.859864,-7,2025-11-07 11:43:14.145397385
2025-11-07 11:43:12.859864,-1705,2025-11-07 11:43:14.153089692
2025-11-07 11:43:12.859864,32255,2025-11-07 11:43:14.160782000
2025-11-07 11:43:12.859864,-7,2025-11-07 11:43:14.168474308
2025-11-07 11:43:12.859864,-1632,2025-11-07 11:43:14.176166615
2025-11-07 11:43:12.859864,-17665,2025-11-07 11:43:14.183858923
2025-11-07 11:43:12.859864,-7,2025-11-07 11:43:14.191551231
2025-11-07 11:43:12.859864,-1591,2025-11-07 11:43:14.199243538
2025-11-07 11:43:12.859864,-10241,2025-11-07 11:43:14.206935846
2025-11-07 11:43:12.859864,-7,2025-11-07 11:43:14.214628154
2025-11-07 11:43:12.859864,-1568,2025-11-07 11:43:14.222320462
2025-11-07 11:43:12.859864,-6657,2025-11-07 11:43:14.230012769
2025-11-07 11:43:12.859864,-7,2025-11-07 11:43:14.237705077
2025-11-07 11:43:12.859864,-1556,2025-11-07 11:43:14.245397385
2025-11-07 11:43:12.859864,-3585,2025-11-07 11:43:14.253089692
2025-11-07 11:43:12.859864,-7,2025-11-07 11:43:14.260782000
2025-11-07 11:43:12.859864,-1544,2025-11-07 11:43:14.268474308
2025-11-07 11:43:13.609666,-1534,2025-11-07 11:43:14.276166615
2025-11-07 11:43:13.609666,3071,2025-11-07 11:43:14.283858923
2025-11-07 11:43:13.609666,-6,2025-11-07 11:43:14.291551230
2025-11-07 11:43:13.609666,-1520,2025-11-07 11:43:14.299243538
2025-11-07 11:43:13.609666,5631,2025-11-07 11:43:14.306935846
2025-11-07 11:43:13.609666,-6,2025-11-07 11:43:14.314628154
2025-11-07 11:43:13.609666,-1506,2025-11-07 11:43:14.322320462
2025-11-07 11:43:13.609666,9727,2025-11-07 11:43:14.330012769
2025-11-07 11:43:13.609666,-6,2025-11-07 11:43:14.337705077
2025-11-07 11:43:13.609666,-1492,2025-11-07 11:43:14.345397385
2025-11-07 11:43:13.609666,14591,2025-11-07 11:43:14.353089692
2025-11-07 11:43:13.609666,-6,2025-11-07 11:43:14.360782000
2025-11-07 11:43:13.609666,-1466,2025-11-07 11:43:14.368474308
2025-11-07 11:43:13.609666,18943,2025-11-07 11:43:14.376166615
2025-11-07 11:43:13.609666,-6,2025-11-07 11:43:14.383858923
2025-11-07 11:43:13.609666,-1458,2025-11-07 11:43:14.391551231
2025-11-07 11:43:13.609666,26879,2025-11-07 11:43:14.399243538
2025-11-07 11:43:13.609666,-6,2025-11-07 11:43:14.406935846
2025-11-07 11:43:13.609666,-1413,2025-11-07 11:43:14.414628154
2025-11-07 11:43:13.609666,31743,2025-11-07 11:43:14.422320462
2025-11-07 11:43:13.609666,-6,2025-11-07 11:43:14.430012769
2025-11-07 11:43:13.609666,-1406,2025-11-07 11:43:14.437705077
2025-11-07 11:43:13.609666,-28929,2025-11-07 11:43:14.445397385
2025-11-07 11:43:13.609666,-6,2025-11-07 11:43:14.453089692
2025-11-07 11:43:13.609666,-1387,2025-11-07 11:43:14.460782000
2025-11-07 11:43:13.609666,-26113,2025-11-07 11:43:14.468474308
2025-11-07 11:43:13.609666,-6,2025-11-07 11:43:14.476166615
2025-11-07 11:43:13.609666,-1375,2025-11-07 11:43:14.483858923
2025-11-07 11:43:13.609666,-21249,2025-11-07 11:43:14.491551231
2025-11-07 11:43:13.609666,-6,2025-11-07 11:43:14.499243538
2025-11-07 11:43:13.609666,-1354,2025-11-07 11:43:14.506935846
2025-11-07 11:43:13.609666,-17409,2025-11-07 11:43:14.514628154
2025-11-07 11:43:13.609666,-6,2025-11-07 11:43:14.522320462
2025-11-07 11:43:13.609666,-1345,2025-11-07 11:43:14.530012769
2025-11-07 11:43:13.609666,-14337,2025-11-07 11:43:14.537705077
2025-11-07 11:43:13.609666,-6,2025-11-07 11:43:14.545397385
2025-11-07 11:43:13.609666,-1328,2025-11-07 11:43:14.553089692
2025-11-07 11:43:13.609666,-10753,2025-11-07 11:43:14.560782000
2025-11-07 11:43:13.609666,-6,2025-11-07 11:43:14.568474308
2025-11-07 11:43:13.609666,-1321,2025-11-07 11:43:14.576166615
2025-11-07 11:43:13.609666,-8449,2025-11-07 11:43:14.583858923
2025-11-07 11:43:13.609666,-6,2025-11-07 11:43:14.591551231
2025-11-07 11:43:13.609666,-1304,2025-11-07 11:43:14.599243538
2025-11-07 11:43:13.609666,-4097,2025-11-07 11:43:14.606935846
2025-11-07 11:43:13.609666,-6,2025-11-07 11:43:14.614628154
2025-11-07 11:43:13.609666,-1290,2025-11-07 11:43:14.622320462
2025-11-07 11:43:13.609666,-513,2025-11-07 11:43:14.630012769
2025-11-07 11:43:13.609666,-6,2025-11-07 11:43:14.637705077
2025-11-07 11:43:13.609666,-1278,2025-11-07 11:43:14.645397385
2025-11-07 11:43:13.609666,2559,2025-11-07 11:43:14.653089692
2025-11-07 11:43:13.609666,-5,2025-11-07 11:43:14.660782000
2025-11-07 11:43:13.609666,-1266,2025-11-07 11:43:14.668474308
2025-11-07 11:43:13.609666,3071,2025-11-07 11:43:14.676166615
2025-11-07 11:43:13.609666,-5,2025-11-07 11:43:14.683858923
2025-11-07 11:43:13.609666,-1273,2025-11-07 11:43:14.691551231
2025-11-07 11:43:13.609666,2047,2025-11-07 11:43:14.699243538
2025-11-07 11:43:13.609666,-5,2025-11-07 11:43:14.706935846
2025-11-07 11:43:13.609666,-1271,2025-11-07 11:43:14.714628154
2025-11-07 11:43:13.609666,4863,2025-11-07 11:43:14.722320462
2025-11-07 11:43:13.609666,-5,2025-11-07 11:43:14.730012769
2025-11-07 11:43:13.609666,-1240,2025-11-07 11:43:14.737705077
2025-11-07 11:43:13.609666,14079,2025-11-07 11:43:14.745397385
2025-11-07 11:43:13.609666,-5,2025-11-07 11:43:14.753089692
2025-11-07 11:43:13.609666,-1209,2025-11-07 11:43:14.760782000
2025-11-07 11:43:13.609666,24319,2025-11-07 11:43:14.768474308
2025-11-07 11:43:13.609666,-5,2025-11-07 11:43:14.776166615
2025-11-07 11:43:13.609666,-1181,2025-11-07 11:43:14.783858923
2025-11-07 11:43:13.609666,23807,2025-11-07 11:43:14.791551231
2025-11-07 11:43:13.609666,-5,2025-11-07 11:43:14.799243538
2025-11-07 11:43:13.609666,-1181,2025-11-07 11:43:14.806935846
2025-11-07 11:43:13.609666,29951,2025-11-07 11:43:14.814628154
2025-11-07 11:43:13.609666,-5,2025-11-07 11:43:14.822320462
2025-11-07 11:43:13.609666,-1157,2025-11-07 11:43:14.830012769
2025-11-07 11:43:13.609666,-32513,2025-11-07 11:43:14.837705077
2025-11-07 11:43:13.609666,-5,2025-11-07 11:43:14.845397385
2025-11-07 11:43:13.609666,-1143,2025-11-07 11:43:14.853089692
2025-11-07 11:43:13.609666,-28417,2025-11-07 11:43:14.860782000
2025-11-07 11:43:13.609666,-5,2025-11-07 11:43:14.868474308
2025-11-07 11:43:13.609666,-1131,2025-11-07 11:43:14.876166615
2025-11-07 11:43:13.609666,-25857,2025-11-07 11:43:14.883858923
2025-11-07 11:43:13.609666,-5,2025-11-07 11:43:14.891551231
2025-11-07 11:43:13.609666,-1117,2025-11-07 11:43:14.899243538
2025-11-07 11:43:13.609666,-22273,2025-11-07 11:43:14.906935846
2025-11-07 11:43:13.609666,-5,2025-11-07 11:43:14.914628154
2025-11-07 11:43:13.609666,-1129,2025-11-07 11:43:14.922320462
2025-11-07 11:43:13.609666,27391,2025-11-07 11:43:14.930012769
2025-11-07 11:43:13.609666,-5,2025-11-07 11:43:14.937705077
2025-11-07 11:43:13.609666,-1174,2025-11-07 11:43:14.945397385
2025-11-07 11:43:13.609666,-24577,2025-11-07 11:43:14.953089692
2025-11-07 11:43:13.609666,-4,2025-11-07 11:43:14.960782000
2025-11-07 11:43:13.609666,-66,2025-11-07 11:43:14.968474308
2025-11-07 11:43:13.609666,3839,2025-11-07 11:43:14.976166615
2025-11-07 11:43:13.609666,2,2025-11-07 11:43:14.983858923
2025-11-07 11:43:13.609666,59,2025-11-07 11:43:14.991551231
2025-11-07 11:43:13.609666,-23040,2025-11-07 11:43:14.999243538
2025-11-07 11:43:13.609666,-4,2025-11-07 11:43:15.006935846
2025-11-07 11:43:13.609666,-1207,2025-11-07 11:43:15.014628154
2025-11-07 11:43:13.609666,30463,2025-11-07 11:43:15.022320462
2025-11-07 11:43:13.609666,-5,2025-11-07 11:43:15.030012769
2025-11-07 11:43:13.609666,-1195,2025-11-07 11:43:15.037705077
2025-11-07 11:43:13.609666,10495,2025-11-07 11:43:15.045397385
2025-11-07 11:43:13.609666,-5,2025-11-07 11:43:15.053089692
2025-11-07 11:43:13.609666,-1209,2025-11-07 11:43:15.060782000
2025-11-07 11:43:13.609666,20735,2025-11-07 11:43:15.068474308
2025-11-07 11:43:13.609666,-5,2025-11-07 11:43:15.076166615
2025-11-07 11:43:13.609666,-1209,2025-11-07 11:43:15.083858923
2025-11-07 11:43:13.609666,21503,2025-11-07 11:43:15.091551231
2025-11-07 11:43:13.609666,-5,2025-11-07 11:43:15.099243538
2025-11-07 11:43:13.609666,-1186,2025-11-07 11:43:15.106935846
2025-11-07 11:43:13.960817,-1178,2025-11-07 11:43:15.114628154
2025-11-07 11:43:13.960817,28159,2025-11-07 11:43:15.122320462
2025-11-07 11:43:13.960817,-5,2025-11-07 11:43:15.130012769
2025-11-07 11:43:13.960817,-1167,2025-11-07 11:43:15.137705077
2025-11-07 11:43:13.960817,29183,2025-11-07 11:43:15.145397385
2025-11-07 11:43:13.960817,-5,2025-11-07 11:43:15.153089692
2025-11-07 11:43:13.960817,-1169,2025-11-07 11:43:15.160782000
2025-11-07 11:43:13.960817,28671,2025-11-07 11:43:15.168474308
2025-11-07 11:43:13.960817,-5,2025-11-07 11:43:15.176166615
2025-11-07 11:43:13.960817,-1171,2025-11-07 11:43:15.183858923
2025-11-07 11:43:13.960817,25599,2025-11-07 11:43:15.191551231
2025-11-07 11:43:13.960817,-5,2025-11-07 11:43:15.199243538
2025-11-07 11:43:13.960817,-1190,2025-11-07 11:43:15.206935846
2025-11-07 11:43:13.960817,21503,2025-11-07 11:43:15.214628154
2025-11-07 11:43:13.960817,-5,2025-11-07 11:43:15.222320462
2025-11-07 11:43:13.960817,-1200,2025-11-07 11:43:15.230012769
2025-11-07 11:43:13.960817,22015,2025-11-07 11:43:15.237705077
2025-11-07 11:43:13.960817,-5,2025-11-07 11:43:15.245397385
2025-11-07 11:43:13.960817,-1190,2025-11-07 11:43:15.253089692
2025-11-07 11:43:13.960817,25599,2025-11-07 11:43:15.260782000
2025-11-07 11:43:13.960817,-5,2025-11-07 11:43:15.268474308
2025-11-07 11:43:13.960817,-1164,2025-11-07 11:43:15.276166615
2025-11-07 11:43:13.960817,-28417,2025-11-07 11:43:15.283858923
2025-11-07 11:43:13.960817,-5,2025-11-07 11:43:15.291551230
2025-11-07 11:43:13.960817,-1098,2025-11-07 11:43:15.299243538
2025-11-07 11:43:13.960817,-5377,2025-11-07 11:43:15.306935846
2025-11-07 11:43:13.960817,-5,2025-11-07 11:43:15.314628154
2025-11-07 11:43:13.960817,-993,2025-11-07 11:43:15.322320462
2025-11-07 11:43:13.960817,20223,2025-11-07 11:43:15.330012769
2025-11-07 11:43:13.960817,-4,2025-11-07 11:43:15.337705077
2025-11-07 11:43:13.960817,-908,2025-11-07 11:43:15.345397385
2025-11-07 11:43:13.960817,-27649,2025-11-07 11:43:15.353089692
2025-11-07 11:43:13.960817,-4,2025-11-07 11:43:15.360782000
2025-11-07 11:43:13.960817,-856,2025-11-07 11:43:15.368474308
2025-11-07 11:43:13.960817,-17921,2025-11-07 11:43:15.376166615
2025-11-07 11:43:13.960817,-4,2025-11-07 11:43:15.383858923
2025-11-07 11:43:13.960817,-825,2025-11-07 11:43:15.391551231
2025-11-07 11:43:13.960817,-13057,2025-11-07 11:43:15.399243538
2025-11-07 11:43:13.960817,-4,2025-11-07 11:43:15.406935846
2025-11-07 11:43:13.960817,-818,2025-11-07 11:43:15.414628154
2025-11-07 11:43:13.960817,-12033,2025-11-07 11:43:15.422320462
2025-11-07 11:43:13.960817,-4,2025-11-07 11:43:15.430012769
2025-11-07 11:43:13.960817,-808,2025-11-07 11:43:15.437705077
2025-11-07 11:43:13.960817,-8961,2025-11-07 11:43:15.445397385
2025-11-07 11:43:13.960817,-4,2025-11-07 11:43:15.453089692
2025-11-07 11:43:13.960817,-801,2025-11-07 11:43:15.460782000
2025-11-07 11:43:13.960817,-7681,2025-11-07 11:43:15.468474308
2025-11-07 11:43:13.960817,-4,2025-11-07 11:43:15.476166615
2025-11-07 11:43:13.960817,-794,2025-11-07 11:43:15.483858923
2025-11-07 11:43:13.960817,-6401,2025-11-07 11:43:15.491551231
2025-11-07 11:43:13.960817,-4,2025-11-07 11:43:15.499243538
2025-11-07 11:43:13.960817,-789,2025-11-07 11:43:15.506935846
2025-11-07 11:43:13.960817,-1025,2025-11-07 11:43:15.514628154
2025-11-07 11:43:13.960817,-4,2025-11-07 11:43:15.522320462
2025-11-07 11:43:13.960817,-756,2025-11-07 11:43:15.530012769
2025-11-07 11:43:13.960817,4607,2025-11-07 11:43:15.537705077
2025-11-07 11:43:13.960817,-3,2025-11-07 11:43:15.545397385
2025-11-07 11:43:13.960817,-751,2025-11-07 11:43:15.553089692
2025-11-07 11:43:13.960817,5119,2025-11-07 11:43:15.560782000
2025-11-07 11:43:13.960817,-3,2025-11-07 11:43:15.568474308
2025-11-07 11:43:13.960817,-740,2025-11-07 11:43:15.576166615
2025-11-07 11:43:13.960817,9215,2025-11-07 11:43:15.583858923
2025-11-07 11:43:13.960817,-3,2025-11-07 11:43:15.591551231
2025-11-07 11:43:13.960817,-730,2025-11-07 11:43:15.599243538
2025-11-07 11:43:13.960817,10495,2025-11-07 11:43:15.606935846
2025-11-07 11:43:13.960817,-3,2025-11-07 11:43:15.614628154
2025-11-07 11:43:13.960817,-723,2025-11-07 11:43:15.622320462
2025-11-07 11:43:13.960817,12287,2025-11-07 11:43:15.630012769
2025-11-07 11:43:13.960817,-3,2025-11-07 11:43:15.637705077
2025-11-07 11:43:13.960817,-714,2025-11-07 11:43:15.645397385
2025-11-07 11:43:13.960817,16127,2025-11-07 11:43:15.653089692
2025-11-07 11:43:13.960817,-3,2025-11-07 11:43:15.660782000
2025-11-07 11:43:13.960817,-704,2025-11-07 11:43:15.668474308
2025-11-07 11:43:13.960817,17151,2025-11-07 11:43:15.676166615
2025-11-07 11:43:13.960817,-3,2025-11-07 11:43:15.683858923
2025-11-07 11:43:13.960817,-699,2025-11-07 11:43:15.691551231
2025-11-07 11:43:13.960817,17151,2025-11-07 11:43:15.699243538
2025-11-07 11:43:13.960817,-3,2025-11-07 11:43:15.706935846
2025-11-07 11:43:13.960817,-709,2025-11-07 11:43:15.714628154
2025-11-07 11:43:13.960817,13055,2025-11-07 11:43:15.722320462
2025-11-07 11:43:13.960817,-3,2025-11-07 11:43:15.730012769
2025-11-07 11:43:13.960817,-721,2025-11-07 11:43:15.737705077
2025-11-07 11:43:13.960817,12287,2025-11-07 11:43:15.745397385
2025-11-07 11:43:13.960817,-3,2025-11-07 11:43:15.753089692
2025-11-07 11:43:13.960817,-704,2025-11-07 11:43:15.760782000
2025-11-07 11:43:13.960817,20991,2025-11-07 11:43:15.768474308
2025-11-07 11:43:13.960817,-3,2025-11-07 11:43:15.776166615
2025-11-07 11:43:13.960817,-673,2025-11-07 11:43:15.783858923
2025-11-07 11:43:13.960817,28159,2025-11-07 11:43:15.791551231
2025-11-07 11:43:13.960817,-3,2025-11-07 11:43:15.799243538
2025-11-07 11:43:13.960817,-654,2025-11-07 11:43:15.806935846
2025-11-07 11:43:13.960817,26879,2025-11-07 11:43:15.814628154
2025-11-07 11:43:13.960817,-3,2025-11-07 11:43:15.822320462
2025-11-07 11:43:13.960817,-657,2025-11-07 11:43:15.830012769
2025-11-07 11:43:13.960817,32511,2025-11-07 11:43:15.837705077
2025-11-07 11:43:13.960817,-3,2025-11-07 11:43:15.845397385
2025-11-07 11:43:13.960817,-640,2025-11-07 11:43:15.853089692
2025-11-07 11:43:13.960817,-31233,2025-11-07 11:43:15.860782000
2025-11-07 11:43:13.960817,-3,2025-11-07 11:43:15.868474308
2025-11-07 11:43:13.960817,-623,2025-11-07 11:43:15.876166615
2025-11-07 11:43:13.960817,-28161,2025-11-07 11:43:15.883858923
2025-11-07 11:43:13.960817,-3,2025-11-07 11:43:15.891551231
2025-11-07 11:43:13.960817,-623,2025-11-07 11:43:15.899243538
2025-11-07 11:43:13.960817,-27137,2025-11-07 11:43:15.906935846
2025-11-07 11:43:13.960817,-3,2025-11-07 11:43:15.914628154
2025-11-07 11:43:13.960817,-614,2025-11-07 11:43:15.922320462
2025-11-07 11:43:13.960817,-27137,2025-11-07 11:43:15.930012769
2025-11-07 11:43:13.960817,-3,2025-11-07 11:43:15.937705077
2025-11-07 11:43:13.960817,-628,2025-11-07 11:43:15.945397385
2025-11-07 11:43:14.509816,-664,2025-11-07 11:43:15.953089692
2025-11-07 11:43:14.509816,15359,2025-11-07 11:43:15.960782000
2025-11-07 11:43:14.509816,-3,2025-11-07 11:43:15.968474308
2025-11-07 11:43:14.509816,-597,2025-11-07 11:43:15.976166615
2025-11-07 11:43:14.509816,-5121,2025-11-07 11:43:15.983858923
2025-11-07 11:43:14.509816,-1,2025-11-07 11:43:15.991551231
2025-11-07 11:43:14.509816,799,2025-11-07 11:43:15.999243538
2025-11-07 11:43:14.509816,18944,2025-11-07 11:43:16.006935846
2025-11-07 11:43:14.509816,3,2025-11-07 11:43:16.014628154
2025-11-07 11:43:14.509816,-23,2025-11-07 11:43:16.022320462
2025-11-07 11:43:14.509816,26367,2025-11-07 11:43:16.030012769
2025-11-07 11:43:14.509816,-3,2025-11-07 11:43:16.037705077
2025-11-07 11:43:14.509816,-714,2025-11-07 11:43:16.045397385
2025-11-07 11:43:14.509816,17919,2025-11-07 11:43:16.053089692
2025-11-07 11:43:14.509816,-3,2025-11-07 11:43:16.060782000
2025-11-07 11:43:14.509816,-761,2025-11-07 11:43:16.068474308
2025-11-07 11:43:14.509816,3327,2025-11-07 11:43:16.076166615
2025-11-07 11:43:14.509816,-3,2025-11-07 11:43:16.083858923
2025-11-07 11:43:14.509816,-735,2025-11-07 11:43:16.091551231
2025-11-07 11:43:14.509816,5631,2025-11-07 11:43:16.099243538
2025-11-07 11:43:14.509816,-3,2025-11-07 11:43:16.106935846
2025-11-07 11:43:14.509816,-744,2025-11-07 11:43:16.114628154
2025-11-07 11:43:14.509816,9215,2025-11-07 11:43:16.122320462
2025-11-07 11:43:14.509816,-3,2025-11-07 11:43:16.130012769
2025-11-07 11:43:14.509816,-737,2025-11-07 11:43:16.137705077
2025-11-07 11:43:14.509816,8191,2025-11-07 11:43:16.145397385
2025-11-07 11:43:14.509816,-3,2025-11-07 11:43:16.153089692
2025-11-07 11:43:14.509816,-725,2025-11-07 11:43:16.160782000
2025-11-07 11:43:14.509816,11263,2025-11-07 11:43:16.168474308
2025-11-07 11:43:14.509816,-3,2025-11-07 11:43:16.176166615
2025-11-07 11:43:14.509816,-728,2025-11-07 11:43:16.183858923
2025-11-07 11:43:14.509816,9983,2025-11-07 11:43:16.191551231
2025-11-07 11:43:14.509816,-3,2025-11-07 11:43:16.199243538
2025-11-07 11:43:14.509816,-737,2025-11-07 11:43:16.206935846
2025-11-07 11:43:14.509816,5631,2025-11-07 11:43:16.214628154
2025-11-07 11:43:14.509816,-3,2025-11-07 11:43:16.222320462
2025-11-07 11:43:14.509816,-754,2025-11-07 11:43:16.230012769
2025-11-07 11:43:14.509816,767,2025-11-07 11:43:16.237705077
2025-11-07 11:43:14.509816,-3,2025-11-07 11:43:16.245397385
2025-11-07 11:43:14.509816,-773,2025-11-07 11:43:16.253089692
2025-11-07 11:43:14.509816,-2305,2025-11-07 11:43:16.260782000
2025-11-07 11:43:14.509816,-4,2025-11-07 11:43:16.268474308
2025-11-07 11:43:14.509816,-778,2025-11-07 11:43:16.276166615
2025-11-07 11:43:14.509816,-257,2025-11-07 11:43:16.283858923
2025-11-07 11:43:14.509816,-4,2025-11-07 11:43:16.291551230
2025-11-07 11:43:14.509816,-759,2025-11-07 11:43:16.299243538
2025-11-07 11:43:14.509816,6399,2025-11-07 11:43:16.306935846
2025-11-07 11:43:14.509816,-3,2025-11-07 11:43:16.314628154
2025-11-07 11:43:14.509816,-711,2025-11-07 11:43:16.322320462
2025-11-07 11:43:14.509816,27647,2025-11-07 11:43:16.330012769
2025-11-07 11:43:14.509816,-3,2025-11-07 11:43:16.337705077
2025-11-07 11:43:14.509816,-612,2025-11-07 11:43:16.345397385
2025-11-07 11:43:14.509816,-14337,2025-11-07 11:43:16.353089692
2025-11-07 11:43:14.509816,-3,2025-11-07 11:43:16.360782000
2025-11-07 11:43:14.509816,-538,2025-11-07 11:43:16.368474308
2025-11-07 11:43:14.509816,-1025,2025-11-07 11:43:16.376166615
2025-11-07 11:43:14.509816,-3,2025-11-07 11:43:16.383858923
2025-11-07 11:43:14.509816,-495,2025-11-07 11:43:16.391551231
2025-11-07 11:43:14.509816,8191,2025-11-07 11:43:16.399243538
2025-11-07 11:43:14.509816,-2,2025-11-07 11:43:16.406935846
2025-11-07 11:43:14.509816,-474,2025-11-07 11:43:16.414628154
2025-11-07 11:43:14.509816,11263,2025-11-07 11:43:16.422320462
2025-11-07 11:43:14.509816,-2,2025-11-07 11:43:16.430012769
2025-11-07 11:43:14.509816,-469,2025-11-07 11:43:16.437705077
2025-11-07 11:43:14.509816,11263,2025-11-07 11:43:16.445397385
2025-11-07 11:43:14.509816,-2,2025-11-07 11:43:16.453089692
2025-11-07 11:43:14.509816,-467,2025-11-07 11:43:16.460782000
2025-11-07 11:43:14.509816,13055,2025-11-07 11:43:16.468474308
2025-11-07 11:43:14.509816,-2,2025-11-07 11:43:16.476166615
2025-11-07 11:43:14.509816,-460,2025-11-07 11:43:16.483858923
2025-11-07 11:43:14.509816,13567,2025-11-07 11:43:16.491551231
2025-11-07 11:43:14.509816,-2,2025-11-07 11:43:16.499243538
2025-11-07 11:43:14.509816,-460,2025-11-07 11:43:16.506935846
2025-11-07 11:43:14.509816,13055,2025-11-07 11:43:16.514628154
2025-11-07 11:43:14.509816,-2,2025-11-07 11:43:16.522320462
2025-11-07 11:43:14.509816,-462,2025-11-07 11:43:16.530012769
2025-11-07 11:43:14.509816,13567,2025-11-07 11:43:16.537705077
2025-11-07 11:43:14.509816,-2,2025-11-07 11:43:16.545397385
2025-11-07 11:43:14.509816,-455,2025-11-07 11:43:16.553089692
2025-11-07 11:43:14.509816,15359,2025-11-07 11:43:16.560782000
2025-11-07 11:43:14.509816,-2,2025-11-07 11:43:16.568474308
2025-11-07 11:43:14.509816,-448,2025-11-07 11:43:16.576166615
2025-11-07 11:43:14.509816,17407,2025-11-07 11:43:16.583858923
2025-11-07 11:43:14.509816,-2,2025-11-07 11:43:16.591551231
2025-11-07 11:43:14.509816,-445,2025-11-07 11:43:16.599243538
2025-11-07 11:43:14.509816,17919,2025-11-07 11:43:16.606935846
2025-11-07 11:43:14.509816,-2,2025-11-07 11:43:16.614628154
2025-11-07 11:43:14.509816,-434,2025-11-07 11:43:16.622320462
2025-11-07 11:43:14.509816,20991,2025-11-07 11:43:16.630012769
2025-11-07 11:43:14.509816,-2,2025-11-07 11:43:16.637705077
2025-11-07 11:43:14.509816,-434,2025-11-07 11:43:16.645397385
2025-11-07 11:43:14.509816,23295,2025-11-07 11:43:16.653089692
2025-11-07 11:43:14.509816,-2,2025-11-07 11:43:16.660782000
2025-11-07 11:43:14.509816,-415,2025-11-07 11:43:16.668474308
2025-11-07 11:43:14.509816,22783,2025-11-07 11:43:16.676166615
2025-11-07 11:43:14.509816,-2,2025-11-07 11:43:16.683858923
2025-11-07 11:43:14.509816,-424,2025-11-07 11:43:16.691551231
2025-11-07 11:43:14.509816,25087,2025-11-07 11:43:16.699243538
2025-11-07 11:43:14.509816,-2,2025-11-07 11:43:16.706935846
2025-11-07 11:43:14.509816,-412,2025-11-07 11:43:16.714628154
2025-11-07 11:43:14.509816,25087,2025-11-07 11:43:16.722320462
2025-11-07 11:43:14.509816,-2,2025-11-07 11:43:16.730012769
2025-11-07 11:43:14.509816,-422,2025-11-07 11:43:16.737705077
2025-11-07 11:43:14.509816,20223,2025-11-07 11:43:16.745397385
2025-11-07 11:43:14.509816,-2,2025-11-07 11:43:16.753089692
2025-11-07 11:43:14.509816,-441,2025-11-07 11:43:16.760782000
2025-11-07 11:43:14.509816,19199,2025-11-07 11:43:16.768474308
2025-11-07 11:43:14.509816,-2,2025-11-07 11:43:16.776166615
2025-11-07 11:43:14.509816,-427,2025-11-07 11:43:16.783858923
2025-11-07 11:43:15.110012,-419,2025-11-07 11:43:16.791551231
2025-11-07 11:43:15.110012,26879,2025-11-07 11:43:16.799243538
2025-11-07 11:43:15.110012,-2,2025-11-07 11:43:16.806935846
2025-11-07 11:43:15.110012,-389,2025-11-07 11:43:16.814628154
2025-11-07 11:43:15.110012,31231,2025-11-07 11:43:16.822320462
2025-11-07 11:43:15.110012,-2,2025-11-07 11:43:16.830012769
2025-11-07 11:43:15.110012,-403,2025-11-07 11:43:16.837705077
2025-11-07 11:43:15.110012,31231,2025-11-07 11:43:16.845397385
2025-11-07 11:43:15.110012,-2,2025-11-07 11:43:16.853089692
2025-11-07 11:43:15.110012,-367,2025-11-07 11:43:16.860782000
2025-11-07 11:43:15.110012,-26881,2025-11-07 11:43:16.868474308
2025-11-07 11:43:15.110012,-2,2025-11-07 11:43:16.876166615
2025-11-07 11:43:15.110012,-362,2025-11-07 11:43:16.883858923
2025-11-07 11:43:15.110012,-26369,2025-11-07 11:43:16.891551231
2025-11-07 11:43:15.110012,-2,2025-11-07 11:43:16.899243538
2025-11-07 11:43:15.110012,-362,2025-11-07 11:43:16.906935846
2025-11-07 11:43:15.110012,-27649,2025-11-07 11:43:16.914628154
2025-11-07 11:43:15.110012,-2,2025-11-07 11:43:16.922320462
2025-11-07 11:43:15.110012,-358,2025-11-07 11:43:16.930012769
2025-11-07 11:43:15.110012,-25089,2025-11-07 11:43:16.937705077
2025-11-07 11:43:15.110012,-2,2025-11-07 11:43:16.945397385
2025-11-07 11:43:15.110012,-360,2025-11-07 11:43:16.953089692
2025-11-07 11:43:15.110012,-29441,2025-11-07 11:43:16.960782000
2025-11-07 11:43:15.110012,-2,2025-11-07 11:43:16.968474308
2025-11-07 11:43:15.110012,-403,2025-11-07 11:43:16.976166615
2025-11-07 11:43:15.110012,16127,2025-11-07 11:43:16.983858923
2025-11-07 11:43:15.110012,-2,2025-11-07 11:43:16.991551231
2025-11-07 11:43:15.110012,-384,2025-11-07 11:43:16.999243538
2025-11-07 11:43:15.110012,26879,2025-11-07 11:43:17.006935846
2025-11-07 11:43:15.110012,0,2025-11-07 11:43:17.014628154
2025-11-07 11:43:15.110012,868,2025-11-07 11:43:17.022320462
2025-11-07 11:43:15.110012,-18688,2025-11-07 11:43:17.030012769
2025-11-07 11:43:15.110012,3,2025-11-07 11:43:17.037705077
2025-11-07 11:43:15.110012,196,2025-11-07 11:43:17.045397385
2025-11-07 11:43:15.110012,-27136,2025-11-07 11:43:17.053089692
2025-11-07 11:43:15.110012,-2,2025-11-07 11:43:17.060782000
2025-11-07 11:43:15.110012,-436,2025-11-07 11:43:17.068474308
2025-11-07 11:43:15.110012,11263,2025-11-07 11:43:17.076166615
2025-11-07 11:43:15.110012,-2,2025-11-07 11:43:17.083858923
2025-11-07 11:43:15.110012,-524,2025-11-07 11:43:17.091551231
2025-11-07 11:43:15.110012,-257,2025-11-07 11:43:17.099243538
2025-11-07 11:43:15.110012,-3,2025-11-07 11:43:17.106935846
2025-11-07 11:43:15.110012,-505,2025-11-07 11:43:17.114628154
2025-11-07 11:43:15.110012,-257,2025-11-07 11:43:17.122320462
2025-11-07 11:43:15.110012,-3,2025-11-07 11:43:17.130012769
2025-11-07 11:43:15.110012,-510,2025-11-07 11:43:17.137705077
2025-11-07 11:43:15.110012,3327,2025-11-07 11:43:17.145397385
2025-11-07 11:43:15.110012,-2,2025-11-07 11:43:17.153089692
2025-11-07 11:43:15.110012,-500,2025-11-07 11:43:17.160782000
2025-11-07 11:43:15.110012,3327,2025-11-07 11:43:17.168474308
2025-11-07 11:43:15.110012,-2,2025-11-07 11:43:17.176166615
2025-11-07 11:43:15.110012,-502,2025-11-07 11:43:17.183858923
2025-11-07 11:43:15.110012,2047,2025-11-07 11:43:17.191551231
2025-11-07 11:43:15.110012,-2,2025-11-07 11:43:17.199243538
2025-11-07 11:43:15.110012,-505,2025-11-07 11:43:17.206935846
2025-11-07 11:43:15.110012,767,2025-11-07 11:43:17.214628154
2025-11-07 11:43:15.110012,-2,2025-11-07 11:43:17.222320462
2025-11-07 11:43:15.110012,-519,2025-11-07 11:43:17.230012769
2025-11-07 11:43:15.110012,-4609,2025-11-07 11:43:17.237705077
2025-11-07 11:43:15.110012,-3,2025-11-07 11:43:17.245397385
2025-11-07 11:43:15.110012,-543,2025-11-07 11:43:17.253089692
2025-11-07 11:43:15.110012,-10753,2025-11-07 11:43:17.260782000
2025-11-07 11:43:15.110012,-3,2025-11-07 11:43:17.268474308
2025-11-07 11:43:15.110012,-566,2025-11-07 11:43:17.276166615
2025-11-07 11:43:15.110012,-16129,2025-11-07 11:43:17.283858923
2025-11-07 11:43:15.110012,-3,2025-11-07 11:43:17.291551230
2025-11-07 11:43:15.110012,-574,2025-11-07 11:43:17.299243538
2025-11-07 11:43:15.110012,-13569,2025-11-07 11:43:17.306935846
2025-11-07 11:43:15.110012,-3,2025-11-07 11:43:17.314628154
2025-11-07 11:43:15.110012,-559,2025-11-07 11:43:17.322320462
2025-11-07 11:43:15.110012,-6913,2025-11-07 11:43:17.330012769
2025-11-07 11:43:15.110012,-3,2025-11-07 11:43:17.337705077
2025-11-07 11:43:15.110012,-505,2025-11-07 11:43:17.345397385
2025-11-07 11:43:15.110012,13055,2025-11-07 11:43:17.353089692
2025-11-07 11:43:15.110012,-2,2025-11-07 11:43:17.360782000
2025-11-07 11:43:15.110012,-415,2025-11-07 11:43:17.368474308
2025-11-07 11:43:15.110012,-28161,2025-11-07 11:43:17.376166615
2025-11-07 11:43:15.110012,-2,2025-11-07 11:43:17.383858923
2025-11-07 11:43:15.110012,-332,2025-11-07 11:43:17.391551231
2025-11-07 11:43:15.110012,-13057,2025-11-07 11:43:17.399243538
2025-11-07 11:43:15.110012,-2,2025-11-07 11:43:17.406935846
2025-11-07 11:43:15.110012,-289,2025-11-07 11:43:17.414628154
2025-11-07 11:43:15.110012,-4609,2025-11-07 11:43:17.422320462
2025-11-07 11:43:15.110012,-2,2025-11-07 11:43:17.430012769
2025-11-07 11:43:15.110012,-268,2025-11-07 11:43:17.437705077
2025-11-07 11:43:15.110012,-2049,2025-11-07 11:43:17.445397385
2025-11-07 11:43:15.110012,-2,2025-11-07 11:43:17.453089692
2025-11-07 11:43:15.110012,-265,2025-11-07 11:43:17.460782000
2025-11-07 11:43:15.110012,-2049,2025-11-07 11:43:17.468474308
2025-11-07 11:43:15.110012,-2,2025-11-07 11:43:17.476166615
2025-11-07 11:43:15.110012,-268,2025-11-07 11:43:17.483858923
2025-11-07 11:43:15.110012,-3329,2025-11-07 11:43:17.491551231
2025-11-07 11:43:15.110012,-2,2025-11-07 11:43:17.499243538
2025-11-07 11:43:15.110012,-270,2025-11-07 11:43:17.506935846
2025-11-07 11:43:15.110012,-2817,2025-11-07 11:43:17.514628154
2025-11-07 11:43:15.110012,-2,2025-11-07 11:43:17.522320462
2025-11-07 11:43:15.110012,-268,2025-11-07 11:43:17.530012769
2025-11-07 11:43:15.110012,-2817,2025-11-07 11:43:17.537705077
2025-11-07 11:43:15.110012,-2,2025-11-07 11:43:17.545397385
2025-11-07 11:43:15.110012,-268,2025-11-07 11:43:17.553089692
2025-11-07 11:43:15.110012,-3329,2025-11-07 11:43:17.560782000
2025-11-07 11:43:15.110012,-2,2025-11-07 11:43:17.568474308
2025-11-07 11:43:15.110012,-272,2025-11-07 11:43:17.576166615
2025-11-07 11:43:15.110012,-2817,2025-11-07 11:43:17.583858923
2025-11-07 11:43:15.110012,-2,2025-11-07 11:43:17.591551231
2025-11-07 11:43:15.110012,-263,2025-11-07 11:43:17.599243538
2025-11-07 11:43:15.110012,-769,2025-11-07 11:43:17.606935846
2025-11-07 11:43:15.110012,-2,2025-11-07 11:43:17.614628154
2025-11-07 11:43:15.110012,-258,2025-11-07 11:43:17.622320462
2025-11-07 11:43:15.757566,-253,2025-11-07 11:43:17.630012769
2025-11-07 11:43:15.757566,1535,2025-11-07 11:43:17.637705077
2025-11-07 11:43:15.757566,-1,2025-11-07 11:43:17.645397385
2025-11-07 11:43:15.757566,-253,2025-11-07 11:43:17.653089692
2025-11-07 11:43:15.757566,1535,2025-11-07 11:43:17.660782000
2025-11-07 11:43:15.757566,-1,2025-11-07 11:43:17.668474308
2025-11-07 11:43:15.757566,-249,2025-11-07 11:43:17.676166615
2025-11-07 11:43:15.757566,1535,2025-11-07 11:43:17.683858923
2025-11-07 11:43:15.757566,-1,2025-11-07 11:43:17.691551231
2025-11-07 11:43:15.757566,-251,2025-11-07 11:43:17.699243538
2025-11-07 11:43:15.757566,1535,2025-11-07 11:43:17.706935846
2025-11-07 11:43:15.757566,-1,2025-11-07 11:43:17.714628154
2025-11-07 11:43:15.757566,-249,2025-11-07 11:43:17.722320462
2025-11-07 11:43:15.757566,1535,2025-11-07 11:43:17.730012769
2025-11-07 11:43:15.757566,-1,2025-11-07 11:43:17.737705077
2025-11-07 11:43:15.757566,-253,2025-11-07 11:43:17.745397385
2025-11-07 11:43:15.757566,-257,2025-11-07 11:43:17.753089692
2025-11-07 11:43:15.757566,-2,2025-11-07 11:43:17.760782000
2025-11-07 11:43:15.757566,-263,2025-11-07 11:43:17.768474308
2025-11-07 11:43:15.757566,-5121,2025-11-07 11:43:17.776166615
2025-11-07 11:43:15.757566,-2,2025-11-07 11:43:17.783858923
2025-11-07 11:43:15.757566,-277,2025-11-07 11:43:17.791551231
2025-11-07 11:43:15.757566,-1537,2025-11-07 11:43:17.799243538
2025-11-07 11:43:15.757566,-2,2025-11-07 11:43:17.806935846
2025-11-07 11:43:15.757566,-251,2025-11-07 11:43:17.814628154
2025-11-07 11:43:15.757566,3327,2025-11-07 11:43:17.822320462
2025-11-07 11:43:15.757566,-1,2025-11-07 11:43:17.830012769
2025-11-07 11:43:15.757566,-230,2025-11-07 11:43:17.837705077
2025-11-07 11:43:15.757566,8191,2025-11-07 11:43:17.845397385
2025-11-07 11:43:15.757566,-1,2025-11-07 11:43:17.853089692
2025-11-07 11:43:15.757566,-234,2025-11-07 11:43:17.860782000
2025-11-07 11:43:15.757566,5887,2025-11-07 11:43:17.868474308
2025-11-07 11:43:15.757566,-1,2025-11-07 11:43:17.876166615
2025-11-07 11:43:15.757566,-222,2025-11-07 11:43:17.883858923
2025-11-07 11:43:15.757566,9471,2025-11-07 11:43:17.891551231
2025-11-07 11:43:15.757566,-1,2025-11-07 11:43:17.899243538
2025-11-07 11:43:15.757566,-222,2025-11-07 11:43:17.906935846
2025-11-07 11:43:15.757566,8959,2025-11-07 11:43:17.914628154
2025-11-07 11:43:15.757566,-1,2025-11-07 11:43:17.922320462
2025-11-07 11:43:15.757566,-222,2025-11-07 11:43:17.930012769
2025-11-07 11:43:15.757566,8959,2025-11-07 11:43:17.937705077
2025-11-07 11:43:15.757566,-1,2025-11-07 11:43:17.945397385
2025-11-07 11:43:15.757566,-225,2025-11-07 11:43:17.953089692
2025-11-07 11:43:15.757566,7679,2025-11-07 11:43:17.960782000
2025-11-07 11:43:15.757566,-1,2025-11-07 11:43:17.968474308
2025-11-07 11:43:15.757566,-227,2025-11-07 11:43:17.976166615
2025-11-07 11:43:15.757566,5119,2025-11-07 11:43:17.983858923
2025-11-07 11:43:15.757566,-1,2025-11-07 11:43:17.991551231
2025-11-07 11:43:15.757566,-272,2025-11-07 11:43:17.999243538
2025-11-07 11:43:15.757566,-16641,2025-11-07 11:43:18.006935846
2025-11-07 11:43:15.757566,-2,2025-11-07 11:43:18.014628154
2025-11-07 11:43:15.757566,-218,2025-11-07 11:43:18.022320462
2025-11-07 11:43:15.757566,-32001,2025-11-07 11:43:18.030012769
2025-11-07 11:43:15.757566,1,2025-11-07 11:43:18.037705077
2025-11-07 11:43:15.757566,1314,2025-11-07 11:43:18.045397385
2025-11-07 11:43:15.757566,-17408,2025-11-07 11:43:18.053089692
2025-11-07 11:43:15.757566,5,2025-11-07 11:43:18.060782000
2025-11-07 11:43:15.757566,533,2025-11-07 11:43:18.068474308
2025-11-07 11:43:15.757566,-12032,2025-11-07 11:43:18.076166615
2025-11-07 11:43:15.757566,-2,2025-11-07 11:43:18.083858923
2025-11-07 11:43:15.757566,-422,2025-11-07 11:43:18.091551231
2025-11-07 11:43:15.757566,-31233,2025-11-07 11:43:18.099243538
2025-11-07 11:43:15.757566,-2,2025-11-07 11:43:18.106935846
2025-11-07 11:43:15.757566,-457,2025-11-07 11:43:18.114628154
2025-11-07 11:43:15.757566,9983,2025-11-07 11:43:18.122320462
2025-11-07 11:43:15.757566,-2,2025-11-07 11:43:18.130012769
2025-11-07 11:43:15.757566,-436,2025-11-07 11:43:18.137705077
2025-11-07 11:43:15.757566,17919,2025-11-07 11:43:18.145397385
2025-11-07 11:43:15.757566,-2,2025-11-07 11:43:18.153089692
2025-11-07 11:43:15.757566,-453,2025-11-07 11:43:18.160782000
2025-11-07 11:43:15.757566,19711,2025-11-07 11:43:18.168474308
2025-11-07 11:43:15.757566,-2,2025-11-07 11:43:18.176166615
2025-11-07 11:43:15.757566,-434,2025-11-07 11:43:18.183858923
2025-11-07 11:43:15.757566,19199,2025-11-07 11:43:18.191551231
2025-11-07 11:43:15.757566,-2,2025-11-07 11:43:18.199243538
2025-11-07 11:43:15.757566,-434,2025-11-07 11:43:18.206935846
2025-11-07 11:43:15.757566,20991,2025-11-07 11:43:18.214628154
2025-11-07 11:43:15.757566,-2,2025-11-07 11:43:18.222320462
2025-11-07 11:43:15.757566,-441,2025-11-07 11:43:18.230012769
2025-11-07 11:43:15.757566,15359,2025-11-07 11:43:18.237705077
2025-11-07 11:43:15.757566,-2,2025-11-07 11:43:18.245397385
2025-11-07 11:43:15.757566,-457,2025-11-07 11:43:18.253089692
2025-11-07 11:43:15.757566,10495,2025-11-07 11:43:18.260782000
2025-11-07 11:43:15.757566,-2,2025-11-07 11:43:18.268474308
2025-11-07 11:43:15.757566,-491,2025-11-07 11:43:18.276166615
2025-11-07 11:43:15.757566,2815,2025-11-07 11:43:18.283858923
2025-11-07 11:43:15.757566,-2,2025-11-07 11:43:18.291551230
2025-11-07 11:43:15.757566,-514,2025-11-07 11:43:18.299243538
2025-11-07 11:43:15.757566,-4097,2025-11-07 11:43:18.306935846
2025-11-07 11:43:15.757566,-3,2025-11-07 11:43:18.314628154
2025-11-07 11:43:15.757566,-531,2025-11-07 11:43:18.322320462
2025-11-07 11:43:15.757566,-3329,2025-11-07 11:43:18.330012769
2025-11-07 11:43:15.757566,-3,2025-11-07 11:43:18.337705077
2025-11-07 11:43:15.757566,-514,2025-11-07 11:43:18.345397385
2025-11-07 11:43:15.757566,5119,2025-11-07 11:43:18.353089692
2025-11-07 11:43:15.757566,-2,2025-11-07 11:43:18.360782000
2025-11-07 11:43:15.757566,-453,2025-11-07 11:43:18.368474308
2025-11-07 11:43:15.757566,28927,2025-11-07 11:43:18.376166615
2025-11-07 11:43:15.757566,-2,2025-11-07 11:43:18.383858923
2025-11-07 11:43:15.757566,-343,2025-11-07 11:43:18.391551231
2025-11-07 11:43:15.757566,-9985,2025-11-07 11:43:18.399243538
2025-11-07 11:43:15.757566,-2,2025-11-07 11:43:18.406935846
2025-11-07 11:43:15.757566,-256,2025-11-07 11:43:18.414628154
2025-11-07 11:43:15.757566,8959,2025-11-07 11:43:18.422320462
2025-11-07 11:43:15.757566,-1,2025-11-07 11:43:18.430012769
2025-11-07 11:43:15.757566,-201,2025-11-07 11:43:18.437705077
2025-11-07 11:43:15.757566,17407,2025-11-07 11:43:18.445397385
2025-11-07 11:43:15.757566,-1,2025-11-07 11:43:18.453089692
2025-11-07 11:43:15.757566,-185,2025-11-07 11:43:18.460782000
2025-11-07 11:43:16.210853,-180,2025-11-07 11:43:18.468474308
2025-11-07 11:43:16.210853,20479,2025-11-07 11:43:18.476166615
2025-11-07 11:43:16.210853,-1,2025-11-07 11:43:18.483858923
2025-11-07 11:43:16.210853,-177,2025-11-07 11:43:18.491551231
2025-11-07 11:43:16.210853,19711,2025-11-07 11:43:18.499243538
2025-11-07 11:43:16.210853,-1,2025-11-07 11:43:18.506935846
2025-11-07 11:43:16.210853,-182,2025-11-07 11:43:18.514628154
2025-11-07 11:43:16.210853,19199,2025-11-07 11:43:18.522320462
2025-11-07 11:43:16.210853,-1,2025-11-07 11:43:18.530012769
2025-11-07 11:43:16.210853,-182,2025-11-07 11:43:18.537705077
2025-11-07 11:43:16.210853,19711,2025-11-07 11:43:18.545397385
2025-11-07 11:43:16.210853,-1,2025-11-07 11:43:18.553089692
2025-11-07 11:43:16.210853,-182,2025-11-07 11:43:18.560782000
2025-11-07 11:43:16.210853,19711,2025-11-07 11:43:18.568474308
2025-11-07 11:43:16.210853,-1,2025-11-07 11:43:18.576166615
2025-11-07 11:43:16.210853,-175,2025-11-07 11:43:18.583858923
2025-11-07 11:43:16.210853,20991,2025-11-07 11:43:18.591551231
2025-11-07 11:43:16.210853,-1,2025-11-07 11:43:18.599243538
2025-11-07 11:43:16.210853,-175,2025-11-07 11:43:18.606935846
2025-11-07 11:43:16.210853,20991,2025-11-07 11:43:18.614628154
2025-11-07 11:43:16.210853,-1,2025-11-07 11:43:18.622320462
2025-11-07 11:43:16.210853,-175,2025-11-07 11:43:18.630012769
2025-11-07 11:43:16.210853,21503,2025-11-07 11:43:18.637705077
2025-11-07 11:43:16.210853,-1,2025-11-07 11:43:18.645397385
2025-11-07 11:43:16.210853,-168,2025-11-07 11:43:18.653089692
2025-11-07 11:43:16.210853,22783,2025-11-07 11:43:18.660782000
2025-11-07 11:43:16.210853,-1,2025-11-07 11:43:18.668474308
2025-11-07 11:43:16.210853,-168,2025-11-07 11:43:18.676166615
2025-11-07 11:43:16.210853,23295,2025-11-07 11:43:18.683858923
2025-11-07 11:43:16.210853,-1,2025-11-07 11:43:18.691551231
2025-11-07 11:43:16.210853,-166,2025-11-07 11:43:18.699243538
2025-11-07 11:43:16.210853,22783,2025-11-07 11:43:18.706935846
2025-11-07 11:43:16.210853,-1,2025-11-07 11:43:18.714628154
2025-11-07 11:43:16.210853,-163,2025-11-07 11:43:18.722320462
2025-11-07 11:43:16.210853,24063,2025-11-07 11:43:18.730012769
2025-11-07 11:43:16.210853,-1,2025-11-07 11:43:18.737705077
2025-11-07 11:43:16.210853,-177,2025-11-07 11:43:18.745397385
2025-11-07 11:43:16.210853,16639,2025-11-07 11:43:18.753089692
2025-11-07 11:43:16.210853,-1,2025-11-07 11:43:18.760782000
2025-11-07 11:43:16.210853,-196,2025-11-07 11:43:18.768474308
2025-11-07 11:43:16.210853,16127,2025-11-07 11:43:18.776166615
2025-11-07 11:43:16.210853,-1,2025-11-07 11:43:18.783858923
2025-11-07 11:43:16.210853,-185,2025-11-07 11:43:18.791551231
2025-11-07 11:43:16.210853,20991,2025-11-07 11:43:18.799243538
2025-11-07 11:43:16.210853,-1,2025-11-07 11:43:18.806935846
2025-11-07 11:43:16.210853,-163,2025-11-07 11:43:18.814628154
2025-11-07 11:43:16.210853,27135,2025-11-07 11:43:18.822320462
2025-11-07 11:43:16.210853,-1,2025-11-07 11:43:18.830012769
2025-11-07 11:43:16.210853,-158,2025-11-07 11:43:18.837705077
2025-11-07 11:43:16.210853,22271,2025-11-07 11:43:18.845397385
2025-11-07 11:43:16.210853,-1,2025-11-07 11:43:18.853089692
2025-11-07 11:43:16.210853,-161,2025-11-07 11:43:18.860782000
2025-11-07 11:43:16.210853,27647,2025-11-07 11:43:18.868474308
2025-11-07 11:43:16.210853,-1,2025-11-07 11:43:18.876166615
2025-11-07 11:43:16.210853,-151,2025-11-07 11:43:18.883858923
2025-11-07 11:43:16.210853,28159,2025-11-07 11:43:18.891551231
2025-11-07 11:43:16.210853,-1,2025-11-07 11:43:18.899243538
2025-11-07 11:43:16.210853,-142,2025-11-07 11:43:18.906935846
2025-11-07 11:43:16.210853,28159,2025-11-07 11:43:18.914628154
2025-11-07 11:43:16.210853,-1,2025-11-07 11:43:18.922320462
2025-11-07 11:43:16.210853,-149,2025-11-07 11:43:18.930012769
2025-11-07 11:43:16.210853,27647,2025-11-07 11:43:18.937705077
2025-11-07 11:43:16.210853,-1,2025-11-07 11:43:18.945397385
2025-11-07 11:43:16.210853,-151,2025-11-07 11:43:18.953089692
2025-11-07 11:43:16.210853,26367,2025-11-07 11:43:18.960782000
2025-11-07 11:43:16.210853,-1,2025-11-07 11:43:18.968474308
2025-11-07 11:43:16.210853,-170,2025-11-07 11:43:18.976166615
2025-11-07 11:43:16.210853,8959,2025-11-07 11:43:18.983858923
2025-11-07 11:43:16.210853,-1,2025-11-07 11:43:18.991551231
2025-11-07 11:43:16.210853,-263,2025-11-07 11:43:18.999243538
2025-11-07 11:43:16.210853,-13569,2025-11-07 11:43:19.006935846
2025-11-07 11:43:16.210853,-1,2025-11-07 11:43:19.014628154
2025-11-07 11:43:16.210853,683,2025-11-07 11:43:19.022320462
2025-11-07 11:43:16.210853,-24064,2025-11-07 11:43:19.030012769
2025-11-07 11:43:16.210853,5,2025-11-07 11:43:19.037705077
2025-11-07 11:43:16.210853,1195,2025-11-07 11:43:19.045397385
2025-11-07 11:43:16.210853,-9728,2025-11-07 11:43:19.053089692
2025-11-07 11:43:16.210853,0,2025-11-07 11:43:19.060782000
2025-11-07 11:43:16.210853,-317,2025-11-07 11:43:19.068474308
2025-11-07 11:43:16.210853,-13057,2025-11-07 11:43:19.076166615
2025-11-07 11:43:16.210853,-2,2025-11-07 11:43:19.083858923
2025-11-07 11:43:16.210853,-315,2025-11-07 11:43:19.091551231
2025-11-07 11:43:16.210853,-31745,2025-11-07 11:43:19.099243538
2025-11-07 11:43:16.210853,-2,2025-11-07 11:43:19.106935846
2025-11-07 11:43:16.210853,-367,2025-11-07 11:43:19.114628154
2025-11-07 11:43:16.210853,-24065,2025-11-07 11:43:19.122320462
2025-11-07 11:43:16.210853,-2,2025-11-07 11:43:19.130012769
2025-11-07 11:43:16.210853,-367,2025-11-07 11:43:19.137705077
2025-11-07 11:43:16.210853,-27649,2025-11-07 11:43:19.145397385
2025-11-07 11:43:16.210853,-2,2025-11-07 11:43:19.153089692
2025-11-07 11:43:16.210853,-351,2025-11-07 11:43:19.160782000
2025-11-07 11:43:16.210853,-24065,2025-11-07 11:43:19.168474308
2025-11-07 11:43:16.210853,-2,2025-11-07 11:43:19.176166615
2025-11-07 11:43:16.210853,-353,2025-11-07 11:43:19.183858923
2025-11-07 11:43:16.210853,-24065,2025-11-07 11:43:19.191551231
2025-11-07 11:43:16.210853,-2,2025-11-07 11:43:19.199243538
2025-11-07 11:43:16.210853,-355,2025-11-07 11:43:19.206935846
2025-11-07 11:43:16.210853,-26881,2025-11-07 11:43:19.214628154
2025-11-07 11:43:16.210853,-2,2025-11-07 11:43:19.222320462
2025-11-07 11:43:16.210853,-370,2025-11-07 11:43:19.230012769
2025-11-07 11:43:16.210853,-30721,2025-11-07 11:43:19.237705077
2025-11-07 11:43:16.210853,-2,2025-11-07 11:43:19.245397385
2025-11-07 11:43:16.210853,-389,2025-11-07 11:43:19.253089692
2025-11-07 11:43:16.210853,28159,2025-11-07 11:43:19.260782000
2025-11-07 11:43:16.210853,-2,2025-11-07 11:43:19.268474308
2025-11-07 11:43:16.210853,-417,2025-11-07 11:43:19.276166615
2025-11-07 11:43:16.210853,23295,2025-11-07 11:43:19.283858923
2025-11-07 11:43:16.210853,-2,2025-11-07 11:43:19.291551230
2025-11-07 11:43:16.210853,-424,2025-11-07 11:43:19.299243538
2025-11-07 11:43:16.760647,-427,2025-11-07 11:43:19.306935846
2025-11-07 11:43:16.760647,24063,2025-11-07 11:43:19.314628154
2025-11-07 11:43:16.760647,-2,2025-11-07 11:43:19.322320462
2025-11-07 11:43:16.760647,-405,2025-11-07 11:43:19.330012769
2025-11-07 11:43:16.760647,-32513,2025-11-07 11:43:19.337705077
2025-11-07 11:43:16.760647,-2,2025-11-07 11:43:19.345397385
2025-11-07 11:43:16.760647,-346,2025-11-07 11:43:19.353089692
2025-11-07 11:43:16.760647,-10497,2025-11-07 11:43:19.360782000
2025-11-07 11:43:16.760647,-2,2025-11-07 11:43:19.368474308
2025-11-07 11:43:16.760647,-251,2025-11-07 11:43:19.376166615
2025-11-07 11:43:16.760647,11263,2025-11-07 11:43:19.383858923
2025-11-07 11:43:16.760647,-1,2025-11-07 11:43:19.391551231
2025-11-07 11:43:16.760647,-173,2025-11-07 11:43:19.399243538
2025-11-07 11:43:16.760647,29439,2025-11-07 11:43:19.406935846
2025-11-07 11:43:16.760647,-1,2025-11-07 11:43:19.414628154
2025-11-07 11:43:16.760647,-128,2025-11-07 11:43:19.422320462
2025-11-07 11:43:16.760647,-31745,2025-11-07 11:43:19.430012769
2025-11-07 11:43:16.760647,-1,2025-11-07 11:43:19.437705077
2025-11-07 11:43:16.760647,-118,2025-11-07 11:43:19.445397385
2025-11-07 11:43:16.760647,-29953,2025-11-07 11:43:19.453089692
2025-11-07 11:43:16.760647,-1,2025-11-07 11:43:19.460782000
2025-11-07 11:43:16.760647,-120,2025-11-07 11:43:19.468474308
2025-11-07 11:43:16.760647,-29953,2025-11-07 11:43:19.476166615
2025-11-07 11:43:16.760647,-1,2025-11-07 11:43:19.483858923
2025-11-07 11:43:16.760647,-118,2025-11-07 11:43:19.491551231
2025-11-07 11:43:16.760647,-30465,2025-11-07 11:43:19.499243538
2025-11-07 11:43:16.760647,-1,2025-11-07 11:43:19.506935846
2025-11-07 11:43:16.760647,-120,2025-11-07 11:43:19.514628154
2025-11-07 11:43:16.760647,-29441,2025-11-07 11:43:19.522320462
2025-11-07 11:43:16.760647,-1,2025-11-07 11:43:19.530012769
2025-11-07 11:43:16.760647,-120,2025-11-07 11:43:19.537705077
2025-11-07 11:43:16.760647,-31745,2025-11-07 11:43:19.545397385
2025-11-07 11:43:16.760647,-1,2025-11-07 11:43:19.553089692
2025-11-07 11:43:16.760647,-128,2025-11-07 11:43:19.560782000
2025-11-07 11:43:16.760647,-32513,2025-11-07 11:43:19.568474308
2025-11-07 11:43:16.760647,-1,2025-11-07 11:43:19.576166615
2025-11-07 11:43:16.760647,-123,2025-11-07 11:43:19.583858923
2025-11-07 11:43:16.760647,-31233,2025-11-07 11:43:19.591551231
2025-11-07 11:43:16.760647,-1,2025-11-07 11:43:19.599243538
2025-11-07 11:43:16.760647,-128,2025-11-07 11:43:19.606935846
2025-11-07 11:43:16.760647,-31745,2025-11-07 11:43:19.614628154
2025-11-07 11:43:16.760647,-1,2025-11-07 11:43:19.622320462
2025-11-07 11:43:16.760647,-120,2025-11-07 11:43:19.630012769
2025-11-07 11:43:16.760647,-29953,2025-11-07 11:43:19.637705077
2025-11-07 11:43:16.760647,-1,2025-11-07 11:43:19.645397385
2025-11-07 11:43:16.760647,-116,2025-11-07 11:43:19.653089692
2025-11-07 11:43:16.760647,-29953,2025-11-07 11:43:19.660782000
2025-11-07 11:43:16.760647,-1,2025-11-07 11:43:19.668474308
2025-11-07 11:43:16.760647,-118,2025-11-07 11:43:19.676166615
2025-11-07 11:43:16.760647,-29441,2025-11-07 11:43:19.683858923
2025-11-07 11:43:16.760647,-1,2025-11-07 11:43:19.691551231
2025-11-07 11:43:16.760647,-113,2025-11-07 11:43:19.699243538
2025-11-07 11:43:16.760647,-30465,2025-11-07 11:43:19.706935846
2025-11-07 11:43:16.760647,-1,2025-11-07 11:43:19.714628154
2025-11-07 11:43:16.760647,-130,2025-11-07 11:43:19.722320462
2025-11-07 11:43:16.760647,30207,2025-11-07 11:43:19.730012769
2025-11-07 11:43:16.760647,-1,2025-11-07 11:43:19.737705077
2025-11-07 11:43:16.760647,-151,2025-11-07 11:43:19.745397385
2025-11-07 11:43:16.760647,25855,2025-11-07 11:43:19.753089692
2025-11-07 11:43:16.760647,-1,2025-11-07 11:43:19.760782000
2025-11-07 11:43:16.760647,-142,2025-11-07 11:43:19.768474308
2025-11-07 11:43:16.760647,-32513,2025-11-07 11:43:19.776166615
2025-11-07 11:43:16.760647,-1,2025-11-07 11:43:19.783858923
2025-11-07 11:43:16.760647,-118,2025-11-07 11:43:19.791551231
2025-11-07 11:43:16.760647,-26369,2025-11-07 11:43:19.799243538
2025-11-07 11:43:16.760647,-1,2025-11-07 11:43:19.806935846
2025-11-07 11:43:16.760647,-106,2025-11-07 11:43:19.814628154
2025-11-07 11:43:16.760647,-30465,2025-11-07 11:43:19.822320462
2025-11-07 11:43:16.760647,-1,2025-11-07 11:43:19.830012769
2025-11-07 11:43:16.760647,-118,2025-11-07 11:43:19.837705077
2025-11-07 11:43:16.760647,-26369,2025-11-07 11:43:19.845397385
2025-11-07 11:43:16.760647,-1,2025-11-07 11:43:19.853089692
2025-11-07 11:43:16.760647,-104,2025-11-07 11:43:19.860782000
2025-11-07 11:43:16.760647,-27649,2025-11-07 11:43:19.868474308
2025-11-07 11:43:16.760647,-1,2025-11-07 11:43:19.876166615
2025-11-07 11:43:16.760647,-111,2025-11-07 11:43:19.883858923
2025-11-07 11:43:16.760647,-28161,2025-11-07 11:43:19.891551231
2025-11-07 11:43:16.760647,-1,2025-11-07 11:43:19.899243538
2025-11-07 11:43:16.760647,-113,2025-11-07 11:43:19.906935846
2025-11-07 11:43:16.760647,-28673,2025-11-07 11:43:19.914628154
2025-11-07 11:43:16.760647,-1,2025-11-07 11:43:19.922320462
2025-11-07 11:43:16.760647,-113,2025-11-07 11:43:19.930012769
2025-11-07 11:43:16.760647,-29441,2025-11-07 11:43:19.937705077
2025-11-07 11:43:16.760647,-1,2025-11-07 11:43:19.945397385
2025-11-07 11:43:16.760647,-128,2025-11-07 11:43:19.953089692
2025-11-07 11:43:16.760647,24063,2025-11-07 11:43:19.960782000
2025-11-07 11:43:16.760647,-1,2025-11-07 11:43:19.968474308
2025-11-07 11:43:16.760647,-220,2025-11-07 11:43:19.976166615
2025-11-07 11:43:16.760647,20991,2025-11-07 11:43:19.983858923
2025-11-07 11:43:16.760647,-1,2025-11-07 11:43:19.991551231
2025-11-07 11:43:16.760647,296,2025-11-07 11:43:19.999243538
2025-11-07 11:43:16.760647,29184,2025-11-07 11:43:20.006935846
2025-11-07 11:43:16.760647,4,2025-11-07 11:43:20.014628154
2025-11-07 11:43:16.760647,1385,2025-11-07 11:43:20.022320462
2025-11-07 11:43:16.760647,26624,2025-11-07 11:43:20.030012769
2025-11-07 11:43:16.760647,2,2025-11-07 11:43:20.037705077
2025-11-07 11:43:16.760647,-135,2025-11-07 11:43:20.045397385
2025-11-07 11:43:16.760647,-3841,2025-11-07 11:43:20.053089692
2025-11-07 11:43:16.760647,-2,2025-11-07 11:43:20.060782000
2025-11-07 11:43:16.760647,-249,2025-11-07 11:43:20.068474308
2025-11-07 11:43:16.760647,-12545,2025-11-07 11:43:20.076166615
2025-11-07 11:43:16.760647,-2,2025-11-07 11:43:20.083858923
2025-11-07 11:43:16.760647,-320,2025-11-07 11:43:20.091551231
2025-11-07 11:43:16.760647,-10497,2025-11-07 11:43:20.099243538
2025-11-07 11:43:16.760647,-2,2025-11-07 11:43:20.106935846
2025-11-07 11:43:16.760647,-306,2025-11-07 11:43:20.114628154
2025-11-07 11:43:16.760647,-13569,2025-11-07 11:43:20.122320462
2025-11-07 11:43:16.760647,-2,2025-11-07 11:43:20.130012769
2025-11-07 11:43:16.760647,-303,2025-11-07 11:43:20.137705077
2025-11-07 11:43:17.310219,-301,2025-11-07 11:43:20.145397385
2025-11-07 11:43:17.310219,-11777,2025-11-07 11:43:20.153089692
2025-11-07 11:43:17.310219,-2,2025-11-07 11:43:20.160782000
2025-11-07 11:43:17.310219,-301,2025-11-07 11:43:20.168474308
2025-11-07 11:43:17.310219,-11777,2025-11-07 11:43:20.176166615
2025-11-07 11:43:17.310219,-2,2025-11-07 11:43:20.183858923
2025-11-07 11:43:17.310219,-313,2025-11-07 11:43:20.191551231
2025-11-07 11:43:17.310219,-14849,2025-11-07 11:43:20.199243538
2025-11-07 11:43:17.310219,-2,2025-11-07 11:43:20.206935846
2025-11-07 11:43:17.310219,-315,2025-11-07 11:43:20.214628154
2025-11-07 11:43:17.310219,-14849,2025-11-07 11:43:20.222320462
2025-11-07 11:43:17.310219,-2,2025-11-07 11:43:20.230012769
2025-11-07 11:43:17.310219,-324,2025-11-07 11:43:20.237705077
2025-11-07 11:43:17.310219,-20993,2025-11-07 11:43:20.245397385
2025-11-07 11:43:17.310219,-2,2025-11-07 11:43:20.253089692
2025-11-07 11:43:17.310219,-348,2025-11-07 11:43:20.260782000
2025-11-07 11:43:17.310219,-24577,2025-11-07 11:43:20.268474308
2025-11-07 11:43:17.310219,-2,2025-11-07 11:43:20.276166615
2025-11-07 11:43:17.310219,-351,2025-11-07 11:43:20.283858923
2025-11-07 11:43:17.310219,-22785,2025-11-07 11:43:20.291551230
2025-11-07 11:43:17.310219,-2,2025-11-07 11:43:20.299243538
2025-11-07 11:43:17.310219,-336,2025-11-07 11:43:20.306935846
2025-11-07 11:43:17.310219,-17153,2025-11-07 11:43:20.314628154
2025-11-07 11:43:17.310219,-2,2025-11-07 11:43:20.322320462
2025-11-07 11:43:17.310219,-298,2025-11-07 11:43:20.330012769
2025-11-07 11:43:17.310219,-257,2025-11-07 11:43:20.337705077
2025-11-07 11:43:17.310219,-2,2025-11-07 11:43:20.345397385
2025-11-07 11:43:17.310219,-213,2025-11-07 11:43:20.353089692
2025-11-07 11:43:17.310219,20991,2025-11-07 11:43:20.360782000
2025-11-07 11:43:17.310219,-1,2025-11-07 11:43:20.368474308
2025-11-07 11:43:17.310219,-144,2025-11-07 11:43:20.376166615
2025-11-07 11:43:17.310219,-30465,2025-11-07 11:43:20.383858923
2025-11-07 11:43:17.310219,-1,2025-11-07 11:43:20.391551231
2025-11-07 11:43:17.310219,-102,2025-11-07 11:43:20.399243538
2025-11-07 11:43:17.310219,-22017,2025-11-07 11:43:20.406935846
2025-11-07 11:43:17.310219,-1,2025-11-07 11:43:20.414628154
2025-11-07 11:43:17.310219,-85,2025-11-07 11:43:20.422320462
2025-11-07 11:43:17.310219,-21505,2025-11-07 11:43:20.430012769
2025-11-07 11:43:17.310219,-1,2025-11-07 11:43:20.437705077
2025-11-07 11:43:17.310219,-83,2025-11-07 11:43:20.445397385
2025-11-07 11:43:17.310219,-20993,2025-11-07 11:43:20.453089692
2025-11-07 11:43:17.310219,-1,2025-11-07 11:43:20.460782000
2025-11-07 11:43:17.310219,-87,2025-11-07 11:43:20.468474308
2025-11-07 11:43:17.310219,-22785,2025-11-07 11:43:20.476166615
2025-11-07 11:43:17.310219,-1,2025-11-07 11:43:20.483858923
2025-11-07 11:43:17.310219,-90,2025-11-07 11:43:20.491551231
2025-11-07 11:43:17.310219,-23297,2025-11-07 11:43:20.499243538
2025-11-07 11:43:17.310219,-1,2025-11-07 11:43:20.506935846
2025-11-07 11:43:17.310219,-92,2025-11-07 11:43:20.514628154
2025-11-07 11:43:17.310219,-23297,2025-11-07 11:43:20.522320462
2025-11-07 11:43:17.310219,-1,2025-11-07 11:43:20.530012769
2025-11-07 11:43:17.310219,-92,2025-11-07 11:43:20.537705077
2025-11-07 11:43:17.310219,-23297,2025-11-07 11:43:20.545397385
2025-11-07 11:43:17.310219,-1,2025-11-07 11:43:20.553089692
2025-11-07 11:43:17.310219,-94,2025-11-07 11:43:20.560782000
2025-11-07 11:43:17.310219,-23809,2025-11-07 11:43:20.568474308
2025-11-07 11:43:17.310219,-1,2025-11-07 11:43:20.576166615
2025-11-07 11:43:17.310219,-94,2025-11-07 11:43:20.583858923
2025-11-07 11:43:17.310219,-24577,2025-11-07 11:43:20.591551231
2025-11-07 11:43:17.310219,-1,2025-11-07 11:43:20.599243538
2025-11-07 11:43:17.310219,-97,2025-11-07 11:43:20.606935846
2025-11-07 11:43:17.310219,-24577,2025-11-07 11:43:20.614628154
2025-11-07 11:43:17.310219,-1,2025-11-07 11:43:20.622320462
2025-11-07 11:43:17.310219,-94,2025-11-07 11:43:20.630012769
2025-11-07 11:43:17.310219,-24577,2025-11-07 11:43:20.637705077
2025-11-07 11:43:17.310219,-1,2025-11-07 11:43:20.645397385
2025-11-07 11:43:17.310219,-99,2025-11-07 11:43:20.653089692
2025-11-07 11:43:17.310219,-25089,2025-11-07 11:43:20.660782000
2025-11-07 11:43:17.310219,-1,2025-11-07 11:43:20.668474308
2025-11-07 11:43:17.310219,-99,2025-11-07 11:43:20.676166615
2025-11-07 11:43:17.310219,-25089,2025-11-07 11:43:20.683858923
2025-11-07 11:43:17.310219,-1,2025-11-07 11:43:20.691551231
2025-11-07 11:43:17.310219,-99,2025-11-07 11:43:20.699243538
2025-11-07 11:43:17.310219,-25089,2025-11-07 11:43:20.706935846
2025-11-07 11:43:17.310219,-1,2025-11-07 11:43:20.714628154
2025-11-07 11:43:17.310219,-102,2025-11-07 11:43:20.722320462
2025-11-07 11:43:17.310219,-25857,2025-11-07 11:43:20.730012769
2025-11-07 11:43:17.310219,-1,2025-11-07 11:43:20.737705077
2025-11-07 11:43:17.310219,-102,2025-11-07 11:43:20.745397385
2025-11-07 11:43:17.310219,-26881,2025-11-07 11:43:20.753089692
2025-11-07 11:43:17.310219,-1,2025-11-07 11:43:20.760782000
2025-11-07 11:43:17.310219,-118,2025-11-07 11:43:20.768474308
2025-11-07 11:43:17.310219,31999,2025-11-07 11:43:20.776166615
2025-11-07 11:43:17.310219,-1,2025-11-07 11:43:20.783858923
2025-11-07 11:43:17.310219,-142,2025-11-07 11:43:20.791551231
2025-11-07 11:43:17.310219,30207,2025-11-07 11:43:20.799243538
2025-11-07 11:43:17.310219,-1,2025-11-07 11:43:20.806935846
2025-11-07 11:43:17.310219,-128,2025-11-07 11:43:20.814628154
2025-11-07 11:43:17.310219,-29953,2025-11-07 11:43:20.822320462
2025-11-07 11:43:17.310219,-1,2025-11-07 11:43:20.830012769
2025-11-07 11:43:17.310219,-109,2025-11-07 11:43:20.837705077
2025-11-07 11:43:17.310219,-24577,2025-11-07 11:43:20.845397385
2025-11-07 11:43:17.310219,-1,2025-11-07 11:43:20.853089692
2025-11-07 11:43:17.310219,-102,2025-11-07 11:43:20.860782000
2025-11-07 11:43:17.310219,-28673,2025-11-07 11:43:20.868474308
2025-11-07 11:43:17.310219,-1,2025-11-07 11:43:20.876166615
2025-11-07 11:43:17.310219,-111,2025-11-07 11:43:20.883858923
2025-11-07 11:43:17.310219,-25089,2025-11-07 11:43:20.891551231
2025-11-07 11:43:17.310219,-1,2025-11-07 11:43:20.899243538
2025-11-07 11:43:17.310219,-94,2025-11-07 11:43:20.906935846
2025-11-07 11:43:17.310219,-23809,2025-11-07 11:43:20.914628154
2025-11-07 11:43:17.310219,-1,2025-11-07 11:43:20.922320462
2025-11-07 11:43:17.310219,-97,2025-11-07 11:43:20.930012769
2025-11-07 11:43:17.310219,-25089,2025-11-07 11:43:20.937705077
2025-11-07 11:43:17.310219,-1,2025-11-07 11:43:20.945397385
2025-11-07 11:43:17.310219,-99,2025-11-07 11:43:20.953089692
2025-11-07 11:43:17.310219,-24577,2025-11-07 11:43:20.960782000
2025-11-07 11:43:17.310219,-1,2025-11-07 11:43:20.968474308
2025-11-07 11:43:17.310219,-99,2025-11-07 11:43:20.976166615
2025-11-07 11:43:17.860283,-104,2025-11-07 11:43:20.983858923
2025-11-07 11:43:17.860283,-29441,2025-11-07 11:43:20.991551231
2025-11-07 11:43:17.860283,-1,2025-11-07 11:43:20.999243538
2025-11-07 11:43:17.860283,-154,2025-11-07 11:43:21.006935846
2025-11-07 11:43:17.860283,13055,2025-11-07 11:43:21.014628154
2025-11-07 11:43:17.860283,-1,2025-11-07 11:43:21.022320462
2025-11-07 11:43:17.860283,-94,2025-11-07 11:43:21.030012769
2025-11-07 11:43:17.860283,-1025,2025-11-07 11:43:21.037705077
2025-11-07 11:43:17.860283,1,2025-11-07 11:43:21.045397385
2025-11-07 11:43:17.860283,1330,2025-11-07 11:43:21.053089692
2025-11-07 11:43:17.860283,12800,2025-11-07 11:43:21.060782000
2025-11-07 11:43:17.860283,5,2025-11-07 11:43:21.068474308
2025-11-07 11:43:17.860283,443,2025-11-07 11:43:21.076166615
2025-11-07 11:43:17.860283,20736,2025-11-07 11:43:21.083858923
2025-11-07 11:43:17.860283,-1,2025-11-07 11:43:21.091551231
2025-11-07 11:43:17.860283,-222,2025-11-07 11:43:21.099243538
2025-11-07 11:43:17.860283,7679,2025-11-07 11:43:21.106935846
2025-11-07 11:43:17.860283,-1,2025-11-07 11:43:21.114628154
2025-11-07 11:43:17.860283,-291,2025-11-07 11:43:21.122320462
2025-11-07 11:43:17.860283,-7681,2025-11-07 11:43:21.130012769
2025-11-07 11:43:17.860283,-2,2025-11-07 11:43:21.137705077
2025-11-07 11:43:17.860283,-270,2025-11-07 11:43:21.145397385
2025-11-07 11:43:17.860283,-5633,2025-11-07 11:43:21.153089692
2025-11-07 11:43:17.860283,-2,2025-11-07 11:43:21.160782000
2025-11-07 11:43:17.860283,-275,2025-11-07 11:43:21.168474308
2025-11-07 11:43:17.860283,-2049,2025-11-07 11:43:21.176166615
2025-11-07 11:43:17.860283,-2,2025-11-07 11:43:21.183858923
2025-11-07 11:43:17.860283,-272,2025-11-07 11:43:21.191551231
2025-11-07 11:43:17.860283,-5121,2025-11-07 11:43:21.199243538
2025-11-07 11:43:17.860283,-2,2025-11-07 11:43:21.206935846
2025-11-07 11:43:17.860283,-275,2025-11-07 11:43:21.214628154
2025-11-07 11:43:17.860283,-5121,2025-11-07 11:43:21.222320462
2025-11-07 11:43:17.860283,-2,2025-11-07 11:43:21.230012769
2025-11-07 11:43:17.860283,-284,2025-11-07 11:43:21.237705077
2025-11-07 11:43:17.860283,-8705,2025-11-07 11:43:21.245397385
2025-11-07 11:43:17.860283,-2,2025-11-07 11:43:21.253089692
2025-11-07 11:43:17.860283,-303,2025-11-07 11:43:21.260782000
2025-11-07 11:43:17.860283,-14337,2025-11-07 11:43:21.268474308
2025-11-07 11:43:17.860283,-2,2025-11-07 11:43:21.276166615
2025-11-07 11:43:17.860283,-324,2025-11-07 11:43:21.283858923
2025-11-07 11:43:17.860283,-20225,2025-11-07 11:43:21.291551230
2025-11-07 11:43:17.860283,-2,2025-11-07 11:43:21.299243538
2025-11-07 11:43:17.860283,-343,2025-11-07 11:43:21.306935846
2025-11-07 11:43:17.860283,-24065,2025-11-07 11:43:21.314628154
2025-11-07 11:43:17.860283,-2,2025-11-07 11:43:21.322320462
2025-11-07 11:43:17.860283,-355,2025-11-07 11:43:21.330012769
2025-11-07 11:43:17.860283,-24065,2025-11-07 11:43:21.337705077
2025-11-07 11:43:17.860283,-2,2025-11-07 11:43:21.345397385
2025-11-07 11:43:17.860283,-334,2025-11-07 11:43:21.353089692
2025-11-07 11:43:17.860283,-16129,2025-11-07 11:43:21.360782000
2025-11-07 11:43:17.860283,-2,2025-11-07 11:43:21.368474308
2025-11-07 11:43:17.860283,-294,2025-11-07 11:43:21.376166615
2025-11-07 11:43:17.860283,1535,2025-11-07 11:43:21.383858923
2025-11-07 11:43:17.860283,-1,2025-11-07 11:43:21.391551231
2025-11-07 11:43:17.860283,-206,2025-11-07 11:43:21.399243538
2025-11-07 11:43:17.860283,22783,2025-11-07 11:43:21.406935846
2025-11-07 11:43:17.860283,-1,2025-11-07 11:43:21.414628154
2025-11-07 11:43:17.860283,-139,2025-11-07 11:43:21.422320462
2025-11-07 11:43:17.860283,-28673,2025-11-07 11:43:21.430012769
2025-11-07 11:43:17.860283,-1,2025-11-07 11:43:21.437705077
2025-11-07 11:43:17.860283,-97,2025-11-07 11:43:21.445397385
2025-11-07 11:43:17.860283,-22785,2025-11-07 11:43:21.453089692
2025-11-07 11:43:17.860283,-1,2025-11-07 11:43:21.460782000
2025-11-07 11:43:17.860283,-83,2025-11-07 11:43:21.468474308
2025-11-07 11:43:17.860283,-19713,2025-11-07 11:43:21.476166615
2025-11-07 11:43:17.860283,-1,2025-11-07 11:43:21.483858923
2025-11-07 11:43:17.860283,-80,2025-11-07 11:43:21.491551231
2025-11-07 11:43:17.860283,-20225,2025-11-07 11:43:21.499243538
2025-11-07 11:43:17.860283,-1,2025-11-07 11:43:21.506935846
2025-11-07 11:43:17.860283,-83,2025-11-07 11:43:21.514628154
2025-11-07 11:43:17.860283,-21505,2025-11-07 11:43:21.522320462
2025-11-07 11:43:17.860283,-1,2025-11-07 11:43:21.530012769
2025-11-07 11:43:17.860283,-90,2025-11-07 11:43:21.537705077
2025-11-07 11:43:17.860283,-23809,2025-11-07 11:43:21.545397385
2025-11-07 11:43:17.860283,-1,2025-11-07 11:43:21.553089692
2025-11-07 11:43:17.860283,-92,2025-11-07 11:43:21.560782000
2025-11-07 11:43:17.860283,-23297,2025-11-07 11:43:21.568474308
2025-11-07 11:43:17.860283,-1,2025-11-07 11:43:21.576166615
2025-11-07 11:43:17.860283,-97,2025-11-07 11:43:21.583858923
2025-11-07 11:43:17.860283,-23297,2025-11-07 11:43:21.591551231
2025-11-07 11:43:17.860283,-1,2025-11-07 11:43:21.599243538
2025-11-07 11:43:17.860283,-90,2025-11-07 11:43:21.606935846
2025-11-07 11:43:17.860283,-24577,2025-11-07 11:43:21.614628154
2025-11-07 11:43:17.860283,-1,2025-11-07 11:43:21.622320462
2025-11-07 11:43:17.860283,-97,2025-11-07 11:43:21.630012769
2025-11-07 11:43:17.860283,-22017,2025-11-07 11:43:21.637705077
2025-11-07 11:43:17.860283,-1,2025-11-07 11:43:21.645397385
2025-11-07 11:43:17.860283,-87,2025-11-07 11:43:21.653089692
2025-11-07 11:43:17.860283,-23809,2025-11-07 11:43:21.660782000
2025-11-07 11:43:17.860283,-1,2025-11-07 11:43:21.668474308
2025-11-07 11:43:17.860283,-94,2025-11-07 11:43:21.676166615
2025-11-07 11:43:17.860283,-23297,2025-11-07 11:43:21.683858923
2025-11-07 11:43:17.860283,-1,2025-11-07 11:43:21.691551231
2025-11-07 11:43:17.860283,-97,2025-11-07 11:43:21.699243538
2025-11-07 11:43:17.860283,-25089,2025-11-07 11:43:21.706935846
2025-11-07 11:43:17.860283,-1,2025-11-07 11:43:21.714628154
2025-11-07 11:43:17.860283,-92,2025-11-07 11:43:21.722320462
2025-11-07 11:43:17.860283,-23297,2025-11-07 11:43:21.730012769
2025-11-07 11:43:17.860283,-1,2025-11-07 11:43:21.737705077
2025-11-07 11:43:17.860283,-94,2025-11-07 11:43:21.745397385
2025-11-07 11:43:17.860283,-24577,2025-11-07 11:43:21.753089692
2025-11-07 11:43:17.860283,-1,2025-11-07 11:43:21.760782000
2025-11-07 11:43:17.860283,-97,2025-11-07 11:43:21.768474308
2025-11-07 11:43:17.860283,-23809,2025-11-07 11:43:21.776166615
2025-11-07 11:43:17.860283,-1,2025-11-07 11:43:21.783858923
2025-11-07 11:43:17.860283,-99,2025-11-07 11:43:21.791551231
2025-11-07 11:43:17.860283,-27649,2025-11-07 11:43:21.799243538
2025-11-07 11:43:17.860283,-1,2025-11-07 11:43:21.806935846
2025-11-07 11:43:17.860283,-118,2025-11-07 11:43:21.814628154
2025-11-07 11:43:18.460670,-128,2025-11-07 11:43:21.822320462
2025-11-07 11:43:18.460670,30719,2025-11-07 11:43:21.830012769
2025-11-07 11:43:18.460670,-1,2025-11-07 11:43:21.837705077
2025-11-07 11:43:18.460670,-125,2025-11-07 11:43:21.845397385
2025-11-07 11:43:18.460670,-26881,2025-11-07 11:43:21.853089692
2025-11-07 11:43:18.460670,-1,2025-11-07 11:43:21.860782000
2025-11-07 11:43:18.460670,-87,2025-11-07 11:43:21.868474308
2025-11-07 11:43:18.460670,-18433,2025-11-07 11:43:21.876166615
2025-11-07 11:43:18.460670,-1,2025-11-07 11:43:21.883858923
2025-11-07 11:43:18.460670,-75,2025-11-07 11:43:21.891551231
2025-11-07 11:43:18.460670,-20993,2025-11-07 11:43:21.899243538
2025-11-07 11:43:18.460670,-1,2025-11-07 11:43:21.906935846
2025-11-07 11:43:18.460670,-78,2025-11-07 11:43:21.914628154
2025-11-07 11:43:18.460670,-17153,2025-11-07 11:43:21.922320462
2025-11-07 11:43:18.460670,-1,2025-11-07 11:43:21.930012769
2025-11-07 11:43:18.460670,-66,2025-11-07 11:43:21.937705077
2025-11-07 11:43:18.460670,-17153,2025-11-07 11:43:21.945397385
2025-11-07 11:43:18.460670,-1,2025-11-07 11:43:21.953089692
2025-11-07 11:43:18.460670,-68,2025-11-07 11:43:21.960782000
2025-11-07 11:43:18.460670,-17921,2025-11-07 11:43:21.968474308
2025-11-07 11:43:18.460670,-1,2025-11-07 11:43:21.976166615
2025-11-07 11:43:18.460670,-73,2025-11-07 11:43:21.983858923
2025-11-07 11:43:18.460670,-17921,2025-11-07 11:43:21.991551231
2025-11-07 11:43:18.460670,-1,2025-11-07 11:43:21.999243538
2025-11-07 11:43:18.460670,-71,2025-11-07 11:43:22.006935846
2025-11-07 11:43:18.460670,-17921,2025-11-07 11:43:22.014628154
2025-11-07 11:43:18.460670,-1,2025-11-07 11:43:22.022320462
2025-11-07 11:43:18.460670,-75,2025-11-07 11:43:22.030012769
2025-11-07 11:43:18.460670,-25089,2025-11-07 11:43:22.037705077
2025-11-07 11:43:18.460670,-1,2025-11-07 11:43:22.045397385
2025-11-07 11:43:18.460670,-154,2025-11-07 11:43:22.053089692
2025-11-07 11:43:18.460670,20479,2025-11-07 11:43:22.060782000
2025-11-07 11:43:18.460670,-1,2025-11-07 11:43:22.068474308
2025-11-07 11:43:18.460670,61,2025-11-07 11:43:22.076166615
2025-11-07 11:43:18.460670,512,2025-11-07 11:43:22.083858923
2025-11-07 11:43:18.460670,3,2025-11-07 11:43:22.091551231
2025-11-07 11:43:18.460670,1330,2025-11-07 11:43:22.099243538
2025-11-07 11:43:18.460670,-24832,2025-11-07 11:43:22.106935846
2025-11-07 11:43:18.460670,3,2025-11-07 11:43:22.114628154
2025-11-07 11:43:18.460670,130,2025-11-07 11:43:22.122320462
2025-11-07 11:43:18.460670,19456,2025-11-07 11:43:22.130012769
2025-11-07 11:43:18.460670,-1,2025-11-07 11:43:22.137705077
2025-11-07 11:43:18.460670,-201,2025-11-07 11:43:22.145397385
2025-11-07 11:43:18.460670,1023,2025-11-07 11:43:22.153089692
2025-11-07 11:43:18.460670,-1,2025-11-07 11:43:22.160782000
2025-11-07 11:43:18.460670,-270,2025-11-07 11:43:22.168474308
2025-11-07 11:43:18.460670,1023,2025-11-07 11:43:22.176166615
2025-11-07 11:43:18.460670,-1,2025-11-07 11:43:22.183858923
2025-11-07 11:43:18.460670,-263,2025-11-07 11:43:22.191551231
2025-11-07 11:43:18.460670,-3329,2025-11-07 11:43:22.199243538
2025-11-07 11:43:18.460670,-2,2025-11-07 11:43:22.206935846
2025-11-07 11:43:18.460670,-260,2025-11-07 11:43:22.214628154
2025-11-07 11:43:18.460670,255,2025-11-07 11:43:22.222320462
2025-11-07 11:43:18.460670,-1,2025-11-07 11:43:22.230012769
2025-11-07 11:43:18.460670,-258,2025-11-07 11:43:22.237705077
2025-11-07 11:43:18.460670,-769,2025-11-07 11:43:22.245397385
2025-11-07 11:43:18.460670,-2,2025-11-07 11:43:22.253089692
2025-11-07 11:43:18.460670,-260,2025-11-07 11:43:22.260782000
2025-11-07 11:43:18.460670,-1537,2025-11-07 11:43:22.268474308
2025-11-07 11:43:18.460670,-2,2025-11-07 11:43:22.276166615
2025-11-07 11:43:18.460670,-270,2025-11-07 11:43:22.283858923
2025-11-07 11:43:18.460670,-5633,2025-11-07 11:43:22.291551230
2025-11-07 11:43:18.460670,-2,2025-11-07 11:43:22.299243538
2025-11-07 11:43:18.460670,-287,2025-11-07 11:43:22.306935846
2025-11-07 11:43:18.460670,-10497,2025-11-07 11:43:22.314628154
2025-11-07 11:43:18.460670,-2,2025-11-07 11:43:22.322320462
2025-11-07 11:43:18.460670,-310,2025-11-07 11:43:22.330012769
2025-11-07 11:43:18.460670,-16129,2025-11-07 11:43:22.337705077
2025-11-07 11:43:18.460670,-2,2025-11-07 11:43:22.345397385
2025-11-07 11:43:18.460670,-327,2025-11-07 11:43:22.353089692
2025-11-07 11:43:18.460670,-19201,2025-11-07 11:43:22.360782000
2025-11-07 11:43:18.460670,-2,2025-11-07 11:43:22.368474308
2025-11-07 11:43:18.460670,-332,2025-11-07 11:43:22.376166615
2025-11-07 11:43:18.460670,-17153,2025-11-07 11:43:22.383858923
2025-11-07 11:43:18.460670,-2,2025-11-07 11:43:22.391551231
2025-11-07 11:43:18.460670,-310,2025-11-07 11:43:22.399243538
2025-11-07 11:43:18.460670,-6913,2025-11-07 11:43:22.406935846
2025-11-07 11:43:18.460670,-2,2025-11-07 11:43:22.414628154
2025-11-07 11:43:18.460670,-249,2025-11-07 11:43:22.422320462
2025-11-07 11:43:18.460670,12543,2025-11-07 11:43:22.430012769
2025-11-07 11:43:18.460670,-1,2025-11-07 11:43:22.437705077
2025-11-07 11:43:18.460670,-168,2025-11-07 11:43:22.445397385
2025-11-07 11:43:18.460670,32511,2025-11-07 11:43:22.453089692
2025-11-07 11:43:18.460670,-1,2025-11-07 11:43:22.460782000
2025-11-07 11:43:18.460670,-99,2025-11-07 11:43:22.468474308
2025-11-07 11:43:18.460670,-19713,2025-11-07 11:43:22.476166615
2025-11-07 11:43:18.460670,-1,2025-11-07 11:43:22.483858923
2025-11-07 11:43:18.460670,-66,2025-11-07 11:43:22.491551231
2025-11-07 11:43:18.460670,-14849,2025-11-07 11:43:22.499243538
2025-11-07 11:43:18.460670,-1,2025-11-07 11:43:22.506935846
2025-11-07 11:43:18.460670,-59,2025-11-07 11:43:22.514628154
2025-11-07 11:43:18.460670,-15361,2025-11-07 11:43:22.522320462
2025-11-07 11:43:18.460670,-1,2025-11-07 11:43:22.530012769
2025-11-07 11:43:18.460670,-61,2025-11-07 11:43:22.537705077
2025-11-07 11:43:18.460670,-15361,2025-11-07 11:43:22.545397385
2025-11-07 11:43:18.460670,-1,2025-11-07 11:43:22.553089692
2025-11-07 11:43:18.460670,-64,2025-11-07 11:43:22.560782000
2025-11-07 11:43:18.460670,-17153,2025-11-07 11:43:22.568474308
2025-11-07 11:43:18.460670,-1,2025-11-07 11:43:22.576166615
2025-11-07 11:43:18.460670,-68,2025-11-07 11:43:22.583858923
2025-11-07 11:43:18.460670,-16641,2025-11-07 11:43:22.591551231
2025-11-07 11:43:18.460670,-1,2025-11-07 11:43:22.599243538
2025-11-07 11:43:18.460670,-68,2025-11-07 11:43:22.606935846
2025-11-07 11:43:18.460670,-16641,2025-11-07 11:43:22.614628154
2025-11-07 11:43:18.460670,-1,2025-11-07 11:43:22.622320462
2025-11-07 11:43:18.460670,-66,2025-11-07 11:43:22.630012769
2025-11-07 11:43:18.460670,-17153,2025-11-07 11:43:22.637705077
2025-11-07 11:43:18.460670,-1,2025-11-07 11:43:22.645397385
2025-11-07 11:43:18.460670,-68,2025-11-07 11:43:22.653089692
2025-11-07 11:43:19.060787,-64,2025-11-07 11:43:22.660782000
2025-11-07 11:43:19.060787,-15361,2025-11-07 11:43:22.668474308
2025-11-07 11:43:19.060787,-1,2025-11-07 11:43:22.676166615
2025-11-07 11:43:19.060787,-61,2025-11-07 11:43:22.683858923
2025-11-07 11:43:19.060787,-14849,2025-11-07 11:43:22.691551231
2025-11-07 11:43:19.060787,-1,2025-11-07 11:43:22.699243538
2025-11-07 11:43:19.060787,-56,2025-11-07 11:43:22.706935846
2025-11-07 11:43:19.060787,-15361,2025-11-07 11:43:22.714628154
2025-11-07 11:43:19.060787,-1,2025-11-07 11:43:22.722320462
2025-11-07 11:43:19.060787,-64,2025-11-07 11:43:22.730012769
2025-11-07 11:43:19.060787,-16129,2025-11-07 11:43:22.737705077
2025-11-07 11:43:19.060787,-1,2025-11-07 11:43:22.745397385
2025-11-07 11:43:19.060787,-59,2025-11-07 11:43:22.753089692
2025-11-07 11:43:19.060787,-12289,2025-11-07 11:43:22.760782000
2025-11-07 11:43:19.060787,-1,2025-11-07 11:43:22.768474308
2025-11-07 11:43:19.060787,-45,2025-11-07 11:43:22.776166615
2025-11-07 11:43:19.060787,-12289,2025-11-07 11:43:22.783858923
2025-11-07 11:43:19.060787,-1,2025-11-07 11:43:22.791551231
2025-11-07 11:43:19.060787,-52,2025-11-07 11:43:22.799243538
2025-11-07 11:43:19.060787,-13057,2025-11-07 11:43:22.806935846
2025-11-07 11:43:19.060787,-1,2025-11-07 11:43:22.814628154
2025-11-07 11:43:19.060787,-54,2025-11-07 11:43:22.822320462
2025-11-07 11:43:19.060787,-14081,2025-11-07 11:43:22.830012769
2025-11-07 11:43:19.060787,-1,2025-11-07 11:43:22.837705077
2025-11-07 11:43:19.060787,-54,2025-11-07 11:43:22.845397385
2025-11-07 11:43:19.060787,-14081,2025-11-07 11:43:22.853089692
2025-11-07 11:43:19.060787,-1,2025-11-07 11:43:22.860782000
2025-11-07 11:43:19.060787,-64,2025-11-07 11:43:22.868474308
2025-11-07 11:43:19.060787,-16641,2025-11-07 11:43:22.876166615
2025-11-07 11:43:19.060787,-1,2025-11-07 11:43:22.883858923
2025-11-07 11:43:19.060787,-66,2025-11-07 11:43:22.891551231
2025-11-07 11:43:19.060787,-16641,2025-11-07 11:43:22.899243538
2025-11-07 11:43:19.060787,-1,2025-11-07 11:43:22.906935846
2025-11-07 11:43:19.060787,-64,2025-11-07 11:43:22.914628154
2025-11-07 11:43:19.060787,-16641,2025-11-07 11:43:22.922320462
2025-11-07 11:43:19.060787,-1,2025-11-07 11:43:22.930012769
2025-11-07 11:43:19.060787,-68,2025-11-07 11:43:22.937705077
2025-11-07 11:43:19.060787,-16641,2025-11-07 11:43:22.945397385
2025-11-07 11:43:19.060787,-1,2025-11-07 11:43:22.953089692
2025-11-07 11:43:19.060787,-64,2025-11-07 11:43:22.960782000
2025-11-07 11:43:19.060787,-16641,2025-11-07 11:43:22.968474308
2025-11-07 11:43:19.060787,-1,2025-11-07 11:43:22.976166615
2025-11-07 11:43:19.060787,-66,2025-11-07 11:43:22.983858923
2025-11-07 11:43:19.060787,-16129,2025-11-07 11:43:22.991551231
2025-11-07 11:43:19.060787,-1,2025-11-07 11:43:22.999243538
2025-11-07 11:43:19.060787,-64,2025-11-07 11:43:23.006935846
2025-11-07 11:43:19.060787,-16641,2025-11-07 11:43:23.014628154
2025-11-07 11:43:19.060787,-1,2025-11-07 11:43:23.022320462
2025-11-07 11:43:19.060787,-68,2025-11-07 11:43:23.030012769
2025-11-07 11:43:19.060787,-18433,2025-11-07 11:43:23.037705077
2025-11-07 11:43:19.060787,-1,2025-11-07 11:43:23.045397385
2025-11-07 11:43:19.060787,-80,2025-11-07 11:43:23.053089692
2025-11-07 11:43:19.060787,-23809,2025-11-07 11:43:23.060782000
2025-11-07 11:43:19.060787,-1,2025-11-07 11:43:23.068474308
2025-11-07 11:43:19.060787,-106,2025-11-07 11:43:23.076166615
2025-11-07 11:43:19.060787,-27649,2025-11-07 11:43:23.083858923
2025-11-07 11:43:19.060787,-1,2025-11-07 11:43:23.091551231
2025-11-07 11:43:19.060787,-97,2025-11-07 11:43:23.099243538
2025-11-07 11:43:19.060787,-22785,2025-11-07 11:43:23.106935846
2025-11-07 11:43:19.060787,-1,2025-11-07 11:43:23.114628154
2025-11-07 11:43:19.060787,-85,2025-11-07 11:43:23.122320462
2025-11-07 11:43:19.060787,-18945,2025-11-07 11:43:23.130012769
2025-11-07 11:43:19.060787,-1,2025-11-07 11:43:23.137705077
2025-11-07 11:43:19.060787,-66,2025-11-07 11:43:23.145397385
2025-11-07 11:43:19.060787,-18433,2025-11-07 11:43:23.153089692
2025-11-07 11:43:19.060787,-1,2025-11-07 11:43:23.160782000
2025-11-07 11:43:19.060787,-78,2025-11-07 11:43:23.168474308
2025-11-07 11:43:19.060787,-18945,2025-11-07 11:43:23.176166615
2025-11-07 11:43:19.060787,-1,2025-11-07 11:43:23.183858923
2025-11-07 11:43:19.060787,-71,2025-11-07 11:43:23.191551231
2025-11-07 11:43:19.060787,-17921,2025-11-07 11:43:23.199243538
2025-11-07 11:43:19.060787,-1,2025-11-07 11:43:23.206935846
2025-11-07 11:43:19.060787,-68,2025-11-07 11:43:23.214628154
2025-11-07 11:43:19.060787,-17921,2025-11-07 11:43:23.222320462
2025-11-07 11:43:19.060787,-1,2025-11-07 11:43:23.230012769
2025-11-07 11:43:19.060787,-75,2025-11-07 11:43:23.237705077
2025-11-07 11:43:19.060787,-18945,2025-11-07 11:43:23.245397385
2025-11-07 11:43:19.060787,-1,2025-11-07 11:43:23.253089692
2025-11-07 11:43:19.060787,-78,2025-11-07 11:43:23.260782000
2025-11-07 11:43:19.060787,-19713,2025-11-07 11:43:23.268474308
2025-11-07 11:43:19.060787,-1,2025-11-07 11:43:23.276166615
2025-11-07 11:43:19.060787,-83,2025-11-07 11:43:23.283858923
2025-11-07 11:43:19.060787,-25857,2025-11-07 11:43:23.291551230
2025-11-07 11:43:19.060787,-1,2025-11-07 11:43:23.299243538
2025-11-07 11:43:19.060787,-147,2025-11-07 11:43:23.306935846
2025-11-07 11:43:19.060787,19711,2025-11-07 11:43:23.314628154
2025-11-07 11:43:19.060787,-1,2025-11-07 11:43:23.322320462
2025-11-07 11:43:19.060787,9,2025-11-07 11:43:23.330012769
2025-11-07 11:43:19.060787,-15872,2025-11-07 11:43:23.337705077
2025-11-07 11:43:19.060787,2,2025-11-07 11:43:23.345397385
2025-11-07 11:43:19.060787,1503,2025-11-07 11:43:23.353089692
2025-11-07 11:43:19.060787,20224,2025-11-07 11:43:23.360782000
2025-11-07 11:43:19.060787,5,2025-11-07 11:43:23.368474308
2025-11-07 11:43:19.060787,389,2025-11-07 11:43:23.376166615
2025-11-07 11:43:19.060787,9728,2025-11-07 11:43:23.383858923
2025-11-07 11:43:19.060787,-1,2025-11-07 11:43:23.391551231
2025-11-07 11:43:19.060787,-234,2025-11-07 11:43:23.399243538
2025-11-07 11:43:19.060787,5119,2025-11-07 11:43:23.406935846
2025-11-07 11:43:19.060787,-1,2025-11-07 11:43:23.414628154
2025-11-07 11:43:19.060787,-306,2025-11-07 11:43:23.422320462
2025-11-07 11:43:19.060787,-8705,2025-11-07 11:43:23.430012769
2025-11-07 11:43:19.060787,-2,2025-11-07 11:43:23.437705077
2025-11-07 11:43:19.060787,-272,2025-11-07 11:43:23.445397385
2025-11-07 11:43:19.060787,-8193,2025-11-07 11:43:23.453089692
2025-11-07 11:43:19.060787,-2,2025-11-07 11:43:23.460782000
2025-11-07 11:43:19.060787,-289,2025-11-07 11:43:23.468474308
2025-11-07 11:43:19.060787,-4609,2025-11-07 11:43:23.476166615
2025-11-07 11:43:19.060787,-2,2025-11-07 11:43:23.483858923
2025-11-07 11:43:19.060787,-279,2025-11-07 11:43:23.491551231
2025-11-07 11:43:19.560444,-282,2025-11-07 11:43:23.499243538
2025-11-07 11:43:19.560444,-5633,2025-11-07 11:43:23.506935846
2025-11-07 11:43:19.560444,-2,2025-11-07 11:43:23.514628154
2025-11-07 11:43:19.560444,-284,2025-11-07 11:43:23.522320462
2025-11-07 11:43:19.560444,-8193,2025-11-07 11:43:23.530012769
2025-11-07 11:43:19.560444,-2,2025-11-07 11:43:23.537705077
2025-11-07 11:43:19.560444,-296,2025-11-07 11:43:23.545397385
2025-11-07 11:43:19.560444,-13569,2025-11-07 11:43:23.553089692
2025-11-07 11:43:19.560444,-2,2025-11-07 11:43:23.560782000
2025-11-07 11:43:19.560444,-320,2025-11-07 11:43:23.568474308
2025-11-07 11:43:19.560444,-19201,2025-11-07 11:43:23.576166615
2025-11-07 11:43:19.560444,-2,2025-11-07 11:43:23.583858923
2025-11-07 11:43:19.560444,-346,2025-11-07 11:43:23.591551231
2025-11-07 11:43:19.560444,-25857,2025-11-07 11:43:23.599243538
2025-11-07 11:43:19.560444,-2,2025-11-07 11:43:23.606935846
2025-11-07 11:43:19.560444,-367,2025-11-07 11:43:23.614628154
2025-11-07 11:43:19.560444,-28929,2025-11-07 11:43:23.622320462
2025-11-07 11:43:19.560444,-2,2025-11-07 11:43:23.630012769
2025-11-07 11:43:19.560444,-362,2025-11-07 11:43:23.637705077
2025-11-07 11:43:19.560444,-24065,2025-11-07 11:43:23.645397385
2025-11-07 11:43:19.560444,-2,2025-11-07 11:43:23.653089692
2025-11-07 11:43:19.560444,-324,2025-11-07 11:43:23.660782000
2025-11-07 11:43:19.560444,-6401,2025-11-07 11:43:23.668474308
2025-11-07 11:43:19.560444,-2,2025-11-07 11:43:23.676166615
2025-11-07 11:43:19.560444,-237,2025-11-07 11:43:23.683858923
2025-11-07 11:43:19.560444,17407,2025-11-07 11:43:23.691551231
2025-11-07 11:43:19.560444,-1,2025-11-07 11:43:23.699243538
2025-11-07 11:43:19.560444,-139,2025-11-07 11:43:23.706935846
2025-11-07 11:43:19.560444,-25089,2025-11-07 11:43:23.714628154
2025-11-07 11:43:19.560444,-1,2025-11-07 11:43:23.722320462
2025-11-07 11:43:19.560444,-71,2025-11-07 11:43:23.730012769
2025-11-07 11:43:19.560444,-12289,2025-11-07 11:43:23.737705077
2025-11-07 11:43:19.560444,-1,2025-11-07 11:43:23.745397385
2025-11-07 11:43:19.560444,-37,2025-11-07 11:43:23.753089692
2025-11-07 11:43:19.560444,-8193,2025-11-07 11:43:23.760782000
2025-11-07 11:43:19.560444,-1,2025-11-07 11:43:23.768474308
2025-11-07 11:43:19.560444,-28,2025-11-07 11:43:23.776166615
2025-11-07 11:43:19.560444,-5633,2025-11-07 11:43:23.783858923
2025-11-07 11:43:19.560444,-1,2025-11-07 11:43:23.791551231
2025-11-07 11:43:19.560444,-23,2025-11-07 11:43:23.799243538
2025-11-07 11:43:19.560444,-6401,2025-11-07 11:43:23.806935846
2025-11-07 11:43:19.560444,-1,2025-11-07 11:43:23.814628154
2025-11-07 11:43:19.560444,-28,2025-11-07 11:43:23.822320462
2025-11-07 11:43:19.560444,-8193,2025-11-07 11:43:23.830012769
2025-11-07 11:43:19.560444,-1,2025-11-07 11:43:23.837705077
2025-11-07 11:43:19.560444,-37,2025-11-07 11:43:23.845397385
2025-11-07 11:43:19.560444,-9217,2025-11-07 11:43:23.853089692
2025-11-07 11:43:19.560444,-1,2025-11-07 11:43:23.860782000
2025-11-07 11:43:19.560444,-40,2025-11-07 11:43:23.868474308
2025-11-07 11:43:19.560444,-9985,2025-11-07 11:43:23.876166615
2025-11-07 11:43:19.560444,-1,2025-11-07 11:43:23.883858923
2025-11-07 11:43:19.560444,-40,2025-11-07 11:43:23.891551231
2025-11-07 11:43:19.560444,-11265,2025-11-07 11:43:23.899243538
2025-11-07 11:43:19.560444,-1,2025-11-07 11:43:23.906935846
2025-11-07 11:43:19.560444,-47,2025-11-07 11:43:23.914628154
2025-11-07 11:43:19.560444,-11777,2025-11-07 11:43:23.922320462
2025-11-07 11:43:19.560444,-1,2025-11-07 11:43:23.930012769
2025-11-07 11:43:19.560444,-52,2025-11-07 11:43:23.937705077
2025-11-07 11:43:19.560444,-13057,2025-11-07 11:43:23.945397385
2025-11-07 11:43:19.560444,-1,2025-11-07 11:43:23.953089692
2025-11-07 11:43:19.560444,-49,2025-11-07 11:43:23.960782000
2025-11-07 11:43:19.560444,-12289,2025-11-07 11:43:23.968474308
2025-11-07 11:43:19.560444,-1,2025-11-07 11:43:23.976166615
2025-11-07 11:43:19.560444,-47,2025-11-07 11:43:23.983858923
2025-11-07 11:43:19.560444,-11777,2025-11-07 11:43:23.991551231
2025-11-07 11:43:19.560444,-1,2025-11-07 11:43:23.999243538
2025-11-07 11:43:19.560444,-49,2025-11-07 11:43:24.006935846
2025-11-07 11:43:19.560444,-11777,2025-11-07 11:43:24.014628154
2025-11-07 11:43:19.560444,-1,2025-11-07 11:43:24.022320462
2025-11-07 11:43:19.560444,-45,2025-11-07 11:43:24.030012769
2025-11-07 11:43:19.560444,-11265,2025-11-07 11:43:24.037705077
2025-11-07 11:43:19.560444,-1,2025-11-07 11:43:24.045397385
2025-11-07 11:43:19.560444,-45,2025-11-07 11:43:24.053089692
2025-11-07 11:43:19.560444,-11265,2025-11-07 11:43:24.060782000
2025-11-07 11:43:19.560444,-1,2025-11-07 11:43:24.068474308
2025-11-07 11:43:19.560444,-47,2025-11-07 11:43:24.076166615
2025-11-07 11:43:19.560444,-11777,2025-11-07 11:43:24.083858923
2025-11-07 11:43:19.560444,-1,2025-11-07 11:43:24.091551231
2025-11-07 11:43:19.560444,-42,2025-11-07 11:43:24.099243538
2025-11-07 11:43:19.560444,-11777,2025-11-07 11:43:24.106935846
2025-11-07 11:43:19.560444,-1,2025-11-07 11:43:24.114628154
2025-11-07 11:43:19.560444,-52,2025-11-07 11:43:24.122320462
2025-11-07 11:43:19.560444,-13057,2025-11-07 11:43:24.130012769
2025-11-07 11:43:19.560444,-1,2025-11-07 11:43:24.137705077
2025-11-07 11:43:19.560444,-49,2025-11-07 11:43:24.145397385
2025-11-07 11:43:19.560444,-13057,2025-11-07 11:43:24.153089692
2025-11-07 11:43:19.560444,-1,2025-11-07 11:43:24.160782000
2025-11-07 11:43:19.560444,-52,2025-11-07 11:43:24.168474308
2025-11-07 11:43:19.560444,-11777,2025-11-07 11:43:24.176166615
2025-11-07 11:43:19.560444,-1,2025-11-07 11:43:24.183858923
2025-11-07 11:43:19.560444,-47,2025-11-07 11:43:24.191551231
2025-11-07 11:43:19.560444,-12289,2025-11-07 11:43:24.199243538
2025-11-07 11:43:19.560444,-1,2025-11-07 11:43:24.206935846
2025-11-07 11:43:19.560444,-47,2025-11-07 11:43:24.214628154
2025-11-07 11:43:19.560444,-12289,2025-11-07 11:43:24.222320462
2025-11-07 11:43:19.560444,-1,2025-11-07 11:43:24.230012769
2025-11-07 11:43:19.560444,-54,2025-11-07 11:43:24.237705077
2025-11-07 11:43:19.560444,-13569,2025-11-07 11:43:24.245397385
2025-11-07 11:43:19.560444,-1,2025-11-07 11:43:24.253089692
2025-11-07 11:43:19.560444,-54,2025-11-07 11:43:24.260782000
2025-11-07 11:43:19.560444,-13569,2025-11-07 11:43:24.268474308
2025-11-07 11:43:19.560444,-1,2025-11-07 11:43:24.276166615
2025-11-07 11:43:19.560444,-61,2025-11-07 11:43:24.283858923
2025-11-07 11:43:19.560444,-18945,2025-11-07 11:43:24.291551230
2025-11-07 11:43:19.560444,-1,2025-11-07 11:43:24.299243538
2025-11-07 11:43:19.560444,-87,2025-11-07 11:43:24.306935846
2025-11-07 11:43:19.560444,-23809,2025-11-07 11:43:24.314628154
2025-11-07 11:43:19.560444,-1,2025-11-07 11:43:24.322320462
2025-11-07 11:43:19.560444,-92,2025-11-07 11:43:24.330012769
2025-11-07 11:43:20.160563,-78,2025-11-07 11:43:24.337705077
2025-11-07 11:43:20.160563,-17153,2025-11-07 11:43:24.345397385
2025-11-07 11:43:20.160563,-1,2025-11-07 11:43:24.353089692
2025-11-07 11:43:20.160563,-68,2025-11-07 11:43:24.360782000
2025-11-07 11:43:20.160563,-14081,2025-11-07 11:43:24.368474308
2025-11-07 11:43:20.160563,-1,2025-11-07 11:43:24.376166615
2025-11-07 11:43:20.160563,-52,2025-11-07 11:43:24.383858923
2025-11-07 11:43:20.160563,-14849,2025-11-07 11:43:24.391551231
2025-11-07 11:43:20.160563,-1,2025-11-07 11:43:24.399243538
2025-11-07 11:43:20.160563,-52,2025-11-07 11:43:24.406935846
2025-11-07 11:43:20.160563,-9217,2025-11-07 11:43:24.414628154
2025-11-07 11:43:20.160563,-1,2025-11-07 11:43:24.422320462
2025-11-07 11:43:20.160563,-35,2025-11-07 11:43:24.430012769
2025-11-07 11:43:20.160563,-9985,2025-11-07 11:43:24.437705077
2025-11-07 11:43:20.160563,-1,2025-11-07 11:43:24.445397385
2025-11-07 11:43:20.160563,-45,2025-11-07 11:43:24.453089692
2025-11-07 11:43:20.160563,-11265,2025-11-07 11:43:24.460782000
2025-11-07 11:43:20.160563,-1,2025-11-07 11:43:24.468474308
2025-11-07 11:43:20.160563,-45,2025-11-07 11:43:24.476166615
2025-11-07 11:43:20.160563,-11265,2025-11-07 11:43:24.483858923
2025-11-07 11:43:20.160563,-1,2025-11-07 11:43:24.491551231
2025-11-07 11:43:20.160563,-52,2025-11-07 11:43:24.499243538
2025-11-07 11:43:20.160563,-13569,2025-11-07 11:43:24.506935846
2025-11-07 11:43:20.160563,-1,2025-11-07 11:43:24.514628154
2025-11-07 11:43:20.160563,-56,2025-11-07 11:43:24.522320462
2025-11-07 11:43:20.160563,-19713,2025-11-07 11:43:24.530012769
2025-11-07 11:43:20.160563,-1,2025-11-07 11:43:24.537705077
2025-11-07 11:43:20.160563,-132,2025-11-07 11:43:24.545397385
2025-11-07 11:43:20.160563,27135,2025-11-07 11:43:24.553089692
2025-11-07 11:43:20.160563,-1,2025-11-07 11:43:24.560782000
2025-11-07 11:43:20.160563,116,2025-11-07 11:43:24.568474308
2025-11-07 11:43:20.160563,29184,2025-11-07 11:43:24.576166615
2025-11-07 11:43:20.160563,3,2025-11-07 11:43:24.583858923
2025-11-07 11:43:20.160563,1530,2025-11-07 11:43:24.591551231
2025-11-07 11:43:20.160563,32256,2025-11-07 11:43:24.599243538
2025-11-07 11:43:20.160563,4,2025-11-07 11:43:24.606935846
2025-11-07 11:43:20.160563,206,2025-11-07 11:43:24.614628154
2025-11-07 11:43:20.160563,7424,2025-11-07 11:43:24.622320462
2025-11-07 11:43:20.160563,-1,2025-11-07 11:43:24.630012769
2025-11-07 11:43:20.160563,-201,2025-11-07 11:43:24.637705077
2025-11-07 11:43:20.160563,7679,2025-11-07 11:43:24.645397385
2025-11-07 11:43:20.160563,-1,2025-11-07 11:43:24.653089692
2025-11-07 11:43:20.160563,-287,2025-11-07 11:43:24.660782000
2025-11-07 11:43:20.160563,-2817,2025-11-07 11:43:24.668474308
2025-11-07 11:43:20.160563,-2,2025-11-07 11:43:24.676166615
2025-11-07 11:43:20.160563,-256,2025-11-07 11:43:24.683858923
2025-11-07 11:43:20.160563,-3841,2025-11-07 11:43:24.691551231
2025-11-07 11:43:20.160563,-2,2025-11-07 11:43:24.699243538
2025-11-07 11:43:20.160563,-265,2025-11-07 11:43:24.706935846
2025-11-07 11:43:20.160563,255,2025-11-07 11:43:24.714628154
2025-11-07 11:43:20.160563,-1,2025-11-07 11:43:24.722320462
2025-11-07 11:43:20.160563,-260,2025-11-07 11:43:24.730012769
2025-11-07 11:43:20.160563,-257,2025-11-07 11:43:24.737705077
2025-11-07 11:43:20.160563,-2,2025-11-07 11:43:24.745397385
2025-11-07 11:43:20.160563,-258,2025-11-07 11:43:24.753089692
2025-11-07 11:43:20.160563,-769,2025-11-07 11:43:24.760782000
2025-11-07 11:43:20.160563,-2,2025-11-07 11:43:24.768474308
2025-11-07 11:43:20.160563,-265,2025-11-07 11:43:24.776166615
2025-11-07 11:43:20.160563,-3841,2025-11-07 11:43:24.783858923
2025-11-07 11:43:20.160563,-2,2025-11-07 11:43:24.791551231
2025-11-07 11:43:20.160563,-279,2025-11-07 11:43:24.799243538
2025-11-07 11:43:20.160563,-8193,2025-11-07 11:43:24.806935846
2025-11-07 11:43:20.160563,-2,2025-11-07 11:43:24.814628154
2025-11-07 11:43:20.160563,-303,2025-11-07 11:43:24.822320462
2025-11-07 11:43:20.160563,-15361,2025-11-07 11:43:24.830012769
2025-11-07 11:43:20.160563,-2,2025-11-07 11:43:24.837705077
2025-11-07 11:43:20.160563,-327,2025-11-07 11:43:24.845397385
2025-11-07 11:43:20.160563,-19201,2025-11-07 11:43:24.853089692
2025-11-07 11:43:20.160563,-2,2025-11-07 11:43:24.860782000
2025-11-07 11:43:20.160563,-332,2025-11-07 11:43:24.868474308
2025-11-07 11:43:20.160563,-17921,2025-11-07 11:43:24.876166615
2025-11-07 11:43:20.160563,-2,2025-11-07 11:43:24.883858923
2025-11-07 11:43:20.160563,-313,2025-11-07 11:43:24.891551231
2025-11-07 11:43:20.160563,-9473,2025-11-07 11:43:24.899243538
2025-11-07 11:43:20.160563,-2,2025-11-07 11:43:24.906935846
2025-11-07 11:43:20.160563,-263,2025-11-07 11:43:24.914628154
2025-11-07 11:43:20.160563,9983,2025-11-07 11:43:24.922320462
2025-11-07 11:43:20.160563,-1,2025-11-07 11:43:24.930012769
2025-11-07 11:43:20.160563,-163,2025-11-07 11:43:24.937705077
2025-11-07 11:43:20.160563,-29953,2025-11-07 11:43:24.945397385
2025-11-07 11:43:20.160563,-1,2025-11-07 11:43:24.953089692
2025-11-07 11:43:20.160563,-87,2025-11-07 11:43:24.960782000
2025-11-07 11:43:20.160563,-14849,2025-11-07 11:43:24.968474308
2025-11-07 11:43:20.160563,-1,2025-11-07 11:43:24.976166615
2025-11-07 11:43:20.160563,-42,2025-11-07 11:43:24.983858923
2025-11-07 11:43:20.160563,-7425,2025-11-07 11:43:24.991551231
2025-11-07 11:43:20.160563,-1,2025-11-07 11:43:24.999243538
2025-11-07 11:43:20.160563,-28,2025-11-07 11:43:25.006935846
2025-11-07 11:43:20.160563,-6401,2025-11-07 11:43:25.014628154
2025-11-07 11:43:20.160563,-1,2025-11-07 11:43:25.022320462
2025-11-07 11:43:20.160563,-23,2025-11-07 11:43:25.030012769
2025-11-07 11:43:20.160563,-5121,2025-11-07 11:43:25.037705077
2025-11-07 11:43:20.160563,-1,2025-11-07 11:43:25.045397385
2025-11-07 11:43:20.160563,-28,2025-11-07 11:43:25.053089692
2025-11-07 11:43:20.160563,-7425,2025-11-07 11:43:25.060782000
2025-11-07 11:43:20.160563,-1,2025-11-07 11:43:25.068474308
2025-11-07 11:43:20.160563,-28,2025-11-07 11:43:25.076166615
2025-11-07 11:43:20.160563,-7425,2025-11-07 11:43:25.083858923
2025-11-07 11:43:20.160563,-1,2025-11-07 11:43:25.091551231
2025-11-07 11:43:20.160563,-35,2025-11-07 11:43:25.099243538
2025-11-07 11:43:20.160563,-9217,2025-11-07 11:43:25.106935846
2025-11-07 11:43:20.160563,-1,2025-11-07 11:43:25.114628154
2025-11-07 11:43:20.160563,-37,2025-11-07 11:43:25.122320462
2025-11-07 11:43:20.160563,-9985,2025-11-07 11:43:25.130012769
2025-11-07 11:43:20.160563,-1,2025-11-07 11:43:25.137705077
2025-11-07 11:43:20.160563,-45,2025-11-07 11:43:25.145397385
2025-11-07 11:43:20.160563,-10497,2025-11-07 11:43:25.153089692
2025-11-07 11:43:20.160563,-1,2025-11-07 11:43:25.160782000
2025-11-07 11:43:20.160563,-37,2025-11-07 11:43:25.168474308
2025-11-07 11:43:20.709357,-37,2025-11-07 11:43:25.176166615
2025-11-07 11:43:20.709357,-9985,2025-11-07 11:43:25.183858923
2025-11-07 11:43:20.709357,-1,2025-11-07 11:43:25.191551231
2025-11-07 11:43:20.709357,-42,2025-11-07 11:43:25.199243538
2025-11-07 11:43:20.709357,-10497,2025-11-07 11:43:25.206935846
2025-11-07 11:43:20.709357,-1,2025-11-07 11:43:25.214628154
2025-11-07 11:43:20.709357,-45,2025-11-07 11:43:25.222320462
2025-11-07 11:43:20.709357,-10497,2025-11-07 11:43:25.230012769
2025-11-07 11:43:20.709357,-1,2025-11-07 11:43:25.237705077
2025-11-07 11:43:20.709357,-42,2025-11-07 11:43:25.245397385
2025-11-07 11:43:20.709357,-11265,2025-11-07 11:43:25.253089692
2025-11-07 11:43:20.709357,-1,2025-11-07 11:43:25.260782000
2025-11-07 11:43:20.709357,-47,2025-11-07 11:43:25.268474308
2025-11-07 11:43:20.709357,-11265,2025-11-07 11:43:25.276166615
2025-11-07 11:43:20.709357,-1,2025-11-07 11:43:25.283858923
2025-11-07 11:43:20.709357,-42,2025-11-07 11:43:25.291551230
2025-11-07 11:43:20.709357,-9217,2025-11-07 11:43:25.299243538
2025-11-07 11:43:20.709357,-1,2025-11-07 11:43:25.306935846
2025-11-07 11:43:20.709357,-28,2025-11-07 11:43:25.314628154
2025-11-07 11:43:20.709357,-7425,2025-11-07 11:43:25.322320462
2025-11-07 11:43:20.709357,-1,2025-11-07 11:43:25.330012769
2025-11-07 11:43:20.709357,-35,2025-11-07 11:43:25.337705077
2025-11-07 11:43:20.709357,-8705,2025-11-07 11:43:25.345397385
2025-11-07 11:43:20.709357,-1,2025-11-07 11:43:25.353089692
2025-11-07 11:43:20.709357,-35,2025-11-07 11:43:25.360782000
2025-11-07 11:43:20.709357,-9985,2025-11-07 11:43:25.368474308
2025-11-07 11:43:20.709357,-1,2025-11-07 11:43:25.376166615
2025-11-07 11:43:20.709357,-40,2025-11-07 11:43:25.383858923
2025-11-07 11:43:20.709357,-10497,2025-11-07 11:43:25.391551231
2025-11-07 11:43:20.709357,-1,2025-11-07 11:43:25.399243538
2025-11-07 11:43:20.709357,-45,2025-11-07 11:43:25.406935846
2025-11-07 11:43:20.709357,-12289,2025-11-07 11:43:25.414628154
2025-11-07 11:43:20.709357,-1,2025-11-07 11:43:25.422320462
2025-11-07 11:43:20.709357,-49,2025-11-07 11:43:25.430012769
2025-11-07 11:43:20.709357,-12289,2025-11-07 11:43:25.437705077
2025-11-07 11:43:20.709357,-1,2025-11-07 11:43:25.445397385
2025-11-07 11:43:20.709357,-49,2025-11-07 11:43:25.453089692
2025-11-07 11:43:20.709357,-12289,2025-11-07 11:43:25.460782000
2025-11-07 11:43:20.709357,-1,2025-11-07 11:43:25.468474308
2025-11-07 11:43:20.709357,-52,2025-11-07 11:43:25.476166615
2025-11-07 11:43:20.709357,-14081,2025-11-07 11:43:25.483858923
2025-11-07 11:43:20.709357,-1,2025-11-07 11:43:25.491551231
2025-11-07 11:43:20.709357,-56,2025-11-07 11:43:25.499243538
2025-11-07 11:43:20.709357,-14081,2025-11-07 11:43:25.506935846
2025-11-07 11:43:20.709357,-1,2025-11-07 11:43:25.514628154
2025-11-07 11:43:20.709357,-59,2025-11-07 11:43:25.522320462
2025-11-07 11:43:20.709357,-14849,2025-11-07 11:43:25.530012769
2025-11-07 11:43:20.709357,-1,2025-11-07 11:43:25.537705077
2025-11-07 11:43:20.709357,-56,2025-11-07 11:43:25.545397385
2025-11-07 11:43:20.709357,-15361,2025-11-07 11:43:25.553089692
2025-11-07 11:43:20.709357,-1,2025-11-07 11:43:25.560782000
2025-11-07 11:43:20.709357,-64,2025-11-07 11:43:25.568474308
2025-11-07 11:43:20.709357,-15361,2025-11-07 11:43:25.576166615
2025-11-07 11:43:20.709357,-1,2025-11-07 11:43:25.583858923
2025-11-07 11:43:20.709357,-59,2025-11-07 11:43:25.591551231
2025-11-07 11:43:20.709357,-16129,2025-11-07 11:43:25.599243538
2025-11-07 11:43:20.709357,-1,2025-11-07 11:43:25.606935846
2025-11-07 11:43:20.709357,-61,2025-11-07 11:43:25.614628154
2025-11-07 11:43:20.709357,-16129,2025-11-07 11:43:25.622320462
2025-11-07 11:43:20.709357,-1,2025-11-07 11:43:25.630012769
2025-11-07 11:43:20.709357,-73,2025-11-07 11:43:25.637705077
2025-11-07 11:43:20.709357,-21505,2025-11-07 11:43:25.645397385
2025-11-07 11:43:20.709357,-1,2025-11-07 11:43:25.653089692
2025-11-07 11:43:20.709357,-94,2025-11-07 11:43:25.660782000
2025-11-07 11:43:20.709357,-23809,2025-11-07 11:43:25.668474308
2025-11-07 11:43:20.709357,-1,2025-11-07 11:43:25.676166615
2025-11-07 11:43:20.709357,-85,2025-11-07 11:43:25.683858923
2025-11-07 11:43:20.709357,-18433,2025-11-07 11:43:25.691551231
2025-11-07 11:43:20.709357,-1,2025-11-07 11:43:25.699243538
2025-11-07 11:43:20.709357,-68,2025-11-07 11:43:25.706935846
2025-11-07 11:43:20.709357,-14849,2025-11-07 11:43:25.714628154
2025-11-07 11:43:20.709357,-1,2025-11-07 11:43:25.722320462
2025-11-07 11:43:20.709357,-49,2025-11-07 11:43:25.730012769
2025-11-07 11:43:20.709357,-13569,2025-11-07 11:43:25.737705077
2025-11-07 11:43:20.709357,-1,2025-11-07 11:43:25.745397385
2025-11-07 11:43:20.709357,-59,2025-11-07 11:43:25.753089692
2025-11-07 11:43:20.709357,-14081,2025-11-07 11:43:25.760782000
2025-11-07 11:43:20.709357,-1,2025-11-07 11:43:25.768474308
2025-11-07 11:43:20.709357,-49,2025-11-07 11:43:25.776166615
2025-11-07 11:43:20.709357,-12289,2025-11-07 11:43:25.783858923
2025-11-07 11:43:20.709357,-1,2025-11-07 11:43:25.791551231
2025-11-07 11:43:20.709357,-52,2025-11-07 11:43:25.799243538
2025-11-07 11:43:20.709357,-13057,2025-11-07 11:43:25.806935846
2025-11-07 11:43:20.709357,-1,2025-11-07 11:43:25.814628154
2025-11-07 11:43:20.709357,-54,2025-11-07 11:43:25.822320462
2025-11-07 11:43:20.709357,-14081,2025-11-07 11:43:25.830012769
2025-11-07 11:43:20.709357,-1,2025-11-07 11:43:25.837705077
2025-11-07 11:43:20.709357,-56,2025-11-07 11:43:25.845397385
2025-11-07 11:43:20.709357,-14849,2025-11-07 11:43:25.853089692
2025-11-07 11:43:20.709357,-1,2025-11-07 11:43:25.860782000
2025-11-07 11:43:20.709357,-64,2025-11-07 11:43:25.868474308
2025-11-07 11:43:20.709357,-19713,2025-11-07 11:43:25.876166615
2025-11-07 11:43:20.709357,-1,2025-11-07 11:43:25.883858923
2025-11-07 11:43:20.709357,-116,2025-11-07 11:43:25.891551231
2025-11-07 11:43:20.709357,25855,2025-11-07 11:43:25.899243538
2025-11-07 11:43:20.709357,-1,2025-11-07 11:43:25.906935846
2025-11-07 11:43:20.709357,-49,2025-11-07 11:43:25.914628154
2025-11-07 11:43:20.709357,2559,2025-11-07 11:43:25.922320462
2025-11-07 11:43:20.709357,2,2025-11-07 11:43:25.930012769
2025-11-07 11:43:20.709357,1356,2025-11-07 11:43:25.937705077
2025-11-07 11:43:20.709357,-25856,2025-11-07 11:43:25.945397385
2025-11-07 11:43:20.709357,5,2025-11-07 11:43:25.953089692
2025-11-07 11:43:20.709357,564,2025-11-07 11:43:25.960782000
2025-11-07 11:43:20.709357,-32000,2025-11-07 11:43:25.968474308
2025-11-07 11:43:20.709357,-1,2025-11-07 11:43:25.976166615
2025-11-07 11:43:20.709357,-206,2025-11-07 11:43:25.983858923
2025-11-07 11:43:20.709357,15615,2025-11-07 11:43:25.991551231
2025-11-07 11:43:20.709357,-1,2025-11-07 11:43:25.999243538
2025-11-07 11:43:20.709357,-268,2025-11-07 11:43:26.006935846
2025-11-07 11:43:21.306704,-275,2025-11-07 11:43:26.014628154
2025-11-07 11:43:21.306704,1023,2025-11-07 11:43:26.022320462
2025-11-07 11:43:21.306704,-1,2025-11-07 11:43:26.030012769
2025-11-07 11:43:21.306704,-260,2025-11-07 11:43:26.037705077
2025-11-07 11:43:21.306704,-769,2025-11-07 11:43:26.045397385
2025-11-07 11:43:21.306704,-2,2025-11-07 11:43:26.053089692
2025-11-07 11:43:21.306704,-256,2025-11-07 11:43:26.060782000
2025-11-07 11:43:21.306704,-769,2025-11-07 11:43:26.068474308
2025-11-07 11:43:21.306704,-2,2025-11-07 11:43:26.076166615
2025-11-07 11:43:21.306704,-256,2025-11-07 11:43:26.083858923
2025-11-07 11:43:21.306704,1535,2025-11-07 11:43:26.091551231
2025-11-07 11:43:21.306704,-1,2025-11-07 11:43:26.099243538
2025-11-07 11:43:21.306704,-256,2025-11-07 11:43:26.106935846
2025-11-07 11:43:21.306704,-257,2025-11-07 11:43:26.114628154
2025-11-07 11:43:21.306704,-2,2025-11-07 11:43:26.122320462
2025-11-07 11:43:21.306704,-251,2025-11-07 11:43:26.130012769
2025-11-07 11:43:21.306704,255,2025-11-07 11:43:26.137705077
2025-11-07 11:43:21.306704,-1,2025-11-07 11:43:26.145397385
2025-11-07 11:43:21.306704,-275,2025-11-07 11:43:26.153089692
2025-11-07 11:43:21.306704,-8193,2025-11-07 11:43:26.160782000
2025-11-07 11:43:21.306704,-2,2025-11-07 11:43:26.168474308
2025-11-07 11:43:21.306704,-296,2025-11-07 11:43:26.176166615
2025-11-07 11:43:21.306704,-12545,2025-11-07 11:43:26.183858923
2025-11-07 11:43:21.306704,-2,2025-11-07 11:43:26.191551231
2025-11-07 11:43:21.306704,-317,2025-11-07 11:43:26.199243538
2025-11-07 11:43:21.306704,-16129,2025-11-07 11:43:26.206935846
2025-11-07 11:43:21.306704,-2,2025-11-07 11:43:26.214628154
2025-11-07 11:43:21.306704,-322,2025-11-07 11:43:26.222320462
2025-11-07 11:43:21.306704,-15361,2025-11-07 11:43:26.230012769
2025-11-07 11:43:21.306704,-2,2025-11-07 11:43:26.237705077
2025-11-07 11:43:21.306704,-301,2025-11-07 11:43:26.245397385
2025-11-07 11:43:21.306704,-4609,2025-11-07 11:43:26.253089692
2025-11-07 11:43:21.306704,-2,2025-11-07 11:43:26.260782000
2025-11-07 11:43:21.306704,-232,2025-11-07 11:43:26.268474308
2025-11-07 11:43:21.306704,19199,2025-11-07 11:43:26.276166615
2025-11-07 11:43:21.306704,-1,2025-11-07 11:43:26.283858923
2025-11-07 11:43:21.306704,-139,2025-11-07 11:43:26.291551230
2025-11-07 11:43:21.306704,-27649,2025-11-07 11:43:26.299243538
2025-11-07 11:43:21.306704,-1,2025-11-07 11:43:26.306935846
2025-11-07 11:43:21.306704,-78,2025-11-07 11:43:26.314628154
2025-11-07 11:43:21.306704,-12289,2025-11-07 11:43:26.322320462
2025-11-07 11:43:21.306704,-1,2025-11-07 11:43:26.330012769
2025-11-07 11:43:21.306704,-33,2025-11-07 11:43:26.337705077
2025-11-07 11:43:21.306704,-5633,2025-11-07 11:43:26.345397385
2025-11-07 11:43:21.306704,-1,2025-11-07 11:43:26.353089692
2025-11-07 11:43:21.306704,-23,2025-11-07 11:43:26.360782000
2025-11-07 11:43:21.306704,-6913,2025-11-07 11:43:26.368474308
2025-11-07 11:43:21.306704,-1,2025-11-07 11:43:26.376166615
2025-11-07 11:43:21.306704,-26,2025-11-07 11:43:26.383858923
2025-11-07 11:43:21.306704,-5633,2025-11-07 11:43:26.391551231
2025-11-07 11:43:21.306704,-1,2025-11-07 11:43:26.399243538
2025-11-07 11:43:21.306704,-30,2025-11-07 11:43:26.406935846
2025-11-07 11:43:21.306704,-8705,2025-11-07 11:43:26.414628154
2025-11-07 11:43:21.306704,-1,2025-11-07 11:43:26.422320462
2025-11-07 11:43:21.306704,-35,2025-11-07 11:43:26.430012769
2025-11-07 11:43:21.306704,-7425,2025-11-07 11:43:26.437705077
2025-11-07 11:43:21.306704,-1,2025-11-07 11:43:26.445397385
2025-11-07 11:43:21.306704,-30,2025-11-07 11:43:26.453089692
2025-11-07 11:43:21.306704,-8705,2025-11-07 11:43:26.460782000
2025-11-07 11:43:21.306704,-1,2025-11-07 11:43:26.468474308
2025-11-07 11:43:21.306704,-35,2025-11-07 11:43:26.476166615
2025-11-07 11:43:21.306704,-8193,2025-11-07 11:43:26.483858923
2025-11-07 11:43:21.306704,-1,2025-11-07 11:43:26.491551231
2025-11-07 11:43:21.306704,-35,2025-11-07 11:43:26.499243538
2025-11-07 11:43:21.306704,-9217,2025-11-07 11:43:26.506935846
2025-11-07 11:43:21.306704,-1,2025-11-07 11:43:26.514628154
2025-11-07 11:43:21.306704,-35,2025-11-07 11:43:26.522320462
2025-11-07 11:43:21.306704,-8705,2025-11-07 11:43:26.530012769
2025-11-07 11:43:21.306704,-1,2025-11-07 11:43:26.537705077
2025-11-07 11:43:21.306704,-37,2025-11-07 11:43:26.545397385
2025-11-07 11:43:21.306704,-9217,2025-11-07 11:43:26.553089692
2025-11-07 11:43:21.306704,-1,2025-11-07 11:43:26.560782000
2025-11-07 11:43:21.306704,-35,2025-11-07 11:43:26.568474308
2025-11-07 11:43:21.306704,-8705,2025-11-07 11:43:26.576166615
2025-11-07 11:43:21.306704,-1,2025-11-07 11:43:26.583858923
2025-11-07 11:43:21.306704,-35,2025-11-07 11:43:26.591551231
2025-11-07 11:43:21.306704,-9217,2025-11-07 11:43:26.599243538
2025-11-07 11:43:21.306704,-1,2025-11-07 11:43:26.606935846
2025-11-07 11:43:21.306704,-37,2025-11-07 11:43:26.614628154
2025-11-07 11:43:21.306704,-8705,2025-11-07 11:43:26.622320462
2025-11-07 11:43:21.306704,-1,2025-11-07 11:43:26.630012769
2025-11-07 11:43:21.306704,-37,2025-11-07 11:43:26.637705077
2025-11-07 11:43:21.306704,-9985,2025-11-07 11:43:26.645397385
2025-11-07 11:43:21.306704,-1,2025-11-07 11:43:26.653089692
2025-11-07 11:43:21.306704,-42,2025-11-07 11:43:26.660782000
2025-11-07 11:43:21.306704,-10497,2025-11-07 11:43:26.668474308
2025-11-07 11:43:21.306704,-1,2025-11-07 11:43:26.676166615
2025-11-07 11:43:21.306704,-40,2025-11-07 11:43:26.683858923
2025-11-07 11:43:21.306704,-10497,2025-11-07 11:43:26.691551231
