timestamp,ecg
19:13:34.875086,-32
19:13:34.875086,-2561
19:13:34.875086,-1
19:13:34.875086,40
19:13:34.875086,7680
19:13:34.875086,0
19:13:34.875086,-28
19:13:34.875086,-9985
19:13:34.875086,-1
19:13:34.875086,-14
19:13:34.875086,255
19:13:34.875086,0
19:13:34.875086,-25
19:13:34.875086,-3841
19:13:34.875086,-1
19:13:34.875086,63
19:13:34.875086,18688
19:13:34.875086,0
19:13:34.875086,35
19:13:34.875086,17920
19:13:34.875086,0
19:13:34.875086,84
19:13:34.875086,8192
19:13:34.875086,0
19:13:34.875086,9
19:13:34.875086,5888
19:13:34.875086,0
19:13:34.875086,40
19:13:34.875086,12032
19:13:34.875086,0
19:13:34.875086,28
19:13:34.875086,-1792
19:13:34.875086,-1
19:13:34.875086,-84
19:13:34.875086,22015
19:13:34.875086,-1
19:13:34.875086,-77
19:13:34.875086,-28417
19:13:34.875086,1
19:13:34.875086,1302
19:13:34.875086,-22528
19:13:34.875086,7
19:13:34.875086,1519
19:13:34.875086,-1024
19:13:34.875086,1
19:13:34.875086,2
19:13:34.875086,-17920
19:13:34.875086,-1
19:13:34.875086,-183
19:13:34.875086,-2817
19:13:34.875086,-2
19:13:34.875086,-240
19:13:34.875086,7423
19:13:34.875086,-1
19:13:34.875086,-233
19:13:34.875086,7423
19:13:34.875086,-1
19:13:34.875086,-221
19:13:34.875086,14079
19:13:34.875086,-1
19:13:34.875086,-209
19:13:34.875086,7423
19:13:34.875086,-1
19:13:34.875086,-221
19:13:34.875086,10495
19:13:34.875086,-1
19:13:34.875086,-233
19:13:34.875086,2047
19:13:34.875086,-1
19:13:34.875086,-237
19:13:34.875086,12287
19:13:34.875086,-1
19:13:34.875086,-197
19:13:34.875086,9215
19:13:34.875086,-1
19:13:34.875086,-216
19:13:34.875086,23807
19:13:34.875086,-1
19:13:34.875086,-134
19:13:34.875086,-32257
19:13:34.875086,-1
19:13:34.875086,-98
19:13:34.875086,-11777
19:13:34.875086,-1
19:13:34.875086,-16
19:13:34.875086,-2049
19:13:34.875086,-1
19:13:34.875086,9
19:13:34.875086,3584
19:13:34.875086,0
19:13:34.875086,2
19:13:34.875086,5888
19:13:34.875086,0
19:13:34.875086,54
19:13:34.875086,9472
19:13:34.875086,0
19:13:34.875086,0
19:13:34.875086,2816
19:13:34.875086,0
19:13:34.875086,35
19:13:34.875086,7168
19:13:34.875086,0
19:13:34.875086,14
19:13:34.875086,-512
19:13:34.875086,-1
19:13:34.875086,0
19:13:34.875086,6400
19:13:34.875086,0
19:13:34.875086,14
19:13:35.418972,-4
19:13:35.418972,2559
19:13:35.418972,0
19:13:35.418972,16
19:13:35.418972,2304
19:13:35.418972,0
19:13:35.418972,-4
19:13:35.418972,-2049
19:13:35.418972,-1
19:13:35.418972,-7
19:13:35.418972,-257
19:13:35.418972,-1
19:13:35.418972,21
19:13:35.418972,12032
19:13:35.418972,0
19:13:35.418972,58
19:13:35.418972,17408
19:13:35.418972,0
19:13:35.418972,73
19:13:35.418972,17920
19:13:35.418972,0
19:13:35.418972,51
19:13:35.418972,10240
19:13:35.418972,0
19:13:35.418972,61
19:13:35.418972,16128
19:13:35.418972,0
19:13:35.418972,35
19:13:35.418972,8960
19:13:35.418972,0
19:13:35.418972,28
19:13:35.418972,-19200
19:13:35.418972,-1
19:13:35.418972,-190
19:13:35.418972,-23041
19:13:35.418972,-1
19:13:35.418972,419
19:13:35.418972,20736
19:13:35.418972,5
19:13:35.418972,2030
19:13:35.418972,6400
19:13:35.418972,6
19:13:35.418972,523
19:13:35.418972,4096
19:13:35.418972,0
19:13:35.418972,-58
19:13:35.418972,18175
19:13:35.418972,-1
19:13:35.418972,-273
19:13:35.418972,6143
19:13:35.418972,-1
19:13:35.418972,-226
19:13:35.418972,1279
19:13:35.418972,-1
19:13:35.418972,-245
19:13:35.418972,7423
19:13:35.418972,-1
19:13:35.418972,-212
19:13:35.418972,12287
19:13:35.418972,-1
19:13:35.418972,-223
19:13:35.418972,6911
19:13:35.418972,-1
19:13:35.418972,-230
19:13:35.418972,6143
19:13:35.418972,-1
19:13:35.418972,-237
19:13:35.418972,3839
19:13:35.418972,-1
19:13:35.418972,-230
19:13:35.418972,9727
19:13:35.418972,-1
19:13:35.418972,-221
19:13:35.418972,11007
19:13:35.418972,-1
19:13:35.418972,-188
19:13:35.418972,28415
19:13:35.418972,-1
19:13:35.418972,-98
19:13:35.418972,-22017
19:13:35.418972,-1
19:13:35.418972,-84
19:13:35.418972,-10497
19:13:35.418972,-1
19:13:35.418972,14
19:13:35.418972,4608
19:13:35.418972,0
19:13:35.418972,-4
19:13:35.418972,3071
19:13:35.418972,0
19:13:35.418972,30
19:13:35.418972,4608
19:13:35.418972,0
19:13:35.418972,23
19:13:35.418972,9472
19:13:35.418972,0
19:13:35.418972,23
19:13:35.418972,2816
19:13:35.418972,0
19:13:35.418972,21
19:13:35.418972,5376
19:13:35.418972,0
19:13:35.418972,0
19:13:35.418972,0
19:13:35.418972,0
19:13:35.418972,21
19:13:35.418972,2816
19:13:35.418972,0
19:13:35.418972,-23
19:13:36.003232,-2
19:13:36.003232,12799
19:13:36.003232,0
19:13:36.003232,28
19:13:36.003232,-2304
19:13:36.003232,-1
19:13:36.003232,11
19:13:36.003232,7680
19:13:36.003232,0
19:13:36.003232,25
19:13:36.003232,10752
19:13:36.003232,0
19:13:36.003232,63
19:13:36.003232,16128
19:13:36.003232,0
19:13:36.003232,77
19:13:36.003232,22272
19:13:36.003232,0
19:13:36.003232,70
19:13:36.003232,13056
19:13:36.003232,0
19:13:36.003232,47
19:13:36.003232,12544
19:13:36.003232,0
19:13:36.003232,65
19:13:36.003232,20992
19:13:36.003232,0
19:13:36.003232,68
19:13:36.003232,10752
19:13:36.003232,0
19:13:36.003232,11
19:13:36.003232,-15616
19:13:36.003232,-1
19:13:36.003232,-139
19:13:36.003232,-5633
19:13:36.003232,-1
19:13:36.003232,513
19:13:36.003232,-21248
19:13:36.003232,5
19:13:36.003232,2052
19:13:36.003232,-1792
19:13:36.003232,5
19:13:36.003232,504
19:13:36.003232,0
19:13:36.003232,0
19:13:36.003232,-75
19:13:36.003232,18943
19:13:36.003232,-1
19:13:36.003232,-268
19:13:36.003232,3839
19:13:36.003232,-1
19:13:36.003232,-233
19:13:36.003232,-513
19:13:36.003232,-2
19:13:36.003232,-240
19:13:36.003232,11007
19:13:36.003232,-1
19:13:36.003232,-230
19:13:36.003232,2047
19:13:36.003232,-1
19:13:36.003232,-237
19:13:36.003232,8703
19:13:36.003232,-1
19:13:36.003232,-226
19:13:36.003232,4351
19:13:36.003232,-1
19:13:36.003232,-249
19:13:36.003232,2559
19:13:36.003232,-1
19:13:36.003232,-240
19:13:36.003232,5631
19:13:36.003232,-1
19:13:36.003232,-237
19:13:36.003232,6143
19:13:36.003232,-1
19:13:36.003232,-200
19:13:36.003232,26623
19:13:36.003232,-1
19:13:36.003232,-122
19:13:36.003232,-26113
19:13:36.003232,-1
19:13:36.003232,-70
19:13:36.003232,-4353
19:13:36.003232,-1
19:13:36.003232,7
19:13:36.003232,0
19:13:36.003232,0
19:13:36.003232,4
19:13:36.003232,4608
19:13:36.003232,0
19:13:36.003232,14
19:13:36.003232,2816
19:13:36.003232,0
19:13:36.003232,30
19:13:36.003232,8192
19:13:36.003232,0
19:13:36.003232,7
19:13:36.003232,1024
19:13:36.003232,0
19:13:36.003232,18
19:13:36.003232,0
19:13:36.003232,0
19:13:36.003232,-18
19:13:36.003232,1279
19:13:36.003232,0
19:13:36.003232,28
19:13:36.003232,1792
19:13:36.003232,0
19:13:36.003232,-21
19:13:36.540014,-14
19:13:36.540014,4351
19:13:36.540014,0
19:13:36.540014,32
19:13:36.540014,4096
19:13:36.540014,0
19:13:36.540014,0
19:13:36.540014,-1024
19:13:36.540014,-1
19:13:36.540014,-14
19:13:36.540014,-5121
19:13:36.540014,-1
19:13:36.540014,-11
19:13:36.540014,9727
19:13:36.540014,0
19:13:36.540014,91
19:13:36.540014,25088
19:13:36.540014,0
19:13:36.540014,84
19:13:36.540014,17408
19:13:36.540014,0
19:13:36.540014,44
19:13:36.540014,9472
19:13:36.540014,0
19:13:36.540014,54
19:13:36.540014,14336
19:13:36.540014,0
19:13:36.540014,44
19:13:36.540014,9472
19:13:36.540014,0
19:13:36.540014,28
19:13:36.540014,-2816
19:13:36.540014,-1
19:13:36.540014,-94
19:13:36.540014,22527
19:13:36.540014,-1
19:13:36.540014,-110
19:13:36.540014,20223
19:13:36.540014,1
19:13:36.540014,1319
19:13:36.540014,6912
19:13:36.540014,8
19:13:36.540014,1618
19:13:36.540014,14080
19:13:36.540014,2
19:13:36.540014,44
19:13:36.540014,-14848
19:13:36.540014,-1
19:13:36.540014,-209
19:13:36.540014,-11777
19:13:36.540014,-2
19:13:36.540014,-249
19:13:36.540014,5631
19:13:36.540014,-1
19:13:36.540014,-275
19:13:36.540014,-2305
19:13:36.540014,-2
19:13:36.540014,-247
19:13:36.540014,1279
19:13:36.540014,-1
19:13:36.540014,-245
19:13:36.540014,3839
19:13:36.540014,-1
19:13:36.540014,-254
19:13:36.540014,-1025
19:13:36.540014,-2
19:13:36.540014,-254
19:13:36.540014,2559
19:13:36.540014,-1
19:13:36.540014,-252
19:13:36.540014,-2305
19:13:36.540014,-2
19:13:36.540014,-268
19:13:36.540014,2047
19:13:36.540014,-1
19:13:36.540014,-235
19:13:36.540014,9215
19:13:36.540014,-1
19:13:36.540014,-181
19:13:36.540014,30975
19:13:36.540014,-1
19:13:36.540014,-115
19:13:36.540014,-21249
19:13:36.540014,-1
19:13:36.540014,-44
19:13:36.540014,-5121
19:13:36.540014,-1
19:13:36.540014,-2
19:13:36.540014,3839
19:13:36.540014,0
19:13:36.540014,23
19:13:36.540014,10240
19:13:36.540014,0
19:13:36.540014,42
19:13:36.540014,9472
19:13:36.540014,0
19:13:36.540014,35
19:13:36.540014,7168
19:13:36.540014,0
19:13:36.540014,23
19:13:36.540014,8192
19:13:36.540014,0
19:13:36.540014,32
19:13:36.540014,6400
19:13:36.540014,0
19:13:36.540014,25
19:13:36.540014,7168
19:13:36.540014,0
19:13:36.540014,30
19:13:37.126751,32
19:13:37.126751,11264
19:13:37.126751,0
19:13:37.126751,44
19:13:37.126751,8960
19:13:37.126751,0
19:13:37.126751,37
19:13:37.126751,11264
19:13:37.126751,0
19:13:37.126751,51
19:13:37.126751,14848
19:13:37.126751,0
19:13:37.126751,63
19:13:37.126751,14848
19:13:37.126751,0
19:13:37.126751,77
19:13:37.126751,27136
19:13:37.126751,0
19:13:37.126751,115
19:13:37.126751,28928
19:13:37.126751,0
19:13:37.126751,98
19:13:37.126751,20992
19:13:37.126751,0
19:13:37.126751,73
19:13:37.126751,15616
19:13:37.126751,0
19:13:37.126751,58
19:13:37.126751,22272
19:13:37.126751,0
19:13:37.126751,87
19:13:37.126751,12032
19:13:37.126751,0
19:13:37.126751,7
19:13:37.126751,-19200
19:13:37.126751,-1
19:13:37.126751,-162
19:13:37.126751,-5633
19:13:37.126751,-1
19:13:37.126751,581
19:13:37.126751,14336
19:13:37.126751,6
19:13:37.126751,2094
19:13:37.126751,-26112
19:13:37.126751,5
19:13:37.126751,457
19:13:37.126751,5888
19:13:37.126751,0
19:13:37.126751,-94
19:13:37.126751,7935
19:13:37.126751,-1
19:13:37.126751,-282
19:13:37.126751,4351
19:13:37.126751,-1
19:13:37.126751,-242
19:13:37.126751,-2817
19:13:37.126751,-2
19:13:37.126751,-254
19:13:37.126751,6911
19:13:37.126751,-1
19:13:37.126751,-226
19:13:37.126751,3071
19:13:37.126751,-1
19:13:37.126751,-256
19:13:37.126751,3071
19:13:37.126751,-1
19:13:37.126751,-256
19:13:37.126751,-5377
19:13:37.126751,-2
19:13:37.126751,-273
19:13:37.126751,-2305
19:13:37.126751,-2
19:13:37.126751,-278
19:13:37.126751,-3329
19:13:37.126751,-2
19:13:37.126751,-249
19:13:37.126751,5631
19:13:37.126751,-1
19:13:37.126751,-214
19:13:37.126751,21247
19:13:37.126751,-1
19:13:37.126751,-129
19:13:37.126751,-22017
19:13:37.126751,-1
19:13:37.126751,-44
19:13:37.126751,-3841
19:13:37.126751,-1
19:13:37.126751,-9
19:13:37.126751,2559
19:13:37.126751,0
19:13:37.126751,35
19:13:37.126751,6400
19:13:37.126751,0
19:13:37.126751,14
19:13:37.126751,10752
19:13:37.126751,0
19:13:37.126751,54
19:13:37.126751,7168
19:13:37.126751,0
19:13:37.126751,32
19:13:37.126751,14848
19:13:37.126751,0
19:13:37.126751,47
19:13:37.126751,7168
19:13:37.126751,0
19:13:37.126751,25
19:13:37.126751,7680
19:13:37.126751,0
19:13:37.126751,32
19:13:37.668155,25
19:13:37.668155,4096
19:13:37.668155,0
19:13:37.668155,23
19:13:37.668155,8960
19:13:37.668155,0
19:13:37.668155,35
19:13:37.668155,4608
19:13:37.668155,0
19:13:37.668155,14
19:13:37.668155,3584
19:13:37.668155,0
19:13:37.668155,9
19:13:37.668155,4096
19:13:37.668155,0
19:13:37.668155,54
19:13:37.668155,22272
19:13:37.668155,0
19:13:37.668155,82
19:13:37.668155,19712
19:13:37.668155,0
19:13:37.668155,91
19:13:37.668155,23296
19:13:37.668155,0
19:13:37.668155,75
19:13:37.668155,16128
19:13:37.668155,0
19:13:37.668155,58
19:13:37.668155,16128
19:13:37.668155,0
19:13:37.668155,61
19:13:37.668155,12032
19:13:37.668155,0
19:13:37.668155,30
19:13:37.668155,-4096
19:13:37.668155,-1
19:13:37.668155,-124
19:13:37.668155,27903
19:13:37.668155,-1
19:13:37.668155,143
19:13:37.668155,-17920
19:13:37.668155,3
19:13:37.668155,1960
19:13:37.668155,5632
19:13:37.668155,8
19:13:37.668155,1081
19:13:37.668155,-16128
19:13:37.668155,0
19:13:37.668155,-51
19:13:37.668155,29183
19:13:37.668155,-1
19:13:37.668155,-273
19:13:37.668155,-5377
19:13:37.668155,-2
19:13:37.668155,-240
19:13:37.668155,255
19:13:37.668155,-1
19:13:37.668155,-254
19:13:37.668155,7423
19:13:37.668155,-1
19:13:37.668155,-240
19:13:37.668155,255
19:13:37.668155,-1
19:13:37.668155,-254
19:13:37.668155,767
19:13:37.668155,-1
19:13:37.668155,-252
19:13:37.668155,-513
19:13:37.668155,-2
19:13:37.668155,-278
19:13:37.668155,-6401
19:13:37.668155,-2
19:13:37.668155,-268
19:13:37.668155,3071
19:13:37.668155,-1
19:13:37.668155,-237
19:13:37.668155,5119
19:13:37.668155,-1
19:13:37.668155,-228
19:13:37.668155,15359
19:13:37.668155,-1
19:13:37.668155,-153
19:13:37.668155,-27905
19:13:37.668155,-1
19:13:37.668155,-70
19:13:37.668155,-10497
19:13:37.668155,-1
19:13:37.668155,-7
19:13:37.668155,9215
19:13:37.668155,0
19:13:37.668155,35
19:13:37.668155,4096
19:13:37.668155,0
19:13:37.668155,30
19:13:37.668155,10752
19:13:37.668155,0
19:13:37.668155,37
19:13:37.668155,7680
19:13:37.668155,0
19:13:37.668155,28
19:13:37.668155,10240
19:13:37.668155,0
19:13:37.668155,58
19:13:37.668155,10752
19:13:37.668155,0
19:13:37.668155,9
19:13:37.668155,3584
19:13:37.668155,0
19:13:37.668155,40
19:13:38.253278,40
19:13:38.253278,7168
19:13:38.253278,0
19:13:38.253278,28
19:13:38.253278,5376
19:13:38.253278,0
19:13:38.253278,11
19:13:38.253278,5376
19:13:38.253278,0
19:13:38.253278,44
19:13:38.253278,14336
19:13:38.253278,0
19:13:38.253278,32
19:13:38.253278,4608
19:13:38.253278,0
19:13:38.253278,35
19:13:38.253278,11264
19:13:38.253278,0
19:13:38.253278,54
19:13:38.253278,20992
19:13:38.253278,0
19:13:38.253278,80
19:13:38.253278,17920
19:13:38.253278,0
19:13:38.253278,80
19:13:38.253278,19200
19:13:38.253278,0
19:13:38.253278,54
19:13:38.253278,13056
19:13:38.253278,0
19:13:38.253278,56
19:13:38.253278,14336
19:13:38.253278,0
19:13:38.253278,61
19:13:38.253278,13056
19:13:38.253278,0
19:13:38.253278,21
19:13:38.253278,-12032
19:13:38.253278,-1
19:13:38.253278,-143
19:13:38.253278,-30977
19:13:38.253278,-1
19:13:38.253278,275
19:13:38.253278,-18432
19:13:38.253278,4
19:13:38.253278,2094
19:13:38.253278,20480
19:13:38.253278,7
19:13:38.253278,770
19:13:38.253278,13824
19:13:38.253278,0
19:13:38.253278,-56
19:13:38.253278,24319
19:13:38.253278,-1
19:13:38.253278,-292
19:13:38.253278,-1537
19:13:38.253278,-2
19:13:38.253278,-235
19:13:38.253278,-1025
19:13:38.253278,-2
19:13:38.253278,-254
19:13:38.253278,6911
19:13:38.253278,-1
19:13:38.253278,-235
19:13:38.253278,3839
19:13:38.253278,-1
19:13:38.253278,-240
19:13:38.253278,3839
19:13:38.253278,-1
19:13:38.253278,-242
19:13:38.253278,4351
19:13:38.253278,-1
19:13:38.253278,-252
19:13:38.253278,-1537
19:13:38.253278,-2
19:13:38.253278,-254
19:13:38.253278,4351
19:13:38.253278,-1
19:13:38.253278,-230
19:13:38.253278,10495
19:13:38.253278,-1
19:13:38.253278,-193
19:13:38.253278,23039
19:13:38.253278,-1
19:13:38.253278,-136
19:13:38.253278,-27905
19:13:38.253278,-1
19:13:38.253278,-75
19:13:38.253278,-5121
19:13:38.253278,-1
19:13:38.253278,9
19:13:38.253278,2816
19:13:38.253278,0
19:13:38.253278,18
19:13:38.253278,6400
19:13:38.253278,0
19:13:38.253278,25
19:13:38.253278,7168
19:13:38.253278,0
19:13:38.253278,40
19:13:38.253278,10752
19:13:38.253278,0
19:13:38.253278,40
19:13:38.253278,9472
19:13:38.253278,0
19:13:38.253278,40
19:13:38.253278,9472
19:13:38.253278,0
19:13:38.253278,25
19:13:38.794294,25
19:13:38.794294,5888
19:13:38.794294,0
19:13:38.794294,14
19:13:38.794294,4608
19:13:38.794294,0
19:13:38.794294,25
19:13:38.794294,7168
19:13:38.794294,0
19:13:38.794294,30
19:13:38.794294,7168
19:13:38.794294,0
19:13:38.794294,25
19:13:38.794294,6400
19:13:38.794294,0
19:13:38.794294,28
19:13:38.794294,10752
19:13:38.794294,0
19:13:38.794294,51
19:13:38.794294,10752
19:13:38.794294,0
19:13:38.794294,47
19:13:38.794294,18688
19:13:38.794294,0
19:13:38.794294,84
19:13:38.794294,20992
19:13:38.794294,0
19:13:38.794294,75
19:13:38.794294,16128
19:13:38.794294,0
19:13:38.794294,56
19:13:38.794294,14336
19:13:38.794294,0
19:13:38.794294,51
19:13:38.794294,12032
19:13:38.794294,0
19:13:38.794294,42
19:13:38.794294,9472
19:13:38.794294,0
19:13:38.794294,30
19:13:38.794294,-7680
19:13:38.794294,-1
19:13:38.794294,-146
19:13:38.794294,29183
19:13:38.794294,-1
19:13:38.794294,216
19:13:38.794294,18176
19:13:38.794294,4
19:13:38.794294,2023
19:13:38.794294,-28672
19:13:38.794294,7
19:13:38.794294,888
19:13:38.794294,25088
19:13:38.794294,0
19:13:38.794294,-68
19:13:38.794294,27391
19:13:38.794294,-1
19:13:38.794294,-268
19:13:38.794294,-513
19:13:38.794294,-2
19:13:38.794294,-228
19:13:38.794294,255
19:13:38.794294,-1
19:13:38.794294,-249
19:13:38.794294,9727
19:13:38.794294,-1
19:13:38.794294,-221
19:13:38.794294,5119
19:13:38.794294,-1
19:13:38.794294,-235
19:13:38.794294,7423
19:13:38.794294,-1
19:13:38.794294,-242
19:13:38.794294,255
19:13:38.794294,-1
19:13:38.794294,-247
19:13:38.794294,6911
19:13:38.794294,-1
19:13:38.794294,-233
19:13:38.794294,5119
19:13:38.794294,-1
19:13:38.794294,-226
19:13:38.794294,11519
19:13:38.794294,-1
19:13:38.794294,-197
19:13:38.794294,21247
19:13:38.794294,-1
19:13:38.794294,-141
19:13:38.794294,-26113
19:13:38.794294,-1
19:13:38.794294,-63
19:13:38.794294,-6913
19:13:38.794294,-1
19:13:38.794294,-9
19:13:38.794294,767
19:13:38.794294,0
19:13:38.794294,16
19:13:38.794294,8960
19:13:38.794294,0
19:13:38.794294,49
19:13:38.794294,12544
19:13:38.794294,0
19:13:38.794294,32
19:13:38.794294,8960
19:13:38.794294,0
19:13:38.794294,51
19:13:38.794294,11264
19:13:38.794294,0
19:13:38.794294,30
19:13:39.333564,37
19:13:39.333564,10752
19:13:39.333564,0
19:13:39.333564,30
19:13:39.333564,5888
19:13:39.333564,0
19:13:39.333564,40
19:13:39.333564,10752
19:13:39.333564,0
19:13:39.333564,25
19:13:39.333564,9472
19:13:39.333564,0
19:13:39.333564,65
19:13:39.333564,17920
19:13:39.333564,0
19:13:39.333564,63
19:13:39.333564,14336
19:13:39.333564,0
19:13:39.333564,47
19:13:39.333564,8192
19:13:39.333564,0
19:13:39.333564,25
19:13:39.333564,5888
19:13:39.333564,0
19:13:39.333564,35
19:13:39.333564,18688
19:13:39.333564,0
19:13:39.333564,87
19:13:39.333564,17408
19:13:39.333564,0
19:13:39.333564,70
19:13:39.333564,19712
19:13:39.333564,0
19:13:39.333564,63
19:13:39.333564,13056
19:13:39.333564,0
19:13:39.333564,49
19:13:39.333564,13056
19:13:39.333564,0
19:13:39.333564,58
19:13:39.333564,16128
19:13:39.333564,0
19:13:39.333564,54
19:13:39.333564,4096
19:13:39.333564,0
19:13:39.333564,-84
19:13:39.333564,23039
19:13:39.333564,-1
19:13:39.333564,-49
19:13:39.333564,-14593
19:13:39.333564,1
19:13:39.333564,1420
19:13:39.333564,17920
19:13:39.333564,8
19:13:39.333564,1637
19:13:39.333564,12288
19:13:39.333564,2
19:13:39.333564,11
19:13:39.333564,-19712
19:13:39.333564,-1
19:13:39.333564,-200
19:13:39.333564,-8193
19:13:39.333564,-2
19:13:39.333564,-242
19:13:39.333564,11519
19:13:39.333564,-1
19:13:39.333564,-242
19:13:39.333564,2559
19:13:39.333564,-1
19:13:39.333564,-237
19:13:39.333564,6143
19:13:39.333564,-1
19:13:39.333564,-221
19:13:39.333564,9215
19:13:39.333564,-1
19:13:39.333564,-242
19:13:39.333564,3071
19:13:39.333564,-1
19:13:39.333564,-233
19:13:39.333564,5119
19:13:39.333564,-1
19:13:39.333564,-249
19:13:39.333564,255
19:13:39.333564,-1
19:13:39.333564,-240
19:13:39.333564,11519
19:13:39.333564,-1
19:13:39.333564,-202
19:13:39.333564,15359
19:13:39.333564,-1
19:13:39.333564,-169
19:13:39.333564,32255
19:13:39.333564,-1
19:13:39.333564,-89
19:13:39.333564,-12801
19:13:39.333564,-1
19:13:39.333564,-25
19:13:39.333564,767
19:13:39.333564,0
19:13:39.333564,16
19:13:39.333564,4608
19:13:39.333564,0
19:13:39.333564,28
19:13:39.333564,11264
19:13:39.333564,0
19:13:39.333564,49
19:13:39.333564,10752
19:13:39.333564,0
19:13:39.333564,37
19:13:39.915600,37
19:13:39.915600,9472
19:13:39.915600,0
19:13:39.915600,37
19:13:39.915600,7168
19:13:39.915600,0
19:13:39.915600,30
19:13:39.915600,16128
19:13:39.915600,0
19:13:39.915600,80
19:13:39.915600,12544
19:13:39.915600,0
19:13:39.915600,35
19:13:39.915600,14336
19:13:39.915600,0
19:13:39.915600,61
19:13:39.915600,11264
19:13:39.915600,0
19:13:39.915600,47
19:13:39.915600,13824
19:13:39.915600,0
19:13:39.915600,44
19:13:39.915600,10752
19:13:39.915600,0
19:13:39.915600,32
19:13:39.915600,4608
19:13:39.915600,0
19:13:39.915600,11
19:13:39.915600,7168
19:13:39.915600,0
19:13:39.915600,65
19:13:39.915600,20480
19:13:39.915600,0
19:13:39.915600,75
19:13:39.915600,22784
19:13:39.915600,0
19:13:39.915600,91
19:13:39.915600,15616
19:13:39.915600,0
19:13:39.915600,44
19:13:39.915600,14336
19:13:39.915600,0
19:13:39.915600,56
19:13:39.915600,10240
19:13:39.915600,0
19:13:39.915600,42
19:13:39.915600,11264
19:13:39.915600,0
19:13:39.915600,7
19:13:39.915600,-20992
19:13:39.915600,-1
19:13:39.915600,-157
19:13:39.915600,-15873
19:13:39.915600,-1
19:13:39.915600,402
19:13:39.915600,17664
19:13:39.915600,5
19:13:39.915600,2094
19:13:39.915600,-26368
19:13:39.915600,6
19:13:39.915600,605
19:13:39.915600,1024
19:13:39.915600,0
19:13:39.915600,-80
19:13:39.915600,18943
19:13:39.915600,-1
19:13:39.915600,-289
19:13:39.915600,767
19:13:39.915600,-1
19:13:39.915600,-226
19:13:39.915600,767
19:13:39.915600,-1
19:13:39.915600,-256
19:13:39.915600,4351
19:13:39.915600,-1
19:13:39.915600,-240
19:13:39.915600,4351
19:13:39.915600,-1
19:13:39.915600,-228
19:13:39.915600,7935
19:13:39.915600,-1
19:13:39.915600,-235
19:13:39.915600,2559
19:13:39.915600,-1
19:13:39.915600,-256
19:13:39.915600,255
19:13:39.915600,-1
19:13:39.915600,-230
19:13:39.915600,9215
19:13:39.915600,-1
19:13:39.915600,-237
19:13:39.915600,7935
19:13:39.915600,-1
19:13:39.915600,-202
19:13:39.915600,22527
19:13:39.915600,-1
19:13:39.915600,-122
19:13:39.915600,-22529
19:13:39.915600,-1
19:13:39.915600,-65
19:13:39.915600,-6913
19:13:39.915600,-1
19:13:39.915600,-4
19:13:39.915600,2559
19:13:39.915600,0
19:13:39.915600,35
19:13:39.915600,10240
19:13:39.915600,0
19:13:39.915600,25
19:13:40.503887,23
19:13:40.503887,10240
19:13:40.503887,0
19:13:40.503887,54
19:13:40.503887,13056
19:13:40.503887,0
19:13:40.503887,42
19:13:40.503887,11264
19:13:40.503887,0
19:13:40.503887,47
19:13:40.503887,10240
19:13:40.503887,0
19:13:40.503887,47
19:13:40.503887,14336
19:13:40.503887,0
19:13:40.503887,51
19:13:40.503887,12544
19:13:40.503887,0
19:13:40.503887,68
19:13:40.503887,16640
19:13:40.503887,0
19:13:40.503887,54
19:13:40.503887,17408
19:13:40.503887,0
19:13:40.503887,75
19:13:40.503887,12544
19:13:40.503887,0
19:13:40.503887,35
19:13:40.503887,8192
19:13:40.503887,0
19:13:40.503887,25
19:13:40.503887,5376
19:13:40.503887,0
19:13:40.503887,32
19:13:40.503887,14848
19:13:40.503887,0
19:13:40.503887,70
19:13:40.503887,15616
19:13:40.503887,0
19:13:40.503887,77
19:13:40.503887,23296
19:13:40.503887,0
19:13:40.503887,61
19:13:40.503887,8192
19:13:40.503887,0
19:13:40.503887,47
19:13:40.503887,14848
19:13:40.503887,0
19:13:40.503887,42
19:13:40.503887,10752
19:13:40.503887,0
19:13:40.503887,44
19:13:40.503887,4096
19:13:40.503887,0
19:13:40.503887,-56
19:13:40.503887,27391
19:13:40.503887,-1
19:13:40.503887,-122
19:13:40.503887,5119
19:13:40.503887,1
19:13:40.503887,1185
19:13:40.503887,256
19:13:40.503887,8
19:13:40.503887,1835
19:13:40.503887,-3072
19:13:40.503887,2
19:13:40.503887,37
19:13:40.503887,-19200
19:13:40.503887,-1
19:13:40.503887,-150
19:13:40.503887,-3329
19:13:40.503887,-2
19:13:40.503887,-261
19:13:40.503887,7423
19:13:40.503887,-1
19:13:40.503887,-249
19:13:40.503887,2559
19:13:40.503887,-1
19:13:40.503887,-230
19:13:40.503887,5631
19:13:40.503887,-1
19:13:40.503887,-235
19:13:40.503887,6911
19:13:40.503887,-1
19:13:40.503887,-235
19:13:40.503887,5631
19:13:40.503887,-1
19:13:40.503887,-240
19:13:40.503887,767
19:13:40.503887,-1
19:13:40.503887,-249
19:13:40.503887,4351
19:13:40.503887,-1
19:13:40.503887,-235
19:13:40.503887,6143
19:13:40.503887,-1
19:13:40.503887,-221
19:13:40.503887,14591
19:13:40.503887,-1
19:13:40.503887,-181
19:13:40.503887,28415
19:13:40.503887,-1
19:13:40.503887,-91
19:13:40.503887,-17153
19:13:40.503887,-1
19:13:40.503887,-54
19:13:40.503887,-1537
19:13:40.503887,-1
19:13:40.503887,25
19:13:41.043213,18
19:13:41.043213,5376
19:13:41.043213,0
19:13:41.043213,35
19:13:41.043213,10240
19:13:41.043213,0
19:13:41.043213,47
19:13:41.043213,13824
19:13:41.043213,0
19:13:41.043213,61
19:13:41.043213,13824
19:13:41.043213,0
19:13:41.043213,42
19:13:41.043213,12544
19:13:41.043213,0
19:13:41.043213,58
19:13:41.043213,15616
19:13:41.043213,0
19:13:41.043213,70
19:13:41.043213,16640
19:13:41.043213,0
19:13:41.043213,49
19:13:41.043213,12544
19:13:41.043213,0
19:13:41.043213,65
19:13:41.043213,16640
19:13:41.043213,0
19:13:41.043213,49
19:13:41.043213,10752
19:13:41.043213,0
19:13:41.043213,47
19:13:41.043213,10752
19:13:41.043213,0
19:13:41.043213,28
19:13:41.043213,8192
19:13:41.043213,0
19:13:41.043213,47
19:13:41.043213,13056
19:13:41.043213,0
19:13:41.043213,56
19:13:41.043213,17408
19:13:41.043213,0
19:13:41.043213,89
19:13:41.043213,23296
19:13:41.043213,0
19:13:41.043213,65
19:13:41.043213,10752
19:13:41.043213,0
19:13:41.043213,51
19:13:41.043213,13824
19:13:41.043213,0
19:13:41.043213,37
19:13:41.043213,10752
19:13:41.043213,0
19:13:41.043213,51
19:13:41.043213,7168
19:13:41.043213,0
19:13:41.043213,-44
19:13:41.043213,30207
19:13:41.043213,-1
19:13:41.043213,-110
19:13:41.043213,5887
19:13:41.043213,1
19:13:41.043213,1185
19:13:41.043213,256
19:13:41.043213,8
19:13:41.043213,1825
19:13:41.043213,-5632
19:13:41.043213,2
19:13:41.043213,54
19:13:41.043213,-14336
19:13:41.043213,-1
19:13:41.043213,-150
19:13:41.043213,-4609
19:13:41.043213,-2
19:13:41.043213,-266
19:13:41.043213,5119
19:13:41.043213,-1
19:13:41.043213,-245
19:13:41.043213,6143
19:13:41.043213,-1
19:13:41.043213,-230
19:13:41.043213,4351
19:13:41.043213,-1
19:13:41.043213,-223
19:13:41.043213,11519
19:13:41.043213,-1
19:13:41.043213,-228
19:13:41.043213,5119
19:13:41.043213,-1
19:13:41.043213,-240
19:13:41.043213,2047
19:13:41.043213,-1
19:13:41.043213,-254
19:13:41.043213,1279
19:13:41.043213,-1
19:13:41.043213,-237
19:13:41.043213,9215
19:13:41.043213,-1
19:13:41.043213,-212
19:13:41.043213,15871
19:13:41.043213,-1
19:13:41.043213,-171
19:13:41.043213,27903
19:13:41.043213,-1
19:13:41.043213,-113
19:13:41.043213,-15361
19:13:41.043213,-1
19:13:41.043213,-25
19:13:41.585190,-9
19:13:41.585190,3839
19:13:41.585190,0
19:13:41.585190,42
19:13:41.585190,11264
19:13:41.585190,0
19:13:41.585190,56
19:13:41.585190,19200
19:13:41.585190,0
19:13:41.585190,65
19:13:41.585190,16128
19:13:41.585190,0
19:13:41.585190,87
19:13:41.585190,21504
19:13:41.585190,0
19:13:41.585190,58
19:13:41.585190,16640
19:13:41.585190,0
19:13:41.585190,80
19:13:41.585190,15616
19:13:41.585190,0
19:13:41.585190,47
19:13:41.585190,13056
19:13:41.585190,0
19:13:41.585190,56
19:13:41.585190,12544
19:13:41.585190,0
19:13:41.585190,42
19:13:41.585190,8960
19:13:41.585190,0
19:13:41.585190,16
19:13:41.585190,2304
19:13:41.585190,0
19:13:41.585190,25
19:13:41.585190,8192
19:13:41.585190,0
19:13:41.585190,37
19:13:41.585190,14848
19:13:41.585190,0
19:13:41.585190,75
19:13:41.585190,17920
19:13:41.585190,0
19:13:41.585190,56
19:13:41.585190,13056
19:13:41.585190,0
19:13:41.585190,58
19:13:41.585190,16640
19:13:41.585190,0
19:13:41.585190,68
19:13:41.585190,14336
19:13:41.585190,0
19:13:41.585190,37
19:13:41.585190,2816
19:13:41.585190,0
19:13:41.585190,-63
19:13:41.585190,29695
19:13:41.585190,-1
19:13:41.585190,-49
19:13:41.585190,-11009
19:13:41.585190,1
19:13:41.585190,1460
19:13:41.585190,1536
19:13:41.585190,8
19:13:41.585190,1470
19:13:41.585190,-5632
19:13:41.585190,1
19:13:41.585190,44
19:13:41.585190,-16640
19:13:41.585190,-1
19:13:41.585190,-200
19:13:41.585190,-5377
19:13:41.585190,-2
19:13:41.585190,-237
19:13:41.585190,11519
19:13:41.585190,-1
19:13:41.585190,-237
19:13:41.585190,2559
19:13:41.585190,-1
19:13:41.585190,-223
19:13:41.585190,11007
19:13:41.585190,-1
19:13:41.585190,-230
19:13:41.585190,7423
19:13:41.585190,-1
19:13:41.585190,-216
19:13:41.585190,7423
19:13:41.585190,-1
19:13:41.585190,-249
19:13:41.585190,-513
19:13:41.585190,-2
19:13:41.585190,-256
19:13:41.585190,1279
19:13:41.585190,-1
19:13:41.585190,-247
19:13:41.585190,6911
19:13:41.585190,-1
19:13:41.585190,-219
19:13:41.585190,13567
19:13:41.585190,-1
19:13:41.585190,-174
19:13:41.585190,-30977
19:13:41.585190,-1
19:13:41.585190,-56
19:13:41.585190,-6145
19:13:41.585190,-1
19:13:41.585190,-16
19:13:41.585190,3071
19:13:41.585190,0
19:13:41.585190,40
19:13:42.166209,49
19:13:42.166209,12544
19:13:42.166209,0
19:13:42.166209,44
19:13:42.166209,12544
19:13:42.166209,0
19:13:42.166209,63
19:13:42.166209,18688
19:13:42.166209,0
19:13:42.166209,70
19:13:42.166209,17408
19:13:42.166209,0
19:13:42.166209,75
19:13:42.166209,18688
19:13:42.166209,0
19:13:42.166209,80
19:13:42.166209,23296
19:13:42.166209,0
19:13:42.166209,73
19:13:42.166209,13056
19:13:42.166209,0
19:13:42.166209,51
19:13:42.166209,15616
19:13:42.166209,0
19:13:42.166209,56
19:13:42.166209,8192
19:13:42.166209,0
19:13:42.166209,25
19:13:42.166209,16128
19:13:42.166209,0
19:13:42.166209,96
19:13:42.166209,23296
19:13:42.166209,0
19:13:42.166209,87
19:13:42.166209,25088
19:13:42.166209,0
19:13:42.166209,96
19:13:42.166209,21504
19:13:42.166209,0
19:13:42.166209,84
19:13:42.166209,22272
19:13:42.166209,0
19:13:42.166209,87
19:13:42.166209,21504
19:13:42.166209,0
19:13:42.166209,63
19:13:42.166209,10240
19:13:42.166209,0
19:13:42.166209,-4
19:13:42.166209,-24321
19:13:42.166209,-1
19:13:42.166209,-70
19:13:42.166209,-32001
19:13:42.166209,1
19:13:42.166209,1364
19:13:42.166209,8192
19:13:42.166209,8
19:13:42.166209,1675
19:13:42.166209,-18176
19:13:42.166209,2
19:13:42.166209,129
19:13:42.166209,-8192
19:13:42.166209,-1
19:13:42.166209,-164
19:13:42.166209,-1537
19:13:42.166209,-2
19:13:42.166209,-235
19:13:42.166209,14591
19:13:42.166209,-1
19:13:42.166209,-223
19:13:42.166209,7935
19:13:42.166209,-1
19:13:42.166209,-209
19:13:42.166209,9727
19:13:42.166209,-1
19:13:42.166209,-226
19:13:42.166209,11007
19:13:42.166209,-1
19:13:42.166209,-214
19:13:42.166209,5119
19:13:42.166209,-1
19:13:42.166209,-256
19:13:42.166209,-513
19:13:42.166209,-2
19:13:42.166209,-268
19:13:42.166209,-2817
19:13:42.166209,-2
19:13:42.166209,-237
19:13:42.166209,9727
19:13:42.166209,-1
19:13:42.166209,-228
19:13:42.166209,11007
19:13:42.166209,-1
19:13:42.166209,-176
19:13:42.166209,-30465
19:13:42.166209,-1
19:13:42.166209,-68
19:13:42.166209,-8705
19:13:42.166209,-1
19:13:42.166209,-11
19:13:42.166209,4863
19:13:42.166209,0
19:13:42.166209,47
19:13:42.166209,14848
19:13:42.166209,0
19:13:42.166209,56
19:13:42.166209,16640
19:13:42.166209,0
19:13:42.166209,80
19:13:42.709960,70
19:13:42.709960,14336
19:13:42.709960,0
19:13:42.709960,63
19:13:42.709960,16128
19:13:42.709960,0
19:13:42.709960,51
19:13:42.709960,11264
19:13:42.709960,0
19:13:42.709960,42
19:13:42.709960,11264
19:13:42.709960,0
19:13:42.709960,54
19:13:42.709960,14848
19:13:42.709960,0
19:13:42.709960,56
19:13:42.709960,11264
19:13:42.709960,0
19:13:42.709960,32
19:13:42.709960,9472
19:13:42.709960,0
19:13:42.709960,65
19:13:42.709960,21504
19:13:42.709960,0
19:13:42.709960,84
19:13:42.709960,22784
19:13:42.709960,0
19:13:42.709960,91
19:13:42.709960,20480
19:13:42.709960,0
19:13:42.709960,70
19:13:42.709960,20480
19:13:42.709960,0
19:13:42.709960,87
19:13:42.709960,18688
19:13:42.709960,0
19:13:42.709960,68
19:13:42.709960,19712
19:13:42.709960,0
19:13:42.709960,54
19:13:42.709960,-4608
19:13:42.709960,-1
19:13:42.709960,-106
19:13:42.709960,-22017
19:13:42.709960,-1
19:13:42.709960,278
19:13:42.709960,-27392
19:13:42.709960,4
19:13:42.709960,2037
19:13:42.709960,7424
19:13:42.709960,7
19:13:42.709960,763
19:13:42.709960,19200
19:13:42.709960,0
19:13:42.709960,-44
19:13:42.709960,27391
19:13:42.709960,-1
19:13:42.709960,-278
19:13:42.709960,767
19:13:42.709960,-1
19:13:42.709960,-221
19:13:42.709960,5631
19:13:42.709960,-1
19:13:42.709960,-242
19:13:42.709960,5631
19:13:42.709960,-1
19:13:42.709960,-219
19:13:42.709960,11519
19:13:42.709960,-1
19:13:42.709960,-221
19:13:42.709960,9215
19:13:42.709960,-1
19:13:42.709960,-230
19:13:42.709960,-513
19:13:42.709960,-2
19:13:42.709960,-261
19:13:42.709960,4351
19:13:42.709960,-1
19:13:42.709960,-240
19:13:42.709960,4351
19:13:42.709960,-1
19:13:42.709960,-219
19:13:42.709960,11007
19:13:42.709960,-1
19:13:42.709960,-202
19:13:42.709960,25599
19:13:42.709960,-1
19:13:42.709960,-120
19:13:42.709960,-24321
19:13:42.709960,-1
19:13:42.709960,-61
19:13:42.709960,-3841
19:13:42.709960,-1
19:13:42.709960,21
19:13:42.709960,8192
19:13:42.709960,0
19:13:42.709960,28
19:13:42.709960,5376
19:13:42.709960,0
19:13:42.709960,37
19:13:42.709960,13056
19:13:42.709960,0
19:13:42.709960,40
19:13:42.709960,10240
19:13:42.709960,0
19:13:42.709960,44
19:13:42.709960,7680
19:13:42.709960,0
19:13:42.709960,23
19:13:43.247420,30
19:13:43.247420,4608
19:13:43.247420,0
19:13:43.247420,14
19:13:43.247420,8960
19:13:43.247420,0
19:13:43.247420,37
19:13:43.247420,4608
19:13:43.247420,0
19:13:43.247420,28
19:13:43.247420,10752
19:13:43.247420,0
19:13:43.247420,25
19:13:43.247420,4608
19:13:43.247420,0
19:13:43.247420,42
19:13:43.247420,15616
19:13:43.247420,0
19:13:43.247420,61
19:13:43.247420,20480
19:13:43.247420,0
19:13:43.247420,91
19:13:43.247420,13824
19:13:43.247420,0
19:13:43.247420,49
19:13:43.247420,24064
19:13:43.247420,0
19:13:43.247420,87
19:13:43.247420,13824
19:13:43.247420,0
19:13:43.247420,54
19:13:43.247420,12032
19:13:43.247420,0
19:13:43.247420,16
19:13:43.247420,-15616
19:13:43.247420,-1
19:13:43.247420,-141
19:13:43.247420,-6913
19:13:43.247420,-1
19:13:43.247420,534
19:13:43.247420,-6656
19:13:43.247420,5
19:13:43.247420,2028
19:13:43.247420,30464
19:13:43.247420,5
19:13:43.247420,426
19:13:43.247420,1024
19:13:43.247420,0
19:13:43.247420,-75
19:13:43.247420,18175
19:13:43.247420,-1
19:13:43.247420,-254
19:13:43.247420,6911
19:13:43.247420,-1
19:13:43.247420,-209
19:13:43.247420,12799
19:13:43.247420,-1
19:13:43.247420,-209
19:13:43.247420,14079
19:13:43.247420,-1
19:13:43.247420,-200
19:13:43.247420,12799
19:13:43.247420,-1
19:13:43.247420,-202
19:13:43.247420,14591
19:13:43.247420,-1
19:13:43.247420,-219
19:13:43.247420,6143
19:13:43.247420,-1
19:13:43.247420,-223
19:13:43.247420,12287
19:13:43.247420,-1
19:13:43.247420,-223
19:13:43.247420,7935
19:13:43.247420,-1
19:13:43.247420,-188
19:13:43.247420,19967
19:13:43.247420,-1
19:13:43.247420,-186
19:13:43.247420,26623
19:13:43.247420,-1
19:13:43.247420,-101
19:13:43.247420,-17665
19:13:43.247420,-1
19:13:43.247420,-56
19:13:43.247420,-6913
19:13:43.247420,-1
19:13:43.247420,2
19:13:43.247420,4096
19:13:43.247420,0
19:13:43.247420,21
19:13:43.247420,10240
19:13:43.247420,0
19:13:43.247420,49
19:13:43.247420,6400
19:13:43.247420,0
19:13:43.247420,21
19:13:43.247420,12544
19:13:43.247420,0
19:13:43.247420,42
19:13:43.247420,4096
19:13:43.247420,0
19:13:43.247420,14
19:13:43.247420,8960
19:13:43.247420,0
19:13:43.247420,42
19:13:43.247420,7680
19:13:43.247420,0
19:13:43.247420,14
19:13:43.878098,11
19:13:43.878098,2304
19:13:43.878098,0
19:13:43.878098,2
19:13:43.878098,2816
19:13:43.878098,0
19:13:43.878098,23
19:13:43.878098,7168
19:13:43.878098,0
19:13:43.878098,51
19:13:43.878098,17920
19:13:43.878098,0
19:13:43.878098,68
19:13:43.878098,18688
19:13:43.878098,0
19:13:43.878098,75
19:13:43.878098,16128
19:13:43.878098,0
19:13:43.878098,56
19:13:43.878098,14336
19:13:43.878098,0
19:13:43.878098,58
19:13:43.878098,17920
19:13:43.878098,0
19:13:43.878098,68
19:13:43.878098,13056
19:13:43.878098,0
19:13:43.878098,14
19:13:43.878098,-22272
19:13:43.878098,-1
19:13:43.878098,-148
19:13:43.878098,12799
19:13:43.878098,0
19:13:43.878098,706
19:13:43.878098,-32512
19:13:43.878098,6
19:13:43.878098,1976
19:13:43.878098,-27392
19:13:43.878098,4
19:13:43.878098,259
19:13:43.878098,-2816
19:13:43.878098,-1
19:13:43.878098,-65
19:13:43.878098,11007
19:13:43.878098,-1
19:13:43.878098,-245
19:13:43.878098,17663
19:13:43.878098,-1
19:13:43.878098,-207
19:13:43.878098,9727
19:13:43.878098,-1
19:13:43.878098,-186
19:13:43.878098,17663
19:13:43.878098,-1
19:13:43.878098,-214
19:13:43.878098,13567
19:13:43.878098,-1
19:13:43.878098,-186
19:13:43.878098,16383
19:13:43.878098,-1
19:13:43.878098,-212
19:13:43.878098,11007
19:13:43.878098,-1
19:13:43.878098,-202
19:13:43.878098,12287
19:13:43.878098,-1
19:13:43.878098,-219
19:13:43.878098,17151
19:13:43.878098,-1
19:13:43.878098,-169
19:13:43.878098,18175
19:13:43.878098,-1
19:13:43.878098,-179
19:13:43.878098,-29185
19:13:43.878098,-1
19:13:43.878098,-65
19:13:43.878098,-14593
19:13:43.878098,-1
19:13:43.878098,-40
19:13:43.878098,767
19:13:43.878098,0
19:13:43.878098,23
19:13:43.878098,5888
19:13:43.878098,0
19:13:43.878098,25
19:13:43.878098,10752
19:13:43.878098,0
19:13:43.878098,47
19:13:43.878098,8960
19:13:43.878098,0
19:13:43.878098,21
19:13:43.878098,7680
19:13:43.878098,0
19:13:43.878098,40
19:13:43.878098,6400
19:13:43.878098,0
19:13:43.878098,14
19:13:43.878098,7680
19:13:43.878098,0
19:13:43.878098,44
19:13:43.878098,6400
19:13:43.878098,0
19:13:43.878098,14
19:13:43.878098,6400
19:13:43.878098,0
19:13:43.878098,21
19:13:43.878098,512
19:13:43.878098,0
19:13:43.878098,-11
19:13:44.415582,-18
19:13:44.415582,-769
19:13:44.415582,-1
19:13:44.415582,7
19:13:44.415582,4096
19:13:44.415582,0
19:13:44.415582,32
19:13:44.415582,9472
19:13:44.415582,0
19:13:44.415582,47
19:13:44.415582,16128
19:13:44.415582,0
19:13:44.415582,54
19:13:44.415582,8192
19:13:44.415582,0
19:13:44.415582,25
19:13:44.415582,7680
19:13:44.415582,0
19:13:44.415582,47
19:13:44.415582,14848
19:13:44.415582,0
19:13:44.415582,40
19:13:44.415582,8192
19:13:44.415582,0
19:13:44.415582,11
19:13:44.415582,-25088
19:13:44.415582,-1
19:13:44.415582,-150
19:13:44.415582,30975
19:13:44.415582,0
19:13:44.415582,859
19:13:44.415582,7424
19:13:44.415582,7
19:13:44.415582,2004
19:13:44.415582,14592
19:13:44.415582,4
19:13:44.415582,190
19:13:44.415582,-7680
19:13:44.415582,-1
19:13:44.415582,-84
19:13:44.415582,7935
19:13:44.415582,-1
19:13:44.415582,-261
19:13:44.415582,14591
19:13:44.415582,-1
19:13:44.415582,-193
19:13:44.415582,9727
19:13:44.415582,-1
19:13:44.415582,-214
19:13:44.415582,13567
19:13:44.415582,-1
19:13:44.415582,-212
19:13:44.415582,13567
19:13:44.415582,-1
19:13:44.415582,-197
19:13:44.415582,10495
19:13:44.415582,-1
19:13:44.415582,-223
19:13:44.415582,11519
19:13:44.415582,-1
19:13:44.415582,-216
19:13:44.415582,6911
19:13:44.415582,-1
19:13:44.415582,-223
19:13:44.415582,12799
19:13:44.415582,-1
19:13:44.415582,-195
19:13:44.415582,16383
19:13:44.415582,-1
19:13:44.415582,-181
19:13:44.415582,28415
19:13:44.415582,-1
19:13:44.415582,-96
19:13:44.415582,-14593
19:13:44.415582,-1
19:13:44.415582,-28
19:13:44.415582,-769
19:13:44.415582,-1
19:13:44.415582,2
19:13:44.415582,5888
19:13:44.415582,0
19:13:44.415582,44
19:13:44.415582,11264
19:13:44.415582,0
19:13:44.415582,35
19:13:44.415582,6400
19:13:44.415582,0
19:13:44.415582,28
19:13:44.415582,12032
19:13:44.415582,0
19:13:44.415582,51
19:13:44.415582,8192
19:13:44.415582,0
19:13:44.415582,25
19:13:44.415582,7680
19:13:44.415582,0
19:13:44.415582,25
19:13:44.415582,6400
19:13:44.415582,0
19:13:44.415582,25
19:13:44.415582,2304
19:13:44.415582,0
19:13:44.415582,7
19:13:44.415582,1024
19:13:44.415582,0
19:13:44.415582,-14
19:13:44.415582,-2049
19:13:44.415582,-1
19:13:44.415582,21
19:13:44.959120,37
19:13:44.959120,11264
19:13:44.959120,0
19:13:44.959120,54
19:13:44.959120,13056
19:13:44.959120,0
19:13:44.959120,40
19:13:44.959120,7680
19:13:44.959120,0
19:13:44.959120,47
19:13:44.959120,14848
19:13:44.959120,0
19:13:44.959120,44
19:13:44.959120,10240
19:13:44.959120,0
19:13:44.959120,68
19:13:44.959120,19712
19:13:44.959120,0
19:13:44.959120,37
19:13:44.959120,-12032
19:13:44.959120,-1
19:13:44.959120,-139
19:13:44.959120,-19457
19:13:44.959120,-1
19:13:44.959120,369
19:13:44.959120,1536
19:13:44.959120,5
19:13:44.959120,2033
19:13:44.959120,-28160
19:13:44.959120,6
19:13:44.959120,626
19:13:44.959120,6400
19:13:44.959120,0
19:13:44.959120,-44
19:13:44.959120,27903
19:13:44.959120,-1
19:13:44.959120,-254
19:13:44.959120,12799
19:13:44.959120,-1
19:13:44.959120,-183
19:13:44.959120,10495
19:13:44.959120,-1
19:13:44.959120,-209
19:13:44.959120,15359
19:13:44.959120,-1
19:13:44.959120,-212
19:13:44.959120,11519
19:13:44.959120,-1
19:13:44.959120,-188
19:13:44.959120,17663
19:13:44.959120,-1
19:13:44.959120,-214
19:13:44.959120,10495
19:13:44.959120,-1
19:13:44.959120,-188
19:13:44.959120,15871
19:13:44.959120,-1
19:13:44.959120,-223
19:13:44.959120,9727
19:13:44.959120,-1
19:13:44.959120,-202
19:13:44.959120,16383
19:13:44.959120,-1
19:13:44.959120,-174
19:13:44.959120,30207
19:13:44.959120,-1
19:13:44.959120,-106
19:13:44.959120,-18945
19:13:44.959120,-1
19:13:44.959120,-44
19:13:44.959120,-3841
19:13:44.959120,-1
19:13:44.959120,-2
19:13:44.959120,767
19:13:44.959120,0
19:13:44.959120,30
19:13:44.959120,14848
19:13:44.959120,0
19:13:44.959120,42
19:13:44.959120,5376
19:13:44.959120,0
19:13:44.959120,30
19:13:44.959120,12032
19:13:44.959120,0
19:13:44.959120,56
19:13:44.959120,10240
19:13:44.959120,0
19:13:44.959120,23
19:13:44.959120,5888
19:13:44.959120,0
19:13:44.959120,23
19:13:44.959120,5376
19:13:44.959120,0
19:13:44.959120,30
19:13:44.959120,8192
19:13:44.959120,0
19:13:44.959120,14
19:13:44.959120,0
19:13:44.959120,0
19:13:44.959120,2
19:13:44.959120,512
19:13:44.959120,0
19:13:44.959120,2
19:13:44.959120,2816
19:13:44.959120,0
19:13:44.959120,32
19:13:44.959120,13824
19:13:44.959120,0
19:13:44.959120,61
19:13:45.544356,65
19:13:45.544356,14336
19:13:45.544356,0
19:13:45.544356,35
19:13:45.544356,8192
19:13:45.544356,0
19:13:45.544356,42
19:13:45.544356,10240
19:13:45.544356,0
19:13:45.544356,32
19:13:45.544356,13056
19:13:45.544356,0
19:13:45.544356,70
19:13:45.544356,9472
19:13:45.544356,0
19:13:45.544356,-54
19:13:45.544356,29183
19:13:45.544356,-1
19:13:45.544356,-68
19:13:45.544356,-27905
19:13:45.544356,1
19:13:45.544356,1345
19:13:45.544356,4608
19:13:45.544356,8
19:13:45.544356,1653
19:13:45.544356,18944
19:13:45.544356,2
19:13:45.544356,18
19:13:45.544356,-10240
19:13:45.544356,-1
19:13:45.544356,-148
19:13:45.544356,-3329
19:13:45.544356,-2
19:13:45.544356,-233
19:13:45.544356,17663
19:13:45.544356,-1
19:13:45.544356,-216
19:13:45.544356,9727
19:13:45.544356,-1
19:13:45.544356,-193
19:13:45.544356,15871
19:13:45.544356,-1
19:13:45.544356,-212
19:13:45.544356,9215
19:13:45.544356,-1
19:13:45.544356,-209
19:13:45.544356,16383
19:13:45.544356,-1
19:13:45.544356,-207
19:13:45.544356,8703
19:13:45.544356,-1
19:13:45.544356,-216
19:13:45.544356,12287
19:13:45.544356,-1
19:13:45.544356,-216
19:13:45.544356,12287
19:13:45.544356,-1
19:13:45.544356,-193
19:13:45.544356,22015
19:13:45.544356,-1
19:13:45.544356,-150
19:13:45.544356,-31489
19:13:45.544356,-1
19:13:45.544356,-87
19:13:45.544356,-11009
19:13:45.544356,-1
19:13:45.544356,-16
19:13:45.544356,767
19:13:45.544356,0
19:13:45.544356,21
19:13:45.544356,8192
19:13:45.544356,0
19:13:45.544356,32
19:13:45.544356,7168
19:13:45.544356,0
19:13:45.544356,32
19:13:45.544356,10240
19:13:45.544356,0
19:13:45.544356,28
19:13:45.544356,7680
19:13:45.544356,0
19:13:45.544356,42
19:13:45.544356,9472
19:13:45.544356,0
19:13:45.544356,30
19:13:45.544356,7680
19:13:45.544356,0
19:13:45.544356,28
19:13:45.544356,4608
19:13:45.544356,0
19:13:45.544356,14
19:13:45.544356,4096
19:13:45.544356,0
19:13:45.544356,0
19:13:45.544356,-6400
19:13:45.544356,-1
19:13:45.544356,-16
19:13:45.544356,7935
19:13:45.544356,0
19:13:45.544356,54
19:13:45.544356,13056
19:13:45.544356,0
19:13:45.544356,51
19:13:45.544356,13056
19:13:45.544356,0
19:13:45.544356,51
19:13:45.544356,11264
19:13:45.544356,0
19:13:45.544356,28
19:13:46.079953,25
19:13:46.079953,12032
19:13:46.079953,0
19:13:46.079953,51
19:13:46.079953,9472
19:13:46.079953,0
19:13:46.079953,30
19:13:46.079953,5888
19:13:46.079953,0
19:13:46.079953,-23
19:13:46.079953,32255
19:13:46.079953,-1
19:13:46.079953,-146
19:13:46.079953,-10497
19:13:46.079953,0
19:13:46.079953,1097
19:13:46.079953,-17152
19:13:46.079953,7
19:13:46.079953,1835
19:13:46.079953,11264
19:13:46.079953,3
19:13:46.079953,91
19:13:46.079953,-11264
19:13:46.079953,-1
19:13:46.079953,-115
19:13:46.079953,8703
19:13:46.079953,-1
19:13:46.079953,-226
19:13:46.079953,14079
19:13:46.079953,-1
19:13:46.079953,-207
19:13:46.079953,17151
19:13:46.079953,-1
19:13:46.079953,-188
19:13:46.079953,11519
19:13:46.079953,-1
19:13:46.079953,-204
19:13:46.079953,18943
19:13:46.079953,-1
19:13:46.079953,-188
19:13:46.079953,17151
19:13:46.079953,-1
19:13:46.079953,-193
19:13:46.079953,6143
19:13:46.079953,-1
19:13:46.079953,-263
19:13:46.079953,15359
19:13:46.079953,-1
19:13:46.079953,-164
19:13:46.079953,4351
19:13:46.079953,-1
19:13:46.079953,-247
19:13:46.079953,18943
19:13:46.079953,-1
19:13:46.079953,-188
19:13:46.079953,15871
19:13:46.079953,-1
19:13:46.079953,-143
19:13:46.079953,-22017
19:13:46.079953,-1
19:13:46.079953,-42
19:13:46.079953,-6145
19:13:46.079953,-1
19:13:46.079953,-30
19:13:46.079953,255
19:13:46.079953,0
19:13:46.079953,30
19:13:46.079953,4096
19:13:46.079953,0
19:13:46.079953,4
19:13:46.079953,4096
19:13:46.079953,0
19:13:46.079953,16
19:13:46.079953,1024
19:13:46.079953,0
19:13:46.079953,7
19:13:46.079953,3584
19:13:46.079953,0
19:13:46.079953,9
19:13:46.079953,3584
19:13:46.079953,0
19:13:46.079953,25
19:13:46.079953,4096
19:13:46.079953,0
19:13:46.079953,2
19:13:46.079953,1024
19:13:46.079953,0
19:13:46.079953,-2
19:13:46.079953,-3841
19:13:46.079953,-1
19:13:46.079953,-7
19:13:46.079953,6655
19:13:46.079953,0
19:13:46.079953,47
19:13:46.079953,12544
19:13:46.079953,0
19:13:46.079953,56
19:13:46.079953,16128
19:13:46.079953,0
19:13:46.079953,37
19:13:46.079953,-2816
19:13:46.079953,-1
19:13:46.079953,-7
19:13:46.079953,14591
19:13:46.079953,0
19:13:46.079953,82
19:13:46.079953,20480
19:13:46.079953,0
19:13:46.079953,98
19:13:46.620090,113
19:13:46.620090,23296
19:13:46.620090,0
19:13:46.620090,2
19:13:46.620090,-25856
19:13:46.620090,-1
19:13:46.620090,-28
19:13:46.620090,-9729
19:13:46.620090,1
19:13:46.620090,1455
19:13:46.620090,9984
19:13:46.620090,8
19:13:46.620090,1545
19:13:46.620090,9216
19:13:46.620090,2
19:13:46.620090,101
19:13:46.620090,2304
19:13:46.620090,0
19:13:46.620090,-146
19:13:46.620090,6143
19:13:46.620090,-1
19:13:46.620090,-193
19:13:46.620090,15871
19:13:46.620090,-1
19:13:46.620090,-221
19:13:46.620090,13567
19:13:46.620090,-1
19:13:46.620090,-202
19:13:46.620090,7935
19:13:46.620090,-1
19:13:46.620090,-226
19:13:46.620090,15359
19:13:46.620090,-1
19:13:46.620090,-195
19:13:46.620090,7423
19:13:46.620090,-1
19:13:46.620090,-245
19:13:46.620090,4351
19:13:46.620090,-1
19:13:46.620090,-261
19:13:46.620090,-4097
19:13:46.620090,-2
19:13:46.620090,-254
19:13:46.620090,1279
19:13:46.620090,-1
19:13:46.620090,-252
19:13:46.620090,7423
19:13:46.620090,-1
19:13:46.620090,-188
19:13:46.620090,-31489
19:13:46.620090,-1
19:13:46.620090,-73
19:13:46.620090,-13569
19:13:46.620090,-1
19:13:46.620090,-30
19:13:46.620090,-257
19:13:46.620090,-1
19:13:46.620090,14
19:13:46.620090,5888
19:13:46.620090,0
19:13:46.620090,23
19:13:46.620090,5888
19:13:46.620090,0
19:13:46.620090,47
19:13:46.620090,15616
19:13:46.620090,0
19:13:46.620090,51
19:13:46.620090,13056
19:13:46.620090,0
19:13:46.620090,56
19:13:46.620090,13824
19:13:46.620090,0
19:13:46.620090,56
19:13:46.620090,12032
19:13:46.620090,0
19:13:46.620090,14
19:13:46.620090,512
19:13:46.620090,0
19:13:46.620090,16
19:13:46.620090,-512
19:13:46.620090,-1
19:13:46.620090,-16
19:13:46.620090,4351
19:13:46.620090,0
19:13:46.620090,40
19:13:46.620090,8960
19:13:46.620090,0
19:13:46.620090,44
19:13:46.620090,14336
19:13:46.620090,0
19:13:46.620090,51
19:13:46.620090,11264
19:13:46.620090,0
19:13:46.620090,51
19:13:46.620090,17920
19:13:46.620090,0
19:13:46.620090,65
19:13:46.620090,12544
19:13:46.620090,0
19:13:46.620090,61
19:13:46.620090,12032
19:13:46.620090,0
19:13:46.620090,-4
19:13:46.620090,-20737
19:13:46.620090,-1
19:13:46.620090,-117
19:13:46.620090,27903
19:13:46.620090,0
19:13:46.620090,850
19:13:47.206430,1863
19:13:47.206430,11776
19:13:47.206430,8
19:13:47.206430,1208
19:13:47.206430,10240
19:13:47.206430,1
19:13:47.206430,-2
19:13:47.206430,-24321
19:13:47.206430,-1
19:13:47.206430,-226
19:13:47.206430,3071
19:13:47.206430,-1
19:13:47.206430,-202
19:13:47.206430,7935
19:13:47.206430,-1
19:13:47.206430,-235
19:13:47.206430,14591
19:13:47.206430,-1
19:13:47.206430,-195
19:13:47.206430,9215
19:13:47.206430,-1
19:13:47.206430,-233
19:13:47.206430,3839
19:13:47.206430,-1
19:13:47.206430,-245
19:13:47.206430,3839
19:13:47.206430,-1
19:13:47.206430,-266
19:13:47.206430,-6401
19:13:47.206430,-2
19:13:47.206430,-268
19:13:47.206430,-1025
19:13:47.206430,-2
19:13:47.206430,-263
19:13:47.206430,255
19:13:47.206430,-1
19:13:47.206430,-226
19:13:47.206430,16383
19:13:47.206430,-1
19:13:47.206430,-169
19:13:47.206430,-30977
19:13:47.206430,-1
19:13:47.206430,-47
19:13:47.206430,-769
19:13:47.206430,-1
19:13:47.206430,-2
19:13:47.206430,2559
19:13:47.206430,0
19:13:47.206430,32
19:13:47.206430,14848
19:13:47.206430,0
19:13:47.206430,68
19:13:47.206430,14336
19:13:47.206430,0
19:13:47.206430,47
19:13:47.206430,14336
19:13:47.206430,0
19:13:47.206430,61
19:13:47.206430,10752
19:13:47.206430,0
19:13:47.206430,28
19:13:47.206430,10752
19:13:47.206430,0
19:13:47.206430,37
19:13:47.206430,2816
19:13:47.206430,0
19:13:47.206430,30
19:13:47.206430,13056
19:13:47.206430,0
19:13:47.206430,21
19:13:47.206430,-1792
19:13:47.206430,-1
19:13:47.206430,-4
19:13:47.206430,3839
19:13:47.206430,0
19:13:47.206430,42
19:13:47.206430,13056
19:13:47.206430,0
19:13:47.206430,47
19:13:47.206430,13824
19:13:47.206430,0
19:13:47.206430,61
19:13:47.206430,15616
19:13:47.206430,0
19:13:47.206430,61
19:13:47.206430,16640
19:13:47.206430,0
19:13:47.206430,65
19:13:47.206430,13824
19:13:47.206430,0
19:13:47.206430,54
19:13:47.206430,12032
19:13:47.206430,0
19:13:47.206430,-4
19:13:47.206430,-23041
19:13:47.206430,-1
19:13:47.206430,-91
19:13:47.206430,-15361
19:13:47.206430,0
19:13:47.206430,1010
19:13:47.206430,-15872
19:13:47.206430,7
19:13:47.206430,2009
19:13:47.206430,-7168
19:13:47.206430,3
19:13:47.206430,160
19:13:47.206430,-6400
19:13:47.206430,-1
19:13:47.206430,-113
19:13:47.793673,-268
19:13:47.793673,-2817
19:13:47.793673,-2
19:13:47.793673,-212
19:13:47.793673,7423
19:13:47.793673,-1
19:13:47.793673,-245
19:13:47.793673,6911
19:13:47.793673,-1
19:13:47.793673,-230
19:13:47.793673,5631
19:13:47.793673,-1
19:13:47.793673,-221
19:13:47.793673,9215
19:13:47.793673,-1
19:13:47.793673,-242
19:13:47.793673,1279
19:13:47.793673,-1
19:13:47.793673,-254
19:13:47.793673,-1025
19:13:47.793673,-2
19:13:47.793673,-261
19:13:47.793673,1279
19:13:47.793673,-1
19:13:47.793673,-237
19:13:47.793673,7423
19:13:47.793673,-1
19:13:47.793673,-207
19:13:47.793673,22527
19:13:47.793673,-1
19:13:47.793673,-124
19:13:47.793673,-20737
19:13:47.793673,-1
19:13:47.793673,-37
19:13:47.793673,255
19:13:47.793673,0
19:13:47.793673,30
19:13:47.793673,13056
19:13:47.793673,0
19:13:47.793673,73
19:13:47.793673,22784
19:13:47.793673,0
19:13:47.793673,87
19:13:47.793673,20992
19:13:47.793673,0
19:13:47.793673,80
19:13:47.793673,18688
19:13:47.793673,0
19:13:47.793673,61
19:13:47.793673,13824
19:13:47.793673,0
19:13:47.793673,49
19:13:47.793673,10240
19:13:47.793673,0
19:13:47.793673,28
19:13:47.793673,5888
19:13:47.793673,0
19:13:47.793673,23
19:13:47.793673,4096
19:13:47.793673,0
19:13:47.793673,0
19:13:47.793673,-4096
19:13:47.793673,-1
19:13:47.793673,-21
19:13:47.793673,-4353
19:13:47.793673,-1
19:13:47.793673,4
19:13:47.793673,8192
19:13:47.793673,0
19:13:47.793673,37
19:13:47.793673,10240
19:13:47.793673,0
19:13:47.793673,47
19:13:47.793673,9472
19:13:47.793673,0
19:13:47.793673,23
19:13:47.793673,7168
19:13:47.793673,0
19:13:47.793673,25
19:13:47.793673,4096
19:13:47.793673,0
19:13:47.793673,18
19:13:47.793673,4608
19:13:47.793673,0
19:13:47.793673,-2
19:13:47.793673,-18945
19:13:47.793673,-1
19:13:47.793673,-157
19:13:47.793673,-22529
19:13:47.793673,-1
19:13:47.793673,372
19:13:47.793673,13568
19:13:47.793673,5
19:13:47.793673,2066
19:13:47.793673,25856
19:13:47.793673,6
19:13:47.793673,563
19:13:47.793673,-512
19:13:47.793673,-1
19:13:47.793673,-70
19:13:47.793673,15359
19:13:47.793673,-1
19:13:47.793673,-308
19:13:47.793673,-513
19:13:47.793673,-2
19:13:47.793673,-235
19:13:47.793673,-1025
19:13:47.793673,-2
19:13:47.793673,-252
19:13:48.378444,-233
19:13:48.378444,5119
19:13:48.378444,-1
19:13:48.378444,-240
19:13:48.378444,4351
19:13:48.378444,-1
19:13:48.378444,-249
19:13:48.378444,255
19:13:48.378444,-1
19:13:48.378444,-259
19:13:48.378444,-2305
19:13:48.378444,-2
19:13:48.378444,-270
19:13:48.378444,-2305
19:13:48.378444,-2
19:13:48.378444,-259
19:13:48.378444,5631
19:13:48.378444,-1
19:13:48.378444,-200
19:13:48.378444,19967
19:13:48.378444,-1
19:13:48.378444,-157
19:13:48.378444,-30977
19:13:48.378444,-1
19:13:48.378444,-84
19:13:48.378444,-12289
19:13:48.378444,-1
19:13:48.378444,-11
19:13:48.378444,3839
19:13:48.378444,0
19:13:48.378444,16
19:13:48.378444,6400
19:13:48.378444,0
19:13:48.378444,40
19:13:48.378444,11264
19:13:48.378444,0
19:13:48.378444,37
19:13:48.378444,9472
19:13:48.378444,0
19:13:48.378444,35
19:13:48.378444,7680
19:13:48.378444,0
19:13:48.378444,32
19:13:48.378444,9472
19:13:48.378444,0
19:13:48.378444,30
19:13:48.378444,7680
19:13:48.378444,0
19:13:48.378444,32
19:13:48.378444,5888
19:13:48.378444,0
19:13:48.378444,21
19:13:48.378444,5888
19:13:48.378444,0
19:13:48.378444,11
19:13:48.378444,512
19:13:48.378444,0
19:13:48.378444,9
19:13:48.378444,7168
19:13:48.378444,0
19:13:48.378444,54
19:13:48.378444,16128
19:13:48.378444,0
19:13:48.378444,65
19:13:48.378444,18688
19:13:48.378444,0
19:13:48.378444,58
19:13:48.378444,10240
19:13:48.378444,0
19:13:48.378444,47
19:13:48.378444,14848
19:13:48.378444,0
19:13:48.378444,58
19:13:48.378444,13824
19:13:48.378444,0
19:13:48.378444,51
19:13:48.378444,8192
19:13:48.378444,0
19:13:48.378444,-42
19:13:48.378444,29183
19:13:48.378444,-1
19:13:48.378444,-108
19:13:48.378444,7679
19:13:48.378444,1
19:13:48.378444,1159
19:13:48.378444,-17152
19:13:48.378444,7
19:13:48.378444,1738
19:13:48.378444,-27136
19:13:48.378444,2
19:13:48.378444,16
19:13:48.378444,-7168
19:13:48.378444,-1
19:13:48.378444,-124
19:13:48.378444,-3329
19:13:48.378444,-2
19:13:48.378444,-233
19:13:48.378444,15359
19:13:48.378444,-1
19:13:48.378444,-228
19:13:48.378444,9727
19:13:48.378444,-1
19:13:48.378444,-197
19:13:48.378444,12287
19:13:48.378444,-1
19:13:48.378444,-209
19:13:48.378444,15871
19:13:48.378444,-1
19:13:48.378444,-202
19:13:48.871387,-214
19:13:48.871387,11007
19:13:48.871387,-1
19:13:48.871387,-216
19:13:48.871387,10495
19:13:48.871387,-1
19:13:48.871387,-214
19:13:48.871387,12287
19:13:48.871387,-1
19:13:48.871387,-204
19:13:48.871387,15871
19:13:48.871387,-1
19:13:48.871387,-171
19:13:48.871387,29183
19:13:48.871387,-1
19:13:48.871387,-113
19:13:48.871387,-18945
19:13:48.871387,-1
19:13:48.871387,-32
19:13:48.871387,-257
19:13:48.871387,-1
19:13:48.871387,23
19:13:48.871387,13056
19:13:48.871387,0
19:13:48.871387,63
19:13:48.871387,15616
19:13:48.871387,0
19:13:48.871387,58
19:13:48.871387,16128
19:13:48.871387,0
19:13:48.871387,65
19:13:48.871387,16640
19:13:48.871387,0
19:13:48.871387,56
19:13:48.871387,12032
19:13:48.871387,0
19:13:48.871387,49
19:13:48.871387,12544
19:13:48.871387,0
19:13:48.871387,42
19:13:48.871387,10240
19:13:48.871387,0
19:13:48.871387,42
19:13:48.871387,10752
19:13:48.871387,0
19:13:48.871387,30
19:13:48.871387,5888
19:13:48.871387,0
19:13:48.871387,25
19:13:48.871387,2304
19:13:48.871387,0
19:13:48.871387,0
19:13:48.871387,7168
19:13:48.871387,0
19:13:48.871387,51
19:13:48.871387,16640
19:13:48.871387,0
19:13:48.871387,94
19:13:48.871387,25856
19:13:48.871387,0
19:13:48.871387,82
19:13:48.871387,21504
19:13:48.871387,0
19:13:48.871387,80
19:13:48.871387,14336
19:13:48.871387,0
19:13:48.871387,56
19:13:48.871387,16128
19:13:48.871387,0
19:13:48.871387,44
19:13:48.871387,-2816
19:13:48.871387,-1
19:13:48.871387,-115
19:13:48.871387,-31489
19:13:48.871387,-1
19:13:48.871387,193
19:13:48.871387,-3584
19:13:48.871387,3
19:13:48.871387,1922
19:13:48.871387,28416
19:13:48.871387,7
19:13:48.871387,883
19:13:48.871387,20480
19:13:48.871387,0
19:13:48.871387,-42
19:13:48.871387,-23041
19:13:48.871387,-1
19:13:48.871387,-242
19:13:48.871387,2047
19:13:48.871387,-1
19:13:48.871387,-200
19:13:48.871387,11007
19:13:48.871387,-1
19:13:48.871387,-221
19:13:48.871387,15359
19:13:48.871387,-1
19:13:48.871387,-186
19:13:48.871387,20735
19:13:48.871387,-1
19:13:48.871387,-169
19:13:48.871387,22015
19:13:48.871387,-1
19:13:48.871387,-174
19:13:48.871387,18175
19:13:48.871387,-1
19:13:48.871387,-195
19:13:48.871387,17151
19:13:48.871387,-1
19:13:48.871387,-188
19:13:49.454976,-186
19:13:49.454976,19455
19:13:49.454976,-1
19:13:49.454976,-174
19:13:49.454976,25599
19:13:49.454976,-1
19:13:49.454976,-134
19:13:49.454976,-24833
19:13:49.454976,-1
19:13:49.454976,-51
19:13:49.454976,-2561
19:13:49.454976,-1
19:13:49.454976,9
19:13:49.454976,7168
19:13:49.454976,0
19:13:49.454976,54
19:13:49.454976,17408
19:13:49.454976,0
19:13:49.454976,70
19:13:49.454976,17920
19:13:49.454976,0
19:13:49.454976,70
19:13:49.454976,15616
19:13:49.454976,0
19:13:49.454976,61
19:13:49.454976,15616
19:13:49.454976,0
19:13:49.454976,56
19:13:49.454976,13824
19:13:49.454976,0
19:13:49.454976,47
19:13:49.454976,9472
19:13:49.454976,0
19:13:49.454976,32
19:13:49.454976,7680
19:13:49.454976,0
19:13:49.454976,18
19:13:49.454976,1024
19:13:49.454976,0
19:13:49.454976,0
19:13:49.454976,-2304
19:13:49.454976,-1
19:13:49.454976,-7
19:13:49.454976,6143
19:13:49.454976,0
19:13:49.454976,42
19:13:49.454976,7168
19:13:49.454976,0
19:13:49.454976,18
19:13:49.454976,4608
19:13:49.454976,0
19:13:49.454976,21
19:13:49.454976,5888
19:13:49.454976,0
19:13:49.454976,28
19:13:49.454976,10240
19:13:49.454976,0
19:13:49.454976,28
19:13:49.454976,1792
19:13:49.454976,0
19:13:49.454976,2
19:13:49.454976,-1792
19:13:49.454976,-1
19:13:49.454976,-80
19:13:49.454976,18943
19:13:49.454976,-1
19:13:49.454976,-129
19:13:49.454976,14079
19:13:49.454976,1
19:13:49.454976,1225
19:13:49.454976,-9472
19:13:49.454976,7
19:13:49.454976,1698
19:13:49.454976,23296
19:13:49.454976,2
19:13:49.454976,-49
19:13:49.454976,-25601
19:13:49.454976,-1
19:13:49.454976,-167
19:13:49.454976,-7169
19:13:49.454976,-2
19:13:49.454976,-263
19:13:49.454976,6911
19:13:49.454976,-1
19:13:49.454976,-256
19:13:49.454976,767
19:13:49.454976,-1
19:13:49.454976,-233
19:13:49.454976,5631
19:13:49.454976,-1
19:13:49.454976,-240
19:13:49.454976,7423
19:13:49.454976,-1
19:13:49.454976,-214
19:13:49.454976,10495
19:13:49.454976,-1
19:13:49.454976,-233
19:13:49.454976,3839
19:13:49.454976,-1
19:13:49.454976,-247
19:13:49.454976,2047
19:13:49.454976,-1
19:13:49.454976,-240
19:13:49.454976,8703
19:13:49.454976,-1
19:13:49.454976,-221
19:13:49.454976,11519
19:13:49.454976,-1
19:13:49.454976,-181
19:13:49.998345,-136
19:13:49.998345,-27393
19:13:49.998345,-1
19:13:49.998345,-87
19:13:49.998345,-14081
19:13:49.998345,-1
19:13:49.998345,-32
19:13:49.998345,-3841
19:13:49.998345,-1
19:13:49.998345,-4
19:13:49.998345,-769
19:13:49.998345,-1
19:13:49.998345,9
19:13:49.998345,7680
19:13:49.998345,0
19:13:49.998345,30
19:13:49.998345,6400
19:13:49.998345,0
19:13:49.998345,25
19:13:49.998345,3584
19:13:49.998345,0
19:13:49.998345,2
19:13:49.998345,0
19:13:49.998345,0
19:13:49.998345,0
19:13:49.998345,-512
19:13:49.998345,-1
19:13:49.998345,0
19:13:49.998345,0
19:13:49.998345,0
19:13:49.998345,-14
19:13:49.998345,-5633
19:13:49.998345,-1
19:13:49.998345,-28
19:13:49.998345,-3841
19:13:49.998345,-1
19:13:49.998345,4
19:13:49.998345,5376
19:13:49.998345,0
19:13:49.998345,47
19:13:49.998345,16640
19:13:49.998345,0
19:13:49.998345,49
19:13:49.998345,8960
19:13:49.998345,0
19:13:49.998345,42
19:13:49.998345,12032
19:13:49.998345,0
19:13:49.998345,37
19:13:49.998345,8960
19:13:49.998345,0
19:13:49.998345,42
19:13:49.998345,5888
19:13:49.998345,0
19:13:49.998345,-61
19:13:49.998345,26111
19:13:49.998345,-1
19:13:49.998345,-94
19:13:49.998345,22015
19:13:49.998345,1
19:13:49.998345,1246
19:13:49.998345,-30976
19:13:49.998345,7
19:13:49.998345,1491
19:13:49.998345,-8192
19:13:49.998345,1
19:13:49.998345,21
19:13:49.998345,-1024
19:13:49.998345,-1
19:13:49.998345,-148
19:13:49.998345,-3329
19:13:49.998345,-2
19:13:49.998345,-223
19:13:49.998345,15359
19:13:49.998345,-1
19:13:49.998345,-226
19:13:49.998345,10495
19:13:49.998345,-1
19:13:49.998345,-197
19:13:49.998345,12287
19:13:49.998345,-1
19:13:49.998345,-212
19:13:49.998345,14079
19:13:49.998345,-1
19:13:49.998345,-197
19:13:49.998345,14079
19:13:49.998345,-1
19:13:49.998345,-204
19:13:49.998345,12287
19:13:49.998345,-1
19:13:49.998345,-209
19:13:49.998345,12287
19:13:49.998345,-1
19:13:49.998345,-204
19:13:49.998345,15871
19:13:49.998345,-1
19:13:49.998345,-188
19:13:49.998345,20735
19:13:49.998345,-1
19:13:49.998345,-148
19:13:49.998345,-27905
19:13:49.998345,-1
19:13:49.998345,-75
19:13:49.998345,-12289
19:13:49.998345,-1
19:13:49.998345,-16
19:13:49.998345,3071
19:13:49.998345,0
19:13:49.998345,21
19:13:50.585437,25
19:13:50.585437,7680
19:13:50.585437,0
19:13:50.585437,32
19:13:50.585437,8960
19:13:50.585437,0
19:13:50.585437,30
19:13:50.585437,7168
19:13:50.585437,0
19:13:50.585437,37
19:13:50.585437,12032
19:13:50.585437,0
19:13:50.585437,42
19:13:50.585437,8960
19:13:50.585437,0
19:13:50.585437,40
19:13:50.585437,10752
19:13:50.585437,0
19:13:50.585437,35
19:13:50.585437,7168
19:13:50.585437,0
19:13:50.585437,18
19:13:50.585437,3584
19:13:50.585437,0
19:13:50.585437,18
19:13:50.585437,8960
19:13:50.585437,0
19:13:50.585437,47
19:13:50.585437,11264
19:13:50.585437,0
19:13:50.585437,56
19:13:50.585437,15616
19:13:50.585437,0
19:13:50.585437,42
19:13:50.585437,8192
19:13:50.585437,0
19:13:50.585437,42
19:13:50.585437,10752
19:13:50.585437,0
19:13:50.585437,35
19:13:50.585437,7680
19:13:50.585437,0
19:13:50.585437,25
19:13:50.585437,-1024
19:13:50.585437,-1
19:13:50.585437,-96
19:13:50.585437,23039
19:13:50.585437,-1
19:13:50.585437,-25
19:13:50.585437,11519
19:13:50.585437,2
19:13:50.585437,1536
19:13:50.585437,-13568
19:13:50.585437,7
19:13:50.585437,1283
19:13:50.585437,15104
19:13:50.585437,1
19:13:50.585437,-21
19:13:50.585437,-17153
19:13:50.585437,-1
19:13:50.585437,-214
19:13:50.585437,-6401
19:13:50.585437,-2
19:13:50.585437,-228
19:13:50.585437,7423
19:13:50.585437,-1
19:13:50.585437,-252
19:13:50.585437,5631
19:13:50.585437,-1
19:13:50.585437,-221
19:13:50.585437,7935
19:13:50.585437,-1
19:13:50.585437,-230
19:13:50.585437,6911
19:13:50.585437,-1
19:13:50.585437,-230
19:13:50.585437,5631
19:13:50.585437,-1
19:13:50.585437,-240
19:13:50.585437,3071
19:13:50.585437,-1
19:13:50.585437,-242
19:13:50.585437,6911
19:13:50.585437,-1
19:13:50.585437,-223
19:13:50.585437,11007
19:13:50.585437,-1
19:13:50.585437,-193
19:13:50.585437,23039
19:13:50.585437,-1
19:13:50.585437,-134
19:13:50.585437,-24833
19:13:50.585437,-1
19:13:50.585437,-61
19:13:50.585437,-7425
19:13:50.585437,-1
19:13:50.585437,-4
19:13:50.585437,4863
19:13:50.585437,0
19:13:50.585437,30
19:13:50.585437,9472
19:13:50.585437,0
19:13:50.585437,47
19:13:50.585437,12544
19:13:50.585437,0
19:13:50.585437,47
19:13:50.585437,12032
19:13:50.585437,0
19:13:50.585437,40
19:13:51.169353,37
19:13:51.169353,9472
19:13:51.169353,0
19:13:51.169353,35
19:13:51.169353,7680
19:13:51.169353,0
19:13:51.169353,35
19:13:51.169353,11264
19:13:51.169353,0
19:13:51.169353,35
19:13:51.169353,4608
19:13:51.169353,0
19:13:51.169353,21
19:13:51.169353,8960
19:13:51.169353,0
19:13:51.169353,56
19:13:51.169353,18688
19:13:51.169353,0
19:13:51.169353,70
19:13:51.169353,19200
19:13:51.169353,0
19:13:51.169353,89
19:13:51.169353,20992
19:13:51.169353,0
19:13:51.169353,61
19:13:51.169353,17408
19:13:51.169353,0
19:13:51.169353,77
19:13:51.169353,16640
19:13:51.169353,0
19:13:51.169353,58
19:13:51.169353,15616
19:13:51.169353,0
19:13:51.169353,51
19:13:51.169353,2304
19:13:51.169353,0
19:13:51.169353,-96
19:13:51.169353,24831
19:13:51.169353,-1
19:13:51.169353,32
19:13:51.169353,-19968
19:13:51.169353,2
19:13:51.169353,1689
19:13:51.169353,7424
19:13:51.169353,8
19:13:51.169353,1276
19:13:51.169353,5632
19:13:51.169353,1
19:13:51.169353,-44
19:13:51.169353,-20737
19:13:51.169353,-1
19:13:51.169353,-230
19:13:51.169353,-7681
19:13:51.169353,-2
19:13:51.169353,-223
19:13:51.169353,9727
19:13:51.169353,-1
19:13:51.169353,-240
19:13:51.169353,10495
19:13:51.169353,-1
19:13:51.169353,-209
19:13:51.169353,9215
19:13:51.169353,-1
19:13:51.169353,-219
19:13:51.169353,9727
19:13:51.169353,-1
19:13:51.169353,-223
19:13:51.169353,7935
19:13:51.169353,-1
19:13:51.169353,-228
19:13:51.169353,5631
19:13:51.169353,-1
19:13:51.169353,-247
19:13:51.169353,3071
19:13:51.169353,-1
19:13:51.169353,-228
19:13:51.169353,11007
19:13:51.169353,-1
19:13:51.169353,-190
19:13:51.169353,24319
19:13:51.169353,-1
19:13:51.169353,-131
19:13:51.169353,-22529
19:13:51.169353,-1
19:13:51.169353,-51
19:13:51.169353,-5633
19:13:51.169353,-1
19:13:51.169353,-7
19:13:51.169353,3071
19:13:51.169353,0
19:13:51.169353,28
19:13:51.169353,9472
19:13:51.169353,0
19:13:51.169353,47
19:13:51.169353,13056
19:13:51.169353,0
19:13:51.169353,47
19:13:51.169353,11264
19:13:51.169353,0
19:13:51.169353,47
19:13:51.169353,12032
19:13:51.169353,0
19:13:51.169353,47
19:13:51.169353,11264
19:13:51.169353,0
19:13:51.169353,42
19:13:51.169353,10240
19:13:51.169353,0
19:13:51.169353,35
19:13:51.708138,28
19:13:51.708138,4096
19:13:51.708138,0
19:13:51.708138,7
19:13:51.708138,1024
19:13:51.708138,0
19:13:51.708138,14
19:13:51.708138,8960
19:13:51.708138,0
19:13:51.708138,47
19:13:51.708138,12032
19:13:51.708138,0
19:13:51.708138,61
19:13:51.708138,15616
19:13:51.708138,0
19:13:51.708138,35
19:13:51.708138,7680
19:13:51.708138,0
19:13:51.708138,54
19:13:51.708138,17408
19:13:51.708138,0
19:13:51.708138,61
19:13:51.708138,14336
19:13:51.708138,0
19:13:51.708138,51
19:13:51.708138,4096
19:13:51.708138,0
19:13:51.708138,-75
19:13:51.708138,28415
19:13:51.708138,-1
19:13:51.708138,2
19:13:51.708138,22016
19:13:51.708138,2
19:13:51.708138,1587
19:13:51.708138,10496
19:13:51.708138,8
19:13:51.708138,1392
19:13:51.708138,21760
19:13:51.708138,1
19:13:51.708138,-54
19:13:51.708138,-21249
19:13:51.708138,-1
19:13:51.708138,-223
19:13:51.708138,-8961
19:13:51.708138,-2
19:13:51.708138,-223
19:13:51.708138,10495
19:13:51.708138,-1
19:13:51.708138,-237
19:13:51.708138,11519
19:13:51.708138,-1
19:13:51.708138,-200
19:13:51.708138,8703
19:13:51.708138,-1
19:13:51.708138,-223
19:13:51.708138,14591
19:13:51.708138,-1
19:13:51.708138,-200
19:13:51.708138,10495
19:13:51.708138,-1
19:13:51.708138,-221
19:13:51.708138,9727
19:13:51.708138,-1
19:13:51.708138,-219
19:13:51.708138,11007
19:13:51.708138,-1
19:13:51.708138,-207
19:13:51.708138,14591
19:13:51.708138,-1
19:13:51.708138,-186
19:13:51.708138,25599
19:13:51.708138,-1
19:13:51.708138,-122
19:13:51.708138,-22017
19:13:51.708138,-1
19:13:51.708138,-54
19:13:51.708138,-5121
19:13:51.708138,-1
19:13:51.708138,4
19:13:51.708138,5376
19:13:51.708138,0
19:13:51.708138,32
19:13:51.708138,10752
19:13:51.708138,0
19:13:51.708138,44
19:13:51.708138,12032
19:13:51.708138,0
19:13:51.708138,49
19:13:51.708138,12544
19:13:51.708138,0
19:13:51.708138,54
19:13:51.708138,14336
19:13:51.708138,0
19:13:51.708138,58
19:13:51.708138,13056
19:13:51.708138,0
19:13:51.708138,47
19:13:51.708138,12032
19:13:51.708138,0
19:13:51.708138,47
19:13:51.708138,10752
19:13:51.708138,0
19:13:51.708138,37
19:13:51.708138,7680
19:13:51.708138,0
19:13:51.708138,21
19:13:51.708138,2816
19:13:51.708138,0
19:13:51.708138,9
19:13:52.246458,14
19:13:52.246458,7168
19:13:52.246458,0
19:13:52.246458,54
19:13:52.246458,15616
19:13:52.246458,0
19:13:52.246458,61
19:13:52.246458,18688
19:13:52.246458,0
19:13:52.246458,63
19:13:52.246458,11264
19:13:52.246458,0
19:13:52.246458,44
19:13:52.246458,14336
19:13:52.246458,0
19:13:52.246458,68
19:13:52.246458,17408
19:13:52.246458,0
19:13:52.246458,58
19:13:52.246458,12032
19:13:52.246458,0
19:13:52.246458,2
19:13:52.246458,-28160
19:13:52.246458,-1
19:13:52.246458,-157
19:13:52.246458,19967
19:13:52.246458,0
19:13:52.246458,793
19:13:52.246458,2560
19:13:52.246458,7
19:13:52.246458,2094
19:13:52.246458,-16640
19:13:52.246458,4
19:13:52.246458,245
19:13:52.246458,-12032
19:13:52.246458,-1
19:13:52.246458,-91
19:13:52.246458,7423
19:13:52.246458,-1
19:13:52.246458,-273
19:13:52.246458,9215
19:13:52.246458,-1
19:13:52.246458,-228
19:13:52.246458,3071
19:13:52.246458,-1
19:13:52.246458,-223
19:13:52.246458,10495
19:13:52.246458,-1
19:13:52.246458,-228
19:13:52.246458,9215
19:13:52.246458,-1
19:13:52.246458,-219
19:13:52.246458,7935
19:13:52.246458,-1
19:13:52.246458,-230
19:13:52.246458,6143
19:13:52.246458,-1
19:13:52.246458,-237
19:13:52.246458,5119
19:13:52.246458,-1
19:13:52.246458,-230
19:13:52.246458,8703
19:13:52.246458,-1
19:13:52.246458,-209
19:13:52.246458,15871
19:13:52.246458,-1
19:13:52.246458,-171
19:13:52.246458,30975
19:13:52.246458,-1
19:13:52.246458,-98
19:13:52.246458,-15873
19:13:52.246458,-1
19:13:52.246458,-32
19:13:52.246458,-1537
19:13:52.246458,-1
19:13:52.246458,9
19:13:52.246458,5888
19:13:52.246458,0
19:13:52.246458,35
19:13:52.246458,10752
19:13:52.246458,0
19:13:52.246458,49
19:13:52.246458,14336
19:13:52.246458,0
19:13:52.246458,54
19:13:52.246458,13056
19:13:52.246458,0
19:13:52.246458,49
19:13:52.246458,11264
19:13:52.246458,0
19:13:52.246458,42
19:13:52.246458,9472
19:13:52.246458,0
19:13:52.246458,37
19:13:52.246458,8192
19:13:52.246458,0
19:13:52.246458,25
19:13:52.246458,5888
19:13:52.246458,0
19:13:52.246458,21
19:13:52.246458,2816
19:13:52.246458,0
19:13:52.246458,0
19:13:52.246458,512
19:13:52.246458,0
19:13:52.246458,14
19:13:52.246458,6400
19:13:52.246458,0
19:13:52.246458,47
19:13:52.784957,58
19:13:52.784957,15616
19:13:52.784957,0
19:13:52.784957,65
19:13:52.784957,13824
19:13:52.784957,0
19:13:52.784957,37
19:13:52.784957,10240
19:13:52.784957,0
19:13:52.784957,47
19:13:52.784957,14336
19:13:52.784957,0
19:13:52.784957,61
19:13:52.784957,14336
19:13:52.784957,0
19:13:52.784957,44
19:13:52.784957,1792
19:13:52.784957,0
19:13:52.784957,-96
19:13:52.784957,25599
19:13:52.784957,-1
19:13:52.784957,37
19:13:52.784957,-15872
19:13:52.784957,2
19:13:52.784957,1724
19:13:52.784957,17152
19:13:52.784957,8
19:13:52.784957,1312
19:13:52.784957,11008
19:13:52.784957,1
19:13:52.784957,-47
19:13:52.784957,-22529
19:13:52.784957,-1
19:13:52.784957,-221
19:13:52.784957,-4609
19:13:52.784957,-2
19:13:52.784957,-223
19:13:52.784957,9215
19:13:52.784957,-1
19:13:52.784957,-242
19:13:52.784957,7935
19:13:52.784957,-1
19:13:52.784957,-214
19:13:52.784957,10495
19:13:52.784957,-1
19:13:52.784957,-214
19:13:52.784957,11007
19:13:52.784957,-1
19:13:52.784957,-221
19:13:52.784957,7935
19:13:52.784957,-1
19:13:52.784957,-230
19:13:52.784957,6143
19:13:52.784957,-1
19:13:52.784957,-226
19:13:52.784957,9215
19:13:52.784957,-1
19:13:52.784957,-219
19:13:52.784957,11519
19:13:52.784957,-1
19:13:52.784957,-195
19:13:52.784957,22527
19:13:52.784957,-1
19:13:52.784957,-131
19:13:52.784957,-23809
19:13:52.784957,-1
19:13:52.784957,-58
19:13:52.784957,-6913
19:13:52.784957,-1
19:13:52.784957,0
19:13:52.784957,5888
19:13:52.784957,0
19:13:52.784957,42
19:13:52.784957,12032
19:13:52.784957,0
19:13:52.784957,49
19:13:52.784957,13824
19:13:52.784957,0
19:13:52.784957,56
19:13:52.784957,14336
19:13:52.784957,0
19:13:52.784957,56
19:13:52.784957,14336
19:13:52.784957,0
19:13:52.784957,51
19:13:52.784957,12032
19:13:52.784957,0
19:13:52.784957,42
19:13:52.784957,10752
19:13:52.784957,0
19:13:52.784957,42
19:13:52.784957,8960
19:13:52.784957,0
19:13:52.784957,30
19:13:52.784957,6400
19:13:52.784957,0
19:13:52.784957,23
19:13:52.784957,3584
19:13:52.784957,0
19:13:52.784957,7
19:13:52.784957,2816
19:13:52.784957,0
19:13:52.784957,25
19:13:52.784957,12032
19:13:52.784957,0
19:13:52.784957,63
19:13:52.784957,16640
19:13:52.784957,0
19:13:52.784957,70
19:13:53.373639,68
19:13:53.373639,13056
19:13:53.373639,0
19:13:53.373639,47
19:13:53.373639,13824
19:13:53.373639,0
19:13:53.373639,63
19:13:53.373639,17920
19:13:53.373639,0
19:13:53.373639,65
19:13:53.373639,13824
19:13:53.373639,0
19:13:53.373639,30
19:13:53.373639,-13824
19:13:53.373639,-1
19:13:53.373639,-153
19:13:53.373639,-18945
19:13:53.373639,-1
19:13:53.373639,414
19:13:53.373639,25088
19:13:53.373639,5
19:13:53.373639,2110
19:13:53.373639,-24576
19:13:53.373639,6
19:13:53.373639,607
19:13:53.373639,1792
19:13:53.373639,0
19:13:53.373639,-68
19:13:53.373639,23807
19:13:53.373639,-1
19:13:53.373639,-275
19:13:53.373639,3071
19:13:53.373639,-1
19:13:53.373639,-214
19:13:53.373639,5631
19:13:53.373639,-1
19:13:53.373639,-230
19:13:53.373639,11519
19:13:53.373639,-1
19:13:53.373639,-214
19:13:53.373639,10495
19:13:53.373639,-1
19:13:53.373639,-212
19:13:53.373639,11007
19:13:53.373639,-1
19:13:53.373639,-221
19:13:53.373639,7423
19:13:53.373639,-1
19:13:53.373639,-233
19:13:53.373639,5631
19:13:53.373639,-1
19:13:53.373639,-228
19:13:53.373639,9215
19:13:53.373639,-1
19:13:53.373639,-216
19:13:53.373639,13567
19:13:53.373639,-1
19:13:53.373639,-183
19:13:53.373639,27391
19:13:53.373639,-1
19:13:53.373639,-106
19:13:53.373639,-16385
19:13:53.373639,-1
19:13:53.373639,-40
19:13:53.373639,-3329
19:13:53.373639,-1
19:13:53.373639,9
19:13:53.373639,6400
19:13:53.373639,0
19:13:53.373639,35
19:13:53.373639,10240
19:13:53.373639,0
19:13:53.373639,44
19:13:53.373639,12032
19:13:53.373639,0
19:13:53.373639,47
19:13:53.373639,12032
19:13:53.373639,0
19:13:53.373639,47
19:13:53.373639,10752
19:13:53.373639,0
19:13:53.373639,37
19:13:53.373639,8960
19:13:53.373639,0
19:13:53.373639,28
19:13:53.373639,7168
19:13:53.373639,0
19:13:53.373639,30
19:13:53.373639,7680
19:13:53.373639,0
19:13:53.373639,23
19:13:53.373639,4096
19:13:53.373639,0
19:13:53.373639,14
19:13:53.373639,1024
19:13:53.373639,0
19:13:53.373639,2
19:13:53.373639,2304
19:13:53.373639,0
19:13:53.373639,25
19:13:53.373639,13056
19:13:53.373639,0
19:13:53.373639,65
19:13:53.373639,16128
19:13:53.373639,0
19:13:53.373639,68
19:13:53.373639,15616
19:13:53.373639,0
19:13:53.373639,40
19:13:53.957950,37
19:13:53.957950,11264
19:13:53.957950,0
19:13:53.957950,42
19:13:53.957950,9472
19:13:53.957950,0
19:13:53.957950,32
19:13:53.957950,7168
19:13:53.957950,0
19:13:53.957950,-7
19:13:53.957950,-24833
19:13:53.957950,-1
19:13:53.957950,-155
19:13:53.957950,6143
19:13:53.957950,0
19:13:53.957950,650
19:13:53.957950,30720
19:13:53.957950,6
19:13:53.957950,2129
19:13:53.957950,30464
19:13:53.957950,5
19:13:53.957950,355
19:13:53.957950,-10240
19:13:53.957950,-1
19:13:53.957950,-82
19:13:53.957950,13567
19:13:53.957950,-1
19:13:53.957950,-273
19:13:53.957950,8703
19:13:53.957950,-1
19:13:53.957950,-214
19:13:53.957950,6143
19:13:53.957950,-1
19:13:53.957950,-219
19:13:53.957950,12287
19:13:53.957950,-1
19:13:53.957950,-216
19:13:53.957950,10495
19:13:53.957950,-1
19:13:53.957950,-214
19:13:53.957950,9727
19:13:53.957950,-1
19:13:53.957950,-226
19:13:53.957950,6911
19:13:53.957950,-1
19:13:53.957950,-235
19:13:53.957950,6143
19:13:53.957950,-1
19:13:53.957950,-226
19:13:53.957950,10495
19:13:53.957950,-1
19:13:53.957950,-202
19:13:53.957950,17663
19:13:53.957950,-1
19:13:53.957950,-167
19:13:53.957950,32255
19:13:53.957950,-1
19:13:53.957950,-91
19:13:53.957950,-15361
19:13:53.957950,-1
19:13:53.957950,-30
19:13:53.957950,-257
19:13:53.957950,-1
19:13:53.957950,16
19:13:53.957950,6400
19:13:53.957950,0
19:13:53.957950,35
19:13:53.957950,10752
19:13:53.957950,0
19:13:53.957950,42
19:13:53.957950,10752
19:13:53.957950,0
19:13:53.957950,44
19:13:53.957950,10752
19:13:53.957950,0
19:13:53.957950,42
19:13:53.957950,10240
19:13:53.957950,0
19:13:53.957950,35
19:13:53.957950,7680
19:13:53.957950,0
19:13:53.957950,30
19:13:53.957950,7680
19:13:53.957950,0
19:13:53.957950,30
19:13:53.957950,8192
19:13:53.957950,0
19:13:53.957950,30
19:13:53.957950,5888
19:13:53.957950,0
19:13:53.957950,21
19:13:53.957950,2816
19:13:53.957950,0
19:13:53.957950,4
19:13:53.957950,2304
19:13:53.957950,0
19:13:53.957950,25
19:13:53.957950,11264
19:13:53.957950,0
19:13:53.957950,58
19:13:53.957950,15616
19:13:53.957950,0
19:13:53.957950,63
19:13:53.957950,14848
19:13:53.957950,0
19:13:53.957950,42
19:13:53.957950,8960
19:13:53.957950,0
19:13:53.957950,44
19:13:54.497164,47
19:13:54.497164,9472
19:13:54.497164,0
19:13:54.497164,35
19:13:54.497164,7680
19:13:54.497164,0
19:13:54.497164,0
19:13:54.497164,-23296
19:13:54.497164,-1
19:13:54.497164,-176
19:13:54.497164,-12801
19:13:54.497164,-1
19:13:54.497164,515
19:13:54.497164,-3840
19:13:54.497164,5
19:13:54.497164,2155
19:13:54.497164,11264
19:13:54.497164,6
19:13:54.497164,480
19:13:54.497164,-5376
19:13:54.497164,-1
19:13:54.497164,-58
19:13:54.497164,22015
19:13:54.497164,-1
19:13:54.497164,-266
19:13:54.497164,9727
19:13:54.497164,-1
19:13:54.497164,-202
19:13:54.497164,6911
19:13:54.497164,-1
19:13:54.497164,-216
19:13:54.497164,13567
19:13:54.497164,-1
19:13:54.497164,-214
19:13:54.497164,11007
19:13:54.497164,-1
19:13:54.497164,-209
19:13:54.497164,11007
19:13:54.497164,-1
19:13:54.497164,-216
19:13:54.497164,9727
19:13:54.497164,-1
19:13:54.497164,-223
19:13:54.497164,8703
19:13:54.497164,-1
19:13:54.497164,-219
19:13:54.497164,10495
19:13:54.497164,-1
19:13:54.497164,-209
19:13:54.497164,16383
19:13:54.497164,-1
19:13:54.497164,-167
19:13:54.497164,30207
19:13:54.497164,-1
19:13:54.497164,-103
19:13:54.497164,-17153
19:13:54.497164,-1
19:13:54.497164,-37
19:13:54.497164,-2049
19:13:54.497164,-1
19:13:54.497164,11
19:13:54.497164,5888
19:13:54.497164,0
19:13:54.497164,30
19:13:54.497164,10240
19:13:54.497164,0
19:13:54.497164,44
19:13:54.497164,11264
19:13:54.497164,0
19:13:54.497164,42
19:13:54.497164,11264
19:13:54.497164,0
19:13:54.497164,47
19:13:54.497164,10240
19:13:54.497164,0
19:13:54.497164,37
19:13:54.497164,10240
19:13:54.497164,0
19:13:54.497164,37
19:13:54.497164,7680
19:13:54.497164,0
19:13:54.497164,25
19:13:54.497164,6400
19:13:54.497164,0
19:13:54.497164,25
19:13:54.497164,5376
19:13:54.497164,0
19:13:54.497164,18
19:13:54.497164,4096
19:13:54.497164,0
19:13:54.497164,9
19:13:54.497164,1792
19:13:54.497164,0
19:13:54.497164,18
19:13:54.497164,9472
19:13:54.497164,0
19:13:54.497164,54
19:13:54.497164,15616
19:13:54.497164,0
19:13:54.497164,70
19:13:54.497164,19200
19:13:54.497164,0
19:13:54.497164,58
19:13:54.497164,11264
19:13:54.497164,0
19:13:54.497164,44
19:13:54.497164,12032
19:13:54.497164,0
19:13:54.497164,47
19:13:55.125047,47
19:13:55.125047,12544
19:13:55.125047,0
19:13:55.125047,47
19:13:55.125047,-1024
19:13:55.125047,-1
19:13:55.125047,-117
19:13:55.125047,24831
19:13:55.125047,-1
19:13:55.125047,87
19:13:55.125047,16128
19:13:55.125047,3
19:13:55.125047,1851
19:13:55.125047,12288
19:13:55.125047,8
19:13:55.125047,1192
19:13:55.125047,1792
19:13:55.125047,1
19:13:55.125047,-18
19:13:55.125047,-23041
19:13:55.125047,-1
19:13:55.125047,-223
19:13:55.125047,-1537
19:13:55.125047,-2
19:13:55.125047,-219
19:13:55.125047,14079
19:13:55.125047,-1
19:13:55.125047,-200
19:13:55.125047,18943
19:13:55.125047,-1
19:13:55.125047,-174
19:13:55.125047,17663
19:13:55.125047,-1
19:13:55.125047,-197
19:13:55.125047,14591
19:13:55.125047,-1
19:13:55.125047,-207
19:13:55.125047,11519
19:13:55.125047,-1
19:13:55.125047,-221
19:13:55.125047,7935
19:13:55.125047,-1
19:13:55.125047,-219
19:13:55.125047,11519
19:13:55.125047,-1
19:13:55.125047,-209
19:13:55.125047,14079
19:13:55.125047,-1
19:13:55.125047,-188
19:13:55.125047,24319
19:13:55.125047,-1
19:13:55.125047,-129
19:13:55.125047,-22529
19:13:55.125047,-1
19:13:55.125047,-49
19:13:55.125047,-4353
19:13:55.125047,-1
19:13:55.125047,4
19:13:55.125047,7168
19:13:55.125047,0
19:13:55.125047,44
19:13:55.125047,12544
19:13:55.125047,0
19:13:55.125047,51
19:13:55.125047,14336
19:13:55.125047,0
19:13:55.125047,56
19:13:55.125047,13056
19:13:55.125047,0
19:13:55.125047,44
19:13:55.125047,7680
19:13:55.125047,0
19:13:55.125047,30
19:13:55.125047,12032
19:13:55.125047,0
19:13:55.125047,51
19:13:55.125047,12032
19:13:55.125047,0
19:13:55.125047,42
19:13:55.125047,8960
19:13:55.125047,0
19:13:55.125047,35
19:13:55.125047,10240
19:13:55.125047,0
19:13:55.125047,42
19:13:55.125047,8960
19:13:55.125047,0
19:13:55.125047,23
19:13:55.125047,4608
19:13:55.125047,0
19:13:55.125047,16
19:13:55.125047,5376
19:13:55.125047,0
19:13:55.125047,32
19:13:55.125047,12032
19:13:55.125047,0
19:13:55.125047,61
19:13:55.125047,20992
19:13:55.125047,0
19:13:55.125047,91
19:13:55.125047,17408
19:13:55.125047,0
19:13:55.125047,37
19:13:55.125047,8192
19:13:55.125047,0
19:13:55.125047,44
19:13:55.125047,15616
19:13:55.125047,0
19:13:55.125047,80
19:13:55.622643,80
19:13:55.622643,17920
19:13:55.622643,0
19:13:55.622643,51
19:13:55.622643,-5888
19:13:55.622643,-1
19:13:55.622643,-131
19:13:55.622643,-22017
19:13:55.622643,-1
19:13:55.622643,341
19:13:55.622643,-3840
19:13:55.622643,4
19:13:55.622643,2028
19:13:55.622643,-24064
19:13:55.622643,6
19:13:55.622643,723
19:13:55.622643,-26368
19:13:55.622643,0
19:13:55.622643,7
19:13:55.622643,-31232
19:13:55.622643,-1
19:13:55.622643,-219
19:13:55.622643,13567
19:13:55.622643,-1
19:13:55.622643,-190
19:13:55.622643,17151
19:13:55.622643,-1
19:13:55.622643,-162
19:13:55.622643,27903
19:13:55.622643,-1
19:13:55.622643,-162
19:13:55.622643,23039
19:13:55.622643,-1
19:13:55.622643,-164
19:13:55.622643,20735
19:13:55.622643,-1
19:13:55.622643,-188
19:13:55.622643,15871
19:13:55.622643,-1
19:13:55.622643,-212
19:13:55.622643,8703
19:13:55.622643,-1
19:13:55.622643,-221
19:13:55.622643,9215
19:13:55.622643,-1
19:13:55.622643,-219
19:13:55.622643,14591
19:13:55.622643,-1
19:13:55.622643,-171
19:13:55.622643,27903
19:13:55.622643,-1
19:13:55.622643,-117
19:13:55.622643,-17153
19:13:55.622643,-1
19:13:55.622643,-25
19:13:55.622643,-257
19:13:55.622643,-1
19:13:55.622643,16
19:13:55.622643,9472
19:13:55.622643,0
19:13:55.622643,58
19:13:55.622643,16128
19:13:55.622643,0
19:13:55.622643,56
19:13:55.622643,13824
19:13:55.622643,0
19:13:55.622643,54
19:13:55.622643,13824
19:13:55.622643,0
19:13:55.622643,49
19:13:55.622643,13056
19:13:55.622643,0
19:13:55.622643,54
19:13:55.622643,12032
19:13:55.622643,0
19:13:55.622643,40
19:13:55.622643,8192
19:13:55.622643,0
19:13:55.622643,32
19:13:55.622643,11264
19:13:55.622643,0
19:13:55.622643,47
19:13:55.622643,8192
19:13:55.622643,0
19:13:55.622643,28
19:13:55.622643,6400
19:13:55.622643,0
19:13:55.622643,16
19:13:55.622643,4608
19:13:55.622643,0
19:13:55.622643,37
19:13:55.622643,14848
19:13:55.622643,0
19:13:55.622643,73
19:13:55.622643,22784
19:13:55.622643,0
19:13:55.622643,103
19:13:55.622643,24064
19:13:55.622643,0
19:13:55.622643,75
19:13:55.622643,21504
19:13:55.622643,0
19:13:55.622643,94
19:13:55.622643,20992
19:13:55.622643,0
19:13:55.622643,75
19:13:55.622643,22272
19:13:55.622643,0
19:13:55.622643,98
19:13:56.159938,47
19:13:56.159938,-21504
19:13:56.159938,-1
19:13:56.159938,-155
19:13:56.159938,10495
19:13:56.159938,0
19:13:56.159938,782
19:13:56.159938,15872
19:13:56.159938,7
19:13:56.159938,2129
19:13:56.159938,7424
19:13:56.159938,5
19:13:56.159938,471
19:13:56.159938,-28928
19:13:56.159938,0
19:13:56.159938,-4
19:13:56.159938,30207
19:13:56.159938,-1
19:13:56.159938,-167
19:13:56.159938,30207
19:13:56.159938,-1
19:13:56.159938,-148
19:13:56.159938,24319
19:13:56.159938,-1
19:13:56.159938,-148
19:13:56.159938,29695
19:13:56.159938,-1
19:13:56.159938,-148
19:13:56.159938,28415
19:13:56.159938,-1
19:13:56.159938,-143
19:13:56.159938,27903
19:13:56.159938,-1
19:13:56.159938,-157
19:13:56.159938,22015
19:13:56.159938,-1
19:13:56.159938,-193
19:13:56.159938,11519
19:13:56.159938,-1
19:13:56.159938,-214
19:13:56.159938,15871
19:13:56.159938,-1
19:13:56.159938,-183
19:13:56.159938,19967
19:13:56.159938,-1
19:13:56.159938,-153
19:13:56.159938,-29697
19:13:56.159938,-1
19:13:56.159938,-82
19:13:56.159938,-6145
19:13:56.159938,-1
19:13:56.159938,32
19:13:56.159938,16128
19:13:56.159938,0
19:13:56.159938,80
19:13:56.159938,24064
19:13:56.159938,0
19:13:56.159938,106
19:13:56.159938,26368
19:13:56.159938,0
19:13:56.159938,101
19:13:56.159938,29952
19:13:56.159938,0
19:13:56.159938,127
19:13:56.159938,26368
19:13:56.159938,0
19:13:56.159938,87
19:13:56.159938,24064
19:13:56.159938,0
19:13:56.159938,94
19:13:56.159938,20480
19:13:56.159938,0
19:13:56.159938,65
19:13:56.159938,14336
19:13:56.159938,0
19:13:56.159938,61
19:13:56.159938,15616
19:13:56.159938,0
19:13:56.159938,42
19:13:56.159938,-1024
19:13:56.159938,-1
19:13:56.159938,-40
19:13:56.159938,-1537
19:13:56.159938,-1
19:13:56.159938,51
19:13:56.159938,20992
19:13:56.159938,0
19:13:56.159938,84
19:13:56.159938,26368
19:13:56.159938,0
19:13:56.159938,143
19:13:56.159938,-28160
19:13:56.159938,0
19:13:56.159938,136
19:13:56.159938,-26368
19:13:56.159938,0
19:13:56.159938,160
19:13:56.159938,-22784
19:13:56.159938,0
19:13:56.159938,186
19:13:56.159938,-30720
19:13:56.159938,0
19:13:56.159938,35
19:13:56.159938,15616
19:13:56.159938,0
19:13:56.159938,544
19:13:56.159938,15616
19:13:56.159938,6
19:13:56.159938,2330
19:13:56.749596,1880
19:13:56.749596,-29952
19:13:56.749596,3
19:13:56.749596,353
19:13:56.749596,-26368
19:13:56.749596,0
19:13:56.749596,-11
19:13:56.749596,-19457
19:13:56.749596,-1
19:13:56.749596,-16
19:13:56.749596,255
19:13:56.749596,0
19:13:56.749596,-28
19:13:56.749596,-3329
19:13:56.749596,-1
19:13:56.749596,-2
19:13:56.749596,-6913
19:13:56.749596,-1
19:13:56.749596,-16
19:13:56.749596,5631
19:13:56.749596,0
19:13:56.749596,-4
19:13:56.749596,-11009
19:13:56.749596,-1
19:13:56.749596,-40
19:13:56.749596,-11009
19:13:56.749596,-1
19:13:56.749596,-65
19:13:56.749596,-15873
19:13:56.749596,-1
19:13:56.749596,-65
19:13:56.749596,-16385
19:13:56.749596,-1
19:13:56.749596,-25
19:13:56.749596,3839
19:13:56.749596,0
19:13:56.749596,44
19:13:56.749596,25088
19:13:56.749596,0
19:13:56.749596,171
19:13:56.749596,-9472
19:13:56.749596,0
19:13:56.749596,256
19:13:56.749596,14592
19:13:56.749596,1
19:13:56.749596,346
19:13:56.749596,26624
19:13:56.749596,1
19:13:56.749596,376
19:13:56.749596,-32256
19:13:56.749596,1
19:13:56.749596,379
19:13:56.749596,26112
19:13:56.749596,1
19:13:56.749596,341
19:13:56.749596,21760
19:13:56.749596,1
19:13:56.749596,336
19:13:56.749596,17664
19:13:56.749596,1
19:13:56.749596,332
19:13:56.749596,26112
19:13:56.749596,1
19:13:56.749596,353
19:13:56.749596,16384
19:13:56.749596,1
19:13:56.749596,320
19:13:56.749596,21248
19:13:56.749596,1
19:13:56.749596,325
19:13:56.749596,15872
19:13:56.749596,1
19:13:56.749596,362
19:13:56.749596,-29184
19:13:56.749596,1
19:13:56.749596,409
19:13:56.749596,-15360
19:13:56.749596,1
19:13:56.749596,494
19:13:56.749596,2048
19:13:56.749596,2
19:13:56.749596,539
19:13:56.749596,8192
19:13:56.749596,2
19:13:56.749596,556
19:13:56.749596,18944
19:13:56.749596,2
19:13:56.749596,593
19:13:56.749596,20736
19:13:56.749596,2
19:13:56.749596,584
19:13:56.749596,-4608
19:13:56.749596,1
19:13:56.749596,457
19:13:56.749596,16896
19:13:56.749596,3
19:13:56.749596,1771
19:13:56.749596,16896
19:13:56.749596,10
19:13:56.749596,2461
19:13:56.749596,2304
19:13:56.749596,6
19:13:56.749596,852
19:13:56.749596,18432
19:13:56.749596,2
19:13:56.749596,435
19:13:56.749596,15872
19:13:56.749596,1
19:13:56.749596,292
19:13:57.335223,308
19:13:57.335223,9728
19:13:57.335223,1
19:13:57.335223,268
19:13:57.335223,-4096
19:13:57.335223,0
19:13:57.335223,221
19:13:57.335223,-4864
19:13:57.335223,0
19:13:57.335223,256
19:13:57.335223,-8960
19:13:57.335223,0
19:13:57.335223,179
19:13:57.335223,-27136
19:13:57.335223,0
19:13:57.335223,98
19:13:57.335223,9472
19:13:57.335223,0
19:13:57.335223,-9
19:13:57.335223,-15361
19:13:57.335223,-1
19:13:57.335223,-108
19:13:57.335223,-28673
19:13:57.335223,-1
19:13:57.335223,-82
19:13:57.335223,-12289
19:13:57.335223,-1
19:13:57.335223,-18
19:13:57.335223,3839
19:13:57.335223,0
19:13:57.335223,40
19:13:57.335223,10752
19:13:57.335223,0
19:13:57.335223,28
19:13:57.335223,7680
19:13:57.335223,0
19:13:57.335223,18
19:13:57.335223,-5888
19:13:57.335223,-1
19:13:57.335223,-40
19:13:57.335223,-14081
19:13:57.335223,-1
19:13:57.335223,-127
19:13:57.335223,16383
19:13:57.335223,-1
19:13:57.335223,-212
19:13:57.335223,9727
19:13:57.335223,-1
19:13:57.335223,-263
19:13:57.335223,-17409
19:13:57.335223,-2
19:13:57.335223,-334
19:13:57.335223,-23297
19:13:57.335223,-2
19:13:57.335223,-402
19:13:57.335223,16383
19:13:57.335223,-2
19:13:57.335223,-492
19:13:57.335223,2303
19:13:57.335223,-2
19:13:57.335223,-487
19:13:57.335223,8959
19:13:57.335223,-2
19:13:57.335223,-466
19:13:57.335223,6655
19:13:57.335223,-2
19:13:57.335223,-527
19:13:57.335223,-4865
19:13:57.335223,-3
19:13:57.335223,-551
19:13:57.335223,-19969
19:13:57.335223,-3
19:13:57.335223,-574
19:13:57.335223,-8449
19:13:57.335223,-3
19:13:57.335223,-572
19:13:57.335223,-22273
19:13:57.335223,-3
19:13:57.335223,-596
19:13:57.335223,-27649
19:13:57.335223,-3
19:13:57.335223,-702
19:13:57.335223,22015
19:13:57.335223,-3
19:13:57.335223,-252
19:13:57.335223,-24065
19:13:57.335223,2
19:13:57.335223,1361
19:13:57.335223,12800
19:13:57.335223,4
19:13:57.335223,221
19:13:57.335223,30464
19:13:57.335223,-2
19:13:57.335223,-629
19:13:57.335223,-1537
19:13:57.335223,-4
19:13:57.335223,-899
19:13:57.335223,29695
19:13:57.335223,-4
19:13:57.335223,-883
19:13:57.335223,-32257
19:13:57.335223,-4
19:13:57.335223,-907
19:13:57.335223,-31489
19:13:57.335223,-4
19:13:57.335223,-909
19:13:57.335223,18175
19:13:57.335223,-4
19:13:57.335223,-961
19:13:57.873959,-956
19:13:57.873959,9727
19:13:57.873959,-4
19:13:57.873959,-1020
19:13:57.873959,-5377
19:13:57.873959,-5
19:13:57.873959,-1055
19:13:57.873959,-5377
19:13:57.873959,-5
19:13:57.873959,-1067
19:13:57.873959,-11777
19:13:57.873959,-5
19:13:57.873959,-1013
19:13:57.873959,19455
19:13:57.873959,-4
19:13:57.873959,-909
19:13:57.873959,-24833
19:13:57.873959,-4
19:13:57.873959,-786
19:13:57.873959,22783
19:13:57.873959,-3
19:13:57.873959,-629
19:13:57.873959,-27137
19:13:57.873959,-3
19:13:57.873959,-574
19:13:57.873959,-2561
19:13:57.873959,-3
19:13:57.873959,-527
19:13:57.873959,-10241
19:13:57.873959,-3
19:13:57.873959,-541
19:13:57.873959,-513
19:13:57.873959,-3
19:13:57.873959,-525
19:13:57.873959,-6145
19:13:57.873959,-3
19:13:57.873959,-534
19:13:57.873959,-7169
19:13:57.873959,-3
19:13:57.873959,-520
19:13:57.873959,9727
19:13:57.873959,-2
19:13:57.873959,-471
19:13:57.873959,10751
19:13:57.873959,-2
19:13:57.873959,-447
19:13:57.873959,16895
19:13:57.873959,-2
19:13:57.873959,-490
19:13:57.873959,1279
19:13:57.873959,-2
19:13:57.873959,-482
19:13:57.873959,511
19:13:57.873959,-2
19:13:57.873959,-565
19:13:57.873959,7935
19:13:57.873959,-2
19:13:57.873959,-346
19:13:57.873959,3839
19:13:57.873959,-1
19:13:57.873959,-155
19:13:57.873959,15871
19:13:57.873959,-1
19:13:57.873959,-278
19:13:57.873959,-513
19:13:57.873959,-2
19:13:57.873959,-247
19:13:57.873959,-8193
19:13:57.873959,-2
19:13:57.873959,-308
19:13:57.873959,-24065
19:13:57.873959,-2
19:13:57.873959,-445
19:13:57.873959,27135
19:13:57.873959,-2
19:13:57.873959,115
19:13:57.873959,22528
19:13:57.873959,4
19:13:57.873959,1602
19:13:57.873959,0
19:13:57.873959,4
19:13:57.873959,237
19:13:57.873959,32512
19:13:57.873959,-1
19:13:57.873959,-334
19:13:57.873959,-513
19:13:57.873959,-3
19:13:57.873959,-553
19:13:57.873959,1791
19:13:57.873959,-2
19:13:57.873959,-520
19:13:57.873959,-7937
19:13:57.873959,-3
19:13:57.873959,-478
19:13:57.873959,20991
19:13:57.873959,-2
19:13:57.873959,-478
19:13:57.873959,6655
19:13:57.873959,-2
19:13:57.873959,-445
19:13:57.873959,13823
19:13:57.873959,-2
19:13:57.873959,-501
19:13:57.873959,4863
19:13:57.873959,-2
19:13:57.873959,-487
19:13:57.873959,511
19:13:57.873959,-2
19:13:57.873959,-513
19:13:58.414256,-490
19:13:58.414256,13823
19:13:58.414256,-2
19:13:58.414256,-433
19:13:58.414256,31231
19:13:58.414256,-2
19:13:58.414256,-318
19:13:58.414256,-2817
19:13:58.414256,-2
19:13:58.414256,-247
19:13:58.414256,16383
19:13:58.414256,-1
19:13:58.414256,-124
19:13:58.414256,-21249
19:13:58.414256,-1
19:13:58.414256,-65
19:13:58.414256,-17153
19:13:58.414256,-1
19:13:58.414256,-51
19:13:58.414256,-5121
19:13:58.414256,-1
19:13:58.414256,-28
19:13:58.414256,-11777
19:13:58.414256,-1
19:13:58.414256,-42
19:13:58.414256,-9217
19:13:58.414256,-1
19:13:58.414256,-37
19:13:58.414256,-5633
19:13:58.414256,-1
19:13:58.414256,-23
19:13:58.414256,-10497
19:13:58.414256,-1
19:13:58.414256,-44
19:13:58.414256,-8705
19:13:58.414256,-1
19:13:58.414256,-40
19:13:58.414256,-15361
19:13:58.414256,-1
19:13:58.414256,-82
19:13:58.414256,-22529
19:13:58.414256,-1
19:13:58.414256,-77
19:13:58.414256,-12289
19:13:58.414256,-1
19:13:58.414256,-30
19:13:58.414256,-7937
19:13:58.414256,-1
19:13:58.414256,-23
19:13:58.414256,-3329
19:13:58.414256,-1
19:13:58.414256,-28
19:13:58.414256,-11009
19:13:58.414256,-1
19:13:58.414256,-42
19:13:58.414256,-11009
19:13:58.414256,-1
19:13:58.414256,-51
19:13:58.414256,-14593
19:13:58.414256,-1
19:13:58.414256,-77
19:13:58.414256,28415
19:13:58.414256,-1
19:13:58.414256,-242
19:13:58.414256,5631
19:13:58.414256,-1
19:13:58.414256,80
19:13:58.414256,-32512
19:13:58.414256,3
19:13:58.414256,1677
19:13:58.414256,-21248
19:13:58.414256,5
19:13:58.414256,560
19:13:58.414256,3584
19:13:58.414256,0
19:13:58.414256,-155
19:13:58.414256,-14337
19:13:58.414256,-2
19:13:58.414256,-421
19:13:58.414256,22783
19:13:58.414256,-2
19:13:58.414256,-412
19:13:58.414256,27135
19:13:58.414256,-2
19:13:58.414256,-393
19:13:58.414256,31231
19:13:58.414256,-2
19:13:58.414256,-395
19:13:58.414256,29439
19:13:58.414256,-2
19:13:58.414256,-402
19:13:58.414256,28415
19:13:58.414256,-2
19:13:58.414256,-409
19:13:58.414256,22783
19:13:58.414256,-2
19:13:58.414256,-424
19:13:58.414256,23551
19:13:58.414256,-2
19:13:58.414256,-421
19:13:58.414256,27135
19:13:58.414256,-2
19:13:58.414256,-386
19:13:58.414256,-28161
19:13:58.414256,-2
19:13:58.414256,-341
19:13:58.414256,-13057
19:13:58.414256,-2
19:13:58.414256,-266
19:13:58.996185,-212
19:13:58.996185,24831
19:13:58.996185,-1
19:13:58.996185,-129
19:13:58.996185,-28673
19:13:58.996185,-1
19:13:58.996185,-91
19:13:58.996185,-18945
19:13:58.996185,-1
19:13:58.996185,-58
19:13:58.996185,-11777
19:13:58.996185,-1
19:13:58.996185,-42
19:13:58.996185,-7425
19:13:58.996185,-1
19:13:58.996185,-28
19:13:58.996185,-10497
19:13:58.996185,-1
19:13:58.996185,-44
19:13:58.996185,-8705
19:13:58.996185,-1
19:13:58.996185,-37
19:13:58.996185,-11009
19:13:58.996185,-1
19:13:58.996185,-37
19:13:58.996185,-9217
19:13:58.996185,-1
19:13:58.996185,-49
19:13:58.996185,-14081
19:13:58.996185,-1
19:13:58.996185,-54
19:13:58.996185,-14081
19:13:58.996185,-1
19:13:58.996185,-63
19:13:58.996185,-14593
19:13:58.996185,-1
19:13:58.996185,-30
19:13:58.996185,-5633
19:13:58.996185,-1
19:13:58.996185,-28
19:13:58.996185,-2049
19:13:58.996185,-1
19:13:58.996185,-2
19:13:58.996185,-4353
19:13:58.996185,-1
19:13:58.996185,-16
19:13:58.996185,-2561
19:13:58.996185,-1
19:13:58.996185,-16
19:13:58.996185,-2561
19:13:58.996185,-1
19:13:58.996185,-4
19:13:58.996185,-3841
19:13:58.996185,-1
19:13:58.996185,-68
19:13:58.996185,23039
19:13:58.996185,-1
19:13:58.996185,-195
19:13:58.996185,12287
19:13:58.996185,0
19:13:58.996185,765
19:13:58.996185,27136
19:13:58.996185,6
19:13:58.996185,1703
19:13:58.996185,28928
19:13:58.996185,3
19:13:58.996185,176
19:13:58.996185,-14848
19:13:58.996185,-1
19:13:58.996185,-176
19:13:58.996185,-6401
19:13:58.996185,-2
19:13:58.996185,-282
19:13:58.996185,1279
19:13:58.996185,-1
19:13:58.996185,-261
19:13:58.996185,-1537
19:13:58.996185,-2
19:13:58.996185,-252
19:13:58.996185,767
19:13:58.996185,-1
19:13:58.996185,-259
19:13:58.996185,-513
19:13:58.996185,-2
19:13:58.996185,-261
19:13:58.996185,-3329
19:13:58.996185,-2
19:13:58.996185,-278
19:13:58.996185,-4097
19:13:58.996185,-2
19:13:58.996185,-270
19:13:58.996185,-4609
19:13:58.996185,-2
19:13:58.996185,-268
19:13:58.996185,1279
19:13:58.996185,-1
19:13:58.996185,-237
19:13:58.996185,10495
19:13:58.996185,-1
19:13:58.996185,-183
19:13:58.996185,27391
19:13:58.996185,-1
19:13:58.996185,-122
19:13:58.996185,-22017
19:13:58.996185,-1
19:13:58.996185,-56
19:13:58.996185,-7937
19:13:58.996185,-1
19:13:58.996185,-11
19:13:59.534943,2
19:13:59.534943,2816
19:13:59.534943,0
19:13:59.534943,9
19:13:59.534943,1792
19:13:59.534943,0
19:13:59.534943,4
19:13:59.534943,1024
19:13:59.534943,0
19:13:59.534943,9
19:13:59.534943,1792
19:13:59.534943,0
19:13:59.534943,2
19:13:59.534943,1792
19:13:59.534943,0
19:13:59.534943,25
19:13:59.534943,7680
19:13:59.534943,0
19:13:59.534943,18
19:13:59.534943,2816
19:13:59.534943,0
19:13:59.534943,11
19:13:59.534943,0
19:13:59.534943,0
19:13:59.534943,-11
19:13:59.534943,-2561
19:13:59.534943,-1
19:13:59.534943,-7
19:13:59.534943,3071
19:13:59.534943,0
19:13:59.534943,35
19:13:59.534943,10240
19:13:59.534943,0
19:13:59.534943,47
19:13:59.534943,13056
19:13:59.534943,0
19:13:59.534943,37
19:13:59.534943,8960
19:13:59.534943,0
19:13:59.534943,47
19:13:59.534943,11264
19:13:59.534943,0
19:13:59.534943,37
19:13:59.534943,9472
19:13:59.534943,0
19:13:59.534943,30
19:13:59.534943,1024
19:13:59.534943,0
19:13:59.534943,-63
19:13:59.534943,26623
19:13:59.534943,-1
19:13:59.534943,-106
19:13:59.534943,16639
19:13:59.534943,1
19:13:59.534943,1210
19:13:59.534943,29696
19:13:59.534943,7
19:13:59.534943,1531
19:13:59.534943,7424
19:13:59.534943,2
19:13:59.534943,18
19:13:59.534943,-13824
19:13:59.534943,-1
19:13:59.534943,-171
19:13:59.534943,-5377
19:13:59.534943,-2
19:13:59.534943,-237
19:13:59.534943,12287
19:13:59.534943,-1
19:13:59.534943,-235
19:13:59.534943,6911
19:13:59.534943,-1
19:13:59.534943,-219
19:13:59.534943,6911
19:13:59.534943,-1
19:13:59.534943,-230
19:13:59.534943,8703
19:13:59.534943,-1
19:13:59.534943,-230
19:13:59.534943,5119
19:13:59.534943,-1
19:13:59.534943,-240
19:13:59.534943,3839
19:13:59.534943,-1
19:13:59.534943,-242
19:13:59.534943,5631
19:13:59.534943,-1
19:13:59.534943,-226
19:13:59.534943,11007
19:13:59.534943,-1
19:13:59.534943,-202
19:13:59.534943,18943
19:13:59.534943,-1
19:13:59.534943,-155
19:13:59.534943,-30465
19:13:59.534943,-1
19:13:59.534943,-80
19:13:59.534943,-11777
19:13:59.534943,-1
19:13:59.534943,-21
19:13:59.534943,255
19:13:59.534943,0
19:13:59.534943,16
19:13:59.534943,7168
19:13:59.534943,0
19:13:59.534943,30
19:13:59.534943,7680
19:13:59.534943,0
19:13:59.534943,30
19:14:00.076983,25
19:14:00.076983,6400
19:14:00.076983,0
19:14:00.076983,25
19:14:00.076983,5888
19:14:00.076983,0
19:14:00.076983,21
19:14:00.076983,4096
19:14:00.076983,0
19:14:00.076983,16
19:14:00.076983,7168
19:14:00.076983,0
19:14:00.076983,37
19:14:00.076983,5376
19:14:00.076983,0
19:14:00.076983,2
19:14:00.076983,1792
19:14:00.076983,0
19:14:00.076983,16
19:14:00.076983,7168
19:14:00.076983,0
19:14:00.076983,37
19:14:00.076983,9472
19:14:00.076983,0
19:14:00.076983,49
19:14:00.076983,14848
19:14:00.076983,0
19:14:00.076983,49
19:14:00.076983,12032
19:14:00.076983,0
19:14:00.076983,51
19:14:00.076983,12032
19:14:00.076983,0
19:14:00.076983,47
19:14:00.076983,12544
19:14:00.076983,0
19:14:00.076983,47
19:14:00.076983,6400
19:14:00.076983,0
19:14:00.076983,-56
19:14:00.076983,26111
19:14:00.076983,-1
19:14:00.076983,-106
19:14:00.076983,13567
19:14:00.076983,1
19:14:00.076983,1185
19:14:00.076983,28928
19:14:00.076983,7
19:14:00.076983,1564
19:14:00.076983,11264
19:14:00.076983,2
19:14:00.076983,4
19:14:00.076983,-12032
19:14:00.076983,-1
19:14:00.076983,-153
19:14:00.076983,-2817
19:14:00.076983,-2
19:14:00.076983,-235
19:14:00.076983,12287
19:14:00.076983,-1
19:14:00.076983,-235
19:14:00.076983,7935
19:14:00.076983,-1
19:14:00.076983,-209
19:14:00.076983,9727
19:14:00.076983,-1
19:14:00.076983,-223
19:14:00.076983,9727
19:14:00.076983,-1
19:14:00.076983,-221
19:14:00.076983,7423
19:14:00.076983,-1
19:14:00.076983,-228
19:14:00.076983,6911
19:14:00.076983,-1
19:14:00.076983,-233
19:14:00.076983,8703
19:14:00.076983,-1
19:14:00.076983,-216
19:14:00.076983,12799
19:14:00.076983,-1
19:14:00.076983,-200
19:14:00.076983,19455
19:14:00.076983,-1
19:14:00.076983,-143
19:14:00.076983,-27905
19:14:00.076983,-1
19:14:00.076983,-80
19:14:00.076983,-11777
19:14:00.076983,-1
19:14:00.076983,-16
19:14:00.076983,2559
19:14:00.076983,0
19:14:00.076983,18
19:14:00.076983,7168
19:14:00.076983,0
19:14:00.076983,40
19:14:00.076983,10752
19:14:00.076983,0
19:14:00.076983,42
19:14:00.076983,8192
19:14:00.076983,0
19:14:00.076983,25
19:14:00.076983,6400
19:14:00.076983,0
19:14:00.076983,25
19:14:00.076983,5888
19:14:00.076983,0
19:14:00.076983,21
19:14:00.708283,21
19:14:00.708283,4608
19:14:00.708283,0
19:14:00.708283,11
19:14:00.708283,1792
19:14:00.708283,0
19:14:00.708283,9
19:14:00.708283,4096
19:14:00.708283,0
19:14:00.708283,21
19:14:00.708283,7168
19:14:00.708283,0
19:14:00.708283,42
19:14:00.708283,12032
19:14:00.708283,0
19:14:00.708283,54
19:14:00.708283,17920
19:14:00.708283,0
19:14:00.708283,63
19:14:00.708283,12544
19:14:00.708283,0
19:14:00.708283,54
19:14:00.708283,14848
19:14:00.708283,0
19:14:00.708283,54
19:14:00.708283,12544
19:14:00.708283,0
19:14:00.708283,44
19:14:00.708283,8192
19:14:00.708283,0
19:14:00.708283,-14
19:14:00.708283,-30977
19:14:00.708283,-1
19:14:00.708283,-160
19:14:00.708283,21247
19:14:00.708283,0
19:14:00.708283,796
19:14:00.708283,-15616
19:14:00.708283,6
19:14:00.708283,1903
19:14:00.708283,-1024
19:14:00.708283,3
19:14:00.708283,162
19:14:00.708283,-11264
19:14:00.708283,-1
19:14:00.708283,-91
19:14:00.708283,4351
19:14:00.708283,-1
19:14:00.708283,-266
19:14:00.708283,12287
19:14:00.708283,-1
19:14:00.708283,-223
19:14:00.708283,5119
19:14:00.708283,-1
19:14:00.708283,-216
19:14:00.708283,10495
19:14:00.708283,-1
19:14:00.708283,-226
19:14:00.708283,9215
19:14:00.708283,-1
19:14:00.708283,-219
19:14:00.708283,7935
19:14:00.708283,-1
19:14:00.708283,-228
19:14:00.708283,6911
19:14:00.708283,-1
19:14:00.708283,-230
19:14:00.708283,7423
19:14:00.708283,-1
19:14:00.708283,-221
19:14:00.708283,11519
19:14:00.708283,-1
19:14:00.708283,-202
19:14:00.708283,17663
19:14:00.708283,-1
19:14:00.708283,-160
19:14:00.708283,-32257
19:14:00.708283,-1
19:14:00.708283,-89
19:14:00.708283,-14081
19:14:00.708283,-1
19:14:00.708283,-28
19:14:00.708283,255
19:14:00.708283,0
19:14:00.708283,21
19:14:00.708283,8192
19:14:00.708283,0
19:14:00.708283,35
19:14:00.708283,9472
19:14:00.708283,0
19:14:00.708283,40
19:14:00.708283,10240
19:14:00.708283,0
19:14:00.708283,37
19:14:00.708283,9472
19:14:00.708283,0
19:14:00.708283,35
19:14:00.708283,7168
19:14:00.708283,0
19:14:00.708283,28
19:14:00.708283,6400
19:14:00.708283,0
19:14:00.708283,23
19:14:00.708283,5888
19:14:00.708283,0
19:14:00.708283,18
19:14:00.708283,1792
19:14:00.708283,0
19:14:00.708283,-2
19:14:01.246409,-4
19:14:01.246409,255
19:14:01.246409,0
19:14:01.246409,18
19:14:01.246409,10752
19:14:01.246409,0
19:14:01.246409,47
19:14:01.246409,14336
19:14:01.246409,0
19:14:01.246409,70
19:14:01.246409,15616
19:14:01.246409,0
19:14:01.246409,47
19:14:01.246409,13824
19:14:01.246409,0
19:14:01.246409,58
19:14:01.246409,13824
19:14:01.246409,0
19:14:01.246409,49
19:14:01.246409,14848
19:14:01.246409,0
19:14:01.246409,63
19:14:01.246409,-1024
19:14:01.246409,-1
19:14:01.246409,-120
19:14:01.246409,-25601
19:14:01.246409,-1
19:14:01.246409,268
19:14:01.246409,26112
19:14:01.246409,4
19:14:01.246409,1969
19:14:01.246409,2560
19:14:01.246409,7
19:14:01.246409,782
19:14:01.246409,24576
19:14:01.246409,0
19:14:01.246409,-14
19:14:01.246409,-27393
19:14:01.246409,-1
19:14:01.246409,-245
19:14:01.246409,6143
19:14:01.246409,-1
19:14:01.246409,-197
19:14:01.246409,7935
19:14:01.246409,-1
19:14:01.246409,-223
19:14:01.246409,16383
19:14:01.246409,-1
19:14:01.246409,-195
19:14:01.246409,14591
19:14:01.246409,-1
19:14:01.246409,-181
19:14:01.246409,21247
19:14:01.246409,-1
19:14:01.246409,-204
19:14:01.246409,9215
19:14:01.246409,-1
19:14:01.246409,-219
19:14:01.246409,6143
19:14:01.246409,-1
19:14:01.246409,-235
19:14:01.246409,7935
19:14:01.246409,-1
19:14:01.246409,-216
19:14:01.246409,19967
19:14:01.246409,-1
19:14:01.246409,-134
19:14:01.246409,30207
19:14:01.246409,-1
19:14:01.246409,-139
19:14:01.246409,-22017
19:14:01.246409,-1
19:14:01.246409,-47
19:14:01.246409,-6145
19:14:01.246409,-1
19:14:01.246409,2
19:14:01.246409,5888
19:14:01.246409,0
19:14:01.246409,25
19:14:01.246409,8192
19:14:01.246409,0
19:14:01.246409,37
19:14:01.246409,10240
19:14:01.246409,0
19:14:01.246409,40
19:14:01.246409,8960
19:14:01.246409,0
19:14:01.246409,35
19:14:01.246409,8192
19:14:01.246409,0
19:14:01.246409,30
19:14:01.246409,10240
19:14:01.246409,0
19:14:01.246409,73
19:14:01.246409,25856
19:14:01.246409,0
19:14:01.246409,94
19:14:01.246409,18688
19:14:01.246409,0
19:14:01.246409,47
19:14:01.246409,2816
19:14:01.246409,0
19:14:01.246409,-7
19:14:01.246409,1279
19:14:01.246409,0
19:14:01.246409,21
19:14:01.246409,8192
19:14:01.246409,0
19:14:01.246409,35
19:14:01.787037,37
19:14:01.787037,13056
19:14:01.787037,0
19:14:01.787037,44
19:14:01.787037,7680
19:14:01.787037,0
19:14:01.787037,32
19:14:01.787037,10240
19:14:01.787037,0
19:14:01.787037,35
19:14:01.787037,7680
19:14:01.787037,0
19:14:01.787037,28
19:14:01.787037,4608
19:14:01.787037,0
19:14:01.787037,-35
19:14:01.787037,32767
19:14:01.787037,-1
19:14:01.787037,-129
19:14:01.787037,-17665
19:14:01.787037,0
19:14:01.787037,996
19:14:01.787037,29696
19:14:01.787037,7
19:14:01.787037,1896
19:14:01.787037,-32000
19:14:01.787037,3
19:14:01.787037,98
19:14:01.787037,-13056
19:14:01.787037,-1
19:14:01.787037,-117
19:14:01.787037,255
19:14:01.787037,-1
19:14:01.787037,-259
19:14:01.787037,12287
19:14:01.787037,-1
19:14:01.787037,-233
19:14:01.787037,4351
19:14:01.787037,-1
19:14:01.787037,-219
19:14:01.787037,9727
19:14:01.787037,-1
19:14:01.787037,-228
19:14:01.787037,9727
19:14:01.787037,-1
19:14:01.787037,-216
19:14:01.787037,8703
19:14:01.787037,-1
19:14:01.787037,-228
19:14:01.787037,5631
19:14:01.787037,-1
19:14:01.787037,-237
19:14:01.787037,6143
19:14:01.787037,-1
19:14:01.787037,-233
19:14:01.787037,8703
19:14:01.787037,-1
19:14:01.787037,-209
19:14:01.787037,15871
19:14:01.787037,-1
19:14:01.787037,-169
19:14:01.787037,-32257
19:14:01.787037,-1
19:14:01.787037,-84
19:14:01.787037,-12289
19:14:01.787037,-1
19:14:01.787037,-18
19:14:01.787037,2047
19:14:01.787037,0
19:14:01.787037,23
19:14:01.787037,8960
19:14:01.787037,0
19:14:01.787037,42
19:14:01.787037,11264
19:14:01.787037,0
19:14:01.787037,44
19:14:01.787037,11264
19:14:01.787037,0
19:14:01.787037,44
19:14:01.787037,11264
19:14:01.787037,0
19:14:01.787037,42
19:14:01.787037,9472
19:14:01.787037,0
19:14:01.787037,32
19:14:01.787037,7680
19:14:01.787037,0
19:14:01.787037,35
19:14:01.787037,8192
19:14:01.787037,0
19:14:01.787037,28
19:14:01.787037,7168
19:14:01.787037,0
19:14:01.787037,28
19:14:01.787037,4096
19:14:01.787037,0
19:14:01.787037,4
19:14:01.787037,512
19:14:01.787037,0
19:14:01.787037,9
19:14:01.787037,7168
19:14:01.787037,0
19:14:01.787037,47
19:14:01.787037,13824
19:14:01.787037,0
19:14:01.787037,58
19:14:01.787037,16128
19:14:01.787037,0
19:14:01.787037,47
19:14:02.419397,37
19:14:02.419397,12032
19:14:02.419397,0
19:14:02.419397,49
19:14:02.419397,10752
19:14:02.419397,0
19:14:02.419397,37
19:14:02.419397,8960
19:14:02.419397,0
19:14:02.419397,23
19:14:02.419397,-10752
19:14:02.419397,-1
19:14:02.419397,-141
19:14:02.419397,-29697
19:14:02.419397,-1
19:14:02.419397,233
19:14:02.419397,14592
19:14:02.419397,4
19:14:02.419397,1969
19:14:02.419397,20480
19:14:02.419397,7
19:14:02.419397,855
19:14:02.419397,26368
19:14:02.419397,0
19:14:02.419397,-44
19:14:02.419397,-32257
19:14:02.419397,-1
19:14:02.419397,-252
19:14:02.419397,3071
19:14:02.419397,-1
19:14:02.419397,-202
19:14:02.419397,9215
19:14:02.419397,-1
19:14:02.419397,-226
19:14:02.419397,12287
19:14:02.419397,-1
19:14:02.419397,-204
19:14:02.419397,12287
19:14:02.419397,-1
19:14:02.419397,-204
19:14:02.419397,12799
19:14:02.419397,-1
19:14:02.419397,-219
19:14:02.419397,8703
19:14:02.419397,-1
19:14:02.419397,-226
19:14:02.419397,7423
19:14:02.419397,-1
19:14:02.419397,-226
19:14:02.419397,9215
19:14:02.419397,-1
19:14:02.419397,-219
19:14:02.419397,12799
19:14:02.419397,-1
19:14:02.419397,-186
19:14:02.419397,25599
19:14:02.419397,-1
19:14:02.419397,-120
19:14:02.419397,-20737
19:14:02.419397,-1
19:14:02.419397,-47
19:14:02.419397,-4353
19:14:02.419397,-1
19:14:02.419397,9
19:14:02.419397,7168
19:14:02.419397,0
19:14:02.419397,37
19:14:02.419397,11264
19:14:02.419397,0
19:14:02.419397,49
19:14:02.419397,13056
19:14:02.419397,0
19:14:02.419397,56
19:14:02.419397,13824
19:14:02.419397,0
19:14:02.419397,49
19:14:02.419397,11264
19:14:02.419397,0
19:14:02.419397,47
19:14:02.419397,12032
19:14:02.419397,0
19:14:02.419397,44
19:14:02.419397,11264
19:14:02.419397,0
19:14:02.419397,42
19:14:02.419397,9472
19:14:02.419397,0
19:14:02.419397,35
19:14:02.419397,8192
19:14:02.419397,0
19:14:02.419397,28
19:14:02.419397,4608
19:14:02.419397,0
19:14:02.419397,7
19:14:02.419397,1792
19:14:02.419397,0
19:14:02.419397,18
19:14:02.419397,12032
19:14:02.419397,0
19:14:02.419397,65
19:14:02.419397,16640
19:14:02.419397,0
19:14:02.419397,65
19:14:02.419397,16128
19:14:02.419397,0
19:14:02.419397,47
19:14:02.419397,11264
19:14:02.419397,0
19:14:02.419397,54
19:14:02.913168,51
19:14:02.913168,11264
19:14:02.913168,0
19:14:02.913168,42
19:14:02.913168,9472
19:14:02.913168,0
19:14:02.913168,11
19:14:02.913168,-17408
19:14:02.913168,-1
19:14:02.913168,-162
19:14:02.913168,-22529
19:14:02.913168,-1
19:14:02.913168,388
19:14:02.913168,15872
19:14:02.913168,5
19:14:02.913168,2070
19:14:02.913168,31232
19:14:02.913168,6
19:14:02.913168,588
19:14:02.913168,1024
19:14:02.913168,0
19:14:02.913168,-73
19:14:02.913168,21247
19:14:02.913168,-1
19:14:02.913168,-270
19:14:02.913168,9215
19:14:02.913168,-1
19:14:02.913168,-186
19:14:02.913168,11519
19:14:02.913168,-1
19:14:02.913168,-207
19:14:02.913168,17151
19:14:02.913168,-1
19:14:02.913168,-200
19:14:02.913168,13567
19:14:02.913168,-1
19:14:02.913168,-197
19:14:02.913168,14079
19:14:02.913168,-1
19:14:02.913168,-214
19:14:02.913168,9215
19:14:02.913168,-1
19:14:02.913168,-223
19:14:02.913168,8703
19:14:02.913168,-1
19:14:02.913168,-223
19:14:02.913168,9727
19:14:02.913168,-1
19:14:02.913168,-212
19:14:02.913168,14591
19:14:02.913168,-1
19:14:02.913168,-179
19:14:02.913168,29183
19:14:02.913168,-1
19:14:02.913168,-103
19:14:02.913168,-15873
19:14:02.913168,-1
19:14:02.913168,-32
19:14:02.913168,-769
19:14:02.913168,-1
19:14:02.913168,23
19:14:02.913168,10240
19:14:02.913168,0
19:14:02.913168,51
19:14:02.913168,14336
19:14:02.913168,0
19:14:02.913168,58
19:14:02.913168,16128
19:14:02.913168,0
19:14:02.913168,65
19:14:02.913168,17408
19:14:02.913168,0
19:14:02.913168,70
19:14:02.913168,16640
19:14:02.913168,0
19:14:02.913168,63
19:14:02.913168,16128
19:14:02.913168,0
19:14:02.913168,61
19:14:02.913168,14848
19:14:02.913168,0
19:14:02.913168,54
19:14:02.913168,13056
19:14:02.913168,0
19:14:02.913168,44
19:14:02.913168,10240
19:14:02.913168,0
19:14:02.913168,40
19:14:02.913168,7168
19:14:02.913168,0
19:14:02.913168,16
19:14:02.913168,4608
19:14:02.913168,0
19:14:02.913168,28
19:14:02.913168,12544
19:14:02.913168,0
19:14:02.913168,63
19:14:02.913168,17920
19:14:02.913168,0
19:14:02.913168,75
19:14:02.913168,19200
19:14:02.913168,0
19:14:02.913168,58
19:14:02.913168,12032
19:14:02.913168,0
19:14:02.913168,54
19:14:02.913168,14848
19:14:02.913168,0
19:14:02.913168,51
19:14:03.453843,47
19:14:03.453843,11264
19:14:03.453843,0
19:14:03.453843,30
19:14:03.453843,-10240
19:14:03.453843,-1
19:14:03.453843,-150
19:14:03.453843,-29697
19:14:03.453843,-1
19:14:03.453843,292
19:14:03.453843,-18944
19:14:03.453843,4
19:14:03.453843,2068
19:14:03.453843,13312
19:14:03.453843,7
19:14:03.453843,763
19:14:03.453843,16640
19:14:03.453843,0
19:14:03.453843,-40
19:14:03.453843,32767
19:14:03.453843,-1
19:14:03.453843,-247
19:14:03.453843,8703
19:14:03.453843,-1
19:14:03.453843,-188
19:14:03.453843,11007
19:14:03.453843,-1
19:14:03.453843,-214
19:14:03.453843,15359
19:14:03.453843,-1
19:14:03.453843,-200
19:14:03.453843,14591
19:14:03.453843,-1
19:14:03.453843,-200
19:14:03.453843,12799
19:14:03.453843,-1
19:14:03.453843,-214
19:14:03.453843,9727
19:14:03.453843,-1
19:14:03.453843,-223
19:14:03.453843,7935
19:14:03.453843,-1
19:14:03.453843,-226
19:14:03.453843,9727
19:14:03.453843,-1
19:14:03.453843,-214
19:14:03.453843,13567
19:14:03.453843,-1
19:14:03.453843,-179
19:14:03.453843,28415
19:14:03.453843,-1
19:14:03.453843,-110
19:14:03.453843,-17665
19:14:03.453843,-1
19:14:03.453843,-32
19:14:03.453843,255
19:14:03.453843,0
19:14:03.453843,21
19:14:03.453843,8960
19:14:03.453843,0
19:14:03.453843,49
19:14:03.453843,15616
19:14:03.453843,0
19:14:03.453843,70
19:14:03.453843,17920
19:14:03.453843,0
19:14:03.453843,70
19:14:03.453843,17408
19:14:03.453843,0
19:14:03.453843,61
19:14:03.453843,14848
19:14:03.453843,0
19:14:03.453843,56
19:14:03.453843,13056
19:14:03.453843,0
19:14:03.453843,51
19:14:03.453843,12032
19:14:03.453843,0
19:14:03.453843,44
19:14:03.453843,10752
19:14:03.453843,0
19:14:03.453843,40
19:14:03.453843,8960
19:14:03.453843,0
19:14:03.453843,35
19:14:03.453843,7168
19:14:03.453843,0
19:14:03.453843,16
19:14:03.453843,2816
19:14:03.453843,0
19:14:03.453843,21
19:14:03.453843,8960
19:14:03.453843,0
19:14:03.453843,56
19:14:03.453843,17408
19:14:03.453843,0
19:14:03.453843,70
19:14:03.453843,18688
19:14:03.453843,0
19:14:03.453843,68
19:14:03.453843,14336
19:14:03.453843,0
19:14:03.453843,54
19:14:03.453843,15616
19:14:03.453843,0
19:14:03.453843,58
19:14:03.453843,12544
19:14:03.453843,0
19:14:03.453843,49
19:14:04.036657,47
19:14:04.036657,512
19:14:04.036657,0
19:14:04.036657,-106
19:14:04.036657,24319
19:14:04.036657,-1
19:14:04.036657,42
19:14:04.036657,-7936
19:14:04.036657,2
19:14:04.036657,1766
19:14:04.036657,17152
19:14:04.036657,8
19:14:04.036657,1288
19:14:04.036657,16384
19:14:04.036657,1
19:14:04.036657,-9
19:14:04.036657,-18433
19:14:04.036657,-1
19:14:04.036657,-200
19:14:04.036657,3071
19:14:04.036657,-1
19:14:04.036657,-200
19:14:04.036657,13567
19:14:04.036657,-1
19:14:04.036657,-216
19:14:04.036657,14591
19:14:04.036657,-1
19:14:04.036657,-197
19:14:04.036657,13567
19:14:04.036657,-1
19:14:04.036657,-209
19:14:04.036657,10495
19:14:04.036657,-1
19:14:04.036657,-223
19:14:04.036657,9215
19:14:04.036657,-1
19:14:04.036657,-219
19:14:04.036657,8703
19:14:04.036657,-1
19:14:04.036657,-219
19:14:04.036657,11519
19:14:04.036657,-1
19:14:04.036657,-209
19:14:04.036657,14591
19:14:04.036657,-1
19:14:04.036657,-186
19:14:04.036657,24319
19:14:04.036657,-1
19:14:04.036657,-124
19:14:04.036657,-20737
19:14:04.036657,-1
19:14:04.036657,-42
19:14:04.036657,-769
19:14:04.036657,-1
19:14:04.036657,25
19:14:04.036657,11264
19:14:04.036657,0
19:14:04.036657,51
19:14:04.036657,16128
19:14:04.036657,0
19:14:04.036657,68
19:14:04.036657,17408
19:14:04.036657,0
19:14:04.036657,68
19:14:04.036657,17408
19:14:04.036657,0
19:14:04.036657,65
19:14:04.036657,16128
19:14:04.036657,0
19:14:04.036657,61
19:14:04.036657,14848
19:14:04.036657,0
19:14:04.036657,51
19:14:04.036657,12032
19:14:04.036657,0
19:14:04.036657,47
19:14:04.036657,11264
19:14:04.036657,0
19:14:04.036657,44
19:14:04.036657,11264
19:14:04.036657,0
19:14:04.036657,40
19:14:04.036657,8960
19:14:04.036657,0
19:14:04.036657,30
19:14:04.036657,5888
19:14:04.036657,0
19:14:04.036657,21
19:14:04.036657,5888
19:14:04.036657,0
19:14:04.036657,30
19:14:04.036657,12544
19:14:04.036657,0
19:14:04.036657,68
19:14:04.036657,19200
19:14:04.036657,0
19:14:04.036657,80
19:14:04.036657,20480
19:14:04.036657,0
19:14:04.036657,61
19:14:04.036657,12544
19:14:04.036657,0
19:14:04.036657,58
19:14:04.036657,16128
19:14:04.036657,0
19:14:04.036657,56
19:14:04.036657,13824
19:14:04.036657,0
19:14:04.036657,51
19:14:04.622465,32
19:14:04.622465,-10752
19:14:04.622465,-1
19:14:04.622465,-148
19:14:04.622465,-26881
19:14:04.622465,-1
19:14:04.622465,320
19:14:04.622465,-8192
19:14:04.622465,4
19:14:04.622465,2082
19:14:04.622465,6656
19:14:04.622465,7
19:14:04.622465,751
19:14:04.622465,19712
19:14:04.622465,0
19:14:04.622465,-35
19:14:04.622465,32767
19:14:04.622465,-1
19:14:04.622465,-249
19:14:04.622465,7935
19:14:04.622465,-1
19:14:04.622465,-190
19:14:04.622465,9727
19:14:04.622465,-1
19:14:04.622465,-204
19:14:04.622465,21247
19:14:04.622465,-1
19:14:04.622465,-181
19:14:04.622465,17151
19:14:04.622465,-1
19:14:04.622465,-183
19:14:04.622465,17663
19:14:04.622465,-1
19:14:04.622465,-195
19:14:04.622465,15871
19:14:04.622465,-1
19:14:04.622465,-204
19:14:04.622465,10495
19:14:04.622465,-1
19:14:04.622465,-209
19:14:04.622465,14591
19:14:04.622465,-1
19:14:04.622465,-200
19:14:04.622465,16383
19:14:04.622465,-1
19:14:04.622465,-171
19:14:04.622465,31487
19:14:04.622465,-1
19:14:04.622465,-96
19:14:04.622465,-17665
19:14:04.622465,-1
19:14:04.622465,-35
19:14:04.622465,1279
19:14:04.622465,0
19:14:04.622465,30
19:14:04.622465,11264
19:14:04.622465,0
19:14:04.622465,58
19:14:04.622465,17920
19:14:04.622465,0
19:14:04.622465,70
19:14:04.622465,16640
19:14:04.622465,0
19:14:04.622465,70
19:14:04.622465,19200
19:14:04.622465,0
19:14:04.622465,73
19:14:04.622465,17408
19:14:04.622465,0
19:14:04.622465,65
19:14:04.622465,16640
19:14:04.622465,0
19:14:04.622465,61
19:14:04.622465,16128
19:14:04.622465,0
19:14:04.622465,70
19:14:04.622465,16640
19:14:04.622465,0
19:14:04.622465,58
19:14:04.622465,13824
19:14:04.622465,0
19:14:04.622465,51
19:14:04.622465,12544
19:14:04.622465,0
19:14:04.622465,42
19:14:04.622465,7680
19:14:04.622465,0
19:14:04.622465,21
19:14:04.622465,6400
19:14:04.622465,0
19:14:04.622465,40
19:14:04.622465,14336
19:14:04.622465,0
19:14:04.622465,77
19:14:04.622465,22784
19:14:04.622465,0
19:14:04.622465,82
19:14:04.622465,18688
19:14:04.622465,0
19:14:04.622465,63
19:14:04.622465,14848
19:14:04.622465,0
19:14:04.622465,68
19:14:04.622465,17920
19:14:04.622465,0
19:14:04.622465,68
19:14:04.622465,19200
19:14:04.622465,0
19:14:04.622465,80
19:14:05.159862,65
19:14:05.159862,-2816
19:14:05.159862,-1
19:14:05.159862,-115
19:14:05.159862,-15361
19:14:05.159862,-1
19:14:05.159862,398
19:14:05.159862,19712
19:14:05.159862,5
19:14:05.159862,2195
19:14:05.159862,-32256
19:14:05.159862,7
19:14:05.159862,815
19:14:05.159862,24576
19:14:05.159862,0
19:14:05.159862,-7
19:14:05.159862,-18945
19:14:05.159862,-1
19:14:05.159862,-195
19:14:05.159862,20735
19:14:05.159862,-1
19:14:05.159862,-143
19:14:05.159862,22015
19:14:05.159862,-1
19:14:05.159862,-174
19:14:05.159862,25599
19:14:05.159862,-1
19:14:05.159862,-134
19:14:05.159862,-28673
19:14:05.159862,-1
19:14:05.159862,-117
19:14:05.159862,31487
19:14:05.159862,-1
19:14:05.159862,-148
19:14:05.159862,25599
19:14:05.159862,-1
19:14:05.159862,-162
19:14:05.159862,23807
19:14:05.159862,-1
19:14:05.159862,-155
19:14:05.159862,26111
19:14:05.159862,-1
19:14:05.159862,-176
19:14:05.159862,20735
19:14:05.159862,-1
19:14:05.159862,-150
19:14:05.159862,32255
19:14:05.159862,-1
19:14:05.159862,-106
19:14:05.159862,-13569
19:14:05.159862,-1
19:14:05.159862,-9
19:14:05.159862,2047
19:14:05.159862,0
19:14:05.159862,21
19:14:05.159862,11264
19:14:05.159862,0
19:14:05.159862,56
19:14:05.159862,13056
19:14:05.159862,0
19:14:05.159862,54
19:14:05.159862,18688
19:14:05.159862,0
19:14:05.159862,82
19:14:05.159862,16640
19:14:05.159862,0
19:14:05.159862,56
19:14:05.159862,13824
19:14:05.159862,0
19:14:05.159862,44
19:14:05.159862,10240
19:14:05.159862,0
19:14:05.159862,40
19:14:05.159862,8192
19:14:05.159862,0
19:14:05.159862,21
19:14:05.159862,5888
19:14:05.159862,0
19:14:05.159862,32
19:14:05.159862,5888
19:14:05.159862,0
19:14:05.159862,11
19:14:05.159862,3584
19:14:05.159862,0
19:14:05.159862,2
19:14:05.159862,-512
19:14:05.159862,-1
19:14:05.159862,7
19:14:05.159862,5376
19:14:05.159862,0
19:14:05.159862,42
19:14:05.159862,12032
19:14:05.159862,0
19:14:05.159862,40
19:14:05.159862,10752
19:14:05.159862,0
19:14:05.159862,37
19:14:05.159862,7680
19:14:05.159862,0
19:14:05.159862,35
19:14:05.159862,8960
19:14:05.159862,0
19:14:05.159862,25
19:14:05.159862,2816
19:14:05.159862,0
19:14:05.159862,11
19:14:05.159862,1792
19:14:05.159862,0
19:14:05.159862,-47
