timestamp,ecg
15:39:14.814631,2
15:39:14.814631,14592
15:39:14.814631,0
15:39:14.814631,83
15:39:14.814631,15104
15:39:14.814631,0
15:39:14.814631,81
15:39:14.814631,28160
15:39:14.814631,0
15:39:14.814631,110
15:39:14.814631,30464
15:39:14.814631,0
15:39:14.814631,143
15:39:14.814631,-26368
15:39:14.814631,0
15:39:14.814631,167
15:39:14.814631,-16640
15:39:14.814631,0
15:39:14.814631,215
15:39:14.814631,-4352
15:39:14.814631,0
15:39:14.814631,266
15:39:14.814631,9728
15:39:14.814631,1
15:39:14.814631,318
15:39:14.814631,22016
15:39:14.814631,1
15:39:14.814631,357
15:39:14.814631,26368
15:39:14.814631,1
15:39:14.814631,349
15:39:14.814631,18944
15:39:14.814631,1
15:39:14.814631,289
15:39:14.814631,-9216
15:39:14.814631,0
15:39:14.814631,139
15:39:14.814631,17152
15:39:14.814631,0
15:39:14.814631,4
15:39:14.814631,-11520
15:39:14.814631,-1
15:39:14.814631,-76
15:39:14.814631,-23041
15:39:14.814631,-1
15:39:14.814631,-100
15:39:14.814631,-26113
15:39:14.814631,-1
15:39:14.814631,-98
15:39:14.814631,-23041
15:39:14.814631,-1
15:39:14.814631,-86
15:39:14.814631,-19969
15:39:14.814631,-1
15:39:14.814631,-71
15:39:14.814631,-16897
15:39:14.814631,-1
15:39:14.814631,-59
15:39:14.814631,-12545
15:39:14.814631,-1
15:39:14.814631,-40
15:39:14.814631,-8705
15:39:14.814631,-1
15:39:14.814631,-33
15:39:14.814631,-8193
15:39:14.814631,-1
15:39:14.814631,-31
15:39:14.814631,-6913
15:39:14.814631,-1
15:39:14.814631,-28
15:39:14.814631,-6401
15:39:14.814631,-1
15:39:14.814631,-26
15:39:14.814631,-6401
15:39:14.814631,-1
15:39:14.814631,-26
15:39:14.814631,-5633
15:39:14.814631,-1
15:39:14.814631,-23
15:39:14.814631,-5633
15:39:14.814631,-1
15:39:14.814631,-26
15:39:14.814631,-5633
15:39:14.814631,-1
15:39:14.814631,-21
15:39:14.814631,-3841
15:39:14.814631,-1
15:39:14.814631,-11
15:39:14.814631,-2049
15:39:14.814631,-1
15:39:14.814631,-11
15:39:14.814631,-1537
15:39:14.814631,-1
15:39:14.814631,2
15:39:14.814631,1024
15:39:14.814631,0
15:39:14.814631,7
15:39:14.814631,4096
15:39:14.814631,0
15:39:14.814631,33
15:39:14.814631,13312
15:39:14.814631,0
15:39:14.814631,59
15:39:14.814631,11520
15:39:14.814631,0
15:39:14.814631,28
15:39:14.814631,4096
15:39:14.814631,0
15:39:14.814631,7
15:39:15.353297,0
15:39:15.353297,-512
15:39:15.353297,-1
15:39:15.353297,0
15:39:15.353297,0
15:39:15.353297,0
15:39:15.353297,0
15:39:15.353297,512
15:39:15.353297,0
15:39:15.353297,21
15:39:15.353297,24320
15:39:15.353297,0
15:39:15.353297,270
15:39:15.353297,1280
15:39:15.353297,2
15:39:15.353297,733
15:39:15.353297,-16896
15:39:15.353297,2
15:39:15.353297,165
15:39:15.353297,-9984
15:39:15.353297,-3
15:39:15.353297,-618
15:39:15.353297,32255
15:39:15.353297,-1
15:39:15.353297,76
15:39:15.353297,3584
15:39:15.353297,0
15:39:15.353297,57
15:39:15.353297,25600
15:39:15.353297,0
15:39:15.353297,74
15:39:15.353297,22016
15:39:15.353297,0
15:39:15.353297,112
15:39:15.353297,28672
15:39:15.353297,0
15:39:15.353297,119
15:39:15.353297,-29440
15:39:15.353297,0
15:39:15.353297,160
15:39:15.353297,-20992
15:39:15.353297,0
15:39:15.353297,191
15:39:15.353297,-11776
15:39:15.353297,0
15:39:15.353297,234
15:39:15.353297,1792
15:39:15.353297,1
15:39:15.353297,292
15:39:15.353297,15360
15:39:15.353297,1
15:39:15.353297,333
15:39:15.353297,21504
15:39:15.353297,1
15:39:15.353297,345
15:39:15.353297,22784
15:39:15.353297,1
15:39:15.353297,330
15:39:15.353297,9728
15:39:15.353297,1
15:39:15.353297,237
15:39:15.353297,-23296
15:39:15.353297,0
15:39:15.353297,95
15:39:15.353297,7936
15:39:15.353297,0
15:39:15.353297,-19
15:39:15.353297,-13057
15:39:15.353297,-1
15:39:15.353297,-69
15:39:15.353297,-19969
15:39:15.353297,-1
15:39:15.353297,-81
15:39:15.353297,-19201
15:39:15.353297,-1
15:39:15.353297,-71
15:39:15.353297,-17921
15:39:15.353297,-1
15:39:15.353297,-64
15:39:15.353297,-14849
15:39:15.353297,-1
15:39:15.353297,-55
15:39:15.353297,-11777
15:39:15.353297,-1
15:39:15.353297,-35
15:39:15.353297,-7681
15:39:15.353297,-1
15:39:15.353297,-33
15:39:15.353297,-7681
15:39:15.353297,-1
15:39:15.353297,-26
15:39:15.353297,-5633
15:39:15.353297,-1
15:39:15.353297,-21
15:39:15.353297,-5121
15:39:15.353297,-1
15:39:15.353297,-21
15:39:15.353297,-4609
15:39:15.353297,-1
15:39:15.353297,-21
15:39:15.353297,-5121
15:39:15.353297,-1
15:39:15.353297,-21
15:39:15.353297,-5121
15:39:15.353297,-1
15:39:15.353297,-21
15:39:15.353297,-4609
15:39:15.353297,-1
15:39:15.353297,-16
15:39:15.938934,-14
15:39:15.938934,-3329
15:39:15.938934,-1
15:39:15.938934,-11
15:39:15.938934,-2561
15:39:15.938934,-1
15:39:15.938934,-9
15:39:15.938934,-1537
15:39:15.938934,-1
15:39:15.938934,-2
15:39:15.938934,1279
15:39:15.938934,0
15:39:15.938934,9
15:39:15.938934,2304
15:39:15.938934,0
15:39:15.938934,14
15:39:15.938934,8448
15:39:15.938934,0
15:39:15.938934,57
15:39:15.938934,18176
15:39:15.938934,0
15:39:15.938934,62
15:39:15.938934,10240
15:39:15.938934,0
15:39:15.938934,26
15:39:15.938934,4864
15:39:15.938934,0
15:39:15.938934,11
15:39:15.938934,2304
15:39:15.938934,0
15:39:15.938934,9
15:39:15.938934,2304
15:39:15.938934,0
15:39:15.938934,9
15:39:15.938934,2816
15:39:15.938934,0
15:39:15.938934,21
15:39:15.938934,18176
15:39:15.938934,0
15:39:15.938934,206
15:39:15.938934,-21504
15:39:15.938934,1
15:39:15.938934,668
15:39:15.938934,-5376
15:39:15.938934,2
15:39:15.938934,383
15:39:15.938934,-26880
15:39:15.938934,-2
15:39:15.938934,-675
15:39:15.938934,-4097
15:39:15.938934,-2
15:39:15.938934,55
15:39:15.938934,7936
15:39:15.938934,0
15:39:15.938934,35
15:39:15.938934,23808
15:39:15.938934,0
15:39:15.938934,74
15:39:15.938934,18176
15:39:15.938934,0
15:39:15.938934,105
15:39:15.938934,28672
15:39:15.938934,0
15:39:15.938934,117
15:39:15.938934,-31232
15:39:15.938934,0
15:39:15.938934,146
15:39:15.938934,-25856
15:39:15.938934,0
15:39:15.938934,177
15:39:15.938934,-14848
15:39:15.938934,0
15:39:15.938934,220
15:39:15.938934,-3584
15:39:15.938934,0
15:39:15.938934,266
15:39:15.938934,7424
15:39:15.938934,1
15:39:15.938934,301
15:39:15.938934,14592
15:39:15.938934,1
15:39:15.938934,321
15:39:15.938934,17152
15:39:15.938934,1
15:39:15.938934,313
15:39:15.938934,8448
15:39:15.938934,1
15:39:15.938934,246
15:39:15.938934,-18432
15:39:15.938934,0
15:39:15.938934,117
15:39:15.938934,13312
15:39:15.938934,0
15:39:15.938934,0
15:39:15.938934,-8960
15:39:15.938934,-1
15:39:15.938934,-59
15:39:15.938934,-18689
15:39:15.938934,-1
15:39:15.938934,-79
15:39:15.938934,-20481
15:39:15.938934,-1
15:39:15.938934,-79
15:39:15.938934,-18689
15:39:15.938934,-1
15:39:15.938934,-64
15:39:15.938934,-13825
15:39:15.938934,-1
15:39:15.938934,-47
15:39:16.478599,-40
15:39:16.478599,-8705
15:39:16.478599,-1
15:39:16.478599,-31
15:39:16.478599,-6401
15:39:16.478599,-1
15:39:16.478599,-23
15:39:16.478599,-5121
15:39:16.478599,-1
15:39:16.478599,-19
15:39:16.478599,-4609
15:39:16.478599,-1
15:39:16.478599,-14
15:39:16.478599,-2049
15:39:16.478599,-1
15:39:16.478599,-7
15:39:16.478599,-1537
15:39:16.478599,-1
15:39:16.478599,-9
15:39:16.478599,-3329
15:39:16.478599,-1
15:39:16.478599,-14
15:39:16.478599,-1537
15:39:16.478599,-1
15:39:16.478599,4
15:39:16.478599,1792
15:39:16.478599,0
15:39:16.478599,4
15:39:16.478599,-512
15:39:16.478599,-1
15:39:16.478599,-4
15:39:16.478599,767
15:39:16.478599,0
15:39:16.478599,7
15:39:16.478599,1024
15:39:16.478599,0
15:39:16.478599,9
15:39:16.478599,4864
15:39:16.478599,0
15:39:16.478599,19
15:39:16.478599,4864
15:39:16.478599,0
15:39:16.478599,28
15:39:16.478599,12032
15:39:16.478599,0
15:39:16.478599,69
15:39:16.478599,20736
15:39:16.478599,0
15:39:16.478599,67
15:39:16.478599,11520
15:39:16.478599,0
15:39:16.478599,35
15:39:16.478599,7168
15:39:16.478599,0
15:39:16.478599,11
15:39:16.478599,0
15:39:16.478599,0
15:39:16.478599,4
15:39:16.478599,3584
15:39:16.478599,0
15:39:16.478599,14
15:39:16.478599,2816
15:39:16.478599,0
15:39:16.478599,31
15:39:16.478599,24320
15:39:16.478599,0
15:39:16.478599,239
15:39:16.478599,-14080
15:39:16.478599,1
15:39:16.478599,678
15:39:16.478599,-13824
15:39:16.478599,2
15:39:16.478599,266
15:39:16.478599,6656
15:39:16.478599,-2
15:39:16.478599,-661
15:39:16.478599,15103
15:39:16.478599,-1
15:39:16.478599,59
15:39:16.478599,4096
15:39:16.478599,0
15:39:16.478599,57
15:39:16.478599,25088
15:39:16.478599,0
15:39:16.478599,64
15:39:16.478599,20736
15:39:16.478599,0
15:39:16.478599,122
15:39:16.478599,29952
15:39:16.478599,0
15:39:16.478599,110
15:39:16.478599,-32000
15:39:16.478599,0
15:39:16.478599,150
15:39:16.478599,-24064
15:39:16.478599,0
15:39:16.478599,179
15:39:16.478599,-14080
15:39:16.478599,0
15:39:16.478599,222
15:39:16.478599,-2560
15:39:16.478599,0
15:39:16.478599,268
15:39:16.478599,8448
15:39:16.478599,1
15:39:16.478599,309
15:39:16.478599,17152
15:39:16.478599,1
15:39:16.478599,328
15:39:16.974292,323
15:39:16.974292,14592
15:39:16.974292,1
15:39:16.974292,297
15:39:16.974292,-1280
15:39:16.974292,0
15:39:16.974292,186
15:39:16.974292,31744
15:39:16.974292,0
15:39:16.974292,57
15:39:16.974292,1024
15:39:16.974292,0
15:39:16.974292,-28
15:39:16.974292,-12545
15:39:16.974292,-1
15:39:16.974292,-62
15:39:16.974292,-17409
15:39:16.974292,-1
15:39:16.974292,-74
15:39:16.974292,-16897
15:39:16.974292,-1
15:39:16.974292,-52
15:39:16.974292,-11265
15:39:16.974292,-1
15:39:16.974292,-47
15:39:16.974292,-9985
15:39:16.974292,-1
15:39:16.974292,-26
15:39:16.974292,-6401
15:39:16.974292,-1
15:39:16.974292,-23
15:39:16.974292,-1537
15:39:16.974292,-1
15:39:16.974292,-7
15:39:16.974292,-4609
15:39:16.974292,-1
15:39:16.974292,-14
15:39:16.974292,-1537
15:39:16.974292,-1
15:39:16.974292,-9
15:39:16.974292,-2049
15:39:16.974292,-1
15:39:16.974292,-11
15:39:16.974292,-3329
15:39:16.974292,-1
15:39:16.974292,-7
15:39:16.974292,-257
15:39:16.974292,-1
15:39:16.974292,-9
15:39:16.974292,-3329
15:39:16.974292,-1
15:39:16.974292,-11
15:39:16.974292,-1537
15:39:16.974292,-1
15:39:16.974292,-7
15:39:16.974292,-1537
15:39:16.974292,-1
15:39:16.974292,-4
15:39:16.974292,-769
15:39:16.974292,-1
15:39:16.974292,-4
15:39:16.974292,255
15:39:16.974292,0
15:39:16.974292,7
15:39:16.974292,2816
15:39:16.974292,0
15:39:16.974292,11
15:39:16.974292,5888
15:39:16.974292,0
15:39:16.974292,50
15:39:16.974292,18176
15:39:16.974292,0
15:39:16.974292,62
15:39:16.974292,9728
15:39:16.974292,0
15:39:16.974292,26
15:39:16.974292,5376
15:39:16.974292,0
15:39:16.974292,11
15:39:16.974292,0
15:39:16.974292,0
15:39:16.974292,-4
15:39:16.974292,767
15:39:16.974292,0
15:39:16.974292,9
15:39:16.974292,2304
15:39:16.974292,0
15:39:16.974292,14
15:39:16.974292,16384
15:39:16.974292,0
15:39:16.974292,196
15:39:16.974292,-20736
15:39:16.974292,1
15:39:16.974292,687
15:39:16.974292,6912
15:39:16.974292,3
15:39:16.974292,448
15:39:16.974292,-22784
15:39:16.974292,-2
15:39:16.974292,-733
15:39:16.974292,-24321
15:39:16.974292,-2
15:39:16.974292,7
15:39:16.974292,3584
15:39:16.974292,0
15:39:16.974292,40
15:39:16.974292,25600
15:39:16.974292,0
15:39:16.974292,83
15:39:17.558928,79
15:39:17.558928,28160
15:39:17.558928,0
15:39:17.558928,117
15:39:17.558928,31232
15:39:17.558928,0
15:39:17.558928,146
15:39:17.558928,-23296
15:39:17.558928,0
15:39:17.558928,174
15:39:17.558928,-16640
15:39:17.558928,0
15:39:17.558928,213
15:39:17.558928,-6144
15:39:17.558928,0
15:39:17.558928,251
15:39:17.558928,4864
15:39:17.558928,1
15:39:17.558928,294
15:39:17.558928,14080
15:39:17.558928,1
15:39:17.558928,318
15:39:17.558928,16640
15:39:17.558928,1
15:39:17.558928,318
15:39:17.558928,12800
15:39:17.558928,1
15:39:17.558928,282
15:39:17.558928,-4352
15:39:17.558928,0
15:39:17.558928,179
15:39:17.558928,28672
15:39:17.558928,0
15:39:17.558928,52
15:39:17.558928,512
15:39:17.558928,0
15:39:17.558928,-35
15:39:17.558928,-15617
15:39:17.558928,-1
15:39:17.558928,-79
15:39:17.558928,-20993
15:39:17.558928,-1
15:39:17.558928,-79
15:39:17.558928,-19201
15:39:17.558928,-1
15:39:17.558928,-74
15:39:17.558928,-16897
15:39:17.558928,-1
15:39:17.558928,-59
15:39:17.558928,-13057
15:39:17.558928,-1
15:39:17.558928,-40
15:39:17.558928,-8193
15:39:17.558928,-1
15:39:17.558928,-31
15:39:17.558928,-6401
15:39:17.558928,-1
15:39:17.558928,-21
15:39:17.558928,-4609
15:39:17.558928,-1
15:39:17.558928,-19
15:39:17.558928,-5121
15:39:17.558928,-1
15:39:17.558928,-21
15:39:17.558928,-4609
15:39:17.558928,-1
15:39:17.558928,-19
15:39:17.558928,-4609
15:39:17.558928,-1
15:39:17.558928,-19
15:39:17.558928,-3841
15:39:17.558928,-1
15:39:17.558928,-21
15:39:17.558928,-5633
15:39:17.558928,-1
15:39:17.558928,-21
15:39:17.558928,-4609
15:39:17.558928,-1
15:39:17.558928,-16
15:39:17.558928,-3841
15:39:17.558928,-1
15:39:17.558928,-11
15:39:17.558928,-2049
15:39:17.558928,-1
15:39:17.558928,-4
15:39:17.558928,767
15:39:17.558928,0
15:39:17.558928,4
15:39:17.558928,1792
15:39:17.558928,0
15:39:17.558928,21
15:39:17.558928,10240
15:39:17.558928,0
15:39:17.558928,59
15:39:17.558928,17152
15:39:17.558928,0
15:39:17.558928,55
15:39:17.558928,8448
15:39:17.558928,0
15:39:17.558928,19
15:39:17.558928,2816
15:39:17.558928,0
15:39:17.558928,4
15:39:17.558928,512
15:39:17.558928,0
15:39:17.558928,4
15:39:17.558928,2304
15:39:17.558928,0
15:39:17.558928,11
15:39:18.143567,11
15:39:18.143567,8448
15:39:18.143567,0
15:39:18.143567,119
15:39:18.143567,11008
15:39:18.143567,1
15:39:18.143567,546
15:39:18.143567,-4096
15:39:18.143567,2
15:39:18.143567,668
15:39:18.143567,14592
15:39:18.143567,0
15:39:18.143567,-618
15:39:18.143567,-12801
15:39:18.143567,-3
15:39:18.143567,-81
15:39:18.143567,16127
15:39:18.143567,0
15:39:18.143567,16
15:39:18.143567,20224
15:39:18.143567,0
15:39:18.143567,103
15:39:18.143567,19456
15:39:18.143567,0
15:39:18.143567,95
15:39:18.143567,30464
15:39:18.143567,0
15:39:18.143567,119
15:39:18.143567,-32512
15:39:18.143567,0
15:39:18.143567,146
15:39:18.143567,-25856
15:39:18.143567,0
15:39:18.143567,172
15:39:18.143567,-16640
15:39:18.143567,0
15:39:18.143567,210
15:39:18.143567,-6144
15:39:18.143567,0
15:39:18.143567,256
15:39:18.143567,6144
15:39:18.143567,1
15:39:18.143567,294
15:39:18.143567,12800
15:39:18.143567,1
15:39:18.143567,316
15:39:18.143567,15872
15:39:18.143567,1
15:39:18.143567,311
15:39:18.143567,10496
15:39:18.143567,1
15:39:18.143567,266
15:39:18.143567,-12288
15:39:18.143567,0
15:39:18.143567,143
15:39:18.143567,20736
15:39:18.143567,0
15:39:18.143567,23
15:39:18.143567,-5888
15:39:18.143567,-1
15:39:18.143567,-55
15:39:18.143567,-16897
15:39:18.143567,-1
15:39:18.143567,-74
15:39:18.143567,-20481
15:39:18.143567,-1
15:39:18.143567,-81
15:39:18.143567,-18689
15:39:18.143567,-1
15:39:18.143567,-64
15:39:18.143567,-14849
15:39:18.143567,-1
15:39:18.143567,-55
15:39:18.143567,-11265
15:39:18.143567,-1
15:39:18.143567,-35
15:39:18.143567,-8193
15:39:18.143567,-1
15:39:18.143567,-31
15:39:18.143567,-5633
15:39:18.143567,-1
15:39:18.143567,-14
15:39:18.143567,-2561
15:39:18.143567,-1
15:39:18.143567,-16
15:39:18.143567,-3329
15:39:18.143567,-1
15:39:18.143567,-11
15:39:18.143567,-3841
15:39:18.143567,-1
15:39:18.143567,-19
15:39:18.143567,-3841
15:39:18.143567,-1
15:39:18.143567,-11
15:39:18.143567,-2561
15:39:18.143567,-1
15:39:18.143567,-11
15:39:18.143567,-3841
15:39:18.143567,-1
15:39:18.143567,-16
15:39:18.143567,-2561
15:39:18.143567,-1
15:39:18.143567,-4
15:39:18.143567,-257
15:39:18.143567,-1
15:39:18.143567,-2
15:39:18.143567,1279
15:39:18.143567,0
15:39:18.143567,9
15:39:18.684229,11
15:39:18.684229,5888
15:39:18.684229,0
15:39:18.684229,38
15:39:18.684229,12800
15:39:18.684229,0
15:39:18.684229,59
15:39:18.684229,17152
15:39:18.684229,0
15:39:18.684229,52
15:39:18.684229,7168
15:39:18.684229,0
15:39:18.684229,19
15:39:18.684229,2304
15:39:18.684229,0
15:39:18.684229,4
15:39:18.684229,3584
15:39:18.684229,0
15:39:18.684229,21
15:39:18.684229,4864
15:39:18.684229,0
15:39:18.684229,21
15:39:18.684229,6656
15:39:18.684229,0
15:39:18.684229,52
15:39:18.684229,-25088
15:39:18.684229,0
15:39:18.684229,359
15:39:18.684229,22784
15:39:18.684229,2
15:39:18.684229,766
15:39:18.684229,13056
15:39:18.684229,2
15:39:18.684229,-165
15:39:18.684229,19711
15:39:18.684229,-3
15:39:18.684229,-421
15:39:18.684229,1279
15:39:18.684229,0
15:39:18.684229,45
15:39:18.684229,7936
15:39:18.684229,0
15:39:18.684229,100
15:39:18.684229,23808
15:39:18.684229,0
15:39:18.684229,76
15:39:18.684229,26880
15:39:18.684229,0
15:39:18.684229,119
15:39:18.684229,31232
15:39:18.684229,0
15:39:18.684229,139
15:39:18.684229,-25088
15:39:18.684229,0
15:39:18.684229,170
15:39:18.684229,-18432
15:39:18.684229,0
15:39:18.684229,203
15:39:18.684229,-7424
15:39:18.684229,0
15:39:18.684229,251
15:39:18.684229,6144
15:39:18.684229,1
15:39:18.684229,304
15:39:18.684229,17152
15:39:18.684229,1
15:39:18.684229,337
15:39:18.684229,24576
15:39:18.684229,1
15:39:18.684229,352
15:39:18.684229,22784
15:39:18.684229,1
15:39:18.684229,333
15:39:18.684229,9216
15:39:18.684229,1
15:39:18.684229,225
15:39:18.684229,-26368
15:39:18.684229,0
15:39:18.684229,79
15:39:18.684229,2304
15:39:18.684229,0
15:39:18.684229,-35
15:39:18.684229,-14337
15:39:18.684229,-1
15:39:18.684229,-67
15:39:18.684229,-17921
15:39:18.684229,-1
15:39:18.684229,-79
15:39:18.684229,-19969
15:39:18.684229,-1
15:39:18.684229,-67
15:39:18.684229,-14849
15:39:18.684229,-1
15:39:18.684229,-57
15:39:18.684229,-13825
15:39:18.684229,-1
15:39:18.684229,-38
15:39:18.684229,-8193
15:39:18.684229,-1
15:39:18.684229,-35
15:39:18.684229,-6401
15:39:18.684229,-1
15:39:18.684229,-11
15:39:18.684229,-2561
15:39:18.684229,-1
15:39:18.684229,-19
15:39:18.684229,-4609
15:39:18.684229,-1
15:39:18.684229,-14
15:39:19.268869,-14
15:39:19.268869,-3329
15:39:19.268869,-1
15:39:19.268869,-9
15:39:19.268869,-2561
15:39:19.268869,-1
15:39:19.268869,-14
15:39:19.268869,-2561
15:39:19.268869,-1
15:39:19.268869,-7
15:39:19.268869,255
15:39:19.268869,0
15:39:19.268869,9
15:39:19.268869,2816
15:39:19.268869,0
15:39:19.268869,7
15:39:19.268869,2304
15:39:19.268869,0
15:39:19.268869,28
15:39:19.268869,12032
15:39:19.268869,0
15:39:19.268869,59
15:39:19.268869,15104
15:39:19.268869,0
15:39:19.268869,40
15:39:19.268869,2304
15:39:19.268869,0
15:39:19.268869,-4
15:39:19.268869,255
15:39:19.268869,0
15:39:19.268869,0
15:39:19.268869,-512
15:39:19.268869,-1
15:39:19.268869,2
15:39:19.268869,1024
15:39:19.268869,0
15:39:19.268869,4
15:39:19.268869,8960
15:39:19.268869,0
15:39:19.268869,143
15:39:19.268869,24576
15:39:19.268869,1
15:39:19.268869,613
15:39:19.268869,6400
15:39:19.268869,3
15:39:19.268869,649
15:39:19.268869,-4096
15:39:19.268869,-1
15:39:19.268869,-697
15:39:19.268869,-20737
15:39:19.268869,-3
15:39:19.268869,-98
15:39:19.268869,7423
15:39:19.268869,0
15:39:19.268869,-7
15:39:19.268869,17407
15:39:19.268869,0
15:39:19.268869,83
15:39:19.268869,14592
15:39:19.268869,0
15:39:19.268869,86
15:39:19.268869,27392
15:39:19.268869,0
15:39:19.268869,103
15:39:19.268869,29952
15:39:19.268869,0
15:39:19.268869,136
15:39:19.268869,-27648
15:39:19.268869,0
15:39:19.268869,165
15:39:19.268869,-18432
15:39:19.268869,0
15:39:19.268869,208
15:39:19.268869,-4864
15:39:19.268869,0
15:39:19.268869,263
15:39:19.268869,8448
15:39:19.268869,1
15:39:19.268869,309
15:39:19.268869,16640
15:39:19.268869,1
15:39:19.268869,325
15:39:19.268869,18432
15:39:19.268869,1
15:39:19.268869,318
15:39:19.268869,8448
15:39:19.268869,1
15:39:19.268869,244
15:39:19.268869,-18944
15:39:19.268869,0
15:39:19.268869,110
15:39:19.268869,10240
15:39:19.268869,0
15:39:19.268869,-14
15:39:19.268869,-14337
15:39:19.268869,-1
15:39:19.268869,-83
15:39:19.268869,-24833
15:39:19.268869,-1
15:39:19.268869,-103
15:39:19.268869,-26113
15:39:19.268869,-1
15:39:19.268869,-103
15:39:19.268869,-24833
15:39:19.268869,-1
15:39:19.268869,-91
15:39:19.268869,-20993
15:39:19.268869,-1
15:39:19.268869,-71
15:39:19.853507,-64
15:39:19.853507,-14849
15:39:19.853507,-1
15:39:19.853507,-55
15:39:19.853507,-11777
15:39:19.853507,-1
15:39:19.853507,-43
15:39:19.853507,-9985
15:39:19.853507,-1
15:39:19.853507,-35
15:39:19.853507,-8705
15:39:19.853507,-1
15:39:19.853507,-35
15:39:19.853507,-8193
15:39:19.853507,-1
15:39:19.853507,-28
15:39:19.853507,-5121
15:39:19.853507,-1
15:39:19.853507,-23
15:39:19.853507,-6913
15:39:19.853507,-1
15:39:19.853507,-28
15:39:19.853507,-6401
15:39:19.853507,-1
15:39:19.853507,-26
15:39:19.853507,-6401
15:39:19.853507,-1
15:39:19.853507,-21
15:39:19.853507,-5121
15:39:19.853507,-1
15:39:19.853507,-21
15:39:19.853507,-4609
15:39:19.853507,-1
15:39:19.853507,-14
15:39:19.853507,-2561
15:39:19.853507,-1
15:39:19.853507,-4
15:39:19.853507,1279
15:39:19.853507,0
15:39:19.853507,21
15:39:19.853507,10240
15:39:19.853507,0
15:39:19.853507,45
15:39:19.853507,7168
15:39:19.853507,0
15:39:19.853507,11
15:39:19.853507,512
15:39:19.853507,0
15:39:19.853507,-4
15:39:19.853507,-2561
15:39:19.853507,-1
15:39:19.853507,-14
15:39:19.853507,-2561
15:39:19.853507,-1
15:39:19.853507,-9
15:39:19.853507,-1537
15:39:19.853507,-1
15:39:19.853507,-4
15:39:19.853507,6143
15:39:19.853507,0
15:39:19.853507,127
15:39:19.853507,18944
15:39:19.853507,1
15:39:19.853507,589
15:39:19.853507,-1024
15:39:19.853507,2
15:39:19.853507,584
15:39:19.853507,-27392
15:39:19.853507,-1
15:39:19.853507,-702
15:39:19.853507,255
15:39:19.853507,-2
15:39:19.853507,-43
15:39:19.853507,10495
15:39:19.853507,0
15:39:19.853507,-7
15:39:19.853507,15359
15:39:19.853507,0
15:39:19.853507,76
15:39:19.853507,12032
15:39:19.853507,0
15:39:19.853507,71
15:39:19.853507,23808
15:39:19.853507,0
15:39:19.853507,93
15:39:19.853507,27392
15:39:19.853507,0
15:39:19.853507,127
15:39:19.853507,-29952
15:39:19.853507,0
15:39:19.853507,155
15:39:19.853507,-20224
15:39:19.853507,0
15:39:19.853507,196
15:39:19.853507,-8704
15:39:19.853507,0
15:39:19.853507,254
15:39:19.853507,4352
15:39:19.853507,1
15:39:19.853507,292
15:39:19.853507,14080
15:39:19.853507,1
15:39:19.853507,318
15:39:19.853507,15872
15:39:19.853507,1
15:39:19.853507,313
15:39:19.853507,9216
15:39:19.853507,1
15:39:19.853507,251
15:39:20.349199,186
15:39:20.349199,29952
15:39:20.349199,0
15:39:20.349199,47
15:39:20.349199,-2816
15:39:20.349199,-1
15:39:20.349199,-52
15:39:20.349199,-19201
15:39:20.349199,-1
15:39:20.349199,-93
15:39:20.349199,-25345
15:39:20.349199,-1
15:39:20.349199,-98
15:39:20.349199,-25345
15:39:20.349199,-1
15:39:20.349199,-98
15:39:20.349199,-22273
15:39:20.349199,-1
15:39:20.349199,-79
15:39:20.349199,-16897
15:39:20.349199,-1
15:39:20.349199,-55
15:39:20.349199,-12545
15:39:20.349199,-1
15:39:20.349199,-43
15:39:20.349199,-9473
15:39:20.349199,-1
15:39:20.349199,-35
15:39:20.349199,-7681
15:39:20.349199,-1
15:39:20.349199,-31
15:39:20.349199,-7681
15:39:20.349199,-1
15:39:20.349199,-31
15:39:20.349199,-6913
15:39:20.349199,-1
15:39:20.349199,-23
15:39:20.349199,-4609
15:39:20.349199,-1
15:39:20.349199,-19
15:39:20.349199,-5633
15:39:20.349199,-1
15:39:20.349199,-23
15:39:20.349199,-5121
15:39:20.349199,-1
15:39:20.349199,-21
15:39:20.349199,-4609
15:39:20.349199,-1
15:39:20.349199,-14
15:39:20.349199,-769
15:39:20.349199,-1
15:39:20.349199,2
15:39:20.349199,2816
15:39:20.349199,0
15:39:20.349199,28
15:39:20.349199,11520
15:39:20.349199,0
15:39:20.349199,47
15:39:20.349199,6656
15:39:20.349199,0
15:39:20.349199,-7
15:39:20.349199,-5633
15:39:20.349199,-1
15:39:20.349199,-23
15:39:20.349199,-5121
15:39:20.349199,-1
15:39:20.349199,-23
15:39:20.349199,-5121
15:39:20.349199,-1
15:39:20.349199,-19
15:39:20.349199,-3841
15:39:20.349199,-1
15:39:20.349199,2
15:39:20.349199,19456
15:39:20.349199,0
15:39:20.349199,234
15:39:20.349199,-10240
15:39:20.349199,1
15:39:20.349199,699
15:39:20.349199,-21760
15:39:20.349199,2
15:39:20.349199,143
15:39:20.349199,-16640
15:39:20.349199,-3
15:39:20.349199,-635
15:39:20.349199,27391
15:39:20.349199,-1
15:39:20.349199,43
15:39:20.349199,-4864
15:39:20.349199,-1
15:39:20.349199,31
15:39:20.349199,17664
15:39:20.349199,0
15:39:20.349199,38
15:39:20.349199,12800
15:39:20.349199,0
15:39:20.349199,83
15:39:20.349199,22528
15:39:20.349199,0
15:39:20.349199,91
15:39:20.349199,26368
15:39:20.349199,0
15:39:20.349199,122
15:39:20.349199,-28928
15:39:20.349199,0
15:39:20.349199,165
15:39:20.349199,-19712
15:39:20.349199,0
15:39:20.349199,201
15:39:20.933837,230
15:39:20.933837,-2560
15:39:20.933837,0
15:39:20.933837,268
15:39:20.933837,9728
15:39:20.933837,1
15:39:20.933837,306
15:39:20.933837,14080
15:39:20.933837,1
15:39:20.933837,316
15:39:20.933837,11520
15:39:20.933837,1
15:39:20.933837,266
15:39:20.933837,-11776
15:39:20.933837,0
15:39:20.933837,143
15:39:20.933837,20224
15:39:20.933837,0
15:39:20.933837,21
15:39:20.933837,-7936
15:39:20.933837,-1
15:39:20.933837,-67
15:39:20.933837,-20993
15:39:20.933837,-1
15:39:20.933837,-86
15:39:20.933837,-19969
15:39:20.933837,-1
15:39:20.933837,-76
15:39:20.933837,-19201
15:39:20.933837,-1
15:39:20.933837,-69
15:39:20.933837,-14849
15:39:20.933837,-1
15:39:20.933837,-55
15:39:20.933837,-11265
15:39:20.933837,-1
15:39:20.933837,-35
15:39:20.933837,-8705
15:39:20.933837,-1
15:39:20.933837,-35
15:39:20.933837,-5633
15:39:20.933837,-1
15:39:20.933837,-19
15:39:20.933837,-5121
15:39:20.933837,-1
15:39:20.933837,-21
15:39:20.933837,-4609
15:39:20.933837,-1
15:39:20.933837,-16
15:39:20.933837,-3329
15:39:20.933837,-1
15:39:20.933837,-9
15:39:20.933837,-769
15:39:20.933837,-1
15:39:20.933837,-14
15:39:20.933837,-5633
15:39:20.933837,-1
15:39:20.933837,-14
15:39:20.933837,-2049
15:39:20.933837,-1
15:39:20.933837,-16
15:39:20.933837,-3329
15:39:20.933837,-1
15:39:20.933837,-7
15:39:20.933837,-257
15:39:20.933837,-1
15:39:20.933837,2
15:39:20.933837,1792
15:39:20.933837,0
15:39:20.933837,9
15:39:20.933837,5888
15:39:20.933837,0
15:39:20.933837,50
15:39:20.933837,15872
15:39:20.933837,0
15:39:20.933837,45
15:39:20.933837,6656
15:39:20.933837,0
15:39:20.933837,14
15:39:20.933837,2304
15:39:20.933837,0
15:39:20.933837,0
15:39:20.933837,-1792
15:39:20.933837,-1
15:39:20.933837,-2
15:39:20.933837,255
15:39:20.933837,0
15:39:20.933837,2
15:39:20.933837,2304
15:39:20.933837,0
15:39:20.933837,26
15:39:20.933837,23808
15:39:20.933837,0
15:39:20.933837,270
15:39:20.933837,5632
15:39:20.933837,2
15:39:20.933837,759
15:39:20.933837,-5888
15:39:20.933837,2
15:39:20.933837,208
15:39:20.933837,-17920
15:39:20.933837,-3
15:39:20.933837,-707
15:39:20.933837,12543
15:39:20.933837,-1
15:39:20.933837,28
15:39:20.933837,-1792
15:39:20.933837,-1
15:39:20.933837,45
15:39:21.518474,83
15:39:21.518474,15872
15:39:21.518474,0
15:39:21.518474,79
15:39:21.518474,25600
15:39:21.518474,0
15:39:21.518474,103
15:39:21.518474,28672
15:39:21.518474,0
15:39:21.518474,124
15:39:21.518474,-29952
15:39:21.518474,0
15:39:21.518474,162
15:39:21.518474,-17920
15:39:21.518474,0
15:39:21.518474,210
15:39:21.518474,-5632
15:39:21.518474,0
15:39:21.518474,251
15:39:21.518474,3584
15:39:21.518474,1
15:39:21.518474,299
15:39:21.518474,16640
15:39:21.518474,1
15:39:21.518474,333
15:39:21.518474,23296
15:39:21.518474,1
15:39:21.518474,340
15:39:21.518474,13568
15:39:21.518474,1
15:39:21.518474,278
15:39:21.518474,-6656
15:39:21.518474,0
15:39:21.518474,153
15:39:21.518474,19456
15:39:21.518474,0
15:39:21.518474,21
15:39:21.518474,-5888
15:39:21.518474,-1
15:39:21.518474,-62
15:39:21.518474,-22273
15:39:21.518474,-1
15:39:21.518474,-95
15:39:21.518474,-23553
15:39:21.518474,-1
15:39:21.518474,-91
15:39:21.518474,-23553
15:39:21.518474,-1
15:39:21.518474,-83
15:39:21.518474,-17921
15:39:21.518474,-1
15:39:21.518474,-64
15:39:21.518474,-14849
15:39:21.518474,-1
15:39:21.518474,-50
15:39:21.518474,-9473
15:39:21.518474,-1
15:39:21.518474,-28
15:39:21.518474,-5633
15:39:21.518474,-1
15:39:21.518474,-26
15:39:21.518474,-5633
15:39:21.518474,-1
15:39:21.518474,-19
15:39:21.518474,-4609
15:39:21.518474,-1
15:39:21.518474,-21
15:39:21.518474,-5121
15:39:21.518474,-1
15:39:21.518474,-19
15:39:21.518474,-5121
15:39:21.518474,-1
15:39:21.518474,-19
15:39:21.518474,-3329
15:39:21.518474,-1
15:39:21.518474,-9
15:39:21.518474,-1537
15:39:21.518474,-1
15:39:21.518474,-7
15:39:21.518474,-257
15:39:21.518474,-1
15:39:21.518474,14
15:39:21.518474,8960
15:39:21.518474,0
15:39:21.518474,50
15:39:21.518474,12800
15:39:21.518474,0
15:39:21.518474,23
15:39:21.518474,-2816
15:39:21.518474,-1
15:39:21.518474,-28
15:39:21.518474,-5121
15:39:21.518474,-1
15:39:21.518474,-19
15:39:21.518474,-5633
15:39:21.518474,-1
15:39:21.518474,-19
15:39:21.518474,-3329
15:39:21.518474,-1
15:39:21.518474,-11
15:39:21.518474,4351
15:39:21.518474,0
15:39:21.518474,110
15:39:21.518474,12800
15:39:21.518474,1
15:39:21.518474,568
15:39:21.518474,-3584
15:39:21.518474,2
15:39:21.518474,615
15:39:22.059140,-40
15:39:22.059140,15359
15:39:22.059140,-3
15:39:22.059140,-606
15:39:22.059140,-24065
15:39:22.059140,-1
15:39:22.059140,40
15:39:22.059140,-2304
15:39:22.059140,-1
15:39:22.059140,57
15:39:22.059140,20736
15:39:22.059140,0
15:39:22.059140,52
15:39:22.059140,18944
15:39:22.059140,0
15:39:22.059140,98
15:39:22.059140,25600
15:39:22.059140,0
15:39:22.059140,117
15:39:22.059140,-29952
15:39:22.059140,0
15:39:22.059140,150
15:39:22.059140,-22784
15:39:22.059140,0
15:39:22.059140,189
15:39:22.059140,-11776
15:39:22.059140,0
15:39:22.059140,234
15:39:22.059140,1792
15:39:22.059140,1
15:39:22.059140,292
15:39:22.059140,14080
15:39:22.059140,1
15:39:22.059140,318
15:39:22.059140,17152
15:39:22.059140,1
15:39:22.059140,321
15:39:22.059140,13568
15:39:22.059140,1
15:39:22.059140,282
15:39:22.059140,-7424
15:39:22.059140,0
15:39:22.059140,153
15:39:22.059140,19456
15:39:22.059140,0
15:39:22.059140,11
15:39:22.059140,-9728
15:39:22.059140,-1
15:39:22.059140,-79
15:39:22.059140,-26113
15:39:22.059140,-1
15:39:22.059140,-115
15:39:22.059140,-29697
15:39:22.059140,-1
15:39:22.059140,-115
15:39:22.059140,-27905
15:39:22.059140,-1
15:39:22.059140,-105
15:39:22.059140,-24833
15:39:22.059140,-1
15:39:22.059140,-91
15:39:22.059140,-20993
15:39:22.059140,-1
15:39:22.059140,-76
15:39:22.059140,-16897
15:39:22.059140,-1
15:39:22.059140,-57
15:39:22.059140,-13057
15:39:22.059140,-1
15:39:22.059140,-50
15:39:22.059140,-11265
15:39:22.059140,-1
15:39:22.059140,-40
15:39:22.059140,-10753
15:39:22.059140,-1
15:39:22.059140,-40
15:39:22.059140,-8705
15:39:22.059140,-1
15:39:22.059140,-35
15:39:22.059140,-8705
15:39:22.059140,-1
15:39:22.059140,-35
15:39:22.059140,-8705
15:39:22.059140,-1
15:39:22.059140,-33
15:39:22.059140,-8705
15:39:22.059140,-1
15:39:22.059140,-38
15:39:22.059140,-8705
15:39:22.059140,-1
15:39:22.059140,-28
15:39:22.059140,-5633
15:39:22.059140,-1
15:39:22.059140,-21
15:39:22.059140,-3841
15:39:22.059140,-1
15:39:22.059140,-7
15:39:22.059140,767
15:39:22.059140,0
15:39:22.059140,19
15:39:22.059140,10240
15:39:22.059140,0
15:39:22.059140,43
15:39:22.059140,5888
15:39:22.059140,0
15:39:22.059140,7
15:39:22.059140,0
15:39:22.059140,0
15:39:22.059140,-11
15:39:22.598805,-21
15:39:22.598805,-5121
15:39:22.598805,-1
15:39:22.598805,-19
15:39:22.598805,-3329
15:39:22.598805,-1
15:39:22.598805,-11
15:39:22.598805,-1537
15:39:22.598805,-1
15:39:22.598805,28
15:39:22.598805,-28160
15:39:22.598805,0
15:39:22.598805,361
15:39:22.598805,26368
15:39:22.598805,2
15:39:22.598805,757
15:39:22.598805,-5376
15:39:22.598805,1
15:39:22.598805,-254
15:39:22.598805,8703
15:39:22.598805,-3
15:39:22.598805,-417
15:39:22.598805,2047
15:39:22.598805,0
15:39:22.598805,26
15:39:22.598805,0
15:39:22.598805,0
15:39:22.598805,67
15:39:22.598805,17152
15:39:22.598805,0
15:39:22.598805,50
15:39:22.598805,19456
15:39:22.598805,0
15:39:22.598805,91
15:39:22.598805,23296
15:39:22.598805,0
15:39:22.598805,105
15:39:22.598805,31744
15:39:22.598805,0
15:39:22.598805,136
15:39:22.598805,-26368
15:39:22.598805,0
15:39:22.598805,177
15:39:22.598805,-14848
15:39:22.598805,0
15:39:22.598805,222
15:39:22.598805,-1280
15:39:22.598805,0
15:39:22.598805,275
15:39:22.598805,9728
15:39:22.598805,1
15:39:22.598805,309
15:39:22.598805,14592
15:39:22.598805,1
15:39:22.598805,311
15:39:22.598805,12800
15:39:22.598805,1
15:39:22.598805,282
15:39:22.598805,-6656
15:39:22.598805,0
15:39:22.598805,158
15:39:22.598805,22016
15:39:22.598805,0
15:39:22.598805,19
15:39:22.598805,-8448
15:39:22.598805,-1
15:39:22.598805,-67
15:39:22.598805,-22273
15:39:22.598805,-1
15:39:22.598805,-100
15:39:22.598805,-27137
15:39:22.598805,-1
15:39:22.598805,-107
15:39:22.598805,-26113
15:39:22.598805,-1
15:39:22.598805,-95
15:39:22.598805,-21761
15:39:22.598805,-1
15:39:22.598805,-81
15:39:22.598805,-19201
15:39:22.598805,-1
15:39:22.598805,-67
15:39:22.598805,-14337
15:39:22.598805,-1
15:39:22.598805,-50
15:39:22.598805,-10753
15:39:22.598805,-1
15:39:22.598805,-40
15:39:22.598805,-9473
15:39:22.598805,-1
15:39:22.598805,-28
15:39:22.598805,-5633
15:39:22.598805,-1
15:39:22.598805,-21
15:39:22.598805,-4609
15:39:22.598805,-1
15:39:22.598805,-19
15:39:22.598805,-6913
15:39:22.598805,-1
15:39:22.598805,-33
15:39:22.598805,-5633
15:39:22.598805,-1
15:39:22.598805,-14
15:39:22.598805,-4609
15:39:22.598805,-1
15:39:22.598805,-26
15:39:22.598805,-5121
15:39:22.598805,-1
15:39:22.598805,-14
15:39:23.183442,-7
15:39:23.183442,255
15:39:23.183442,0
15:39:23.183442,9
15:39:23.183442,7168
15:39:23.183442,0
15:39:23.183442,52
15:39:23.183442,12032
15:39:23.183442,0
15:39:23.183442,21
15:39:23.183442,1792
15:39:23.183442,0
15:39:23.183442,2
15:39:23.183442,-512
15:39:23.183442,-1
15:39:23.183442,-9
15:39:23.183442,-3329
15:39:23.183442,-1
15:39:23.183442,-11
15:39:23.183442,255
15:39:23.183442,0
15:39:23.183442,2
15:39:23.183442,512
15:39:23.183442,0
15:39:23.183442,35
15:39:23.183442,-28928
15:39:23.183442,0
15:39:23.183442,347
15:39:23.183442,21504
15:39:23.183442,2
15:39:23.183442,764
15:39:23.183442,11776
15:39:23.183442,2
15:39:23.183442,-177
15:39:23.183442,9983
15:39:23.183442,-3
15:39:23.183442,-464
15:39:23.183442,-3841
15:39:23.183442,-1
15:39:23.183442,23
15:39:23.183442,1024
15:39:23.183442,0
15:39:23.183442,83
15:39:23.183442,21248
15:39:23.183442,0
15:39:23.183442,62
15:39:23.183442,23296
15:39:23.183442,0
15:39:23.183442,110
15:39:23.183442,28160
15:39:23.183442,0
15:39:23.183442,117
15:39:23.183442,-32512
15:39:23.183442,0
15:39:23.183442,150
15:39:23.183442,-20224
15:39:23.183442,0
15:39:23.183442,196
15:39:23.183442,-12288
15:39:23.183442,0
15:39:23.183442,234
15:39:23.183442,2560
15:39:23.183442,1
15:39:23.183442,289
15:39:23.183442,14080
15:39:23.183442,1
15:39:23.183442,325
15:39:23.183442,18944
15:39:23.183442,1
15:39:23.183442,330
15:39:23.183442,17664
15:39:23.183442,1
15:39:23.183442,299
15:39:23.183442,-1792
15:39:23.183442,0
15:39:23.183442,179
15:39:23.183442,27392
15:39:23.183442,0
15:39:23.183442,40
15:39:23.183442,-3584
15:39:23.183442,-1
15:39:23.183442,-52
15:39:23.183442,-17921
15:39:23.183442,-1
15:39:23.183442,-86
15:39:23.183442,-24065
15:39:23.183442,-1
15:39:23.183442,-95
15:39:23.183442,-22273
15:39:23.183442,-1
15:39:23.183442,-79
15:39:23.183442,-17921
15:39:23.183442,-1
15:39:23.183442,-67
15:39:23.183442,-14849
15:39:23.183442,-1
15:39:23.183442,-50
15:39:23.183442,-12545
15:39:23.183442,-1
15:39:23.183442,-50
15:39:23.183442,-9473
15:39:23.183442,-1
15:39:23.183442,-26
15:39:23.183442,-5633
15:39:23.183442,-1
15:39:23.183442,-21
15:39:23.183442,-5121
15:39:23.183442,-1
15:39:23.183442,-26
15:39:23.724105,-16
15:39:23.724105,-2049
15:39:23.724105,-1
15:39:23.724105,-16
15:39:23.724105,-4609
15:39:23.724105,-1
15:39:23.724105,-14
15:39:23.724105,-2561
15:39:23.724105,-1
15:39:23.724105,-9
15:39:23.724105,255
15:39:23.724105,0
15:39:23.724105,7
15:39:23.724105,2816
15:39:23.724105,0
15:39:23.724105,16
15:39:23.724105,5888
15:39:23.724105,0
15:39:23.724105,43
15:39:23.724105,16384
15:39:23.724105,0
15:39:23.724105,74
15:39:23.724105,17664
15:39:23.724105,0
15:39:23.724105,47
15:39:23.724105,4864
15:39:23.724105,0
15:39:23.724105,9
15:39:23.724105,2304
15:39:23.724105,0
15:39:23.724105,4
15:39:23.724105,0
15:39:23.724105,0
15:39:23.724105,7
15:39:23.724105,2304
15:39:23.724105,0
15:39:23.724105,4
15:39:23.724105,2304
15:39:23.724105,0
15:39:23.724105,50
15:39:23.724105,-19712
15:39:23.724105,0
15:39:23.724105,417
15:39:23.724105,-23040
15:39:23.724105,2
15:39:23.724105,810
15:39:23.724105,5632
15:39:23.724105,2
15:39:23.724105,-239
15:39:23.724105,3071
15:39:23.724105,-3
15:39:23.724105,-445
15:39:23.724105,-2049
15:39:23.724105,-1
15:39:23.724105,21
15:39:23.724105,2816
15:39:23.724105,0
15:39:23.724105,86
15:39:23.724105,20736
15:39:23.724105,0
15:39:23.724105,64
15:39:23.724105,23808
15:39:23.724105,0
15:39:23.724105,110
15:39:23.724105,29440
15:39:23.724105,0
15:39:23.724105,136
15:39:23.724105,-25856
15:39:23.724105,0
15:39:23.724105,167
15:39:23.724105,-17152
15:39:23.724105,0
15:39:23.724105,210
15:39:23.724105,-7424
15:39:23.724105,0
15:39:23.724105,249
15:39:23.724105,5632
15:39:23.724105,1
15:39:23.724105,304
15:39:23.724105,17152
15:39:23.724105,1
15:39:23.724105,330
15:39:23.724105,20736
15:39:23.724105,1
15:39:23.724105,337
15:39:23.724105,18432
15:39:23.724105,1
15:39:23.724105,301
15:39:23.724105,-2560
15:39:23.724105,0
15:39:23.724105,172
15:39:23.724105,25088
15:39:23.724105,0
15:39:23.724105,31
15:39:23.724105,-5376
15:39:23.724105,-1
15:39:23.724105,-57
15:39:23.724105,-19969
15:39:23.724105,-1
15:39:23.724105,-95
15:39:23.724105,-25345
15:39:23.724105,-1
15:39:23.724105,-93
15:39:23.724105,-21761
15:39:23.724105,-1
15:39:23.724105,-83
15:39:23.724105,-20481
15:39:23.724105,-1
15:39:23.724105,-71
15:39:24.263770,-62
15:39:24.263770,-13057
15:39:24.263770,-1
15:39:24.263770,-43
15:39:24.263770,-8705
15:39:24.263770,-1
15:39:24.263770,-33
15:39:24.263770,-6401
15:39:24.263770,-1
15:39:24.263770,-14
15:39:24.263770,-2561
15:39:24.263770,-1
15:39:24.263770,-16
15:39:24.263770,-2561
15:39:24.263770,-1
15:39:24.263770,-7
15:39:24.263770,-769
15:39:24.263770,-1
15:39:24.263770,-4
15:39:24.263770,-1537
15:39:24.263770,-1
15:39:24.263770,-14
15:39:24.263770,-3329
15:39:24.263770,-1
15:39:24.263770,-9
15:39:24.263770,-1537
15:39:24.263770,-1
15:39:24.263770,-7
15:39:24.263770,255
15:39:24.263770,0
15:39:24.263770,2
15:39:24.263770,1792
15:39:24.263770,0
15:39:24.263770,14
15:39:24.263770,5376
15:39:24.263770,0
15:39:24.263770,43
15:39:24.263770,15872
15:39:24.263770,0
15:39:24.263770,52
15:39:24.263770,7168
15:39:24.263770,0
15:39:24.263770,16
15:39:24.263770,2304
15:39:24.263770,0
15:39:24.263770,-2
15:39:24.263770,-1537
15:39:24.263770,-1
15:39:24.263770,-7
15:39:24.263770,-769
15:39:24.263770,-1
15:39:24.263770,2
15:39:24.263770,1024
15:39:24.263770,0
15:39:24.263770,14
15:39:24.263770,17664
15:39:24.263770,0
15:39:24.263770,210
15:39:24.263770,-18432
15:39:24.263770,1
15:39:24.263770,683
15:39:24.263770,-1536
15:39:24.263770,2
15:39:24.263770,376
15:39:24.263770,26368
15:39:24.263770,-2
15:39:24.263770,-733
15:39:24.263770,-10753
15:39:24.263770,-2
15:39:24.263770,43
15:39:24.263770,4096
15:39:24.263770,0
15:39:24.263770,33
15:39:24.263770,23808
15:39:24.263770,0
15:39:24.263770,71
15:39:24.263770,18176
15:39:24.263770,0
15:39:24.263770,105
15:39:24.263770,28672
15:39:24.263770,0
15:39:24.263770,115
15:39:24.263770,-32000
15:39:24.263770,0
15:39:24.263770,148
15:39:24.263770,-23296
15:39:24.263770,0
15:39:24.263770,184
15:39:24.263770,-12800
15:39:24.263770,0
15:39:24.263770,227
15:39:24.263770,-512
15:39:24.263770,0
15:39:24.263770,278
15:39:24.263770,11520
15:39:24.263770,1
15:39:24.263770,328
15:39:24.263770,23296
15:39:24.263770,1
15:39:24.263770,354
15:39:24.263770,20224
15:39:24.263770,1
15:39:24.263770,306
15:39:24.263770,4352
15:39:24.263770,1
15:39:24.263770,218
15:39:24.263770,-30720
15:39:24.263770,0
15:39:24.263770,62
15:39:24.894380,9
15:39:24.894380,-8960
15:39:24.894380,-1
15:39:24.894380,-79
15:39:24.894380,-24833
15:39:24.894380,-1
15:39:24.894380,-93
15:39:24.894380,-23041
15:39:24.894380,-1
15:39:24.894380,-98
15:39:24.894380,-24833
15:39:24.894380,-1
15:39:24.894380,-86
15:39:24.894380,-17409
15:39:24.894380,-1
15:39:24.894380,-57
15:39:24.894380,-13057
15:39:24.894380,-1
15:39:24.894380,-55
15:39:24.894380,-11777
15:39:24.894380,-1
15:39:24.894380,-38
15:39:24.894380,-6913
15:39:24.894380,-1
15:39:24.894380,-21
15:39:24.894380,-5121
15:39:24.894380,-1
15:39:24.894380,-19
15:39:24.894380,-4609
15:39:24.894380,-1
15:39:24.894380,-19
15:39:24.894380,-3329
15:39:24.894380,-1
15:39:24.894380,-7
15:39:24.894380,-2561
15:39:24.894380,-1
15:39:24.894380,-14
15:39:24.894380,-2049
15:39:24.894380,-1
15:39:24.894380,-11
15:39:24.894380,-3329
15:39:24.894380,-1
15:39:24.894380,-4
15:39:24.894380,-257
15:39:24.894380,-1
15:39:24.894380,-11
15:39:24.894380,-1537
15:39:24.894380,-1
15:39:24.894380,11
15:39:24.894380,4096
15:39:24.894380,0
15:39:24.894380,4
15:39:24.894380,2304
15:39:24.894380,0
15:39:24.894380,31
15:39:24.894380,14592
15:39:24.894380,0
15:39:24.894380,69
15:39:24.894380,12800
15:39:24.894380,0
15:39:24.894380,26
15:39:24.894380,5376
15:39:24.894380,0
15:39:24.894380,19
15:39:24.894380,512
15:39:24.894380,0
15:39:24.894380,-9
15:39:24.894380,255
15:39:24.894380,0
15:39:24.894380,11
15:39:24.894380,1792
15:39:24.894380,0
15:39:24.894380,0
15:39:24.894380,5888
15:39:24.894380,0
15:39:24.894380,105
15:39:24.894380,5632
15:39:24.894380,1
15:39:24.894380,515
15:39:24.894380,-8960
15:39:24.894380,2
15:39:24.894380,721
15:39:24.894380,-15360
15:39:24.894380,0
15:39:24.894380,-553
15:39:24.894380,32511
15:39:24.894380,-3
15:39:24.894380,-155
15:39:24.894380,12287
15:39:24.894380,0
15:39:24.894380,-9
15:39:24.894380,12287
15:39:24.894380,0
15:39:24.894380,88
15:39:24.894380,14592
15:39:24.894380,0
15:39:24.894380,71
15:39:24.894380,26368
15:39:24.894380,0
15:39:24.894380,100
15:39:24.894380,27392
15:39:24.894380,0
15:39:24.894380,127
15:39:24.894380,-29952
15:39:24.894380,0
15:39:24.894380,153
15:39:24.894380,-20224
15:39:24.894380,0
15:39:24.894380,201
15:39:25.434045,222
15:39:25.434045,-3072
15:39:25.434045,0
15:39:25.434045,266
15:39:25.434045,9216
15:39:25.434045,1
15:39:25.434045,311
15:39:25.434045,15872
15:39:25.434045,1
15:39:25.434045,323
15:39:25.434045,17664
15:39:25.434045,1
15:39:25.434045,309
15:39:25.434045,2560
15:39:25.434045,1
15:39:25.434045,203
15:39:25.434045,32512
15:39:25.434045,0
15:39:25.434045,59
15:39:25.434045,1792
15:39:25.434045,0
15:39:25.434045,-43
15:39:25.434045,-19969
15:39:25.434045,-1
15:39:25.434045,-95
15:39:25.434045,-24833
15:39:25.434045,-1
15:39:25.434045,-98
15:39:25.434045,-24065
15:39:25.434045,-1
15:39:25.434045,-88
15:39:25.434045,-21761
15:39:25.434045,-1
15:39:25.434045,-83
15:39:25.434045,-19201
15:39:25.434045,-1
15:39:25.434045,-67
15:39:25.434045,-14337
15:39:25.434045,-1
15:39:25.434045,-45
15:39:25.434045,-8705
15:39:25.434045,-1
15:39:25.434045,-31
15:39:25.434045,-6913
15:39:25.434045,-1
15:39:25.434045,-26
15:39:25.434045,-5633
15:39:25.434045,-1
15:39:25.434045,-21
15:39:25.434045,-5633
15:39:25.434045,-1
15:39:25.434045,-26
15:39:25.434045,-6401
15:39:25.434045,-1
15:39:25.434045,-23
15:39:25.434045,-5121
15:39:25.434045,-1
15:39:25.434045,-23
15:39:25.434045,-6401
15:39:25.434045,-1
15:39:25.434045,-23
15:39:25.434045,-5121
15:39:25.434045,-1
15:39:25.434045,-21
15:39:25.434045,-5121
15:39:25.434045,-1
15:39:25.434045,-16
15:39:25.434045,-3841
15:39:25.434045,-1
15:39:25.434045,-14
15:39:25.434045,-3329
15:39:25.434045,-1
15:39:25.434045,-11
15:39:25.434045,-1537
15:39:25.434045,-1
15:39:25.434045,7
15:39:25.434045,5376
15:39:25.434045,0
15:39:25.434045,40
15:39:25.434045,13312
15:39:25.434045,0
15:39:25.434045,38
15:39:25.434045,4096
15:39:25.434045,0
15:39:25.434045,7
15:39:25.434045,-512
15:39:25.434045,-1
15:39:25.434045,-14
15:39:25.434045,-3841
15:39:25.434045,-1
15:39:25.434045,-11
15:39:25.434045,-2049
15:39:25.434045,-1
15:39:25.434045,-7
15:39:25.434045,-257
15:39:25.434045,-1
15:39:25.434045,16
15:39:25.434045,22528
15:39:25.434045,0
15:39:25.434045,254
15:39:25.434045,-3072
15:39:25.434045,1
15:39:25.434045,721
15:39:25.434045,-19456
15:39:25.434045,2
15:39:25.434045,148
15:39:25.434045,-16640
15:39:25.434045,-3
15:39:25.434045,-639
15:39:25.973710,-148
15:39:25.973710,14335
15:39:25.973710,0
15:39:25.973710,-7
15:39:25.973710,10495
15:39:25.973710,0
15:39:25.973710,81
15:39:25.973710,12800
15:39:25.973710,0
15:39:25.973710,64
15:39:25.973710,24320
15:39:25.973710,0
15:39:25.973710,100
15:39:25.973710,28160
15:39:25.973710,0
15:39:25.973710,134
15:39:25.973710,-27136
15:39:25.973710,0
15:39:25.973710,160
15:39:25.973710,-19712
15:39:25.973710,0
15:39:25.973710,206
15:39:25.973710,-7424
15:39:25.973710,0
15:39:25.973710,249
15:39:25.973710,6144
15:39:25.973710,1
15:39:25.973710,301
15:39:25.973710,15360
15:39:25.973710,1
15:39:25.973710,325
15:39:25.973710,18432
15:39:25.973710,1
15:39:25.973710,323
15:39:25.973710,12800
15:39:25.973710,1
15:39:25.973710,266
15:39:25.973710,-13568
15:39:25.973710,0
15:39:25.973710,129
15:39:25.973710,15104
15:39:25.973710,0
15:39:25.973710,-2
15:39:25.973710,-11777
15:39:25.973710,-1
15:39:25.973710,-76
15:39:25.973710,-23553
15:39:25.973710,-1
15:39:25.973710,-100
15:39:25.973710,-26625
15:39:25.973710,-1
15:39:25.973710,-105
15:39:25.973710,-26113
15:39:25.973710,-1
15:39:25.973710,-95
15:39:25.973710,-20993
15:39:25.973710,-1
15:39:25.973710,-76
15:39:25.973710,-16897
15:39:25.973710,-1
15:39:25.973710,-59
15:39:25.973710,-12545
15:39:25.973710,-1
15:39:25.973710,-40
15:39:25.973710,-8705
15:39:25.973710,-1
15:39:25.973710,-33
15:39:25.973710,-7681
15:39:25.973710,-1
15:39:25.973710,-28
15:39:25.973710,-6913
15:39:25.973710,-1
15:39:25.973710,-28
15:39:25.973710,-6401
15:39:25.973710,-1
15:39:25.973710,-23
15:39:25.973710,-5633
15:39:25.973710,-1
15:39:25.973710,-23
15:39:25.973710,-6401
15:39:25.973710,-1
15:39:25.973710,-23
15:39:25.973710,-5121
15:39:25.973710,-1
15:39:25.973710,-21
15:39:25.973710,-3841
15:39:25.973710,-1
15:39:25.973710,-14
15:39:25.973710,-3841
15:39:25.973710,-1
15:39:25.973710,-16
15:39:25.973710,-3329
15:39:25.973710,-1
15:39:25.973710,-11
15:39:25.973710,-2049
15:39:25.973710,-1
15:39:25.973710,-7
15:39:25.973710,255
15:39:25.973710,0
15:39:25.973710,2
15:39:25.973710,2304
15:39:25.973710,0
15:39:25.973710,19
15:39:25.973710,10240
15:39:25.973710,0
15:39:25.973710,59
15:39:25.973710,14080
15:39:25.973710,0
15:39:25.973710,35
15:39:26.559350,26
15:39:26.559350,4096
15:39:26.559350,0
15:39:26.559350,2
15:39:26.559350,-1024
15:39:26.559350,-1
15:39:26.559350,-2
15:39:26.559350,767
15:39:26.559350,0
15:39:26.559350,4
15:39:26.559350,2304
15:39:26.559350,0
15:39:26.559350,21
15:39:26.559350,16384
15:39:26.559350,0
15:39:26.559350,177
15:39:26.559350,31232
15:39:26.559350,1
15:39:26.559350,623
15:39:26.559350,-1536
15:39:26.559350,2
15:39:26.559350,491
15:39:26.559350,3584
15:39:26.559350,-1
15:39:26.559350,-685
15:39:26.559350,-26625
15:39:26.559350,-2
15:39:26.559350,28
15:39:26.559350,8960
15:39:26.559350,0
15:39:26.559350,21
15:39:26.559350,22528
15:39:26.559350,0
15:39:26.559350,79
15:39:26.559350,17152
15:39:26.559350,0
15:39:26.559350,100
15:39:26.559350,26880
15:39:26.559350,0
15:39:26.559350,100
15:39:26.559350,31232
15:39:26.559350,0
15:39:26.559350,139
15:39:26.559350,-27136
15:39:26.559350,0
15:39:26.559350,177
15:39:26.559350,-15360
15:39:26.559350,0
15:39:26.559350,210
15:39:26.559350,-5632
15:39:26.559350,0
15:39:26.559350,261
15:39:26.559350,6656
15:39:26.559350,1
15:39:26.559350,309
15:39:26.559350,18432
15:39:26.559350,1
15:39:26.559350,330
15:39:26.559350,19712
15:39:26.559350,1
15:39:26.559350,330
15:39:26.559350,13568
15:39:26.559350,1
15:39:26.559350,268
15:39:26.559350,-14080
15:39:26.559350,0
15:39:26.559350,127
15:39:26.559350,14080
15:39:26.559350,0
15:39:26.559350,-7
15:39:26.559350,-9985
15:39:26.559350,-1
15:39:26.559350,-55
15:39:26.559350,-18689
15:39:26.559350,-1
15:39:26.559350,-83
15:39:26.559350,-20481
15:39:26.559350,-1
15:39:26.559350,-79
15:39:26.559350,-17921
15:39:26.559350,-1
15:39:26.559350,-62
15:39:26.559350,-14849
15:39:26.559350,-1
15:39:26.559350,-55
15:39:26.559350,-11777
15:39:26.559350,-1
15:39:26.559350,-40
15:39:26.559350,-9473
15:39:26.559350,-1
15:39:26.559350,-33
15:39:26.559350,-5121
15:39:26.559350,-1
15:39:26.559350,-9
15:39:26.559350,-2561
15:39:26.559350,-1
15:39:26.559350,-21
15:39:26.559350,-4609
15:39:26.559350,-1
15:39:26.559350,-7
15:39:26.559350,-769
15:39:26.559350,-1
15:39:26.559350,-7
15:39:26.559350,-3329
15:39:26.559350,-1
15:39:26.559350,-11
15:39:26.559350,-257
15:39:26.559350,-1
15:39:26.559350,-2
15:39:27.099013,-16
15:39:27.099013,-3329
15:39:27.099013,-1
15:39:27.099013,-2
15:39:27.099013,767
15:39:27.099013,0
15:39:27.099013,4
15:39:27.099013,2304
15:39:27.099013,0
15:39:27.099013,9
15:39:27.099013,2304
15:39:27.099013,0
15:39:27.099013,16
15:39:27.099013,5376
15:39:27.099013,0
15:39:27.099013,23
15:39:27.099013,7936
15:39:27.099013,0
15:39:27.099013,35
15:39:27.099013,11520
15:39:27.099013,0
15:39:27.099013,71
15:39:27.099013,22016
15:39:27.099013,0
15:39:27.099013,74
15:39:27.099013,13312
15:39:27.099013,0
15:39:27.099013,38
15:39:27.099013,5888
15:39:27.099013,0
15:39:27.099013,16
15:39:27.099013,3584
15:39:27.099013,0
15:39:27.099013,14
15:39:27.099013,3584
15:39:27.099013,0
15:39:27.099013,16
15:39:27.099013,4864
15:39:27.099013,0
15:39:27.099013,31
15:39:27.099013,22528
15:39:27.099013,0
15:39:27.099013,237
15:39:27.099013,-9728
15:39:27.099013,1
15:39:27.099013,707
15:39:27.099013,-4096
15:39:27.099013,2
15:39:27.099013,318
15:39:27.099013,15360
15:39:27.099013,-2
15:39:27.099013,-690
15:39:27.099013,4607
15:39:27.099013,-1
15:39:27.099013,45
15:39:27.099013,1792
15:39:27.099013,0
15:39:27.099013,43
15:39:27.099013,24320
15:39:27.099013,0
15:39:27.099013,67
15:39:27.099013,18176
15:39:27.099013,0
15:39:27.099013,103
15:39:27.099013,26880
15:39:27.099013,0
15:39:27.099013,110
15:39:27.099013,-32512
15:39:27.099013,0
15:39:27.099013,146
15:39:27.099013,-24576
15:39:27.099013,0
15:39:27.099013,177
15:39:27.099013,-14848
15:39:27.099013,0
15:39:27.099013,220
15:39:27.099013,-3584
15:39:27.099013,0
15:39:27.099013,266
15:39:27.099013,8448
15:39:27.099013,1
15:39:27.099013,304
15:39:27.099013,15360
15:39:27.099013,1
15:39:27.099013,323
15:39:27.099013,17152
15:39:27.099013,1
15:39:27.099013,311
15:39:27.099013,6656
15:39:27.099013,1
15:39:27.099013,230
15:39:27.099013,-24064
15:39:27.099013,0
15:39:27.099013,93
15:39:27.099013,7936
15:39:27.099013,0
15:39:27.099013,-16
15:39:27.099013,-12545
15:39:27.099013,-1
15:39:27.099013,-71
15:39:27.099013,-19969
15:39:27.099013,-1
15:39:27.099013,-81
15:39:27.099013,-20993
15:39:27.099013,-1
15:39:27.099013,-79
15:39:27.099013,-17921
15:39:27.099013,-1
15:39:27.099013,-67
15:39:27.683651,-62
15:39:27.683651,-13825
15:39:27.683651,-1
15:39:27.683651,-47
15:39:27.683651,-9985
15:39:27.683651,-1
15:39:27.683651,-33
15:39:27.683651,-7681
15:39:27.683651,-1
15:39:27.683651,-31
15:39:27.683651,-5633
15:39:27.683651,-1
15:39:27.683651,-16
15:39:27.683651,-3841
15:39:27.683651,-1
15:39:27.683651,-16
15:39:27.683651,-3841
15:39:27.683651,-1
15:39:27.683651,-14
15:39:27.683651,-3329
15:39:27.683651,-1
15:39:27.683651,-14
15:39:27.683651,-3841
15:39:27.683651,-1
15:39:27.683651,-16
15:39:27.683651,-3841
15:39:27.683651,-1
15:39:27.683651,-14
15:39:27.683651,-2561
15:39:27.683651,-1
15:39:27.683651,-11
15:39:27.683651,-2049
15:39:27.683651,-1
15:39:27.683651,-9
15:39:27.683651,-2049
15:39:27.683651,-1
15:39:27.683651,-7
15:39:27.683651,-257
15:39:27.683651,-1
15:39:27.683651,0
15:39:27.683651,512
15:39:27.683651,0
15:39:27.683651,4
15:39:27.683651,2816
15:39:27.683651,0
15:39:27.683651,23
15:39:27.683651,10240
15:39:27.683651,0
15:39:27.683651,57
15:39:27.683651,13312
15:39:27.683651,0
15:39:27.683651,31
15:39:27.683651,4864
15:39:27.683651,0
15:39:27.683651,9
15:39:27.683651,0
15:39:27.683651,0
15:39:27.683651,-4
15:39:27.683651,-769
15:39:27.683651,-1
15:39:27.683651,-2
15:39:27.683651,-257
15:39:27.683651,-1
15:39:27.683651,0
15:39:27.683651,2304
15:39:27.683651,0
15:39:27.683651,57
15:39:27.683651,-17152
15:39:27.683651,0
15:39:27.683651,414
15:39:27.683651,-28672
15:39:27.683651,2
15:39:27.683651,747
15:39:27.683651,-30464
15:39:27.683651,1
15:39:27.683651,-369
15:39:27.683651,15359
15:39:27.683651,-3
15:39:27.683651,-309
15:39:27.683651,8191
15:39:27.683651,0
15:39:27.683651,9
15:39:27.683651,4864
15:39:27.683651,0
15:39:27.683651,83
15:39:27.683651,17152
15:39:27.683651,0
15:39:27.683651,62
15:39:27.683651,24320
15:39:27.683651,0
15:39:27.683651,107
15:39:27.683651,28160
15:39:27.683651,0
15:39:27.683651,124
15:39:27.683651,-29952
15:39:27.683651,0
15:39:27.683651,153
15:39:27.683651,-22016
15:39:27.683651,0
15:39:27.683651,191
15:39:27.683651,-10496
15:39:27.683651,0
15:39:27.683651,239
15:39:27.683651,2560
15:39:27.683651,1
15:39:27.683651,289
15:39:27.683651,13568
15:39:27.683651,1
15:39:27.683651,321
15:39:28.224315,325
15:39:28.224315,17152
15:39:28.224315,1
15:39:28.224315,309
15:39:28.224315,7424
15:39:28.224315,1
15:39:28.224315,242
15:39:28.224315,-19712
15:39:28.224315,0
15:39:28.224315,110
15:39:28.224315,11520
15:39:28.224315,0
15:39:28.224315,-7
15:39:28.224315,-9985
15:39:28.224315,-1
15:39:28.224315,-59
15:39:28.224315,-16897
15:39:28.224315,-1
15:39:28.224315,-71
15:39:28.224315,-20481
15:39:28.224315,-1
15:39:28.224315,-81
15:39:28.224315,-18689
15:39:28.224315,-1
15:39:28.224315,-67
15:39:28.224315,-15617
15:39:28.224315,-1
15:39:28.224315,-55
15:39:28.224315,-11777
15:39:28.224315,-1
15:39:28.224315,-40
15:39:28.224315,-8193
15:39:28.224315,-1
15:39:28.224315,-26
15:39:28.224315,-4609
15:39:28.224315,-1
15:39:28.224315,-19
15:39:28.224315,-5633
15:39:28.224315,-1
15:39:28.224315,-19
15:39:28.224315,-3841
15:39:28.224315,-1
15:39:28.224315,-19
15:39:28.224315,-5121
15:39:28.224315,-1
15:39:28.224315,-16
15:39:28.224315,-3329
15:39:28.224315,-1
15:39:28.224315,-19
15:39:28.224315,-5121
15:39:28.224315,-1
15:39:28.224315,-19
15:39:28.224315,-4609
15:39:28.224315,-1
15:39:28.224315,-21
15:39:28.224315,-3841
15:39:28.224315,-1
15:39:28.224315,-14
15:39:28.224315,-2561
15:39:28.224315,-1
15:39:28.224315,-4
15:39:28.224315,255
15:39:28.224315,0
15:39:28.224315,-2
15:39:28.224315,-257
15:39:28.224315,-1
15:39:28.224315,4
15:39:28.224315,3584
15:39:28.224315,0
15:39:28.224315,21
15:39:28.224315,9728
15:39:28.224315,0
15:39:28.224315,59
15:39:28.224315,15104
15:39:28.224315,0
15:39:28.224315,35
15:39:28.224315,5888
15:39:28.224315,0
15:39:28.224315,23
15:39:28.224315,2816
15:39:28.224315,0
15:39:28.224315,-4
15:39:28.224315,-769
15:39:28.224315,-1
15:39:28.224315,4
15:39:28.224315,1024
15:39:28.224315,0
15:39:28.224315,2
15:39:28.224315,2304
15:39:28.224315,0
15:39:28.224315,47
15:39:28.224315,-27648
15:39:28.224315,0
15:39:28.224315,349
15:39:28.224315,24576
15:39:28.224315,2
15:39:28.224315,769
15:39:28.224315,8704
15:39:28.224315,2
15:39:28.224315,-177
15:39:28.224315,14079
15:39:28.224315,-3
15:39:28.224315,-452
15:39:28.224315,-2049
15:39:28.224315,-1
15:39:28.224315,40
15:39:28.224315,3584
15:39:28.224315,0
15:39:28.224315,81
15:39:28.808953,81
15:39:28.808953,16384
15:39:28.808953,0
15:39:28.808953,98
15:39:28.808953,29952
15:39:28.808953,0
15:39:28.808953,115
15:39:28.808953,-32512
15:39:28.808953,0
15:39:28.808953,143
15:39:28.808953,-26368
15:39:28.808953,0
15:39:28.808953,184
15:39:28.808953,-9728
15:39:28.808953,0
15:39:28.808953,230
15:39:28.808953,-3584
15:39:28.808953,0
15:39:28.808953,268
15:39:28.808953,9728
15:39:28.808953,1
15:39:28.808953,313
15:39:28.808953,18432
15:39:28.808953,1
15:39:28.808953,342
15:39:28.808953,22784
15:39:28.808953,1
15:39:28.808953,335
15:39:28.808953,15360
15:39:28.808953,1
15:39:28.808953,273
15:39:28.808953,-12800
15:39:28.808953,0
15:39:28.808953,139
15:39:28.808953,17152
15:39:28.808953,0
15:39:28.808953,2
15:39:28.808953,-9728
15:39:28.808953,-1
15:39:28.808953,-59
15:39:28.808953,-19969
15:39:28.808953,-1
15:39:28.808953,-93
15:39:28.808953,-23553
15:39:28.808953,-1
15:39:28.808953,-88
15:39:28.808953,-22273
15:39:28.808953,-1
15:39:28.808953,-76
15:39:28.808953,-14849
15:39:28.808953,-1
15:39:28.808953,-59
15:39:28.808953,-13825
15:39:28.808953,-1
15:39:28.808953,-45
15:39:28.808953,-10753
15:39:28.808953,-1
15:39:28.808953,-40
15:39:28.808953,-8193
15:39:28.808953,-1
15:39:28.808953,-33
15:39:28.808953,-8705
15:39:28.808953,-1
15:39:28.808953,-31
15:39:28.808953,-5633
15:39:28.808953,-1
15:39:28.808953,-19
15:39:28.808953,-4609
15:39:28.808953,-1
15:39:28.808953,-21
15:39:28.808953,-5633
15:39:28.808953,-1
15:39:28.808953,-21
15:39:28.808953,-3841
15:39:28.808953,-1
15:39:28.808953,-19
15:39:28.808953,-5633
15:39:28.808953,-1
15:39:28.808953,-19
15:39:28.808953,-3841
15:39:28.808953,-1
15:39:28.808953,-19
15:39:28.808953,-3329
15:39:28.808953,-1
15:39:28.808953,-11
15:39:28.808953,-3841
15:39:28.808953,-1
15:39:28.808953,-7
15:39:28.808953,767
15:39:28.808953,0
15:39:28.808953,0
15:39:28.808953,2304
15:39:28.808953,0
15:39:28.808953,26
15:39:28.808953,11520
15:39:28.808953,0
15:39:28.808953,57
15:39:28.808953,12800
15:39:28.808953,0
15:39:28.808953,28
15:39:28.808953,3584
15:39:28.808953,0
15:39:28.808953,11
15:39:28.808953,0
15:39:28.808953,0
15:39:28.808953,-9
15:39:28.808953,-1537
15:39:28.808953,-1
15:39:28.808953,0
15:39:29.393590,0
15:39:29.393590,0
15:39:29.393590,0
15:39:29.393590,21
15:39:29.393590,24320
15:39:29.393590,0
15:39:29.393590,268
15:39:29.393590,2048
15:39:29.393590,2
15:39:29.393590,742
15:39:29.393590,-11520
15:39:29.393590,2
15:39:29.393590,184
15:39:29.393590,-16640
15:39:29.393590,-3
15:39:29.393590,-678
15:39:29.393590,18175
15:39:29.393590,-1
15:39:29.393590,40
15:39:29.393590,512
15:39:29.393590,0
15:39:29.393590,55
15:39:29.393590,24320
15:39:29.393590,0
15:39:29.393590,67
15:39:29.393590,20224
15:39:29.393590,0
15:39:29.393590,110
15:39:29.393590,28672
15:39:29.393590,0
15:39:29.393590,117
15:39:29.393590,-30720
15:39:29.393590,0
15:39:29.393590,150
15:39:29.393590,-23296
15:39:29.393590,0
15:39:29.393590,189
15:39:29.393590,-11776
15:39:29.393590,0
15:39:29.393590,234
15:39:29.393590,512
15:39:29.393590,1
15:39:29.393590,282
15:39:29.393590,12288
15:39:29.393590,1
15:39:29.393590,321
15:39:29.393590,18432
15:39:29.393590,1
15:39:29.393590,330
15:39:29.393590,17664
15:39:29.393590,1
15:39:29.393590,311
15:39:29.393590,4352
15:39:29.393590,1
15:39:29.393590,215
15:39:29.393590,-28928
15:39:29.393590,0
15:39:29.393590,76
15:39:29.393590,4864
15:39:29.393590,0
15:39:29.393590,-31
15:39:29.393590,-17409
15:39:29.393590,-1
15:39:29.393590,-86
15:39:29.393590,-23041
15:39:29.393590,-1
15:39:29.393590,-95
15:39:29.393590,-24833
15:39:29.393590,-1
15:39:29.393590,-91
15:39:29.393590,-20993
15:39:29.393590,-1
15:39:29.393590,-79
15:39:29.393590,-17921
15:39:29.393590,-1
15:39:29.393590,-62
15:39:29.393590,-13057
15:39:29.393590,-1
15:39:29.393590,-45
15:39:29.393590,-10753
15:39:29.393590,-1
15:39:29.393590,-38
15:39:29.393590,-8193
15:39:29.393590,-1
15:39:29.393590,-31
15:39:29.393590,-7681
15:39:29.393590,-1
15:39:29.393590,-31
15:39:29.393590,-6913
15:39:29.393590,-1
15:39:29.393590,-28
15:39:29.393590,-6913
15:39:29.393590,-1
15:39:29.393590,-28
15:39:29.393590,-8193
15:39:29.393590,-1
15:39:29.393590,-33
15:39:29.393590,-6913
15:39:29.393590,-1
15:39:29.393590,-23
15:39:29.393590,-5633
15:39:29.393590,-1
15:39:29.393590,-26
15:39:29.393590,-6913
15:39:29.393590,-1
15:39:29.393590,-23
15:39:29.393590,-5121
15:39:29.393590,-1
15:39:29.393590,-19
15:39:29.889283,-14
15:39:29.889283,-2049
15:39:29.889283,-1
15:39:29.889283,-9
15:39:29.889283,-769
15:39:29.889283,-1
15:39:29.889283,2
15:39:29.889283,2816
15:39:29.889283,0
15:39:29.889283,31
15:39:29.889283,12800
15:39:29.889283,0
15:39:29.889283,45
15:39:29.889283,5376
15:39:29.889283,0
15:39:29.889283,11
15:39:29.889283,1792
15:39:29.889283,0
15:39:29.889283,-4
15:39:29.889283,-3841
15:39:29.889283,-1
15:39:29.889283,-11
15:39:29.889283,-257
15:39:29.889283,-1
15:39:29.889283,0
15:39:29.889283,-512
15:39:29.889283,-1
15:39:29.889283,7
15:39:29.889283,15872
15:39:29.889283,0
15:39:29.889283,208
15:39:29.889283,-17152
15:39:29.889283,1
15:39:29.889283,680
15:39:29.889283,-6656
15:39:29.889283,2
15:39:29.889283,349
15:39:29.889283,24320
15:39:29.889283,-2
15:39:29.889283,-704
15:39:29.889283,-4097
15:39:29.889283,-2
15:39:29.889283,47
15:39:29.889283,3584
15:39:29.889283,0
15:39:29.889283,31
15:39:29.889283,23296
15:39:29.889283,0
15:39:29.889283,69
15:39:29.889283,17152
15:39:29.889283,0
15:39:29.889283,98
15:39:29.889283,26880
15:39:29.889283,0
15:39:29.889283,105
15:39:29.889283,32512
15:39:29.889283,0
15:39:29.889283,143
15:39:29.889283,-25856
15:39:29.889283,0
15:39:29.889283,172
15:39:29.889283,-14848
15:39:29.889283,0
15:39:29.889283,225
15:39:29.889283,-1280
15:39:29.889283,0
15:39:29.889283,270
15:39:29.889283,9216
15:39:29.889283,1
15:39:29.889283,313
15:39:29.889283,17664
15:39:29.889283,1
15:39:29.889283,328
15:39:29.889283,17664
15:39:29.889283,1
15:39:29.889283,313
15:39:29.889283,7424
15:39:29.889283,1
15:39:29.889283,234
15:39:29.889283,-23296
15:39:29.889283,0
15:39:29.889283,91
15:39:29.889283,7168
15:39:29.889283,0
15:39:29.889283,-19
15:39:29.889283,-14337
15:39:29.889283,-1
15:39:29.889283,-79
15:39:29.889283,-23041
15:39:29.889283,-1
15:39:29.889283,-95
15:39:29.889283,-23553
15:39:29.889283,-1
15:39:29.889283,-91
15:39:29.889283,-21761
15:39:29.889283,-1
15:39:29.889283,-79
15:39:29.889283,-17921
15:39:29.889283,-1
15:39:29.889283,-69
15:39:29.889283,-15617
15:39:29.889283,-1
15:39:29.889283,-52
15:39:29.889283,-11265
15:39:29.889283,-1
15:39:29.889283,-43
15:39:29.889283,-9473
15:39:29.889283,-1
15:39:29.889283,-33
15:39:30.473920,-35
15:39:30.473920,-8193
15:39:30.473920,-1
15:39:30.473920,-26
15:39:30.473920,-5121
15:39:30.473920,-1
15:39:30.473920,-26
15:39:30.473920,-5633
15:39:30.473920,-1
15:39:30.473920,-16
15:39:30.473920,-4609
15:39:30.473920,-1
15:39:30.473920,-23
15:39:30.473920,-5121
15:39:30.473920,-1
15:39:30.473920,-19
15:39:30.473920,-4609
15:39:30.473920,-1
15:39:30.473920,-16
15:39:30.473920,-2561
15:39:30.473920,-1
15:39:30.473920,-11
15:39:30.473920,-2561
15:39:30.473920,-1
15:39:30.473920,0
15:39:30.473920,512
15:39:30.473920,0
15:39:30.473920,-2
15:39:30.473920,1279
15:39:30.473920,0
15:39:30.473920,23
15:39:30.473920,12032
15:39:30.473920,0
15:39:30.473920,59
15:39:30.473920,11008
15:39:30.473920,0
15:39:30.473920,21
15:39:30.473920,4864
15:39:30.473920,0
15:39:30.473920,14
15:39:30.473920,-1792
15:39:30.473920,-1
15:39:30.473920,-21
15:39:30.473920,-3329
15:39:30.473920,-1
15:39:30.473920,0
15:39:30.473920,512
15:39:30.473920,0
15:39:30.473920,-2
15:39:30.473920,5631
15:39:30.473920,0
15:39:30.473920,107
15:39:30.473920,6656
15:39:30.473920,1
15:39:30.473920,529
15:39:30.473920,-7680
15:39:30.473920,2
15:39:30.473920,654
15:39:30.473920,11008
15:39:30.473920,0
15:39:30.473920,-637
15:39:30.473920,-19457
15:39:30.473920,-3
15:39:30.473920,-105
15:39:30.473920,11263
15:39:30.473920,0
15:39:30.473920,0
15:39:30.473920,15872
15:39:30.473920,0
15:39:30.473920,88
15:39:30.473920,15872
15:39:30.473920,0
15:39:30.473920,79
15:39:30.473920,25088
15:39:30.473920,0
15:39:30.473920,103
15:39:30.473920,29952
15:39:30.473920,0
15:39:30.473920,136
15:39:30.473920,-26368
15:39:30.473920,0
15:39:30.473920,170
15:39:30.473920,-17920
15:39:30.473920,0
15:39:30.473920,206
15:39:30.473920,-6656
15:39:30.473920,0
15:39:30.473920,256
15:39:30.473920,6656
15:39:30.473920,1
15:39:30.473920,304
15:39:30.473920,16640
15:39:30.473920,1
15:39:30.473920,335
15:39:30.473920,21504
15:39:30.473920,1
15:39:30.473920,333
15:39:30.473920,15872
15:39:30.473920,1
15:39:30.473920,285
15:39:30.473920,-7936
15:39:30.473920,0
15:39:30.473920,146
15:39:30.473920,18176
15:39:30.473920,0
15:39:30.473920,7
15:39:30.473920,-9728
15:39:30.473920,-1
15:39:30.473920,-64
15:39:31.013589,-81
15:39:31.013589,-22273
15:39:31.013589,-1
15:39:31.013589,-95
15:39:31.013589,-24833
15:39:31.013589,-1
15:39:31.013589,-91
15:39:31.013589,-19969
15:39:31.013589,-1
15:39:31.013589,-74
15:39:31.013589,-17409
15:39:31.013589,-1
15:39:31.013589,-59
15:39:31.013589,-11777
15:39:31.013589,-1
15:39:31.013589,-38
15:39:31.013589,-8193
15:39:31.013589,-1
15:39:31.013589,-33
15:39:31.013589,-8193
15:39:31.013589,-1
15:39:31.013589,-28
15:39:31.013589,-5633
15:39:31.013589,-1
15:39:31.013589,-19
15:39:31.013589,-3329
15:39:31.013589,-1
15:39:31.013589,-14
15:39:31.013589,-3329
15:39:31.013589,-1
15:39:31.013589,-14
15:39:31.013589,-2561
15:39:31.013589,-1
15:39:31.013589,-14
15:39:31.013589,-2561
15:39:31.013589,-1
15:39:31.013589,-9
15:39:31.013589,-2049
15:39:31.013589,-1
15:39:31.013589,-9
15:39:31.013589,-769
15:39:31.013589,-1
15:39:31.013589,2
15:39:31.013589,2304
15:39:31.013589,0
15:39:31.013589,9
15:39:31.013589,2304
15:39:31.013589,0
15:39:31.013589,21
15:39:31.013589,12032
15:39:31.013589,0
15:39:31.013589,62
15:39:31.013589,15872
15:39:31.013589,0
15:39:31.013589,47
15:39:31.013589,4864
15:39:31.013589,0
15:39:31.013589,-4
15:39:31.013589,-1537
15:39:31.013589,-1
15:39:31.013589,-4
15:39:31.013589,-1537
15:39:31.013589,-1
15:39:31.013589,-7
15:39:31.013589,-257
15:39:31.013589,-1
15:39:31.013589,-2
15:39:31.013589,3839
15:39:31.013589,0
15:39:31.013589,81
15:39:31.013589,-5632
15:39:31.013589,0
15:39:31.013589,469
15:39:31.013589,-16896
15:39:31.013589,2
15:39:31.013589,728
15:39:31.013589,0
15:39:31.013589,1
15:39:31.013589,-517
15:39:31.013589,14847
15:39:31.013589,-3
15:39:31.013589,-237
15:39:31.013589,9983
15:39:31.013589,0
15:39:31.013589,-2
15:39:31.013589,8703
15:39:31.013589,0
15:39:31.013589,81
15:39:31.013589,14080
15:39:31.013589,0
15:39:31.013589,62
15:39:31.013589,23296
15:39:31.013589,0
15:39:31.013589,95
15:39:31.013589,26368
15:39:31.013589,0
15:39:31.013589,127
15:39:31.013589,-28928
15:39:31.013589,0
15:39:31.013589,160
15:39:31.013589,-19712
15:39:31.013589,0
15:39:31.013589,198
15:39:31.013589,-9216
15:39:31.013589,0
15:39:31.013589,246
15:39:31.013589,4864
15:39:31.013589,1
15:39:31.013589,297
15:39:31.599223,313
15:39:31.599223,17664
15:39:31.599223,1
15:39:31.599223,333
15:39:31.599223,18432
15:39:31.599223,1
15:39:31.599223,311
15:39:31.599223,4352
15:39:31.599223,1
15:39:31.599223,218
15:39:31.599223,-27136
15:39:31.599223,0
15:39:31.599223,76
15:39:31.599223,3584
15:39:31.599223,0
15:39:31.599223,-28
15:39:31.599223,-14337
15:39:31.599223,-1
15:39:31.599223,-76
15:39:31.599223,-21761
15:39:31.599223,-1
15:39:31.599223,-91
15:39:31.599223,-21761
15:39:31.599223,-1
15:39:31.599223,-81
15:39:31.599223,-19969
15:39:31.599223,-1
15:39:31.599223,-71
15:39:31.599223,-15617
15:39:31.599223,-1
15:39:31.599223,-57
15:39:31.599223,-12545
15:39:31.599223,-1
15:39:31.599223,-45
15:39:31.599223,-8705
15:39:31.599223,-1
15:39:31.599223,-31
15:39:31.599223,-6913
15:39:31.599223,-1
15:39:31.599223,-31
15:39:31.599223,-6401
15:39:31.599223,-1
15:39:31.599223,-21
15:39:31.599223,-5633
15:39:31.599223,-1
15:39:31.599223,-23
15:39:31.599223,-5121
15:39:31.599223,-1
15:39:31.599223,-21
15:39:31.599223,-5633
15:39:31.599223,-1
15:39:31.599223,-26
15:39:31.599223,-6401
15:39:31.599223,-1
15:39:31.599223,-23
15:39:31.599223,-5121
15:39:31.599223,-1
15:39:31.599223,-21
15:39:31.599223,-5121
15:39:31.599223,-1
15:39:31.599223,-21
15:39:31.599223,-4609
15:39:31.599223,-1
15:39:31.599223,-14
15:39:31.599223,-2049
15:39:31.599223,-1
15:39:31.599223,-4
15:39:31.599223,-257
15:39:31.599223,-1
15:39:31.599223,4
15:39:31.599223,4864
15:39:31.599223,0
15:39:31.599223,40
15:39:31.599223,14080
15:39:31.599223,0
15:39:31.599223,52
15:39:31.599223,7936
15:39:31.599223,0
15:39:31.599223,14
15:39:31.599223,1792
15:39:31.599223,0
15:39:31.599223,-2
15:39:31.599223,-3329
15:39:31.599223,-1
15:39:31.599223,-11
15:39:31.599223,-769
15:39:31.599223,-1
15:39:31.599223,-4
15:39:31.599223,-769
15:39:31.599223,-1
15:39:31.599223,4
15:39:31.599223,12032
15:39:31.599223,0
15:39:31.599223,170
15:39:31.599223,-31232
15:39:31.599223,1
15:39:31.599223,635
15:39:31.599223,-5376
15:39:31.599223,2
15:39:31.599223,428
15:39:31.599223,-18432
15:39:31.599223,-2
15:39:31.599223,-721
15:39:31.599223,-23553
15:39:31.599223,-2
15:39:31.599223,23
15:39:31.599223,4864
15:39:31.599223,0
15:39:31.599223,14
15:39:32.138892,76
15:39:32.138892,15872
15:39:32.138892,0
15:39:32.138892,55
15:39:32.138892,23296
15:39:32.138892,0
15:39:32.138892,103
15:39:32.138892,26368
15:39:32.138892,0
15:39:32.138892,119
15:39:32.138892,-29952
15:39:32.138892,0
15:39:32.138892,153
15:39:32.138892,-21504
15:39:32.138892,0
15:39:32.138892,198
15:39:32.138892,-9216
15:39:32.138892,0
15:39:32.138892,242
15:39:32.138892,3072
15:39:32.138892,1
15:39:32.138892,292
15:39:32.138892,14080
15:39:32.138892,1
15:39:32.138892,323
15:39:32.138892,18432
15:39:32.138892,1
15:39:32.138892,328
15:39:32.138892,15872
15:39:32.138892,1
15:39:32.138892,294
15:39:32.138892,-3072
15:39:32.138892,0
15:39:32.138892,179
15:39:32.138892,26880
15:39:32.138892,0
15:39:32.138892,38
15:39:32.138892,-2816
15:39:32.138892,-1
15:39:32.138892,-50
15:39:32.138892,-19201
15:39:32.138892,-1
15:39:32.138892,-88
15:39:32.138892,-23553
15:39:32.138892,-1
15:39:32.138892,-95
15:39:32.138892,-23553
15:39:32.138892,-1
15:39:32.138892,-86
15:39:32.138892,-20481
15:39:32.138892,-1
15:39:32.138892,-74
15:39:32.138892,-17409
15:39:32.138892,-1
15:39:32.138892,-64
15:39:32.138892,-13825
15:39:32.138892,-1
15:39:32.138892,-43
15:39:32.138892,-8193
15:39:32.138892,-1
15:39:32.138892,-28
15:39:32.138892,-6401
15:39:32.138892,-1
15:39:32.138892,-26
15:39:32.138892,-6401
15:39:32.138892,-1
15:39:32.138892,-21
15:39:32.138892,-4609
15:39:32.138892,-1
15:39:32.138892,-21
15:39:32.138892,-5633
15:39:32.138892,-1
15:39:32.138892,-26
15:39:32.138892,-6913
15:39:32.138892,-1
15:39:32.138892,-26
15:39:32.138892,-5633
15:39:32.138892,-1
15:39:32.138892,-26
15:39:32.138892,-6913
15:39:32.138892,-1
15:39:32.138892,-26
15:39:32.138892,-5633
15:39:32.138892,-1
15:39:32.138892,-19
15:39:32.138892,-2561
15:39:32.138892,-1
15:39:32.138892,-7
15:39:32.138892,-769
15:39:32.138892,-1
15:39:32.138892,4
15:39:32.138892,4864
15:39:32.138892,0
15:39:32.138892,38
15:39:32.138892,13312
15:39:32.138892,0
15:39:32.138892,45
15:39:32.138892,7168
15:39:32.138892,0
15:39:32.138892,11
15:39:32.138892,-512
15:39:32.138892,-1
15:39:32.138892,-14
15:39:32.138892,-3841
15:39:32.138892,-1
15:39:32.138892,-11
15:39:32.138892,-769
15:39:32.138892,-1
15:39:32.138892,2
15:39:32.723527,2
15:39:32.723527,2816
15:39:32.723527,0
15:39:32.723527,69
15:39:32.723527,-12288
15:39:32.723527,0
15:39:32.723527,433
15:39:32.723527,-25600
15:39:32.723527,2
15:39:32.723527,730
15:39:32.723527,15360
15:39:32.723527,1
15:39:32.723527,-448
15:39:32.723527,18943
15:39:32.723527,-3
15:39:32.723527,-249
15:39:32.723527,13055
15:39:32.723527,0
15:39:32.723527,11
15:39:32.723527,7936
15:39:32.723527,0
15:39:32.723527,91
15:39:32.723527,18944
15:39:32.723527,0
15:39:32.723527,74
15:39:32.723527,25600
15:39:32.723527,0
15:39:32.723527,107
15:39:32.723527,28160
15:39:32.723527,0
15:39:32.723527,129
15:39:32.723527,-28928
15:39:32.723527,0
15:39:32.723527,160
15:39:32.723527,-19712
15:39:32.723527,0
15:39:32.723527,196
15:39:32.723527,-9728
15:39:32.723527,0
15:39:32.723527,249
15:39:32.723527,5632
15:39:32.723527,1
15:39:32.723527,297
15:39:32.723527,14592
15:39:32.723527,1
15:39:32.723527,337
15:39:32.723527,24576
15:39:32.723527,1
15:39:32.723527,340
15:39:32.723527,15872
15:39:32.723527,1
15:39:32.723527,301
15:39:32.723527,512
15:39:32.723527,1
15:39:32.723527,174
15:39:32.723527,23808
15:39:32.723527,0
15:39:32.723527,33
15:39:32.723527,-4096
15:39:32.723527,-1
15:39:32.723527,-52
15:39:32.723527,-17409
15:39:32.723527,-1
15:39:32.723527,-76
15:39:32.723527,-19201
15:39:32.723527,-1
15:39:32.723527,-83
15:39:32.723527,-21761
15:39:32.723527,-1
15:39:32.723527,-74
15:39:32.723527,-16897
15:39:32.723527,-1
15:39:32.723527,-69
15:39:32.723527,-14337
15:39:32.723527,-1
15:39:32.723527,-38
15:39:32.723527,-8705
15:39:32.723527,-1
15:39:32.723527,-35
15:39:32.723527,-6401
15:39:32.723527,-1
15:39:32.723527,-21
15:39:32.723527,-6401
15:39:32.723527,-1
15:39:32.723527,-23
15:39:32.723527,-3841
15:39:32.723527,-1
15:39:32.723527,-19
15:39:32.723527,-4609
15:39:32.723527,-1
15:39:32.723527,-14
15:39:32.723527,-4609
15:39:32.723527,-1
15:39:32.723527,-16
15:39:32.723527,255
15:39:32.723527,0
15:39:32.723527,2
15:39:32.723527,-1792
15:39:32.723527,-1
15:39:32.723527,-7
15:39:32.723527,255
15:39:32.723527,0
15:39:32.723527,-2
15:39:32.723527,-769
15:39:32.723527,-1
15:39:32.723527,4
15:39:32.723527,3584
15:39:32.723527,0
15:39:32.723527,23
15:39:33.264191,43
15:39:33.264191,16384
15:39:33.264191,0
15:39:33.264191,69
15:39:33.264191,11008
15:39:33.264191,0
15:39:33.264191,21
15:39:33.264191,2816
15:39:33.264191,0
15:39:33.264191,4
15:39:33.264191,-1792
15:39:33.264191,-1
15:39:33.264191,-7
15:39:33.264191,255
15:39:33.264191,0
15:39:33.264191,9
15:39:33.264191,2304
15:39:33.264191,0
15:39:33.264191,7
15:39:33.264191,11520
15:39:33.264191,0
15:39:33.264191,177
15:39:33.264191,-25600
15:39:33.264191,1
15:39:33.264191,668
15:39:33.264191,9472
15:39:33.264191,3
15:39:33.264191,556
15:39:33.264191,15872
15:39:33.264191,-1
15:39:33.264191,-742
15:39:33.264191,11775
15:39:33.264191,-2
15:39:33.264191,-19
15:39:33.264191,5631
15:39:33.264191,0
15:39:33.264191,2
15:39:33.264191,20736
15:39:33.264191,0
15:39:33.264191,83
15:39:33.264191,17152
15:39:33.264191,0
15:39:33.264191,100
15:39:33.264191,29952
15:39:33.264191,0
15:39:33.264191,115
15:39:33.264191,-32000
15:39:33.264191,0
15:39:33.264191,153
15:39:33.264191,-22784
15:39:33.264191,0
15:39:33.264191,184
15:39:33.264191,-13568
15:39:33.264191,0
15:39:33.264191,225
15:39:33.264191,-1792
15:39:33.264191,0
15:39:33.264191,278
15:39:33.264191,12800
15:39:33.264191,1
15:39:33.264191,328
15:39:33.264191,21504
15:39:33.264191,1
15:39:33.264191,345
15:39:33.264191,22784
15:39:33.264191,1
15:39:33.264191,337
15:39:33.264191,14080
15:39:33.264191,1
15:39:33.264191,254
15:39:33.264191,-20224
15:39:33.264191,0
15:39:33.264191,103
15:39:33.264191,9728
15:39:33.264191,0
15:39:33.264191,-16
15:39:33.264191,-13825
15:39:33.264191,-1
15:39:33.264191,-76
15:39:33.264191,-22273
15:39:33.264191,-1
15:39:33.264191,-88
15:39:33.264191,-21761
15:39:33.264191,-1
15:39:33.264191,-86
15:39:33.264191,-19969
15:39:33.264191,-1
15:39:33.264191,-69
15:39:33.264191,-16897
15:39:33.264191,-1
15:39:33.264191,-62
15:39:33.264191,-13057
15:39:33.264191,-1
15:39:33.264191,-38
15:39:33.264191,-6913
15:39:33.264191,-1
15:39:33.264191,-28
15:39:33.264191,-6913
15:39:33.264191,-1
15:39:33.264191,-26
15:39:33.264191,-5121
15:39:33.264191,-1
15:39:33.264191,-19
15:39:33.264191,-5121
15:39:33.264191,-1
15:39:33.264191,-23
15:39:33.264191,-5121
15:39:33.264191,-1
15:39:33.264191,-21
15:39:33.803856,-19
15:39:33.803856,-5121
15:39:33.803856,-1
15:39:33.803856,-28
15:39:33.803856,-7681
15:39:33.803856,-1
15:39:33.803856,-26
15:39:33.803856,-5121
15:39:33.803856,-1
15:39:33.803856,-23
15:39:33.803856,-5121
15:39:33.803856,-1
15:39:33.803856,-11
15:39:33.803856,-257
15:39:33.803856,-1
15:39:33.803856,-4
15:39:33.803856,255
15:39:33.803856,0
15:39:33.803856,14
15:39:33.803856,7168
15:39:33.803856,0
15:39:33.803856,45
15:39:33.803856,14080
15:39:33.803856,0
15:39:33.803856,43
15:39:33.803856,5888
15:39:33.803856,0
15:39:33.803856,14
15:39:33.803856,1024
15:39:33.803856,0
15:39:33.803856,-7
15:39:33.803856,-2049
15:39:33.803856,-1
15:39:33.803856,-4
15:39:33.803856,-257
15:39:33.803856,-1
15:39:33.803856,-2
15:39:33.803856,767
15:39:33.803856,0
15:39:33.803856,21
15:39:33.803856,25088
15:39:33.803856,0
15:39:33.803856,280
15:39:33.803856,6144
15:39:33.803856,2
15:39:33.803856,750
15:39:33.803856,-20736
15:39:33.803856,2
15:39:33.803856,107
15:39:33.803856,-27136
15:39:33.803856,-3
15:39:33.803856,-644
15:39:33.803856,31487
15:39:33.803856,-1
15:39:33.803856,59
15:39:33.803856,0
15:39:33.803856,0
15:39:33.803856,52
15:39:33.803856,23296
15:39:33.803856,0
15:39:33.803856,64
15:39:33.803856,20224
15:39:33.803856,0
15:39:33.803856,107
15:39:33.803856,27392
15:39:33.803856,0
15:39:33.803856,117
15:39:33.803856,-29952
15:39:33.803856,0
15:39:33.803856,155
15:39:33.803856,-20992
15:39:33.803856,0
15:39:33.803856,198
15:39:33.803856,-8704
15:39:33.803856,0
15:39:33.803856,244
15:39:33.803856,3584
15:39:33.803856,1
15:39:33.803856,299
15:39:33.803856,17664
15:39:33.803856,1
15:39:33.803856,342
15:39:33.803856,25088
15:39:33.803856,1
15:39:33.803856,354
15:39:33.803856,22784
15:39:33.803856,1
15:39:33.803856,328
15:39:33.803856,6656
15:39:33.803856,1
15:39:33.803856,206
15:39:33.803856,30464
15:39:33.803856,0
15:39:33.803856,47
15:39:33.803856,-3584
15:39:33.803856,-1
15:39:33.803856,-62
15:39:33.803856,-22273
15:39:33.803856,-1
15:39:33.803856,-100
15:39:33.803856,-27137
15:39:33.803856,-1
15:39:33.803856,-112
15:39:33.803856,-26625
15:39:33.803856,-1
15:39:33.803856,-100
15:39:33.803856,-24833
15:39:33.803856,-1
15:39:33.803856,-91
15:39:34.388494,-81
15:39:34.388494,-19201
15:39:34.388494,-1
15:39:34.388494,-71
15:39:34.388494,-15617
15:39:34.388494,-1
15:39:34.388494,-50
15:39:34.388494,-9985
15:39:34.388494,-1
15:39:34.388494,-33
15:39:34.388494,-6913
15:39:34.388494,-1
15:39:34.388494,-28
15:39:34.388494,-6913
15:39:34.388494,-1
15:39:34.388494,-26
15:39:34.388494,-5633
15:39:34.388494,-1
15:39:34.388494,-28
15:39:34.388494,-8193
15:39:34.388494,-1
15:39:34.388494,-33
15:39:34.388494,-7681
15:39:34.388494,-1
15:39:34.388494,-31
15:39:34.388494,-7681
15:39:34.388494,-1
15:39:34.388494,-28
15:39:34.388494,-5633
15:39:34.388494,-1
15:39:34.388494,-23
15:39:34.388494,-6401
15:39:34.388494,-1
15:39:34.388494,-23
15:39:34.388494,-3329
15:39:34.388494,-1
15:39:34.388494,-11
15:39:34.388494,-1537
15:39:34.388494,-1
15:39:34.388494,11
15:39:34.388494,8448
15:39:34.388494,0
15:39:34.388494,40
15:39:34.388494,5376
15:39:34.388494,0
15:39:34.388494,4
15:39:34.388494,-1024
15:39:34.388494,-1
15:39:34.388494,-14
15:39:34.388494,-6401
15:39:34.388494,-1
15:39:34.388494,-28
15:39:34.388494,-6401
15:39:34.388494,-1
15:39:34.388494,-21
15:39:34.388494,-5121
15:39:34.388494,-1
15:39:34.388494,-19
15:39:34.388494,2047
15:39:34.388494,0
15:39:34.388494,98
15:39:34.388494,7936
15:39:34.388494,1
15:39:34.388494,546
15:39:34.388494,-2816
15:39:34.388494,2
15:39:34.388494,673
15:39:34.388494,12032
15:39:34.388494,0
15:39:34.388494,-651
15:39:34.388494,-24321
15:39:34.388494,-3
15:39:34.388494,-119
15:39:34.388494,8191
15:39:34.388494,0
15:39:34.388494,-16
15:39:34.388494,11775
15:39:34.388494,0
15:39:34.388494,71
15:39:34.388494,11008
15:39:34.388494,0
15:39:34.388494,64
15:39:34.388494,23296
15:39:34.388494,0
15:39:34.388494,91
15:39:34.388494,27392
15:39:34.388494,0
15:39:34.388494,131
15:39:34.388494,-29440
15:39:34.388494,0
15:39:34.388494,150
15:39:34.388494,-20992
15:39:34.388494,0
15:39:34.388494,196
15:39:34.388494,-9216
15:39:34.388494,0
15:39:34.388494,244
15:39:34.388494,3584
15:39:34.388494,1
15:39:34.388494,297
15:39:34.388494,15360
15:39:34.388494,1
15:39:34.388494,323
15:39:34.388494,17664
15:39:34.388494,1
15:39:34.388494,321
15:39:34.388494,11008
15:39:34.388494,1
15:39:34.388494,254
15:39:34.974131,194
15:39:34.974131,31744
15:39:34.974131,0
15:39:34.974131,62
15:39:34.974131,0
15:39:34.974131,0
15:39:34.974131,-45
15:39:34.974131,-16129
15:39:34.974131,-1
15:39:34.974131,-76
15:39:34.974131,-23041
15:39:34.974131,-1
15:39:34.974131,-86
15:39:34.974131,-17921
15:39:34.974131,-1
15:39:34.974131,-74
15:39:34.974131,-18689
15:39:34.974131,-1
15:39:34.974131,-57
15:39:34.974131,-11777
15:39:34.974131,-1
15:39:34.974131,-45
15:39:34.974131,-8705
15:39:34.974131,-1
15:39:34.974131,-28
15:39:34.974131,-6401
15:39:34.974131,-1
15:39:34.974131,-21
15:39:34.974131,-4609
15:39:34.974131,-1
15:39:34.974131,-16
15:39:34.974131,-1537
15:39:34.974131,-1
15:39:34.974131,0
15:39:34.974131,-1024
15:39:34.974131,-1
15:39:34.974131,-16
15:39:34.974131,-3329
15:39:34.974131,-1
15:39:34.974131,-7
15:39:34.974131,-257
15:39:34.974131,-1
15:39:34.974131,-7
15:39:34.974131,-2561
15:39:34.974131,-1
15:39:34.974131,-7
15:39:34.974131,-257
15:39:34.974131,-1
15:39:34.974131,-4
15:39:34.974131,-257
15:39:34.974131,-1
15:39:34.974131,11
15:39:34.974131,5376
15:39:34.974131,0
15:39:34.974131,19
15:39:34.974131,5376
15:39:34.974131,0
15:39:34.974131,38
15:39:34.974131,14592
15:39:34.974131,0
15:39:34.974131,74
15:39:34.974131,20224
15:39:34.974131,0
15:39:34.974131,57
15:39:34.974131,8448
15:39:34.974131,0
15:39:34.974131,26
15:39:34.974131,4864
15:39:34.974131,0
15:39:34.974131,0
15:39:34.974131,0
15:39:34.974131,0
15:39:34.974131,19
15:39:34.974131,5888
15:39:34.974131,0
15:39:34.974131,19
15:39:34.974131,4864
15:39:34.974131,0
15:39:34.974131,64
15:39:34.974131,-16640
15:39:34.974131,0
15:39:34.974131,412
15:39:34.974131,-26880
15:39:34.974131,2
15:39:34.974131,802
15:39:34.974131,3072
15:39:34.974131,2
15:39:34.974131,-246
15:39:34.974131,11007
15:39:34.974131,-3
15:39:34.974131,-419
15:39:34.974131,-6913
15:39:34.974131,-1
15:39:34.974131,14
15:39:34.974131,8960
15:39:34.974131,0
15:39:34.974131,100
15:39:34.974131,23808
15:39:34.974131,0
15:39:34.974131,86
15:39:34.974131,28160
15:39:34.974131,0
15:39:34.974131,124
15:39:34.974131,32512
15:39:34.974131,0
15:39:34.974131,136
15:39:34.974131,-26368
15:39:34.974131,0
15:39:34.974131,167
15:39:35.558772,182
15:39:35.558772,-12800
15:39:35.558772,0
15:39:35.558772,234
15:39:35.558772,1280
15:39:35.558772,1
15:39:35.558772,275
15:39:35.558772,10496
15:39:35.558772,1
15:39:35.558772,325
15:39:35.558772,20224
15:39:35.558772,1
15:39:35.558772,335
15:39:35.558772,22016
15:39:35.558772,1
15:39:35.558772,347
15:39:35.558772,15872
15:39:35.558772,1
15:39:35.558772,258
15:39:35.558772,-15360
15:39:35.558772,0
15:39:35.558772,139
15:39:35.558772,19456
15:39:35.558772,0
15:39:35.558772,11
15:39:35.558772,-8960
15:39:35.558772,-1
15:39:35.558772,-57
15:39:35.558772,-14337
15:39:35.558772,-1
15:39:35.558772,-59
15:39:35.558772,-17409
15:39:35.558772,-1
15:39:35.558772,-71
15:39:35.558772,-14849
15:39:35.558772,-1
15:39:35.558772,-50
15:39:35.558772,-9985
15:39:35.558772,-1
15:39:35.558772,-31
15:39:35.558772,-5121
15:39:35.558772,-1
15:39:35.558772,-19
15:39:35.558772,-3841
15:39:35.558772,-1
15:39:35.558772,-16
15:39:35.558772,-1537
15:39:35.558772,-1
15:39:35.558772,0
15:39:35.558772,0
15:39:35.558772,0
15:39:35.558772,9
15:39:35.558772,1024
15:39:35.558772,0
15:39:35.558772,-7
15:39:35.558772,-257
15:39:35.558772,-1
15:39:35.558772,7
15:39:35.558772,0
15:39:35.558772,0
15:39:35.558772,-4
15:39:35.558772,255
15:39:35.558772,0
15:39:35.558772,4
15:39:35.558772,1792
15:39:35.558772,0
15:39:35.558772,14
15:39:35.558772,3584
15:39:35.558772,0
15:39:35.558772,9
15:39:35.558772,3584
15:39:35.558772,0
15:39:35.558772,38
15:39:35.558772,17152
15:39:35.558772,0
15:39:35.558772,81
15:39:35.558772,18176
15:39:35.558772,0
15:39:35.558772,45
15:39:35.558772,4864
15:39:35.558772,0
15:39:35.558772,7
15:39:35.558772,1792
15:39:35.558772,0
15:39:35.558772,2
15:39:35.558772,-1024
15:39:35.558772,-1
15:39:35.558772,0
15:39:35.558772,2816
15:39:35.558772,0
15:39:35.558772,19
15:39:35.558772,8960
15:39:35.558772,0
15:39:35.558772,115
15:39:35.558772,12288
15:39:35.558772,1
15:39:35.558772,572
15:39:35.558772,8704
15:39:35.558772,3
15:39:35.558772,778
15:39:35.558772,-6144
15:39:35.558772,0
15:39:35.558772,-548
15:39:35.558772,24575
15:39:35.558772,-3
15:39:35.558772,-203
15:39:35.558772,3839
15:39:35.558772,0
15:39:35.558772,-11
15:39:36.144406,57
15:39:36.144406,23808
15:39:36.144406,0
15:39:36.144406,64
15:39:36.144406,22016
15:39:36.144406,0
15:39:36.144406,117
15:39:36.144406,28160
15:39:36.144406,0
15:39:36.144406,119
15:39:36.144406,-28928
15:39:36.144406,0
15:39:36.144406,158
15:39:36.144406,-21504
15:39:36.144406,0
15:39:36.144406,194
15:39:36.144406,-9728
15:39:36.144406,0
15:39:36.144406,244
15:39:36.144406,3584
15:39:36.144406,1
15:39:36.144406,299
15:39:36.144406,17152
15:39:36.144406,1
15:39:36.144406,340
15:39:36.144406,23808
15:39:36.144406,1
15:39:36.144406,354
15:39:36.144406,22784
15:39:36.144406,1
15:39:36.144406,325
15:39:36.144406,7424
15:39:36.144406,1
15:39:36.144406,215
15:39:36.144406,-29952
15:39:36.144406,0
15:39:36.144406,69
15:39:36.144406,2816
15:39:36.144406,0
15:39:36.144406,-31
15:39:36.144406,-15617
15:39:36.144406,-1
15:39:36.144406,-79
15:39:36.144406,-20993
15:39:36.144406,-1
15:39:36.144406,-86
15:39:36.144406,-20993
15:39:36.144406,-1
15:39:36.144406,-76
15:39:36.144406,-17921
15:39:36.144406,-1
15:39:36.144406,-67
15:39:36.144406,-14849
15:39:36.144406,-1
15:39:36.144406,-50
15:39:36.144406,-9985
15:39:36.144406,-1
15:39:36.144406,-28
15:39:36.144406,-5633
15:39:36.144406,-1
15:39:36.144406,-21
15:39:36.144406,-3329
15:39:36.144406,-1
15:39:36.144406,-4
15:39:36.144406,-2049
15:39:36.144406,-1
15:39:36.144406,-11
15:39:36.144406,-1537
15:39:36.144406,-1
15:39:36.144406,-9
15:39:36.144406,-2049
15:39:36.144406,-1
15:39:36.144406,-4
15:39:36.144406,-1537
15:39:36.144406,-1
15:39:36.144406,-11
15:39:36.144406,-3329
15:39:36.144406,-1
15:39:36.144406,-11
15:39:36.144406,-2561
15:39:36.144406,-1
15:39:36.144406,-11
15:39:36.144406,-2049
15:39:36.144406,-1
15:39:36.144406,-7
15:39:36.144406,-769
15:39:36.144406,-1
15:39:36.144406,0
15:39:36.144406,1024
15:39:36.144406,0
15:39:36.144406,11
15:39:36.144406,7936
15:39:36.144406,0
15:39:36.144406,52
15:39:36.144406,13312
15:39:36.144406,0
15:39:36.144406,31
15:39:36.144406,4864
15:39:36.144406,0
15:39:36.144406,16
15:39:36.144406,2304
15:39:36.144406,0
15:39:36.144406,-4
15:39:36.144406,-2561
15:39:36.144406,-1
15:39:36.144406,-9
15:39:36.144406,-769
15:39:36.144406,-1
15:39:36.144406,0
15:39:36.639099,4
15:39:36.639099,5888
15:39:36.639099,0
15:39:36.639099,98
15:39:36.639099,7424
15:39:36.639099,1
15:39:36.639099,558
15:39:36.639099,4608
15:39:36.639099,3
15:39:36.639099,730
15:39:36.639099,-28160
15:39:36.639099,0
15:39:36.639099,-577
15:39:36.639099,-24321
15:39:36.639099,-3
15:39:36.639099,-134
15:39:36.639099,9983
15:39:36.639099,0
15:39:36.639099,-11
15:39:36.639099,11263
15:39:36.639099,0
15:39:36.639099,76
15:39:36.639099,12032
15:39:36.639099,0
15:39:36.639099,67
15:39:36.639099,25088
15:39:36.639099,0
15:39:36.639099,100
15:39:36.639099,27392
15:39:36.639099,0
15:39:36.639099,124
15:39:36.639099,-29440
15:39:36.639099,0
15:39:36.639099,155
15:39:36.639099,-20992
15:39:36.639099,0
15:39:36.639099,198
15:39:36.639099,-9216
15:39:36.639099,0
15:39:36.639099,246
15:39:36.639099,4864
15:39:36.639099,1
15:39:36.639099,299
15:39:36.639099,16640
15:39:36.639099,1
15:39:36.639099,333
15:39:36.639099,19712
15:39:36.639099,1
15:39:36.639099,328
15:39:36.639099,14080
15:39:36.639099,1
15:39:36.639099,268
15:39:36.639099,-14848
15:39:36.639099,0
15:39:36.639099,122
15:39:36.639099,12032
15:39:36.639099,0
15:39:36.639099,-14
15:39:36.639099,-15617
15:39:36.639099,-1
15:39:36.639099,-88
15:39:36.639099,-26113
15:39:36.639099,-1
15:39:36.639099,-112
15:39:36.639099,-29185
15:39:36.639099,-1
15:39:36.639099,-110
15:39:36.639099,-26113
15:39:36.639099,-1
15:39:36.639099,-98
15:39:36.639099,-23553
15:39:36.639099,-1
15:39:36.639099,-86
15:39:36.639099,-19969
15:39:36.639099,-1
15:39:36.639099,-74
15:39:36.639099,-16129
15:39:36.639099,-1
15:39:36.639099,-55
15:39:36.639099,-11777
15:39:36.639099,-1
15:39:36.639099,-45
15:39:36.639099,-10753
15:39:36.639099,-1
15:39:36.639099,-40
15:39:36.639099,-8705
15:39:36.639099,-1
15:39:36.639099,-33
15:39:36.639099,-8193
15:39:36.639099,-1
15:39:36.639099,-33
15:39:36.639099,-8705
15:39:36.639099,-1
15:39:36.639099,-35
15:39:36.639099,-7681
15:39:36.639099,-1
15:39:36.639099,-28
15:39:36.639099,-5633
15:39:36.639099,-1
15:39:36.639099,-19
15:39:36.639099,-5121
15:39:36.639099,-1
15:39:36.639099,-21
15:39:36.639099,-2561
15:39:36.639099,-1
15:39:36.639099,0
15:39:36.639099,3584
15:39:36.639099,0
15:39:36.639099,31
15:39:37.178765,40
15:39:37.178765,8448
15:39:37.178765,0
15:39:37.178765,7
15:39:37.178765,-5376
15:39:37.178765,-1
15:39:37.178765,-28
15:39:37.178765,-4609
15:39:37.178765,-1
15:39:37.178765,-16
15:39:37.178765,-4609
15:39:37.178765,-1
15:39:37.178765,-14
15:39:37.178765,-2049
15:39:37.178765,-1
15:39:37.178765,-7
15:39:37.178765,6143
15:39:37.178765,0
15:39:37.178765,122
15:39:37.178765,15872
15:39:37.178765,1
15:39:37.178765,575
15:39:37.178765,768
15:39:37.178765,3
15:39:37.178765,642
15:39:37.178765,-2304
15:39:37.178765,-1
15:39:37.178765,-632
15:39:37.178765,2047
15:39:37.178765,-2
15:39:37.178765,-59
15:39:37.178765,6911
15:39:37.178765,0
15:39:37.178765,-19
15:39:37.178765,11775
15:39:37.178765,0
15:39:37.178765,57
15:39:37.178765,7936
15:39:37.178765,0
15:39:37.178765,55
15:39:37.178765,20224
15:39:37.178765,0
15:39:37.178765,79
15:39:37.178765,23808
15:39:37.178765,0
15:39:37.178765,112
15:39:37.178765,31744
15:39:37.178765,0
15:39:37.178765,139
15:39:37.178765,-24576
15:39:37.178765,0
15:39:37.178765,184
15:39:37.178765,-12288
15:39:37.178765,0
15:39:37.178765,234
15:39:37.178765,1792
15:39:37.178765,1
15:39:37.178765,289
15:39:37.178765,11520
15:39:37.178765,1
15:39:37.178765,306
15:39:37.178765,14080
15:39:37.178765,1
15:39:37.178765,309
15:39:37.178765,8448
15:39:37.178765,1
15:39:37.178765,237
15:39:37.178765,-23296
15:39:37.178765,0
15:39:37.178765,95
15:39:37.178765,9728
15:39:37.178765,0
15:39:37.178765,-16
15:39:37.178765,-16129
15:39:37.178765,-1
15:39:37.178765,-95
15:39:37.178765,-26625
15:39:37.178765,-1
15:39:37.178765,-107
15:39:37.178765,-26625
15:39:37.178765,-1
15:39:37.178765,-98
15:39:37.178765,-22273
15:39:37.178765,-1
15:39:37.178765,-83
15:39:37.178765,-20481
15:39:37.178765,-1
15:39:37.178765,-71
15:39:37.178765,-16129
15:39:37.178765,-1
15:39:37.178765,-59
15:39:37.178765,-13057
15:39:37.178765,-1
15:39:37.178765,-47
15:39:37.178765,-11265
15:39:37.178765,-1
15:39:37.178765,-38
15:39:37.178765,-8193
15:39:37.178765,-1
15:39:37.178765,-28
15:39:37.178765,-6913
15:39:37.178765,-1
15:39:37.178765,-26
15:39:37.178765,-4609
15:39:37.178765,-1
15:39:37.178765,-19
15:39:37.178765,-6401
15:39:37.178765,-1
15:39:37.178765,-26
15:39:37.719431,-16
15:39:37.719431,-3841
15:39:37.719431,-1
15:39:37.719431,-19
15:39:37.719431,-3329
15:39:37.719431,-1
15:39:37.719431,-11
15:39:37.719431,-3329
15:39:37.719431,-1
15:39:37.719431,-4
15:39:37.719431,767
15:39:37.719431,0
15:39:37.719431,2
15:39:37.719431,2816
15:39:37.719431,0
15:39:37.719431,26
15:39:37.719431,8960
15:39:37.719431,0
15:39:37.719431,50
15:39:37.719431,14080
15:39:37.719431,0
15:39:37.719431,43
15:39:37.719431,7168
15:39:37.719431,0
15:39:37.719431,14
15:39:37.719431,0
15:39:37.719431,0
15:39:37.719431,-7
15:39:37.719431,-1537
15:39:37.719431,-1
15:39:37.719431,-7
15:39:37.719431,-1537
15:39:37.719431,-1
15:39:37.719431,-7
15:39:37.719431,255
15:39:37.719431,0
15:39:37.719431,33
15:39:37.719431,-32000
15:39:37.719431,0
15:39:37.719431,335
15:39:37.719431,26368
15:39:37.719431,2
15:39:37.719431,812
15:39:37.719431,-29952
15:39:37.719431,2
15:39:37.719431,-35
15:39:37.719431,22015
15:39:37.719431,-3
15:39:37.719431,-560
15:39:37.719431,-26113
15:39:37.719431,-1
15:39:37.719431,4
15:39:37.719431,-4096
15:39:37.719431,-1
15:39:37.719431,59
15:39:37.719431,18176
15:39:37.719431,0
15:39:37.719431,43
15:39:37.719431,18944
15:39:37.719431,0
15:39:37.719431,103
15:39:37.719431,25088
15:39:37.719431,0
15:39:37.719431,107
15:39:37.719431,31744
15:39:37.719431,0
15:39:37.719431,136
15:39:37.719431,-27136
15:39:37.719431,0
15:39:37.719431,174
15:39:37.719431,-14080
15:39:37.719431,0
15:39:37.719431,227
15:39:37.719431,-1280
15:39:37.719431,0
15:39:37.719431,282
15:39:37.719431,14592
15:39:37.719431,1
15:39:37.719431,321
15:39:37.719431,17152
15:39:37.719431,1
15:39:37.719431,335
15:39:37.719431,19712
15:39:37.719431,1
15:39:37.719431,306
15:39:37.719431,3072
15:39:37.719431,1
15:39:37.719431,208
15:39:37.719431,31744
15:39:37.719431,0
15:39:37.719431,50
15:39:37.719431,-1024
15:39:37.719431,-1
15:39:37.719431,-55
15:39:37.719431,-24065
15:39:37.719431,-1
15:39:37.719431,-112
15:39:37.719431,-27905
15:39:37.719431,-1
15:39:37.719431,-107
15:39:37.719431,-26113
15:39:37.719431,-1
15:39:37.719431,-103
15:39:37.719431,-28417
15:39:37.719431,-1
15:39:37.719431,-95
15:39:37.719431,-17921
15:39:37.719431,-1
15:39:37.719431,-74
15:39:38.349039,-76
15:39:38.349039,-15617
15:39:38.349039,-1
15:39:38.349039,-47
15:39:38.349039,-9473
15:39:38.349039,-1
15:39:38.349039,-38
15:39:38.349039,-9473
15:39:38.349039,-1
15:39:38.349039,-23
15:39:38.349039,-4609
15:39:38.349039,-1
15:39:38.349039,-23
15:39:38.349039,-5633
15:39:38.349039,-1
15:39:38.349039,-21
15:39:38.349039,-7681
15:39:38.349039,-1
15:39:38.349039,-31
15:39:38.349039,-5121
15:39:38.349039,-1
15:39:38.349039,-14
15:39:38.349039,-2561
15:39:38.349039,-1
15:39:38.349039,-7
15:39:38.349039,767
15:39:38.349039,0
15:39:38.349039,19
15:39:38.349039,8448
15:39:38.349039,0
15:39:38.349039,35
15:39:38.349039,8960
15:39:38.349039,0
15:39:38.349039,16
15:39:38.349039,-4864
15:39:38.349039,-1
15:39:38.349039,-31
15:39:38.349039,-5121
15:39:38.349039,-1
15:39:38.349039,-21
15:39:38.349039,-5633
15:39:38.349039,-1
15:39:38.349039,-16
15:39:38.349039,-3329
15:39:38.349039,-1
15:39:38.349039,-11
15:39:38.349039,3839
15:39:38.349039,0
15:39:38.349039,119
15:39:38.349039,18432
15:39:38.349039,1
15:39:38.349039,589
15:39:38.349039,3840
15:39:38.349039,3
15:39:38.349039,702
15:39:38.349039,22528
15:39:38.349039,0
15:39:38.349039,-651
15:39:38.349039,29439
15:39:38.349039,-3
15:39:38.349039,-153
15:39:38.349039,2559
15:39:38.349039,0
15:39:38.349039,-40
15:39:38.349039,9215
15:39:38.349039,0
15:39:38.349039,76
15:39:38.349039,12800
15:39:38.349039,0
15:39:38.349039,74
15:39:38.349039,24320
15:39:38.349039,0
15:39:38.349039,88
15:39:38.349039,28160
15:39:38.349039,0
15:39:38.349039,136
15:39:38.349039,-28928
15:39:38.349039,0
15:39:38.349039,160
15:39:38.349039,-18432
15:39:38.349039,0
15:39:38.349039,198
15:39:38.349039,-7424
15:39:38.349039,0
15:39:38.349039,270
15:39:38.349039,11520
15:39:38.349039,1
15:39:38.349039,313
15:39:38.349039,17152
15:39:38.349039,1
15:39:38.349039,335
15:39:38.349039,22784
15:39:38.349039,1
15:39:38.349039,342
15:39:38.349039,15360
15:39:38.349039,1
15:39:38.349039,263
15:39:38.349039,-16640
15:39:38.349039,0
15:39:38.349039,103
15:39:38.349039,6656
15:39:38.349039,0
15:39:38.349039,-23
15:39:38.349039,-16129
15:39:38.349039,-1
15:39:38.349039,-95
15:39:38.349039,-27137
15:39:38.349039,-1
15:39:38.349039,-110
15:39:38.888704,-112
15:39:38.888704,-27905
15:39:38.888704,-1
15:39:38.888704,-100
15:39:38.888704,-24065
15:39:38.888704,-1
15:39:38.888704,-93
15:39:38.888704,-20993
15:39:38.888704,-1
15:39:38.888704,-71
15:39:38.888704,-16129
15:39:38.888704,-1
15:39:38.888704,-57
15:39:38.888704,-13057
15:39:38.888704,-1
15:39:38.888704,-47
15:39:38.888704,-9985
15:39:38.888704,-1
15:39:38.888704,-33
15:39:38.888704,-6913
15:39:38.888704,-1
15:39:38.888704,-28
15:39:38.888704,-6401
15:39:38.888704,-1
15:39:38.888704,-26
15:39:38.888704,-6401
15:39:38.888704,-1
15:39:38.888704,-26
15:39:38.888704,-6401
15:39:38.888704,-1
15:39:38.888704,-23
15:39:38.888704,-5121
15:39:38.888704,-1
15:39:38.888704,-19
15:39:38.888704,-3841
15:39:38.888704,-1
15:39:38.888704,-9
15:39:38.888704,-769
15:39:38.888704,-1
15:39:38.888704,-2
15:39:38.888704,2047
15:39:38.888704,0
15:39:38.888704,23
15:39:38.888704,10240
15:39:38.888704,0
15:39:38.888704,47
15:39:38.888704,9728
15:39:38.888704,0
15:39:38.888704,7
15:39:38.888704,-4096
15:39:38.888704,-1
15:39:38.888704,-16
15:39:38.888704,-2561
15:39:38.888704,-1
15:39:38.888704,-16
15:39:38.888704,-3329
15:39:38.888704,-1
15:39:38.888704,-9
15:39:38.888704,-2049
15:39:38.888704,-1
15:39:38.888704,2
15:39:38.888704,15872
15:39:38.888704,0
15:39:38.888704,215
15:39:38.888704,-8448
15:39:38.888704,1
15:39:38.888704,738
15:39:38.888704,3328
15:39:38.888704,3
15:39:38.888704,347
15:39:38.888704,20224
15:39:38.888704,-2
15:39:38.888704,-711
15:39:38.888704,-2305
15:39:38.888704,-2
15:39:38.888704,47
15:39:38.888704,-512
15:39:38.888704,-1
15:39:38.888704,16
15:39:38.888704,21248
15:39:38.888704,0
15:39:38.888704,64
15:39:38.888704,15104
15:39:38.888704,0
15:39:38.888704,93
15:39:38.888704,26368
15:39:38.888704,0
15:39:38.888704,105
15:39:38.888704,30464
15:39:38.888704,0
15:39:38.888704,141
15:39:38.888704,-24064
15:39:38.888704,0
15:39:38.888704,182
15:39:38.888704,-12800
15:39:38.888704,0
15:39:38.888704,232
15:39:38.888704,1792
15:39:38.888704,1
15:39:38.888704,289
15:39:38.888704,14080
15:39:38.888704,1
15:39:38.888704,333
15:39:38.888704,23296
15:39:38.888704,1
15:39:38.888704,352
15:39:38.888704,23808
15:39:38.888704,1
15:39:38.888704,335
15:39:39.429372,292
15:39:39.429372,-8704
15:39:39.429372,0
15:39:39.429372,139
15:39:39.429372,15104
15:39:39.429372,0
15:39:39.429372,-9
15:39:39.429372,-15617
15:39:39.429372,-1
15:39:39.429372,-95
15:39:39.429372,-29185
15:39:39.429372,-1
15:39:39.429372,-127
15:39:39.429372,-32257
15:39:39.429372,-1
15:39:39.429372,-117
15:39:39.429372,-27905
15:39:39.429372,-1
15:39:39.429372,-107
15:39:39.429372,-24833
15:39:39.429372,-1
15:39:39.429372,-88
15:39:39.429372,-20993
15:39:39.429372,-1
15:39:39.429372,-74
15:39:39.429372,-16897
15:39:39.429372,-1
15:39:39.429372,-57
15:39:39.429372,-12545
15:39:39.429372,-1
15:39:39.429372,-45
15:39:39.429372,-10753
15:39:39.429372,-1
15:39:39.429372,-40
15:39:39.429372,-8193
15:39:39.429372,-1
15:39:39.429372,-31
15:39:39.429372,-8193
15:39:39.429372,-1
15:39:39.429372,-33
15:39:39.429372,-6913
15:39:39.429372,-1
15:39:39.429372,-28
15:39:39.429372,-7681
15:39:39.429372,-1
15:39:39.429372,-33
15:39:39.429372,-7681
15:39:39.429372,-1
15:39:39.429372,-31
15:39:39.429372,-6913
15:39:39.429372,-1
15:39:39.429372,-23
15:39:39.429372,-5121
15:39:39.429372,-1
15:39:39.429372,-19
15:39:39.429372,-3329
15:39:39.429372,-1
15:39:39.429372,-4
15:39:39.429372,1279
15:39:39.429372,0
15:39:39.429372,26
15:39:39.429372,10240
15:39:39.429372,0
15:39:39.429372,38
15:39:39.429372,5888
15:39:39.429372,0
15:39:39.429372,11
15:39:39.429372,0
15:39:39.429372,0
15:39:39.429372,-9
15:39:39.429372,-3841
15:39:39.429372,-1
15:39:39.429372,-14
15:39:39.429372,-2049
15:39:39.429372,-1
15:39:39.429372,-9
15:39:39.429372,-2049
15:39:39.429372,-1
15:39:39.429372,2
15:39:39.429372,13312
15:39:39.429372,0
15:39:39.429372,191
15:39:39.429372,-20736
15:39:39.429372,1
15:39:39.429372,687
15:39:39.429372,5120
15:39:39.429372,3
15:39:39.429372,457
15:39:39.429372,-9216
15:39:39.429372,-2
15:39:39.429372,-690
15:39:39.429372,-18177
15:39:39.429372,-2
15:39:39.429372,40
15:39:39.429372,4096
15:39:39.429372,0
15:39:39.429372,0
15:39:39.429372,17664
15:39:39.429372,0
15:39:39.429372,64
15:39:39.429372,14080
15:39:39.429372,0
15:39:39.429372,83
15:39:39.429372,24320
15:39:39.429372,0
15:39:39.429372,98
15:39:39.429372,29440
15:39:39.429372,0
15:39:39.429372,131
15:39:40.014007,146
15:39:40.014007,-22784
15:39:40.014007,0
15:39:40.014007,191
15:39:40.014007,-10496
15:39:40.014007,0
15:39:40.014007,239
15:39:40.014007,2560
15:39:40.014007,1
15:39:40.014007,297
15:39:40.014007,17664
15:39:40.014007,1
15:39:40.014007,342
15:39:40.014007,23296
15:39:40.014007,1
15:39:40.014007,349
15:39:40.014007,21504
15:39:40.014007,1
15:39:40.014007,309
15:39:40.014007,-512
15:39:40.014007,0
15:39:40.014007,177
15:39:40.014007,23296
15:39:40.014007,0
15:39:40.014007,19
15:39:40.014007,-8960
15:39:40.014007,-1
15:39:40.014007,-76
15:39:40.014007,-24833
15:39:40.014007,-1
15:39:40.014007,-112
15:39:40.014007,-29185
15:39:40.014007,-1
15:39:40.014007,-112
15:39:40.014007,-27137
15:39:40.014007,-1
15:39:40.014007,-100
15:39:40.014007,-23553
15:39:40.014007,-1
15:39:40.014007,-86
15:39:40.014007,-20481
15:39:40.014007,-1
15:39:40.014007,-71
15:39:40.014007,-15617
15:39:40.014007,-1
15:39:40.014007,-55
15:39:40.014007,-12545
15:39:40.014007,-1
15:39:40.014007,-47
15:39:40.014007,-11265
15:39:40.014007,-1
15:39:40.014007,-40
15:39:40.014007,-8193
15:39:40.014007,-1
15:39:40.014007,-26
15:39:40.014007,-6401
15:39:40.014007,-1
15:39:40.014007,-31
15:39:40.014007,-7681
15:39:40.014007,-1
15:39:40.014007,-28
15:39:40.014007,-6401
15:39:40.014007,-1
15:39:40.014007,-21
15:39:40.014007,-5121
15:39:40.014007,-1
15:39:40.014007,-23
15:39:40.014007,-4609
15:39:40.014007,-1
15:39:40.014007,-11
15:39:40.014007,-2049
15:39:40.014007,-1
15:39:40.014007,-7
15:39:40.014007,255
15:39:40.014007,0
15:39:40.014007,9
15:39:40.014007,6656
15:39:40.014007,0
15:39:40.014007,45
15:39:40.014007,12032
15:39:40.014007,0
15:39:40.014007,28
15:39:40.014007,2816
15:39:40.014007,0
15:39:40.014007,2
15:39:40.014007,-1792
15:39:40.014007,-1
15:39:40.014007,-19
15:39:40.014007,-3841
15:39:40.014007,-1
15:39:40.014007,-11
15:39:40.014007,-1537
15:39:40.014007,-1
15:39:40.014007,-7
15:39:40.014007,-769
15:39:40.014007,-1
15:39:40.014007,26
15:39:40.014007,-31232
15:39:40.014007,0
15:39:40.014007,345
15:39:40.014007,20992
15:39:40.014007,2
15:39:40.014007,757
15:39:40.014007,15360
15:39:40.014007,2
15:39:40.014007,-105
15:39:40.014007,28159
15:39:40.014007,-3
15:39:40.014007,-450
15:39:40.553673,-9
15:39:40.553673,11775
15:39:40.553673,0
15:39:40.553673,-2
15:39:40.553673,15359
15:39:40.553673,0
15:39:40.553673,71
15:39:40.553673,13312
15:39:40.553673,0
15:39:40.553673,76
15:39:40.553673,24320
15:39:40.553673,0
15:39:40.553673,95
15:39:40.553673,28160
15:39:40.553673,0
15:39:40.553673,131
15:39:40.553673,-27136
15:39:40.553673,0
15:39:40.553673,162
15:39:40.553673,-18944
15:39:40.553673,0
15:39:40.553673,206
15:39:40.553673,-7424
15:39:40.553673,0
15:39:40.553673,254
15:39:40.553673,6144
15:39:40.553673,1
15:39:40.553673,301
15:39:40.553673,14592
15:39:40.553673,1
15:39:40.553673,323
15:39:40.553673,17664
15:39:40.553673,1
15:39:40.553673,321
15:39:40.553673,11520
15:39:40.553673,1
15:39:40.553673,254
15:39:40.553673,-18432
15:39:40.553673,0
15:39:40.553673,110
15:39:40.553673,11008
15:39:40.553673,0
15:39:40.553673,-11
15:39:40.553673,-13825
15:39:40.553673,-1
15:39:40.553673,-83
15:39:40.553673,-24833
15:39:40.553673,-1
15:39:40.553673,-98
15:39:40.553673,-25345
15:39:40.553673,-1
15:39:40.553673,-98
15:39:40.553673,-23553
15:39:40.553673,-1
15:39:40.553673,-86
15:39:40.553673,-19201
15:39:40.553673,-1
15:39:40.553673,-67
15:39:40.553673,-16129
15:39:40.553673,-1
15:39:40.553673,-57
15:39:40.553673,-11777
15:39:40.553673,-1
15:39:40.553673,-47
15:39:40.553673,-11265
15:39:40.553673,-1
15:39:40.553673,-38
15:39:40.553673,-8705
15:39:40.553673,-1
15:39:40.553673,-33
15:39:40.553673,-6913
15:39:40.553673,-1
15:39:40.553673,-28
15:39:40.553673,-7681
15:39:40.553673,-1
15:39:40.553673,-31
15:39:40.553673,-6913
15:39:40.553673,-1
15:39:40.553673,-28
15:39:40.553673,-6913
15:39:40.553673,-1
15:39:40.553673,-26
15:39:40.553673,-6401
15:39:40.553673,-1
15:39:40.553673,-23
15:39:40.553673,-5633
15:39:40.553673,-1
15:39:40.553673,-19
15:39:40.553673,-2561
15:39:40.553673,-1
15:39:40.553673,-9
15:39:40.553673,-769
15:39:40.553673,-1
15:39:40.553673,2
15:39:40.553673,5376
15:39:40.553673,0
15:39:40.553673,43
15:39:40.553673,12800
15:39:40.553673,0
15:39:40.553673,33
15:39:40.553673,2816
15:39:40.553673,0
15:39:40.553673,2
15:39:40.553673,-1792
15:39:40.553673,-1
15:39:40.553673,-19
15:39:40.553673,-4609
15:39:40.553673,-1
15:39:40.553673,-11
15:39:41.094337,-9
15:39:41.094337,-2561
15:39:41.094337,-1
15:39:41.094337,-9
15:39:41.094337,5631
15:39:41.094337,0
15:39:41.094337,115
15:39:41.094337,11008
15:39:41.094337,1
15:39:41.094337,544
15:39:41.094337,-7680
15:39:41.094337,2
15:39:41.094337,611
15:39:41.094337,-10240
15:39:41.094337,-1
15:39:41.094337,-642
15:39:41.094337,5119
15:39:41.094337,-2
15:39:41.094337,-43
15:39:41.094337,12287
15:39:41.094337,0
15:39:41.094337,0
15:39:41.094337,14080
15:39:41.094337,0
15:39:41.094337,67
15:39:41.094337,12032
15:39:41.094337,0
15:39:41.094337,71
15:39:41.094337,23808
15:39:41.094337,0
15:39:41.094337,91
15:39:41.094337,26368
15:39:41.094337,0
15:39:41.094337,122
15:39:41.094337,-29952
15:39:41.094337,0
15:39:41.094337,150
15:39:41.094337,-22016
15:39:41.094337,0
15:39:41.094337,194
15:39:41.094337,-11008
15:39:41.094337,0
15:39:41.094337,237
15:39:41.094337,1280
15:39:41.094337,1
15:39:41.094337,282
15:39:41.094337,11520
15:39:41.094337,1
15:39:41.094337,311
15:39:41.094337,14080
15:39:41.094337,1
15:39:41.094337,301
15:39:41.094337,7424
15:39:41.094337,1
15:39:41.094337,251
15:39:41.094337,-14848
15:39:41.094337,0
15:39:41.094337,129
15:39:41.094337,15872
15:39:41.094337,0
15:39:41.094337,4
15:39:41.094337,-11520
15:39:41.094337,-1
15:39:41.094337,-76
15:39:41.094337,-22273
15:39:41.094337,-1
15:39:41.094337,-98
15:39:41.094337,-26113
15:39:41.094337,-1
15:39:41.094337,-95
15:39:41.094337,-22273
15:39:41.094337,-1
15:39:41.094337,-83
15:39:41.094337,-17409
15:39:41.094337,-1
15:39:41.094337,-57
15:39:41.094337,-13057
15:39:41.094337,-1
15:39:41.094337,-45
15:39:41.094337,-10753
15:39:41.094337,-1
15:39:41.094337,-47
15:39:41.094337,-9473
15:39:41.094337,-1
15:39:41.094337,-28
15:39:41.094337,-6913
15:39:41.094337,-1
15:39:41.094337,-28
15:39:41.094337,-5633
15:39:41.094337,-1
15:39:41.094337,-23
15:39:41.094337,-6401
15:39:41.094337,-1
15:39:41.094337,-23
15:39:41.094337,-5121
15:39:41.094337,-1
15:39:41.094337,-21
15:39:41.094337,-5633
15:39:41.094337,-1
15:39:41.094337,-28
15:39:41.094337,-6913
15:39:41.094337,-1
15:39:41.094337,-23
15:39:41.094337,-4609
15:39:41.094337,-1
15:39:41.094337,-11
15:39:41.094337,-257
15:39:41.094337,-1
15:39:41.094337,2
15:39:41.678978,0
15:39:41.678978,2816
15:39:41.678978,0
15:39:41.678978,40
15:39:41.678978,13312
15:39:41.678978,0
15:39:41.678978,43
15:39:41.678978,6656
15:39:41.678978,0
15:39:41.678978,19
15:39:41.678978,2304
15:39:41.678978,0
15:39:41.678978,-7
15:39:41.678978,-3329
15:39:41.678978,-1
15:39:41.678978,-7
15:39:41.678978,255
15:39:41.678978,0
15:39:41.678978,4
15:39:41.678978,2304
15:39:41.678978,0
15:39:41.678978,28
15:39:41.678978,26880
15:39:41.678978,0
15:39:41.678978,287
15:39:41.678978,8704
15:39:41.678978,2
15:39:41.678978,757
15:39:41.678978,-15616
15:39:41.678978,2
15:39:41.678978,136
15:39:41.678978,-24576
15:39:41.678978,-3
15:39:41.678978,-651
15:39:41.678978,27391
15:39:41.678978,-1
15:39:41.678978,45
15:39:41.678978,-1024
15:39:41.678978,-1
15:39:41.678978,50
15:39:41.678978,20224
15:39:41.678978,0
15:39:41.678978,52
15:39:41.678978,19456
15:39:41.678978,0
15:39:41.678978,100
15:39:41.678978,23808
15:39:41.678978,0
15:39:41.678978,103
15:39:41.678978,32512
15:39:41.678978,0
15:39:41.678978,136
15:39:41.678978,-25856
15:39:41.678978,0
15:39:41.678978,174
15:39:41.678978,-17152
15:39:41.678978,0
15:39:41.678978,210
15:39:41.678978,-4864
15:39:41.678978,0
15:39:41.678978,261
15:39:41.678978,6144
15:39:41.678978,1
15:39:41.678978,294
15:39:41.678978,12288
15:39:41.678978,1
15:39:41.678978,309
15:39:41.678978,13568
15:39:41.678978,1
15:39:41.678978,297
15:39:41.678978,2560
15:39:41.678978,1
15:39:41.678978,210
15:39:41.678978,-29952
15:39:41.678978,0
15:39:41.678978,67
15:39:41.678978,2816
15:39:41.678978,0
15:39:41.678978,-35
15:39:41.678978,-17409
15:39:41.678978,-1
15:39:41.678978,-88
15:39:41.678978,-24065
15:39:41.678978,-1
15:39:41.678978,-103
15:39:41.678978,-25345
15:39:41.678978,-1
15:39:41.678978,-91
15:39:41.678978,-21761
15:39:41.678978,-1
15:39:41.678978,-79
15:39:41.678978,-17921
15:39:41.678978,-1
15:39:41.678978,-64
15:39:41.678978,-13057
15:39:41.678978,-1
15:39:41.678978,-45
15:39:41.678978,-11265
15:39:41.678978,-1
15:39:41.678978,-40
15:39:41.678978,-8705
15:39:41.678978,-1
15:39:41.678978,-33
15:39:41.678978,-8193
15:39:41.678978,-1
15:39:41.678978,-31
15:39:41.678978,-8193
15:39:41.678978,-1
15:39:41.678978,-33
15:39:42.263612,-31
15:39:42.263612,-6913
15:39:42.263612,-1
15:39:42.263612,-31
15:39:42.263612,-6401
15:39:42.263612,-1
15:39:42.263612,-21
15:39:42.263612,-4609
15:39:42.263612,-1
15:39:42.263612,-14
15:39:42.263612,-257
15:39:42.263612,-1
15:39:42.263612,2
15:39:42.263612,1792
15:39:42.263612,0
15:39:42.263612,21
15:39:42.263612,11520
15:39:42.263612,0
15:39:42.263612,55
15:39:42.263612,12032
15:39:42.263612,0
15:39:42.263612,28
15:39:42.263612,0
15:39:42.263612,0
15:39:42.263612,-16
15:39:42.263612,-3329
15:39:42.263612,-1
15:39:42.263612,-14
15:39:42.263612,-4609
15:39:42.263612,-1
15:39:42.263612,-14
15:39:42.263612,-3329
15:39:42.263612,-1
15:39:42.263612,-14
15:39:42.263612,3071
15:39:42.263612,0
15:39:42.263612,107
15:39:42.263612,10496
15:39:42.263612,1
15:39:42.263612,548
15:39:42.263612,-8960
15:39:42.263612,2
15:39:42.263612,611
15:39:42.263612,-6656
15:39:42.263612,-1
15:39:42.263612,-687
15:39:42.263612,-19457
15:39:42.263612,-3
15:39:42.263612,-88
15:39:42.263612,11775
15:39:42.263612,0
15:39:42.263612,-7
15:39:42.263612,14847
15:39:42.263612,0
15:39:42.263612,79
15:39:42.263612,13312
15:39:42.263612,0
15:39:42.263612,79
15:39:42.263612,26880
15:39:42.263612,0
15:39:42.263612,103
15:39:42.263612,28672
15:39:42.263612,0
15:39:42.263612,134
15:39:42.263612,-28160
15:39:42.263612,0
15:39:42.263612,162
15:39:42.263612,-18432
15:39:42.263612,0
15:39:42.263612,203
15:39:42.263612,-7936
15:39:42.263612,0
15:39:42.263612,249
15:39:42.263612,4352
15:39:42.263612,1
15:39:42.263612,289
15:39:42.263612,11520
15:39:42.263612,1
15:39:42.263612,304
15:39:42.263612,11520
15:39:42.263612,1
15:39:42.263612,294
15:39:42.263612,4864
15:39:42.263612,1
15:39:42.263612,232
15:39:42.263612,-22784
15:39:42.263612,0
15:39:42.263612,95
15:39:42.263612,7936
15:39:42.263612,0
15:39:42.263612,-23
15:39:42.263612,-15617
15:39:42.263612,-1
15:39:42.263612,-83
15:39:42.263612,-24833
15:39:42.263612,-1
15:39:42.263612,-107
15:39:42.263612,-27905
15:39:42.263612,-1
15:39:42.263612,-103
15:39:42.263612,-24065
15:39:42.263612,-1
15:39:42.263612,-88
15:39:42.263612,-19969
15:39:42.263612,-1
15:39:42.263612,-64
15:39:42.263612,-13825
15:39:42.263612,-1
15:39:42.263612,-47
15:39:42.804280,-40
15:39:42.804280,-8705
15:39:42.804280,-1
15:39:42.804280,-33
15:39:42.804280,-7681
15:39:42.804280,-1
15:39:42.804280,-28
15:39:42.804280,-6913
15:39:42.804280,-1
15:39:42.804280,-26
15:39:42.804280,-5633
15:39:42.804280,-1
15:39:42.804280,-23
15:39:42.804280,-6401
15:39:42.804280,-1
15:39:42.804280,-23
15:39:42.804280,-5121
15:39:42.804280,-1
15:39:42.804280,-19
15:39:42.804280,-4609
15:39:42.804280,-1
15:39:42.804280,-19
15:39:42.804280,-4609
15:39:42.804280,-1
15:39:42.804280,-19
15:39:42.804280,-3329
15:39:42.804280,-1
15:39:42.804280,-7
15:39:42.804280,-257
15:39:42.804280,-1
15:39:42.804280,2
15:39:42.804280,2304
15:39:42.804280,0
15:39:42.804280,23
15:39:42.804280,11520
15:39:42.804280,0
15:39:42.804280,57
15:39:42.804280,11008
15:39:42.804280,0
15:39:42.804280,21
15:39:42.804280,1024
15:39:42.804280,0
15:39:42.804280,-4
15:39:42.804280,-3329
15:39:42.804280,-1
15:39:42.804280,-14
15:39:42.804280,-2049
15:39:42.804280,-1
15:39:42.804280,-7
15:39:42.804280,-1537
15:39:42.804280,-1
15:39:42.804280,-2
15:39:42.804280,6143
15:39:42.804280,0
15:39:42.804280,117
15:39:42.804280,12800
15:39:42.804280,1
15:39:42.804280,551
15:39:42.804280,-8448
15:39:42.804280,2
15:39:42.804280,603
15:39:42.804280,-14592
15:39:42.804280,-1
15:39:42.804280,-685
15:39:42.804280,-5889
15:39:42.804280,-3
15:39:42.804280,-57
15:39:42.804280,11775
15:39:42.804280,0
15:39:42.804280,0
15:39:42.804280,15872
15:39:42.804280,0
15:39:42.804280,76
15:39:42.804280,13312
15:39:42.804280,0
15:39:42.804280,76
15:39:42.804280,25088
15:39:42.804280,0
15:39:42.804280,95
15:39:42.804280,28160
15:39:42.804280,0
15:39:42.804280,127
15:39:42.804280,-29952
15:39:42.804280,0
15:39:42.804280,153
15:39:42.804280,-20992
15:39:42.804280,0
15:39:42.804280,196
15:39:42.804280,-9728
15:39:42.804280,0
15:39:42.804280,239
15:39:42.804280,1792
15:39:42.804280,1
15:39:42.804280,285
15:39:42.804280,11520
15:39:42.804280,1
15:39:42.804280,309
15:39:42.804280,13568
15:39:42.804280,1
15:39:42.804280,301
15:39:42.804280,6656
15:39:42.804280,1
15:39:42.804280,244
15:39:42.804280,-17152
15:39:42.804280,0
15:39:42.804280,122
15:39:42.804280,14080
15:39:42.804280,0
15:39:42.804280,2
15:39:43.433890,-40
15:39:43.433890,-17409
15:39:43.433890,-1
15:39:43.433890,-83
15:39:43.433890,-23041
15:39:43.433890,-1
15:39:43.433890,-93
15:39:43.433890,-22273
15:39:43.433890,-1
15:39:43.433890,-79
15:39:43.433890,-17409
15:39:43.433890,-1
15:39:43.433890,-59
15:39:43.433890,-12545
15:39:43.433890,-1
15:39:43.433890,-45
15:39:43.433890,-9473
15:39:43.433890,-1
15:39:43.433890,-28
15:39:43.433890,-5633
15:39:43.433890,-1
15:39:43.433890,-21
15:39:43.433890,-4609
15:39:43.433890,-1
15:39:43.433890,-16
15:39:43.433890,-4609
15:39:43.433890,-1
15:39:43.433890,-16
15:39:43.433890,-3841
15:39:43.433890,-1
15:39:43.433890,-16
15:39:43.433890,-3841
15:39:43.433890,-1
15:39:43.433890,-16
15:39:43.433890,-4609
15:39:43.433890,-1
15:39:43.433890,-19
15:39:43.433890,-4609
15:39:43.433890,-1
15:39:43.433890,-19
15:39:43.433890,-3841
15:39:43.433890,-1
15:39:43.433890,-11
15:39:43.433890,-769
15:39:43.433890,-1
15:39:43.433890,0
15:39:43.433890,1024
15:39:43.433890,0
15:39:43.433890,14
15:39:43.433890,7936
15:39:43.433890,0
15:39:43.433890,50
15:39:43.433890,14080
15:39:43.433890,0
15:39:43.433890,40
15:39:43.433890,5376
15:39:43.433890,0
15:39:43.433890,7
15:39:43.433890,-1024
15:39:43.433890,-1
15:39:43.433890,-11
15:39:43.433890,-3329
15:39:43.433890,-1
15:39:43.433890,-11
15:39:43.433890,-1537
15:39:43.433890,-1
15:39:43.433890,-4
15:39:43.433890,255
15:39:43.433890,0
15:39:43.433890,33
15:39:43.433890,-29952
15:39:43.433890,0
15:39:43.433890,335
15:39:43.433890,16128
15:39:43.433890,2
15:39:43.433890,738
15:39:43.433890,6912
15:39:43.433890,2
15:39:43.433890,-177
15:39:43.433890,13567
15:39:43.433890,-3
15:39:43.433890,-455
15:39:43.433890,-2049
15:39:43.433890,-1
15:39:43.433890,40
15:39:43.433890,4096
15:39:43.433890,0
15:39:43.433890,79
15:39:43.433890,19456
15:39:43.433890,0
15:39:43.433890,59
15:39:43.433890,23296
15:39:43.433890,0
15:39:43.433890,110
15:39:43.433890,26880
15:39:43.433890,0
15:39:43.433890,119
15:39:43.433890,-28928
15:39:43.433890,0
15:39:43.433890,155
15:39:43.433890,-22016
15:39:43.433890,0
15:39:43.433890,189
15:39:43.433890,-12288
15:39:43.433890,0
15:39:43.433890,222
15:39:43.433890,-2560
15:39:43.433890,0
15:39:43.433890,278
15:39:43.928581,292
15:39:43.928581,10496
15:39:43.928581,1
15:39:43.928581,301
15:39:43.928581,12288
15:39:43.928581,1
15:39:43.928581,299
15:39:43.928581,6656
15:39:43.928581,1
15:39:43.928581,246
15:39:43.928581,-17920
15:39:43.928581,0
15:39:43.928581,117
15:39:43.928581,13312
15:39:43.928581,0
15:39:43.928581,-4
15:39:43.928581,-11265
15:39:43.928581,-1
15:39:43.928581,-64
15:39:43.928581,-17921
15:39:43.928581,-1
15:39:43.928581,-83
15:39:43.928581,-21761
15:39:43.928581,-1
15:39:43.928581,-81
15:39:43.928581,-16897
15:39:43.928581,-1
15:39:43.928581,-55
15:39:43.928581,-11777
15:39:43.928581,-1
15:39:43.928581,-43
15:39:43.928581,-8705
15:39:43.928581,-1
15:39:43.928581,-31
15:39:43.928581,-6913
15:39:43.928581,-1
15:39:43.928581,-26
15:39:43.928581,-5121
15:39:43.928581,-1
15:39:43.928581,-14
15:39:43.928581,-2561
15:39:43.928581,-1
15:39:43.928581,-14
15:39:43.928581,-2561
15:39:43.928581,-1
15:39:43.928581,-11
15:39:43.928581,-3329
15:39:43.928581,-1
15:39:43.928581,-9
15:39:43.928581,-1537
15:39:43.928581,-1
15:39:43.928581,-7
15:39:43.928581,-3329
15:39:43.928581,-1
15:39:43.928581,-16
15:39:43.928581,-769
15:39:43.928581,-1
15:39:43.928581,4
15:39:43.928581,-1024
15:39:43.928581,-1
15:39:43.928581,-4
15:39:43.928581,7423
15:39:43.928581,0
15:39:43.928581,59
15:39:43.928581,17152
15:39:43.928581,0
15:39:43.928581,64
15:39:43.928581,11520
15:39:43.928581,0
15:39:43.928581,14
15:39:43.928581,512
15:39:43.928581,0
15:39:43.928581,0
15:39:43.928581,-1024
15:39:43.928581,-1
15:39:43.928581,-2
15:39:43.928581,1279
15:39:43.928581,0
15:39:43.928581,4
15:39:43.928581,0
15:39:43.928581,0
15:39:43.928581,16
15:39:43.928581,18176
15:39:43.928581,0
15:39:43.928581,201
15:39:43.928581,-19456
15:39:43.928581,1
15:39:43.928581,695
15:39:43.928581,9984
15:39:43.928581,3
15:39:43.928581,474
15:39:43.928581,-17664
15:39:43.928581,-2
15:39:43.928581,-754
15:39:43.928581,-30977
15:39:43.928581,-2
15:39:43.928581,0
15:39:43.928581,-512
15:39:43.928581,-1
15:39:43.928581,21
15:39:43.928581,24320
15:39:43.928581,0
15:39:43.928581,76
15:39:43.928581,15872
15:39:43.928581,0
15:39:43.928581,93
15:39:43.928581,28160
15:39:43.928581,0
15:39:43.928581,115
15:39:44.469245,122
15:39:44.469245,-30720
15:39:44.469245,0
15:39:44.469245,158
15:39:44.469245,-18944
15:39:44.469245,0
15:39:44.469245,198
15:39:44.469245,-11008
15:39:44.469245,0
15:39:44.469245,237
15:39:44.469245,0
15:39:44.469245,1
15:39:44.469245,275
15:39:44.469245,11520
15:39:44.469245,1
15:39:44.469245,318
15:39:44.469245,14080
15:39:44.469245,1
15:39:44.469245,301
15:39:44.469245,8448
15:39:44.469245,1
15:39:44.469245,273
15:39:44.469245,-6144
15:39:44.469245,0
15:39:44.469245,165
15:39:44.469245,26368
15:39:44.469245,0
15:39:44.469245,43
15:39:44.469245,-4096
15:39:44.469245,-1
15:39:44.469245,-55
15:39:44.469245,-18689
15:39:44.469245,-1
15:39:44.469245,-81
15:39:44.469245,-20993
15:39:44.469245,-1
15:39:44.469245,-83
15:39:44.469245,-20993
15:39:44.469245,-1
15:39:44.469245,-71
15:39:44.469245,-14849
15:39:44.469245,-1
15:39:44.469245,-55
15:39:44.469245,-12545
15:39:44.469245,-1
15:39:44.469245,-38
15:39:44.469245,-7681
15:39:44.469245,-1
15:39:44.469245,-28
15:39:44.469245,-6913
15:39:44.469245,-1
15:39:44.469245,-23
15:39:44.469245,-6401
15:39:44.469245,-1
15:39:44.469245,-21
15:39:44.469245,-2561
15:39:44.469245,-1
15:39:44.469245,-14
15:39:44.469245,-3841
15:39:44.469245,-1
15:39:44.469245,-11
15:39:44.469245,-2049
15:39:44.469245,-1
15:39:44.469245,-9
15:39:44.469245,-2561
15:39:44.469245,-1
15:39:44.469245,-9
15:39:44.469245,255
15:39:44.469245,0
15:39:44.469245,4
15:39:44.469245,512
15:39:44.469245,0
15:39:44.469245,9
15:39:44.469245,6656
15:39:44.469245,0
15:39:44.469245,50
15:39:44.469245,17152
15:39:44.469245,0
15:39:44.469245,59
15:39:44.469245,8960
15:39:44.469245,0
15:39:44.469245,9
15:39:44.469245,-1792
15:39:44.469245,-1
15:39:44.469245,-7
15:39:44.469245,-257
15:39:44.469245,-1
15:39:44.469245,-4
15:39:44.469245,-2561
15:39:44.469245,-1
15:39:44.469245,-4
15:39:44.469245,255
15:39:44.469245,0
15:39:44.469245,21
15:39:44.469245,26368
15:39:44.469245,0
15:39:44.469245,282
15:39:44.469245,7424
15:39:44.469245,2
15:39:44.469245,764
15:39:44.469245,-7168
15:39:44.469245,2
15:39:44.469245,191
15:39:44.469245,-20992
15:39:44.469245,-3
15:39:44.469245,-704
15:39:44.469245,16895
15:39:44.469245,-1
15:39:44.469245,35
15:39:45.053883,-16
15:39:45.053883,13055
15:39:45.053883,0
15:39:45.053883,98
15:39:45.053883,15872
15:39:45.053883,0
15:39:45.053883,74
15:39:45.053883,27392
15:39:45.053883,0
15:39:45.053883,112
15:39:45.053883,31232
15:39:45.053883,0
15:39:45.053883,139
15:39:45.053883,-25856
15:39:45.053883,0
15:39:45.053883,172
15:39:45.053883,-16640
15:39:45.053883,0
15:39:45.053883,213
15:39:45.053883,-5632
15:39:45.053883,0
15:39:45.053883,256
15:39:45.053883,6144
15:39:45.053883,1
15:39:45.053883,304
15:39:45.053883,15360
15:39:45.053883,1
15:39:45.053883,318
15:39:45.053883,14592
15:39:45.053883,1
15:39:45.053883,306
15:39:45.053883,8448
15:39:45.053883,1
15:39:45.053883,249
15:39:45.053883,-18432
15:39:45.053883,0
15:39:45.053883,115
15:39:45.053883,12800
15:39:45.053883,0
15:39:45.053883,-4
15:39:45.053883,-11777
15:39:45.053883,-1
15:39:45.053883,-74
15:39:45.053883,-23041
15:39:45.053883,-1
15:39:45.053883,-98
15:39:45.053883,-24833
15:39:45.053883,-1
15:39:45.053883,-95
15:39:45.053883,-23553
15:39:45.053883,-1
15:39:45.053883,-86
15:39:45.053883,-17921
15:39:45.053883,-1
15:39:45.053883,-57
15:39:45.053883,-13057
15:39:45.053883,-1
15:39:45.053883,-47
15:39:45.053883,-9985
15:39:45.053883,-1
15:39:45.053883,-35
15:39:45.053883,-8193
15:39:45.053883,-1
15:39:45.053883,-28
15:39:45.053883,-6401
15:39:45.053883,-1
15:39:45.053883,-23
15:39:45.053883,-5121
15:39:45.053883,-1
15:39:45.053883,-23
15:39:45.053883,-6401
15:39:45.053883,-1
15:39:45.053883,-23
15:39:45.053883,-5633
15:39:45.053883,-1
15:39:45.053883,-23
15:39:45.053883,-5633
15:39:45.053883,-1
15:39:45.053883,-21
15:39:45.053883,-4609
15:39:45.053883,-1
15:39:45.053883,-16
15:39:45.053883,-3329
15:39:45.053883,-1
15:39:45.053883,-9
15:39:45.053883,255
15:39:45.053883,0
15:39:45.053883,11
15:39:45.053883,7168
15:39:45.053883,0
15:39:45.053883,47
15:39:45.053883,11008
15:39:45.053883,0
15:39:45.053883,21
15:39:45.053883,2304
15:39:45.053883,0
15:39:45.053883,2
15:39:45.053883,-2816
15:39:45.053883,-1
15:39:45.053883,-19
15:39:45.053883,-3841
15:39:45.053883,-1
15:39:45.053883,-11
15:39:45.053883,-1537
