timestamp,ecg
15:45:45.483835,52
15:45:45.483835,12800
15:45:45.483835,0
15:45:45.483835,35
15:45:45.483835,5888
15:45:45.483835,0
15:45:45.483835,11
15:45:45.483835,-2304
15:45:45.483835,-1
15:45:45.483835,-33
15:45:45.483835,-13825
15:45:45.483835,-1
15:45:45.483835,-76
15:45:45.483835,-24833
15:45:45.483835,-1
15:45:45.483835,-115
15:45:45.483835,-30209
15:45:45.483835,-1
15:45:45.483835,-100
15:45:45.483835,-17921
15:45:45.483835,-1
15:45:45.483835,-50
15:45:45.483835,-8705
15:45:45.483835,-1
15:45:45.483835,-23
15:45:45.483835,-3841
15:45:45.483835,-1
15:45:45.483835,-16
15:45:45.483835,-3841
15:45:45.483835,-1
15:45:45.483835,-14
15:45:45.483835,-4609
15:45:45.483835,-1
15:45:45.483835,-28
15:45:45.483835,-6913
15:45:45.483835,-1
15:45:45.483835,-26
15:45:45.483835,-7681
15:45:45.483835,-1
15:45:45.483835,-31
15:45:45.483835,-6401
15:45:45.483835,-1
15:45:45.483835,-19
15:45:45.483835,-4609
15:45:45.483835,-1
15:45:45.483835,-19
15:45:45.483835,-6401
15:45:45.483835,-1
15:45:45.483835,-33
15:45:45.483835,-7681
15:45:45.483835,-1
15:45:45.483835,-31
15:45:45.483835,-8193
15:45:45.483835,-1
15:45:45.483835,-38
15:45:45.483835,-9473
15:45:45.483835,-1
15:45:45.483835,-40
15:45:45.483835,-11265
15:45:45.483835,-1
15:45:45.483835,-52
15:45:45.483835,-12545
15:45:45.483835,-1
15:45:45.483835,-52
15:45:45.483835,-13057
15:45:45.483835,-1
15:45:45.483835,-52
15:45:45.483835,-12545
15:45:45.483835,-1
15:45:45.483835,-52
15:45:45.483835,-13825
15:45:45.483835,-1
15:45:45.483835,-55
15:45:45.483835,-13825
15:45:45.483835,-1
15:45:45.483835,-55
15:45:45.483835,-14337
15:45:45.483835,-1
15:45:45.483835,-57
15:45:45.483835,-13825
15:45:45.483835,-1
15:45:45.483835,-55
15:45:45.483835,-13825
15:45:45.483835,-1
15:45:45.483835,-55
15:45:45.483835,-14337
15:45:45.483835,-1
15:45:45.483835,-59
15:45:45.483835,-15617
15:45:45.483835,-1
15:45:45.483835,-62
15:45:45.483835,-14849
15:45:45.483835,-1
15:45:45.483835,-57
15:45:45.483835,-14337
15:45:45.483835,-1
15:45:45.483835,-62
15:45:45.483835,-14849
15:45:45.483835,-1
15:45:45.483835,-57
15:45:45.483835,-14849
15:45:45.483835,-1
15:45:45.483835,-55
15:45:45.483835,-13825
15:45:45.483835,-1
15:45:45.483835,-55
15:45:45.483835,-9985
15:45:45.483835,-1
15:45:45.483835,-31
15:45:46.022401,-52
15:45:46.022401,-17409
15:45:46.022401,-1
15:45:46.022401,-69
15:45:46.022401,-19969
15:45:46.022401,-1
15:45:46.022401,-79
15:45:46.022401,-14337
15:45:46.022401,-1
15:45:46.022401,-50
15:45:46.022401,-16129
15:45:46.022401,-1
15:45:46.022401,-69
15:45:46.022401,-15617
15:45:46.022401,-1
15:45:46.022401,-64
15:45:46.022401,-16129
15:45:46.022401,-1
15:45:46.022401,-55
15:45:46.022401,-11265
15:45:46.022401,-1
15:45:46.022401,7
15:45:46.022401,-32512
15:45:46.022401,0
15:45:46.022401,95
15:45:46.022401,-2048
15:45:46.022401,-3
15:45:46.022401,-1421
15:45:46.022401,7167
15:45:46.022401,-6
15:45:46.022401,-764
15:45:46.022401,-2305
15:45:46.022401,-2
15:45:46.022401,-146
15:45:46.022401,6143
15:45:46.022401,0
15:45:46.022401,131
15:45:46.022401,25088
15:45:46.022401,0
15:45:46.022401,91
15:45:46.022401,28160
15:45:46.022401,0
15:45:46.022401,103
15:45:46.022401,24320
15:45:46.022401,0
15:45:46.022401,91
15:45:46.022401,21248
15:45:46.022401,0
15:45:46.022401,76
15:45:46.022401,19456
15:45:46.022401,0
15:45:46.022401,74
15:45:46.022401,16384
15:45:46.022401,0
15:45:46.022401,62
15:45:46.022401,15872
15:45:46.022401,0
15:45:46.022401,55
15:45:46.022401,12032
15:45:46.022401,0
15:45:46.022401,47
15:45:46.022401,10240
15:45:46.022401,0
15:45:46.022401,33
15:45:46.022401,6656
15:45:46.022401,0
15:45:46.022401,11
15:45:46.022401,-2304
15:45:46.022401,-1
15:45:46.022401,-33
15:45:46.022401,-13825
15:45:46.022401,-1
15:45:46.022401,-71
15:45:46.022401,-24065
15:45:46.022401,-1
15:45:46.022401,-117
15:45:46.022401,-32257
15:45:46.022401,-1
15:45:46.022401,-122
15:45:46.022401,-24065
15:45:46.022401,-1
15:45:46.022401,-67
15:45:46.022401,-11265
15:45:46.022401,-1
15:45:46.022401,-28
15:45:46.022401,-2049
15:45:46.022401,-1
15:45:46.022401,-2
15:45:46.022401,-769
15:45:46.022401,-1
15:45:46.022401,-4
15:45:46.022401,-1537
15:45:46.022401,-1
15:45:46.022401,-7
15:45:46.022401,-1537
15:45:46.022401,-1
15:45:46.022401,-4
15:45:46.022401,-769
15:45:46.022401,-1
15:45:46.022401,-2
15:45:46.022401,-769
15:45:46.022401,-1
15:45:46.022401,-9
15:45:46.022401,-2561
15:45:46.022401,-1
15:45:46.022401,-14
15:45:46.022401,-5633
15:45:46.022401,-1
15:45:46.022401,-23
15:45:46.564658,-26
15:45:46.564658,-9473
15:45:46.564658,-1
15:45:46.564658,-45
15:45:46.564658,-9473
15:45:46.564658,-1
15:45:46.564658,-33
15:45:46.564658,-9985
15:45:46.564658,-1
15:45:46.564658,-50
15:45:46.564658,-12545
15:45:46.564658,-1
15:45:46.564658,-45
15:45:46.564658,-9985
15:45:46.564658,-1
15:45:46.564658,-33
15:45:46.564658,-8193
15:45:46.564658,-1
15:45:46.564658,-38
15:45:46.564658,-9985
15:45:46.564658,-1
15:45:46.564658,-40
15:45:46.564658,-10753
15:45:46.564658,-1
15:45:46.564658,-43
15:45:46.564658,-11265
15:45:46.564658,-1
15:45:46.564658,-47
15:45:46.564658,-11265
15:45:46.564658,-1
15:45:46.564658,-40
15:45:46.564658,-10753
15:45:46.564658,-1
15:45:46.564658,-45
15:45:46.564658,-11265
15:45:46.564658,-1
15:45:46.564658,-47
15:45:46.564658,-13057
15:45:46.564658,-1
15:45:46.564658,-50
15:45:46.564658,-11777
15:45:46.564658,-1
15:45:46.564658,-52
15:45:46.564658,-13057
15:45:46.564658,-1
15:45:46.564658,-47
15:45:46.564658,-11777
15:45:46.564658,-1
15:45:46.564658,-40
15:45:46.564658,-5633
15:45:46.564658,-1
15:45:46.564658,-16
15:45:46.564658,-9473
15:45:46.564658,-1
15:45:46.564658,-57
15:45:46.564658,-15617
15:45:46.564658,-1
15:45:46.564658,-67
15:45:46.564658,-17409
15:45:46.564658,-1
15:45:46.564658,-55
15:45:46.564658,-13057
15:45:46.564658,-1
15:45:46.564658,-59
15:45:46.564658,-16129
15:45:46.564658,-1
15:45:46.564658,-64
15:45:46.564658,-13825
15:45:46.564658,-1
15:45:46.564658,-55
15:45:46.564658,-15617
15:45:46.564658,-1
15:45:46.564658,-59
15:45:46.564658,-769
15:45:46.564658,-1
15:45:46.564658,129
15:45:46.564658,26368
15:45:46.564658,0
15:45:46.564658,-520
15:45:46.564658,18687
15:45:46.564658,-6
15:45:46.564658,-1612
15:45:46.564658,-23809
15:45:46.564658,-4
15:45:46.564658,-285
15:45:46.564658,-32257
15:45:46.564658,-1
15:45:46.564658,26
15:45:46.564658,-32512
15:45:46.564658,0
15:45:46.564658,105
15:45:46.564658,27392
15:45:46.564658,0
15:45:46.564658,127
15:45:46.564658,28672
15:45:46.564658,0
15:45:46.564658,100
15:45:46.564658,26880
15:45:46.564658,0
15:45:46.564658,98
15:45:46.564658,23296
15:45:46.564658,0
15:45:46.564658,91
15:45:46.564658,22528
15:45:46.564658,0
15:45:46.564658,76
15:45:46.564658,18944
15:45:46.564658,0
15:45:46.564658,71
15:45:47.145941,69
15:45:47.145941,17152
15:45:47.145941,0
15:45:47.145941,67
15:45:47.145941,15872
15:45:47.145941,0
15:45:47.145941,55
15:45:47.145941,12032
15:45:47.145941,0
15:45:47.145941,40
15:45:47.145941,7168
15:45:47.145941,0
15:45:47.145941,14
15:45:47.145941,-2304
15:45:47.145941,-1
15:45:47.145941,-35
15:45:47.145941,-15617
15:45:47.145941,-1
15:45:47.145941,-86
15:45:47.145941,-26113
15:45:47.145941,-1
15:45:47.145941,-105
15:45:47.145941,-23041
15:45:47.145941,-1
15:45:47.145941,-69
15:45:47.145941,-10753
15:45:47.145941,-1
15:45:47.145941,-26
15:45:47.145941,-5121
15:45:47.145941,-1
15:45:47.145941,-14
15:45:47.145941,-2049
15:45:47.145941,-1
15:45:47.145941,-11
15:45:47.145941,-3329
15:45:47.145941,-1
15:45:47.145941,-9
15:45:47.145941,-2049
15:45:47.145941,-1
15:45:47.145941,-16
15:45:47.145941,-3841
15:45:47.145941,-1
15:45:47.145941,-11
15:45:47.145941,-2561
15:45:47.145941,-1
15:45:47.145941,-9
15:45:47.145941,-2561
15:45:47.145941,-1
15:45:47.145941,-14
15:45:47.145941,-4609
15:45:47.145941,-1
15:45:47.145941,-21
15:45:47.145941,-4609
15:45:47.145941,-1
15:45:47.145941,-23
15:45:47.145941,-7681
15:45:47.145941,-1
15:45:47.145941,-35
15:45:47.145941,-8193
15:45:47.145941,-1
15:45:47.145941,-40
15:45:47.145941,-11265
15:45:47.145941,-1
15:45:47.145941,-43
15:45:47.145941,-11265
15:45:47.145941,-1
15:45:47.145941,-50
15:45:47.145941,-12545
15:45:47.145941,-1
15:45:47.145941,-52
15:45:47.145941,-13057
15:45:47.145941,-1
15:45:47.145941,-50
15:45:47.145941,-13057
15:45:47.145941,-1
15:45:47.145941,-57
15:45:47.145941,-14849
15:45:47.145941,-1
15:45:47.145941,-59
15:45:47.145941,-14337
15:45:47.145941,-1
15:45:47.145941,-57
15:45:47.145941,-13825
15:45:47.145941,-1
15:45:47.145941,-52
15:45:47.145941,-14337
15:45:47.145941,-1
15:45:47.145941,-62
15:45:47.145941,-14337
15:45:47.145941,-1
15:45:47.145941,-52
15:45:47.145941,-13825
15:45:47.145941,-1
15:45:47.145941,-57
15:45:47.145941,-15617
15:45:47.145941,-1
15:45:47.145941,-62
15:45:47.145941,-14337
15:45:47.145941,-1
15:45:47.145941,-55
15:45:47.145941,-14849
15:45:47.145941,-1
15:45:47.145941,-64
15:45:47.145941,-16129
15:45:47.145941,-1
15:45:47.145941,-64
15:45:47.145941,-14849
15:45:47.145941,-1
15:45:47.145941,-52
15:45:47.733850,-47
15:45:47.733850,-9473
15:45:47.733850,-1
15:45:47.733850,-35
15:45:47.733850,-13825
15:45:47.733850,-1
15:45:47.733850,-76
15:45:47.733850,-20481
15:45:47.733850,-1
15:45:47.733850,-81
15:45:47.733850,-19201
15:45:47.733850,-1
15:45:47.733850,-64
15:45:47.733850,-14337
15:45:47.733850,-1
15:45:47.733850,-55
15:45:47.733850,-13057
15:45:47.733850,-1
15:45:47.733850,-57
15:45:47.733850,-15617
15:45:47.733850,-1
15:45:47.733850,-59
15:45:47.733850,-14337
15:45:47.733850,-1
15:45:47.733850,-52
15:45:47.733850,3071
15:45:47.733850,0
15:45:47.733850,139
15:45:47.733850,4864
15:45:47.733850,0
15:45:47.733850,-740
15:45:47.733850,-24833
15:45:47.733850,-7
15:45:47.733850,-1572
15:45:47.733850,9983
15:45:47.733850,-3
15:45:47.733850,-208
15:45:47.733850,-20993
15:45:47.733850,-1
15:45:47.733850,64
15:45:47.733850,-27136
15:45:47.733850,0
15:45:47.733850,117
15:45:47.733850,29440
15:45:47.733850,0
15:45:47.733850,134
15:45:47.733850,30464
15:45:47.733850,0
15:45:47.733850,107
15:45:47.733850,27392
15:45:47.733850,0
15:45:47.733850,100
15:45:47.733850,23808
15:45:47.733850,0
15:45:47.733850,91
15:45:47.733850,22016
15:45:47.733850,0
15:45:47.733850,81
15:45:47.733850,20224
15:45:47.733850,0
15:45:47.733850,74
15:45:47.733850,17664
15:45:47.733850,0
15:45:47.733850,67
15:45:47.733850,17152
15:45:47.733850,0
15:45:47.733850,62
15:45:47.733850,14080
15:45:47.733850,0
15:45:47.733850,47
15:45:47.733850,9728
15:45:47.733850,0
15:45:47.733850,21
15:45:47.733850,1024
15:45:47.733850,0
15:45:47.733850,-16
15:45:47.733850,-9473
15:45:47.733850,-1
15:45:47.733850,-62
15:45:47.733850,-20993
15:45:47.733850,-1
15:45:47.733850,-98
15:45:47.733850,-25345
15:45:47.733850,-1
15:45:47.733850,-88
15:45:47.733850,-16129
15:45:47.733850,-1
15:45:47.733850,-40
15:45:47.733850,-6401
15:45:47.733850,-1
15:45:47.733850,-21
15:45:47.733850,-3841
15:45:47.733850,-1
15:45:47.733850,-11
15:45:47.733850,-2561
15:45:47.733850,-1
15:45:47.733850,-14
15:45:47.733850,-4609
15:45:47.733850,-1
15:45:47.733850,-21
15:45:47.733850,-5121
15:45:47.733850,-1
15:45:47.733850,-21
15:45:47.733850,-5121
15:45:47.733850,-1
15:45:47.733850,-21
15:45:47.733850,-5121
15:45:47.733850,-1
15:45:47.733850,-21
15:45:48.227900,-19
15:45:48.227900,-4609
15:45:48.227900,-1
15:45:48.227900,-19
15:45:48.227900,-3841
15:45:48.227900,-1
15:45:48.227900,-14
15:45:48.227900,-3841
15:45:48.227900,-1
15:45:48.227900,-21
15:45:48.227900,-5121
15:45:48.227900,-1
15:45:48.227900,-23
15:45:48.227900,-6913
15:45:48.227900,-1
15:45:48.227900,-35
15:45:48.227900,-9473
15:45:48.227900,-1
15:45:48.227900,-38
15:45:48.227900,-7681
15:45:48.227900,-1
15:45:48.227900,-28
15:45:48.227900,-8193
15:45:48.227900,-1
15:45:48.227900,-38
15:45:48.227900,-9473
15:45:48.227900,-1
15:45:48.227900,-35
15:45:48.227900,-9985
15:45:48.227900,-1
15:45:48.227900,-45
15:45:48.227900,-10753
15:45:48.227900,-1
15:45:48.227900,-43
15:45:48.227900,-11777
15:45:48.227900,-1
15:45:48.227900,-47
15:45:48.227900,-11265
15:45:48.227900,-1
15:45:48.227900,-43
15:45:48.227900,-11777
15:45:48.227900,-1
15:45:48.227900,-52
15:45:48.227900,-13057
15:45:48.227900,-1
15:45:48.227900,-50
15:45:48.227900,-11777
15:45:48.227900,-1
15:45:48.227900,-50
15:45:48.227900,-13057
15:45:48.227900,-1
15:45:48.227900,-52
15:45:48.227900,-12545
15:45:48.227900,-1
15:45:48.227900,-55
15:45:48.227900,-13825
15:45:48.227900,-1
15:45:48.227900,-50
15:45:48.227900,-13057
15:45:48.227900,-1
15:45:48.227900,-55
15:45:48.227900,-13825
15:45:48.227900,-1
15:45:48.227900,-55
15:45:48.227900,-13825
15:45:48.227900,-1
15:45:48.227900,-55
15:45:48.227900,-13057
15:45:48.227900,-1
15:45:48.227900,-57
15:45:48.227900,-13825
15:45:48.227900,-1
15:45:48.227900,-52
15:45:48.227900,-11265
15:45:48.227900,-1
15:45:48.227900,-38
15:45:48.227900,-8705
15:45:48.227900,-1
15:45:48.227900,-57
15:45:48.227900,-17921
15:45:48.227900,-1
15:45:48.227900,-71
15:45:48.227900,-20481
15:45:48.227900,-1
15:45:48.227900,-79
15:45:48.227900,-14849
15:45:48.227900,-1
15:45:48.227900,-55
15:45:48.227900,-16129
15:45:48.227900,-1
15:45:48.227900,-62
15:45:48.227900,-16129
15:45:48.227900,-1
15:45:48.227900,-71
15:45:48.227900,-17921
15:45:48.227900,-1
15:45:48.227900,-69
15:45:48.227900,-14337
15:45:48.227900,-1
15:45:48.227900,16
15:45:48.227900,-29952
15:45:48.227900,0
15:45:48.227900,-35
15:45:48.227900,-22529
15:45:48.227900,-4
15:45:48.227900,-1672
15:45:48.227900,24831
15:45:48.227900,-6
15:45:48.227900,-596
15:45:48.857297,-189
15:45:48.857297,-21761
15:45:48.857297,-1
15:45:48.857297,76
15:45:48.857297,-30720
15:45:48.857297,0
15:45:48.857297,105
15:45:48.857297,31232
15:45:48.857297,0
15:45:48.857297,136
15:45:48.857297,29952
15:45:48.857297,0
15:45:48.857297,112
15:45:48.857297,28672
15:45:48.857297,0
15:45:48.857297,105
15:45:48.857297,24320
15:45:48.857297,0
15:45:48.857297,88
15:45:48.857297,20736
15:45:48.857297,0
15:45:48.857297,76
15:45:48.857297,19456
15:45:48.857297,0
15:45:48.857297,67
15:45:48.857297,15104
15:45:48.857297,0
15:45:48.857297,64
15:45:48.857297,16384
15:45:48.857297,0
15:45:48.857297,52
15:45:48.857297,11520
15:45:48.857297,0
15:45:48.857297,43
15:45:48.857297,8448
15:45:48.857297,0
15:45:48.857297,14
15:45:48.857297,-1792
15:45:48.857297,-1
15:45:48.857297,-33
15:45:48.857297,-14337
15:45:48.857297,-1
15:45:48.857297,-76
15:45:48.857297,-24065
15:45:48.857297,-1
15:45:48.857297,-105
15:45:48.857297,-26113
15:45:48.857297,-1
15:45:48.857297,-86
15:45:48.857297,-15617
15:45:48.857297,-1
15:45:48.857297,-38
15:45:48.857297,-5121
15:45:48.857297,-1
15:45:48.857297,-14
15:45:48.857297,-2561
15:45:48.857297,-1
15:45:48.857297,-7
15:45:48.857297,-257
15:45:48.857297,-1
15:45:48.857297,-7
15:45:48.857297,-2561
15:45:48.857297,-1
15:45:48.857297,-16
15:45:48.857297,-3841
15:45:48.857297,-1
15:45:48.857297,-16
15:45:48.857297,-3841
15:45:48.857297,-1
15:45:48.857297,-16
15:45:48.857297,-3841
15:45:48.857297,-1
15:45:48.857297,-16
15:45:48.857297,-3329
15:45:48.857297,-1
15:45:48.857297,-14
15:45:48.857297,-3841
15:45:48.857297,-1
15:45:48.857297,-19
15:45:48.857297,-5121
15:45:48.857297,-1
15:45:48.857297,-23
15:45:48.857297,-6913
15:45:48.857297,-1
15:45:48.857297,-33
15:45:48.857297,-9473
15:45:48.857297,-1
15:45:48.857297,-43
15:45:48.857297,-11777
15:45:48.857297,-1
15:45:48.857297,-47
15:45:48.857297,-11265
15:45:48.857297,-1
15:45:48.857297,-45
15:45:48.857297,-12545
15:45:48.857297,-1
15:45:48.857297,-50
15:45:48.857297,-9985
15:45:48.857297,-1
15:45:48.857297,-38
15:45:48.857297,-11777
15:45:48.857297,-1
15:45:48.857297,-50
15:45:48.857297,-11265
15:45:48.857297,-1
15:45:48.857297,-45
15:45:48.857297,-11777
15:45:48.857297,-1
15:45:48.857297,-47
15:45:49.440498,-52
15:45:49.440498,-13057
15:45:49.440498,-1
15:45:49.440498,-50
15:45:49.440498,-13057
15:45:49.440498,-1
15:45:49.440498,-55
15:45:49.440498,-12545
15:45:49.440498,-1
15:45:49.440498,-47
15:45:49.440498,-13057
15:45:49.440498,-1
15:45:49.440498,-57
15:45:49.440498,-13825
15:45:49.440498,-1
15:45:49.440498,-50
15:45:49.440498,-11777
15:45:49.440498,-1
15:45:49.440498,-40
15:45:49.440498,-5633
15:45:49.440498,-1
15:45:49.440498,-14
15:45:49.440498,-6913
15:45:49.440498,-1
15:45:49.440498,-50
15:45:49.440498,-14849
15:45:49.440498,-1
15:45:49.440498,-67
15:45:49.440498,-15617
15:45:49.440498,-1
15:45:49.440498,-43
15:45:49.440498,-9985
15:45:49.440498,-1
15:45:49.440498,-55
15:45:49.440498,-13057
15:45:49.440498,-1
15:45:49.440498,-47
15:45:49.440498,-12545
15:45:49.440498,-1
15:45:49.440498,-55
15:45:49.440498,-13825
15:45:49.440498,-1
15:45:49.440498,-50
15:45:49.440498,1279
15:45:49.440498,0
15:45:49.440498,139
15:45:49.440498,25088
15:45:49.440498,0
15:45:49.440498,-534
15:45:49.440498,27903
15:45:49.440498,-6
15:45:49.440498,-1490
15:45:49.440498,5631
15:45:49.440498,-3
15:45:49.440498,-263
15:45:49.440498,30207
15:45:49.440498,-1
15:45:49.440498,33
15:45:49.440498,-32512
15:45:49.440498,0
15:45:49.440498,98
15:45:49.440498,25600
15:45:49.440498,0
15:45:49.440498,122
15:45:49.440498,26880
15:45:49.440498,0
15:45:49.440498,91
15:45:49.440498,23808
15:45:49.440498,0
15:45:49.440498,88
15:45:49.440498,20736
15:45:49.440498,0
15:45:49.440498,79
15:45:49.440498,19456
15:45:49.440498,0
15:45:49.440498,71
15:45:49.440498,17152
15:45:49.440498,0
15:45:49.440498,62
15:45:49.440498,15104
15:45:49.440498,0
15:45:49.440498,59
15:45:49.440498,14080
15:45:49.440498,0
15:45:49.440498,45
15:45:49.440498,9728
15:45:49.440498,0
15:45:49.440498,31
15:45:49.440498,4864
15:45:49.440498,0
15:45:49.440498,-2
15:45:49.440498,-5633
15:45:49.440498,-1
15:45:49.440498,-47
15:45:49.440498,-18689
15:45:49.440498,-1
15:45:49.440498,-93
15:45:49.440498,-27905
15:45:49.440498,-1
15:45:49.440498,-122
15:45:49.440498,-29185
15:45:49.440498,-1
15:45:49.440498,-88
15:45:49.440498,-14337
15:45:49.440498,-1
15:45:49.440498,-33
15:45:49.440498,-4609
15:45:49.440498,-1
15:45:49.440498,-11
15:45:49.939477,-4
15:45:49.939477,-769
15:45:49.939477,-1
15:45:49.939477,-7
15:45:49.939477,-1537
15:45:49.939477,-1
15:45:49.939477,-7
15:45:49.939477,-257
15:45:49.939477,-1
15:45:49.939477,2
15:45:49.939477,-1024
15:45:49.939477,-1
15:45:49.939477,-9
15:45:49.939477,-1537
15:45:49.939477,-1
15:45:49.939477,-7
15:45:49.939477,-2561
15:45:49.939477,-1
15:45:49.939477,-14
15:45:49.939477,-3841
15:45:49.939477,-1
15:45:49.939477,-23
15:45:49.939477,-7681
15:45:49.939477,-1
15:45:49.939477,-31
15:45:49.939477,-6401
15:45:49.939477,-1
15:45:49.939477,-26
15:45:49.939477,-7681
15:45:49.939477,-1
15:45:49.939477,-33
15:45:49.939477,-8705
15:45:49.939477,-1
15:45:49.939477,-40
15:45:49.939477,-9985
15:45:49.939477,-1
15:45:49.939477,-38
15:45:49.939477,-9473
15:45:49.939477,-1
15:45:49.939477,-40
15:45:49.939477,-10753
15:45:49.939477,-1
15:45:49.939477,-45
15:45:49.939477,-11265
15:45:49.939477,-1
15:45:49.939477,-45
15:45:49.939477,-11265
15:45:49.939477,-1
15:45:49.939477,-47
15:45:49.939477,-12545
15:45:49.939477,-1
15:45:49.939477,-52
15:45:49.939477,-13825
15:45:49.939477,-1
15:45:49.939477,-55
15:45:49.939477,-12545
15:45:49.939477,-1
15:45:49.939477,-50
15:45:49.939477,-13057
15:45:49.939477,-1
15:45:49.939477,-55
15:45:49.939477,-14337
15:45:49.939477,-1
15:45:49.939477,-57
15:45:49.939477,-13057
15:45:49.939477,-1
15:45:49.939477,-52
15:45:49.939477,-13057
15:45:49.939477,-1
15:45:49.939477,-52
15:45:49.939477,-12545
15:45:49.939477,-1
15:45:49.939477,-55
15:45:49.939477,-13825
15:45:49.939477,-1
15:45:49.939477,-50
15:45:49.939477,-11265
15:45:49.939477,-1
15:45:49.939477,-38
15:45:49.939477,-6913
15:45:49.939477,-1
15:45:49.939477,-28
15:45:49.939477,-10753
15:45:49.939477,-1
15:45:49.939477,-59
15:45:49.939477,-16897
15:45:49.939477,-1
15:45:49.939477,-76
15:45:49.939477,-16897
15:45:49.939477,-1
15:45:49.939477,-47
15:45:49.939477,-11265
15:45:49.939477,-1
15:45:49.939477,-57
15:45:49.939477,-15617
15:45:49.939477,-1
15:45:49.939477,-62
15:45:49.939477,-16129
15:45:49.939477,-1
15:45:49.939477,-64
15:45:49.939477,-15617
15:45:49.939477,-1
15:45:49.939477,-55
15:45:49.939477,2047
15:45:49.939477,0
15:45:49.939477,139
15:45:49.939477,7168
15:45:49.939477,0
15:45:49.939477,-721
15:45:50.475505,-1624
15:45:50.475505,-9985
15:45:50.475505,-7
15:45:50.475505,-740
15:45:50.475505,12031
15:45:50.475505,-1
15:45:50.475505,-83
15:45:50.475505,15359
15:45:50.475505,0
15:45:50.475505,141
15:45:50.475505,29440
15:45:50.475505,0
15:45:50.475505,122
15:45:50.475505,-27648
15:45:50.475505,0
15:45:50.475505,134
15:45:50.475505,29952
15:45:50.475505,0
15:45:50.475505,119
15:45:50.475505,29440
15:45:50.475505,0
15:45:50.475505,103
15:45:50.475505,25088
15:45:50.475505,0
15:45:50.475505,95
15:45:50.475505,23296
15:45:50.475505,0
15:45:50.475505,86
15:45:50.475505,21248
15:45:50.475505,0
15:45:50.475505,79
15:45:50.475505,18944
15:45:50.475505,0
15:45:50.475505,71
15:45:50.475505,18944
15:45:50.475505,0
15:45:50.475505,67
15:45:50.475505,14592
15:45:50.475505,0
15:45:50.475505,47
15:45:50.475505,8448
15:45:50.475505,0
15:45:50.475505,11
15:45:50.475505,-2816
15:45:50.475505,-1
15:45:50.475505,-33
15:45:50.475505,-13825
15:45:50.475505,-1
15:45:50.475505,-83
15:45:50.475505,-25345
15:45:50.475505,-1
15:45:50.475505,-100
15:45:50.475505,-21761
15:45:50.475505,-1
15:45:50.475505,-64
15:45:50.475505,-11265
15:45:50.475505,-1
15:45:50.475505,-33
15:45:50.475505,-5633
15:45:50.475505,-1
15:45:50.475505,-19
15:45:50.475505,-3329
15:45:50.475505,-1
15:45:50.475505,-16
15:45:50.475505,-3841
15:45:50.475505,-1
15:45:50.475505,-19
15:45:50.475505,-5121
15:45:50.475505,-1
15:45:50.475505,-26
15:45:50.475505,-6401
15:45:50.475505,-1
15:45:50.475505,-23
15:45:50.475505,-5121
15:45:50.475505,-1
15:45:50.475505,-21
15:45:50.475505,-5121
15:45:50.475505,-1
15:45:50.475505,-21
15:45:50.475505,-5121
15:45:50.475505,-1
15:45:50.475505,-19
15:45:50.475505,-4609
15:45:50.475505,-1
15:45:50.475505,-23
15:45:50.475505,-6913
15:45:50.475505,-1
15:45:50.475505,-26
15:45:50.475505,-6913
15:45:50.475505,-1
15:45:50.475505,-35
15:45:50.475505,-10753
15:45:50.475505,-1
15:45:50.475505,-43
15:45:50.475505,-11265
15:45:50.475505,-1
15:45:50.475505,-47
15:45:50.475505,-12545
15:45:50.475505,-1
15:45:50.475505,-52
15:45:50.475505,-13057
15:45:50.475505,-1
15:45:50.475505,-50
15:45:50.475505,-13057
15:45:50.475505,-1
15:45:50.475505,-59
15:45:50.475505,-14337
15:45:50.475505,-1
15:45:50.475505,-52
15:45:51.063045,-55
15:45:51.063045,-14337
15:45:51.063045,-1
15:45:51.063045,-55
15:45:51.063045,-14337
15:45:51.063045,-1
15:45:51.063045,-59
15:45:51.063045,-12545
15:45:51.063045,-1
15:45:51.063045,-43
15:45:51.063045,-11777
15:45:51.063045,-1
15:45:51.063045,-50
15:45:51.063045,-11777
15:45:51.063045,-1
15:45:51.063045,-47
15:45:51.063045,-13057
15:45:51.063045,-1
15:45:51.063045,-52
15:45:51.063045,-12545
15:45:51.063045,-1
15:45:51.063045,-50
15:45:51.063045,-13057
15:45:51.063045,-1
15:45:51.063045,-55
15:45:51.063045,-13825
15:45:51.063045,-1
15:45:51.063045,-55
15:45:51.063045,-13825
15:45:51.063045,-1
15:45:51.063045,-57
15:45:51.063045,-14337
15:45:51.063045,-1
15:45:51.063045,-57
15:45:51.063045,-14337
15:45:51.063045,-1
15:45:51.063045,-55
15:45:51.063045,-11777
15:45:51.063045,-1
15:45:51.063045,-40
15:45:51.063045,-7681
15:45:51.063045,-1
15:45:51.063045,-38
15:45:51.063045,-14849
15:45:51.063045,-1
15:45:51.063045,-74
15:45:51.063045,-19969
15:45:51.063045,-1
15:45:51.063045,-74
15:45:51.063045,-15617
15:45:51.063045,-1
15:45:51.063045,-55
15:45:51.063045,-14337
15:45:51.063045,-1
15:45:51.063045,-59
15:45:51.063045,-14849
15:45:51.063045,-1
15:45:51.063045,-64
15:45:51.063045,-16129
15:45:51.063045,-1
15:45:51.063045,-64
15:45:51.063045,-16129
15:45:51.063045,-1
15:45:51.063045,-38
15:45:51.063045,18431
15:45:51.063045,0
15:45:51.063045,134
15:45:51.063045,-11008
15:45:51.063045,-2
15:45:51.063045,-1267
15:45:51.063045,9983
15:45:51.063045,-7
15:45:51.063045,-1152
15:45:51.063045,-30465
15:45:51.063045,-2
15:45:51.063045,-127
15:45:51.063045,-5633
15:45:51.063045,-1
15:45:51.063045,115
15:45:51.063045,-32512
15:45:51.063045,0
15:45:51.063045,100
15:45:51.063045,30464
15:45:51.063045,0
15:45:51.063045,119
15:45:51.063045,25600
15:45:51.063045,0
15:45:51.063045,100
15:45:51.063045,25600
15:45:51.063045,0
15:45:51.063045,88
15:45:51.063045,21248
15:45:51.063045,0
15:45:51.063045,86
15:45:51.063045,20224
15:45:51.063045,0
15:45:51.063045,74
15:45:51.063045,18176
15:45:51.063045,0
15:45:51.063045,69
15:45:51.063045,16384
15:45:51.063045,0
15:45:51.063045,62
15:45:51.063045,14080
15:45:51.063045,0
15:45:51.063045,50
15:45:51.063045,11008
15:45:51.063045,0
15:45:51.063045,28
15:45:51.602668,14
15:45:51.602668,-512
15:45:51.602668,-1
15:45:51.602668,-21
15:45:51.602668,-11265
15:45:51.602668,-1
15:45:51.602668,-69
15:45:51.602668,-23041
15:45:51.602668,-1
15:45:51.602668,-110
15:45:51.602668,-29697
15:45:51.602668,-1
15:45:51.602668,-107
15:45:51.602668,-20481
15:45:51.602668,-1
15:45:51.602668,-55
15:45:51.602668,-9985
15:45:51.602668,-1
15:45:51.602668,-28
15:45:51.602668,-5121
15:45:51.602668,-1
15:45:51.602668,-16
15:45:51.602668,-3841
15:45:51.602668,-1
15:45:51.602668,-16
15:45:51.602668,-4609
15:45:51.602668,-1
15:45:51.602668,-23
15:45:51.602668,-6401
15:45:51.602668,-1
15:45:51.602668,-26
15:45:51.602668,-6401
15:45:51.602668,-1
15:45:51.602668,-26
15:45:51.602668,-6401
15:45:51.602668,-1
15:45:51.602668,-28
15:45:51.602668,-6913
15:45:51.602668,-1
15:45:51.602668,-23
15:45:51.602668,-5121
15:45:51.602668,-1
15:45:51.602668,-21
15:45:51.602668,-4609
15:45:51.602668,-1
15:45:51.602668,-21
15:45:51.602668,-5633
15:45:51.602668,-1
15:45:51.602668,-28
15:45:51.602668,-8193
15:45:51.602668,-1
15:45:51.602668,-38
15:45:51.602668,-10753
15:45:51.602668,-1
15:45:51.602668,-45
15:45:51.602668,-11777
15:45:51.602668,-1
15:45:51.602668,-50
15:45:51.602668,-12545
15:45:51.602668,-1
15:45:51.602668,-52
15:45:51.602668,-13057
15:45:51.602668,-1
15:45:51.602668,-55
15:45:51.602668,-14337
15:45:51.602668,-1
15:45:51.602668,-57
15:45:51.602668,-13825
15:45:51.602668,-1
15:45:51.602668,-55
15:45:51.602668,-14337
15:45:51.602668,-1
15:45:51.602668,-59
15:45:51.602668,-14849
15:45:51.602668,-1
15:45:51.602668,-57
15:45:51.602668,-13825
15:45:51.602668,-1
15:45:51.602668,-57
15:45:51.602668,-14849
15:45:51.602668,-1
15:45:51.602668,-62
15:45:51.602668,-16129
15:45:51.602668,-1
15:45:51.602668,-59
15:45:51.602668,-14337
15:45:51.602668,-1
15:45:51.602668,-59
15:45:51.602668,-15617
15:45:51.602668,-1
15:45:51.602668,-59
15:45:51.602668,-15617
15:45:51.602668,-1
15:45:51.602668,-67
15:45:51.602668,-15617
15:45:51.602668,-1
15:45:51.602668,-62
15:45:51.602668,-16897
15:45:51.602668,-1
15:45:51.602668,-67
15:45:51.602668,-15617
15:45:51.602668,-1
15:45:51.602668,-64
15:45:51.602668,-16129
15:45:51.602668,-1
15:45:51.602668,-62
15:45:51.602668,-16129
15:45:51.602668,-1
15:45:51.602668,-64
15:45:52.187636,-62
15:45:52.187636,-15617
15:45:52.187636,-1
15:45:52.187636,-59
15:45:52.187636,-13057
15:45:52.187636,-1
15:45:52.187636,-43
15:45:52.187636,-8705
15:45:52.187636,-1
15:45:52.187636,-38
15:45:52.187636,-13825
15:45:52.187636,-1
15:45:52.187636,-69
15:45:52.187636,-17921
15:45:52.187636,-1
15:45:52.187636,-67
15:45:52.187636,-13825
15:45:52.187636,-1
15:45:52.187636,-50
15:45:52.187636,-13825
15:45:52.187636,-1
15:45:52.187636,-59
15:45:52.187636,-14849
15:45:52.187636,-1
15:45:52.187636,-62
15:45:52.187636,-16129
15:45:52.187636,-1
15:45:52.187636,-64
15:45:52.187636,-14849
15:45:52.187636,-1
15:45:52.187636,-31
15:45:52.187636,20991
15:45:52.187636,0
15:45:52.187636,131
15:45:52.187636,-21504
15:45:52.187636,-2
15:45:52.187636,-1310
15:45:52.187636,18687
15:45:52.187636,-7
15:45:52.187636,-1071
15:45:52.187636,-19457
15:45:52.187636,-2
15:45:52.187636,-115
15:45:52.187636,-1537
15:45:52.187636,-1
15:45:52.187636,122
15:45:52.187636,31232
15:45:52.187636,0
15:45:52.187636,103
15:45:52.187636,31744
15:45:52.187636,0
15:45:52.187636,122
15:45:52.187636,27392
15:45:52.187636,0
15:45:52.187636,105
15:45:52.187636,25600
15:45:52.187636,0
15:45:52.187636,88
15:45:52.187636,22016
15:45:52.187636,0
15:45:52.187636,88
15:45:52.187636,20736
15:45:52.187636,0
15:45:52.187636,76
15:45:52.187636,18176
15:45:52.187636,0
15:45:52.187636,69
15:45:52.187636,17152
15:45:52.187636,0
15:45:52.187636,67
15:45:52.187636,15104
15:45:52.187636,0
15:45:52.187636,50
15:45:52.187636,10240
15:45:52.187636,0
15:45:52.187636,33
15:45:52.187636,5376
15:45:52.187636,0
15:45:52.187636,2
15:45:52.187636,-5376
15:45:52.187636,-1
15:45:52.187636,-40
15:45:52.187636,-16129
15:45:52.187636,-1
15:45:52.187636,-86
15:45:52.187636,-26625
15:45:52.187636,-1
15:45:52.187636,-112
15:45:52.187636,-25345
15:45:52.187636,-1
15:45:52.187636,-79
15:45:52.187636,-14337
15:45:52.187636,-1
15:45:52.187636,-38
15:45:52.187636,-6401
15:45:52.187636,-1
15:45:52.187636,-19
15:45:52.187636,-3329
15:45:52.187636,-1
15:45:52.187636,-11
15:45:52.187636,-3841
15:45:52.187636,-1
15:45:52.187636,-19
15:45:52.187636,-4609
15:45:52.187636,-1
15:45:52.187636,-23
15:45:52.187636,-6913
15:45:52.187636,-1
15:45:52.187636,-23
15:45:52.768886,-19
15:45:52.768886,-5121
15:45:52.768886,-1
15:45:52.768886,-16
15:45:52.768886,-3329
15:45:52.768886,-1
15:45:52.768886,-19
15:45:52.768886,-5121
15:45:52.768886,-1
15:45:52.768886,-19
15:45:52.768886,-3841
15:45:52.768886,-1
15:45:52.768886,-19
15:45:52.768886,-4609
15:45:52.768886,-1
15:45:52.768886,-16
15:45:52.768886,-5633
15:45:52.768886,-1
15:45:52.768886,-31
15:45:52.768886,-8193
15:45:52.768886,-1
15:45:52.768886,-28
15:45:52.768886,-7681
15:45:52.768886,-1
15:45:52.768886,-35
15:45:52.768886,-9473
15:45:52.768886,-1
15:45:52.768886,-40
15:45:52.768886,-11777
15:45:52.768886,-1
15:45:52.768886,-43
15:45:52.768886,-9473
15:45:52.768886,-1
15:45:52.768886,-43
15:45:52.768886,-11265
15:45:52.768886,-1
15:45:52.768886,-43
15:45:52.768886,-11265
15:45:52.768886,-1
15:45:52.768886,-45
15:45:52.768886,-11777
15:45:52.768886,-1
15:45:52.768886,-50
15:45:52.768886,-12545
15:45:52.768886,-1
15:45:52.768886,-47
15:45:52.768886,-11777
15:45:52.768886,-1
15:45:52.768886,-50
15:45:52.768886,-11777
15:45:52.768886,-1
15:45:52.768886,-47
15:45:52.768886,-13057
15:45:52.768886,-1
15:45:52.768886,-52
15:45:52.768886,-13057
15:45:52.768886,-1
15:45:52.768886,-50
15:45:52.768886,-13057
15:45:52.768886,-1
15:45:52.768886,-59
15:45:52.768886,-13825
15:45:52.768886,-1
15:45:52.768886,-47
15:45:52.768886,-13057
15:45:52.768886,-1
15:45:52.768886,-59
15:45:52.768886,-14337
15:45:52.768886,-1
15:45:52.768886,-47
15:45:52.768886,-10753
15:45:52.768886,-1
15:45:52.768886,-33
15:45:52.768886,-7681
15:45:52.768886,-1
15:45:52.768886,-50
15:45:52.768886,-17921
15:45:52.768886,-1
15:45:52.768886,-76
15:45:52.768886,-18689
15:45:52.768886,-1
15:45:52.768886,-64
15:45:52.768886,-13057
15:45:52.768886,-1
15:45:52.768886,-57
15:45:52.768886,-15617
15:45:52.768886,-1
15:45:52.768886,-59
15:45:52.768886,-16129
15:45:52.768886,-1
15:45:52.768886,-67
15:45:52.768886,-16897
15:45:52.768886,-1
15:45:52.768886,-64
15:45:52.768886,-11777
15:45:52.768886,-1
15:45:52.768886,33
15:45:52.768886,-28160
15:45:52.768886,0
15:45:52.768886,-69
15:45:52.768886,-28673
15:45:52.768886,-4
15:45:52.768886,-1581
15:45:52.768886,5375
15:45:52.768886,-5
15:45:52.768886,-496
15:45:52.768886,16127
15:45:52.768886,-1
15:45:52.768886,-88
15:45:53.313790,81
15:45:53.313790,28160
15:45:53.313790,0
15:45:53.313790,76
15:45:53.313790,26368
15:45:53.313790,0
15:45:53.313790,110
15:45:53.313790,22528
15:45:53.313790,0
15:45:53.313790,93
15:45:53.313790,25088
15:45:53.313790,0
15:45:53.313790,83
15:45:53.313790,19456
15:45:53.313790,0
15:45:53.313790,79
15:45:53.313790,19456
15:45:53.313790,0
15:45:53.313790,74
15:45:53.313790,18944
15:45:53.313790,0
15:45:53.313790,67
15:45:53.313790,14080
15:45:53.313790,0
15:45:53.313790,47
15:45:53.313790,12032
15:45:53.313790,0
15:45:53.313790,45
15:45:53.313790,7936
15:45:53.313790,0
15:45:53.313790,16
15:45:53.313790,512
15:45:53.313790,0
15:45:53.313790,-16
15:45:53.313790,-9473
15:45:53.313790,-1
15:45:53.313790,-57
15:45:53.313790,-19201
15:45:53.313790,-1
15:45:53.313790,-100
15:45:53.313790,-29185
15:45:53.313790,-1
15:45:53.313790,-119
15:45:53.313790,-27137
15:45:53.313790,-1
15:45:53.313790,-83
15:45:53.313790,-14337
15:45:53.313790,-1
15:45:53.313790,-28
15:45:53.313790,-2049
15:45:53.313790,-1
15:45:53.313790,-4
15:45:53.313790,255
15:45:53.313790,0
15:45:53.313790,4
15:45:53.313790,1024
15:45:53.313790,0
15:45:53.313790,2
15:45:53.313790,512
15:45:53.313790,0
15:45:53.313790,4
15:45:53.313790,2304
15:45:53.313790,0
15:45:53.313790,9
15:45:53.313790,512
15:45:53.313790,0
15:45:53.313790,-2
15:45:53.313790,-1537
15:45:53.313790,-1
15:45:53.313790,-9
15:45:53.313790,-2561
15:45:53.313790,-1
15:45:53.313790,-19
15:45:53.313790,-6401
15:45:53.313790,-1
15:45:53.313790,-31
15:45:53.313790,-8705
15:45:53.313790,-1
15:45:53.313790,-40
15:45:53.313790,-9473
15:45:53.313790,-1
15:45:53.313790,-38
15:45:53.313790,-10753
15:45:53.313790,-1
15:45:53.313790,-43
15:45:53.313790,-9985
15:45:53.313790,-1
15:45:53.313790,-47
15:45:53.313790,-11777
15:45:53.313790,-1
15:45:53.313790,-43
15:45:53.313790,-11777
15:45:53.313790,-1
15:45:53.313790,-47
15:45:53.313790,-11265
15:45:53.313790,-1
15:45:53.313790,-47
15:45:53.313790,-12545
15:45:53.313790,-1
15:45:53.313790,-45
15:45:53.313790,-11777
15:45:53.313790,-1
15:45:53.313790,-55
15:45:53.313790,-14337
15:45:53.313790,-1
15:45:53.313790,-55
15:45:53.313790,-13057
15:45:53.313790,-1
15:45:53.313790,-52
15:45:53.854007,-47
15:45:53.854007,-11777
15:45:53.854007,-1
15:45:53.854007,-47
15:45:53.854007,-11777
15:45:53.854007,-1
15:45:53.854007,-50
15:45:53.854007,-13057
15:45:53.854007,-1
15:45:53.854007,-50
15:45:53.854007,-11265
15:45:53.854007,-1
15:45:53.854007,-40
15:45:53.854007,-6401
15:45:53.854007,-1
15:45:53.854007,-14
15:45:53.854007,-6913
15:45:53.854007,-1
15:45:53.854007,-50
15:45:53.854007,-13825
15:45:53.854007,-1
15:45:53.854007,-62
15:45:53.854007,-13825
15:45:53.854007,-1
15:45:53.854007,-38
15:45:53.854007,-9985
15:45:53.854007,-1
15:45:53.854007,-52
15:45:53.854007,-12545
15:45:53.854007,-1
15:45:53.854007,-47
15:45:53.854007,-13825
15:45:53.854007,-1
15:45:53.854007,-59
15:45:53.854007,-14337
15:45:53.854007,-1
15:45:53.854007,-43
15:45:53.854007,6911
15:45:53.854007,0
15:45:53.854007,153
15:45:53.854007,5888
15:45:53.854007,0
15:45:53.854007,-733
15:45:53.854007,-7681
15:45:53.854007,-7
15:45:53.854007,-1430
15:45:53.854007,-30465
15:45:53.854007,-3
15:45:53.854007,-208
15:45:53.854007,-24833
15:45:53.854007,-1
15:45:53.854007,67
15:45:53.854007,-31232
15:45:53.854007,0
15:45:53.854007,98
15:45:53.854007,27392
15:45:53.854007,0
15:45:53.854007,124
15:45:53.854007,26880
15:45:53.854007,0
15:45:53.854007,98
15:45:53.854007,26368
15:45:53.854007,0
15:45:53.854007,98
15:45:53.854007,23808
15:45:53.854007,0
15:45:53.854007,91
15:45:53.854007,22016
15:45:53.854007,0
15:45:53.854007,83
15:45:53.854007,20736
15:45:53.854007,0
15:45:53.854007,74
15:45:53.854007,18944
15:45:53.854007,0
15:45:53.854007,74
15:45:53.854007,17664
15:45:53.854007,0
15:45:53.854007,59
15:45:53.854007,14080
15:45:53.854007,0
15:45:53.854007,50
15:45:53.854007,8960
15:45:53.854007,0
15:45:53.854007,19
15:45:53.854007,0
15:45:53.854007,0
15:45:53.854007,-26
15:45:53.854007,-14337
15:45:53.854007,-1
15:45:53.854007,-79
15:45:53.854007,-24833
15:45:53.854007,-1
15:45:53.854007,-112
15:45:53.854007,-27137
15:45:53.854007,-1
15:45:53.854007,-83
15:45:53.854007,-14337
15:45:53.854007,-1
15:45:53.854007,-35
15:45:53.854007,-5121
15:45:53.854007,-1
15:45:53.854007,-14
15:45:53.854007,-2049
15:45:53.854007,-1
15:45:53.854007,-9
15:45:53.854007,-2049
15:45:53.854007,-1
15:45:53.854007,-7
15:45:54.390528,-11
15:45:54.390528,-3329
15:45:54.390528,-1
15:45:54.390528,-14
15:45:54.390528,-2049
15:45:54.390528,-1
15:45:54.390528,-7
15:45:54.390528,-769
15:45:54.390528,-1
15:45:54.390528,-4
15:45:54.390528,-257
15:45:54.390528,-1
15:45:54.390528,-2
15:45:54.390528,-2049
15:45:54.390528,-1
15:45:54.390528,-11
15:45:54.390528,-3329
15:45:54.390528,-1
15:45:54.390528,-16
15:45:54.390528,-5121
15:45:54.390528,-1
15:45:54.390528,-31
15:45:54.390528,-8705
15:45:54.390528,-1
15:45:54.390528,-33
15:45:54.390528,-9473
15:45:54.390528,-1
15:45:54.390528,-40
15:45:54.390528,-9985
15:45:54.390528,-1
15:45:54.390528,-43
15:45:54.390528,-11265
15:45:54.390528,-1
15:45:54.390528,-45
15:45:54.390528,-10753
15:45:54.390528,-1
15:45:54.390528,-45
15:45:54.390528,-11777
15:45:54.390528,-1
15:45:54.390528,-45
15:45:54.390528,-10753
15:45:54.390528,-1
15:45:54.390528,-45
15:45:54.390528,-11777
15:45:54.390528,-1
15:45:54.390528,-45
15:45:54.390528,-11265
15:45:54.390528,-1
15:45:54.390528,-50
15:45:54.390528,-13057
15:45:54.390528,-1
15:45:54.390528,-50
15:45:54.390528,-12545
15:45:54.390528,-1
15:45:54.390528,-47
15:45:54.390528,-11777
15:45:54.390528,-1
15:45:54.390528,-50
15:45:54.390528,-12545
15:45:54.390528,-1
15:45:54.390528,-50
15:45:54.390528,-11777
15:45:54.390528,-1
15:45:54.390528,-47
15:45:54.390528,-10753
15:45:54.390528,-1
15:45:54.390528,-38
15:45:54.390528,-6913
15:45:54.390528,-1
15:45:54.390528,-23
15:45:54.390528,-8705
15:45:54.390528,-1
15:45:54.390528,-55
15:45:54.390528,-17409
15:45:54.390528,-1
15:45:54.390528,-79
15:45:54.390528,-18689
15:45:54.390528,-1
15:45:54.390528,-57
15:45:54.390528,-11777
15:45:54.390528,-1
15:45:54.390528,-52
15:45:54.390528,-14849
15:45:54.390528,-1
15:45:54.390528,-62
15:45:54.390528,-15617
15:45:54.390528,-1
15:45:54.390528,-55
15:45:54.390528,-13057
15:45:54.390528,-1
15:45:54.390528,-55
15:45:54.390528,-5121
15:45:54.390528,-1
15:45:54.390528,95
15:45:54.390528,-29440
15:45:54.390528,0
15:45:54.390528,-349
15:45:54.390528,-13057
15:45:54.390528,-6
15:45:54.390528,-1730
15:45:54.390528,-11009
15:45:54.390528,-5
15:45:54.390528,-335
15:45:54.390528,-28417
15:45:54.390528,-1
15:45:54.390528,4
15:45:54.390528,-31232
15:45:54.390528,0
15:45:54.390528,136
15:45:54.977078,115
15:45:54.977078,-31232
15:45:54.977078,0
15:45:54.977078,131
15:45:54.977078,29952
15:45:54.977078,0
15:45:54.977078,127
15:45:54.977078,31744
15:45:54.977078,0
15:45:54.977078,110
15:45:54.977078,26368
15:45:54.977078,0
15:45:54.977078,100
15:45:54.977078,25088
15:45:54.977078,0
15:45:54.977078,100
15:45:54.977078,24320
15:45:54.977078,0
15:45:54.977078,83
15:45:54.977078,20224
15:45:54.977078,0
15:45:54.977078,81
15:45:54.977078,20736
15:45:54.977078,0
15:45:54.977078,74
15:45:54.977078,17152
15:45:54.977078,0
15:45:54.977078,55
15:45:54.977078,9728
15:45:54.977078,0
15:45:54.977078,23
15:45:54.977078,1792
15:45:54.977078,0
15:45:54.977078,-16
15:45:54.977078,-11265
15:45:54.977078,-1
15:45:54.977078,-67
15:45:54.977078,-21761
15:45:54.977078,-1
15:45:54.977078,-98
15:45:54.977078,-21761
15:45:54.977078,-1
15:45:54.977078,-62
15:45:54.977078,-9985
15:45:54.977078,-1
15:45:54.977078,-21
15:45:54.977078,-2561
15:45:54.977078,-1
15:45:54.977078,-7
15:45:54.977078,-1537
15:45:54.977078,-1
15:45:54.977078,-4
15:45:54.977078,-2049
15:45:54.977078,-1
15:45:54.977078,-16
15:45:54.977078,-4609
15:45:54.977078,-1
15:45:54.977078,-16
15:45:54.977078,-3841
15:45:54.977078,-1
15:45:54.977078,-19
15:45:54.977078,-3841
15:45:54.977078,-1
15:45:54.977078,-16
15:45:54.977078,-4609
15:45:54.977078,-1
15:45:54.977078,-21
15:45:54.977078,-3329
15:45:54.977078,-1
15:45:54.977078,-7
15:45:54.977078,-2561
15:45:54.977078,-1
15:45:54.977078,-19
15:45:54.977078,-3841
15:45:54.977078,-1
15:45:54.977078,-19
15:45:54.977078,-5121
15:45:54.977078,-1
15:45:54.977078,-23
15:45:54.977078,-6913
15:45:54.977078,-1
15:45:54.977078,-33
15:45:54.977078,-8705
15:45:54.977078,-1
15:45:54.977078,-35
15:45:54.977078,-9985
15:45:54.977078,-1
15:45:54.977078,-43
15:45:54.977078,-9985
15:45:54.977078,-1
15:45:54.977078,-40
15:45:54.977078,-10753
15:45:54.977078,-1
15:45:54.977078,-43
15:45:54.977078,-11265
15:45:54.977078,-1
15:45:54.977078,-45
15:45:54.977078,-11777
15:45:54.977078,-1
15:45:54.977078,-45
15:45:54.977078,-10753
15:45:54.977078,-1
15:45:54.977078,-50
15:45:54.977078,-12545
15:45:54.977078,-1
15:45:54.977078,-45
15:45:54.977078,-12545
15:45:54.977078,-1
15:45:54.977078,-57
15:45:55.564166,-52
15:45:55.564166,-11777
15:45:55.564166,-1
15:45:55.564166,-50
15:45:55.564166,-13057
15:45:55.564166,-1
15:45:55.564166,-50
15:45:55.564166,-13057
15:45:55.564166,-1
15:45:55.564166,-50
15:45:55.564166,-10753
15:45:55.564166,-1
15:45:55.564166,-40
15:45:55.564166,-10753
15:45:55.564166,-1
15:45:55.564166,-43
15:45:55.564166,-11265
15:45:55.564166,-1
15:45:55.564166,-43
15:45:55.564166,-8193
15:45:55.564166,-1
15:45:55.564166,-26
15:45:55.564166,-5121
15:45:55.564166,-1
15:45:55.564166,-33
15:45:55.564166,-14337
15:45:55.564166,-1
15:45:55.564166,-64
15:45:55.564166,-16129
15:45:55.564166,-1
15:45:55.564166,-64
15:45:55.564166,-13057
15:45:55.564166,-1
15:45:55.564166,-43
15:45:55.564166,-12545
15:45:55.564166,-1
15:45:55.564166,-55
15:45:55.564166,-12545
15:45:55.564166,-1
15:45:55.564166,-52
15:45:55.564166,-14337
15:45:55.564166,-1
15:45:55.564166,-59
15:45:55.564166,-14849
15:45:55.564166,-1
15:45:55.564166,-26
15:45:55.564166,22271
15:45:55.564166,0
15:45:55.564166,134
15:45:55.564166,-22016
15:45:55.564166,-2
15:45:55.564166,-1310
15:45:55.564166,19199
15:45:55.564166,-7
15:45:55.564166,-1064
15:45:55.564166,-18177
15:45:55.564166,-2
15:45:55.564166,-115
15:45:55.564166,-769
15:45:55.564166,-1
15:45:55.564166,127
15:45:55.564166,32512
15:45:55.564166,0
15:45:55.564166,105
15:45:55.564166,-32000
15:45:55.564166,0
15:45:55.564166,127
15:45:55.564166,27392
15:45:55.564166,0
15:45:55.564166,110
15:45:55.564166,26880
15:45:55.564166,0
15:45:55.564166,93
15:45:55.564166,23296
15:45:55.564166,0
15:45:55.564166,93
15:45:55.564166,23296
15:45:55.564166,0
15:45:55.564166,76
15:45:55.564166,18176
15:45:55.564166,0
15:45:55.564166,76
15:45:55.564166,18176
15:45:55.564166,0
15:45:55.564166,62
15:45:55.564166,15104
15:45:55.564166,0
15:45:55.564166,52
15:45:55.564166,11520
15:45:55.564166,0
15:45:55.564166,35
15:45:55.564166,5376
15:45:55.564166,0
15:45:55.564166,2
15:45:55.564166,-4096
15:45:55.564166,-1
15:45:55.564166,-38
15:45:55.564166,-15617
15:45:55.564166,-1
15:45:55.564166,-81
15:45:55.564166,-24833
15:45:55.564166,-1
15:45:55.564166,-105
15:45:55.564166,-24065
15:45:55.564166,-1
15:45:55.564166,-71
15:45:55.564166,-11265
15:45:55.564166,-1
15:45:55.564166,-26
15:45:56.103319,-16
15:45:56.103319,-2561
15:45:56.103319,-1
15:45:56.103319,-9
15:45:56.103319,-1537
15:45:56.103319,-1
15:45:56.103319,-9
15:45:56.103319,-2561
15:45:56.103319,-1
15:45:56.103319,-16
15:45:56.103319,-4609
15:45:56.103319,-1
15:45:56.103319,-16
15:45:56.103319,-3329
15:45:56.103319,-1
15:45:56.103319,-7
15:45:56.103319,255
15:45:56.103319,0
15:45:56.103319,2
15:45:56.103319,-512
15:45:56.103319,-1
15:45:56.103319,0
15:45:56.103319,0
15:45:56.103319,0
15:45:56.103319,-4
15:45:56.103319,-769
15:45:56.103319,-1
15:45:56.103319,-9
15:45:56.103319,-3841
15:45:56.103319,-1
15:45:56.103319,-21
15:45:56.103319,-5121
15:45:56.103319,-1
15:45:56.103319,-23
15:45:56.103319,-6401
15:45:56.103319,-1
15:45:56.103319,-31
15:45:56.103319,-8193
15:45:56.103319,-1
15:45:56.103319,-35
15:45:56.103319,-8705
15:45:56.103319,-1
15:45:56.103319,-38
15:45:56.103319,-10753
15:45:56.103319,-1
15:45:56.103319,-40
15:45:56.103319,-9985
15:45:56.103319,-1
15:45:56.103319,-43
15:45:56.103319,-10753
15:45:56.103319,-1
15:45:56.103319,-43
15:45:56.103319,-9985
15:45:56.103319,-1
15:45:56.103319,-40
15:45:56.103319,-10753
15:45:56.103319,-1
15:45:56.103319,-45
15:45:56.103319,-11265
15:45:56.103319,-1
15:45:56.103319,-43
15:45:56.103319,-10753
15:45:56.103319,-1
15:45:56.103319,-45
15:45:56.103319,-11265
15:45:56.103319,-1
15:45:56.103319,-43
15:45:56.103319,-10753
15:45:56.103319,-1
15:45:56.103319,-45
15:45:56.103319,-12545
15:45:56.103319,-1
15:45:56.103319,-52
15:45:56.103319,-12545
15:45:56.103319,-1
15:45:56.103319,-45
15:45:56.103319,-12545
15:45:56.103319,-1
15:45:56.103319,-52
15:45:56.103319,-12545
15:45:56.103319,-1
15:45:56.103319,-50
15:45:56.103319,-13825
15:45:56.103319,-1
15:45:56.103319,-52
15:45:56.103319,-11777
15:45:56.103319,-1
15:45:56.103319,-50
15:45:56.103319,-11777
15:45:56.103319,-1
15:45:56.103319,-38
15:45:56.103319,-6913
15:45:56.103319,-1
15:45:56.103319,-31
15:45:56.103319,-11265
15:45:56.103319,-1
15:45:56.103319,-64
15:45:56.103319,-17409
15:45:56.103319,-1
15:45:56.103319,-71
15:45:56.103319,-16129
15:45:56.103319,-1
15:45:56.103319,-52
15:45:56.103319,-13057
15:45:56.103319,-1
15:45:56.103319,-57
15:45:56.103319,-14849
15:45:56.103319,-1
15:45:56.103319,-59
15:45:56.687745,-64
15:45:56.687745,-15617
15:45:56.687745,-1
15:45:56.687745,-57
15:45:56.687745,-11777
15:45:56.687745,-1
15:45:56.687745,23
15:45:56.687745,-27136
15:45:56.687745,0
15:45:56.687745,-14
15:45:56.687745,-12289
15:45:56.687745,-4
15:45:56.687745,-1624
15:45:56.687745,-32001
15:45:56.687745,-6
15:45:56.687745,-582
15:45:56.687745,19199
15:45:56.687745,-1
15:45:56.687745,-79
15:45:56.687745,21503
15:45:56.687745,0
15:45:56.687745,143
15:45:56.687745,25600
15:45:56.687745,0
15:45:56.687745,112
15:45:56.687745,-30720
15:45:56.687745,0
15:45:56.687745,117
15:45:56.687745,26880
15:45:56.687745,0
15:45:56.687745,107
15:45:56.687745,23808
15:45:56.687745,0
15:45:56.687745,86
15:45:56.687745,23296
15:45:56.687745,0
15:45:56.687745,86
15:45:56.687745,18944
15:45:56.687745,0
15:45:56.687745,67
15:45:56.687745,17664
15:45:56.687745,0
15:45:56.687745,69
15:45:56.687745,15872
15:45:56.687745,0
15:45:56.687745,55
15:45:56.687745,12800
15:45:56.687745,0
15:45:56.687745,43
15:45:56.687745,8960
15:45:56.687745,0
15:45:56.687745,21
15:45:56.687745,0
15:45:56.687745,0
15:45:56.687745,-19
15:45:56.687745,-9473
15:45:56.687745,-1
15:45:56.687745,-62
15:45:56.687745,-20993
15:45:56.687745,-1
15:45:56.687745,-98
15:45:56.687745,-25345
15:45:56.687745,-1
15:45:56.687745,-95
15:45:56.687745,-19969
15:45:56.687745,-1
15:45:56.687745,-52
15:45:56.687745,-7681
15:45:56.687745,-1
15:45:56.687745,-16
15:45:56.687745,-1537
15:45:56.687745,-1
15:45:56.687745,2
15:45:56.687745,1024
15:45:56.687745,0
15:45:56.687745,0
15:45:56.687745,-512
15:45:56.687745,-1
15:45:56.687745,-11
15:45:56.687745,-2561
15:45:56.687745,-1
15:45:56.687745,-4
15:45:56.687745,255
15:45:56.687745,0
15:45:56.687745,0
15:45:56.687745,-512
15:45:56.687745,-1
15:45:56.687745,-7
15:45:56.687745,-1537
15:45:56.687745,-1
15:45:56.687745,-14
15:45:56.687745,-5121
15:45:56.687745,-1
15:45:56.687745,-16
15:45:56.687745,-2561
15:45:56.687745,-1
15:45:56.687745,-19
15:45:56.687745,-5633
15:45:56.687745,-1
15:45:56.687745,-28
15:45:56.687745,-8705
15:45:56.687745,-1
15:45:56.687745,-35
15:45:56.687745,-8705
15:45:56.687745,-1
15:45:56.687745,-38
15:45:56.687745,-9473
15:45:56.687745,-1
15:45:56.687745,-40
15:45:57.228402,-43
15:45:57.228402,-11265
15:45:57.228402,-1
15:45:57.228402,-47
15:45:57.228402,-12545
15:45:57.228402,-1
15:45:57.228402,-47
15:45:57.228402,-10753
15:45:57.228402,-1
15:45:57.228402,-45
15:45:57.228402,-11777
15:45:57.228402,-1
15:45:57.228402,-47
15:45:57.228402,-12545
15:45:57.228402,-1
15:45:57.228402,-50
15:45:57.228402,-9473
15:45:57.228402,-1
15:45:57.228402,-33
15:45:57.228402,-10753
15:45:57.228402,-1
15:45:57.228402,-45
15:45:57.228402,-8705
15:45:57.228402,-1
15:45:57.228402,-31
15:45:57.228402,-7681
15:45:57.228402,-1
15:45:57.228402,-23
15:45:57.228402,-4609
15:45:57.228402,-1
15:45:57.228402,-35
15:45:57.228402,-12545
15:45:57.228402,-1
15:45:57.228402,-50
15:45:57.228402,-14337
15:45:57.228402,-1
15:45:57.228402,-59
15:45:57.228402,-9985
15:45:57.228402,-1
15:45:57.228402,-33
15:45:57.228402,-10753
15:45:57.228402,-1
15:45:57.228402,-47
15:45:57.228402,-11265
15:45:57.228402,-1
15:45:57.228402,-52
15:45:57.228402,-13825
15:45:57.228402,-1
15:45:57.228402,-47
15:45:57.228402,-11777
15:45:57.228402,-1
15:45:57.228402,0
15:45:57.228402,32512
15:45:57.228402,0
15:45:57.228402,115
15:45:57.228402,12288
15:45:57.228402,-2
15:45:57.228402,-1361
15:45:57.228402,8959
15:45:57.228402,-6
15:45:57.228402,-788
15:45:57.228402,-2817
15:45:57.228402,-2
15:45:57.228402,-141
15:45:57.228402,4351
15:45:57.228402,0
15:45:57.228402,122
15:45:57.228402,24320
15:45:57.228402,0
15:45:57.228402,98
15:45:57.228402,30464
15:45:57.228402,0
15:45:57.228402,103
15:45:57.228402,22528
15:45:57.228402,0
15:45:57.228402,91
15:45:57.228402,22016
15:45:57.228402,0
15:45:57.228402,79
15:45:57.228402,20224
15:45:57.228402,0
15:45:57.228402,76
15:45:57.228402,17664
15:45:57.228402,0
15:45:57.228402,64
15:45:57.228402,16384
15:45:57.228402,0
15:45:57.228402,59
15:45:57.228402,13312
15:45:57.228402,0
15:45:57.228402,50
15:45:57.228402,11008
15:45:57.228402,0
15:45:57.228402,35
15:45:57.228402,7168
15:45:57.228402,0
15:45:57.228402,14
15:45:57.228402,-1024
15:45:57.228402,-1
15:45:57.228402,-28
15:45:57.228402,-11777
15:45:57.228402,-1
15:45:57.228402,-71
15:45:57.228402,-24833
15:45:57.228402,-1
15:45:57.228402,-117
15:45:57.228402,-31489
15:45:57.228402,-1
15:45:57.228402,-115
15:45:57.812735,-88
15:45:57.812735,-14337
15:45:57.812735,-1
15:45:57.812735,-31
15:45:57.812735,-2561
15:45:57.812735,-1
15:45:57.812735,-4
15:45:57.812735,255
15:45:57.812735,0
15:45:57.812735,4
15:45:57.812735,512
15:45:57.812735,0
15:45:57.812735,7
15:45:57.812735,3584
15:45:57.812735,0
15:45:57.812735,16
15:45:57.812735,2816
15:45:57.812735,0
15:45:57.812735,14
15:45:57.812735,4096
15:45:57.812735,0
15:45:57.812735,14
15:45:57.812735,2304
15:45:57.812735,0
15:45:57.812735,4
15:45:57.812735,0
15:45:57.812735,0
15:45:57.812735,-2
15:45:57.812735,-769
15:45:57.812735,-1
15:45:57.812735,-11
15:45:57.812735,-5121
15:45:57.812735,-1
15:45:57.812735,-23
15:45:57.812735,-6401
15:45:57.812735,-1
15:45:57.812735,-28
15:45:57.812735,-7681
15:45:57.812735,-1
15:45:57.812735,-33
15:45:57.812735,-8193
15:45:57.812735,-1
15:45:57.812735,-33
15:45:57.812735,-9473
15:45:57.812735,-1
15:45:57.812735,-35
15:45:57.812735,-7681
15:45:57.812735,-1
15:45:57.812735,-31
15:45:57.812735,-8705
15:45:57.812735,-1
15:45:57.812735,-38
15:45:57.812735,-9473
15:45:57.812735,-1
15:45:57.812735,-40
15:45:57.812735,-9985
15:45:57.812735,-1
15:45:57.812735,-40
15:45:57.812735,-9985
15:45:57.812735,-1
15:45:57.812735,-40
15:45:57.812735,-9985
15:45:57.812735,-1
15:45:57.812735,-43
15:45:57.812735,-10753
15:45:57.812735,-1
15:45:57.812735,-40
15:45:57.812735,-11265
15:45:57.812735,-1
15:45:57.812735,-47
15:45:57.812735,-10753
15:45:57.812735,-1
15:45:57.812735,-43
15:45:57.812735,-11777
15:45:57.812735,-1
15:45:57.812735,-43
15:45:57.812735,-7681
15:45:57.812735,-1
15:45:57.812735,-21
15:45:57.812735,-6401
15:45:57.812735,-1
15:45:57.812735,-40
15:45:57.812735,-13825
15:45:57.812735,-1
15:45:57.812735,-64
15:45:57.812735,-17921
15:45:57.812735,-1
15:45:57.812735,-64
15:45:57.812735,-11777
15:45:57.812735,-1
15:45:57.812735,-45
15:45:57.812735,-13057
15:45:57.812735,-1
15:45:57.812735,-52
15:45:57.812735,-14337
15:45:57.812735,-1
15:45:57.812735,-59
15:45:57.812735,-15617
15:45:57.812735,-1
15:45:57.812735,-62
15:45:57.812735,-13057
15:45:57.812735,-1
15:45:57.812735,14
15:45:57.812735,-29440
15:45:57.812735,0
15:45:57.812735,21
15:45:57.812735,6656
15:45:57.812735,-3
15:45:57.812735,-1629
15:45:58.353748,-1543
15:45:58.353748,15871
15:45:58.353748,-3
15:45:58.353748,-203
15:45:58.353748,-20993
15:45:58.353748,-1
15:45:58.353748,62
15:45:58.353748,-29440
15:45:58.353748,0
15:45:58.353748,107
15:45:58.353748,28672
15:45:58.353748,0
15:45:58.353748,134
15:45:58.353748,30464
15:45:58.353748,0
15:45:58.353748,105
15:45:58.353748,29440
15:45:58.353748,0
15:45:58.353748,117
15:45:58.353748,26368
15:45:58.353748,0
15:45:58.353748,95
15:45:58.353748,25088
15:45:58.353748,0
15:45:58.353748,93
15:45:58.353748,22016
15:45:58.353748,0
15:45:58.353748,81
15:45:58.353748,20224
15:45:58.353748,0
15:45:58.353748,76
15:45:58.353748,18176
15:45:58.353748,0
15:45:58.353748,67
15:45:58.353748,15872
15:45:58.353748,0
15:45:58.353748,50
15:45:58.353748,9728
15:45:58.353748,0
15:45:58.353748,21
15:45:58.353748,0
15:45:58.353748,0
15:45:58.353748,-21
15:45:58.353748,-11265
15:45:58.353748,-1
15:45:58.353748,-69
15:45:58.353748,-23041
15:45:58.353748,-1
15:45:58.353748,-103
15:45:58.353748,-25345
15:45:58.353748,-1
15:45:58.353748,-79
15:45:58.353748,-13057
15:45:58.353748,-1
15:45:58.353748,-38
15:45:58.353748,-6401
15:45:58.353748,-1
15:45:58.353748,-11
15:45:58.353748,-769
15:45:58.353748,-1
15:45:58.353748,-4
15:45:58.353748,-2049
15:45:58.353748,-1
15:45:58.353748,-11
15:45:58.353748,-3329
15:45:58.353748,-1
15:45:58.353748,-16
15:45:58.353748,-3841
15:45:58.353748,-1
15:45:58.353748,-16
15:45:58.353748,-3841
15:45:58.353748,-1
15:45:58.353748,-14
15:45:58.353748,-3329
15:45:58.353748,-1
15:45:58.353748,-11
15:45:58.353748,-2049
15:45:58.353748,-1
15:45:58.353748,-9
15:45:58.353748,-2561
15:45:58.353748,-1
15:45:58.353748,-14
15:45:58.353748,-3329
15:45:58.353748,-1
15:45:58.353748,-16
15:45:58.353748,-4609
15:45:58.353748,-1
15:45:58.353748,-21
15:45:58.353748,-5633
15:45:58.353748,-1
15:45:58.353748,-28
15:45:58.353748,-8705
15:45:58.353748,-1
15:45:58.353748,-35
15:45:58.353748,-8193
15:45:58.353748,-1
15:45:58.353748,-38
15:45:58.353748,-9985
15:45:58.353748,-1
15:45:58.353748,-40
15:45:58.353748,-10753
15:45:58.353748,-1
15:45:58.353748,-45
15:45:58.353748,-11265
15:45:58.353748,-1
15:45:58.353748,-43
15:45:58.353748,-9985
15:45:58.353748,-1
15:45:58.353748,-38
15:45:58.937541,-40
15:45:58.937541,-10753
15:45:58.937541,-1
15:45:58.937541,-43
15:45:58.937541,-9985
15:45:58.937541,-1
15:45:58.937541,-40
15:45:58.937541,-10753
15:45:58.937541,-1
15:45:58.937541,-45
15:45:58.937541,-11265
15:45:58.937541,-1
15:45:58.937541,-40
15:45:58.937541,-7681
15:45:58.937541,-1
15:45:58.937541,-31
15:45:58.937541,-9985
15:45:58.937541,-1
15:45:58.937541,-43
15:45:58.937541,-9473
15:45:58.937541,-1
15:45:58.937541,-35
15:45:58.937541,-9473
15:45:58.937541,-1
15:45:58.937541,-38
15:45:58.937541,-9473
15:45:58.937541,-1
15:45:58.937541,-43
15:45:58.937541,-10753
15:45:58.937541,-1
15:45:58.937541,-40
15:45:58.937541,-9985
15:45:58.937541,-1
15:45:58.937541,-38
15:45:58.937541,-7681
15:45:58.937541,-1
15:45:58.937541,-21
15:45:58.937541,-6401
15:45:58.937541,-1
15:45:58.937541,-40
15:45:58.937541,-13825
15:45:58.937541,-1
15:45:58.937541,-62
15:45:58.937541,-16897
15:45:58.937541,-1
15:45:58.937541,-55
15:45:58.937541,-9473
15:45:58.937541,-1
15:45:58.937541,-38
15:45:58.937541,-11777
15:45:58.937541,-1
15:45:58.937541,-47
15:45:58.937541,-12545
15:45:58.937541,-1
15:45:58.937541,-55
15:45:58.937541,-13825
15:45:58.937541,-1
15:45:58.937541,-52
15:45:58.937541,-11265
15:45:58.937541,-1
15:45:58.937541,23
15:45:58.937541,-27648
15:45:58.937541,0
15:45:58.937541,-9
15:45:58.937541,-12289
15:45:58.937541,-4
15:45:58.937541,-1675
15:45:58.937541,7679
15:45:58.937541,-6
15:45:58.937541,-647
15:45:58.937541,22271
15:45:58.937541,-1
15:45:58.937541,-64
15:45:58.937541,19199
15:45:58.937541,0
15:45:58.937541,146
15:45:58.937541,29952
15:45:58.937541,0
15:45:58.937541,122
15:45:58.937541,-29952
15:45:58.937541,0
15:45:58.937541,122
15:45:58.937541,28672
15:45:58.937541,0
15:45:58.937541,115
15:45:58.937541,26880
15:45:58.937541,0
15:45:58.937541,98
15:45:58.937541,24320
15:45:58.937541,0
15:45:58.937541,88
15:45:58.937541,22016
15:45:58.937541,0
15:45:58.937541,86
15:45:58.937541,20224
15:45:58.937541,0
15:45:58.937541,76
15:45:58.937541,18944
15:45:58.937541,0
15:45:58.937541,67
15:45:58.937541,15872
15:45:58.937541,0
15:45:58.937541,57
15:45:58.937541,11520
15:45:58.937541,0
15:45:58.937541,26
15:45:58.937541,1792
15:45:58.937541,0
15:45:58.937541,-4
15:45:59.478381,-19
15:45:59.478381,-10753
15:45:59.478381,-1
15:45:59.478381,-69
15:45:59.478381,-22273
15:45:59.478381,-1
15:45:59.478381,-98
15:45:59.478381,-24065
15:45:59.478381,-1
15:45:59.478381,-76
15:45:59.478381,-13057
15:45:59.478381,-1
15:45:59.478381,-33
15:45:59.478381,-3841
15:45:59.478381,-1
15:45:59.478381,-9
15:45:59.478381,255
15:45:59.478381,0
15:45:59.478381,11
15:45:59.478381,2304
15:45:59.478381,0
15:45:59.478381,0
15:45:59.478381,-512
15:45:59.478381,-1
15:45:59.478381,-2
15:45:59.478381,-769
15:45:59.478381,-1
15:45:59.478381,-4
15:45:59.478381,-257
15:45:59.478381,-1
15:45:59.478381,-2
15:45:59.478381,-257
15:45:59.478381,-1
15:45:59.478381,-4
15:45:59.478381,-257
15:45:59.478381,-1
15:45:59.478381,-2
15:45:59.478381,-1537
15:45:59.478381,-1
15:45:59.478381,-9
15:45:59.478381,-1537
15:45:59.478381,-1
15:45:59.478381,-9
15:45:59.478381,-3841
15:45:59.478381,-1
15:45:59.478381,-19
15:45:59.478381,-4609
15:45:59.478381,-1
15:45:59.478381,-19
15:45:59.478381,-6401
15:45:59.478381,-1
15:45:59.478381,-31
15:45:59.478381,-8193
15:45:59.478381,-1
15:45:59.478381,-35
15:45:59.478381,-9985
15:45:59.478381,-1
15:45:59.478381,-40
15:45:59.478381,-10753
15:45:59.478381,-1
15:45:59.478381,-47
15:45:59.478381,-11265
15:45:59.478381,-1
15:45:59.478381,-40
15:45:59.478381,-10753
15:45:59.478381,-1
15:45:59.478381,-47
15:45:59.478381,-11265
15:45:59.478381,-1
15:45:59.478381,-43
15:45:59.478381,-11777
15:45:59.478381,-1
15:45:59.478381,-50
15:45:59.478381,-13057
15:45:59.478381,-1
15:45:59.478381,-52
15:45:59.478381,-11265
15:45:59.478381,-1
15:45:59.478381,-47
15:45:59.478381,-14337
15:45:59.478381,-1
15:45:59.478381,-55
15:45:59.478381,-12545
15:45:59.478381,-1
15:45:59.478381,-47
15:45:59.478381,-12545
15:45:59.478381,-1
15:45:59.478381,-47
15:45:59.478381,-10753
15:45:59.478381,-1
15:45:59.478381,-47
15:45:59.478381,-13057
15:45:59.478381,-1
15:45:59.478381,-52
15:45:59.478381,-13057
15:45:59.478381,-1
15:45:59.478381,-50
15:45:59.478381,-9985
15:45:59.478381,-1
15:45:59.478381,-33
15:45:59.478381,-8193
15:45:59.478381,-1
15:45:59.478381,-43
15:45:59.478381,-13057
15:45:59.478381,-1
15:45:59.478381,-57
15:45:59.478381,-16897
15:45:59.478381,-1
15:45:59.478381,-69
15:46:00.024822,-57
15:46:00.024822,-11265
15:46:00.024822,-1
15:46:00.024822,-50
15:46:00.024822,-15617
15:46:00.024822,-1
15:46:00.024822,-62
15:46:00.024822,-14849
15:46:00.024822,-1
15:46:00.024822,-62
15:46:00.024822,-16897
15:46:00.024822,-1
15:46:00.024822,-59
15:46:00.024822,-6401
15:46:00.024822,-1
15:46:00.024822,74
15:46:00.024822,-22016
15:46:00.024822,0
15:46:00.024822,-136
15:46:00.024822,511
15:46:00.024822,-4
15:46:00.024822,-1612
15:46:00.024822,-30209
15:46:00.024822,-5
15:46:00.024822,-405
15:46:00.024822,23039
15:46:00.024822,-1
15:46:00.024822,-57
15:46:00.024822,28415
15:46:00.024822,0
15:46:00.024822,122
15:46:00.024822,21248
15:46:00.024822,0
15:46:00.024822,110
15:46:00.024822,29952
15:46:00.024822,0
15:46:00.024822,100
15:46:00.024822,24320
15:46:00.024822,0
15:46:00.024822,95
15:46:00.024822,23296
15:46:00.024822,0
15:46:00.024822,83
15:46:00.024822,20224
15:46:00.024822,0
15:46:00.024822,74
15:46:00.024822,17152
15:46:00.024822,0
15:46:00.024822,62
15:46:00.024822,14080
15:46:00.024822,0
15:46:00.024822,47
15:46:00.024822,10240
15:46:00.024822,0
15:46:00.024822,38
15:46:00.024822,9728
15:46:00.024822,0
15:46:00.024822,26
15:46:00.024822,2304
15:46:00.024822,0
15:46:00.024822,-7
15:46:00.024822,-6913
15:46:00.024822,-1
15:46:00.024822,-52
15:46:00.024822,-18689
15:46:00.024822,-1
15:46:00.024822,-95
15:46:00.024822,-29185
15:46:00.024822,-1
15:46:00.024822,-131
15:46:00.024822,32767
15:46:00.024822,-1
15:46:00.024822,-105
15:46:00.024822,-17409
15:46:00.024822,-1
15:46:00.024822,-40
15:46:00.024822,-5121
15:46:00.024822,-1
15:46:00.024822,-11
15:46:00.024822,255
15:46:00.024822,0
15:46:00.024822,7
15:46:00.024822,1792
15:46:00.024822,0
15:46:00.024822,4
15:46:00.024822,1792
15:46:00.024822,0
15:46:00.024822,4
15:46:00.024822,1024
15:46:00.024822,0
15:46:00.024822,2
15:46:00.024822,1792
15:46:00.024822,0
15:46:00.024822,9
15:46:00.024822,1024
15:46:00.024822,0
15:46:00.024822,0
15:46:00.024822,-512
15:46:00.024822,-1
15:46:00.024822,-2
15:46:00.024822,-2049
15:46:00.024822,-1
15:46:00.024822,-16
15:46:00.024822,-4609
15:46:00.024822,-1
15:46:00.024822,-23
15:46:00.024822,-8193
15:46:00.024822,-1
15:46:00.024822,-38
15:46:00.604484,-38
15:46:00.604484,-9473
15:46:00.604484,-1
15:46:00.604484,-40
15:46:00.604484,-9473
15:46:00.604484,-1
15:46:00.604484,-38
15:46:00.604484,-8705
15:46:00.604484,-1
15:46:00.604484,-31
15:46:00.604484,-6401
15:46:00.604484,-1
15:46:00.604484,-28
15:46:00.604484,-8193
15:46:00.604484,-1
15:46:00.604484,-31
15:46:00.604484,-7681
15:46:00.604484,-1
15:46:00.604484,-35
15:46:00.604484,-8705
15:46:00.604484,-1
15:46:00.604484,-33
15:46:00.604484,-8193
15:46:00.604484,-1
15:46:00.604484,-38
15:46:00.604484,-9985
15:46:00.604484,-1
15:46:00.604484,-38
15:46:00.604484,-8705
15:46:00.604484,-1
15:46:00.604484,-40
15:46:00.604484,-10753
15:46:00.604484,-1
15:46:00.604484,-40
15:46:00.604484,-9473
15:46:00.604484,-1
15:46:00.604484,-43
15:46:00.604484,-11265
15:46:00.604484,-1
15:46:00.604484,-43
15:46:00.604484,-9985
15:46:00.604484,-1
15:46:00.604484,-47
15:46:00.604484,-12545
15:46:00.604484,-1
15:46:00.604484,-45
15:46:00.604484,-11265
15:46:00.604484,-1
15:46:00.604484,-50
15:46:00.604484,-11777
15:46:00.604484,-1
15:46:00.604484,-45
15:46:00.604484,-11265
15:46:00.604484,-1
15:46:00.604484,-40
15:46:00.604484,-7681
15:46:00.604484,-1
15:46:00.604484,-23
15:46:00.604484,-6913
15:46:00.604484,-1
15:46:00.604484,-45
15:46:00.604484,-14337
15:46:00.604484,-1
15:46:00.604484,-62
15:46:00.604484,-16129
15:46:00.604484,-1
15:46:00.604484,-52
15:46:00.604484,-10753
15:46:00.604484,-1
15:46:00.604484,-47
15:46:00.604484,-13057
15:46:00.604484,-1
15:46:00.604484,-52
15:46:00.604484,-13825
15:46:00.604484,-1
15:46:00.604484,-57
15:46:00.604484,-14337
15:46:00.604484,-1
15:46:00.604484,-55
15:46:00.604484,-9985
15:46:00.604484,-1
15:46:00.604484,43
15:46:00.604484,-25088
15:46:00.604484,0
15:46:00.604484,-74
15:46:00.604484,18943
15:46:00.604484,-4
15:46:00.604484,-1723
15:46:00.604484,31487
15:46:00.604484,-6
15:46:00.604484,-558
15:46:00.604484,24831
15:46:00.604484,-1
15:46:00.604484,-55
15:46:00.604484,24575
15:46:00.604484,0
15:46:00.604484,148
15:46:00.604484,29952
15:46:00.604484,0
15:46:00.604484,131
15:46:00.604484,-28928
15:46:00.604484,0
15:46:00.604484,124
15:46:00.604484,29952
15:46:00.604484,0
15:46:00.604484,119
15:46:00.604484,28672
15:46:00.604484,0
15:46:00.604484,105
15:46:01.143915,100
15:46:01.143915,24320
15:46:01.143915,0
15:46:01.143915,91
15:46:01.143915,22528
15:46:01.143915,0
15:46:01.143915,88
15:46:01.143915,22016
15:46:01.143915,0
15:46:01.143915,79
15:46:01.143915,18944
15:46:01.143915,0
15:46:01.143915,71
15:46:01.143915,19456
15:46:01.143915,0
15:46:01.143915,74
15:46:01.143915,15104
15:46:01.143915,0
15:46:01.143915,38
15:46:01.143915,4864
15:46:01.143915,0
15:46:01.143915,-4
15:46:01.143915,-8193
15:46:01.143915,-1
15:46:01.143915,-59
15:46:01.143915,-20481
15:46:01.143915,-1
15:46:01.143915,-93
15:46:01.143915,-22273
15:46:01.143915,-1
15:46:01.143915,-69
15:46:01.143915,-11265
15:46:01.143915,-1
15:46:01.143915,-23
15:46:01.143915,-2561
15:46:01.143915,-1
15:46:01.143915,-2
15:46:01.143915,767
15:46:01.143915,0
15:46:01.143915,2
15:46:01.143915,512
15:46:01.143915,0
15:46:01.143915,-4
15:46:01.143915,-1537
15:46:01.143915,-1
15:46:01.143915,-7
15:46:01.143915,-2049
15:46:01.143915,-1
15:46:01.143915,-9
15:46:01.143915,-2049
15:46:01.143915,-1
15:46:01.143915,-4
15:46:01.143915,-257
15:46:01.143915,-1
15:46:01.143915,-2
15:46:01.143915,-769
15:46:01.143915,-1
15:46:01.143915,-4
15:46:01.143915,-769
15:46:01.143915,-1
15:46:01.143915,-7
15:46:01.143915,-2561
15:46:01.143915,-1
15:46:01.143915,-16
15:46:01.143915,-4609
15:46:01.143915,-1
15:46:01.143915,-21
15:46:01.143915,-5633
15:46:01.143915,-1
15:46:01.143915,-31
15:46:01.143915,-8705
15:46:01.143915,-1
15:46:01.143915,-33
15:46:01.143915,-7681
15:46:01.143915,-1
15:46:01.143915,-38
15:46:01.143915,-10753
15:46:01.143915,-1
15:46:01.143915,-40
15:46:01.143915,-9985
15:46:01.143915,-1
15:46:01.143915,-43
15:46:01.143915,-11265
15:46:01.143915,-1
15:46:01.143915,-45
15:46:01.143915,-10753
15:46:01.143915,-1
15:46:01.143915,-43
15:46:01.143915,-11265
15:46:01.143915,-1
15:46:01.143915,-45
15:46:01.143915,-9985
15:46:01.143915,-1
15:46:01.143915,-43
15:46:01.143915,-11777
15:46:01.143915,-1
15:46:01.143915,-45
15:46:01.143915,-11265
15:46:01.143915,-1
15:46:01.143915,-50
15:46:01.143915,-11777
15:46:01.143915,-1
15:46:01.143915,-45
15:46:01.143915,-12545
15:46:01.143915,-1
15:46:01.143915,-52
15:46:01.143915,-11265
15:46:01.143915,-1
15:46:01.143915,-47
15:46:01.682953,-52
15:46:01.682953,-13057
15:46:01.682953,-1
15:46:01.682953,-50
15:46:01.682953,-13057
15:46:01.682953,-1
15:46:01.682953,-52
15:46:01.682953,-13057
15:46:01.682953,-1
15:46:01.682953,-50
15:46:01.682953,-9985
15:46:01.682953,-1
15:46:01.682953,-35
15:46:01.682953,-9473
15:46:01.682953,-1
15:46:01.682953,-40
15:46:01.682953,-9985
15:46:01.682953,-1
15:46:01.682953,-43
15:46:01.682953,-10753
15:46:01.682953,-1
15:46:01.682953,-40
15:46:01.682953,-9473
15:46:01.682953,-1
15:46:01.682953,-33
15:46:01.682953,-5121
15:46:01.682953,-1
15:46:01.682953,-16
15:46:01.682953,-7681
15:46:01.682953,-1
15:46:01.682953,-50
15:46:01.682953,-14849
15:46:01.682953,-1
15:46:01.682953,-62
15:46:01.682953,-14849
15:46:01.682953,-1
15:46:01.682953,-43
15:46:01.682953,-8705
15:46:01.682953,-1
15:46:01.682953,-43
15:46:01.682953,-12545
15:46:01.682953,-1
15:46:01.682953,-50
15:46:01.682953,-12545
15:46:01.682953,-1
15:46:01.682953,-52
15:46:01.682953,-13825
15:46:01.682953,-1
15:46:01.682953,-50
15:46:01.682953,-2049
15:46:01.682953,-1
15:46:01.682953,107
15:46:01.682953,-32512
15:46:01.682953,0
15:46:01.682953,-407
15:46:01.682953,-28929
15:46:01.682953,-6
15:46:01.682953,-1725
15:46:01.682953,3071
15:46:01.682953,-4
15:46:01.682953,-299
15:46:01.682953,-26113
15:46:01.682953,-1
15:46:01.682953,14
15:46:01.682953,-28160
15:46:01.682953,0
15:46:01.682953,143
15:46:01.682953,31232
15:46:01.682953,0
15:46:01.682953,146
15:46:01.682953,-28928
15:46:01.682953,0
15:46:01.682953,124
15:46:01.682953,31232
15:46:01.682953,0
15:46:01.682953,122
15:46:01.682953,28672
15:46:01.682953,0
15:46:01.682953,105
15:46:01.682953,26368
15:46:01.682953,0
15:46:01.682953,98
15:46:01.682953,23808
15:46:01.682953,0
15:46:01.682953,88
15:46:01.682953,22016
15:46:01.682953,0
15:46:01.682953,83
15:46:01.682953,19456
15:46:01.682953,0
15:46:01.682953,67
15:46:01.682953,15872
15:46:01.682953,0
15:46:01.682953,55
15:46:01.682953,11008
15:46:01.682953,0
15:46:01.682953,31
15:46:01.682953,3584
15:46:01.682953,0
15:46:01.682953,-9
15:46:01.682953,-8705
15:46:01.682953,-1
15:46:01.682953,-57
15:46:01.682953,-19969
15:46:01.682953,-1
15:46:01.682953,-95
15:46:01.682953,-26113
15:46:01.682953,-1
15:46:01.682953,-93
15:46:02.358239,-76
15:46:02.358239,-13057
15:46:02.358239,-1
15:46:02.358239,-28
15:46:02.358239,-2561
15:46:02.358239,-1
15:46:02.358239,-2
15:46:02.358239,2047
15:46:02.358239,0
15:46:02.358239,4
15:46:02.358239,-1024
15:46:02.358239,-1
15:46:02.358239,-7
15:46:02.358239,-257
15:46:02.358239,-1
15:46:02.358239,-2
15:46:02.358239,-1537
15:46:02.358239,-1
15:46:02.358239,-11
15:46:02.358239,-1537
15:46:02.358239,-1
15:46:02.358239,-7
15:46:02.358239,-2561
15:46:02.358239,-1
15:46:02.358239,-7
15:46:02.358239,-769
15:46:02.358239,-1
15:46:02.358239,-11
15:46:02.358239,-3329
15:46:02.358239,-1
15:46:02.358239,-11
15:46:02.358239,-2049
15:46:02.358239,-1
15:46:02.358239,-11
15:46:02.358239,-5121
15:46:02.358239,-1
15:46:02.358239,-26
15:46:02.358239,-8193
15:46:02.358239,-1
15:46:02.358239,-35
15:46:02.358239,-8193
15:46:02.358239,-1
15:46:02.358239,-35
15:46:02.358239,-10753
15:46:02.358239,-1
15:46:02.358239,-47
15:46:02.358239,-11265
15:46:02.358239,-1
15:46:02.358239,-40
15:46:02.358239,-9985
15:46:02.358239,-1
15:46:02.358239,-45
15:46:02.358239,-11777
15:46:02.358239,-1
15:46:02.358239,-50
15:46:02.358239,-12545
15:46:02.358239,-1
15:46:02.358239,-47
15:46:02.358239,-12545
15:46:02.358239,-1
15:46:02.358239,-50
15:46:02.358239,-11777
15:46:02.358239,-1
15:46:02.358239,-47
15:46:02.358239,-13057
15:46:02.358239,-1
15:46:02.358239,-55
15:46:02.358239,-13825
15:46:02.358239,-1
15:46:02.358239,-55
15:46:02.358239,-12545
15:46:02.358239,-1
15:46:02.358239,-52
15:46:02.358239,-14849
15:46:02.358239,-1
15:46:02.358239,-57
15:46:02.358239,-13057
15:46:02.358239,-1
15:46:02.358239,-55
15:46:02.358239,-14337
15:46:02.358239,-1
15:46:02.358239,-55
15:46:02.358239,-13057
15:46:02.358239,-1
15:46:02.358239,-50
15:46:02.358239,-11265
15:46:02.358239,-1
15:46:02.358239,-35
15:46:02.358239,-6913
15:46:02.358239,-1
15:46:02.358239,-47
15:46:02.358239,-16129
15:46:02.358239,-1
15:46:02.358239,-67
15:46:02.358239,-17921
15:46:02.358239,-1
15:46:02.358239,-71
15:46:02.358239,-13825
15:46:02.358239,-1
15:46:02.358239,-50
15:46:02.358239,-14337
15:46:02.358239,-1
15:46:02.358239,-57
15:46:02.358239,-14849
15:46:02.358239,-1
15:46:02.358239,-69
15:46:02.358239,-17409
15:46:02.358239,-1
15:46:02.358239,-62
15:46:02.853593,-55
15:46:02.853593,-769
15:46:02.853593,-1
15:46:02.853593,122
15:46:02.853593,23296
15:46:02.853593,0
15:46:02.853593,-522
15:46:02.853593,30975
15:46:02.853593,-6
15:46:02.853593,-1502
15:46:02.853593,2559
15:46:02.853593,-3
15:46:02.853593,-254
15:46:02.853593,30207
15:46:02.853593,-1
15:46:02.853593,26
15:46:02.853593,31744
15:46:02.853593,0
15:46:02.853593,88
15:46:02.853593,23808
15:46:02.853593,0
15:46:02.853593,122
15:46:02.853593,27392
15:46:02.853593,0
15:46:02.853593,95
15:46:02.853593,25088
15:46:02.853593,0
15:46:02.853593,95
15:46:02.853593,25088
15:46:02.853593,0
15:46:02.853593,100
15:46:02.853593,22528
15:46:02.853593,0
15:46:02.853593,83
15:46:02.853593,21248
15:46:02.853593,0
15:46:02.853593,76
15:46:02.853593,17664
15:46:02.853593,0
15:46:02.853593,67
15:46:02.853593,15872
15:46:02.853593,0
15:46:02.853593,52
15:46:02.853593,10240
15:46:02.853593,0
15:46:02.853593,31
15:46:02.853593,4864
15:46:02.853593,0
15:46:02.853593,2
15:46:02.853593,-5888
15:46:02.853593,-1
15:46:02.853593,-45
15:46:02.853593,-16897
15:46:02.853593,-1
15:46:02.853593,-91
15:46:02.853593,-29185
15:46:02.853593,-1
15:46:02.853593,-127
15:46:02.853593,-29185
15:46:02.853593,-1
15:46:02.853593,-91
15:46:02.853593,-15617
15:46:02.853593,-1
15:46:02.853593,-35
15:46:02.853593,-3841
15:46:02.853593,-1
15:46:02.853593,-4
15:46:02.853593,-257
15:46:02.853593,-1
15:46:02.853593,0
15:46:02.853593,0
15:46:02.853593,0
15:46:02.853593,-2
15:46:02.853593,255
15:46:02.853593,0
15:46:02.853593,4
15:46:02.853593,1024
15:46:02.853593,0
15:46:02.853593,4
15:46:02.853593,1024
15:46:02.853593,0
15:46:02.853593,2
15:46:02.853593,0
15:46:02.853593,0
15:46:02.853593,-2
15:46:02.853593,-1537
15:46:02.853593,-1
15:46:02.853593,-14
15:46:02.853593,-5121
15:46:02.853593,-1
15:46:02.853593,-26
15:46:02.853593,-7681
15:46:02.853593,-1
15:46:02.853593,-31
15:46:02.853593,-8193
15:46:02.853593,-1
15:46:02.853593,-40
15:46:02.853593,-9985
15:46:02.853593,-1
15:46:02.853593,-35
15:46:02.853593,-10753
15:46:02.853593,-1
15:46:02.853593,-45
15:46:02.853593,-9473
15:46:02.853593,-1
15:46:02.853593,-40
15:46:02.853593,-11265
15:46:02.853593,-1
15:46:02.853593,-43
15:46:03.393080,-43
15:46:03.393080,-9985
15:46:03.393080,-1
15:46:03.393080,-45
15:46:03.393080,-11265
15:46:03.393080,-1
15:46:03.393080,-45
15:46:03.393080,-11777
15:46:03.393080,-1
15:46:03.393080,-45
15:46:03.393080,-9985
15:46:03.393080,-1
15:46:03.393080,-40
15:46:03.393080,-9985
15:46:03.393080,-1
15:46:03.393080,-38
15:46:03.393080,-7681
15:46:03.393080,-1
15:46:03.393080,-31
15:46:03.393080,-9473
15:46:03.393080,-1
15:46:03.393080,-40
15:46:03.393080,-9473
15:46:03.393080,-1
15:46:03.393080,-38
15:46:03.393080,-9985
15:46:03.393080,-1
15:46:03.393080,-40
15:46:03.393080,-9985
15:46:03.393080,-1
15:46:03.393080,-40
15:46:03.393080,-10753
15:46:03.393080,-1
15:46:03.393080,-45
15:46:03.393080,-10753
15:46:03.393080,-1
15:46:03.393080,-38
15:46:03.393080,-8705
15:46:03.393080,-1
15:46:03.393080,-26
15:46:03.393080,-5121
15:46:03.393080,-1
15:46:03.393080,-28
15:46:03.393080,-11265
15:46:03.393080,-1
15:46:03.393080,-59
15:46:03.393080,-16129
15:46:03.393080,-1
15:46:03.393080,-62
15:46:03.393080,-11777
15:46:03.393080,-1
15:46:03.393080,-38
15:46:03.393080,-11265
15:46:03.393080,-1
15:46:03.393080,-50
15:46:03.393080,-12545
15:46:03.393080,-1
15:46:03.393080,-55
15:46:03.393080,-14337
15:46:03.393080,-1
15:46:03.393080,-55
15:46:03.393080,-13057
15:46:03.393080,-1
15:46:03.393080,-11
15:46:03.393080,28927
15:46:03.393080,0
15:46:03.393080,117
15:46:03.393080,12288
15:46:03.393080,-2
15:46:03.393080,-1449
15:46:03.393080,23551
15:46:03.393080,-7
15:46:03.393080,-956
15:46:03.393080,-6401
15:46:03.393080,-2
15:46:03.393080,-100
15:46:03.393080,6911
15:46:03.393080,0
15:46:03.393080,146
15:46:03.393080,-31232
15:46:03.393080,0
15:46:03.393080,119
15:46:03.393080,-28928
15:46:03.393080,0
15:46:03.393080,136
15:46:03.393080,30464
15:46:03.393080,0
15:46:03.393080,122
15:46:03.393080,30464
15:46:03.393080,0
15:46:03.393080,110
15:46:03.393080,28160
15:46:03.393080,0
15:46:03.393080,105
15:46:03.393080,25600
15:46:03.393080,0
15:46:03.393080,100
15:46:03.393080,24320
15:46:03.393080,0
15:46:03.393080,86
15:46:03.393080,22016
15:46:03.393080,0
15:46:03.393080,88
15:46:03.393080,20736
15:46:03.393080,0
15:46:03.393080,71
15:46:03.393080,17664
15:46:03.393080,0
15:46:03.393080,64
15:46:03.976979,45
15:46:03.976979,5888
15:46:03.976979,0
15:46:03.976979,4
15:46:03.976979,-5376
15:46:03.976979,-1
15:46:03.976979,-47
15:46:03.976979,-17921
15:46:03.976979,-1
15:46:03.976979,-88
15:46:03.976979,-23553
15:46:03.976979,-1
15:46:03.976979,-76
15:46:03.976979,-11777
15:46:03.976979,-1
15:46:03.976979,-26
15:46:03.976979,-2561
15:46:03.976979,-1
15:46:03.976979,-2
15:46:03.976979,255
15:46:03.976979,0
15:46:03.976979,4
15:46:03.976979,1024
15:46:03.976979,0
15:46:03.976979,2
15:46:03.976979,-512
15:46:03.976979,-1
15:46:03.976979,-2
15:46:03.976979,-769
15:46:03.976979,-1
15:46:03.976979,-7
15:46:03.976979,-769
15:46:03.976979,-1
15:46:03.976979,-7
15:46:03.976979,-1537
15:46:03.976979,-1
15:46:03.976979,-7
15:46:03.976979,-257
15:46:03.976979,-1
15:46:03.976979,-2
15:46:03.976979,-257
15:46:03.976979,-1
15:46:03.976979,-7
15:46:03.976979,-2049
15:46:03.976979,-1
15:46:03.976979,-9
15:46:03.976979,-2561
15:46:03.976979,-1
15:46:03.976979,-16
15:46:03.976979,-5633
15:46:03.976979,-1
15:46:03.976979,-26
15:46:03.976979,-6913
15:46:03.976979,-1
15:46:03.976979,-31
15:46:03.976979,-8193
15:46:03.976979,-1
15:46:03.976979,-38
15:46:03.976979,-9473
15:46:03.976979,-1
15:46:03.976979,-35
15:46:03.976979,-9985
15:46:03.976979,-1
15:46:03.976979,-45
15:46:03.976979,-10753
15:46:03.976979,-1
15:46:03.976979,-43
15:46:03.976979,-11265
15:46:03.976979,-1
15:46:03.976979,-45
15:46:03.976979,-10753
15:46:03.976979,-1
15:46:03.976979,-43
15:46:03.976979,-10753
15:46:03.976979,-1
15:46:03.976979,-45
15:46:03.976979,-11265
15:46:03.976979,-1
15:46:03.976979,-47
15:46:03.976979,-12545
15:46:03.976979,-1
15:46:03.976979,-47
15:46:03.976979,-11265
15:46:03.976979,-1
15:46:03.976979,-50
15:46:03.976979,-13057
15:46:03.976979,-1
15:46:03.976979,-45
15:46:03.976979,-11265
15:46:03.976979,-1
15:46:03.976979,-50
15:46:03.976979,-13057
15:46:03.976979,-1
15:46:03.976979,-52
15:46:03.976979,-12545
15:46:03.976979,-1
15:46:03.976979,-45
15:46:03.976979,-11265
15:46:03.976979,-1
15:46:03.976979,-52
15:46:03.976979,-11777
15:46:03.976979,-1
15:46:03.976979,-47
15:46:03.976979,-12545
15:46:03.976979,-1
15:46:03.976979,-50
15:46:03.976979,-11777
15:46:03.976979,-1
15:46:03.976979,-47
15:46:04.515454,-45
15:46:04.515454,-8705
15:46:04.515454,-1
15:46:04.515454,-31
15:46:04.515454,-7681
15:46:04.515454,-1
15:46:04.515454,-43
15:46:04.515454,-14849
15:46:04.515454,-1
15:46:04.515454,-74
15:46:04.515454,-19201
15:46:04.515454,-1
15:46:04.515454,-64
15:46:04.515454,-12545
15:46:04.515454,-1
15:46:04.515454,-50
15:46:04.515454,-11777
15:46:04.515454,-1
15:46:04.515454,-40
15:46:04.515454,-10753
15:46:04.515454,-1
15:46:04.515454,-50
15:46:04.515454,-13825
15:46:04.515454,-1
15:46:04.515454,-52
15:46:04.515454,-9985
15:46:04.515454,-1
15:46:04.515454,38
15:46:04.515454,-25088
15:46:04.515454,0
15:46:04.515454,-62
15:46:04.515454,24575
15:46:04.515454,-4
15:46:04.515454,-1718
15:46:04.515454,26623
15:46:04.515454,-6
15:46:04.515454,-570
15:46:04.515454,26623
15:46:04.515454,-1
15:46:04.515454,-52
15:46:04.515454,24063
15:46:04.515454,0
15:46:04.515454,150
15:46:04.515454,30464
15:46:04.515454,0
15:46:04.515454,129
15:46:04.515454,-29440
15:46:04.515454,0
15:46:04.515454,124
15:46:04.515454,29952
15:46:04.515454,0
15:46:04.515454,119
15:46:04.515454,28672
15:46:04.515454,0
15:46:04.515454,105
15:46:04.515454,26880
15:46:04.515454,0
15:46:04.515454,98
15:46:04.515454,23808
15:46:04.515454,0
15:46:04.515454,88
15:46:04.515454,22016
15:46:04.515454,0
15:46:04.515454,79
15:46:04.515454,18944
15:46:04.515454,0
15:46:04.515454,64
15:46:04.515454,14592
15:46:04.515454,0
15:46:04.515454,57
15:46:04.515454,13312
15:46:04.515454,0
15:46:04.515454,33
15:46:04.515454,3584
15:46:04.515454,0
15:46:04.515454,-4
15:46:04.515454,-6913
15:46:04.515454,-1
15:46:04.515454,-50
15:46:04.515454,-17409
15:46:04.515454,-1
15:46:04.515454,-91
15:46:04.515454,-27137
15:46:04.515454,-1
15:46:04.515454,-103
15:46:04.515454,-20481
15:46:04.515454,-1
15:46:04.515454,-57
15:46:04.515454,-8705
15:46:04.515454,-1
15:46:04.515454,-19
15:46:04.515454,-2049
15:46:04.515454,-1
15:46:04.515454,-7
15:46:04.515454,-769
15:46:04.515454,-1
15:46:04.515454,-7
15:46:04.515454,-2049
15:46:04.515454,-1
15:46:04.515454,-11
15:46:04.515454,-3841
15:46:04.515454,-1
15:46:04.515454,-16
15:46:04.515454,-4609
15:46:04.515454,-1
15:46:04.515454,-16
15:46:04.515454,-3841
15:46:04.515454,-1
15:46:04.515454,-16
15:46:05.058054,-14
15:46:05.058054,-3329
15:46:05.058054,-1
15:46:05.058054,-11
15:46:05.058054,-2049
15:46:05.058054,-1
15:46:05.058054,-14
15:46:05.058054,-3841
15:46:05.058054,-1
15:46:05.058054,-14
15:46:05.058054,-5121
15:46:05.058054,-1
15:46:05.058054,-23
15:46:05.058054,-2561
15:46:05.058054,-1
15:46:05.058054,-9
15:46:05.058054,-5121
15:46:05.058054,-1
15:46:05.058054,-33
15:46:05.058054,-8705
15:46:05.058054,-1
15:46:05.058054,-35
15:46:05.058054,-8705
15:46:05.058054,-1
15:46:05.058054,-35
15:46:05.058054,-8705
15:46:05.058054,-1
15:46:05.058054,-40
15:46:05.058054,-11265
15:46:05.058054,-1
15:46:05.058054,-45
15:46:05.058054,-10753
15:46:05.058054,-1
15:46:05.058054,-40
15:46:05.058054,-9985
15:46:05.058054,-1
15:46:05.058054,-38
15:46:05.058054,-10753
15:46:05.058054,-1
15:46:05.058054,-47
15:46:05.058054,-11777
15:46:05.058054,-1
15:46:05.058054,-45
15:46:05.058054,-11265
15:46:05.058054,-1
15:46:05.058054,-45
15:46:05.058054,-11265
15:46:05.058054,-1
15:46:05.058054,-47
15:46:05.058054,-12545
15:46:05.058054,-1
15:46:05.058054,-50
15:46:05.058054,-13057
15:46:05.058054,-1
15:46:05.058054,-47
15:46:05.058054,-10753
15:46:05.058054,-1
15:46:05.058054,-47
15:46:05.058054,-11777
15:46:05.058054,-1
15:46:05.058054,-45
15:46:05.058054,-12545
15:46:05.058054,-1
15:46:05.058054,-55
15:46:05.058054,-12545
15:46:05.058054,-1
15:46:05.058054,-47
15:46:05.058054,-11777
15:46:05.058054,-1
15:46:05.058054,-38
15:46:05.058054,-6401
15:46:05.058054,-1
15:46:05.058054,-26
15:46:05.058054,-9985
15:46:05.058054,-1
15:46:05.058054,-57
15:46:05.058054,-17921
15:46:05.058054,-1
15:46:05.058054,-69
15:46:05.058054,-12545
15:46:05.058054,-1
15:46:05.058054,-43
15:46:05.058054,-12545
15:46:05.058054,-1
15:46:05.058054,-52
15:46:05.058054,-12545
15:46:05.058054,-1
15:46:05.058054,-52
15:46:05.058054,-14337
15:46:05.058054,-1
15:46:05.058054,-57
15:46:05.058054,-13825
15:46:05.058054,-1
15:46:05.058054,-38
15:46:05.058054,14335
15:46:05.058054,0
15:46:05.058054,158
15:46:05.058054,29952
15:46:05.058054,-1
15:46:05.058054,-1028
15:46:05.058054,-31489
15:46:05.058054,-7
15:46:05.058054,-1222
15:46:05.058054,17407
15:46:05.058054,-2
15:46:05.058054,-170
15:46:05.058054,-15617
15:46:05.058054,-1
15:46:05.058054,103
15:46:05.643400,129
15:46:05.643400,24320
15:46:05.643400,0
15:46:05.643400,115
15:46:05.643400,30464
15:46:05.643400,0
15:46:05.643400,103
15:46:05.643400,28160
15:46:05.643400,0
15:46:05.643400,119
15:46:05.643400,27392
15:46:05.643400,0
15:46:05.643400,95
15:46:05.643400,23808
15:46:05.643400,0
15:46:05.643400,91
15:46:05.643400,22016
15:46:05.643400,0
15:46:05.643400,81
15:46:05.643400,19456
15:46:05.643400,0
15:46:05.643400,71
15:46:05.643400,17664
15:46:05.643400,0
15:46:05.643400,62
15:46:05.643400,13312
15:46:05.643400,0
15:46:05.643400,45
15:46:05.643400,8960
15:46:05.643400,0
15:46:05.643400,19
15:46:05.643400,0
15:46:05.643400,0
15:46:05.643400,-19
15:46:05.643400,-11777
15:46:05.643400,-1
15:46:05.643400,-71
15:46:05.643400,-23041
15:46:05.643400,-1
15:46:05.643400,-107
15:46:05.643400,-28417
15:46:05.643400,-1
15:46:05.643400,-98
15:46:05.643400,-17409
15:46:05.643400,-1
15:46:05.643400,-40
15:46:05.643400,-4609
15:46:05.643400,-1
15:46:05.643400,-4
15:46:05.643400,2047
15:46:05.643400,0
15:46:05.643400,11
15:46:05.643400,2304
15:46:05.643400,0
15:46:05.643400,4
15:46:05.643400,1024
15:46:05.643400,0
15:46:05.643400,7
15:46:05.643400,1024
15:46:05.643400,0
15:46:05.643400,4
15:46:05.643400,1024
15:46:05.643400,0
15:46:05.643400,7
15:46:05.643400,1792
15:46:05.643400,0
15:46:05.643400,4
15:46:05.643400,1792
15:46:05.643400,0
15:46:05.643400,4
15:46:05.643400,0
15:46:05.643400,0
15:46:05.643400,-9
15:46:05.643400,-3841
15:46:05.643400,-1
15:46:05.643400,-21
15:46:05.643400,-5633
15:46:05.643400,-1
15:46:05.643400,-28
15:46:05.643400,-8705
15:46:05.643400,-1
15:46:05.643400,-38
15:46:05.643400,-10753
15:46:05.643400,-1
15:46:05.643400,-38
15:46:05.643400,-7681
15:46:05.643400,-1
15:46:05.643400,-35
15:46:05.643400,-9985
15:46:05.643400,-1
15:46:05.643400,-38
15:46:05.643400,-9473
15:46:05.643400,-1
15:46:05.643400,-43
15:46:05.643400,-10753
15:46:05.643400,-1
15:46:05.643400,-43
15:46:05.643400,-9985
15:46:05.643400,-1
15:46:05.643400,-40
15:46:05.643400,-10753
15:46:05.643400,-1
15:46:05.643400,-40
15:46:05.643400,-10753
15:46:05.643400,-1
15:46:05.643400,-45
15:46:05.643400,-11265
15:46:05.643400,-1
15:46:05.643400,-47
15:46:06.224464,-52
15:46:06.224464,-12545
15:46:06.224464,-1
15:46:06.224464,-47
15:46:06.224464,-11777
15:46:06.224464,-1
15:46:06.224464,-47
15:46:06.224464,-11265
15:46:06.224464,-1
15:46:06.224464,-43
15:46:06.224464,-9985
15:46:06.224464,-1
15:46:06.224464,-33
15:46:06.224464,-5121
15:46:06.224464,-1
15:46:06.224464,-11
15:46:06.224464,-1537
15:46:06.224464,-1
15:46:06.224464,-7
15:46:06.224464,-4609
15:46:06.224464,-1
15:46:06.224464,-38
15:46:06.224464,-12545
15:46:06.224464,-1
15:46:06.224464,-55
15:46:06.224464,-13057
15:46:06.224464,-1
15:46:06.224464,-38
15:46:06.224464,-7681
15:46:06.224464,-1
15:46:06.224464,-38
15:46:06.224464,-10753
15:46:06.224464,-1
15:46:06.224464,-43
15:46:06.224464,-11777
15:46:06.224464,-1
15:46:06.224464,-50
15:46:06.224464,-12545
15:46:06.224464,-1
15:46:06.224464,-45
15:46:06.224464,1279
15:46:06.224464,0
15:46:06.224464,131
15:46:06.224464,29440
15:46:06.224464,0
15:46:06.224464,-493
15:46:06.224464,24831
15:46:06.224464,-6
15:46:06.224464,-1603
15:46:06.224464,-19713
15:46:06.224464,-4
15:46:06.224464,-251
15:46:06.224464,-27137
15:46:06.224464,-1
15:46:06.224464,35
15:46:06.224464,-28160
15:46:06.224464,0
15:46:06.224464,122
15:46:06.224464,29440
15:46:06.224464,0
15:46:06.224464,136
15:46:06.224464,31744
15:46:06.224464,0
15:46:06.224464,110
15:46:06.224464,29952
15:46:06.224464,0
15:46:06.224464,117
15:46:06.224464,26880
15:46:06.224464,0
15:46:06.224464,100
15:46:06.224464,25088
15:46:06.224464,0
15:46:06.224464,93
15:46:06.224464,22528
15:46:06.224464,0
15:46:06.224464,88
15:46:06.224464,22016
15:46:06.224464,0
15:46:06.224464,81
15:46:06.224464,19456
15:46:06.224464,0
15:46:06.224464,71
15:46:06.224464,17664
15:46:06.224464,0
15:46:06.224464,59
15:46:06.224464,11520
15:46:06.224464,0
15:46:06.224464,26
15:46:06.224464,1024
15:46:06.224464,0
15:46:06.224464,-19
15:46:06.224464,-9985
15:46:06.224464,-1
15:46:06.224464,-64
15:46:06.224464,-23041
15:46:06.224464,-1
15:46:06.224464,-107
15:46:06.224464,-26113
15:46:06.224464,-1
15:46:06.224464,-81
15:46:06.224464,-14337
15:46:06.224464,-1
15:46:06.224464,-33
15:46:06.224464,-3329
15:46:06.224464,-1
15:46:06.224464,-2
15:46:06.224464,1279
15:46:06.224464,0
15:46:06.224464,4
15:46:06.765291,4
15:46:06.765291,1792
15:46:06.765291,0
15:46:06.765291,2
15:46:06.765291,-512
15:46:06.765291,-1
15:46:06.765291,0
15:46:06.765291,1024
15:46:06.765291,0
15:46:06.765291,4
15:46:06.765291,1024
15:46:06.765291,0
15:46:06.765291,7
15:46:06.765291,2304
15:46:06.765291,0
15:46:06.765291,7
15:46:06.765291,1024
15:46:06.765291,0
15:46:06.765291,9
15:46:06.765291,2816
15:46:06.765291,0
15:46:06.765291,4
15:46:06.765291,-512
15:46:06.765291,-1
15:46:06.765291,-9
15:46:06.765291,-3329
15:46:06.765291,-1
15:46:06.765291,-16
15:46:06.765291,-3841
15:46:06.765291,-1
15:46:06.765291,-19
15:46:06.765291,-5633
15:46:06.765291,-1
15:46:06.765291,-23
15:46:06.765291,-6913
15:46:06.765291,-1
15:46:06.765291,-28
15:46:06.765291,-6913
15:46:06.765291,-1
15:46:06.765291,-26
15:46:06.765291,-5633
15:46:06.765291,-1
15:46:06.765291,-26
15:46:06.765291,-8193
15:46:06.765291,-1
15:46:06.765291,-33
15:46:06.765291,-6913
15:46:06.765291,-1
15:46:06.765291,-26
15:46:06.765291,-7681
15:46:06.765291,-1
15:46:06.765291,-31
15:46:06.765291,-6913
15:46:06.765291,-1
15:46:06.765291,-28
15:46:06.765291,-8193
15:46:06.765291,-1
15:46:06.765291,-35
15:46:06.765291,-8705
15:46:06.765291,-1
15:46:06.765291,-35
15:46:06.765291,-8193
15:46:06.765291,-1
15:46:06.765291,-33
15:46:06.765291,-8193
15:46:06.765291,-1
15:46:06.765291,-35
15:46:06.765291,-9473
15:46:06.765291,-1
15:46:06.765291,-38
15:46:06.765291,-8705
15:46:06.765291,-1
15:46:06.765291,-35
15:46:06.765291,-9473
15:46:06.765291,-1
15:46:06.765291,-38
15:46:06.765291,-9473
15:46:06.765291,-1
15:46:06.765291,-38
15:46:06.765291,-9985
15:46:06.765291,-1
15:46:06.765291,-40
15:46:06.765291,-9985
15:46:06.765291,-1
15:46:06.765291,-43
15:46:06.765291,-9985
15:46:06.765291,-1
15:46:06.765291,-38
15:46:06.765291,-10753
15:46:06.765291,-1
15:46:06.765291,-45
15:46:06.765291,-10753
15:46:06.765291,-1
15:46:06.765291,-40
15:46:06.765291,-8705
15:46:06.765291,-1
15:46:06.765291,-26
15:46:06.765291,-3841
15:46:06.765291,-1
15:46:06.765291,-21
15:46:06.765291,-10753
15:46:06.765291,-1
15:46:06.765291,-55
15:46:06.765291,-15617
15:46:06.765291,-1
15:46:06.765291,-62
15:46:06.765291,-11777
15:46:06.765291,-1
15:46:06.765291,-35
15:46:07.308208,-43
15:46:07.308208,-12545
15:46:07.308208,-1
15:46:07.308208,-50
15:46:07.308208,-11265
15:46:07.308208,-1
15:46:07.308208,-47
15:46:07.308208,-13825
15:46:07.308208,-1
15:46:07.308208,-55
15:46:07.308208,-8193
15:46:07.308208,-1
15:46:07.308208,62
15:46:07.308208,-23296
15:46:07.308208,0
15:46:07.308208,-160
15:46:07.308208,-19713
15:46:07.308208,-5
15:46:07.308208,-1751
15:46:07.308208,-769
15:46:07.308208,-6
15:46:07.308208,-445
15:46:07.308208,-29185
15:46:07.308208,-1
15:46:07.308208,-16
15:46:07.308208,-32257
15:46:07.308208,0
15:46:07.308208,165
15:46:07.308208,-29952
15:46:07.308208,0
15:46:07.308208,155
15:46:07.308208,-24064
15:46:07.308208,0
15:46:07.308208,141
15:46:07.308208,-31232
15:46:07.308208,0
15:46:07.308208,136
15:46:07.308208,32512
15:46:07.308208,0
15:46:07.308208,119
15:46:07.308208,29952
15:46:07.308208,0
15:46:07.308208,115
15:46:07.308208,27392
15:46:07.308208,0
15:46:07.308208,103
15:46:07.308208,25088
15:46:07.308208,0
15:46:07.308208,93
15:46:07.308208,23296
15:46:07.308208,0
15:46:07.308208,83
15:46:07.308208,20224
15:46:07.308208,0
15:46:07.308208,71
15:46:07.308208,15872
15:46:07.308208,0
15:46:07.308208,52
15:46:07.308208,9728
15:46:07.308208,0
15:46:07.308208,16
15:46:07.308208,-2304
15:46:07.308208,-1
15:46:07.308208,-33
15:46:07.308208,-14337
15:46:07.308208,-1
15:46:07.308208,-81
15:46:07.308208,-24833
15:46:07.308208,-1
15:46:07.308208,-98
15:46:07.308208,-20481
15:46:07.308208,-1
15:46:07.308208,-57
15:46:07.308208,-8193
15:46:07.308208,-1
15:46:07.308208,-16
15:46:07.308208,-1537
15:46:07.308208,-1
15:46:07.308208,-4
15:46:07.308208,-769
15:46:07.308208,-1
15:46:07.308208,-7
15:46:07.308208,-2049
15:46:07.308208,-1
15:46:07.308208,-9
15:46:07.308208,-2561
15:46:07.308208,-1
15:46:07.308208,-16
15:46:07.308208,-3841
15:46:07.308208,-1
15:46:07.308208,-14
15:46:07.308208,-3329
15:46:07.308208,-1
15:46:07.308208,-11
15:46:07.308208,-2049
15:46:07.308208,-1
15:46:07.308208,-9
15:46:07.308208,-2049
15:46:07.308208,-1
15:46:07.308208,-9
15:46:07.308208,-2049
15:46:07.308208,-1
15:46:07.308208,-11
15:46:07.308208,-2561
15:46:07.308208,-1
15:46:07.308208,-11
15:46:07.308208,-3841
15:46:07.308208,-1
15:46:07.308208,-19
15:46:07.893187,-23
15:46:07.893187,-6913
15:46:07.893187,-1
15:46:07.893187,-33
15:46:07.893187,-8705
15:46:07.893187,-1
15:46:07.893187,-35
15:46:07.893187,-8705
15:46:07.893187,-1
15:46:07.893187,-35
15:46:07.893187,-6913
15:46:07.893187,-1
15:46:07.893187,-26
15:46:07.893187,-6913
15:46:07.893187,-1
15:46:07.893187,-33
15:46:07.893187,-8193
15:46:07.893187,-1
15:46:07.893187,-28
15:46:07.893187,-7681
15:46:07.893187,-1
15:46:07.893187,-33
15:46:07.893187,-8193
15:46:07.893187,-1
15:46:07.893187,-31
15:46:07.893187,-8705
15:46:07.893187,-1
15:46:07.893187,-43
15:46:07.893187,-9985
15:46:07.893187,-1
15:46:07.893187,-35
15:46:07.893187,-8705
15:46:07.893187,-1
15:46:07.893187,-40
15:46:07.893187,-9985
15:46:07.893187,-1
15:46:07.893187,-38
15:46:07.893187,-9985
15:46:07.893187,-1
15:46:07.893187,-43
15:46:07.893187,-10753
15:46:07.893187,-1
15:46:07.893187,-45
15:46:07.893187,-11777
15:46:07.893187,-1
15:46:07.893187,-47
15:46:07.893187,-11265
15:46:07.893187,-1
15:46:07.893187,-40
15:46:07.893187,-9985
15:46:07.893187,-1
15:46:07.893187,-45
15:46:07.893187,-11265
15:46:07.893187,-1
15:46:07.893187,-45
15:46:07.893187,-12545
15:46:07.893187,-1
15:46:07.893187,-50
15:46:07.893187,-9985
15:46:07.893187,-1
15:46:07.893187,-35
15:46:07.893187,-8193
15:46:07.893187,-1
15:46:07.893187,-26
15:46:07.893187,-6913
15:46:07.893187,-1
15:46:07.893187,-50
15:46:07.893187,-16897
15:46:07.893187,-1
15:46:07.893187,-71
15:46:07.893187,-16897
15:46:07.893187,-1
15:46:07.893187,-52
15:46:07.893187,-11777
15:46:07.893187,-1
15:46:07.893187,-57
15:46:07.893187,-14337
15:46:07.893187,-1
15:46:07.893187,-52
15:46:07.893187,-13825
15:46:07.893187,-1
15:46:07.893187,-57
15:46:07.893187,-14849
15:46:07.893187,-1
15:46:07.893187,-57
15:46:07.893187,-9473
15:46:07.893187,-1
15:46:07.893187,47
15:46:07.893187,-27648
15:46:07.893187,0
15:46:07.893187,-115
15:46:07.893187,9727
15:46:07.893187,-4
15:46:07.893187,-1692
15:46:07.893187,-12545
15:46:07.893187,-6
15:46:07.893187,-510
15:46:07.893187,26111
15:46:07.893187,-1
15:46:07.893187,-47
15:46:07.893187,27135
15:46:07.893187,0
15:46:07.893187,143
15:46:07.893187,27392
15:46:07.893187,0
15:46:07.893187,124
15:46:07.893187,-29952
15:46:07.893187,0
15:46:07.893187,119
15:46:08.432531,115
15:46:08.432531,28672
15:46:08.432531,0
15:46:08.432531,100
15:46:08.432531,24320
15:46:08.432531,0
15:46:08.432531,100
15:46:08.432531,24320
15:46:08.432531,0
15:46:08.432531,86
15:46:08.432531,21248
15:46:08.432531,0
15:46:08.432531,79
15:46:08.432531,20224
15:46:08.432531,0
15:46:08.432531,83
15:46:08.432531,20224
15:46:08.432531,0
15:46:08.432531,67
15:46:08.432531,15872
15:46:08.432531,0
15:46:08.432531,50
15:46:08.432531,7168
15:46:08.432531,0
15:46:08.432531,9
15:46:08.432531,-1024
15:46:08.432531,-1
15:46:08.432531,-28
15:46:08.432531,-13825
15:46:08.432531,-1
15:46:08.432531,-79
15:46:08.432531,-23041
15:46:08.432531,-1
15:46:08.432531,-100
15:46:08.432531,-24065
15:46:08.432531,-1
15:46:08.432531,-76
15:46:08.432531,-13057
15:46:08.432531,-1
15:46:08.432531,-23
15:46:08.432531,-2049
15:46:08.432531,-1
15:46:08.432531,0
15:46:08.432531,1024
15:46:08.432531,0
15:46:08.432531,4
15:46:08.432531,512
15:46:08.432531,0
15:46:08.432531,-2
15:46:08.432531,-257
15:46:08.432531,-1
15:46:08.432531,0
15:46:08.432531,-512
15:46:08.432531,-1
15:46:08.432531,-9
15:46:08.432531,-2049
15:46:08.432531,-1
15:46:08.432531,-2
15:46:08.432531,2047
15:46:08.432531,0
15:46:08.432531,2
15:46:08.432531,-1024
15:46:08.432531,-1
15:46:08.432531,-4
15:46:08.432531,-1537
15:46:08.432531,-1
15:46:08.432531,-11
15:46:08.432531,-3329
15:46:08.432531,-1
15:46:08.432531,-16
15:46:08.432531,-5633
15:46:08.432531,-1
15:46:08.432531,-28
15:46:08.432531,-8193
15:46:08.432531,-1
15:46:08.432531,-33
15:46:08.432531,-8193
15:46:08.432531,-1
15:46:08.432531,-35
15:46:08.432531,-10753
15:46:08.432531,-1
15:46:08.432531,-45
15:46:08.432531,-10753
15:46:08.432531,-1
15:46:08.432531,-40
15:46:08.432531,-10753
15:46:08.432531,-1
15:46:08.432531,-45
15:46:08.432531,-10753
15:46:08.432531,-1
15:46:08.432531,-45
15:46:08.432531,-11777
15:46:08.432531,-1
15:46:08.432531,-47
15:46:08.432531,-11265
15:46:08.432531,-1
15:46:08.432531,-43
15:46:08.432531,-11777
15:46:08.432531,-1
15:46:08.432531,-50
15:46:08.432531,-13057
15:46:08.432531,-1
15:46:08.432531,-52
15:46:08.432531,-13057
15:46:08.432531,-1
15:46:08.432531,-47
15:46:08.432531,-9985
15:46:08.432531,-1
15:46:08.432531,-43
15:46:09.018767,-50
15:46:09.018767,-12545
15:46:09.018767,-1
15:46:09.018767,-45
15:46:09.018767,-11777
15:46:09.018767,-1
15:46:09.018767,-52
15:46:09.018767,-13825
15:46:09.018767,-1
15:46:09.018767,-45
15:46:09.018767,-7681
15:46:09.018767,-1
15:46:09.018767,-26
15:46:09.018767,-4609
15:46:09.018767,-1
15:46:09.018767,-14
15:46:09.018767,-6401
15:46:09.018767,-1
15:46:09.018767,-47
15:46:09.018767,-14849
15:46:09.018767,-1
15:46:09.018767,-62
15:46:09.018767,-14337
15:46:09.018767,-1
15:46:09.018767,-43
15:46:09.018767,-9985
15:46:09.018767,-1
15:46:09.018767,-47
15:46:09.018767,-13057
15:46:09.018767,-1
15:46:09.018767,-52
15:46:09.018767,-13057
15:46:09.018767,-1
15:46:09.018767,-55
15:46:09.018767,-13825
15:46:09.018767,-1
15:46:09.018767,-52
15:46:09.018767,-4609
15:46:09.018767,-1
15:46:09.018767,103
15:46:09.018767,-27136
15:46:09.018767,0
15:46:09.018767,-323
15:46:09.018767,4607
15:46:09.018767,-5
15:46:09.018767,-1617
15:46:09.018767,14079
15:46:09.018767,-4
15:46:09.018767,-313
15:46:09.018767,30207
15:46:09.018767,-1
15:46:09.018767,-7
15:46:09.018767,32767
15:46:09.018767,0
15:46:09.018767,115
15:46:09.018767,26368
15:46:09.018767,0
15:46:09.018767,129
15:46:09.018767,31232
15:46:09.018767,0
15:46:09.018767,105
15:46:09.018767,26880
15:46:09.018767,0
15:46:09.018767,100
15:46:09.018767,24320
15:46:09.018767,0
15:46:09.018767,95
15:46:09.018767,22528
15:46:09.018767,0
15:46:09.018767,79
15:46:09.018767,20224
15:46:09.018767,0
15:46:09.018767,79
15:46:09.018767,18944
15:46:09.018767,0
15:46:09.018767,67
15:46:09.018767,16384
15:46:09.018767,0
15:46:09.018767,57
15:46:09.018767,11520
15:46:09.018767,0
15:46:09.018767,38
15:46:09.018767,7936
15:46:09.018767,0
15:46:09.018767,14
15:46:09.018767,-2816
15:46:09.018767,-1
15:46:09.018767,-31
15:46:09.018767,-12545
15:46:09.018767,-1
15:46:09.018767,-76
15:46:09.018767,-25345
15:46:09.018767,-1
15:46:09.018767,-115
15:46:09.018767,-27905
15:46:09.018767,-1
15:46:09.018767,-93
15:46:09.018767,-17409
15:46:09.018767,-1
15:46:09.018767,-43
15:46:09.018767,-4609
15:46:09.018767,-1
15:46:09.018767,-7
15:46:09.018767,-257
15:46:09.018767,-1
15:46:09.018767,2
15:46:09.018767,1024
15:46:09.018767,0
15:46:09.018767,2
15:46:09.558107,-2
15:46:09.558107,-769
15:46:09.558107,-1
15:46:09.558107,-2
15:46:09.558107,767
15:46:09.558107,0
15:46:09.558107,2
15:46:09.558107,512
15:46:09.558107,0
15:46:09.558107,-2
15:46:09.558107,-257
15:46:09.558107,-1
15:46:09.558107,-2
15:46:09.558107,-1537
15:46:09.558107,-1
15:46:09.558107,-2
15:46:09.558107,255
15:46:09.558107,0
15:46:09.558107,-11
15:46:09.558107,-4609
15:46:09.558107,-1
15:46:09.558107,-16
15:46:09.558107,-5121
15:46:09.558107,-1
15:46:09.558107,-26
15:46:09.558107,-6913
15:46:09.558107,-1
15:46:09.558107,-31
15:46:09.558107,-8193
15:46:09.558107,-1
15:46:09.558107,-33
15:46:09.558107,-8193
15:46:09.558107,-1
15:46:09.558107,-33
15:46:09.558107,-8705
15:46:09.558107,-1
15:46:09.558107,-35
15:46:09.558107,-8705
15:46:09.558107,-1
15:46:09.558107,-38
15:46:09.558107,-9985
15:46:09.558107,-1
15:46:09.558107,-38
15:46:09.558107,-8193
15:46:09.558107,-1
15:46:09.558107,-38
15:46:09.558107,-9985
15:46:09.558107,-1
15:46:09.558107,-40
15:46:09.558107,-9985
15:46:09.558107,-1
15:46:09.558107,-43
15:46:09.558107,-10753
15:46:09.558107,-1
15:46:09.558107,-45
15:46:09.558107,-11265
15:46:09.558107,-1
15:46:09.558107,-43
15:46:09.558107,-10753
15:46:09.558107,-1
15:46:09.558107,-45
15:46:09.558107,-11777
15:46:09.558107,-1
15:46:09.558107,-50
15:46:09.558107,-13057
15:46:09.558107,-1
15:46:09.558107,-45
15:46:09.558107,-10753
15:46:09.558107,-1
15:46:09.558107,-47
15:46:09.558107,-11265
15:46:09.558107,-1
15:46:09.558107,-45
15:46:09.558107,-11777
15:46:09.558107,-1
15:46:09.558107,-50
15:46:09.558107,-11265
15:46:09.558107,-1
15:46:09.558107,-43
15:46:09.558107,-8193
15:46:09.558107,-1
15:46:09.558107,-21
15:46:09.558107,-5633
15:46:09.558107,-1
15:46:09.558107,-43
15:46:09.558107,-13825
15:46:09.558107,-1
15:46:09.558107,-64
15:46:09.558107,-16897
15:46:09.558107,-1
15:46:09.558107,-55
15:46:09.558107,-10753
15:46:09.558107,-1
15:46:09.558107,-43
15:46:09.558107,-12545
15:46:09.558107,-1
15:46:09.558107,-50
15:46:09.558107,-13057
15:46:09.558107,-1
15:46:09.558107,-57
15:46:09.558107,-14849
15:46:09.558107,-1
15:46:09.558107,-57
15:46:09.558107,-8705
15:46:09.558107,-1
15:46:09.558107,62
15:46:09.558107,-25088
15:46:09.558107,0
15:46:09.558107,-186
15:46:10.144049,-1124
15:46:10.144049,14335
15:46:10.144049,-7
15:46:10.144049,-1243
15:46:10.144049,22271
15:46:10.144049,-2
15:46:10.144049,-127
15:46:10.144049,-6401
15:46:10.144049,-1
15:46:10.144049,119
15:46:10.144049,-26368
15:46:10.144049,0
15:46:10.144049,131
15:46:10.144049,-27648
15:46:10.144049,0
15:46:10.144049,146
15:46:10.144049,-32512
15:46:10.144049,0
15:46:10.144049,129
15:46:10.144049,-32512
15:46:10.144049,0
15:46:10.144049,117
15:46:10.144049,27392
15:46:10.144049,0
15:46:10.144049,105
15:46:10.144049,25600
15:46:10.144049,0
15:46:10.144049,95
15:46:10.144049,23296
15:46:10.144049,0
15:46:10.144049,88
15:46:10.144049,21248
15:46:10.144049,0
15:46:10.144049,76
15:46:10.144049,18176
15:46:10.144049,0
15:46:10.144049,67
15:46:10.144049,15872
15:46:10.144049,0
15:46:10.144049,52
15:46:10.144049,8960
15:46:10.144049,0
15:46:10.144049,16
15:46:10.144049,-1024
15:46:10.144049,-1
15:46:10.144049,-23
15:46:10.144049,-11265
15:46:10.144049,-1
15:46:10.144049,-74
15:46:10.144049,-24833
15:46:10.144049,-1
15:46:10.144049,-107
15:46:10.144049,-26625
15:46:10.144049,-1
15:46:10.144049,-88
15:46:10.144049,-15617
15:46:10.144049,-1
15:46:10.144049,-40
15:46:10.144049,-6913
15:46:10.144049,-1
15:46:10.144049,-19
15:46:10.144049,-3329
15:46:10.144049,-1
15:46:10.144049,-9
15:46:10.144049,-2049
15:46:10.144049,-1
15:46:10.144049,-14
15:46:10.144049,-3841
15:46:10.144049,-1
15:46:10.144049,-19
15:46:10.144049,-4609
15:46:10.144049,-1
15:46:10.144049,-16
15:46:10.144049,-2561
15:46:10.144049,-1
15:46:10.144049,-14
15:46:10.144049,-3841
15:46:10.144049,-1
15:46:10.144049,-16
15:46:10.144049,-3329
15:46:10.144049,-1
15:46:10.144049,-11
15:46:10.144049,-3841
15:46:10.144049,-1
15:46:10.144049,-19
15:46:10.144049,-4609
15:46:10.144049,-1
15:46:10.144049,-21
15:46:10.144049,-6401
15:46:10.144049,-1
15:46:10.144049,-28
15:46:10.144049,-8193
15:46:10.144049,-1
15:46:10.144049,-33
15:46:10.144049,-9473
15:46:10.144049,-1
15:46:10.144049,-40
15:46:10.144049,-9985
15:46:10.144049,-1
15:46:10.144049,-43
15:46:10.144049,-11265
15:46:10.144049,-1
15:46:10.144049,-43
15:46:10.144049,-11265
15:46:10.144049,-1
15:46:10.144049,-50
15:46:10.144049,-12545
15:46:10.144049,-1
15:46:10.144049,-47
15:46:10.683058,-47
15:46:10.683058,-12545
15:46:10.683058,-1
15:46:10.683058,-50
15:46:10.683058,-12545
15:46:10.683058,-1
15:46:10.683058,-50
15:46:10.683058,-11777
15:46:10.683058,-1
15:46:10.683058,-47
15:46:10.683058,-11777
15:46:10.683058,-1
15:46:10.683058,-50
15:46:10.683058,-13825
15:46:10.683058,-1
15:46:10.683058,-47
15:46:10.683058,-8705
15:46:10.683058,-1
15:46:10.683058,-35
15:46:10.683058,-9985
15:46:10.683058,-1
15:46:10.683058,-40
15:46:10.683058,-9473
15:46:10.683058,-1
15:46:10.683058,-40
15:46:10.683058,-10753
15:46:10.683058,-1
15:46:10.683058,-43
15:46:10.683058,-9985
15:46:10.683058,-1
15:46:10.683058,-40
15:46:10.683058,-10753
15:46:10.683058,-1
15:46:10.683058,-45
15:46:10.683058,-11777
15:46:10.683058,-1
15:46:10.683058,-50
15:46:10.683058,-11265
15:46:10.683058,-1
15:46:10.683058,-40
15:46:10.683058,-8193
15:46:10.683058,-1
15:46:10.683058,-28
15:46:10.683058,-5633
15:46:10.683058,-1
15:46:10.683058,-33
15:46:10.683058,-13825
15:46:10.683058,-1
15:46:10.683058,-67
15:46:10.683058,-17921
15:46:10.683058,-1
15:46:10.683058,-67
15:46:10.683058,-12545
15:46:10.683058,-1
15:46:10.683058,-40
15:46:10.683058,-11777
15:46:10.683058,-1
15:46:10.683058,-52
15:46:10.683058,-12545
15:46:10.683058,-1
15:46:10.683058,-52
15:46:10.683058,-13057
15:46:10.683058,-1
15:46:10.683058,-50
15:46:10.683058,-12545
15:46:10.683058,-1
15:46:10.683058,-14
15:46:10.683058,27135
15:46:10.683058,0
15:46:10.683058,117
15:46:10.683058,21504
15:46:10.683058,-2
15:46:10.683058,-1402
15:46:10.683058,24063
15:46:10.683058,-7
15:46:10.683058,-970
15:46:10.683058,-5377
15:46:10.683058,-2
15:46:10.683058,-98
15:46:10.683058,5119
15:46:10.683058,0
15:46:10.683058,146
15:46:10.683058,-30720
15:46:10.683058,0
15:46:10.683058,117
15:46:10.683058,-29440
15:46:10.683058,0
15:46:10.683058,136
15:46:10.683058,30464
15:46:10.683058,0
15:46:10.683058,119
15:46:10.683058,28672
15:46:10.683058,0
15:46:10.683058,100
15:46:10.683058,25600
15:46:10.683058,0
15:46:10.683058,100
15:46:10.683058,23808
15:46:10.683058,0
15:46:10.683058,88
15:46:10.683058,22016
15:46:10.683058,0
15:46:10.683058,83
15:46:10.683058,20224
15:46:10.683058,0
15:46:10.683058,74
15:46:10.683058,18176
15:46:10.683058,0
15:46:10.683058,64
15:46:11.220283,55
15:46:11.220283,11008
15:46:11.220283,0
15:46:11.220283,28
15:46:11.220283,2816
15:46:11.220283,0
15:46:11.220283,-9
15:46:11.220283,-7681
15:46:11.220283,-1
15:46:11.220283,-55
15:46:11.220283,-19201
15:46:11.220283,-1
15:46:11.220283,-86
15:46:11.220283,-23041
15:46:11.220283,-1
15:46:11.220283,-86
15:46:11.220283,-17409
15:46:11.220283,-1
15:46:11.220283,-43
15:46:11.220283,-5121
15:46:11.220283,-1
15:46:11.220283,-7
15:46:11.220283,255
15:46:11.220283,0
15:46:11.220283,4
15:46:11.220283,1024
15:46:11.220283,0
15:46:11.220283,2
15:46:11.220283,-1024
15:46:11.220283,-1
15:46:11.220283,-9
15:46:11.220283,-2049
15:46:11.220283,-1
15:46:11.220283,-7
15:46:11.220283,-2049
15:46:11.220283,-1
15:46:11.220283,-14
15:46:11.220283,-2561
15:46:11.220283,-1
15:46:11.220283,-7
15:46:11.220283,-769
15:46:11.220283,-1
15:46:11.220283,-7
15:46:11.220283,-2049
15:46:11.220283,-1
15:46:11.220283,-7
15:46:11.220283,-1537
15:46:11.220283,-1
15:46:11.220283,-7
15:46:11.220283,-2049
15:46:11.220283,-1
15:46:11.220283,-11
15:46:11.220283,-4609
15:46:11.220283,-1
15:46:11.220283,-23
15:46:11.220283,-6913
15:46:11.220283,-1
15:46:11.220283,-26
15:46:11.220283,-6913
15:46:11.220283,-1
15:46:11.220283,-31
15:46:11.220283,-8705
15:46:11.220283,-1
15:46:11.220283,-35
15:46:11.220283,-8705
15:46:11.220283,-1
15:46:11.220283,-35
15:46:11.220283,-9473
15:46:11.220283,-1
15:46:11.220283,-43
15:46:11.220283,-10753
15:46:11.220283,-1
15:46:11.220283,-40
15:46:11.220283,-10753
15:46:11.220283,-1
15:46:11.220283,-45
15:46:11.220283,-10753
15:46:11.220283,-1
15:46:11.220283,-43
15:46:11.220283,-11265
15:46:11.220283,-1
15:46:11.220283,-43
15:46:11.220283,-10753
15:46:11.220283,-1
15:46:11.220283,-47
15:46:11.220283,-11777
15:46:11.220283,-1
15:46:11.220283,-43
15:46:11.220283,-11265
15:46:11.220283,-1
15:46:11.220283,-45
15:46:11.220283,-10753
15:46:11.220283,-1
15:46:11.220283,-45
15:46:11.220283,-11265
15:46:11.220283,-1
15:46:11.220283,-43
15:46:11.220283,-9985
15:46:11.220283,-1
15:46:11.220283,-45
15:46:11.220283,-12545
15:46:11.220283,-1
15:46:11.220283,-50
15:46:11.220283,-11777
15:46:11.220283,-1
15:46:11.220283,-47
15:46:11.220283,-11265
15:46:11.220283,-1
15:46:11.220283,-45
15:46:11.852264,-45
15:46:11.852264,-10753
15:46:11.852264,-1
15:46:11.852264,-35
15:46:11.852264,-6401
15:46:11.852264,-1
15:46:11.852264,-19
15:46:11.852264,-6913
15:46:11.852264,-1
15:46:11.852264,-38
15:46:11.852264,-11265
15:46:11.852264,-1
15:46:11.852264,-59
15:46:11.852264,-14337
15:46:11.852264,-1
15:46:11.852264,-40
15:46:11.852264,-8193
15:46:11.852264,-1
15:46:11.852264,-43
15:46:11.852264,-11265
15:46:11.852264,-1
15:46:11.852264,-43
15:46:11.852264,-11265
15:46:11.852264,-1
15:46:11.852264,-52
15:46:11.852264,-13057
15:46:11.852264,-1
15:46:11.852264,-43
15:46:11.852264,-257
15:46:11.852264,-1
15:46:11.852264,117
15:46:11.852264,29440
15:46:11.852264,0
15:46:11.852264,-467
15:46:11.852264,32767
15:46:11.852264,-6
15:46:11.852264,-1603
15:46:11.852264,-22017
15:46:11.852264,-4
15:46:11.852264,-249
15:46:11.852264,-27905
15:46:11.852264,-1
15:46:11.852264,28
15:46:11.852264,-28160
15:46:11.852264,0
15:46:11.852264,124
15:46:11.852264,29952
15:46:11.852264,0
15:46:11.852264,141
15:46:11.852264,31744
15:46:11.852264,0
15:46:11.852264,110
15:46:11.852264,30464
15:46:11.852264,0
15:46:11.852264,112
15:46:11.852264,25600
15:46:11.852264,0
15:46:11.852264,98
15:46:11.852264,23296
15:46:11.852264,0
15:46:11.852264,86
15:46:11.852264,22528
15:46:11.852264,0
15:46:11.852264,81
15:46:11.852264,18176
15:46:11.852264,0
15:46:11.852264,69
15:46:11.852264,17152
15:46:11.852264,0
15:46:11.852264,57
15:46:11.852264,12032
15:46:11.852264,0
15:46:11.852264,40
15:46:11.852264,7936
15:46:11.852264,0
15:46:11.852264,14
15:46:11.852264,-1024
15:46:11.852264,-1
15:46:11.852264,-21
15:46:11.852264,-10753
15:46:11.852264,-1
15:46:11.852264,-67
15:46:11.852264,-22273
15:46:11.852264,-1
15:46:11.852264,-103
15:46:11.852264,-26625
15:46:11.852264,-1
15:46:11.852264,-93
15:46:11.852264,-16897
15:46:11.852264,-1
15:46:11.852264,-40
15:46:11.852264,-5633
15:46:11.852264,-1
15:46:11.852264,-9
15:46:11.852264,255
15:46:11.852264,0
15:46:11.852264,7
15:46:11.852264,2304
15:46:11.852264,0
15:46:11.852264,4
15:46:11.852264,512
15:46:11.852264,0
15:46:11.852264,0
15:46:11.852264,0
15:46:11.852264,0
15:46:11.852264,2
15:46:11.852264,512
15:46:11.852264,0
15:46:11.852264,-2
15:46:12.438236,-2
15:46:12.438236,255
15:46:12.438236,0
15:46:12.438236,-2
15:46:12.438236,-1537
15:46:12.438236,-1
15:46:12.438236,-7
15:46:12.438236,-2049
15:46:12.438236,-1
15:46:12.438236,-16
15:46:12.438236,-5633
15:46:12.438236,-1
15:46:12.438236,-28
15:46:12.438236,-6913
15:46:12.438236,-1
15:46:12.438236,-28
15:46:12.438236,-8193
15:46:12.438236,-1
15:46:12.438236,-35
15:46:12.438236,-8193
15:46:12.438236,-1
15:46:12.438236,-28
15:46:12.438236,-5121
15:46:12.438236,-1
15:46:12.438236,-23
15:46:12.438236,-7681
15:46:12.438236,-1
15:46:12.438236,-31
15:46:12.438236,-6913
15:46:12.438236,-1
15:46:12.438236,-23
15:46:12.438236,-5121
15:46:12.438236,-1
15:46:12.438236,-26
15:46:12.438236,-8193
15:46:12.438236,-1
15:46:12.438236,-33
15:46:12.438236,-6913
15:46:12.438236,-1
15:46:12.438236,-31
15:46:12.438236,-8705
15:46:12.438236,-1
15:46:12.438236,-35
15:46:12.438236,-9473
15:46:12.438236,-1
15:46:12.438236,-38
15:46:12.438236,-8705
15:46:12.438236,-1
15:46:12.438236,-40
15:46:12.438236,-9985
15:46:12.438236,-1
15:46:12.438236,-35
15:46:12.438236,-9473
15:46:12.438236,-1
15:46:12.438236,-45
15:46:12.438236,-9985
15:46:12.438236,-1
15:46:12.438236,-35
15:46:12.438236,-8193
15:46:12.438236,-1
15:46:12.438236,-23
15:46:12.438236,-2561
15:46:12.438236,-1
15:46:12.438236,-21
15:46:12.438236,-11265
15:46:12.438236,-1
15:46:12.438236,-55
15:46:12.438236,-14849
15:46:12.438236,-1
15:46:12.438236,-59
15:46:12.438236,-11265
15:46:12.438236,-1
15:46:12.438236,-38
15:46:12.438236,-11265
15:46:12.438236,-1
15:46:12.438236,-45
15:46:12.438236,-10753
15:46:12.438236,-1
15:46:12.438236,-47
15:46:12.438236,-13057
15:46:12.438236,-1
15:46:12.438236,-50
15:46:12.438236,-12545
15:46:12.438236,-1
15:46:12.438236,-19
15:46:12.438236,23551
15:46:12.438236,0
15:46:12.438236,153
15:46:12.438236,1280
15:46:12.438236,-1
15:46:12.438236,-1167
15:46:12.438236,-19969
15:46:12.438236,-7
15:46:12.438236,-1035
15:46:12.438236,-23041
15:46:12.438236,-2
15:46:12.438236,-148
15:46:12.438236,-5121
15:46:12.438236,-1
15:46:12.438236,122
15:46:12.438236,29440
15:46:12.438236,0
15:46:12.438236,95
15:46:12.438236,31744
15:46:12.438236,0
15:46:12.438236,122
15:46:12.438236,26880
15:46:12.438236,0
15:46:12.438236,107
15:46:12.933392,105
15:46:12.933392,24320
15:46:12.933392,0
15:46:12.933392,93
15:46:12.933392,23808
15:46:12.933392,0
15:46:12.933392,86
15:46:12.933392,21248
15:46:12.933392,0
15:46:12.933392,81
15:46:12.933392,18944
15:46:12.933392,0
15:46:12.933392,69
15:46:12.933392,17152
15:46:12.933392,0
15:46:12.933392,62
15:46:12.933392,15104
15:46:12.933392,0
15:46:12.933392,50
15:46:12.933392,8960
15:46:12.933392,0
15:46:12.933392,21
15:46:12.933392,512
15:46:12.933392,0
15:46:12.933392,-19
15:46:12.933392,-9473
15:46:12.933392,-1
15:46:12.933392,-52
15:46:12.933392,-18689
15:46:12.933392,-1
15:46:12.933392,-95
15:46:12.933392,-26113
15:46:12.933392,-1
15:46:12.933392,-88
15:46:12.933392,-14849
15:46:12.933392,-1
15:46:12.933392,-33
15:46:12.933392,-3329
15:46:12.933392,-1
15:46:12.933392,0
15:46:12.933392,2304
15:46:12.933392,0
15:46:12.933392,14
15:46:12.933392,4096
15:46:12.933392,0
15:46:12.933392,11
15:46:12.933392,1792
15:46:12.933392,0
15:46:12.933392,7
15:46:12.933392,2304
15:46:12.933392,0
15:46:12.933392,14
15:46:12.933392,3584
15:46:12.933392,0
15:46:12.933392,11
15:46:12.933392,2304
15:46:12.933392,0
15:46:12.933392,7
15:46:12.933392,1024
15:46:12.933392,0
15:46:12.933392,4
15:46:12.933392,0
15:46:12.933392,0
15:46:12.933392,-7
15:46:12.933392,-2561
15:46:12.933392,-1
15:46:12.933392,-14
15:46:12.933392,-5121
15:46:12.933392,-1
15:46:12.933392,-26
15:46:12.933392,-6401
15:46:12.933392,-1
15:46:12.933392,-28
15:46:12.933392,-6913
15:46:12.933392,-1
15:46:12.933392,-31
15:46:12.933392,-8193
15:46:12.933392,-1
15:46:12.933392,-33
15:46:12.933392,-8193
15:46:12.933392,-1
15:46:12.933392,-33
15:46:12.933392,-8705
15:46:12.933392,-1
15:46:12.933392,-35
15:46:12.933392,-8705
15:46:12.933392,-1
15:46:12.933392,-35
15:46:12.933392,-8705
15:46:12.933392,-1
15:46:12.933392,-38
15:46:12.933392,-8705
15:46:12.933392,-1
15:46:12.933392,-35
15:46:12.933392,-8705
15:46:12.933392,-1
15:46:12.933392,-35
15:46:12.933392,-9473
15:46:12.933392,-1
15:46:12.933392,-40
15:46:12.933392,-9985
15:46:12.933392,-1
15:46:12.933392,-38
15:46:12.933392,-8705
15:46:12.933392,-1
15:46:12.933392,-38
15:46:12.933392,-9985
15:46:12.933392,-1
15:46:12.933392,-40
15:46:13.472797,-40
15:46:13.472797,-9985
15:46:13.472797,-1
15:46:13.472797,-40
15:46:13.472797,-10753
15:46:13.472797,-1
15:46:13.472797,-43
15:46:13.472797,-9473
15:46:13.472797,-1
15:46:13.472797,-35
15:46:13.472797,-6913
15:46:13.472797,-1
15:46:13.472797,-16
15:46:13.472797,-257
15:46:13.472797,-1
15:46:13.472797,-7
15:46:13.472797,-7681
15:46:13.472797,-1
15:46:13.472797,-45
15:46:13.472797,-12545
15:46:13.472797,-1
15:46:13.472797,-50
15:46:13.472797,-8193
15:46:13.472797,-1
15:46:13.472797,-26
15:46:13.472797,-9473
15:46:13.472797,-1
15:46:13.472797,-40
15:46:13.472797,-8705
15:46:13.472797,-1
15:46:13.472797,-38
15:46:13.472797,-10753
15:46:13.472797,-1
15:46:13.472797,-43
15:46:13.472797,-9473
15:46:13.472797,-1
15:46:13.472797,0
15:46:13.472797,29952
15:46:13.472797,0
15:46:13.472797,134
15:46:13.472797,26368
15:46:13.472797,-2
15:46:13.472797,-1382
15:46:13.472797,28415
15:46:13.472797,-7
15:46:13.472797,-965
15:46:13.472797,-4097
15:46:13.472797,-2
15:46:13.472797,-88
15:46:13.472797,6911
15:46:13.472797,0
15:46:13.472797,148
15:46:13.472797,-28928
15:46:13.472797,0
15:46:13.472797,127
15:46:13.472797,-28928
15:46:13.472797,0
15:46:13.472797,141
15:46:13.472797,-32512
15:46:13.472797,0
15:46:13.472797,124
15:46:13.472797,30464
15:46:13.472797,0
15:46:13.472797,112
15:46:13.472797,28160
15:46:13.472797,0
15:46:13.472797,105
15:46:13.472797,25600
15:46:13.472797,0
15:46:13.472797,98
15:46:13.472797,24320
15:46:13.472797,0
15:46:13.472797,93
15:46:13.472797,23296
15:46:13.472797,0
15:46:13.472797,86
15:46:13.472797,20736
15:46:13.472797,0
15:46:13.472797,74
15:46:13.472797,16384
15:46:13.472797,0
15:46:13.472797,55
15:46:13.472797,11520
15:46:13.472797,0
15:46:13.472797,28
15:46:13.472797,1792
15:46:13.472797,0
15:46:13.472797,-16
15:46:13.472797,-10753
15:46:13.472797,-1
15:46:13.472797,-67
15:46:13.472797,-20993
15:46:13.472797,-1
15:46:13.472797,-91
15:46:13.472797,-21761
15:46:13.472797,-1
15:46:13.472797,-64
15:46:13.472797,-9985
15:46:13.472797,-1
15:46:13.472797,-21
15:46:13.472797,-2049
15:46:13.472797,-1
15:46:13.472797,-2
15:46:13.472797,767
15:46:13.472797,0
15:46:13.472797,7
15:46:13.472797,1792
15:46:13.472797,0
15:46:13.472797,2
15:46:14.058132,-2
15:46:14.058132,-257
15:46:14.058132,-1
15:46:14.058132,-4
15:46:14.058132,-1537
15:46:14.058132,-1
15:46:14.058132,-4
15:46:14.058132,-257
15:46:14.058132,-1
15:46:14.058132,7
15:46:14.058132,2816
15:46:14.058132,0
15:46:14.058132,9
15:46:14.058132,1792
15:46:14.058132,0
15:46:14.058132,7
15:46:14.058132,512
15:46:14.058132,0
15:46:14.058132,0
15:46:14.058132,-512
15:46:14.058132,-1
15:46:14.058132,-4
15:46:14.058132,-1537
15:46:14.058132,-1
15:46:14.058132,-11
15:46:14.058132,-3841
15:46:14.058132,-1
15:46:14.058132,-16
15:46:14.058132,-4609
15:46:14.058132,-1
15:46:14.058132,-26
15:46:14.058132,-6913
15:46:14.058132,-1
15:46:14.058132,-26
15:46:14.058132,-6401
15:46:14.058132,-1
15:46:14.058132,-31
15:46:14.058132,-8193
15:46:14.058132,-1
15:46:14.058132,-35
15:46:14.058132,-8705
15:46:14.058132,-1
15:46:14.058132,-35
15:46:14.058132,-9473
15:46:14.058132,-1
15:46:14.058132,-35
15:46:14.058132,-9473
15:46:14.058132,-1
15:46:14.058132,-38
15:46:14.058132,-9985
15:46:14.058132,-1
15:46:14.058132,-43
15:46:14.058132,-9985
15:46:14.058132,-1
15:46:14.058132,-38
15:46:14.058132,-10753
15:46:14.058132,-1
15:46:14.058132,-47
15:46:14.058132,-10753
15:46:14.058132,-1
15:46:14.058132,-40
15:46:14.058132,-11265
15:46:14.058132,-1
15:46:14.058132,-43
15:46:14.058132,-10753
15:46:14.058132,-1
15:46:14.058132,-45
15:46:14.058132,-11265
15:46:14.058132,-1
15:46:14.058132,-43
15:46:14.058132,-10753
15:46:14.058132,-1
15:46:14.058132,-45
15:46:14.058132,-11777
15:46:14.058132,-1
15:46:14.058132,-45
15:46:14.058132,-10753
15:46:14.058132,-1
15:46:14.058132,-38
15:46:14.058132,-6913
15:46:14.058132,-1
15:46:14.058132,-16
15:46:14.058132,-5633
15:46:14.058132,-1
15:46:14.058132,-47
15:46:14.058132,-15617
15:46:14.058132,-1
15:46:14.058132,-64
15:46:14.058132,-16129
15:46:14.058132,-1
15:46:14.058132,-52
15:46:14.058132,-9985
15:46:14.058132,-1
15:46:14.058132,-47
15:46:14.058132,-13825
15:46:14.058132,-1
15:46:14.058132,-50
15:46:14.058132,-10753
15:46:14.058132,-1
15:46:14.058132,-50
15:46:14.058132,-13825
15:46:14.058132,-1
15:46:14.058132,-52
15:46:14.058132,-8705
15:46:14.058132,-1
15:46:14.058132,55
15:46:14.058132,-25856
15:46:14.058132,0
15:46:14.058132,-143
15:46:14.599034,-1044
15:46:14.599034,20991
15:46:14.599034,-7
15:46:14.599034,-1291
15:46:14.599034,11775
15:46:14.599034,-2
15:46:14.599034,-131
15:46:14.599034,-8193
15:46:14.599034,-1
15:46:14.599034,110
15:46:14.599034,-28928
15:46:14.599034,0
15:46:14.599034,112
15:46:14.599034,-30720
15:46:14.599034,0
15:46:14.599034,155
15:46:14.599034,-31232
15:46:14.599034,0
15:46:14.599034,119
15:46:14.599034,30464
15:46:14.599034,0
15:46:14.599034,115
15:46:14.599034,28672
15:46:14.599034,0
15:46:14.599034,107
15:46:14.599034,25088
15:46:14.599034,0
15:46:14.599034,91
15:46:14.599034,23296
15:46:14.599034,0
15:46:14.599034,86
15:46:14.599034,20736
15:46:14.599034,0
15:46:14.599034,76
15:46:14.599034,18944
15:46:14.599034,0
15:46:14.599034,69
15:46:14.599034,15872
15:46:14.599034,0
15:46:14.599034,50
15:46:14.599034,8960
15:46:14.599034,0
15:46:14.599034,19
15:46:14.599034,512
15:46:14.599034,0
15:46:14.599034,-19
15:46:14.599034,-11777
15:46:14.599034,-1
15:46:14.599034,-69
15:46:14.599034,-21761
15:46:14.599034,-1
15:46:14.599034,-100
15:46:14.599034,-24065
15:46:14.599034,-1
15:46:14.599034,-74
15:46:14.599034,-12545
15:46:14.599034,-1
15:46:14.599034,-26
15:46:14.599034,-2049
15:46:14.599034,-1
15:46:14.599034,-2
15:46:14.599034,255
15:46:14.599034,0
15:46:14.599034,0
15:46:14.599034,0
15:46:14.599034,0
15:46:14.599034,0
15:46:14.599034,0
15:46:14.599034,0
15:46:14.599034,-2
15:46:14.599034,-1537
15:46:14.599034,-1
15:46:14.599034,-14
15:46:14.599034,-2561
15:46:14.599034,-1
15:46:14.599034,-7
15:46:14.599034,-769
15:46:14.599034,-1
15:46:14.599034,-7
15:46:14.599034,-2049
15:46:14.599034,-1
15:46:14.599034,-9
15:46:14.599034,-2049
15:46:14.599034,-1
15:46:14.599034,-11
15:46:14.599034,-2561
15:46:14.599034,-1
15:46:14.599034,-11
15:46:14.599034,-4609
15:46:14.599034,-1
15:46:14.599034,-23
15:46:14.599034,-5633
15:46:14.599034,-1
15:46:14.599034,-23
15:46:14.599034,-7681
15:46:14.599034,-1
15:46:14.599034,-38
15:46:14.599034,-9473
15:46:14.599034,-1
15:46:14.599034,-38
15:46:14.599034,-9985
15:46:14.599034,-1
15:46:14.599034,-43
15:46:14.599034,-10753
15:46:14.599034,-1
15:46:14.599034,-38
15:46:14.599034,-8705
15:46:14.599034,-1
15:46:14.599034,-43
15:46:15.138323,-45
15:46:15.138323,-10753
15:46:15.138323,-1
15:46:15.138323,-43
15:46:15.138323,-11777
15:46:15.138323,-1
15:46:15.138323,-45
15:46:15.138323,-11265
15:46:15.138323,-1
15:46:15.138323,-43
15:46:15.138323,-7681
15:46:15.138323,-1
15:46:15.138323,-31
15:46:15.138323,-9985
15:46:15.138323,-1
15:46:15.138323,-40
15:46:15.138323,-8705
15:46:15.138323,-1
15:46:15.138323,-35
15:46:15.138323,-8705
15:46:15.138323,-1
15:46:15.138323,-35
15:46:15.138323,-10753
15:46:15.138323,-1
15:46:15.138323,-45
15:46:15.138323,-9985
15:46:15.138323,-1
15:46:15.138323,-43
15:46:15.138323,-11265
15:46:15.138323,-1
15:46:15.138323,-40
15:46:15.138323,-8705
15:46:15.138323,-1
15:46:15.138323,-33
15:46:15.138323,-6401
15:46:15.138323,-1
15:46:15.138323,-19
15:46:15.138323,-8705
15:46:15.138323,-1
15:46:15.138323,-59
15:46:15.138323,-16897
15:46:15.138323,-1
15:46:15.138323,-59
15:46:15.138323,-11777
15:46:15.138323,-1
15:46:15.138323,-38
15:46:15.138323,-9985
15:46:15.138323,-1
15:46:15.138323,-47
15:46:15.138323,-12545
15:46:15.138323,-1
15:46:15.138323,-47
15:46:15.138323,-12545
15:46:15.138323,-1
15:46:15.138323,-55
15:46:15.138323,-13057
15:46:15.138323,-1
15:46:15.138323,-40
15:46:15.138323,8703
15:46:15.138323,0
15:46:15.138323,160
15:46:15.138323,-1024
15:46:15.138323,-1
15:46:15.138323,-781
15:46:15.138323,-4609
15:46:15.138323,-7
15:46:15.138323,-1334
15:46:15.138323,-8961
15:46:15.138323,-3
15:46:15.138323,-194
15:46:15.138323,-24833
15:46:15.138323,-1
15:46:15.138323,76
15:46:15.138323,-32512
15:46:15.138323,0
15:46:15.138323,88
15:46:15.138323,27392
15:46:15.138323,0
15:46:15.138323,127
15:46:15.138323,26880
15:46:15.138323,0
15:46:15.138323,95
15:46:15.138323,24320
15:46:15.138323,0
15:46:15.138323,86
15:46:15.138323,20224
15:46:15.138323,0
15:46:15.138323,79
15:46:15.138323,19456
15:46:15.138323,0
15:46:15.138323,71
15:46:15.138323,17152
15:46:15.138323,0
15:46:15.138323,64
15:46:15.138323,15104
15:46:15.138323,0
15:46:15.138323,52
15:46:15.138323,11520
15:46:15.138323,0
15:46:15.138323,40
15:46:15.138323,8448
15:46:15.138323,0
15:46:15.138323,23
15:46:15.138323,2304
15:46:15.138323,0
15:46:15.138323,-4
15:46:15.138323,-5633
15:46:15.138323,-1
15:46:15.138323,-50
15:46:15.767690,-76
15:46:15.767690,-23553
15:46:15.767690,-1
15:46:15.767690,-110
15:46:15.767690,-30977
15:46:15.767690,-1
15:46:15.767690,-103
15:46:15.767690,-16129
15:46:15.767690,-1
15:46:15.767690,-38
15:46:15.767690,-5121
15:46:15.767690,-1
15:46:15.767690,0
15:46:15.767690,4864
15:46:15.767690,0
15:46:15.767690,23
15:46:15.767690,4864
15:46:15.767690,0
15:46:15.767690,19
15:46:15.767690,4096
15:46:15.767690,0
15:46:15.767690,19
15:46:15.767690,5376
15:46:15.767690,0
15:46:15.767690,19
15:46:15.767690,3584
15:46:15.767690,0
15:46:15.767690,14
15:46:15.767690,3584
15:46:15.767690,0
15:46:15.767690,11
15:46:15.767690,2304
15:46:15.767690,0
15:46:15.767690,4
15:46:15.767690,0
15:46:15.767690,0
