timestamp,ecg,reconstructed_time
2025-11-07 14:42:32.002906,21,2025-11-07 14:42:32.002906000
2025-11-07 14:42:32.002906,11008,2025-11-07 14:42:32.010598308
2025-11-07 14:42:32.002906,0,2025-11-07 14:42:32.018290615
2025-11-07 14:42:32.002906,70,2025-11-07 14:42:32.025982923
2025-11-07 14:42:32.002906,19200,2025-11-07 14:42:32.033675231
2025-11-07 14:42:32.002906,0,2025-11-07 14:42:32.041367538
2025-11-07 14:42:32.002906,48,2025-11-07 14:42:32.049059846
2025-11-07 14:42:32.002906,11008,2025-11-07 14:42:32.056752154
2025-11-07 14:42:32.002906,0,2025-11-07 14:42:32.064444462
2025-11-07 14:42:32.002906,58,2025-11-07 14:42:32.072136769
2025-11-07 14:42:32.002906,15360,2025-11-07 14:42:32.079829077
2025-11-07 14:42:32.002906,0,2025-11-07 14:42:32.087521385
2025-11-07 14:42:32.002906,63,2025-11-07 14:42:32.095213692
2025-11-07 14:42:32.002906,13056,2025-11-07 14:42:32.102906000
2025-11-07 14:42:32.002906,0,2025-11-07 14:42:32.110598308
2025-11-07 14:42:32.002906,4,2025-11-07 14:42:32.118290615
2025-11-07 14:42:32.002906,17408,2025-11-07 14:42:32.125982923
2025-11-07 14:42:32.002906,0,2025-11-07 14:42:32.133675231
2025-11-07 14:42:32.002906,535,2025-11-07 14:42:32.141367538
2025-11-07 14:42:32.002906,-3840,2025-11-07 14:42:32.149059846
2025-11-07 14:42:32.002906,4,2025-11-07 14:42:32.156752154
2025-11-07 14:42:32.002906,1459,2025-11-07 14:42:32.164444462
2025-11-07 14:42:32.002906,32000,2025-11-07 14:42:32.172136769
2025-11-07 14:42:32.002906,3,2025-11-07 14:42:32.179829077
2025-11-07 14:42:32.002906,335,2025-11-07 14:42:32.187521385
2025-11-07 14:42:32.002906,-27648,2025-11-07 14:42:32.195213692
2025-11-07 14:42:32.002906,0,2025-11-07 14:42:32.202906000
2025-11-07 14:42:32.002906,34,2025-11-07 14:42:32.210598308
2025-11-07 14:42:32.002906,-19712,2025-11-07 14:42:32.218290615
2025-11-07 14:42:32.002906,-1,2025-11-07 14:42:32.225982923
2025-11-07 14:42:32.002906,-87,2025-11-07 14:42:32.233675231
2025-11-07 14:42:32.002906,-18945,2025-11-07 14:42:32.241367538
2025-11-07 14:42:32.002906,-1,2025-11-07 14:42:32.249059846
2025-11-07 14:42:32.002906,-94,2025-11-07 14:42:32.256752154
2025-11-07 14:42:32.002906,-23297,2025-11-07 14:42:32.264444462
2025-11-07 14:42:32.002906,-1,2025-11-07 14:42:32.272136769
2025-11-07 14:42:32.002906,-75,2025-11-07 14:42:32.279829077
2025-11-07 14:42:32.002906,-17665,2025-11-07 14:42:32.287521385
2025-11-07 14:42:32.002906,-1,2025-11-07 14:42:32.295213692
2025-11-07 14:42:32.002906,-65,2025-11-07 14:42:32.302906000
2025-11-07 14:42:32.002906,-13313,2025-11-07 14:42:32.310598308
2025-11-07 14:42:32.002906,-1,2025-11-07 14:42:32.318290615
2025-11-07 14:42:32.002906,-43,2025-11-07 14:42:32.325982923
2025-11-07 14:42:32.002906,-9473,2025-11-07 14:42:32.333675231
2025-11-07 14:42:32.002906,-1,2025-11-07 14:42:32.341367538
2025-11-07 14:42:32.002906,-29,2025-11-07 14:42:32.349059846
2025-11-07 14:42:32.002906,-2817,2025-11-07 14:42:32.356752154
2025-11-07 14:42:32.002906,-1,2025-11-07 14:42:32.364444462
2025-11-07 14:42:32.002906,-2,2025-11-07 14:42:32.372136769
2025-11-07 14:42:32.002906,2559,2025-11-07 14:42:32.379829077
2025-11-07 14:42:32.002906,0,2025-11-07 14:42:32.387521385
2025-11-07 14:42:32.002906,26,2025-11-07 14:42:32.395213692
2025-11-07 14:42:32.002906,9728,2025-11-07 14:42:32.402906000
2025-11-07 14:42:32.002906,0,2025-11-07 14:42:32.410598308
2025-11-07 14:42:32.002906,55,2025-11-07 14:42:32.418290615
2025-11-07 14:42:32.002906,18432,2025-11-07 14:42:32.425982923
2025-11-07 14:42:32.002906,0,2025-11-07 14:42:32.433675231
2025-11-07 14:42:32.002906,85,2025-11-07 14:42:32.441367538
2025-11-07 14:42:32.002906,23552,2025-11-07 14:42:32.449059846
2025-11-07 14:42:32.002906,0,2025-11-07 14:42:32.456752154
2025-11-07 14:42:32.002906,97,2025-11-07 14:42:32.464444462
2025-11-07 14:42:32.002906,24064,2025-11-07 14:42:32.472136769
2025-11-07 14:42:32.002906,0,2025-11-07 14:42:32.479829077
2025-11-07 14:42:32.002906,77,2025-11-07 14:42:32.487521385
2025-11-07 14:42:32.002906,11776,2025-11-07 14:42:32.495213692
2025-11-07 14:42:32.002906,0,2025-11-07 14:42:32.502906000
2025-11-07 14:42:32.002906,4,2025-11-07 14:42:32.510598308
2025-11-07 14:42:32.002906,-7424,2025-11-07 14:42:32.518290615
2025-11-07 14:42:32.002906,-1,2025-11-07 14:42:32.525982923
2025-11-07 14:42:32.002906,-48,2025-11-07 14:42:32.533675230
2025-11-07 14:42:32.002906,-14593,2025-11-07 14:42:32.541367538
2025-11-07 14:42:32.002906,-1,2025-11-07 14:42:32.549059846
2025-11-07 14:42:32.002906,-65,2025-11-07 14:42:32.556752154
2025-11-07 14:42:32.002906,-15873,2025-11-07 14:42:32.564444462
2025-11-07 14:42:32.002906,-1,2025-11-07 14:42:32.572136769
2025-11-07 14:42:32.002906,-60,2025-11-07 14:42:32.579829077
2025-11-07 14:42:32.002906,-14593,2025-11-07 14:42:32.587521385
2025-11-07 14:42:32.002906,-1,2025-11-07 14:42:32.595213692
2025-11-07 14:42:32.002906,-53,2025-11-07 14:42:32.602906000
2025-11-07 14:42:32.002906,-12801,2025-11-07 14:42:32.610598308
2025-11-07 14:42:32.002906,-1,2025-11-07 14:42:32.618290615
2025-11-07 14:42:32.002906,-48,2025-11-07 14:42:32.625982923
2025-11-07 14:42:32.002906,-10753,2025-11-07 14:42:32.633675231
2025-11-07 14:42:32.002906,-1,2025-11-07 14:42:32.641367538
2025-11-07 14:42:32.002906,-41,2025-11-07 14:42:32.649059846
2025-11-07 14:42:32.002906,-10241,2025-11-07 14:42:32.656752154
2025-11-07 14:42:32.002906,-1,2025-11-07 14:42:32.664444462
2025-11-07 14:42:32.002906,-38,2025-11-07 14:42:32.672136769
2025-11-07 14:42:32.002906,-7681,2025-11-07 14:42:32.679829077
2025-11-07 14:42:32.002906,-1,2025-11-07 14:42:32.687521385
2025-11-07 14:42:32.002906,-26,2025-11-07 14:42:32.695213692
2025-11-07 14:42:32.002906,-5121,2025-11-07 14:42:32.702906000
2025-11-07 14:42:32.002906,-1,2025-11-07 14:42:32.710598308
2025-11-07 14:42:32.002906,-21,2025-11-07 14:42:32.718290615
2025-11-07 14:42:32.002906,-5121,2025-11-07 14:42:32.725982923
2025-11-07 14:42:32.002906,-1,2025-11-07 14:42:32.733675231
2025-11-07 14:42:32.002906,-17,2025-11-07 14:42:32.741367538
2025-11-07 14:42:32.002906,-2817,2025-11-07 14:42:32.749059846
2025-11-07 14:42:32.002906,-1,2025-11-07 14:42:32.756752154
2025-11-07 14:42:32.002906,-12,2025-11-07 14:42:32.764444462
2025-11-07 14:42:32.002906,-2049,2025-11-07 14:42:32.772136769
2025-11-07 14:42:32.002906,-1,2025-11-07 14:42:32.779829077
2025-11-07 14:42:32.002906,-7,2025-11-07 14:42:32.787521385
2025-11-07 14:42:32.002906,-769,2025-11-07 14:42:32.795213692
2025-11-07 14:42:32.002906,-1,2025-11-07 14:42:32.802906000
2025-11-07 14:42:32.002906,-2,2025-11-07 14:42:32.810598308
2025-11-07 14:42:32.002906,-257,2025-11-07 14:42:32.818290615
2025-11-07 14:42:32.002906,-1,2025-11-07 14:42:32.825982923
2025-11-07 14:42:32.002906,0,2025-11-07 14:42:32.833675231
2025-11-07 14:42:32.542265,4,2025-11-07 14:42:32.841367538
2025-11-07 14:42:32.542265,1024,2025-11-07 14:42:32.849059846
2025-11-07 14:42:32.542265,0,2025-11-07 14:42:32.856752154
2025-11-07 14:42:32.542265,7,2025-11-07 14:42:32.864444462
2025-11-07 14:42:32.542265,2304,2025-11-07 14:42:32.872136769
2025-11-07 14:42:32.542265,0,2025-11-07 14:42:32.879829077
2025-11-07 14:42:32.542265,7,2025-11-07 14:42:32.887521385
2025-11-07 14:42:32.542265,1792,2025-11-07 14:42:32.895213692
2025-11-07 14:42:32.542265,0,2025-11-07 14:42:32.902906000
2025-11-07 14:42:32.542265,9,2025-11-07 14:42:32.910598308
2025-11-07 14:42:32.542265,2304,2025-11-07 14:42:32.918290615
2025-11-07 14:42:32.542265,0,2025-11-07 14:42:32.925982923
2025-11-07 14:42:32.542265,7,2025-11-07 14:42:32.933675231
2025-11-07 14:42:32.542265,1792,2025-11-07 14:42:32.941367538
2025-11-07 14:42:32.542265,0,2025-11-07 14:42:32.949059846
2025-11-07 14:42:32.542265,14,2025-11-07 14:42:32.956752154
2025-11-07 14:42:32.542265,6144,2025-11-07 14:42:32.964444462
2025-11-07 14:42:32.542265,0,2025-11-07 14:42:32.972136769
2025-11-07 14:42:32.542265,34,2025-11-07 14:42:32.979829077
2025-11-07 14:42:32.542265,6656,2025-11-07 14:42:32.987521385
2025-11-07 14:42:32.542265,0,2025-11-07 14:42:32.995213692
2025-11-07 14:42:32.542265,21,2025-11-07 14:42:33.002906000
2025-11-07 14:42:32.542265,6144,2025-11-07 14:42:33.010598308
2025-11-07 14:42:32.542265,0,2025-11-07 14:42:33.018290615
2025-11-07 14:42:32.542265,24,2025-11-07 14:42:33.025982923
2025-11-07 14:42:32.542265,5376,2025-11-07 14:42:33.033675231
2025-11-07 14:42:32.542265,0,2025-11-07 14:42:33.041367538
2025-11-07 14:42:32.542265,24,2025-11-07 14:42:33.049059846
2025-11-07 14:42:32.542265,5376,2025-11-07 14:42:33.056752154
2025-11-07 14:42:32.542265,0,2025-11-07 14:42:33.064444462
2025-11-07 14:42:32.542265,19,2025-11-07 14:42:33.072136769
2025-11-07 14:42:32.542265,4352,2025-11-07 14:42:33.079829077
2025-11-07 14:42:32.542265,0,2025-11-07 14:42:33.087521385
2025-11-07 14:42:32.542265,19,2025-11-07 14:42:33.095213692
2025-11-07 14:42:32.542265,5376,2025-11-07 14:42:33.102906000
2025-11-07 14:42:32.542265,0,2025-11-07 14:42:33.110598308
2025-11-07 14:42:32.542265,21,2025-11-07 14:42:33.118290615
2025-11-07 14:42:32.542265,4864,2025-11-07 14:42:33.125982923
2025-11-07 14:42:32.542265,0,2025-11-07 14:42:33.133675231
2025-11-07 14:42:32.542265,19,2025-11-07 14:42:33.141367538
2025-11-07 14:42:32.542265,3072,2025-11-07 14:42:33.149059846
2025-11-07 14:42:32.542265,0,2025-11-07 14:42:33.156752154
2025-11-07 14:42:32.542265,2,2025-11-07 14:42:33.164444462
2025-11-07 14:42:32.542265,-512,2025-11-07 14:42:33.172136769
2025-11-07 14:42:32.542265,-1,2025-11-07 14:42:33.179829077
2025-11-07 14:42:32.542265,-7,2025-11-07 14:42:33.187521385
2025-11-07 14:42:32.542265,-2817,2025-11-07 14:42:33.195213692
2025-11-07 14:42:32.542265,-1,2025-11-07 14:42:33.202906000
2025-11-07 14:42:32.542265,-4,2025-11-07 14:42:33.210598308
2025-11-07 14:42:32.542265,3327,2025-11-07 14:42:33.218290615
2025-11-07 14:42:32.542265,0,2025-11-07 14:42:33.225982923
2025-11-07 14:42:32.542265,36,2025-11-07 14:42:33.233675231
2025-11-07 14:42:32.542265,13568,2025-11-07 14:42:33.241367538
2025-11-07 14:42:32.542265,0,2025-11-07 14:42:33.249059846
2025-11-07 14:42:32.542265,43,2025-11-07 14:42:33.256752154
2025-11-07 14:42:32.542265,5376,2025-11-07 14:42:33.264444462
2025-11-07 14:42:32.542265,0,2025-11-07 14:42:33.272136769
2025-11-07 14:42:32.542265,26,2025-11-07 14:42:33.279829077
2025-11-07 14:42:32.542265,10496,2025-11-07 14:42:33.287521385
2025-11-07 14:42:32.542265,0,2025-11-07 14:42:33.295213692
2025-11-07 14:42:32.542265,36,2025-11-07 14:42:33.302906000
2025-11-07 14:42:32.542265,6656,2025-11-07 14:42:33.310598308
2025-11-07 14:42:32.542265,0,2025-11-07 14:42:33.318290615
2025-11-07 14:42:32.542265,-4,2025-11-07 14:42:33.325982923
2025-11-07 14:42:32.542265,-12033,2025-11-07 14:42:33.333675231
2025-11-07 14:42:32.542265,-1,2025-11-07 14:42:33.341367538
2025-11-07 14:42:32.542265,107,2025-11-07 14:42:33.349059846
2025-11-07 14:42:32.542265,-7936,2025-11-07 14:42:33.356752154
2025-11-07 14:42:32.542265,2,2025-11-07 14:42:33.364444462
2025-11-07 14:42:32.542265,1455,2025-11-07 14:42:33.372136769
2025-11-07 14:42:32.542265,-29440,2025-11-07 14:42:33.379829077
2025-11-07 14:42:32.542265,5,2025-11-07 14:42:33.387521385
2025-11-07 14:42:32.542265,742,2025-11-07 14:42:33.395213692
2025-11-07 14:42:32.542265,-4608,2025-11-07 14:42:33.402906000
2025-11-07 14:42:32.542265,0,2025-11-07 14:42:33.410598308
2025-11-07 14:42:32.542265,63,2025-11-07 14:42:33.418290615
2025-11-07 14:42:32.542265,-13568,2025-11-07 14:42:33.425982923
2025-11-07 14:42:32.542265,-1,2025-11-07 14:42:33.433675231
2025-11-07 14:42:32.542265,-131,2025-11-07 14:42:33.441367538
2025-11-07 14:42:32.542265,32255,2025-11-07 14:42:33.449059846
2025-11-07 14:42:32.542265,-1,2025-11-07 14:42:33.456752154
2025-11-07 14:42:32.542265,-126,2025-11-07 14:42:33.464444462
2025-11-07 14:42:32.542265,30463,2025-11-07 14:42:33.472136769
2025-11-07 14:42:32.542265,-1,2025-11-07 14:42:33.479829077
2025-11-07 14:42:32.542265,-131,2025-11-07 14:42:33.487521385
2025-11-07 14:42:32.542265,-30209,2025-11-07 14:42:33.495213692
2025-11-07 14:42:32.542265,-1,2025-11-07 14:42:33.502906000
2025-11-07 14:42:32.542265,-116,2025-11-07 14:42:33.510598308
2025-11-07 14:42:32.542265,-27137,2025-11-07 14:42:33.518290615
2025-11-07 14:42:32.542265,-1,2025-11-07 14:42:33.525982923
2025-11-07 14:42:32.542265,-97,2025-11-07 14:42:33.533675230
2025-11-07 14:42:32.542265,-22785,2025-11-07 14:42:33.541367538
2025-11-07 14:42:32.542265,-1,2025-11-07 14:42:33.549059846
2025-11-07 14:42:32.542265,-80,2025-11-07 14:42:33.556752154
2025-11-07 14:42:32.542265,-17153,2025-11-07 14:42:33.564444462
2025-11-07 14:42:32.542265,-1,2025-11-07 14:42:33.572136769
2025-11-07 14:42:32.542265,-60,2025-11-07 14:42:33.579829077
2025-11-07 14:42:32.542265,-12033,2025-11-07 14:42:33.587521385
2025-11-07 14:42:32.542265,-1,2025-11-07 14:42:33.595213692
2025-11-07 14:42:32.542265,-36,2025-11-07 14:42:33.602906000
2025-11-07 14:42:32.542265,-5889,2025-11-07 14:42:33.610598308
2025-11-07 14:42:32.542265,-1,2025-11-07 14:42:33.618290615
2025-11-07 14:42:32.542265,-9,2025-11-07 14:42:33.625982923
2025-11-07 14:42:32.542265,2047,2025-11-07 14:42:33.633675231
2025-11-07 14:42:32.542265,0,2025-11-07 14:42:33.641367538
2025-11-07 14:42:32.542265,24,2025-11-07 14:42:33.649059846
2025-11-07 14:42:32.542265,9216,2025-11-07 14:42:33.656752154
2025-11-07 14:42:32.542265,0,2025-11-07 14:42:33.664444462
2025-11-07 14:42:32.542265,48,2025-11-07 14:42:33.672136769
2025-11-07 14:42:33.081367,53,2025-11-07 14:42:33.679829077
2025-11-07 14:42:33.081367,12288,2025-11-07 14:42:33.687521385
2025-11-07 14:42:33.081367,0,2025-11-07 14:42:33.695213692
2025-11-07 14:42:33.081367,36,2025-11-07 14:42:33.702906000
2025-11-07 14:42:33.081367,1792,2025-11-07 14:42:33.710598308
2025-11-07 14:42:33.081367,0,2025-11-07 14:42:33.718290615
2025-11-07 14:42:33.081367,-34,2025-11-07 14:42:33.725982923
2025-11-07 14:42:33.081367,-17153,2025-11-07 14:42:33.733675231
2025-11-07 14:42:33.081367,-1,2025-11-07 14:42:33.741367538
2025-11-07 14:42:33.081367,-90,2025-11-07 14:42:33.749059846
2025-11-07 14:42:33.081367,-25089,2025-11-07 14:42:33.756752154
2025-11-07 14:42:33.081367,-1,2025-11-07 14:42:33.764444462
2025-11-07 14:42:33.081367,-94,2025-11-07 14:42:33.772136769
2025-11-07 14:42:33.081367,-22017,2025-11-07 14:42:33.779829077
2025-11-07 14:42:33.081367,-1,2025-11-07 14:42:33.787521385
2025-11-07 14:42:33.081367,-87,2025-11-07 14:42:33.795213692
2025-11-07 14:42:33.081367,-22017,2025-11-07 14:42:33.802906000
2025-11-07 14:42:33.081367,-1,2025-11-07 14:42:33.810598308
2025-11-07 14:42:33.081367,-82,2025-11-07 14:42:33.818290615
2025-11-07 14:42:33.081367,-19457,2025-11-07 14:42:33.825982923
2025-11-07 14:42:33.081367,-1,2025-11-07 14:42:33.833675231
2025-11-07 14:42:33.081367,-75,2025-11-07 14:42:33.841367538
2025-11-07 14:42:33.081367,-18945,2025-11-07 14:42:33.849059846
2025-11-07 14:42:33.081367,-1,2025-11-07 14:42:33.856752154
2025-11-07 14:42:33.081367,-70,2025-11-07 14:42:33.864444462
2025-11-07 14:42:33.081367,-16385,2025-11-07 14:42:33.872136769
2025-11-07 14:42:33.081367,-1,2025-11-07 14:42:33.879829077
2025-11-07 14:42:33.081367,-60,2025-11-07 14:42:33.887521385
2025-11-07 14:42:33.081367,-14593,2025-11-07 14:42:33.895213692
2025-11-07 14:42:33.081367,-1,2025-11-07 14:42:33.902906000
2025-11-07 14:42:33.081367,-53,2025-11-07 14:42:33.910598308
2025-11-07 14:42:33.081367,-12801,2025-11-07 14:42:33.918290615
2025-11-07 14:42:33.081367,-1,2025-11-07 14:42:33.925982923
2025-11-07 14:42:33.081367,-46,2025-11-07 14:42:33.933675231
2025-11-07 14:42:33.081367,-10753,2025-11-07 14:42:33.941367538
2025-11-07 14:42:33.081367,-1,2025-11-07 14:42:33.949059846
2025-11-07 14:42:33.081367,-43,2025-11-07 14:42:33.956752154
2025-11-07 14:42:33.081367,-9473,2025-11-07 14:42:33.964444462
2025-11-07 14:42:33.081367,-1,2025-11-07 14:42:33.972136769
2025-11-07 14:42:33.081367,-34,2025-11-07 14:42:33.979829077
2025-11-07 14:42:33.081367,-8449,2025-11-07 14:42:33.987521385
2025-11-07 14:42:33.081367,-1,2025-11-07 14:42:33.995213692
2025-11-07 14:42:33.081367,-34,2025-11-07 14:42:34.002906000
2025-11-07 14:42:33.081367,-8449,2025-11-07 14:42:34.010598308
2025-11-07 14:42:33.081367,-1,2025-11-07 14:42:34.018290615
2025-11-07 14:42:33.081367,-29,2025-11-07 14:42:34.025982923
2025-11-07 14:42:33.081367,-5121,2025-11-07 14:42:34.033675231
2025-11-07 14:42:33.081367,-1,2025-11-07 14:42:34.041367538
2025-11-07 14:42:33.081367,-19,2025-11-07 14:42:34.049059846
2025-11-07 14:42:33.081367,-4609,2025-11-07 14:42:34.056752154
2025-11-07 14:42:33.081367,-1,2025-11-07 14:42:34.064444462
2025-11-07 14:42:33.081367,-19,2025-11-07 14:42:34.072136769
2025-11-07 14:42:33.081367,-4097,2025-11-07 14:42:34.079829077
2025-11-07 14:42:33.081367,-1,2025-11-07 14:42:34.087521385
2025-11-07 14:42:33.081367,-17,2025-11-07 14:42:34.095213692
2025-11-07 14:42:33.081367,-3329,2025-11-07 14:42:34.102906000
2025-11-07 14:42:33.081367,-1,2025-11-07 14:42:34.110598308
2025-11-07 14:42:33.081367,-12,2025-11-07 14:42:34.118290615
2025-11-07 14:42:33.081367,-3329,2025-11-07 14:42:34.125982923
2025-11-07 14:42:33.081367,-1,2025-11-07 14:42:34.133675231
2025-11-07 14:42:33.081367,-14,2025-11-07 14:42:34.141367538
2025-11-07 14:42:33.081367,-2049,2025-11-07 14:42:34.149059846
2025-11-07 14:42:33.081367,-1,2025-11-07 14:42:34.156752154
2025-11-07 14:42:33.081367,-12,2025-11-07 14:42:34.164444462
2025-11-07 14:42:33.081367,-2817,2025-11-07 14:42:34.172136769
2025-11-07 14:42:33.081367,-1,2025-11-07 14:42:34.179829077
2025-11-07 14:42:33.081367,-12,2025-11-07 14:42:34.187521385
2025-11-07 14:42:33.081367,-2817,2025-11-07 14:42:34.195213692
2025-11-07 14:42:33.081367,-1,2025-11-07 14:42:34.202906000
2025-11-07 14:42:33.081367,-12,2025-11-07 14:42:34.210598308
2025-11-07 14:42:33.081367,-2817,2025-11-07 14:42:34.218290615
2025-11-07 14:42:33.081367,-1,2025-11-07 14:42:34.225982923
2025-11-07 14:42:33.081367,-9,2025-11-07 14:42:34.233675231
2025-11-07 14:42:33.081367,-1537,2025-11-07 14:42:34.241367538
2025-11-07 14:42:33.081367,-1,2025-11-07 14:42:34.249059846
2025-11-07 14:42:33.081367,-7,2025-11-07 14:42:34.256752154
2025-11-07 14:42:33.081367,-2817,2025-11-07 14:42:34.264444462
2025-11-07 14:42:33.081367,-1,2025-11-07 14:42:34.272136769
2025-11-07 14:42:33.081367,-12,2025-11-07 14:42:34.279829077
2025-11-07 14:42:33.081367,-2049,2025-11-07 14:42:34.287521385
2025-11-07 14:42:33.081367,-1,2025-11-07 14:42:34.295213692
2025-11-07 14:42:33.081367,-9,2025-11-07 14:42:34.302906000
2025-11-07 14:42:33.081367,-2049,2025-11-07 14:42:34.310598308
2025-11-07 14:42:33.081367,-1,2025-11-07 14:42:34.318290615
2025-11-07 14:42:33.081367,-7,2025-11-07 14:42:34.325982923
2025-11-07 14:42:33.081367,-1537,2025-11-07 14:42:34.333675231
2025-11-07 14:42:33.081367,-1,2025-11-07 14:42:34.341367538
2025-11-07 14:42:33.081367,-7,2025-11-07 14:42:34.349059846
2025-11-07 14:42:33.081367,-769,2025-11-07 14:42:34.356752154
2025-11-07 14:42:33.081367,-1,2025-11-07 14:42:34.364444462
2025-11-07 14:42:33.081367,-4,2025-11-07 14:42:34.372136769
2025-11-07 14:42:33.081367,-769,2025-11-07 14:42:34.379829077
2025-11-07 14:42:33.081367,-1,2025-11-07 14:42:34.387521385
2025-11-07 14:42:33.081367,-7,2025-11-07 14:42:34.395213692
2025-11-07 14:42:33.081367,-2817,2025-11-07 14:42:34.402906000
2025-11-07 14:42:33.081367,-1,2025-11-07 14:42:34.410598308
2025-11-07 14:42:33.081367,-21,2025-11-07 14:42:34.418290615
2025-11-07 14:42:33.081367,-7169,2025-11-07 14:42:34.425982923
2025-11-07 14:42:33.081367,-1,2025-11-07 14:42:34.433675231
2025-11-07 14:42:33.081367,-31,2025-11-07 14:42:34.441367538
2025-11-07 14:42:33.081367,-8449,2025-11-07 14:42:34.449059846
2025-11-07 14:42:33.081367,-1,2025-11-07 14:42:34.456752154
2025-11-07 14:42:33.081367,-36,2025-11-07 14:42:34.464444462
2025-11-07 14:42:33.081367,-5889,2025-11-07 14:42:34.472136769
2025-11-07 14:42:33.081367,-1,2025-11-07 14:42:34.479829077
2025-11-07 14:42:33.081367,4,2025-11-07 14:42:34.487521385
2025-11-07 14:42:33.081367,7936,2025-11-07 14:42:34.495213692
2025-11-07 14:42:33.081367,0,2025-11-07 14:42:34.502906000
2025-11-07 14:42:33.081367,34,2025-11-07 14:42:34.510598308
2025-11-07 14:42:33.621940,9,2025-11-07 14:42:34.518290615
2025-11-07 14:42:33.621940,0,2025-11-07 14:42:34.525982923
2025-11-07 14:42:33.621940,0,2025-11-07 14:42:34.533675230
2025-11-07 14:42:33.621940,12,2025-11-07 14:42:34.541367538
2025-11-07 14:42:33.621940,3584,2025-11-07 14:42:34.549059846
2025-11-07 14:42:33.621940,0,2025-11-07 14:42:34.556752154
2025-11-07 14:42:33.621940,9,2025-11-07 14:42:34.564444462
2025-11-07 14:42:33.621940,-1792,2025-11-07 14:42:34.572136769
2025-11-07 14:42:33.621940,-1,2025-11-07 14:42:34.579829077
2025-11-07 14:42:33.621940,-41,2025-11-07 14:42:34.587521385
2025-11-07 14:42:33.621940,8959,2025-11-07 14:42:34.595213692
2025-11-07 14:42:33.621940,0,2025-11-07 14:42:34.602906000
2025-11-07 14:42:33.621940,508,2025-11-07 14:42:34.610598308
2025-11-07 14:42:33.621940,-3328,2025-11-07 14:42:34.618290615
2025-11-07 14:42:33.621940,4,2025-11-07 14:42:34.625982923
2025-11-07 14:42:33.621940,1506,2025-11-07 14:42:34.633675231
2025-11-07 14:42:33.621940,-19968,2025-11-07 14:42:34.641367538
2025-11-07 14:42:33.621940,3,2025-11-07 14:42:34.649059846
2025-11-07 14:42:33.621940,335,2025-11-07 14:42:34.656752154
2025-11-07 14:42:33.621940,24832,2025-11-07 14:42:34.664444462
2025-11-07 14:42:33.621940,0,2025-11-07 14:42:34.672136769
2025-11-07 14:42:33.621940,-14,2025-11-07 14:42:34.679829077
2025-11-07 14:42:33.621940,-29441,2025-11-07 14:42:34.687521385
2025-11-07 14:42:33.621940,-1,2025-11-07 14:42:34.695213692
2025-11-07 14:42:33.621940,-136,2025-11-07 14:42:34.702906000
2025-11-07 14:42:33.621940,-30721,2025-11-07 14:42:34.710598308
2025-11-07 14:42:33.621940,-1,2025-11-07 14:42:34.718290615
2025-11-07 14:42:33.621940,-131,2025-11-07 14:42:34.725982923
2025-11-07 14:42:33.621940,-32513,2025-11-07 14:42:34.733675231
2025-11-07 14:42:33.621940,-1,2025-11-07 14:42:34.741367538
2025-11-07 14:42:33.621940,-111,2025-11-07 14:42:34.749059846
2025-11-07 14:42:33.621940,-26369,2025-11-07 14:42:34.756752154
2025-11-07 14:42:33.621940,-1,2025-11-07 14:42:34.764444462
2025-11-07 14:42:33.621940,-104,2025-11-07 14:42:34.772136769
2025-11-07 14:42:33.621940,-23297,2025-11-07 14:42:34.779829077
2025-11-07 14:42:33.621940,-1,2025-11-07 14:42:34.787521385
2025-11-07 14:42:33.621940,-77,2025-11-07 14:42:34.795213692
2025-11-07 14:42:33.621940,-15873,2025-11-07 14:42:34.802906000
2025-11-07 14:42:33.621940,-1,2025-11-07 14:42:34.810598308
2025-11-07 14:42:33.621940,-53,2025-11-07 14:42:34.818290615
2025-11-07 14:42:33.621940,-10241,2025-11-07 14:42:34.825982923
2025-11-07 14:42:33.621940,-1,2025-11-07 14:42:34.833675231
2025-11-07 14:42:33.621940,-26,2025-11-07 14:42:34.841367538
2025-11-07 14:42:33.621940,-4609,2025-11-07 14:42:34.849059846
2025-11-07 14:42:33.621940,-1,2025-11-07 14:42:34.856752154
2025-11-07 14:42:33.621940,-12,2025-11-07 14:42:34.864444462
2025-11-07 14:42:33.621940,2047,2025-11-07 14:42:34.872136769
2025-11-07 14:42:33.621940,0,2025-11-07 14:42:34.879829077
2025-11-07 14:42:33.621940,26,2025-11-07 14:42:34.887521385
2025-11-07 14:42:33.621940,10496,2025-11-07 14:42:34.895213692
2025-11-07 14:42:33.621940,0,2025-11-07 14:42:34.902906000
2025-11-07 14:42:33.621940,53,2025-11-07 14:42:34.910598308
2025-11-07 14:42:33.621940,17920,2025-11-07 14:42:34.918290615
2025-11-07 14:42:33.621940,0,2025-11-07 14:42:34.925982923
2025-11-07 14:42:33.621940,82,2025-11-07 14:42:34.933675231
2025-11-07 14:42:33.621940,19200,2025-11-07 14:42:34.941367538
2025-11-07 14:42:33.621940,0,2025-11-07 14:42:34.949059846
2025-11-07 14:42:33.621940,60,2025-11-07 14:42:34.956752154
2025-11-07 14:42:33.621940,8704,2025-11-07 14:42:34.964444462
2025-11-07 14:42:33.621940,0,2025-11-07 14:42:34.972136769
2025-11-07 14:42:33.621940,0,2025-11-07 14:42:34.979829077
2025-11-07 14:42:33.621940,-7424,2025-11-07 14:42:34.987521385
2025-11-07 14:42:33.621940,-1,2025-11-07 14:42:34.995213692
2025-11-07 14:42:33.621940,-53,2025-11-07 14:42:35.002906000
2025-11-07 14:42:33.621940,-17665,2025-11-07 14:42:35.010598308
2025-11-07 14:42:33.621940,-1,2025-11-07 14:42:35.018290615
2025-11-07 14:42:33.621940,-75,2025-11-07 14:42:35.025982923
2025-11-07 14:42:33.621940,-18945,2025-11-07 14:42:35.033675231
2025-11-07 14:42:33.621940,-1,2025-11-07 14:42:35.041367538
2025-11-07 14:42:33.621940,-72,2025-11-07 14:42:35.049059846
2025-11-07 14:42:33.621940,-17665,2025-11-07 14:42:35.056752154
2025-11-07 14:42:33.621940,-1,2025-11-07 14:42:35.064444462
2025-11-07 14:42:33.621940,-68,2025-11-07 14:42:35.072136769
2025-11-07 14:42:33.621940,-16385,2025-11-07 14:42:35.079829077
2025-11-07 14:42:33.621940,-1,2025-11-07 14:42:35.087521385
2025-11-07 14:42:33.621940,-60,2025-11-07 14:42:35.095213692
2025-11-07 14:42:33.621940,-13313,2025-11-07 14:42:35.102906000
2025-11-07 14:42:33.621940,-1,2025-11-07 14:42:35.110598308
2025-11-07 14:42:33.621940,-48,2025-11-07 14:42:35.118290615
2025-11-07 14:42:33.621940,-12033,2025-11-07 14:42:35.125982923
2025-11-07 14:42:33.621940,-1,2025-11-07 14:42:35.133675231
2025-11-07 14:42:33.621940,-46,2025-11-07 14:42:35.141367538
2025-11-07 14:42:33.621940,-10241,2025-11-07 14:42:35.149059846
2025-11-07 14:42:33.621940,-1,2025-11-07 14:42:35.156752154
2025-11-07 14:42:33.621940,-31,2025-11-07 14:42:35.164444462
2025-11-07 14:42:33.621940,-6401,2025-11-07 14:42:35.172136769
2025-11-07 14:42:33.621940,-1,2025-11-07 14:42:35.179829077
2025-11-07 14:42:33.621940,-31,2025-11-07 14:42:35.187521385
2025-11-07 14:42:33.621940,-7169,2025-11-07 14:42:35.195213692
2025-11-07 14:42:33.621940,-1,2025-11-07 14:42:35.202906000
2025-11-07 14:42:33.621940,-19,2025-11-07 14:42:35.210598308
2025-11-07 14:42:33.621940,-2817,2025-11-07 14:42:35.218290615
2025-11-07 14:42:33.621940,-1,2025-11-07 14:42:35.225982923
2025-11-07 14:42:33.621940,-17,2025-11-07 14:42:35.233675231
2025-11-07 14:42:33.621940,-3329,2025-11-07 14:42:35.241367538
2025-11-07 14:42:33.621940,-1,2025-11-07 14:42:35.249059846
2025-11-07 14:42:33.621940,-2,2025-11-07 14:42:35.256752154
2025-11-07 14:42:33.621940,255,2025-11-07 14:42:35.264444462
2025-11-07 14:42:33.621940,0,2025-11-07 14:42:35.272136769
2025-11-07 14:42:33.621940,-4,2025-11-07 14:42:35.279829077
2025-11-07 14:42:33.621940,255,2025-11-07 14:42:35.287521385
2025-11-07 14:42:33.621940,0,2025-11-07 14:42:35.295213692
2025-11-07 14:42:33.621940,0,2025-11-07 14:42:35.302906000
2025-11-07 14:42:33.621940,512,2025-11-07 14:42:35.310598308
2025-11-07 14:42:33.621940,0,2025-11-07 14:42:35.318290615
2025-11-07 14:42:33.621940,9,2025-11-07 14:42:35.325982923
2025-11-07 14:42:33.621940,2304,2025-11-07 14:42:35.333675231
2025-11-07 14:42:33.621940,0,2025-11-07 14:42:35.341367538
2025-11-07 14:42:33.621940,7,2025-11-07 14:42:35.349059846
2025-11-07 14:42:34.250397,12,2025-11-07 14:42:35.356752154
2025-11-07 14:42:34.250397,4864,2025-11-07 14:42:35.364444462
2025-11-07 14:42:34.250397,0,2025-11-07 14:42:35.372136769
2025-11-07 14:42:34.250397,24,2025-11-07 14:42:35.379829077
2025-11-07 14:42:34.250397,8704,2025-11-07 14:42:35.387521385
2025-11-07 14:42:34.250397,0,2025-11-07 14:42:35.395213692
2025-11-07 14:42:34.250397,43,2025-11-07 14:42:35.402906000
2025-11-07 14:42:34.250397,9216,2025-11-07 14:42:35.410598308
2025-11-07 14:42:34.250397,0,2025-11-07 14:42:35.418290615
2025-11-07 14:42:34.250397,34,2025-11-07 14:42:35.425982923
2025-11-07 14:42:34.250397,9728,2025-11-07 14:42:35.433675231
2025-11-07 14:42:34.250397,0,2025-11-07 14:42:35.441367538
2025-11-07 14:42:34.250397,36,2025-11-07 14:42:35.449059846
2025-11-07 14:42:34.250397,9216,2025-11-07 14:42:35.456752154
2025-11-07 14:42:34.250397,0,2025-11-07 14:42:35.464444462
2025-11-07 14:42:34.250397,38,2025-11-07 14:42:35.472136769
2025-11-07 14:42:34.250397,10496,2025-11-07 14:42:35.479829077
2025-11-07 14:42:34.250397,0,2025-11-07 14:42:35.487521385
2025-11-07 14:42:34.250397,38,2025-11-07 14:42:35.495213692
2025-11-07 14:42:34.250397,9216,2025-11-07 14:42:35.502906000
2025-11-07 14:42:34.250397,0,2025-11-07 14:42:35.510598308
2025-11-07 14:42:34.250397,34,2025-11-07 14:42:35.518290615
2025-11-07 14:42:34.250397,10496,2025-11-07 14:42:35.525982923
2025-11-07 14:42:34.250397,0,2025-11-07 14:42:35.533675230
2025-11-07 14:42:34.250397,43,2025-11-07 14:42:35.541367538
2025-11-07 14:42:34.250397,11776,2025-11-07 14:42:35.549059846
2025-11-07 14:42:34.250397,0,2025-11-07 14:42:35.556752154
2025-11-07 14:42:34.250397,48,2025-11-07 14:42:35.564444462
2025-11-07 14:42:34.250397,12288,2025-11-07 14:42:35.572136769
2025-11-07 14:42:34.250397,0,2025-11-07 14:42:35.579829077
2025-11-07 14:42:34.250397,51,2025-11-07 14:42:35.587521385
2025-11-07 14:42:34.250397,11008,2025-11-07 14:42:35.595213692
2025-11-07 14:42:34.250397,0,2025-11-07 14:42:35.602906000
2025-11-07 14:42:34.250397,31,2025-11-07 14:42:35.610598308
2025-11-07 14:42:34.250397,7424,2025-11-07 14:42:35.618290615
2025-11-07 14:42:34.250397,0,2025-11-07 14:42:35.625982923
2025-11-07 14:42:34.250397,29,2025-11-07 14:42:35.633675231
2025-11-07 14:42:34.250397,6144,2025-11-07 14:42:35.641367538
2025-11-07 14:42:34.250397,0,2025-11-07 14:42:35.649059846
2025-11-07 14:42:34.250397,24,2025-11-07 14:42:35.656752154
2025-11-07 14:42:34.250397,7936,2025-11-07 14:42:35.664444462
2025-11-07 14:42:34.250397,0,2025-11-07 14:42:35.672136769
2025-11-07 14:42:34.250397,53,2025-11-07 14:42:35.679829077
2025-11-07 14:42:34.250397,19712,2025-11-07 14:42:35.687521385
2025-11-07 14:42:34.250397,0,2025-11-07 14:42:35.695213692
2025-11-07 14:42:34.250397,92,2025-11-07 14:42:35.702906000
2025-11-07 14:42:34.250397,20480,2025-11-07 14:42:35.710598308
2025-11-07 14:42:34.250397,0,2025-11-07 14:42:35.718290615
2025-11-07 14:42:34.250397,58,2025-11-07 14:42:35.725982923
2025-11-07 14:42:34.250397,14848,2025-11-07 14:42:35.733675231
2025-11-07 14:42:34.250397,0,2025-11-07 14:42:35.741367538
2025-11-07 14:42:34.250397,65,2025-11-07 14:42:35.749059846
2025-11-07 14:42:34.250397,16128,2025-11-07 14:42:35.756752154
2025-11-07 14:42:34.250397,0,2025-11-07 14:42:35.764444462
2025-11-07 14:42:34.250397,53,2025-11-07 14:42:35.772136769
2025-11-07 14:42:34.250397,6144,2025-11-07 14:42:35.779829077
2025-11-07 14:42:34.250397,0,2025-11-07 14:42:35.787521385
2025-11-07 14:42:34.250397,14,2025-11-07 14:42:35.795213692
2025-11-07 14:42:34.250397,-2048,2025-11-07 14:42:35.802906000
2025-11-07 14:42:34.250397,0,2025-11-07 14:42:35.810598308
2025-11-07 14:42:34.250397,878,2025-11-07 14:42:35.818290615
2025-11-07 14:42:34.250397,24832,2025-11-07 14:42:35.825982923
2025-11-07 14:42:34.250397,5,2025-11-07 14:42:35.833675231
2025-11-07 14:42:34.250397,1092,2025-11-07 14:42:35.841367538
2025-11-07 14:42:34.250397,-9216,2025-11-07 14:42:35.849059846
2025-11-07 14:42:34.250397,1,2025-11-07 14:42:35.856752154
2025-11-07 14:42:34.250397,216,2025-11-07 14:42:35.864444462
2025-11-07 14:42:34.250397,30976,2025-11-07 14:42:35.872136769
2025-11-07 14:42:34.250397,0,2025-11-07 14:42:35.879829077
2025-11-07 14:42:34.250397,-34,2025-11-07 14:42:35.887521385
2025-11-07 14:42:34.250397,-22785,2025-11-07 14:42:35.895213692
2025-11-07 14:42:34.250397,-1,2025-11-07 14:42:35.902906000
2025-11-07 14:42:34.250397,-55,2025-11-07 14:42:35.910598308
2025-11-07 14:42:34.250397,-16385,2025-11-07 14:42:35.918290615
2025-11-07 14:42:34.250397,-1,2025-11-07 14:42:35.925982923
2025-11-07 14:42:34.250397,-85,2025-11-07 14:42:35.933675231
2025-11-07 14:42:34.250397,-16385,2025-11-07 14:42:35.941367538
2025-11-07 14:42:34.250397,-1,2025-11-07 14:42:35.949059846
2025-11-07 14:42:34.250397,-51,2025-11-07 14:42:35.956752154
2025-11-07 14:42:34.250397,-12801,2025-11-07 14:42:35.964444462
2025-11-07 14:42:34.250397,-1,2025-11-07 14:42:35.972136769
2025-11-07 14:42:34.250397,-34,2025-11-07 14:42:35.979829077
2025-11-07 14:42:34.250397,-5121,2025-11-07 14:42:35.987521385
2025-11-07 14:42:34.250397,-1,2025-11-07 14:42:35.995213692
2025-11-07 14:42:34.250397,-26,2025-11-07 14:42:36.002906000
2025-11-07 14:42:34.250397,-5121,2025-11-07 14:42:36.010598308
2025-11-07 14:42:34.250397,-1,2025-11-07 14:42:36.018290615
2025-11-07 14:42:34.250397,-2,2025-11-07 14:42:36.025982923
2025-11-07 14:42:34.250397,2047,2025-11-07 14:42:36.033675231
2025-11-07 14:42:34.250397,0,2025-11-07 14:42:36.041367538
2025-11-07 14:42:34.250397,9,2025-11-07 14:42:36.049059846
2025-11-07 14:42:34.250397,6144,2025-11-07 14:42:36.056752154
2025-11-07 14:42:34.250397,0,2025-11-07 14:42:36.064444462
2025-11-07 14:42:34.250397,48,2025-11-07 14:42:36.072136769
2025-11-07 14:42:34.250397,18432,2025-11-07 14:42:36.079829077
2025-11-07 14:42:34.250397,0,2025-11-07 14:42:36.087521385
2025-11-07 14:42:34.250397,90,2025-11-07 14:42:36.095213692
2025-11-07 14:42:34.250397,25344,2025-11-07 14:42:36.102906000
2025-11-07 14:42:34.250397,0,2025-11-07 14:42:36.110598308
2025-11-07 14:42:34.250397,111,2025-11-07 14:42:36.118290615
2025-11-07 14:42:34.250397,30976,2025-11-07 14:42:36.125982923
2025-11-07 14:42:34.250397,0,2025-11-07 14:42:36.133675231
2025-11-07 14:42:34.250397,121,2025-11-07 14:42:36.141367538
2025-11-07 14:42:34.250397,27904,2025-11-07 14:42:36.149059846
2025-11-07 14:42:34.250397,0,2025-11-07 14:42:36.156752154
2025-11-07 14:42:34.250397,82,2025-11-07 14:42:36.164444462
2025-11-07 14:42:34.250397,9728,2025-11-07 14:42:36.172136769
2025-11-07 14:42:34.250397,0,2025-11-07 14:42:36.179829077
2025-11-07 14:42:34.250397,-2,2025-11-07 14:42:36.187521385
2025-11-07 14:42:34.790235,-36,2025-11-07 14:42:36.195213692
2025-11-07 14:42:34.790235,-14593,2025-11-07 14:42:36.202906000
2025-11-07 14:42:34.790235,-1,2025-11-07 14:42:36.210598308
2025-11-07 14:42:34.790235,-63,2025-11-07 14:42:36.218290615
2025-11-07 14:42:34.790235,-17153,2025-11-07 14:42:36.225982923
2025-11-07 14:42:34.790235,-1,2025-11-07 14:42:36.233675231
2025-11-07 14:42:34.790235,-72,2025-11-07 14:42:36.241367538
2025-11-07 14:42:34.790235,-17153,2025-11-07 14:42:36.249059846
2025-11-07 14:42:34.790235,-1,2025-11-07 14:42:36.256752154
2025-11-07 14:42:34.790235,-63,2025-11-07 14:42:36.264444462
2025-11-07 14:42:34.790235,-15873,2025-11-07 14:42:36.272136769
2025-11-07 14:42:34.790235,-1,2025-11-07 14:42:36.279829077
2025-11-07 14:42:34.790235,-63,2025-11-07 14:42:36.287521385
2025-11-07 14:42:34.790235,-13825,2025-11-07 14:42:36.295213692
2025-11-07 14:42:34.790235,-1,2025-11-07 14:42:36.302906000
2025-11-07 14:42:34.790235,-51,2025-11-07 14:42:36.310598308
2025-11-07 14:42:34.790235,-12801,2025-11-07 14:42:36.318290615
2025-11-07 14:42:34.790235,-1,2025-11-07 14:42:36.325982923
2025-11-07 14:42:34.790235,-34,2025-11-07 14:42:36.333675231
2025-11-07 14:42:34.790235,-5121,2025-11-07 14:42:36.341367538
2025-11-07 14:42:34.790235,-1,2025-11-07 14:42:36.349059846
2025-11-07 14:42:34.790235,-24,2025-11-07 14:42:36.356752154
2025-11-07 14:42:34.790235,-6401,2025-11-07 14:42:36.364444462
2025-11-07 14:42:34.790235,-1,2025-11-07 14:42:36.372136769
2025-11-07 14:42:34.790235,-21,2025-11-07 14:42:36.379829077
2025-11-07 14:42:34.790235,-5121,2025-11-07 14:42:36.387521385
2025-11-07 14:42:34.790235,-1,2025-11-07 14:42:36.395213692
2025-11-07 14:42:34.790235,-19,2025-11-07 14:42:36.402906000
2025-11-07 14:42:34.790235,-4097,2025-11-07 14:42:36.410598308
2025-11-07 14:42:34.790235,-1,2025-11-07 14:42:36.418290615
2025-11-07 14:42:34.790235,-12,2025-11-07 14:42:36.425982923
2025-11-07 14:42:34.790235,-3329,2025-11-07 14:42:36.433675231
2025-11-07 14:42:34.790235,-1,2025-11-07 14:42:36.441367538
2025-11-07 14:42:34.790235,-12,2025-11-07 14:42:36.449059846
2025-11-07 14:42:34.790235,-1537,2025-11-07 14:42:36.456752154
2025-11-07 14:42:34.790235,-1,2025-11-07 14:42:36.464444462
2025-11-07 14:42:34.790235,-4,2025-11-07 14:42:36.472136769
2025-11-07 14:42:34.790235,-2049,2025-11-07 14:42:36.479829077
2025-11-07 14:42:34.790235,-1,2025-11-07 14:42:36.487521385
2025-11-07 14:42:34.790235,-9,2025-11-07 14:42:36.495213692
2025-11-07 14:42:34.790235,-1537,2025-11-07 14:42:36.502906000
2025-11-07 14:42:34.790235,-1,2025-11-07 14:42:36.510598308
2025-11-07 14:42:34.790235,-4,2025-11-07 14:42:36.518290615
2025-11-07 14:42:34.790235,-1537,2025-11-07 14:42:36.525982923
2025-11-07 14:42:34.790235,-1,2025-11-07 14:42:36.533675230
2025-11-07 14:42:34.790235,-7,2025-11-07 14:42:36.541367538
2025-11-07 14:42:34.790235,-257,2025-11-07 14:42:36.549059846
2025-11-07 14:42:34.790235,-1,2025-11-07 14:42:36.556752154
2025-11-07 14:42:34.790235,0,2025-11-07 14:42:36.564444462
2025-11-07 14:42:34.790235,-1024,2025-11-07 14:42:36.572136769
2025-11-07 14:42:34.790235,-1,2025-11-07 14:42:36.579829077
2025-11-07 14:42:34.790235,-9,2025-11-07 14:42:36.587521385
2025-11-07 14:42:34.790235,-257,2025-11-07 14:42:36.595213692
2025-11-07 14:42:34.790235,-1,2025-11-07 14:42:36.602906000
2025-11-07 14:42:34.790235,2,2025-11-07 14:42:36.610598308
2025-11-07 14:42:34.790235,-512,2025-11-07 14:42:36.618290615
2025-11-07 14:42:34.790235,-1,2025-11-07 14:42:36.625982923
2025-11-07 14:42:34.790235,-2,2025-11-07 14:42:36.633675231
2025-11-07 14:42:34.790235,-257,2025-11-07 14:42:36.641367538
2025-11-07 14:42:34.790235,-1,2025-11-07 14:42:36.649059846
2025-11-07 14:42:34.790235,-2,2025-11-07 14:42:36.656752154
2025-11-07 14:42:34.790235,255,2025-11-07 14:42:36.664444462
2025-11-07 14:42:34.790235,0,2025-11-07 14:42:36.672136769
2025-11-07 14:42:34.790235,2,2025-11-07 14:42:36.679829077
2025-11-07 14:42:34.790235,0,2025-11-07 14:42:36.687521385
2025-11-07 14:42:34.790235,0,2025-11-07 14:42:36.695213692
2025-11-07 14:42:34.790235,-7,2025-11-07 14:42:36.702906000
2025-11-07 14:42:34.790235,-4097,2025-11-07 14:42:36.710598308
2025-11-07 14:42:34.790235,-1,2025-11-07 14:42:36.718290615
2025-11-07 14:42:34.790235,-21,2025-11-07 14:42:36.725982923
2025-11-07 14:42:34.790235,-6401,2025-11-07 14:42:36.733675231
2025-11-07 14:42:34.790235,-1,2025-11-07 14:42:36.741367538
2025-11-07 14:42:34.790235,-31,2025-11-07 14:42:36.749059846
2025-11-07 14:42:34.790235,-7169,2025-11-07 14:42:36.756752154
2025-11-07 14:42:34.790235,-1,2025-11-07 14:42:36.764444462
2025-11-07 14:42:34.790235,-7,2025-11-07 14:42:36.772136769
2025-11-07 14:42:34.790235,5119,2025-11-07 14:42:36.779829077
2025-11-07 14:42:34.790235,0,2025-11-07 14:42:36.787521385
2025-11-07 14:42:34.790235,34,2025-11-07 14:42:36.795213692
2025-11-07 14:42:34.790235,7424,2025-11-07 14:42:36.802906000
2025-11-07 14:42:34.790235,0,2025-11-07 14:42:36.810598308
2025-11-07 14:42:34.790235,12,2025-11-07 14:42:36.818290615
2025-11-07 14:42:34.790235,1792,2025-11-07 14:42:36.825982923
2025-11-07 14:42:34.790235,0,2025-11-07 14:42:36.833675231
2025-11-07 14:42:34.790235,14,2025-11-07 14:42:36.841367538
2025-11-07 14:42:34.790235,4352,2025-11-07 14:42:36.849059846
2025-11-07 14:42:34.790235,0,2025-11-07 14:42:36.856752154
2025-11-07 14:42:34.790235,9,2025-11-07 14:42:36.864444462
2025-11-07 14:42:34.790235,-1024,2025-11-07 14:42:36.872136769
2025-11-07 14:42:34.790235,-1,2025-11-07 14:42:36.879829077
2025-11-07 14:42:34.790235,-48,2025-11-07 14:42:36.887521385
2025-11-07 14:42:34.790235,-9473,2025-11-07 14:42:36.895213692
2025-11-07 14:42:34.790235,-1,2025-11-07 14:42:36.902906000
2025-11-07 14:42:34.790235,323,2025-11-07 14:42:36.910598308
2025-11-07 14:42:34.790235,11264,2025-11-07 14:42:36.918290615
2025-11-07 14:42:34.790235,4,2025-11-07 14:42:36.925982923
2025-11-07 14:42:34.790235,1457,2025-11-07 14:42:36.933675231
2025-11-07 14:42:34.790235,-4352,2025-11-07 14:42:36.941367538
2025-11-07 14:42:34.790235,3,2025-11-07 14:42:36.949059846
2025-11-07 14:42:34.790235,377,2025-11-07 14:42:36.956752154
2025-11-07 14:42:34.790235,32256,2025-11-07 14:42:36.964444462
2025-11-07 14:42:34.790235,0,2025-11-07 14:42:36.972136769
2025-11-07 14:42:34.790235,9,2025-11-07 14:42:36.979829077
2025-11-07 14:42:34.790235,-29696,2025-11-07 14:42:36.987521385
2025-11-07 14:42:34.790235,-1,2025-11-07 14:42:36.995213692
2025-11-07 14:42:34.790235,-143,2025-11-07 14:42:37.002906000
2025-11-07 14:42:34.790235,-31489,2025-11-07 14:42:37.010598308
2025-11-07 14:42:34.790235,-1,2025-11-07 14:42:37.018290615
2025-11-07 14:42:34.790235,-138,2025-11-07 14:42:37.025982923
2025-11-07 14:42:35.330742,-145,2025-11-07 14:42:37.033675231
2025-11-07 14:42:35.330742,-32513,2025-11-07 14:42:37.041367538
2025-11-07 14:42:35.330742,-1,2025-11-07 14:42:37.049059846
2025-11-07 14:42:35.330742,-119,2025-11-07 14:42:37.056752154
2025-11-07 14:42:35.330742,-28929,2025-11-07 14:42:37.064444462
2025-11-07 14:42:35.330742,-1,2025-11-07 14:42:37.072136769
2025-11-07 14:42:35.330742,-102,2025-11-07 14:42:37.079829077
2025-11-07 14:42:35.330742,-24577,2025-11-07 14:42:37.087521385
2025-11-07 14:42:35.330742,-1,2025-11-07 14:42:37.095213692
2025-11-07 14:42:35.330742,-90,2025-11-07 14:42:37.102906000
2025-11-07 14:42:35.330742,-18945,2025-11-07 14:42:37.110598308
2025-11-07 14:42:35.330742,-1,2025-11-07 14:42:37.118290615
2025-11-07 14:42:35.330742,-60,2025-11-07 14:42:37.125982923
2025-11-07 14:42:35.330742,-10753,2025-11-07 14:42:37.133675231
2025-11-07 14:42:35.330742,-1,2025-11-07 14:42:37.141367538
2025-11-07 14:42:35.330742,-26,2025-11-07 14:42:37.149059846
2025-11-07 14:42:35.330742,-4609,2025-11-07 14:42:37.156752154
2025-11-07 14:42:35.330742,-1,2025-11-07 14:42:37.164444462
2025-11-07 14:42:35.330742,-4,2025-11-07 14:42:37.172136769
2025-11-07 14:42:35.330742,5119,2025-11-07 14:42:37.179829077
2025-11-07 14:42:35.330742,0,2025-11-07 14:42:37.187521385
2025-11-07 14:42:35.330742,34,2025-11-07 14:42:37.195213692
2025-11-07 14:42:35.330742,11776,2025-11-07 14:42:37.202906000
2025-11-07 14:42:35.330742,0,2025-11-07 14:42:37.210598308
2025-11-07 14:42:35.330742,53,2025-11-07 14:42:37.218290615
2025-11-07 14:42:35.330742,14848,2025-11-07 14:42:37.225982923
2025-11-07 14:42:35.330742,0,2025-11-07 14:42:37.233675231
2025-11-07 14:42:35.330742,55,2025-11-07 14:42:37.241367538
2025-11-07 14:42:35.330742,10496,2025-11-07 14:42:37.249059846
2025-11-07 14:42:35.330742,0,2025-11-07 14:42:37.256752154
2025-11-07 14:42:35.330742,9,2025-11-07 14:42:37.264444462
2025-11-07 14:42:35.330742,-9216,2025-11-07 14:42:37.272136769
2025-11-07 14:42:35.330742,-1,2025-11-07 14:42:37.279829077
2025-11-07 14:42:35.330742,-75,2025-11-07 14:42:37.287521385
2025-11-07 14:42:35.330742,-25089,2025-11-07 14:42:37.295213692
2025-11-07 14:42:35.330742,-1,2025-11-07 14:42:37.302906000
2025-11-07 14:42:35.330742,-114,2025-11-07 14:42:37.310598308
2025-11-07 14:42:35.330742,-30209,2025-11-07 14:42:37.318290615
2025-11-07 14:42:35.330742,-1,2025-11-07 14:42:37.325982923
2025-11-07 14:42:35.330742,-116,2025-11-07 14:42:37.333675231
2025-11-07 14:42:35.330742,-28929,2025-11-07 14:42:37.341367538
2025-11-07 14:42:35.330742,-1,2025-11-07 14:42:37.349059846
2025-11-07 14:42:35.330742,-111,2025-11-07 14:42:37.356752154
2025-11-07 14:42:35.330742,-27649,2025-11-07 14:42:37.364444462
2025-11-07 14:42:35.330742,-1,2025-11-07 14:42:37.372136769
2025-11-07 14:42:35.330742,-104,2025-11-07 14:42:37.379829077
2025-11-07 14:42:35.330742,-25857,2025-11-07 14:42:37.387521385
2025-11-07 14:42:35.330742,-1,2025-11-07 14:42:37.395213692
2025-11-07 14:42:35.330742,-99,2025-11-07 14:42:37.402906000
2025-11-07 14:42:35.330742,-24577,2025-11-07 14:42:37.410598308
2025-11-07 14:42:35.330742,-1,2025-11-07 14:42:37.418290615
2025-11-07 14:42:35.330742,-94,2025-11-07 14:42:37.425982923
2025-11-07 14:42:35.330742,-22785,2025-11-07 14:42:37.433675231
2025-11-07 14:42:35.330742,-1,2025-11-07 14:42:37.441367538
2025-11-07 14:42:35.330742,-85,2025-11-07 14:42:37.449059846
2025-11-07 14:42:35.330742,-20737,2025-11-07 14:42:37.456752154
2025-11-07 14:42:35.330742,-1,2025-11-07 14:42:37.464444462
2025-11-07 14:42:35.330742,-80,2025-11-07 14:42:37.472136769
2025-11-07 14:42:35.330742,-18945,2025-11-07 14:42:37.479829077
2025-11-07 14:42:35.330742,-1,2025-11-07 14:42:37.487521385
2025-11-07 14:42:35.330742,-72,2025-11-07 14:42:37.495213692
2025-11-07 14:42:35.330742,-17665,2025-11-07 14:42:37.502906000
2025-11-07 14:42:35.330742,-1,2025-11-07 14:42:37.510598308
2025-11-07 14:42:35.330742,-68,2025-11-07 14:42:37.518290615
2025-11-07 14:42:35.330742,-15873,2025-11-07 14:42:37.525982923
2025-11-07 14:42:35.330742,-1,2025-11-07 14:42:37.533675230
2025-11-07 14:42:35.330742,-60,2025-11-07 14:42:37.541367538
2025-11-07 14:42:35.330742,-13825,2025-11-07 14:42:37.549059846
2025-11-07 14:42:35.330742,-1,2025-11-07 14:42:37.556752154
2025-11-07 14:42:35.330742,-51,2025-11-07 14:42:37.564444462
2025-11-07 14:42:35.330742,-12801,2025-11-07 14:42:37.572136769
2025-11-07 14:42:35.330742,-1,2025-11-07 14:42:37.579829077
2025-11-07 14:42:35.330742,-51,2025-11-07 14:42:37.587521385
2025-11-07 14:42:35.330742,-11521,2025-11-07 14:42:37.595213692
2025-11-07 14:42:35.330742,-1,2025-11-07 14:42:37.602906000
2025-11-07 14:42:35.330742,-43,2025-11-07 14:42:37.610598308
2025-11-07 14:42:35.330742,-10241,2025-11-07 14:42:37.618290615
2025-11-07 14:42:35.330742,-1,2025-11-07 14:42:37.625982923
2025-11-07 14:42:35.330742,-41,2025-11-07 14:42:37.633675231
2025-11-07 14:42:35.330742,-10241,2025-11-07 14:42:37.641367538
2025-11-07 14:42:35.330742,-1,2025-11-07 14:42:37.649059846
2025-11-07 14:42:35.330742,-34,2025-11-07 14:42:37.656752154
2025-11-07 14:42:35.330742,-8449,2025-11-07 14:42:37.664444462
2025-11-07 14:42:35.330742,-1,2025-11-07 14:42:37.672136769
2025-11-07 14:42:35.330742,-34,2025-11-07 14:42:37.679829077
2025-11-07 14:42:35.330742,-8449,2025-11-07 14:42:37.687521385
2025-11-07 14:42:35.330742,-1,2025-11-07 14:42:37.695213692
2025-11-07 14:42:35.330742,-31,2025-11-07 14:42:37.702906000
2025-11-07 14:42:35.330742,-7169,2025-11-07 14:42:37.710598308
2025-11-07 14:42:35.330742,-1,2025-11-07 14:42:37.718290615
2025-11-07 14:42:35.330742,-29,2025-11-07 14:42:37.725982923
2025-11-07 14:42:35.330742,-6401,2025-11-07 14:42:37.733675231
2025-11-07 14:42:35.330742,-1,2025-11-07 14:42:37.741367538
2025-11-07 14:42:35.330742,-26,2025-11-07 14:42:37.749059846
2025-11-07 14:42:35.330742,-6401,2025-11-07 14:42:37.756752154
2025-11-07 14:42:35.330742,-1,2025-11-07 14:42:37.764444462
2025-11-07 14:42:35.330742,-26,2025-11-07 14:42:37.772136769
2025-11-07 14:42:35.330742,-5889,2025-11-07 14:42:37.779829077
2025-11-07 14:42:35.330742,-1,2025-11-07 14:42:37.787521385
2025-11-07 14:42:35.330742,-29,2025-11-07 14:42:37.795213692
2025-11-07 14:42:35.330742,-10241,2025-11-07 14:42:37.802906000
2025-11-07 14:42:35.330742,-1,2025-11-07 14:42:37.810598308
2025-11-07 14:42:35.330742,-48,2025-11-07 14:42:37.818290615
2025-11-07 14:42:35.330742,-11521,2025-11-07 14:42:37.825982923
2025-11-07 14:42:35.330742,-1,2025-11-07 14:42:37.833675231
2025-11-07 14:42:35.330742,-51,2025-11-07 14:42:37.841367538
2025-11-07 14:42:35.330742,-13825,2025-11-07 14:42:37.849059846
2025-11-07 14:42:35.330742,-1,2025-11-07 14:42:37.856752154
2025-11-07 14:42:35.330742,-36,2025-11-07 14:42:37.864444462
2025-11-07 14:42:35.915878,-9,2025-11-07 14:42:37.872136769
2025-11-07 14:42:35.915878,3839,2025-11-07 14:42:37.879829077
2025-11-07 14:42:35.915878,0,2025-11-07 14:42:37.887521385
2025-11-07 14:42:35.915878,21,2025-11-07 14:42:37.895213692
2025-11-07 14:42:35.915878,0,2025-11-07 14:42:37.902906000
2025-11-07 14:42:35.915878,0,2025-11-07 14:42:37.910598308
2025-11-07 14:42:35.915878,-9,2025-11-07 14:42:37.918290615
2025-11-07 14:42:35.915878,1279,2025-11-07 14:42:37.925982923
2025-11-07 14:42:35.915878,0,2025-11-07 14:42:37.933675231
2025-11-07 14:42:35.915878,17,2025-11-07 14:42:37.941367538
2025-11-07 14:42:35.915878,5376,2025-11-07 14:42:37.949059846
2025-11-07 14:42:35.915878,0,2025-11-07 14:42:37.956752154
2025-11-07 14:42:35.915878,4,2025-11-07 14:42:37.964444462
2025-11-07 14:42:35.915878,-12288,2025-11-07 14:42:37.972136769
2025-11-07 14:42:35.915878,-1,2025-11-07 14:42:37.979829077
2025-11-07 14:42:35.915878,-41,2025-11-07 14:42:37.987521385
2025-11-07 14:42:35.915878,23039,2025-11-07 14:42:37.995213692
2025-11-07 14:42:35.915878,1,2025-11-07 14:42:38.002906000
2025-11-07 14:42:35.915878,1155,2025-11-07 14:42:38.010598308
2025-11-07 14:42:35.915878,17664,2025-11-07 14:42:38.018290615
2025-11-07 14:42:35.915878,6,2025-11-07 14:42:38.025982923
2025-11-07 14:42:35.915878,1158,2025-11-07 14:42:38.033675231
2025-11-07 14:42:35.915878,-14592,2025-11-07 14:42:38.041367538
2025-11-07 14:42:35.915878,1,2025-11-07 14:42:38.049059846
2025-11-07 14:42:35.915878,119,2025-11-07 14:42:38.056752154
2025-11-07 14:42:35.915878,-2304,2025-11-07 14:42:38.064444462
2025-11-07 14:42:35.915878,-1,2025-11-07 14:42:38.072136769
2025-11-07 14:42:35.915878,-119,2025-11-07 14:42:38.079829077
2025-11-07 14:42:35.915878,26623,2025-11-07 14:42:38.087521385
2025-11-07 14:42:35.915878,-1,2025-11-07 14:42:38.095213692
2025-11-07 14:42:35.915878,-138,2025-11-07 14:42:38.102906000
2025-11-07 14:42:35.915878,27903,2025-11-07 14:42:38.110598308
2025-11-07 14:42:35.915878,-1,2025-11-07 14:42:38.118290615
2025-11-07 14:42:35.915878,-155,2025-11-07 14:42:38.125982923
2025-11-07 14:42:35.915878,29695,2025-11-07 14:42:38.133675231
2025-11-07 14:42:35.915878,-1,2025-11-07 14:42:38.141367538
2025-11-07 14:42:35.915878,-131,2025-11-07 14:42:38.149059846
2025-11-07 14:42:35.915878,-30721,2025-11-07 14:42:38.156752154
2025-11-07 14:42:35.915878,-1,2025-11-07 14:42:38.164444462
2025-11-07 14:42:35.915878,-111,2025-11-07 14:42:38.172136769
2025-11-07 14:42:35.915878,-26369,2025-11-07 14:42:38.179829077
2025-11-07 14:42:35.915878,-1,2025-11-07 14:42:38.187521385
2025-11-07 14:42:35.915878,-97,2025-11-07 14:42:38.195213692
2025-11-07 14:42:35.915878,-22017,2025-11-07 14:42:38.202906000
2025-11-07 14:42:35.915878,-1,2025-11-07 14:42:38.210598308
2025-11-07 14:42:35.915878,-72,2025-11-07 14:42:38.218290615
2025-11-07 14:42:35.915878,-15873,2025-11-07 14:42:38.225982923
2025-11-07 14:42:35.915878,-1,2025-11-07 14:42:38.233675231
2025-11-07 14:42:35.915878,-53,2025-11-07 14:42:38.241367538
2025-11-07 14:42:35.915878,-10241,2025-11-07 14:42:38.249059846
2025-11-07 14:42:35.915878,-1,2025-11-07 14:42:38.256752154
2025-11-07 14:42:35.915878,-26,2025-11-07 14:42:38.264444462
2025-11-07 14:42:35.915878,-1537,2025-11-07 14:42:38.272136769
2025-11-07 14:42:35.915878,-1,2025-11-07 14:42:38.279829077
2025-11-07 14:42:35.915878,14,2025-11-07 14:42:38.287521385
2025-11-07 14:42:35.915878,7424,2025-11-07 14:42:38.295213692
2025-11-07 14:42:35.915878,0,2025-11-07 14:42:38.302906000
2025-11-07 14:42:35.915878,41,2025-11-07 14:42:38.310598308
2025-11-07 14:42:35.915878,12288,2025-11-07 14:42:38.318290615
2025-11-07 14:42:35.915878,0,2025-11-07 14:42:38.325982923
2025-11-07 14:42:35.915878,46,2025-11-07 14:42:38.333675231
2025-11-07 14:42:35.915878,8704,2025-11-07 14:42:38.341367538
2025-11-07 14:42:35.915878,0,2025-11-07 14:42:38.349059846
2025-11-07 14:42:35.915878,4,2025-11-07 14:42:38.356752154
2025-11-07 14:42:35.915878,-8704,2025-11-07 14:42:38.364444462
2025-11-07 14:42:35.915878,-1,2025-11-07 14:42:38.372136769
2025-11-07 14:42:35.915878,-72,2025-11-07 14:42:38.379829077
2025-11-07 14:42:35.915878,-25089,2025-11-07 14:42:38.387521385
2025-11-07 14:42:35.915878,-1,2025-11-07 14:42:38.395213692
2025-11-07 14:42:35.915878,-111,2025-11-07 14:42:38.402906000
2025-11-07 14:42:35.915878,-29441,2025-11-07 14:42:38.410598308
2025-11-07 14:42:35.915878,-1,2025-11-07 14:42:38.418290615
2025-11-07 14:42:35.915878,-116,2025-11-07 14:42:38.425982923
2025-11-07 14:42:35.915878,-29441,2025-11-07 14:42:38.433675231
2025-11-07 14:42:35.915878,-1,2025-11-07 14:42:38.441367538
2025-11-07 14:42:35.915878,-114,2025-11-07 14:42:38.449059846
2025-11-07 14:42:35.915878,-27137,2025-11-07 14:42:38.456752154
2025-11-07 14:42:35.915878,-1,2025-11-07 14:42:38.464444462
2025-11-07 14:42:35.915878,-102,2025-11-07 14:42:38.472136769
2025-11-07 14:42:35.915878,-25089,2025-11-07 14:42:38.479829077
2025-11-07 14:42:35.915878,-1,2025-11-07 14:42:38.487521385
2025-11-07 14:42:35.915878,-97,2025-11-07 14:42:38.495213692
2025-11-07 14:42:35.915878,-23809,2025-11-07 14:42:38.502906000
2025-11-07 14:42:35.915878,-1,2025-11-07 14:42:38.510598308
2025-11-07 14:42:35.915878,-90,2025-11-07 14:42:38.518290615
2025-11-07 14:42:35.915878,-21505,2025-11-07 14:42:38.525982923
2025-11-07 14:42:35.915878,-1,2025-11-07 14:42:38.533675230
2025-11-07 14:42:35.915878,-80,2025-11-07 14:42:38.541367538
2025-11-07 14:42:35.915878,-18177,2025-11-07 14:42:38.549059846
2025-11-07 14:42:35.915878,-1,2025-11-07 14:42:38.556752154
2025-11-07 14:42:35.915878,-68,2025-11-07 14:42:38.564444462
2025-11-07 14:42:35.915878,-15105,2025-11-07 14:42:38.572136769
2025-11-07 14:42:35.915878,-1,2025-11-07 14:42:38.579829077
2025-11-07 14:42:35.915878,-58,2025-11-07 14:42:38.587521385
2025-11-07 14:42:35.915878,-14593,2025-11-07 14:42:38.595213692
2025-11-07 14:42:35.915878,-1,2025-11-07 14:42:38.602906000
2025-11-07 14:42:35.915878,-55,2025-11-07 14:42:38.610598308
2025-11-07 14:42:35.915878,-12801,2025-11-07 14:42:38.618290615
2025-11-07 14:42:35.915878,-1,2025-11-07 14:42:38.625982923
2025-11-07 14:42:35.915878,-46,2025-11-07 14:42:38.633675231
2025-11-07 14:42:35.915878,-10753,2025-11-07 14:42:38.641367538
2025-11-07 14:42:35.915878,-1,2025-11-07 14:42:38.649059846
2025-11-07 14:42:35.915878,-41,2025-11-07 14:42:38.656752154
2025-11-07 14:42:35.915878,-8449,2025-11-07 14:42:38.664444462
2025-11-07 14:42:35.915878,-1,2025-11-07 14:42:38.672136769
2025-11-07 14:42:35.915878,-31,2025-11-07 14:42:38.679829077
2025-11-07 14:42:35.915878,-7169,2025-11-07 14:42:38.687521385
2025-11-07 14:42:35.915878,-1,2025-11-07 14:42:38.695213692
2025-11-07 14:42:35.915878,-26,2025-11-07 14:42:38.702906000
2025-11-07 14:42:36.456390,-26,2025-11-07 14:42:38.710598308
2025-11-07 14:42:36.456390,-6401,2025-11-07 14:42:38.718290615
2025-11-07 14:42:36.456390,-1,2025-11-07 14:42:38.725982923
2025-11-07 14:42:36.456390,-24,2025-11-07 14:42:38.733675231
2025-11-07 14:42:36.456390,-5121,2025-11-07 14:42:38.741367538
2025-11-07 14:42:36.456390,-1,2025-11-07 14:42:38.749059846
2025-11-07 14:42:36.456390,-17,2025-11-07 14:42:38.756752154
2025-11-07 14:42:36.456390,-4097,2025-11-07 14:42:38.764444462
2025-11-07 14:42:36.456390,-1,2025-11-07 14:42:38.772136769
2025-11-07 14:42:36.456390,-19,2025-11-07 14:42:38.779829077
2025-11-07 14:42:36.456390,-4097,2025-11-07 14:42:38.787521385
2025-11-07 14:42:36.456390,-1,2025-11-07 14:42:38.795213692
2025-11-07 14:42:36.456390,-17,2025-11-07 14:42:38.802906000
2025-11-07 14:42:36.456390,-2049,2025-11-07 14:42:38.810598308
2025-11-07 14:42:36.456390,-1,2025-11-07 14:42:38.818290615
2025-11-07 14:42:36.456390,0,2025-11-07 14:42:38.825982923
2025-11-07 14:42:36.456390,512,2025-11-07 14:42:38.833675231
2025-11-07 14:42:36.456390,0,2025-11-07 14:42:38.841367538
2025-11-07 14:42:36.456390,-12,2025-11-07 14:42:38.849059846
2025-11-07 14:42:36.456390,-6401,2025-11-07 14:42:38.856752154
2025-11-07 14:42:36.456390,-1,2025-11-07 14:42:38.864444462
2025-11-07 14:42:36.456390,-31,2025-11-07 14:42:38.872136769
2025-11-07 14:42:36.456390,-7681,2025-11-07 14:42:38.879829077
2025-11-07 14:42:36.456390,-1,2025-11-07 14:42:38.887521385
2025-11-07 14:42:36.456390,-36,2025-11-07 14:42:38.895213692
2025-11-07 14:42:36.456390,-7681,2025-11-07 14:42:38.902906000
2025-11-07 14:42:36.456390,-1,2025-11-07 14:42:38.910598308
2025-11-07 14:42:36.456390,-17,2025-11-07 14:42:38.918290615
2025-11-07 14:42:36.456390,2559,2025-11-07 14:42:38.925982923
2025-11-07 14:42:36.456390,0,2025-11-07 14:42:38.933675231
2025-11-07 14:42:36.456390,36,2025-11-07 14:42:38.941367538
2025-11-07 14:42:36.456390,7424,2025-11-07 14:42:38.949059846
2025-11-07 14:42:36.456390,0,2025-11-07 14:42:38.956752154
2025-11-07 14:42:36.456390,4,2025-11-07 14:42:38.964444462
2025-11-07 14:42:36.456390,1024,2025-11-07 14:42:38.972136769
2025-11-07 14:42:36.456390,0,2025-11-07 14:42:38.979829077
2025-11-07 14:42:36.456390,17,2025-11-07 14:42:38.987521385
2025-11-07 14:42:36.456390,3584,2025-11-07 14:42:38.995213692
2025-11-07 14:42:36.456390,0,2025-11-07 14:42:39.002906000
2025-11-07 14:42:36.456390,7,2025-11-07 14:42:39.010598308
2025-11-07 14:42:36.456390,-3072,2025-11-07 14:42:39.018290615
2025-11-07 14:42:36.456390,-1,2025-11-07 14:42:39.025982923
2025-11-07 14:42:36.456390,-60,2025-11-07 14:42:39.033675231
2025-11-07 14:42:36.456390,5119,2025-11-07 14:42:39.041367538
2025-11-07 14:42:36.456390,0,2025-11-07 14:42:39.049059846
2025-11-07 14:42:36.456390,545,2025-11-07 14:42:39.056752154
2025-11-07 14:42:36.456390,10496,2025-11-07 14:42:39.064444462
2025-11-07 14:42:36.456390,5,2025-11-07 14:42:39.072136769
2025-11-07 14:42:36.456390,1498,2025-11-07 14:42:39.079829077
2025-11-07 14:42:36.456390,32512,2025-11-07 14:42:39.087521385
2025-11-07 14:42:36.456390,3,2025-11-07 14:42:39.095213692
2025-11-07 14:42:36.456390,301,2025-11-07 14:42:39.102906000
2025-11-07 14:42:36.456390,19712,2025-11-07 14:42:39.110598308
2025-11-07 14:42:36.456390,0,2025-11-07 14:42:39.118290615
2025-11-07 14:42:36.456390,-43,2025-11-07 14:42:39.125982923
2025-11-07 14:42:36.456390,29183,2025-11-07 14:42:39.133675231
2025-11-07 14:42:36.456390,-1,2025-11-07 14:42:39.141367538
2025-11-07 14:42:36.456390,-150,2025-11-07 14:42:39.149059846
2025-11-07 14:42:36.456390,29695,2025-11-07 14:42:39.156752154
2025-11-07 14:42:36.456390,-1,2025-11-07 14:42:39.164444462
2025-11-07 14:42:36.456390,-153,2025-11-07 14:42:39.172136769
2025-11-07 14:42:36.456390,27903,2025-11-07 14:42:39.179829077
2025-11-07 14:42:36.456390,-1,2025-11-07 14:42:39.187521385
2025-11-07 14:42:36.456390,-131,2025-11-07 14:42:39.195213692
2025-11-07 14:42:36.456390,-31489,2025-11-07 14:42:39.202906000
2025-11-07 14:42:36.456390,-1,2025-11-07 14:42:39.210598308
2025-11-07 14:42:36.456390,-116,2025-11-07 14:42:39.218290615
2025-11-07 14:42:36.456390,-25857,2025-11-07 14:42:39.225982923
2025-11-07 14:42:36.456390,-1,2025-11-07 14:42:39.233675231
2025-11-07 14:42:36.456390,-90,2025-11-07 14:42:39.241367538
2025-11-07 14:42:36.456390,-21505,2025-11-07 14:42:39.249059846
2025-11-07 14:42:36.456390,-1,2025-11-07 14:42:39.256752154
2025-11-07 14:42:36.456390,-75,2025-11-07 14:42:39.264444462
2025-11-07 14:42:36.456390,-15873,2025-11-07 14:42:39.272136769
2025-11-07 14:42:36.456390,-1,2025-11-07 14:42:39.279829077
2025-11-07 14:42:36.456390,-51,2025-11-07 14:42:39.287521385
2025-11-07 14:42:36.456390,-8449,2025-11-07 14:42:39.295213692
2025-11-07 14:42:36.456390,-1,2025-11-07 14:42:39.302906000
2025-11-07 14:42:36.456390,-19,2025-11-07 14:42:39.310598308
2025-11-07 14:42:36.456390,-257,2025-11-07 14:42:39.318290615
2025-11-07 14:42:36.456390,-1,2025-11-07 14:42:39.325982923
2025-11-07 14:42:36.456390,19,2025-11-07 14:42:39.333675231
2025-11-07 14:42:36.456390,9728,2025-11-07 14:42:39.341367538
2025-11-07 14:42:36.456390,0,2025-11-07 14:42:39.349059846
2025-11-07 14:42:36.456390,53,2025-11-07 14:42:39.356752154
2025-11-07 14:42:36.456390,15360,2025-11-07 14:42:39.364444462
2025-11-07 14:42:36.456390,0,2025-11-07 14:42:39.372136769
2025-11-07 14:42:36.456390,65,2025-11-07 14:42:39.379829077
2025-11-07 14:42:36.456390,15360,2025-11-07 14:42:39.387521385
2025-11-07 14:42:36.456390,0,2025-11-07 14:42:39.395213692
2025-11-07 14:42:36.456390,41,2025-11-07 14:42:39.402906000
2025-11-07 14:42:36.456390,1024,2025-11-07 14:42:39.410598308
2025-11-07 14:42:36.456390,0,2025-11-07 14:42:39.418290615
2025-11-07 14:42:36.456390,-41,2025-11-07 14:42:39.425982923
2025-11-07 14:42:36.456390,-18945,2025-11-07 14:42:39.433675231
2025-11-07 14:42:36.456390,-1,2025-11-07 14:42:39.441367538
2025-11-07 14:42:36.456390,-92,2025-11-07 14:42:39.449059846
2025-11-07 14:42:36.456390,-27137,2025-11-07 14:42:39.456752154
2025-11-07 14:42:36.456390,-1,2025-11-07 14:42:39.464444462
2025-11-07 14:42:36.456390,-109,2025-11-07 14:42:39.472136769
2025-11-07 14:42:36.456390,-27137,2025-11-07 14:42:39.479829077
2025-11-07 14:42:36.456390,-1,2025-11-07 14:42:39.487521385
2025-11-07 14:42:36.456390,-104,2025-11-07 14:42:39.495213692
2025-11-07 14:42:36.456390,-25089,2025-11-07 14:42:39.502906000
2025-11-07 14:42:36.456390,-1,2025-11-07 14:42:39.510598308
2025-11-07 14:42:36.456390,-94,2025-11-07 14:42:39.518290615
2025-11-07 14:42:36.456390,-22785,2025-11-07 14:42:39.525982923
2025-11-07 14:42:36.456390,-1,2025-11-07 14:42:39.533675230
2025-11-07 14:42:36.456390,-85,2025-11-07 14:42:39.541367538
2025-11-07 14:42:36.995653,-82,2025-11-07 14:42:39.549059846
2025-11-07 14:42:36.995653,-18945,2025-11-07 14:42:39.556752154
2025-11-07 14:42:36.995653,-1,2025-11-07 14:42:39.564444462
2025-11-07 14:42:36.995653,-72,2025-11-07 14:42:39.572136769
2025-11-07 14:42:36.995653,-18177,2025-11-07 14:42:39.579829077
2025-11-07 14:42:36.995653,-1,2025-11-07 14:42:39.587521385
2025-11-07 14:42:36.995653,-65,2025-11-07 14:42:39.595213692
2025-11-07 14:42:36.995653,-15105,2025-11-07 14:42:39.602906000
2025-11-07 14:42:36.995653,-1,2025-11-07 14:42:39.610598308
2025-11-07 14:42:36.995653,-53,2025-11-07 14:42:39.618290615
2025-11-07 14:42:36.995653,-9473,2025-11-07 14:42:39.625982923
2025-11-07 14:42:36.995653,-1,2025-11-07 14:42:39.633675231
2025-11-07 14:42:36.995653,-29,2025-11-07 14:42:39.641367538
2025-11-07 14:42:36.995653,-7681,2025-11-07 14:42:39.649059846
2025-11-07 14:42:36.995653,-1,2025-11-07 14:42:39.656752154
2025-11-07 14:42:36.995653,-31,2025-11-07 14:42:39.664444462
2025-11-07 14:42:36.995653,-7169,2025-11-07 14:42:39.672136769
2025-11-07 14:42:36.995653,-1,2025-11-07 14:42:39.679829077
2025-11-07 14:42:36.995653,-24,2025-11-07 14:42:39.687521385
2025-11-07 14:42:36.995653,-5121,2025-11-07 14:42:39.695213692
2025-11-07 14:42:36.995653,-1,2025-11-07 14:42:39.702906000
2025-11-07 14:42:36.995653,-21,2025-11-07 14:42:39.710598308
2025-11-07 14:42:36.995653,-4609,2025-11-07 14:42:39.718290615
2025-11-07 14:42:36.995653,-1,2025-11-07 14:42:39.725982923
2025-11-07 14:42:36.995653,-19,2025-11-07 14:42:39.733675231
2025-11-07 14:42:36.995653,-4097,2025-11-07 14:42:39.741367538
2025-11-07 14:42:36.995653,-1,2025-11-07 14:42:39.749059846
2025-11-07 14:42:36.995653,-17,2025-11-07 14:42:39.756752154
2025-11-07 14:42:36.995653,-3329,2025-11-07 14:42:39.764444462
2025-11-07 14:42:36.995653,-1,2025-11-07 14:42:39.772136769
2025-11-07 14:42:36.995653,-9,2025-11-07 14:42:39.779829077
2025-11-07 14:42:36.995653,-1537,2025-11-07 14:42:39.787521385
2025-11-07 14:42:36.995653,-1,2025-11-07 14:42:39.795213692
2025-11-07 14:42:36.995653,-7,2025-11-07 14:42:39.802906000
2025-11-07 14:42:36.995653,-1537,2025-11-07 14:42:39.810598308
2025-11-07 14:42:36.995653,-1,2025-11-07 14:42:39.818290615
2025-11-07 14:42:36.995653,-4,2025-11-07 14:42:39.825982923
2025-11-07 14:42:36.995653,-257,2025-11-07 14:42:39.833675231
2025-11-07 14:42:36.995653,-1,2025-11-07 14:42:39.841367538
2025-11-07 14:42:36.995653,-4,2025-11-07 14:42:39.849059846
2025-11-07 14:42:36.995653,-1537,2025-11-07 14:42:39.856752154
2025-11-07 14:42:36.995653,-1,2025-11-07 14:42:39.864444462
2025-11-07 14:42:36.995653,-4,2025-11-07 14:42:39.872136769
2025-11-07 14:42:36.995653,-257,2025-11-07 14:42:39.879829077
2025-11-07 14:42:36.995653,-1,2025-11-07 14:42:39.887521385
2025-11-07 14:42:36.995653,-2,2025-11-07 14:42:39.895213692
2025-11-07 14:42:36.995653,-257,2025-11-07 14:42:39.902906000
2025-11-07 14:42:36.995653,-1,2025-11-07 14:42:39.910598308
2025-11-07 14:42:36.995653,-4,2025-11-07 14:42:39.918290615
2025-11-07 14:42:36.995653,-257,2025-11-07 14:42:39.925982923
2025-11-07 14:42:36.995653,-1,2025-11-07 14:42:39.933675231
2025-11-07 14:42:36.995653,-4,2025-11-07 14:42:39.941367538
2025-11-07 14:42:36.995653,-2817,2025-11-07 14:42:39.949059846
2025-11-07 14:42:36.995653,-1,2025-11-07 14:42:39.956752154
2025-11-07 14:42:36.995653,-24,2025-11-07 14:42:39.964444462
2025-11-07 14:42:36.995653,-7681,2025-11-07 14:42:39.972136769
2025-11-07 14:42:36.995653,-1,2025-11-07 14:42:39.979829077
2025-11-07 14:42:36.995653,-34,2025-11-07 14:42:39.987521385
2025-11-07 14:42:36.995653,-10241,2025-11-07 14:42:39.995213692
2025-11-07 14:42:36.995653,-1,2025-11-07 14:42:40.002906000
2025-11-07 14:42:36.995653,-36,2025-11-07 14:42:40.010598308
2025-11-07 14:42:36.995653,-4097,2025-11-07 14:42:40.018290615
2025-11-07 14:42:36.995653,-1,2025-11-07 14:42:40.025982923
2025-11-07 14:42:36.995653,9,2025-11-07 14:42:40.033675231
2025-11-07 14:42:36.995653,7936,2025-11-07 14:42:40.041367538
2025-11-07 14:42:36.995653,0,2025-11-07 14:42:40.049059846
2025-11-07 14:42:36.995653,26,2025-11-07 14:42:40.056752154
2025-11-07 14:42:36.995653,512,2025-11-07 14:42:40.064444462
2025-11-07 14:42:36.995653,0,2025-11-07 14:42:40.072136769
2025-11-07 14:42:36.995653,2,2025-11-07 14:42:40.079829077
2025-11-07 14:42:36.995653,4352,2025-11-07 14:42:40.087521385
2025-11-07 14:42:36.995653,0,2025-11-07 14:42:40.095213692
2025-11-07 14:42:36.995653,19,2025-11-07 14:42:40.102906000
2025-11-07 14:42:36.995653,3072,2025-11-07 14:42:40.110598308
2025-11-07 14:42:36.995653,0,2025-11-07 14:42:40.118290615
2025-11-07 14:42:36.995653,-12,2025-11-07 14:42:40.125982923
2025-11-07 14:42:36.995653,-13825,2025-11-07 14:42:40.133675231
2025-11-07 14:42:36.995653,-1,2025-11-07 14:42:40.141367538
2025-11-07 14:42:36.995653,24,2025-11-07 14:42:40.149059846
2025-11-07 14:42:36.995653,7168,2025-11-07 14:42:40.156752154
2025-11-07 14:42:36.995653,2,2025-11-07 14:42:40.164444462
2025-11-07 14:42:36.995653,1313,2025-11-07 14:42:40.172136769
2025-11-07 14:42:36.995653,-10240,2025-11-07 14:42:40.179829077
2025-11-07 14:42:36.995653,5,2025-11-07 14:42:40.187521385
2025-11-07 14:42:36.995653,895,2025-11-07 14:42:40.195213692
2025-11-07 14:42:36.995653,11520,2025-11-07 14:42:40.202906000
2025-11-07 14:42:36.995653,1,2025-11-07 14:42:40.210598308
2025-11-07 14:42:36.995653,82,2025-11-07 14:42:40.218290615
2025-11-07 14:42:36.995653,-8704,2025-11-07 14:42:40.225982923
2025-11-07 14:42:36.995653,-1,2025-11-07 14:42:40.233675231
2025-11-07 14:42:36.995653,-136,2025-11-07 14:42:40.241367538
2025-11-07 14:42:36.995653,28671,2025-11-07 14:42:40.249059846
2025-11-07 14:42:36.995653,-1,2025-11-07 14:42:40.256752154
2025-11-07 14:42:36.995653,-136,2025-11-07 14:42:40.264444462
2025-11-07 14:42:36.995653,27391,2025-11-07 14:42:40.272136769
2025-11-07 14:42:36.995653,-1,2025-11-07 14:42:40.279829077
2025-11-07 14:42:36.995653,-145,2025-11-07 14:42:40.287521385
2025-11-07 14:42:36.995653,-32513,2025-11-07 14:42:40.295213692
2025-11-07 14:42:36.995653,-1,2025-11-07 14:42:40.302906000
2025-11-07 14:42:36.995653,-124,2025-11-07 14:42:40.310598308
2025-11-07 14:42:36.995653,-30209,2025-11-07 14:42:40.318290615
2025-11-07 14:42:36.995653,-1,2025-11-07 14:42:40.325982923
2025-11-07 14:42:36.995653,-107,2025-11-07 14:42:40.333675231
2025-11-07 14:42:36.995653,-23809,2025-11-07 14:42:40.341367538
2025-11-07 14:42:36.995653,-1,2025-11-07 14:42:40.349059846
2025-11-07 14:42:36.995653,-87,2025-11-07 14:42:40.356752154
2025-11-07 14:42:36.995653,-19457,2025-11-07 14:42:40.364444462
2025-11-07 14:42:36.995653,-1,2025-11-07 14:42:40.372136769
2025-11-07 14:42:36.995653,-68,2025-11-07 14:42:40.379829077
2025-11-07 14:42:37.626418,-60,2025-11-07 14:42:40.387521385
2025-11-07 14:42:37.626418,-11521,2025-11-07 14:42:40.395213692
2025-11-07 14:42:37.626418,-1,2025-11-07 14:42:40.402906000
2025-11-07 14:42:37.626418,-26,2025-11-07 14:42:40.410598308
2025-11-07 14:42:37.626418,-769,2025-11-07 14:42:40.418290615
2025-11-07 14:42:37.626418,-1,2025-11-07 14:42:40.425982923
2025-11-07 14:42:37.626418,21,2025-11-07 14:42:40.433675231
2025-11-07 14:42:37.626418,11008,2025-11-07 14:42:40.441367538
2025-11-07 14:42:37.626418,0,2025-11-07 14:42:40.449059846
2025-11-07 14:42:37.626418,53,2025-11-07 14:42:40.456752154
2025-11-07 14:42:37.626418,14848,2025-11-07 14:42:40.464444462
2025-11-07 14:42:37.626418,0,2025-11-07 14:42:40.472136769
2025-11-07 14:42:37.626418,63,2025-11-07 14:42:40.479829077
2025-11-07 14:42:37.626418,15360,2025-11-07 14:42:40.487521385
2025-11-07 14:42:37.626418,0,2025-11-07 14:42:40.495213692
2025-11-07 14:42:37.626418,43,2025-11-07 14:42:40.502906000
2025-11-07 14:42:37.626418,3584,2025-11-07 14:42:40.510598308
2025-11-07 14:42:37.626418,0,2025-11-07 14:42:40.518290615
2025-11-07 14:42:37.626418,-26,2025-11-07 14:42:40.525982923
2025-11-07 14:42:37.626418,-15105,2025-11-07 14:42:40.533675230
2025-11-07 14:42:37.626418,-1,2025-11-07 14:42:40.541367538
2025-11-07 14:42:37.626418,-77,2025-11-07 14:42:40.549059846
2025-11-07 14:42:37.626418,-23809,2025-11-07 14:42:40.556752154
2025-11-07 14:42:37.626418,-1,2025-11-07 14:42:40.564444462
2025-11-07 14:42:37.626418,-102,2025-11-07 14:42:40.572136769
2025-11-07 14:42:37.626418,-23809,2025-11-07 14:42:40.579829077
2025-11-07 14:42:37.626418,-1,2025-11-07 14:42:40.587521385
2025-11-07 14:42:37.626418,-92,2025-11-07 14:42:40.595213692
2025-11-07 14:42:37.626418,-23297,2025-11-07 14:42:40.602906000
2025-11-07 14:42:37.626418,-1,2025-11-07 14:42:40.610598308
2025-11-07 14:42:37.626418,-94,2025-11-07 14:42:40.618290615
2025-11-07 14:42:37.626418,-22017,2025-11-07 14:42:40.625982923
2025-11-07 14:42:37.626418,-1,2025-11-07 14:42:40.633675231
2025-11-07 14:42:37.626418,-77,2025-11-07 14:42:40.641367538
2025-11-07 14:42:37.626418,-18945,2025-11-07 14:42:40.649059846
2025-11-07 14:42:37.626418,-1,2025-11-07 14:42:40.656752154
2025-11-07 14:42:37.626418,-75,2025-11-07 14:42:40.664444462
2025-11-07 14:42:37.626418,-18177,2025-11-07 14:42:40.672136769
2025-11-07 14:42:37.626418,-1,2025-11-07 14:42:40.679829077
2025-11-07 14:42:37.626418,-70,2025-11-07 14:42:40.687521385
2025-11-07 14:42:37.626418,-15873,2025-11-07 14:42:40.695213692
2025-11-07 14:42:37.626418,-1,2025-11-07 14:42:40.702906000
2025-11-07 14:42:37.626418,-60,2025-11-07 14:42:40.710598308
2025-11-07 14:42:37.626418,-12801,2025-11-07 14:42:40.718290615
2025-11-07 14:42:37.626418,-1,2025-11-07 14:42:40.725982923
2025-11-07 14:42:37.626418,-46,2025-11-07 14:42:40.733675231
2025-11-07 14:42:37.626418,-12801,2025-11-07 14:42:40.741367538
2025-11-07 14:42:37.626418,-1,2025-11-07 14:42:40.749059846
2025-11-07 14:42:37.626418,-53,2025-11-07 14:42:40.756752154
2025-11-07 14:42:37.626418,-10753,2025-11-07 14:42:40.764444462
2025-11-07 14:42:37.626418,-1,2025-11-07 14:42:40.772136769
2025-11-07 14:42:37.626418,-38,2025-11-07 14:42:40.779829077
2025-11-07 14:42:37.626418,-9473,2025-11-07 14:42:40.787521385
2025-11-07 14:42:37.626418,-1,2025-11-07 14:42:40.795213692
2025-11-07 14:42:37.626418,-41,2025-11-07 14:42:40.802906000
2025-11-07 14:42:37.626418,-8449,2025-11-07 14:42:40.810598308
2025-11-07 14:42:37.626418,-1,2025-11-07 14:42:40.818290615
2025-11-07 14:42:37.626418,-26,2025-11-07 14:42:40.825982923
2025-11-07 14:42:37.626418,-5889,2025-11-07 14:42:40.833675231
2025-11-07 14:42:37.626418,-1,2025-11-07 14:42:40.841367538
2025-11-07 14:42:37.626418,-19,2025-11-07 14:42:40.849059846
2025-11-07 14:42:37.626418,-3329,2025-11-07 14:42:40.856752154
2025-11-07 14:42:37.626418,-1,2025-11-07 14:42:40.864444462
2025-11-07 14:42:37.626418,-12,2025-11-07 14:42:40.872136769
2025-11-07 14:42:37.626418,-3329,2025-11-07 14:42:40.879829077
2025-11-07 14:42:37.626418,-1,2025-11-07 14:42:40.887521385
2025-11-07 14:42:37.626418,-14,2025-11-07 14:42:40.895213692
2025-11-07 14:42:37.626418,-2049,2025-11-07 14:42:40.902906000
2025-11-07 14:42:37.626418,-1,2025-11-07 14:42:40.910598308
2025-11-07 14:42:37.626418,0,2025-11-07 14:42:40.918290615
2025-11-07 14:42:37.626418,0,2025-11-07 14:42:40.925982923
2025-11-07 14:42:37.626418,0,2025-11-07 14:42:40.933675231
2025-11-07 14:42:37.626418,0,2025-11-07 14:42:40.941367538
2025-11-07 14:42:37.626418,0,2025-11-07 14:42:40.949059846
2025-11-07 14:42:37.626418,0,2025-11-07 14:42:40.956752154
2025-11-07 14:42:37.626418,2,2025-11-07 14:42:40.964444462
2025-11-07 14:42:37.626418,1024,2025-11-07 14:42:40.972136769
2025-11-07 14:42:37.626418,0,2025-11-07 14:42:40.979829077
2025-11-07 14:42:37.626418,0,2025-11-07 14:42:40.987521385
2025-11-07 14:42:37.626418,0,2025-11-07 14:42:40.995213692
2025-11-07 14:42:37.626418,0,2025-11-07 14:42:41.002906000
2025-11-07 14:42:37.626418,7,2025-11-07 14:42:41.010598308
2025-11-07 14:42:37.626418,1792,2025-11-07 14:42:41.018290615
2025-11-07 14:42:37.626418,0,2025-11-07 14:42:41.025982923
2025-11-07 14:42:37.626418,7,2025-11-07 14:42:41.033675231
2025-11-07 14:42:37.626418,2304,2025-11-07 14:42:41.041367538
2025-11-07 14:42:37.626418,0,2025-11-07 14:42:41.049059846
2025-11-07 14:42:37.626418,9,2025-11-07 14:42:41.056752154
2025-11-07 14:42:37.626418,2304,2025-11-07 14:42:41.064444462
2025-11-07 14:42:37.626418,0,2025-11-07 14:42:41.072136769
2025-11-07 14:42:37.626418,7,2025-11-07 14:42:41.079829077
2025-11-07 14:42:37.626418,-512,2025-11-07 14:42:41.087521385
2025-11-07 14:42:37.626418,-1,2025-11-07 14:42:41.095213692
2025-11-07 14:42:37.626418,-9,2025-11-07 14:42:41.102906000
2025-11-07 14:42:37.626418,-2049,2025-11-07 14:42:41.110598308
2025-11-07 14:42:37.626418,-1,2025-11-07 14:42:41.118290615
2025-11-07 14:42:37.626418,-12,2025-11-07 14:42:41.125982923
2025-11-07 14:42:37.626418,-5889,2025-11-07 14:42:41.133675231
2025-11-07 14:42:37.626418,-1,2025-11-07 14:42:41.141367538
2025-11-07 14:42:37.626418,-19,2025-11-07 14:42:41.149059846
2025-11-07 14:42:37.626418,1279,2025-11-07 14:42:41.156752154
2025-11-07 14:42:37.626418,0,2025-11-07 14:42:41.164444462
2025-11-07 14:42:37.626418,34,2025-11-07 14:42:41.172136769
2025-11-07 14:42:37.626418,14080,2025-11-07 14:42:41.179829077
2025-11-07 14:42:37.626418,0,2025-11-07 14:42:41.187521385
2025-11-07 14:42:37.626418,46,2025-11-07 14:42:41.195213692
2025-11-07 14:42:37.626418,6656,2025-11-07 14:42:41.202906000
2025-11-07 14:42:37.626418,0,2025-11-07 14:42:41.210598308
2025-11-07 14:42:37.626418,31,2025-11-07 14:42:41.218290615
2025-11-07 14:42:38.166993,46,2025-11-07 14:42:41.225982923
2025-11-07 14:42:38.166993,11776,2025-11-07 14:42:41.233675231
2025-11-07 14:42:38.166993,0,2025-11-07 14:42:41.241367538
2025-11-07 14:42:38.166993,34,2025-11-07 14:42:41.249059846
2025-11-07 14:42:38.166993,1792,2025-11-07 14:42:41.256752154
2025-11-07 14:42:38.166993,0,2025-11-07 14:42:41.264444462
2025-11-07 14:42:38.166993,-24,2025-11-07 14:42:41.272136769
2025-11-07 14:42:38.166993,-30465,2025-11-07 14:42:41.279829077
2025-11-07 14:42:38.166993,0,2025-11-07 14:42:41.287521385
2025-11-07 14:42:38.166993,744,2025-11-07 14:42:41.295213692
2025-11-07 14:42:38.166993,32256,2025-11-07 14:42:41.302906000
2025-11-07 14:42:38.166993,5,2025-11-07 14:42:41.310598308
2025-11-07 14:42:38.166993,1318,2025-11-07 14:42:41.318290615
2025-11-07 14:42:38.166993,-30976,2025-11-07 14:42:41.325982923
2025-11-07 14:42:38.166993,2,2025-11-07 14:42:41.333675231
2025-11-07 14:42:38.166993,218,2025-11-07 14:42:41.341367538
2025-11-07 14:42:38.166993,25344,2025-11-07 14:42:41.349059846
2025-11-07 14:42:38.166993,0,2025-11-07 14:42:41.356752154
2025-11-07 14:42:38.166993,-21,2025-11-07 14:42:41.364444462
2025-11-07 14:42:38.166993,-24577,2025-11-07 14:42:41.372136769
2025-11-07 14:42:38.166993,-1,2025-11-07 14:42:41.379829077
2025-11-07 14:42:38.166993,-72,2025-11-07 14:42:41.387521385
2025-11-07 14:42:38.166993,-17153,2025-11-07 14:42:41.395213692
2025-11-07 14:42:38.166993,-1,2025-11-07 14:42:41.402906000
2025-11-07 14:42:38.166993,-97,2025-11-07 14:42:41.410598308
2025-11-07 14:42:38.166993,-22017,2025-11-07 14:42:41.418290615
2025-11-07 14:42:38.166993,-1,2025-11-07 14:42:41.425982923
2025-11-07 14:42:38.166993,-68,2025-11-07 14:42:41.433675231
2025-11-07 14:42:38.166993,-14593,2025-11-07 14:42:41.441367538
2025-11-07 14:42:38.166993,-1,2025-11-07 14:42:41.449059846
2025-11-07 14:42:38.166993,-53,2025-11-07 14:42:41.456752154
2025-11-07 14:42:38.166993,-11521,2025-11-07 14:42:41.464444462
2025-11-07 14:42:38.166993,-1,2025-11-07 14:42:41.472136769
2025-11-07 14:42:38.166993,-36,2025-11-07 14:42:41.479829077
2025-11-07 14:42:38.166993,-6401,2025-11-07 14:42:41.487521385
2025-11-07 14:42:38.166993,-1,2025-11-07 14:42:41.495213692
2025-11-07 14:42:38.166993,-14,2025-11-07 14:42:41.502906000
2025-11-07 14:42:38.166993,-257,2025-11-07 14:42:41.510598308
2025-11-07 14:42:38.166993,-1,2025-11-07 14:42:41.518290615
2025-11-07 14:42:38.166993,4,2025-11-07 14:42:41.525982923
2025-11-07 14:42:38.166993,3072,2025-11-07 14:42:41.533675230
2025-11-07 14:42:38.166993,0,2025-11-07 14:42:41.541367538
2025-11-07 14:42:38.166993,29,2025-11-07 14:42:41.549059846
2025-11-07 14:42:38.166993,12288,2025-11-07 14:42:41.556752154
2025-11-07 14:42:38.166993,0,2025-11-07 14:42:41.564444462
2025-11-07 14:42:38.166993,63,2025-11-07 14:42:41.572136769
2025-11-07 14:42:38.166993,19200,2025-11-07 14:42:41.579829077
2025-11-07 14:42:38.166993,0,2025-11-07 14:42:41.587521385
2025-11-07 14:42:38.166993,92,2025-11-07 14:42:41.595213692
2025-11-07 14:42:38.166993,25344,2025-11-07 14:42:41.602906000
2025-11-07 14:42:38.166993,0,2025-11-07 14:42:41.610598308
2025-11-07 14:42:38.166993,97,2025-11-07 14:42:41.618290615
2025-11-07 14:42:38.166993,23552,2025-11-07 14:42:41.625982923
2025-11-07 14:42:38.166993,0,2025-11-07 14:42:41.633675231
2025-11-07 14:42:38.166993,75,2025-11-07 14:42:41.641367538
2025-11-07 14:42:38.166993,11776,2025-11-07 14:42:41.649059846
2025-11-07 14:42:38.166993,0,2025-11-07 14:42:41.656752154
2025-11-07 14:42:38.166993,4,2025-11-07 14:42:41.664444462
2025-11-07 14:42:38.166993,-7424,2025-11-07 14:42:41.672136769
2025-11-07 14:42:38.166993,-1,2025-11-07 14:42:41.679829077
2025-11-07 14:42:38.166993,-38,2025-11-07 14:42:41.687521385
2025-11-07 14:42:38.166993,-11521,2025-11-07 14:42:41.695213692
2025-11-07 14:42:38.166993,-1,2025-11-07 14:42:41.702906000
2025-11-07 14:42:38.166993,-58,2025-11-07 14:42:41.710598308
2025-11-07 14:42:38.166993,-13825,2025-11-07 14:42:41.718290615
2025-11-07 14:42:38.166993,-1,2025-11-07 14:42:41.725982923
2025-11-07 14:42:38.166993,-46,2025-11-07 14:42:41.733675231
2025-11-07 14:42:38.166993,-10753,2025-11-07 14:42:41.741367538
2025-11-07 14:42:38.166993,-1,2025-11-07 14:42:41.749059846
2025-11-07 14:42:38.166993,-46,2025-11-07 14:42:41.756752154
2025-11-07 14:42:38.166993,-11521,2025-11-07 14:42:41.764444462
2025-11-07 14:42:38.166993,-1,2025-11-07 14:42:41.772136769
2025-11-07 14:42:38.166993,-43,2025-11-07 14:42:41.779829077
2025-11-07 14:42:38.166993,-10241,2025-11-07 14:42:41.787521385
2025-11-07 14:42:38.166993,-1,2025-11-07 14:42:41.795213692
2025-11-07 14:42:38.166993,-29,2025-11-07 14:42:41.802906000
2025-11-07 14:42:38.166993,-5121,2025-11-07 14:42:41.810598308
2025-11-07 14:42:38.166993,-1,2025-11-07 14:42:41.818290615
2025-11-07 14:42:38.166993,-31,2025-11-07 14:42:41.825982923
2025-11-07 14:42:38.166993,-5889,2025-11-07 14:42:41.833675231
2025-11-07 14:42:38.166993,-1,2025-11-07 14:42:41.841367538
2025-11-07 14:42:38.166993,-9,2025-11-07 14:42:41.849059846
2025-11-07 14:42:38.166993,-4097,2025-11-07 14:42:41.856752154
2025-11-07 14:42:38.166993,-1,2025-11-07 14:42:41.864444462
2025-11-07 14:42:38.166993,-17,2025-11-07 14:42:41.872136769
2025-11-07 14:42:38.166993,-769,2025-11-07 14:42:41.879829077
2025-11-07 14:42:38.166993,-1,2025-11-07 14:42:41.887521385
2025-11-07 14:42:38.166993,0,2025-11-07 14:42:41.895213692
2025-11-07 14:42:38.166993,0,2025-11-07 14:42:41.902906000
2025-11-07 14:42:38.166993,0,2025-11-07 14:42:41.910598308
2025-11-07 14:42:38.166993,2,2025-11-07 14:42:41.918290615
2025-11-07 14:42:38.166993,512,2025-11-07 14:42:41.925982923
2025-11-07 14:42:38.166993,0,2025-11-07 14:42:41.933675231
2025-11-07 14:42:38.166993,7,2025-11-07 14:42:41.941367538
2025-11-07 14:42:38.166993,4352,2025-11-07 14:42:41.949059846
2025-11-07 14:42:38.166993,0,2025-11-07 14:42:41.956752154
2025-11-07 14:42:38.166993,19,2025-11-07 14:42:41.964444462
2025-11-07 14:42:38.166993,3584,2025-11-07 14:42:41.972136769
2025-11-07 14:42:38.166993,0,2025-11-07 14:42:41.979829077
2025-11-07 14:42:38.166993,24,2025-11-07 14:42:41.987521385
2025-11-07 14:42:38.166993,7424,2025-11-07 14:42:41.995213692
2025-11-07 14:42:38.166993,0,2025-11-07 14:42:42.002906000
2025-11-07 14:42:38.166993,24,2025-11-07 14:42:42.010598308
2025-11-07 14:42:38.166993,7424,2025-11-07 14:42:42.018290615
2025-11-07 14:42:38.166993,0,2025-11-07 14:42:42.025982923
2025-11-07 14:42:38.166993,29,2025-11-07 14:42:42.033675231
2025-11-07 14:42:38.166993,6144,2025-11-07 14:42:42.041367538
2025-11-07 14:42:38.166993,0,2025-11-07 14:42:42.049059846
2025-11-07 14:42:38.166993,26,2025-11-07 14:42:42.056752154
2025-11-07 14:42:38.706589,34,2025-11-07 14:42:42.064444462
2025-11-07 14:42:38.706589,9216,2025-11-07 14:42:42.072136769
2025-11-07 14:42:38.706589,0,2025-11-07 14:42:42.079829077
2025-11-07 14:42:38.706589,34,2025-11-07 14:42:42.087521385
2025-11-07 14:42:38.706589,7936,2025-11-07 14:42:42.095213692
2025-11-07 14:42:38.706589,0,2025-11-07 14:42:42.102906000
2025-11-07 14:42:38.706589,34,2025-11-07 14:42:42.110598308
2025-11-07 14:42:38.706589,9216,2025-11-07 14:42:42.118290615
2025-11-07 14:42:38.706589,0,2025-11-07 14:42:42.125982923
2025-11-07 14:42:38.706589,31,2025-11-07 14:42:42.133675231
2025-11-07 14:42:38.706589,6144,2025-11-07 14:42:42.141367538
2025-11-07 14:42:38.706589,0,2025-11-07 14:42:42.149059846
2025-11-07 14:42:38.706589,14,2025-11-07 14:42:42.156752154
2025-11-07 14:42:38.706589,3072,2025-11-07 14:42:42.164444462
2025-11-07 14:42:38.706589,0,2025-11-07 14:42:42.172136769
2025-11-07 14:42:38.706589,14,2025-11-07 14:42:42.179829077
2025-11-07 14:42:38.706589,6144,2025-11-07 14:42:42.187521385
2025-11-07 14:42:38.706589,0,2025-11-07 14:42:42.195213692
2025-11-07 14:42:38.706589,24,2025-11-07 14:42:42.202906000
2025-11-07 14:42:38.706589,6656,2025-11-07 14:42:42.210598308
2025-11-07 14:42:38.706589,0,2025-11-07 14:42:42.218290615
2025-11-07 14:42:38.706589,51,2025-11-07 14:42:42.225982923
2025-11-07 14:42:38.706589,19712,2025-11-07 14:42:42.233675231
2025-11-07 14:42:38.706589,0,2025-11-07 14:42:42.241367538
2025-11-07 14:42:38.706589,80,2025-11-07 14:42:42.249059846
2025-11-07 14:42:38.706589,14080,2025-11-07 14:42:42.256752154
2025-11-07 14:42:38.706589,0,2025-11-07 14:42:42.264444462
2025-11-07 14:42:38.706589,46,2025-11-07 14:42:42.272136769
2025-11-07 14:42:38.706589,16128,2025-11-07 14:42:42.279829077
2025-11-07 14:42:38.706589,0,2025-11-07 14:42:42.287521385
2025-11-07 14:42:38.706589,63,2025-11-07 14:42:42.295213692
2025-11-07 14:42:38.706589,12288,2025-11-07 14:42:42.302906000
2025-11-07 14:42:38.706589,0,2025-11-07 14:42:42.310598308
2025-11-07 14:42:38.706589,38,2025-11-07 14:42:42.318290615
2025-11-07 14:42:38.706589,1024,2025-11-07 14:42:42.325982923
2025-11-07 14:42:38.706589,0,2025-11-07 14:42:42.333675231
2025-11-07 14:42:38.706589,17,2025-11-07 14:42:42.341367538
2025-11-07 14:42:38.706589,22784,2025-11-07 14:42:42.349059846
2025-11-07 14:42:38.706589,1,2025-11-07 14:42:42.356752154
2025-11-07 14:42:38.706589,1021,2025-11-07 14:42:42.364444462
2025-11-07 14:42:38.706589,23552,2025-11-07 14:42:42.372136769
2025-11-07 14:42:38.706589,5,2025-11-07 14:42:42.379829077
2025-11-07 14:42:38.706589,934,2025-11-07 14:42:42.387521385
2025-11-07 14:42:38.706589,28928,2025-11-07 14:42:42.395213692
2025-11-07 14:42:38.706589,1,2025-11-07 14:42:42.402906000
2025-11-07 14:42:38.706589,182,2025-11-07 14:42:42.410598308
2025-11-07 14:42:38.706589,19200,2025-11-07 14:42:42.418290615
2025-11-07 14:42:38.706589,0,2025-11-07 14:42:42.425982923
2025-11-07 14:42:38.706589,-65,2025-11-07 14:42:42.433675231
2025-11-07 14:42:38.706589,-23809,2025-11-07 14:42:42.441367538
2025-11-07 14:42:38.706589,-1,2025-11-07 14:42:42.449059846
2025-11-07 14:42:38.706589,-72,2025-11-07 14:42:42.456752154
2025-11-07 14:42:38.706589,-22017,2025-11-07 14:42:42.464444462
2025-11-07 14:42:38.706589,-1,2025-11-07 14:42:42.472136769
2025-11-07 14:42:38.706589,-99,2025-11-07 14:42:42.479829077
2025-11-07 14:42:38.706589,-21505,2025-11-07 14:42:42.487521385
2025-11-07 14:42:38.706589,-1,2025-11-07 14:42:42.495213692
2025-11-07 14:42:38.706589,-80,2025-11-07 14:42:42.502906000
2025-11-07 14:42:38.706589,-19457,2025-11-07 14:42:42.510598308
2025-11-07 14:42:38.706589,-1,2025-11-07 14:42:42.518290615
2025-11-07 14:42:38.706589,-68,2025-11-07 14:42:42.525982923
2025-11-07 14:42:38.706589,-13825,2025-11-07 14:42:42.533675230
2025-11-07 14:42:38.706589,-1,2025-11-07 14:42:42.541367538
2025-11-07 14:42:38.706589,-46,2025-11-07 14:42:42.549059846
2025-11-07 14:42:38.706589,-8961,2025-11-07 14:42:42.556752154
2025-11-07 14:42:38.706589,-1,2025-11-07 14:42:42.564444462
2025-11-07 14:42:38.706589,-31,2025-11-07 14:42:42.572136769
2025-11-07 14:42:38.706589,-5121,2025-11-07 14:42:42.579829077
2025-11-07 14:42:38.706589,-1,2025-11-07 14:42:42.587521385
2025-11-07 14:42:38.706589,-9,2025-11-07 14:42:42.595213692
2025-11-07 14:42:38.706589,767,2025-11-07 14:42:42.602906000
2025-11-07 14:42:38.706589,0,2025-11-07 14:42:42.610598308
2025-11-07 14:42:38.706589,19,2025-11-07 14:42:42.618290615
2025-11-07 14:42:38.706589,10496,2025-11-07 14:42:42.625982923
2025-11-07 14:42:38.706589,0,2025-11-07 14:42:42.633675231
2025-11-07 14:42:38.706589,55,2025-11-07 14:42:42.641367538
2025-11-07 14:42:38.706589,17408,2025-11-07 14:42:42.649059846
2025-11-07 14:42:38.706589,0,2025-11-07 14:42:42.656752154
2025-11-07 14:42:38.706589,75,2025-11-07 14:42:42.664444462
2025-11-07 14:42:38.706589,20480,2025-11-07 14:42:42.672136769
2025-11-07 14:42:38.706589,0,2025-11-07 14:42:42.679829077
2025-11-07 14:42:38.706589,72,2025-11-07 14:42:42.687521385
2025-11-07 14:42:38.706589,13568,2025-11-07 14:42:42.695213692
2025-11-07 14:42:38.706589,0,2025-11-07 14:42:42.702906000
2025-11-07 14:42:38.706589,24,2025-11-07 14:42:42.710598308
2025-11-07 14:42:38.706589,-3072,2025-11-07 14:42:42.718290615
2025-11-07 14:42:38.706589,-1,2025-11-07 14:42:42.725982923
2025-11-07 14:42:38.706589,-53,2025-11-07 14:42:42.733675231
2025-11-07 14:42:38.706589,-20737,2025-11-07 14:42:42.741367538
2025-11-07 14:42:38.706589,-1,2025-11-07 14:42:42.749059846
2025-11-07 14:42:38.706589,-92,2025-11-07 14:42:42.756752154
2025-11-07 14:42:38.706589,-23297,2025-11-07 14:42:42.764444462
2025-11-07 14:42:38.706589,-1,2025-11-07 14:42:42.772136769
2025-11-07 14:42:38.706589,-94,2025-11-07 14:42:42.779829077
2025-11-07 14:42:38.706589,-23297,2025-11-07 14:42:42.787521385
2025-11-07 14:42:38.706589,-1,2025-11-07 14:42:42.795213692
2025-11-07 14:42:38.706589,-87,2025-11-07 14:42:42.802906000
2025-11-07 14:42:38.706589,-22017,2025-11-07 14:42:42.810598308
2025-11-07 14:42:38.706589,-1,2025-11-07 14:42:42.818290615
2025-11-07 14:42:38.706589,-80,2025-11-07 14:42:42.825982923
2025-11-07 14:42:38.706589,-18945,2025-11-07 14:42:42.833675231
2025-11-07 14:42:38.706589,-1,2025-11-07 14:42:42.841367538
2025-11-07 14:42:38.706589,-77,2025-11-07 14:42:42.849059846
2025-11-07 14:42:38.706589,-17665,2025-11-07 14:42:42.856752154
2025-11-07 14:42:38.706589,-1,2025-11-07 14:42:42.864444462
2025-11-07 14:42:38.706589,-60,2025-11-07 14:42:42.872136769
2025-11-07 14:42:38.706589,-14593,2025-11-07 14:42:42.879829077
2025-11-07 14:42:38.706589,-1,2025-11-07 14:42:42.887521385
2025-11-07 14:42:38.706589,-58,2025-11-07 14:42:42.895213692
2025-11-07 14:42:39.246751,-55,2025-11-07 14:42:42.902906000
2025-11-07 14:42:39.246751,-12033,2025-11-07 14:42:42.910598308
2025-11-07 14:42:39.246751,-1,2025-11-07 14:42:42.918290615
2025-11-07 14:42:39.246751,-43,2025-11-07 14:42:42.925982923
2025-11-07 14:42:39.246751,-10241,2025-11-07 14:42:42.933675231
2025-11-07 14:42:39.246751,-1,2025-11-07 14:42:42.941367538
2025-11-07 14:42:39.246751,-41,2025-11-07 14:42:42.949059846
2025-11-07 14:42:39.246751,-10241,2025-11-07 14:42:42.956752154
2025-11-07 14:42:39.246751,-1,2025-11-07 14:42:42.964444462
2025-11-07 14:42:39.246751,-36,2025-11-07 14:42:42.972136769
2025-11-07 14:42:39.246751,-7169,2025-11-07 14:42:42.979829077
2025-11-07 14:42:39.246751,-1,2025-11-07 14:42:42.987521385
2025-11-07 14:42:39.246751,-17,2025-11-07 14:42:42.995213692
2025-11-07 14:42:39.246751,-2049,2025-11-07 14:42:43.002906000
2025-11-07 14:42:39.246751,-1,2025-11-07 14:42:43.010598308
2025-11-07 14:42:39.246751,-14,2025-11-07 14:42:43.018290615
2025-11-07 14:42:39.246751,-4097,2025-11-07 14:42:43.025982923
2025-11-07 14:42:39.246751,-1,2025-11-07 14:42:43.033675231
2025-11-07 14:42:39.246751,-14,2025-11-07 14:42:43.041367538
2025-11-07 14:42:39.246751,-2817,2025-11-07 14:42:43.049059846
2025-11-07 14:42:39.246751,-1,2025-11-07 14:42:43.056752154
2025-11-07 14:42:39.246751,-7,2025-11-07 14:42:43.064444462
2025-11-07 14:42:39.246751,-769,2025-11-07 14:42:43.072136769
2025-11-07 14:42:39.246751,-1,2025-11-07 14:42:43.079829077
2025-11-07 14:42:39.246751,-4,2025-11-07 14:42:43.087521385
2025-11-07 14:42:39.246751,-257,2025-11-07 14:42:43.095213692
2025-11-07 14:42:39.246751,-1,2025-11-07 14:42:43.102906000
2025-11-07 14:42:39.246751,2,2025-11-07 14:42:43.110598308
2025-11-07 14:42:39.246751,1024,2025-11-07 14:42:43.118290615
2025-11-07 14:42:39.246751,0,2025-11-07 14:42:43.125982923
2025-11-07 14:42:39.246751,4,2025-11-07 14:42:43.133675231
2025-11-07 14:42:39.246751,512,2025-11-07 14:42:43.141367538
2025-11-07 14:42:39.246751,0,2025-11-07 14:42:43.149059846
2025-11-07 14:42:39.246751,2,2025-11-07 14:42:43.156752154
2025-11-07 14:42:39.246751,512,2025-11-07 14:42:43.164444462
2025-11-07 14:42:39.246751,0,2025-11-07 14:42:43.172136769
2025-11-07 14:42:39.246751,4,2025-11-07 14:42:43.179829077
2025-11-07 14:42:39.246751,1792,2025-11-07 14:42:43.187521385
2025-11-07 14:42:39.246751,0,2025-11-07 14:42:43.195213692
2025-11-07 14:42:39.246751,7,2025-11-07 14:42:43.202906000
2025-11-07 14:42:39.246751,512,2025-11-07 14:42:43.210598308
2025-11-07 14:42:39.246751,0,2025-11-07 14:42:43.218290615
2025-11-07 14:42:39.246751,-9,2025-11-07 14:42:43.225982923
2025-11-07 14:42:39.246751,-5121,2025-11-07 14:42:43.233675231
2025-11-07 14:42:39.246751,-1,2025-11-07 14:42:43.241367538
2025-11-07 14:42:39.246751,-26,2025-11-07 14:42:43.249059846
2025-11-07 14:42:39.246751,-7169,2025-11-07 14:42:43.256752154
2025-11-07 14:42:39.246751,-1,2025-11-07 14:42:43.264444462
2025-11-07 14:42:39.246751,-34,2025-11-07 14:42:43.272136769
2025-11-07 14:42:39.246751,-7169,2025-11-07 14:42:43.279829077
2025-11-07 14:42:39.246751,-1,2025-11-07 14:42:43.287521385
2025-11-07 14:42:39.246751,-9,2025-11-07 14:42:43.295213692
2025-11-07 14:42:39.246751,3839,2025-11-07 14:42:43.302906000
2025-11-07 14:42:39.246751,0,2025-11-07 14:42:43.310598308
2025-11-07 14:42:39.246751,38,2025-11-07 14:42:43.318290615
2025-11-07 14:42:39.246751,9216,2025-11-07 14:42:43.325982923
2025-11-07 14:42:39.246751,0,2025-11-07 14:42:43.333675231
2025-11-07 14:42:39.246751,14,2025-11-07 14:42:43.341367538
2025-11-07 14:42:39.246751,2304,2025-11-07 14:42:43.349059846
2025-11-07 14:42:39.246751,0,2025-11-07 14:42:43.356752154
2025-11-07 14:42:39.246751,17,2025-11-07 14:42:43.364444462
2025-11-07 14:42:39.246751,4352,2025-11-07 14:42:43.372136769
2025-11-07 14:42:39.246751,0,2025-11-07 14:42:43.379829077
2025-11-07 14:42:39.246751,14,2025-11-07 14:42:43.387521385
2025-11-07 14:42:39.246751,-1024,2025-11-07 14:42:43.395213692
2025-11-07 14:42:39.246751,-1,2025-11-07 14:42:43.402906000
2025-11-07 14:42:39.246751,-60,2025-11-07 14:42:43.410598308
2025-11-07 14:42:39.246751,3839,2025-11-07 14:42:43.418290615
2025-11-07 14:42:39.246751,0,2025-11-07 14:42:43.425982923
2025-11-07 14:42:39.246751,562,2025-11-07 14:42:43.433675231
2025-11-07 14:42:39.246751,21760,2025-11-07 14:42:43.441367538
2025-11-07 14:42:39.246751,5,2025-11-07 14:42:43.449059846
2025-11-07 14:42:39.246751,1530,2025-11-07 14:42:43.456752154
2025-11-07 14:42:39.246751,32512,2025-11-07 14:42:43.464444462
2025-11-07 14:42:39.246751,3,2025-11-07 14:42:43.472136769
2025-11-07 14:42:39.246751,301,2025-11-07 14:42:43.479829077
2025-11-07 14:42:39.246751,20480,2025-11-07 14:42:43.487521385
2025-11-07 14:42:39.246751,0,2025-11-07 14:42:43.495213692
2025-11-07 14:42:39.246751,-43,2025-11-07 14:42:43.502906000
2025-11-07 14:42:39.246751,29695,2025-11-07 14:42:43.510598308
2025-11-07 14:42:39.246751,-1,2025-11-07 14:42:43.518290615
2025-11-07 14:42:39.246751,-141,2025-11-07 14:42:43.525982923
2025-11-07 14:42:39.246751,-31489,2025-11-07 14:42:43.533675230
2025-11-07 14:42:39.246751,-1,2025-11-07 14:42:43.541367538
2025-11-07 14:42:39.246751,-150,2025-11-07 14:42:43.549059846
2025-11-07 14:42:39.246751,21759,2025-11-07 14:42:43.556752154
2025-11-07 14:42:39.246751,-1,2025-11-07 14:42:43.564444462
2025-11-07 14:42:39.246751,-143,2025-11-07 14:42:43.572136769
2025-11-07 14:42:39.246751,-32001,2025-11-07 14:42:43.579829077
2025-11-07 14:42:39.246751,-1,2025-11-07 14:42:43.587521385
2025-11-07 14:42:39.246751,-126,2025-11-07 14:42:43.595213692
2025-11-07 14:42:39.246751,-27649,2025-11-07 14:42:43.602906000
2025-11-07 14:42:39.246751,-1,2025-11-07 14:42:43.610598308
2025-11-07 14:42:39.246751,-104,2025-11-07 14:42:43.618290615
2025-11-07 14:42:39.246751,-28161,2025-11-07 14:42:43.625982923
2025-11-07 14:42:39.246751,-1,2025-11-07 14:42:43.633675231
2025-11-07 14:42:39.246751,-94,2025-11-07 14:42:43.641367538
2025-11-07 14:42:39.246751,-18945,2025-11-07 14:42:43.649059846
2025-11-07 14:42:39.246751,-1,2025-11-07 14:42:43.656752154
2025-11-07 14:42:39.246751,-58,2025-11-07 14:42:43.664444462
2025-11-07 14:42:39.246751,-13313,2025-11-07 14:42:43.672136769
2025-11-07 14:42:39.246751,-1,2025-11-07 14:42:43.679829077
2025-11-07 14:42:39.246751,-46,2025-11-07 14:42:43.687521385
2025-11-07 14:42:39.246751,-7681,2025-11-07 14:42:43.695213692
2025-11-07 14:42:39.246751,-1,2025-11-07 14:42:43.702906000
2025-11-07 14:42:39.246751,-19,2025-11-07 14:42:43.710598308
2025-11-07 14:42:39.246751,3327,2025-11-07 14:42:43.718290615
2025-11-07 14:42:39.246751,0,2025-11-07 14:42:43.725982923
2025-11-07 14:42:39.246751,38,2025-11-07 14:42:43.733675231
2025-11-07 14:42:39.831621,19,2025-11-07 14:42:43.741367538
2025-11-07 14:42:39.831621,2304,2025-11-07 14:42:43.749059846
2025-11-07 14:42:39.831621,0,2025-11-07 14:42:43.756752154
2025-11-07 14:42:39.831621,24,2025-11-07 14:42:43.764444462
2025-11-07 14:42:39.831621,1024,2025-11-07 14:42:43.772136769
2025-11-07 14:42:39.831621,0,2025-11-07 14:42:43.779829077
2025-11-07 14:42:39.831621,-31,2025-11-07 14:42:43.787521385
2025-11-07 14:42:39.831621,-12033,2025-11-07 14:42:43.795213692
2025-11-07 14:42:39.831621,-1,2025-11-07 14:42:43.802906000
2025-11-07 14:42:39.831621,-53,2025-11-07 14:42:43.810598308
2025-11-07 14:42:39.831621,-17153,2025-11-07 14:42:43.818290615
2025-11-07 14:42:39.831621,-1,2025-11-07 14:42:43.825982923
2025-11-07 14:42:39.831621,-80,2025-11-07 14:42:43.833675231
2025-11-07 14:42:39.831621,-21505,2025-11-07 14:42:43.841367538
2025-11-07 14:42:39.831621,-1,2025-11-07 14:42:43.849059846
2025-11-07 14:42:39.831621,-90,2025-11-07 14:42:43.856752154
2025-11-07 14:42:39.831621,-21505,2025-11-07 14:42:43.864444462
2025-11-07 14:42:39.831621,-1,2025-11-07 14:42:43.872136769
2025-11-07 14:42:39.831621,-72,2025-11-07 14:42:43.879829077
2025-11-07 14:42:39.831621,-16385,2025-11-07 14:42:43.887521385
2025-11-07 14:42:39.831621,-1,2025-11-07 14:42:43.895213692
2025-11-07 14:42:39.831621,-72,2025-11-07 14:42:43.902906000
2025-11-07 14:42:39.831621,-20737,2025-11-07 14:42:43.910598308
2025-11-07 14:42:39.831621,-1,2025-11-07 14:42:43.918290615
2025-11-07 14:42:39.831621,-60,2025-11-07 14:42:43.925982923
2025-11-07 14:42:39.831621,-11521,2025-11-07 14:42:43.933675231
2025-11-07 14:42:39.831621,-1,2025-11-07 14:42:43.941367538
2025-11-07 14:42:39.831621,-58,2025-11-07 14:42:43.949059846
2025-11-07 14:42:39.831621,-12801,2025-11-07 14:42:43.956752154
2025-11-07 14:42:39.831621,-1,2025-11-07 14:42:43.964444462
2025-11-07 14:42:39.831621,-36,2025-11-07 14:42:43.972136769
2025-11-07 14:42:39.831621,-9473,2025-11-07 14:42:43.979829077
2025-11-07 14:42:39.831621,-1,2025-11-07 14:42:43.987521385
2025-11-07 14:42:39.831621,-38,2025-11-07 14:42:43.995213692
2025-11-07 14:42:39.831621,-6401,2025-11-07 14:42:44.002906000
2025-11-07 14:42:39.831621,-1,2025-11-07 14:42:44.010598308
2025-11-07 14:42:39.831621,-12,2025-11-07 14:42:44.018290615
2025-11-07 14:42:39.831621,-4097,2025-11-07 14:42:44.025982923
2025-11-07 14:42:39.831621,-1,2025-11-07 14:42:44.033675231
2025-11-07 14:42:39.831621,-14,2025-11-07 14:42:44.041367538
2025-11-07 14:42:39.831621,-2049,2025-11-07 14:42:44.049059846
2025-11-07 14:42:39.831621,-1,2025-11-07 14:42:44.056752154
2025-11-07 14:42:39.831621,-14,2025-11-07 14:42:44.064444462
2025-11-07 14:42:39.831621,255,2025-11-07 14:42:44.072136769
2025-11-07 14:42:39.831621,0,2025-11-07 14:42:44.079829077
2025-11-07 14:42:39.831621,7,2025-11-07 14:42:44.087521385
2025-11-07 14:42:39.831621,-1792,2025-11-07 14:42:44.095213692
2025-11-07 14:42:39.831621,-1,2025-11-07 14:42:44.102906000
2025-11-07 14:42:39.831621,0,2025-11-07 14:42:44.110598308
2025-11-07 14:42:39.831621,3584,2025-11-07 14:42:44.118290615
2025-11-07 14:42:39.831621,0,2025-11-07 14:42:44.125982923
2025-11-07 14:42:39.831621,9,2025-11-07 14:42:44.133675231
2025-11-07 14:42:39.831621,1792,2025-11-07 14:42:44.141367538
2025-11-07 14:42:39.831621,0,2025-11-07 14:42:44.149059846
2025-11-07 14:42:39.831621,24,2025-11-07 14:42:44.156752154
2025-11-07 14:42:39.831621,4352,2025-11-07 14:42:44.164444462
2025-11-07 14:42:39.831621,0,2025-11-07 14:42:44.172136769
2025-11-07 14:42:39.831621,2,2025-11-07 14:42:44.179829077
2025-11-07 14:42:39.831621,3584,2025-11-07 14:42:44.187521385
2025-11-07 14:42:39.831621,0,2025-11-07 14:42:44.195213692
2025-11-07 14:42:39.831621,38,2025-11-07 14:42:44.202906000
2025-11-07 14:42:39.831621,10496,2025-11-07 14:42:44.210598308
2025-11-07 14:42:39.831621,0,2025-11-07 14:42:44.218290615
2025-11-07 14:42:39.831621,26,2025-11-07 14:42:44.225982923
2025-11-07 14:42:39.831621,6144,2025-11-07 14:42:44.233675231
2025-11-07 14:42:39.831621,0,2025-11-07 14:42:44.241367538
2025-11-07 14:42:39.831621,31,2025-11-07 14:42:44.249059846
2025-11-07 14:42:39.831621,6656,2025-11-07 14:42:44.256752154
2025-11-07 14:42:39.831621,0,2025-11-07 14:42:44.264444462
2025-11-07 14:42:39.831621,29,2025-11-07 14:42:44.272136769
2025-11-07 14:42:39.831621,9216,2025-11-07 14:42:44.279829077
2025-11-07 14:42:39.831621,0,2025-11-07 14:42:44.287521385
2025-11-07 14:42:39.831621,19,2025-11-07 14:42:44.295213692
2025-11-07 14:42:39.831621,2304,2025-11-07 14:42:44.302906000
2025-11-07 14:42:39.831621,0,2025-11-07 14:42:44.310598308
2025-11-07 14:42:39.831621,12,2025-11-07 14:42:44.318290615
2025-11-07 14:42:39.831621,1024,2025-11-07 14:42:44.325982923
2025-11-07 14:42:39.831621,0,2025-11-07 14:42:44.333675231
2025-11-07 14:42:39.831621,0,2025-11-07 14:42:44.341367538
2025-11-07 14:42:39.831621,512,2025-11-07 14:42:44.349059846
2025-11-07 14:42:39.831621,0,2025-11-07 14:42:44.356752154
2025-11-07 14:42:39.831621,17,2025-11-07 14:42:44.364444462
2025-11-07 14:42:39.831621,9728,2025-11-07 14:42:44.372136769
2025-11-07 14:42:39.831621,0,2025-11-07 14:42:44.379829077
2025-11-07 14:42:39.831621,58,2025-11-07 14:42:44.387521385
2025-11-07 14:42:39.831621,20480,2025-11-07 14:42:44.395213692
2025-11-07 14:42:39.831621,0,2025-11-07 14:42:44.402906000
2025-11-07 14:42:39.831621,80,2025-11-07 14:42:44.410598308
2025-11-07 14:42:39.831621,15360,2025-11-07 14:42:44.418290615
2025-11-07 14:42:39.831621,0,2025-11-07 14:42:44.425982923
2025-11-07 14:42:39.831621,63,2025-11-07 14:42:44.433675231
2025-11-07 14:42:39.831621,17920,2025-11-07 14:42:44.441367538
2025-11-07 14:42:39.831621,0,2025-11-07 14:42:44.449059846
2025-11-07 14:42:39.831621,65,2025-11-07 14:42:44.456752154
2025-11-07 14:42:39.831621,16640,2025-11-07 14:42:44.464444462
2025-11-07 14:42:39.831621,0,2025-11-07 14:42:44.472136769
2025-11-07 14:42:39.831621,43,2025-11-07 14:42:44.479829077
2025-11-07 14:42:39.831621,-1024,2025-11-07 14:42:44.487521385
2025-11-07 14:42:39.831621,-1,2025-11-07 14:42:44.495213692
2025-11-07 14:42:39.831621,126,2025-11-07 14:42:44.502906000
2025-11-07 14:42:39.831621,-9984,2025-11-07 14:42:44.510598308
2025-11-07 14:42:39.831621,2,2025-11-07 14:42:44.518290615
2025-11-07 14:42:39.831621,1484,2025-11-07 14:42:44.525982923
2025-11-07 14:42:39.831621,-2048,2025-11-07 14:42:44.533675230
2025-11-07 14:42:39.831621,5,2025-11-07 14:42:44.541367538
2025-11-07 14:42:39.831621,885,2025-11-07 14:42:44.549059846
2025-11-07 14:42:39.831621,22272,2025-11-07 14:42:44.556752154
2025-11-07 14:42:39.831621,1,2025-11-07 14:42:44.564444462
2025-11-07 14:42:39.831621,124,2025-11-07 14:42:44.572136769
2025-11-07 14:42:40.371222,7,2025-11-07 14:42:44.579829077
2025-11-07 14:42:40.371222,-14080,2025-11-07 14:42:44.587521385
2025-11-07 14:42:40.371222,-1,2025-11-07 14:42:44.595213692
2025-11-07 14:42:40.371222,-46,2025-11-07 14:42:44.602906000
2025-11-07 14:42:40.371222,-11521,2025-11-07 14:42:44.610598308
2025-11-07 14:42:40.371222,-1,2025-11-07 14:42:44.618290615
2025-11-07 14:42:40.371222,-72,2025-11-07 14:42:44.625982923
2025-11-07 14:42:40.371222,-13825,2025-11-07 14:42:44.633675231
2025-11-07 14:42:40.371222,-1,2025-11-07 14:42:44.641367538
2025-11-07 14:42:40.371222,-26,2025-11-07 14:42:44.649059846
2025-11-07 14:42:40.371222,-10241,2025-11-07 14:42:44.656752154
2025-11-07 14:42:40.371222,-1,2025-11-07 14:42:44.664444462
2025-11-07 14:42:40.371222,-31,2025-11-07 14:42:44.672136769
2025-11-07 14:42:40.371222,767,2025-11-07 14:42:44.679829077
2025-11-07 14:42:40.371222,0,2025-11-07 14:42:44.687521385
2025-11-07 14:42:40.371222,-4,2025-11-07 14:42:44.695213692
2025-11-07 14:42:40.371222,-2817,2025-11-07 14:42:44.702906000
2025-11-07 14:42:40.371222,-1,2025-11-07 14:42:44.710598308
2025-11-07 14:42:40.371222,26,2025-11-07 14:42:44.718290615
2025-11-07 14:42:40.371222,13568,2025-11-07 14:42:44.725982923
2025-11-07 14:42:40.371222,0,2025-11-07 14:42:44.733675231
2025-11-07 14:42:40.371222,41,2025-11-07 14:42:44.741367538
2025-11-07 14:42:40.371222,8704,2025-11-07 14:42:44.749059846
2025-11-07 14:42:40.371222,0,2025-11-07 14:42:44.756752154
2025-11-07 14:42:40.371222,60,2025-11-07 14:42:44.764444462
2025-11-07 14:42:40.371222,23040,2025-11-07 14:42:44.772136769
2025-11-07 14:42:40.371222,0,2025-11-07 14:42:44.779829077
2025-11-07 14:42:40.371222,85,2025-11-07 14:42:44.787521385
2025-11-07 14:42:40.371222,21760,2025-11-07 14:42:44.795213692
2025-11-07 14:42:40.371222,0,2025-11-07 14:42:44.802906000
2025-11-07 14:42:40.371222,116,2025-11-07 14:42:44.810598308
2025-11-07 14:42:40.371222,-32768,2025-11-07 14:42:44.818290615
2025-11-07 14:42:40.371222,0,2025-11-07 14:42:44.825982923
2025-11-07 14:42:40.371222,121,2025-11-07 14:42:44.833675231
2025-11-07 14:42:40.371222,30464,2025-11-07 14:42:44.841367538
2025-11-07 14:42:40.371222,0,2025-11-07 14:42:44.849059846
2025-11-07 14:42:40.371222,99,2025-11-07 14:42:44.856752154
2025-11-07 14:42:40.371222,14080,2025-11-07 14:42:44.864444462
2025-11-07 14:42:40.371222,0,2025-11-07 14:42:44.872136769
2025-11-07 14:42:40.371222,24,2025-11-07 14:42:44.879829077
2025-11-07 14:42:40.371222,1792,2025-11-07 14:42:44.887521385
2025-11-07 14:42:40.371222,0,2025-11-07 14:42:44.895213692
2025-11-07 14:42:40.371222,-14,2025-11-07 14:42:44.902906000
2025-11-07 14:42:40.371222,-6401,2025-11-07 14:42:44.910598308
2025-11-07 14:42:40.371222,-1,2025-11-07 14:42:44.918290615
2025-11-07 14:42:40.371222,-26,2025-11-07 14:42:44.925982923
2025-11-07 14:42:40.371222,-6401,2025-11-07 14:42:44.933675231
2025-11-07 14:42:40.371222,-1,2025-11-07 14:42:44.941367538
2025-11-07 14:42:40.371222,-29,2025-11-07 14:42:44.949059846
2025-11-07 14:42:40.371222,-7169,2025-11-07 14:42:44.956752154
2025-11-07 14:42:40.371222,-1,2025-11-07 14:42:44.964444462
2025-11-07 14:42:40.371222,-24,2025-11-07 14:42:44.972136769
2025-11-07 14:42:40.371222,-7169,2025-11-07 14:42:44.979829077
2025-11-07 14:42:40.371222,-1,2025-11-07 14:42:44.987521385
2025-11-07 14:42:40.371222,-34,2025-11-07 14:42:44.995213692
2025-11-07 14:42:40.371222,-4609,2025-11-07 14:42:45.002906000
2025-11-07 14:42:40.371222,-1,2025-11-07 14:42:45.010598308
2025-11-07 14:42:40.371222,-7,2025-11-07 14:42:45.018290615
2025-11-07 14:42:40.371222,-3329,2025-11-07 14:42:45.025982923
2025-11-07 14:42:40.371222,-1,2025-11-07 14:42:45.033675231
2025-11-07 14:42:40.371222,-17,2025-11-07 14:42:45.041367538
2025-11-07 14:42:40.371222,767,2025-11-07 14:42:45.049059846
2025-11-07 14:42:40.371222,0,2025-11-07 14:42:45.056752154
2025-11-07 14:42:40.371222,2,2025-11-07 14:42:45.064444462
2025-11-07 14:42:40.371222,-3584,2025-11-07 14:42:45.072136769
2025-11-07 14:42:40.371222,-1,2025-11-07 14:42:45.079829077
2025-11-07 14:42:40.371222,-7,2025-11-07 14:42:45.087521385
2025-11-07 14:42:40.371222,2047,2025-11-07 14:42:45.095213692
2025-11-07 14:42:40.371222,0,2025-11-07 14:42:45.102906000
2025-11-07 14:42:40.371222,0,2025-11-07 14:42:45.110598308
2025-11-07 14:42:40.371222,-1792,2025-11-07 14:42:45.118290615
2025-11-07 14:42:40.371222,-1,2025-11-07 14:42:45.125982923
2025-11-07 14:42:40.371222,4,2025-11-07 14:42:45.133675231
2025-11-07 14:42:40.371222,4352,2025-11-07 14:42:45.141367538
2025-11-07 14:42:40.371222,0,2025-11-07 14:42:45.149059846
2025-11-07 14:42:40.371222,4,2025-11-07 14:42:45.156752154
2025-11-07 14:42:40.371222,512,2025-11-07 14:42:45.164444462
2025-11-07 14:42:40.371222,0,2025-11-07 14:42:45.172136769
2025-11-07 14:42:40.371222,14,2025-11-07 14:42:45.179829077
2025-11-07 14:42:40.371222,3072,2025-11-07 14:42:45.187521385
2025-11-07 14:42:40.371222,0,2025-11-07 14:42:45.195213692
2025-11-07 14:42:40.371222,19,2025-11-07 14:42:45.202906000
2025-11-07 14:42:40.371222,4864,2025-11-07 14:42:45.210598308
2025-11-07 14:42:40.371222,0,2025-11-07 14:42:45.218290615
2025-11-07 14:42:40.371222,0,2025-11-07 14:42:45.225982923
2025-11-07 14:42:40.371222,-512,2025-11-07 14:42:45.233675231
2025-11-07 14:42:40.371222,-1,2025-11-07 14:42:45.241367538
2025-11-07 14:42:40.371222,7,2025-11-07 14:42:45.249059846
2025-11-07 14:42:40.371222,0,2025-11-07 14:42:45.256752154
2025-11-07 14:42:40.371222,0,2025-11-07 14:42:45.264444462
2025-11-07 14:42:40.371222,0,2025-11-07 14:42:45.272136769
2025-11-07 14:42:40.371222,4352,2025-11-07 14:42:45.279829077
2025-11-07 14:42:40.371222,0,2025-11-07 14:42:45.287521385
2025-11-07 14:42:40.371222,21,2025-11-07 14:42:45.295213692
2025-11-07 14:42:40.371222,1024,2025-11-07 14:42:45.302906000
2025-11-07 14:42:40.371222,0,2025-11-07 14:42:45.310598308
2025-11-07 14:42:40.371222,-4,2025-11-07 14:42:45.318290615
2025-11-07 14:42:40.371222,2559,2025-11-07 14:42:45.325982923
2025-11-07 14:42:40.371222,0,2025-11-07 14:42:45.333675231
2025-11-07 14:42:40.371222,14,2025-11-07 14:42:45.341367538
2025-11-07 14:42:40.371222,0,2025-11-07 14:42:45.349059846
2025-11-07 14:42:40.371222,0,2025-11-07 14:42:45.356752154
2025-11-07 14:42:40.371222,0,2025-11-07 14:42:45.364444462
2025-11-07 14:42:40.371222,4352,2025-11-07 14:42:45.372136769
2025-11-07 14:42:40.371222,0,2025-11-07 14:42:45.379829077
2025-11-07 14:42:40.371222,12,2025-11-07 14:42:45.387521385
2025-11-07 14:42:40.371222,-3072,2025-11-07 14:42:45.395213692
2025-11-07 14:42:40.371222,-1,2025-11-07 14:42:45.402906000
2025-11-07 14:42:40.371222,-31,2025-11-07 14:42:45.410598308
2025-11-07 14:42:40.956983,-31,2025-11-07 14:42:45.418290615
2025-11-07 14:42:40.956983,-5889,2025-11-07 14:42:45.425982923
2025-11-07 14:42:40.956983,-1,2025-11-07 14:42:45.433675231
2025-11-07 14:42:40.956983,-34,2025-11-07 14:42:45.441367538
2025-11-07 14:42:40.956983,-11521,2025-11-07 14:42:45.449059846
2025-11-07 14:42:40.956983,-1,2025-11-07 14:42:45.456752154
2025-11-07 14:42:40.956983,-38,2025-11-07 14:42:45.464444462
2025-11-07 14:42:40.956983,2559,2025-11-07 14:42:45.472136769
2025-11-07 14:42:40.956983,0,2025-11-07 14:42:45.479829077
2025-11-07 14:42:40.956983,63,2025-11-07 14:42:45.487521385
2025-11-07 14:42:40.956983,13568,2025-11-07 14:42:45.495213692
2025-11-07 14:42:40.956983,0,2025-11-07 14:42:45.502906000
2025-11-07 14:42:40.956983,7,2025-11-07 14:42:45.510598308
2025-11-07 14:42:40.956983,1024,2025-11-07 14:42:45.518290615
2025-11-07 14:42:40.956983,0,2025-11-07 14:42:45.525982923
2025-11-07 14:42:40.956983,26,2025-11-07 14:42:45.533675230
2025-11-07 14:42:40.956983,5376,2025-11-07 14:42:45.541367538
2025-11-07 14:42:40.956983,0,2025-11-07 14:42:45.549059846
2025-11-07 14:42:40.956983,7,2025-11-07 14:42:45.556752154
2025-11-07 14:42:40.956983,-3584,2025-11-07 14:42:45.564444462
2025-11-07 14:42:40.956983,-1,2025-11-07 14:42:45.572136769
2025-11-07 14:42:40.956983,-72,2025-11-07 14:42:45.579829077
2025-11-07 14:42:40.956983,-9473,2025-11-07 14:42:45.587521385
2025-11-07 14:42:40.956983,-1,2025-11-07 14:42:45.595213692
2025-11-07 14:42:40.956983,403,2025-11-07 14:42:45.602906000
2025-11-07 14:42:40.956983,-22528,2025-11-07 14:42:45.610598308
2025-11-07 14:42:40.956983,4,2025-11-07 14:42:45.618290615
2025-11-07 14:42:40.956983,1535,2025-11-07 14:42:45.625982923
2025-11-07 14:42:40.956983,4352,2025-11-07 14:42:45.633675231
2025-11-07 14:42:40.956983,4,2025-11-07 14:42:45.641367538
2025-11-07 14:42:40.956983,384,2025-11-07 14:42:45.649059846
2025-11-07 14:42:40.956983,19200,2025-11-07 14:42:45.656752154
2025-11-07 14:42:40.956983,0,2025-11-07 14:42:45.664444462
2025-11-07 14:42:40.956983,-65,2025-11-07 14:42:45.672136769
2025-11-07 14:42:40.956983,24063,2025-11-07 14:42:45.679829077
2025-11-07 14:42:40.956983,-1,2025-11-07 14:42:45.687521385
2025-11-07 14:42:40.956983,-165,2025-11-07 14:42:45.695213692
2025-11-07 14:42:40.956983,24831,2025-11-07 14:42:45.702906000
2025-11-07 14:42:40.956983,-1,2025-11-07 14:42:45.710598308
2025-11-07 14:42:40.956983,-180,2025-11-07 14:42:45.718290615
2025-11-07 14:42:40.956983,19711,2025-11-07 14:42:45.725982923
2025-11-07 14:42:40.956983,-1,2025-11-07 14:42:45.733675231
2025-11-07 14:42:40.956983,-170,2025-11-07 14:42:45.741367538
2025-11-07 14:42:40.956983,23039,2025-11-07 14:42:45.749059846
2025-11-07 14:42:40.956983,-1,2025-11-07 14:42:45.756752154
2025-11-07 14:42:40.956983,-163,2025-11-07 14:42:45.764444462
2025-11-07 14:42:40.956983,25343,2025-11-07 14:42:45.772136769
2025-11-07 14:42:40.956983,-1,2025-11-07 14:42:45.779829077
2025-11-07 14:42:40.956983,-155,2025-11-07 14:42:45.787521385
2025-11-07 14:42:40.956983,27391,2025-11-07 14:42:45.795213692
2025-11-07 14:42:40.956983,-1,2025-11-07 14:42:45.802906000
2025-11-07 14:42:40.956983,-133,2025-11-07 14:42:45.810598308
2025-11-07 14:42:40.956983,-31489,2025-11-07 14:42:45.818290615
2025-11-07 14:42:40.956983,-1,2025-11-07 14:42:45.825982923
2025-11-07 14:42:40.956983,-121,2025-11-07 14:42:45.833675231
2025-11-07 14:42:40.956983,-30721,2025-11-07 14:42:45.841367538
2025-11-07 14:42:40.956983,-1,2025-11-07 14:42:45.849059846
2025-11-07 14:42:40.956983,-114,2025-11-07 14:42:45.856752154
2025-11-07 14:42:40.956983,-23297,2025-11-07 14:42:45.864444462
2025-11-07 14:42:40.956983,-1,2025-11-07 14:42:45.872136769
2025-11-07 14:42:40.956983,-77,2025-11-07 14:42:45.879829077
2025-11-07 14:42:40.956983,-18945,2025-11-07 14:42:45.887521385
2025-11-07 14:42:40.956983,-1,2025-11-07 14:42:45.895213692
2025-11-07 14:42:40.956983,-63,2025-11-07 14:42:45.902906000
2025-11-07 14:42:40.956983,-14593,2025-11-07 14:42:45.910598308
2025-11-07 14:42:40.956983,-1,2025-11-07 14:42:45.918290615
2025-11-07 14:42:40.956983,-60,2025-11-07 14:42:45.925982923
2025-11-07 14:42:40.956983,-14593,2025-11-07 14:42:45.933675231
2025-11-07 14:42:40.956983,-1,2025-11-07 14:42:45.941367538
2025-11-07 14:42:40.956983,-72,2025-11-07 14:42:45.949059846
2025-11-07 14:42:40.956983,-27137,2025-11-07 14:42:45.956752154
2025-11-07 14:42:40.956983,-1,2025-11-07 14:42:45.964444462
2025-11-07 14:42:40.956983,-138,2025-11-07 14:42:45.972136769
2025-11-07 14:42:40.956983,20479,2025-11-07 14:42:45.979829077
2025-11-07 14:42:40.956983,-1,2025-11-07 14:42:45.987521385
2025-11-07 14:42:40.956983,-204,2025-11-07 14:42:45.995213692
2025-11-07 14:42:40.956983,13567,2025-11-07 14:42:46.002906000
2025-11-07 14:42:40.956983,-1,2025-11-07 14:42:46.010598308
2025-11-07 14:42:40.956983,-209,2025-11-07 14:42:46.018290615
2025-11-07 14:42:40.956983,11007,2025-11-07 14:42:46.025982923
2025-11-07 14:42:40.956983,-1,2025-11-07 14:42:46.033675231
2025-11-07 14:42:40.956983,-204,2025-11-07 14:42:46.041367538
2025-11-07 14:42:40.956983,15359,2025-11-07 14:42:46.049059846
2025-11-07 14:42:40.956983,-1,2025-11-07 14:42:46.056752154
2025-11-07 14:42:40.956983,-197,2025-11-07 14:42:46.064444462
2025-11-07 14:42:40.956983,19199,2025-11-07 14:42:46.072136769
2025-11-07 14:42:40.956983,-1,2025-11-07 14:42:46.079829077
2025-11-07 14:42:40.956983,-165,2025-11-07 14:42:46.087521385
2025-11-07 14:42:40.956983,20479,2025-11-07 14:42:46.095213692
2025-11-07 14:42:40.956983,-1,2025-11-07 14:42:46.102906000
2025-11-07 14:42:40.956983,-180,2025-11-07 14:42:46.110598308
2025-11-07 14:42:40.956983,29695,2025-11-07 14:42:46.118290615
2025-11-07 14:42:40.956983,-1,2025-11-07 14:42:46.125982923
2025-11-07 14:42:40.956983,-124,2025-11-07 14:42:46.133675231
2025-11-07 14:42:40.956983,28671,2025-11-07 14:42:46.141367538
2025-11-07 14:42:40.956983,-1,2025-11-07 14:42:46.149059846
2025-11-07 14:42:40.956983,-133,2025-11-07 14:42:46.156752154
2025-11-07 14:42:40.956983,-27137,2025-11-07 14:42:46.164444462
2025-11-07 14:42:40.956983,-1,2025-11-07 14:42:46.172136769
2025-11-07 14:42:40.956983,-104,2025-11-07 14:42:46.179829077
2025-11-07 14:42:40.956983,-25857,2025-11-07 14:42:46.187521385
2025-11-07 14:42:40.956983,-1,2025-11-07 14:42:46.195213692
2025-11-07 14:42:40.956983,-90,2025-11-07 14:42:46.202906000
2025-11-07 14:42:40.956983,-19457,2025-11-07 14:42:46.210598308
2025-11-07 14:42:40.956983,-1,2025-11-07 14:42:46.218290615
2025-11-07 14:42:40.956983,-65,2025-11-07 14:42:46.225982923
2025-11-07 14:42:40.956983,-15105,2025-11-07 14:42:46.233675231
2025-11-07 14:42:40.956983,-1,2025-11-07 14:42:46.241367538
2025-11-07 14:42:40.956983,-60,2025-11-07 14:42:46.249059846
2025-11-07 14:42:41.540422,-46,2025-11-07 14:42:46.256752154
2025-11-07 14:42:41.540422,-5889,2025-11-07 14:42:46.264444462
2025-11-07 14:42:41.540422,-1,2025-11-07 14:42:46.272136769
2025-11-07 14:42:41.540422,-21,2025-11-07 14:42:46.279829077
2025-11-07 14:42:41.540422,-4097,2025-11-07 14:42:46.287521385
2025-11-07 14:42:41.540422,-1,2025-11-07 14:42:46.295213692
2025-11-07 14:42:41.540422,-2,2025-11-07 14:42:46.302906000
2025-11-07 14:42:41.540422,2047,2025-11-07 14:42:46.310598308
2025-11-07 14:42:41.540422,0,2025-11-07 14:42:46.318290615
2025-11-07 14:42:41.540422,4,2025-11-07 14:42:46.325982923
2025-11-07 14:42:41.540422,2304,2025-11-07 14:42:46.333675231
2025-11-07 14:42:41.540422,0,2025-11-07 14:42:46.341367538
2025-11-07 14:42:41.540422,24,2025-11-07 14:42:46.349059846
2025-11-07 14:42:41.540422,9728,2025-11-07 14:42:46.356752154
2025-11-07 14:42:41.540422,0,2025-11-07 14:42:46.364444462
2025-11-07 14:42:41.540422,43,2025-11-07 14:42:46.372136769
2025-11-07 14:42:41.540422,11776,2025-11-07 14:42:46.379829077
2025-11-07 14:42:41.540422,0,2025-11-07 14:42:46.387521385
2025-11-07 14:42:41.540422,53,2025-11-07 14:42:46.395213692
2025-11-07 14:42:41.540422,15360,2025-11-07 14:42:46.402906000
2025-11-07 14:42:41.540422,0,2025-11-07 14:42:46.410598308
2025-11-07 14:42:41.540422,55,2025-11-07 14:42:46.418290615
2025-11-07 14:42:41.540422,14848,2025-11-07 14:42:46.425982923
2025-11-07 14:42:41.540422,0,2025-11-07 14:42:46.433675231
2025-11-07 14:42:41.540422,63,2025-11-07 14:42:46.441367538
2025-11-07 14:42:41.540422,16128,2025-11-07 14:42:46.449059846
2025-11-07 14:42:41.540422,0,2025-11-07 14:42:46.456752154
2025-11-07 14:42:41.540422,63,2025-11-07 14:42:46.464444462
2025-11-07 14:42:41.540422,16640,2025-11-07 14:42:46.472136769
2025-11-07 14:42:41.540422,0,2025-11-07 14:42:46.479829077
2025-11-07 14:42:41.540422,63,2025-11-07 14:42:46.487521385
2025-11-07 14:42:41.540422,15360,2025-11-07 14:42:46.495213692
2025-11-07 14:42:41.540422,0,2025-11-07 14:42:46.502906000
2025-11-07 14:42:41.540422,60,2025-11-07 14:42:46.510598308
2025-11-07 14:42:41.540422,15360,2025-11-07 14:42:46.518290615
2025-11-07 14:42:41.540422,0,2025-11-07 14:42:46.525982923
2025-11-07 14:42:41.540422,60,2025-11-07 14:42:46.533675230
2025-11-07 14:42:41.540422,13056,2025-11-07 14:42:46.541367538
2025-11-07 14:42:41.540422,0,2025-11-07 14:42:46.549059846
2025-11-07 14:42:41.540422,41,2025-11-07 14:42:46.556752154
2025-11-07 14:42:41.540422,8704,2025-11-07 14:42:46.564444462
2025-11-07 14:42:41.540422,0,2025-11-07 14:42:46.572136769
2025-11-07 14:42:41.540422,24,2025-11-07 14:42:46.579829077
2025-11-07 14:42:41.540422,3584,2025-11-07 14:42:46.587521385
2025-11-07 14:42:41.540422,0,2025-11-07 14:42:46.595213692
2025-11-07 14:42:41.540422,7,2025-11-07 14:42:46.602906000
2025-11-07 14:42:41.540422,4352,2025-11-07 14:42:46.610598308
2025-11-07 14:42:41.540422,0,2025-11-07 14:42:46.618290615
2025-11-07 14:42:41.540422,36,2025-11-07 14:42:46.625982923
2025-11-07 14:42:41.540422,15360,2025-11-07 14:42:46.633675231
2025-11-07 14:42:41.540422,0,2025-11-07 14:42:46.641367538
2025-11-07 14:42:41.540422,77,2025-11-07 14:42:46.649059846
2025-11-07 14:42:41.540422,14848,2025-11-07 14:42:46.656752154
2025-11-07 14:42:41.540422,0,2025-11-07 14:42:46.664444462
2025-11-07 14:42:41.540422,36,2025-11-07 14:42:46.672136769
2025-11-07 14:42:41.540422,11008,2025-11-07 14:42:46.679829077
2025-11-07 14:42:41.540422,0,2025-11-07 14:42:46.687521385
2025-11-07 14:42:41.540422,51,2025-11-07 14:42:46.695213692
2025-11-07 14:42:41.540422,12288,2025-11-07 14:42:46.702906000
2025-11-07 14:42:41.540422,0,2025-11-07 14:42:46.710598308
2025-11-07 14:42:41.540422,36,2025-11-07 14:42:46.718290615
2025-11-07 14:42:41.540422,512,2025-11-07 14:42:46.725982923
2025-11-07 14:42:41.540422,0,2025-11-07 14:42:46.733675231
2025-11-07 14:42:41.540422,-29,2025-11-07 14:42:46.741367538
2025-11-07 14:42:41.540422,-21761,2025-11-07 14:42:46.749059846
2025-11-07 14:42:41.540422,0,2025-11-07 14:42:46.756752154
2025-11-07 14:42:41.540422,815,2025-11-07 14:42:46.764444462
2025-11-07 14:42:41.540422,-27136,2025-11-07 14:42:46.772136769
2025-11-07 14:42:41.540422,5,2025-11-07 14:42:46.779829077
2025-11-07 14:42:41.540422,1275,2025-11-07 14:42:46.787521385
2025-11-07 14:42:41.540422,27136,2025-11-07 14:42:46.795213692
2025-11-07 14:42:41.540422,2,2025-11-07 14:42:46.802906000
2025-11-07 14:42:41.540422,197,2025-11-07 14:42:46.810598308
2025-11-07 14:42:41.540422,13056,2025-11-07 14:42:46.818290615
2025-11-07 14:42:41.540422,0,2025-11-07 14:42:46.825982923
2025-11-07 14:42:41.540422,-58,2025-11-07 14:42:46.833675231
2025-11-07 14:42:41.540422,-31489,2025-11-07 14:42:46.841367538
2025-11-07 14:42:41.540422,-1,2025-11-07 14:42:46.849059846
2025-11-07 14:42:41.540422,-119,2025-11-07 14:42:46.856752154
2025-11-07 14:42:41.540422,-28929,2025-11-07 14:42:46.864444462
2025-11-07 14:42:41.540422,-1,2025-11-07 14:42:46.872136769
2025-11-07 14:42:41.540422,-121,2025-11-07 14:42:46.879829077
2025-11-07 14:42:41.540422,-27649,2025-11-07 14:42:46.887521385
2025-11-07 14:42:41.540422,-1,2025-11-07 14:42:46.895213692
2025-11-07 14:42:41.540422,-97,2025-11-07 14:42:46.902906000
2025-11-07 14:42:41.540422,-24577,2025-11-07 14:42:46.910598308
2025-11-07 14:42:41.540422,-1,2025-11-07 14:42:46.918290615
2025-11-07 14:42:41.540422,-92,2025-11-07 14:42:46.925982923
2025-11-07 14:42:41.540422,-19457,2025-11-07 14:42:46.933675231
2025-11-07 14:42:41.540422,-1,2025-11-07 14:42:46.941367538
2025-11-07 14:42:41.540422,-68,2025-11-07 14:42:46.949059846
2025-11-07 14:42:41.540422,-15873,2025-11-07 14:42:46.956752154
2025-11-07 14:42:41.540422,-1,2025-11-07 14:42:46.964444462
2025-11-07 14:42:41.540422,-51,2025-11-07 14:42:46.972136769
2025-11-07 14:42:41.540422,-8961,2025-11-07 14:42:46.979829077
2025-11-07 14:42:41.540422,-1,2025-11-07 14:42:46.987521385
2025-11-07 14:42:41.540422,-31,2025-11-07 14:42:46.995213692
2025-11-07 14:42:41.540422,-4097,2025-11-07 14:42:47.002906000
2025-11-07 14:42:41.540422,-1,2025-11-07 14:42:47.010598308
2025-11-07 14:42:41.540422,7,2025-11-07 14:42:47.018290615
2025-11-07 14:42:41.540422,5376,2025-11-07 14:42:47.025982923
2025-11-07 14:42:41.540422,0,2025-11-07 14:42:47.033675231
2025-11-07 14:42:41.540422,34,2025-11-07 14:42:47.041367538
2025-11-07 14:42:41.540422,13056,2025-11-07 14:42:47.049059846
2025-11-07 14:42:41.540422,0,2025-11-07 14:42:47.056752154
2025-11-07 14:42:41.540422,68,2025-11-07 14:42:47.064444462
2025-11-07 14:42:41.540422,19200,2025-11-07 14:42:47.072136769
2025-11-07 14:42:41.540422,0,2025-11-07 14:42:47.079829077
2025-11-07 14:42:41.540422,72,2025-11-07 14:42:47.087521385
2025-11-07 14:42:42.081210,72,2025-11-07 14:42:47.095213692
2025-11-07 14:42:42.081210,14848,2025-11-07 14:42:47.102906000
2025-11-07 14:42:42.081210,0,2025-11-07 14:42:47.110598308
