timestamp,ecg,reconstructed_time
2025-11-07 14:11:38.867348,-36,2025-11-07 14:11:38.867348000
2025-11-07 14:11:38.867348,10495,2025-11-07 14:11:38.875040308
2025-11-07 14:11:38.867348,-1,2025-11-07 14:11:38.882732615
2025-11-07 14:11:38.867348,-171,2025-11-07 14:11:38.890424923
2025-11-07 14:11:38.867348,-29185,2025-11-07 14:11:38.898117231
2025-11-07 14:11:38.867348,-1,2025-11-07 14:11:38.905809538
2025-11-07 14:11:38.867348,-161,2025-11-07 14:11:38.913501846
2025-11-07 14:11:38.867348,26367,2025-11-07 14:11:38.921194154
2025-11-07 14:11:38.867348,-1,2025-11-07 14:11:38.928886462
2025-11-07 14:11:38.867348,-125,2025-11-07 14:11:38.936578769
2025-11-07 14:11:38.867348,-28673,2025-11-07 14:11:38.944271077
2025-11-07 14:11:38.867348,-1,2025-11-07 14:11:38.951963385
2025-11-07 14:11:38.867348,-93,2025-11-07 14:11:38.959655692
2025-11-07 14:11:38.867348,-21761,2025-11-07 14:11:38.967348000
2025-11-07 14:11:38.867348,-1,2025-11-07 14:11:38.975040308
2025-11-07 14:11:38.867348,-93,2025-11-07 14:11:38.982732615
2025-11-07 14:11:38.867348,-22529,2025-11-07 14:11:38.990424923
2025-11-07 14:11:38.867348,-1,2025-11-07 14:11:38.998117231
2025-11-07 14:11:38.867348,-72,2025-11-07 14:11:39.005809538
2025-11-07 14:11:38.867348,-16385,2025-11-07 14:11:39.013501846
2025-11-07 14:11:38.867348,-1,2025-11-07 14:11:39.021194154
2025-11-07 14:11:38.867348,-60,2025-11-07 14:11:39.028886462
2025-11-07 14:11:38.867348,-12033,2025-11-07 14:11:39.036578769
2025-11-07 14:11:38.867348,-1,2025-11-07 14:11:39.044271077
2025-11-07 14:11:38.867348,-55,2025-11-07 14:11:39.051963385
2025-11-07 14:11:38.867348,-16385,2025-11-07 14:11:39.059655692
2025-11-07 14:11:38.867348,-1,2025-11-07 14:11:39.067348000
2025-11-07 14:11:38.867348,-60,2025-11-07 14:11:39.075040308
2025-11-07 14:11:38.867348,-13825,2025-11-07 14:11:39.082732615
2025-11-07 14:11:38.867348,-1,2025-11-07 14:11:39.090424923
2025-11-07 14:11:38.867348,-69,2025-11-07 14:11:39.098117231
2025-11-07 14:11:38.867348,-21249,2025-11-07 14:11:39.105809538
2025-11-07 14:11:38.867348,-1,2025-11-07 14:11:39.113501846
2025-11-07 14:11:38.867348,-77,2025-11-07 14:11:39.121194154
2025-11-07 14:11:38.867348,-17409,2025-11-07 14:11:39.128886462
2025-11-07 14:11:38.867348,-1,2025-11-07 14:11:39.136578769
2025-11-07 14:11:38.867348,-77,2025-11-07 14:11:39.144271077
2025-11-07 14:11:38.867348,-25601,2025-11-07 14:11:39.151963385
2025-11-07 14:11:38.867348,-1,2025-11-07 14:11:39.159655692
2025-11-07 14:11:38.867348,-130,2025-11-07 14:11:39.167348000
2025-11-07 14:11:38.867348,27135,2025-11-07 14:11:39.175040308
2025-11-07 14:11:38.867348,-1,2025-11-07 14:11:39.182732615
2025-11-07 14:11:38.867348,-158,2025-11-07 14:11:39.190424923
2025-11-07 14:11:38.867348,24575,2025-11-07 14:11:39.198117231
2025-11-07 14:11:38.867348,-1,2025-11-07 14:11:39.205809538
2025-11-07 14:11:38.867348,-163,2025-11-07 14:11:39.213501846
2025-11-07 14:11:38.867348,22783,2025-11-07 14:11:39.221194154
2025-11-07 14:11:38.867348,-1,2025-11-07 14:11:39.228886462
2025-11-07 14:11:38.867348,-166,2025-11-07 14:11:39.236578769
2025-11-07 14:11:38.867348,26367,2025-11-07 14:11:39.244271077
2025-11-07 14:11:38.867348,-1,2025-11-07 14:11:39.251963385
2025-11-07 14:11:38.867348,-158,2025-11-07 14:11:39.259655692
2025-11-07 14:11:38.867348,20991,2025-11-07 14:11:39.267348000
2025-11-07 14:11:38.867348,-1,2025-11-07 14:11:39.275040308
2025-11-07 14:11:38.867348,-180,2025-11-07 14:11:39.282732615
2025-11-07 14:11:38.867348,22783,2025-11-07 14:11:39.290424923
2025-11-07 14:11:38.867348,-1,2025-11-07 14:11:39.298117231
2025-11-07 14:11:38.867348,-161,2025-11-07 14:11:39.305809538
2025-11-07 14:11:38.867348,23295,2025-11-07 14:11:39.313501846
2025-11-07 14:11:38.867348,-1,2025-11-07 14:11:39.321194154
2025-11-07 14:11:38.867348,-168,2025-11-07 14:11:39.328886462
2025-11-07 14:11:38.867348,22783,2025-11-07 14:11:39.336578769
2025-11-07 14:11:38.867348,-1,2025-11-07 14:11:39.344271077
2025-11-07 14:11:38.867348,-171,2025-11-07 14:11:39.351963385
2025-11-07 14:11:38.867348,20991,2025-11-07 14:11:39.359655692
2025-11-07 14:11:38.867348,-1,2025-11-07 14:11:39.367348000
2025-11-07 14:11:38.867348,-183,2025-11-07 14:11:39.375040308
2025-11-07 14:11:38.867348,20991,2025-11-07 14:11:39.382732615
2025-11-07 14:11:38.867348,-1,2025-11-07 14:11:39.390424923
2025-11-07 14:11:38.867348,-168,2025-11-07 14:11:39.398117230
2025-11-07 14:11:38.867348,22015,2025-11-07 14:11:39.405809538
2025-11-07 14:11:38.867348,-1,2025-11-07 14:11:39.413501846
2025-11-07 14:11:38.867348,-144,2025-11-07 14:11:39.421194154
2025-11-07 14:11:38.867348,32511,2025-11-07 14:11:39.428886462
2025-11-07 14:11:38.867348,-1,2025-11-07 14:11:39.436578769
2025-11-07 14:11:38.867348,-158,2025-11-07 14:11:39.444271077
2025-11-07 14:11:38.867348,25343,2025-11-07 14:11:39.451963385
2025-11-07 14:11:38.867348,-1,2025-11-07 14:11:39.459655692
2025-11-07 14:11:38.867348,-130,2025-11-07 14:11:39.467348000
2025-11-07 14:11:38.867348,-31745,2025-11-07 14:11:39.475040308
2025-11-07 14:11:38.867348,-1,2025-11-07 14:11:39.482732615
2025-11-07 14:11:38.867348,-134,2025-11-07 14:11:39.490424923
2025-11-07 14:11:38.867348,29439,2025-11-07 14:11:39.498117231
2025-11-07 14:11:38.867348,-1,2025-11-07 14:11:39.505809538
2025-11-07 14:11:38.867348,-166,2025-11-07 14:11:39.513501846
2025-11-07 14:11:38.867348,3583,2025-11-07 14:11:39.521194154
2025-11-07 14:11:38.867348,-1,2025-11-07 14:11:39.528886462
2025-11-07 14:11:38.867348,-187,2025-11-07 14:11:39.536578769
2025-11-07 14:11:38.867348,27135,2025-11-07 14:11:39.544271077
2025-11-07 14:11:38.867348,1,2025-11-07 14:11:39.551963385
2025-11-07 14:11:38.867348,917,2025-11-07 14:11:39.559655692
2025-11-07 14:11:38.867348,-2816,2025-11-07 14:11:39.567348000
2025-11-07 14:11:38.867348,1,2025-11-07 14:11:39.575040308
2025-11-07 14:11:38.867348,-257,2025-11-07 14:11:39.582732615
2025-11-07 14:11:38.867348,4863,2025-11-07 14:11:39.590424923
2025-11-07 14:11:38.867348,-1,2025-11-07 14:11:39.598117231
2025-11-07 14:11:38.867348,-60,2025-11-07 14:11:39.605809538
2025-11-07 14:11:38.867348,511,2025-11-07 14:11:39.613501846
2025-11-07 14:11:38.867348,-1,2025-11-07 14:11:39.621194154
2025-11-07 14:11:38.867348,-293,2025-11-07 14:11:39.628886462
2025-11-07 14:11:38.867348,20223,2025-11-07 14:11:39.636578769
2025-11-07 14:11:38.867348,-1,2025-11-07 14:11:39.644271077
2025-11-07 14:11:38.867348,-207,2025-11-07 14:11:39.651963385
2025-11-07 14:11:38.867348,4351,2025-11-07 14:11:39.659655692
2025-11-07 14:11:38.867348,-1,2025-11-07 14:11:39.667348000
2025-11-07 14:11:38.867348,-199,2025-11-07 14:11:39.675040308
2025-11-07 14:11:38.867348,15359,2025-11-07 14:11:39.682732615
2025-11-07 14:11:38.867348,-1,2025-11-07 14:11:39.690424923
2025-11-07 14:11:38.867348,-209,2025-11-07 14:11:39.698117231
2025-11-07 14:11:39.406879,-197,2025-11-07 14:11:39.705809538
2025-11-07 14:11:39.406879,17919,2025-11-07 14:11:39.713501846
2025-11-07 14:11:39.406879,-1,2025-11-07 14:11:39.721194154
2025-11-07 14:11:39.406879,-183,2025-11-07 14:11:39.728886462
2025-11-07 14:11:39.406879,20991,2025-11-07 14:11:39.736578769
2025-11-07 14:11:39.406879,-1,2025-11-07 14:11:39.744271077
2025-11-07 14:11:39.406879,-175,2025-11-07 14:11:39.751963385
2025-11-07 14:11:39.406879,24063,2025-11-07 14:11:39.759655692
2025-11-07 14:11:39.406879,-1,2025-11-07 14:11:39.767348000
2025-11-07 14:11:39.406879,-144,2025-11-07 14:11:39.775040308
2025-11-07 14:11:39.406879,30719,2025-11-07 14:11:39.782732615
2025-11-07 14:11:39.406879,-1,2025-11-07 14:11:39.790424923
2025-11-07 14:11:39.406879,-144,2025-11-07 14:11:39.798117231
2025-11-07 14:11:39.406879,28927,2025-11-07 14:11:39.805809538
2025-11-07 14:11:39.406879,-1,2025-11-07 14:11:39.813501846
2025-11-07 14:11:39.406879,-139,2025-11-07 14:11:39.821194154
2025-11-07 14:11:39.406879,-32257,2025-11-07 14:11:39.828886462
2025-11-07 14:11:39.406879,-1,2025-11-07 14:11:39.836578769
2025-11-07 14:11:39.406879,-115,2025-11-07 14:11:39.844271077
2025-11-07 14:11:39.406879,-29953,2025-11-07 14:11:39.851963385
2025-11-07 14:11:39.406879,-1,2025-11-07 14:11:39.859655692
2025-11-07 14:11:39.406879,-125,2025-11-07 14:11:39.867348000
2025-11-07 14:11:39.406879,29439,2025-11-07 14:11:39.875040308
2025-11-07 14:11:39.406879,-1,2025-11-07 14:11:39.882732615
2025-11-07 14:11:39.406879,-168,2025-11-07 14:11:39.890424923
2025-11-07 14:11:39.406879,18431,2025-11-07 14:11:39.898117231
2025-11-07 14:11:39.406879,-1,2025-11-07 14:11:39.905809538
2025-11-07 14:11:39.406879,-204,2025-11-07 14:11:39.913501846
2025-11-07 14:11:39.406879,8447,2025-11-07 14:11:39.921194154
2025-11-07 14:11:39.406879,-1,2025-11-07 14:11:39.928886462
2025-11-07 14:11:39.406879,-224,2025-11-07 14:11:39.936578769
2025-11-07 14:11:39.406879,9215,2025-11-07 14:11:39.944271077
2025-11-07 14:11:39.406879,-1,2025-11-07 14:11:39.951963385
2025-11-07 14:11:39.406879,-219,2025-11-07 14:11:39.959655692
2025-11-07 14:11:39.406879,12287,2025-11-07 14:11:39.967348000
2025-11-07 14:11:39.406879,-1,2025-11-07 14:11:39.975040308
2025-11-07 14:11:39.406879,-204,2025-11-07 14:11:39.982732615
2025-11-07 14:11:39.406879,12799,2025-11-07 14:11:39.990424923
2025-11-07 14:11:39.406879,-1,2025-11-07 14:11:39.998117231
2025-11-07 14:11:39.406879,-202,2025-11-07 14:11:40.005809538
2025-11-07 14:11:39.406879,14847,2025-11-07 14:11:40.013501846
2025-11-07 14:11:39.406879,-1,2025-11-07 14:11:40.021194154
2025-11-07 14:11:39.406879,-199,2025-11-07 14:11:40.028886462
2025-11-07 14:11:39.406879,16639,2025-11-07 14:11:40.036578769
2025-11-07 14:11:39.406879,-1,2025-11-07 14:11:40.044271077
2025-11-07 14:11:39.406879,-187,2025-11-07 14:11:40.051963385
2025-11-07 14:11:39.406879,17151,2025-11-07 14:11:40.059655692
2025-11-07 14:11:39.406879,-1,2025-11-07 14:11:40.067348000
2025-11-07 14:11:39.406879,-187,2025-11-07 14:11:40.075040308
2025-11-07 14:11:39.406879,16639,2025-11-07 14:11:40.082732615
2025-11-07 14:11:39.406879,-1,2025-11-07 14:11:40.090424923
2025-11-07 14:11:39.406879,-199,2025-11-07 14:11:40.098117231
2025-11-07 14:11:39.406879,16639,2025-11-07 14:11:40.105809538
2025-11-07 14:11:39.406879,-1,2025-11-07 14:11:40.113501846
2025-11-07 14:11:39.406879,-173,2025-11-07 14:11:40.121194154
2025-11-07 14:11:39.406879,27135,2025-11-07 14:11:40.128886462
2025-11-07 14:11:39.406879,-1,2025-11-07 14:11:40.136578769
2025-11-07 14:11:39.406879,-127,2025-11-07 14:11:40.144271077
2025-11-07 14:11:39.406879,-31745,2025-11-07 14:11:40.151963385
2025-11-07 14:11:39.406879,-1,2025-11-07 14:11:40.159655692
2025-11-07 14:11:39.406879,-154,2025-11-07 14:11:40.167348000
2025-11-07 14:11:39.406879,24575,2025-11-07 14:11:40.175040308
2025-11-07 14:11:39.406879,-1,2025-11-07 14:11:40.182732615
2025-11-07 14:11:39.406879,-137,2025-11-07 14:11:40.190424923
2025-11-07 14:11:39.406879,32511,2025-11-07 14:11:40.198117231
2025-11-07 14:11:39.406879,-1,2025-11-07 14:11:40.205809538
2025-11-07 14:11:39.406879,-139,2025-11-07 14:11:40.213501846
2025-11-07 14:11:39.406879,30207,2025-11-07 14:11:40.221194154
2025-11-07 14:11:39.406879,-1,2025-11-07 14:11:40.228886462
2025-11-07 14:11:39.406879,-151,2025-11-07 14:11:40.236578769
2025-11-07 14:11:39.406879,6655,2025-11-07 14:11:40.244271077
2025-11-07 14:11:39.406879,-1,2025-11-07 14:11:40.251963385
2025-11-07 14:11:39.406879,-151,2025-11-07 14:11:40.259655692
2025-11-07 14:11:39.406879,-11265,2025-11-07 14:11:40.267348000
2025-11-07 14:11:39.406879,1,2025-11-07 14:11:40.275040308
2025-11-07 14:11:39.406879,1136,2025-11-07 14:11:40.282732615
2025-11-07 14:11:39.406879,-5632,2025-11-07 14:11:40.290424923
2025-11-07 14:11:39.406879,2,2025-11-07 14:11:40.298117231
2025-11-07 14:11:39.406879,-161,2025-11-07 14:11:40.305809538
2025-11-07 14:11:39.406879,1279,2025-11-07 14:11:40.313501846
2025-11-07 14:11:39.406879,-1,2025-11-07 14:11:40.321194154
2025-11-07 14:11:39.406879,-28,2025-11-07 14:11:40.328886462
2025-11-07 14:11:39.406879,17919,2025-11-07 14:11:40.336578769
2025-11-07 14:11:39.406879,-1,2025-11-07 14:11:40.344271077
2025-11-07 14:11:39.406879,-255,2025-11-07 14:11:40.351963385
2025-11-07 14:11:39.406879,30207,2025-11-07 14:11:40.359655692
2025-11-07 14:11:39.406879,-1,2025-11-07 14:11:40.367348000
2025-11-07 14:11:39.406879,-154,2025-11-07 14:11:40.375040308
2025-11-07 14:11:39.406879,17919,2025-11-07 14:11:40.382732615
2025-11-07 14:11:39.406879,-1,2025-11-07 14:11:40.390424923
2025-11-07 14:11:39.406879,-142,2025-11-07 14:11:40.398117230
2025-11-07 14:11:39.406879,-32257,2025-11-07 14:11:40.405809538
2025-11-07 14:11:39.406879,-1,2025-11-07 14:11:40.413501846
2025-11-07 14:11:39.406879,-144,2025-11-07 14:11:40.421194154
2025-11-07 14:11:39.406879,32511,2025-11-07 14:11:40.428886462
2025-11-07 14:11:39.406879,-1,2025-11-07 14:11:40.436578769
2025-11-07 14:11:39.406879,-108,2025-11-07 14:11:40.444271077
2025-11-07 14:11:39.406879,-27905,2025-11-07 14:11:40.451963385
2025-11-07 14:11:39.406879,-1,2025-11-07 14:11:40.459655692
2025-11-07 14:11:39.406879,-115,2025-11-07 14:11:40.467348000
2025-11-07 14:11:39.406879,-28673,2025-11-07 14:11:40.475040308
2025-11-07 14:11:39.406879,-1,2025-11-07 14:11:40.482732615
2025-11-07 14:11:39.406879,-101,2025-11-07 14:11:40.490424923
2025-11-07 14:11:39.406879,-23553,2025-11-07 14:11:40.498117231
2025-11-07 14:11:39.406879,-1,2025-11-07 14:11:40.505809538
2025-11-07 14:11:39.406879,-103,2025-11-07 14:11:40.513501846
2025-11-07 14:11:39.406879,-26113,2025-11-07 14:11:40.521194154
2025-11-07 14:11:39.406879,-1,2025-11-07 14:11:40.528886462
2025-11-07 14:11:39.406879,-89,2025-11-07 14:11:40.536578769
2025-11-07 14:11:39.945294,-98,2025-11-07 14:11:40.544271077
2025-11-07 14:11:39.945294,-27905,2025-11-07 14:11:40.551963385
2025-11-07 14:11:39.945294,-1,2025-11-07 14:11:40.559655692
2025-11-07 14:11:39.945294,-96,2025-11-07 14:11:40.567348000
2025-11-07 14:11:39.945294,-21249,2025-11-07 14:11:40.575040308
2025-11-07 14:11:39.945294,-1,2025-11-07 14:11:40.582732615
2025-11-07 14:11:39.945294,-81,2025-11-07 14:11:40.590424923
2025-11-07 14:11:39.945294,-21249,2025-11-07 14:11:40.598117231
2025-11-07 14:11:39.945294,-1,2025-11-07 14:11:40.605809538
2025-11-07 14:11:39.945294,-93,2025-11-07 14:11:40.613501846
2025-11-07 14:11:39.945294,-22529,2025-11-07 14:11:40.621194154
2025-11-07 14:11:39.945294,-1,2025-11-07 14:11:40.628886462
2025-11-07 14:11:39.945294,-89,2025-11-07 14:11:40.636578769
2025-11-07 14:11:39.945294,-27393,2025-11-07 14:11:40.644271077
2025-11-07 14:11:39.945294,-1,2025-11-07 14:11:40.651963385
2025-11-07 14:11:39.945294,-115,2025-11-07 14:11:40.659655692
2025-11-07 14:11:39.945294,-23041,2025-11-07 14:11:40.667348000
2025-11-07 14:11:39.945294,-1,2025-11-07 14:11:40.675040308
2025-11-07 14:11:39.945294,-69,2025-11-07 14:11:40.682732615
2025-11-07 14:11:39.945294,-19969,2025-11-07 14:11:40.690424923
2025-11-07 14:11:39.945294,-1,2025-11-07 14:11:40.698117231
2025-11-07 14:11:39.945294,-89,2025-11-07 14:11:40.705809538
2025-11-07 14:11:39.945294,-21249,2025-11-07 14:11:40.713501846
2025-11-07 14:11:39.945294,-1,2025-11-07 14:11:40.721194154
2025-11-07 14:11:39.945294,-77,2025-11-07 14:11:40.728886462
2025-11-07 14:11:39.945294,-17409,2025-11-07 14:11:40.736578769
2025-11-07 14:11:39.945294,-1,2025-11-07 14:11:40.744271077
2025-11-07 14:11:39.945294,-65,2025-11-07 14:11:40.751963385
2025-11-07 14:11:39.945294,-14337,2025-11-07 14:11:40.759655692
2025-11-07 14:11:39.945294,-1,2025-11-07 14:11:40.767348000
2025-11-07 14:11:39.945294,-48,2025-11-07 14:11:40.775040308
2025-11-07 14:11:39.945294,-10753,2025-11-07 14:11:40.782732615
2025-11-07 14:11:39.945294,-1,2025-11-07 14:11:40.790424923
2025-11-07 14:11:39.945294,-52,2025-11-07 14:11:40.798117231
2025-11-07 14:11:39.945294,-19457,2025-11-07 14:11:40.805809538
2025-11-07 14:11:39.945294,-1,2025-11-07 14:11:40.813501846
2025-11-07 14:11:39.945294,-96,2025-11-07 14:11:40.821194154
2025-11-07 14:11:39.945294,-20481,2025-11-07 14:11:40.828886462
2025-11-07 14:11:39.945294,-1,2025-11-07 14:11:40.836578769
2025-11-07 14:11:39.945294,-57,2025-11-07 14:11:40.844271077
2025-11-07 14:11:39.945294,-7681,2025-11-07 14:11:40.851963385
2025-11-07 14:11:39.945294,-1,2025-11-07 14:11:40.859655692
2025-11-07 14:11:39.945294,-14,2025-11-07 14:11:40.867348000
2025-11-07 14:11:39.945294,-9473,2025-11-07 14:11:40.875040308
2025-11-07 14:11:39.945294,-1,2025-11-07 14:11:40.882732615
2025-11-07 14:11:39.945294,-65,2025-11-07 14:11:40.890424923
2025-11-07 14:11:39.945294,-10753,2025-11-07 14:11:40.898117231
2025-11-07 14:11:39.945294,-1,2025-11-07 14:11:40.905809538
2025-11-07 14:11:39.945294,-16,2025-11-07 14:11:40.913501846
2025-11-07 14:11:39.945294,-3841,2025-11-07 14:11:40.921194154
2025-11-07 14:11:39.945294,-1,2025-11-07 14:11:40.928886462
2025-11-07 14:11:39.945294,-14,2025-11-07 14:11:40.936578769
2025-11-07 14:11:39.945294,-8961,2025-11-07 14:11:40.944271077
2025-11-07 14:11:39.945294,-1,2025-11-07 14:11:40.951963385
2025-11-07 14:11:39.945294,-125,2025-11-07 14:11:40.959655692
2025-11-07 14:11:39.945294,-3841,2025-11-07 14:11:40.967348000
2025-11-07 14:11:39.945294,-1,2025-11-07 14:11:40.975040308
2025-11-07 14:11:39.945294,650,2025-11-07 14:11:40.982732615
2025-11-07 14:11:39.945294,256,2025-11-07 14:11:40.990424923
2025-11-07 14:11:39.945294,5,2025-11-07 14:11:40.998117231
2025-11-07 14:11:39.945294,797,2025-11-07 14:11:41.005809538
2025-11-07 14:11:39.945294,-31232,2025-11-07 14:11:41.013501846
2025-11-07 14:11:39.945294,-1,2025-11-07 14:11:41.021194154
2025-11-07 14:11:39.945294,-199,2025-11-07 14:11:41.028886462
2025-11-07 14:11:39.945294,6399,2025-11-07 14:11:41.036578769
2025-11-07 14:11:39.945294,0,2025-11-07 14:11:41.044271077
2025-11-07 14:11:39.945294,-115,2025-11-07 14:11:41.051963385
2025-11-07 14:11:39.945294,19711,2025-11-07 14:11:41.059655692
2025-11-07 14:11:39.945294,-1,2025-11-07 14:11:41.067348000
2025-11-07 14:11:39.945294,-81,2025-11-07 14:11:41.075040308
2025-11-07 14:11:39.945294,-26625,2025-11-07 14:11:41.082732615
2025-11-07 14:11:39.945294,-1,2025-11-07 14:11:41.090424923
2025-11-07 14:11:39.945294,-146,2025-11-07 14:11:41.098117231
2025-11-07 14:11:39.945294,-27393,2025-11-07 14:11:41.105809538
2025-11-07 14:11:39.945294,-1,2025-11-07 14:11:41.113501846
2025-11-07 14:11:39.945294,-103,2025-11-07 14:11:41.121194154
2025-11-07 14:11:39.945294,-30977,2025-11-07 14:11:41.128886462
2025-11-07 14:11:39.945294,-1,2025-11-07 14:11:41.136578769
2025-11-07 14:11:39.945294,-113,2025-11-07 14:11:41.144271077
2025-11-07 14:11:39.945294,-23553,2025-11-07 14:11:41.151963385
2025-11-07 14:11:39.945294,-1,2025-11-07 14:11:41.159655692
2025-11-07 14:11:39.945294,-89,2025-11-07 14:11:41.167348000
2025-11-07 14:11:39.945294,-20481,2025-11-07 14:11:41.175040308
2025-11-07 14:11:39.945294,-1,2025-11-07 14:11:41.182732615
2025-11-07 14:11:39.945294,-72,2025-11-07 14:11:41.190424923
2025-11-07 14:11:39.945294,-19457,2025-11-07 14:11:41.198117231
2025-11-07 14:11:39.945294,-1,2025-11-07 14:11:41.205809538
2025-11-07 14:11:39.945294,-84,2025-11-07 14:11:41.213501846
2025-11-07 14:11:39.945294,-20481,2025-11-07 14:11:41.221194154
2025-11-07 14:11:39.945294,-1,2025-11-07 14:11:41.228886462
2025-11-07 14:11:39.945294,-79,2025-11-07 14:11:41.236578769
2025-11-07 14:11:39.945294,-22529,2025-11-07 14:11:41.244271077
2025-11-07 14:11:39.945294,-1,2025-11-07 14:11:41.251963385
2025-11-07 14:11:39.945294,-98,2025-11-07 14:11:41.259655692
2025-11-07 14:11:39.945294,-24321,2025-11-07 14:11:41.267348000
2025-11-07 14:11:39.945294,-1,2025-11-07 14:11:41.275040308
2025-11-07 14:11:39.945294,-86,2025-11-07 14:11:41.282732615
2025-11-07 14:11:39.945294,-17409,2025-11-07 14:11:41.290424923
2025-11-07 14:11:39.945294,-1,2025-11-07 14:11:41.298117231
2025-11-07 14:11:39.945294,-50,2025-11-07 14:11:41.305809538
2025-11-07 14:11:39.945294,-9985,2025-11-07 14:11:41.313501846
2025-11-07 14:11:39.945294,-1,2025-11-07 14:11:41.321194154
2025-11-07 14:11:39.945294,-38,2025-11-07 14:11:41.328886462
2025-11-07 14:11:39.945294,-8193,2025-11-07 14:11:41.336578769
2025-11-07 14:11:39.945294,-1,2025-11-07 14:11:41.344271077
2025-11-07 14:11:39.945294,-28,2025-11-07 14:11:41.351963385
2025-11-07 14:11:39.945294,-7681,2025-11-07 14:11:41.359655692
2025-11-07 14:11:39.945294,-1,2025-11-07 14:11:41.367348000
2025-11-07 14:11:39.945294,-33,2025-11-07 14:11:41.375040308
2025-11-07 14:11:40.530533,-33,2025-11-07 14:11:41.382732615
2025-11-07 14:11:40.530533,-8961,2025-11-07 14:11:41.390424923
2025-11-07 14:11:40.530533,-1,2025-11-07 14:11:41.398117230
2025-11-07 14:11:40.530533,-38,2025-11-07 14:11:41.405809538
2025-11-07 14:11:40.530533,-10753,2025-11-07 14:11:41.413501846
2025-11-07 14:11:40.530533,-1,2025-11-07 14:11:41.421194154
2025-11-07 14:11:40.530533,-45,2025-11-07 14:11:41.428886462
2025-11-07 14:11:40.530533,-12033,2025-11-07 14:11:41.436578769
2025-11-07 14:11:40.530533,-1,2025-11-07 14:11:41.444271077
2025-11-07 14:11:40.530533,-43,2025-11-07 14:11:41.451963385
2025-11-07 14:11:40.530533,-9473,2025-11-07 14:11:41.459655692
2025-11-07 14:11:40.530533,-1,2025-11-07 14:11:41.467348000
2025-11-07 14:11:40.530533,-45,2025-11-07 14:11:41.475040308
2025-11-07 14:11:40.530533,-12033,2025-11-07 14:11:41.482732615
2025-11-07 14:11:40.530533,-1,2025-11-07 14:11:41.490424923
2025-11-07 14:11:40.530533,-57,2025-11-07 14:11:41.498117231
2025-11-07 14:11:40.530533,-18689,2025-11-07 14:11:41.505809538
2025-11-07 14:11:40.530533,-1,2025-11-07 14:11:41.513501846
2025-11-07 14:11:40.530533,-79,2025-11-07 14:11:41.521194154
2025-11-07 14:11:40.530533,-16385,2025-11-07 14:11:41.528886462
2025-11-07 14:11:40.530533,-1,2025-11-07 14:11:41.536578769
2025-11-07 14:11:40.530533,-33,2025-11-07 14:11:41.544271077
2025-11-07 14:11:40.530533,3327,2025-11-07 14:11:41.551963385
2025-11-07 14:11:40.530533,0,2025-11-07 14:11:41.559655692
2025-11-07 14:11:40.530533,43,2025-11-07 14:11:41.567348000
2025-11-07 14:11:40.530533,6656,2025-11-07 14:11:41.575040308
2025-11-07 14:11:40.530533,0,2025-11-07 14:11:41.582732615
2025-11-07 14:11:40.530533,-4,2025-11-07 14:11:41.590424923
2025-11-07 14:11:40.530533,255,2025-11-07 14:11:41.598117231
2025-11-07 14:11:40.530533,0,2025-11-07 14:11:41.605809538
2025-11-07 14:11:40.530533,19,2025-11-07 14:11:41.613501846
2025-11-07 14:11:40.530533,4864,2025-11-07 14:11:41.621194154
2025-11-07 14:11:40.530533,0,2025-11-07 14:11:41.628886462
2025-11-07 14:11:40.530533,12,2025-11-07 14:11:41.636578769
2025-11-07 14:11:40.530533,-1024,2025-11-07 14:11:41.644271077
2025-11-07 14:11:40.530533,-1,2025-11-07 14:11:41.651963385
2025-11-07 14:11:40.530533,-81,2025-11-07 14:11:41.659655692
2025-11-07 14:11:40.530533,-5889,2025-11-07 14:11:41.667348000
2025-11-07 14:11:40.530533,-1,2025-11-07 14:11:41.675040308
2025-11-07 14:11:40.530533,566,2025-11-07 14:11:41.682732615
2025-11-07 14:11:40.530533,-7168,2025-11-07 14:11:41.690424923
2025-11-07 14:11:40.530533,4,2025-11-07 14:11:41.698117231
2025-11-07 14:11:40.530533,917,2025-11-07 14:11:41.705809538
2025-11-07 14:11:40.530533,1024,2025-11-07 14:11:41.713501846
2025-11-07 14:11:40.530533,0,2025-11-07 14:11:41.721194154
2025-11-07 14:11:40.530533,-154,2025-11-07 14:11:41.728886462
2025-11-07 14:11:40.530533,17407,2025-11-07 14:11:41.736578769
2025-11-07 14:11:40.530533,0,2025-11-07 14:11:41.744271077
2025-11-07 14:11:40.530533,-50,2025-11-07 14:11:41.751963385
2025-11-07 14:11:40.530533,31487,2025-11-07 14:11:41.759655692
2025-11-07 14:11:40.530533,-1,2025-11-07 14:11:41.767348000
2025-11-07 14:11:40.530533,-45,2025-11-07 14:11:41.775040308
2025-11-07 14:11:40.530533,-12033,2025-11-07 14:11:41.782732615
2025-11-07 14:11:40.530533,-1,2025-11-07 14:11:41.790424923
2025-11-07 14:11:40.530533,-84,2025-11-07 14:11:41.798117231
2025-11-07 14:11:40.530533,-14337,2025-11-07 14:11:41.805809538
2025-11-07 14:11:40.530533,-1,2025-11-07 14:11:41.813501846
2025-11-07 14:11:40.530533,-43,2025-11-07 14:11:41.821194154
2025-11-07 14:11:40.530533,-15105,2025-11-07 14:11:41.828886462
2025-11-07 14:11:40.530533,-1,2025-11-07 14:11:41.836578769
2025-11-07 14:11:40.530533,-57,2025-11-07 14:11:41.844271077
2025-11-07 14:11:40.530533,-11265,2025-11-07 14:11:41.851963385
2025-11-07 14:11:40.530533,-1,2025-11-07 14:11:41.859655692
2025-11-07 14:11:40.530533,-52,2025-11-07 14:11:41.867348000
2025-11-07 14:11:40.530533,-13057,2025-11-07 14:11:41.875040308
2025-11-07 14:11:40.530533,-1,2025-11-07 14:11:41.882732615
2025-11-07 14:11:40.530533,-45,2025-11-07 14:11:41.890424923
2025-11-07 14:11:40.530533,-11265,2025-11-07 14:11:41.898117231
2025-11-07 14:11:40.530533,-1,2025-11-07 14:11:41.905809538
2025-11-07 14:11:40.530533,-48,2025-11-07 14:11:41.913501846
2025-11-07 14:11:40.530533,-12545,2025-11-07 14:11:41.921194154
2025-11-07 14:11:40.530533,-1,2025-11-07 14:11:41.928886462
2025-11-07 14:11:40.530533,-57,2025-11-07 14:11:41.936578769
2025-11-07 14:11:40.530533,-16897,2025-11-07 14:11:41.944271077
2025-11-07 14:11:40.530533,-1,2025-11-07 14:11:41.951963385
2025-11-07 14:11:40.530533,-79,2025-11-07 14:11:41.959655692
2025-11-07 14:11:40.530533,-21249,2025-11-07 14:11:41.967348000
2025-11-07 14:11:40.530533,-1,2025-11-07 14:11:41.975040308
2025-11-07 14:11:40.530533,-79,2025-11-07 14:11:41.982732615
2025-11-07 14:11:40.530533,-16385,2025-11-07 14:11:41.990424923
2025-11-07 14:11:40.530533,-1,2025-11-07 14:11:41.998117231
2025-11-07 14:11:40.530533,-48,2025-11-07 14:11:42.005809538
2025-11-07 14:11:40.530533,-8961,2025-11-07 14:11:42.013501846
2025-11-07 14:11:40.530533,-1,2025-11-07 14:11:42.021194154
2025-11-07 14:11:40.530533,-28,2025-11-07 14:11:42.028886462
2025-11-07 14:11:40.530533,-5121,2025-11-07 14:11:42.036578769
2025-11-07 14:11:40.530533,-1,2025-11-07 14:11:42.044271077
2025-11-07 14:11:40.530533,-16,2025-11-07 14:11:42.051963385
2025-11-07 14:11:40.530533,-5121,2025-11-07 14:11:42.059655692
2025-11-07 14:11:40.530533,-1,2025-11-07 14:11:42.067348000
2025-11-07 14:11:40.530533,-28,2025-11-07 14:11:42.075040308
2025-11-07 14:11:40.530533,-6401,2025-11-07 14:11:42.082732615
2025-11-07 14:11:40.530533,-1,2025-11-07 14:11:42.090424923
2025-11-07 14:11:40.530533,-24,2025-11-07 14:11:42.098117231
2025-11-07 14:11:40.530533,-6401,2025-11-07 14:11:42.105809538
2025-11-07 14:11:40.530533,-1,2025-11-07 14:11:42.113501846
2025-11-07 14:11:40.530533,-21,2025-11-07 14:11:42.121194154
2025-11-07 14:11:40.530533,-5121,2025-11-07 14:11:42.128886462
2025-11-07 14:11:40.530533,-1,2025-11-07 14:11:42.136578769
2025-11-07 14:11:40.530533,-21,2025-11-07 14:11:42.144271077
2025-11-07 14:11:40.530533,-4609,2025-11-07 14:11:42.151963385
2025-11-07 14:11:40.530533,-1,2025-11-07 14:11:42.159655692
2025-11-07 14:11:40.530533,-19,2025-11-07 14:11:42.167348000
2025-11-07 14:11:40.530533,-5121,2025-11-07 14:11:42.175040308
2025-11-07 14:11:40.530533,-1,2025-11-07 14:11:42.182732615
2025-11-07 14:11:40.530533,-28,2025-11-07 14:11:42.190424923
2025-11-07 14:11:40.530533,-13057,2025-11-07 14:11:42.198117231
2025-11-07 14:11:40.530533,-1,2025-11-07 14:11:42.205809538
2025-11-07 14:11:40.530533,-77,2025-11-07 14:11:42.213501846
2025-11-07 14:11:41.116176,-77,2025-11-07 14:11:42.221194154
2025-11-07 14:11:41.116176,-12545,2025-11-07 14:11:42.228886462
2025-11-07 14:11:41.116176,-1,2025-11-07 14:11:42.236578769
2025-11-07 14:11:41.116176,-16,2025-11-07 14:11:42.244271077
2025-11-07 14:11:41.116176,3839,2025-11-07 14:11:42.251963385
2025-11-07 14:11:41.116176,0,2025-11-07 14:11:42.259655692
2025-11-07 14:11:41.116176,26,2025-11-07 14:11:42.267348000
2025-11-07 14:11:41.116176,512,2025-11-07 14:11:42.275040308
2025-11-07 14:11:41.116176,0,2025-11-07 14:11:42.282732615
2025-11-07 14:11:41.116176,-16,2025-11-07 14:11:42.290424923
2025-11-07 14:11:41.116176,-257,2025-11-07 14:11:42.298117231
2025-11-07 14:11:41.116176,-1,2025-11-07 14:11:42.305809538
2025-11-07 14:11:41.116176,21,2025-11-07 14:11:42.313501846
2025-11-07 14:11:41.116176,8448,2025-11-07 14:11:42.321194154
2025-11-07 14:11:41.116176,0,2025-11-07 14:11:42.328886462
2025-11-07 14:11:41.116176,16,2025-11-07 14:11:42.336578769
2025-11-07 14:11:41.116176,-14080,2025-11-07 14:11:42.344271077
2025-11-07 14:11:41.116176,-1,2025-11-07 14:11:42.351963385
2025-11-07 14:11:41.116176,-91,2025-11-07 14:11:42.359655692
2025-11-07 14:11:41.116176,10495,2025-11-07 14:11:42.367348000
2025-11-07 14:11:41.116176,1,2025-11-07 14:11:42.375040308
2025-11-07 14:11:41.116176,1052,2025-11-07 14:11:42.382732615
2025-11-07 14:11:41.116176,19456,2025-11-07 14:11:42.390424923
2025-11-07 14:11:41.116176,4,2025-11-07 14:11:42.398117230
2025-11-07 14:11:41.116176,231,2025-11-07 14:11:42.405809538
2025-11-07 14:11:41.116176,16896,2025-11-07 14:11:42.413501846
2025-11-07 14:11:41.116176,-1,2025-11-07 14:11:42.421194154
2025-11-07 14:11:41.116176,40,2025-11-07 14:11:42.428886462
2025-11-07 14:11:41.116176,6144,2025-11-07 14:11:42.436578769
2025-11-07 14:11:41.116176,0,2025-11-07 14:11:42.444271077
2025-11-07 14:11:41.116176,-127,2025-11-07 14:11:42.451963385
2025-11-07 14:11:41.116176,-15105,2025-11-07 14:11:42.459655692
2025-11-07 14:11:41.116176,-1,2025-11-07 14:11:42.467348000
2025-11-07 14:11:41.116176,-16,2025-11-07 14:11:42.475040308
2025-11-07 14:11:41.116176,-16897,2025-11-07 14:11:42.482732615
2025-11-07 14:11:41.116176,-1,2025-11-07 14:11:42.490424923
2025-11-07 14:11:41.116176,-62,2025-11-07 14:11:42.498117231
2025-11-07 14:11:41.116176,-9473,2025-11-07 14:11:42.505809538
2025-11-07 14:11:41.116176,-1,2025-11-07 14:11:42.513501846
2025-11-07 14:11:41.116176,-43,2025-11-07 14:11:42.521194154
2025-11-07 14:11:41.116176,-8961,2025-11-07 14:11:42.528886462
2025-11-07 14:11:41.116176,-1,2025-11-07 14:11:42.536578769
2025-11-07 14:11:41.116176,-26,2025-11-07 14:11:42.544271077
2025-11-07 14:11:41.116176,-6913,2025-11-07 14:11:42.551963385
2025-11-07 14:11:41.116176,-1,2025-11-07 14:11:42.559655692
2025-11-07 14:11:41.116176,-24,2025-11-07 14:11:42.567348000
2025-11-07 14:11:41.116176,-5121,2025-11-07 14:11:42.575040308
2025-11-07 14:11:41.116176,-1,2025-11-07 14:11:42.582732615
2025-11-07 14:11:41.116176,-21,2025-11-07 14:11:42.590424923
2025-11-07 14:11:41.116176,-3841,2025-11-07 14:11:42.598117231
2025-11-07 14:11:41.116176,-1,2025-11-07 14:11:42.605809538
2025-11-07 14:11:41.116176,-24,2025-11-07 14:11:42.613501846
2025-11-07 14:11:41.116176,-8193,2025-11-07 14:11:42.621194154
2025-11-07 14:11:41.116176,-1,2025-11-07 14:11:42.628886462
2025-11-07 14:11:41.116176,-36,2025-11-07 14:11:42.636578769
2025-11-07 14:11:41.116176,-8961,2025-11-07 14:11:42.644271077
2025-11-07 14:11:41.116176,-1,2025-11-07 14:11:42.651963385
2025-11-07 14:11:41.116176,-33,2025-11-07 14:11:42.659655692
2025-11-07 14:11:41.116176,-7681,2025-11-07 14:11:42.667348000
2025-11-07 14:11:41.116176,-1,2025-11-07 14:11:42.675040308
2025-11-07 14:11:41.116176,-24,2025-11-07 14:11:42.682732615
2025-11-07 14:11:41.116176,-3329,2025-11-07 14:11:42.690424923
2025-11-07 14:11:41.116176,-1,2025-11-07 14:11:42.698117231
2025-11-07 14:11:41.116176,-14,2025-11-07 14:11:42.705809538
2025-11-07 14:11:41.116176,-3841,2025-11-07 14:11:42.713501846
2025-11-07 14:11:41.116176,-1,2025-11-07 14:11:42.721194154
2025-11-07 14:11:41.116176,-24,2025-11-07 14:11:42.728886462
2025-11-07 14:11:41.116176,-7681,2025-11-07 14:11:42.736578769
2025-11-07 14:11:41.116176,-1,2025-11-07 14:11:42.744271077
2025-11-07 14:11:41.116176,-31,2025-11-07 14:11:42.751963385
2025-11-07 14:11:41.116176,-8961,2025-11-07 14:11:42.759655692
2025-11-07 14:11:41.116176,-1,2025-11-07 14:11:42.767348000
2025-11-07 14:11:41.116176,-40,2025-11-07 14:11:42.775040308
2025-11-07 14:11:41.116176,-9473,2025-11-07 14:11:42.782732615
2025-11-07 14:11:41.116176,-1,2025-11-07 14:11:42.790424923
2025-11-07 14:11:41.116176,-28,2025-11-07 14:11:42.798117231
2025-11-07 14:11:41.116176,-5121,2025-11-07 14:11:42.805809538
2025-11-07 14:11:41.116176,-1,2025-11-07 14:11:42.813501846
2025-11-07 14:11:41.116176,-19,2025-11-07 14:11:42.821194154
2025-11-07 14:11:41.116176,-4609,2025-11-07 14:11:42.828886462
2025-11-07 14:11:41.116176,-1,2025-11-07 14:11:42.836578769
2025-11-07 14:11:41.116176,-19,2025-11-07 14:11:42.844271077
2025-11-07 14:11:41.116176,-4609,2025-11-07 14:11:42.851963385
2025-11-07 14:11:41.116176,-1,2025-11-07 14:11:42.859655692
2025-11-07 14:11:41.116176,-16,2025-11-07 14:11:42.867348000
2025-11-07 14:11:41.116176,-6401,2025-11-07 14:11:42.875040308
2025-11-07 14:11:41.116176,-1,2025-11-07 14:11:42.882732615
2025-11-07 14:11:41.116176,-40,2025-11-07 14:11:42.890424923
2025-11-07 14:11:41.116176,-12545,2025-11-07 14:11:42.898117231
2025-11-07 14:11:41.116176,-1,2025-11-07 14:11:42.905809538
2025-11-07 14:11:41.116176,-48,2025-11-07 14:11:42.913501846
2025-11-07 14:11:41.116176,-7681,2025-11-07 14:11:42.921194154
2025-11-07 14:11:41.116176,-1,2025-11-07 14:11:42.928886462
2025-11-07 14:11:41.116176,-7,2025-11-07 14:11:42.936578769
2025-11-07 14:11:41.116176,8191,2025-11-07 14:11:42.944271077
2025-11-07 14:11:41.116176,0,2025-11-07 14:11:42.951963385
2025-11-07 14:11:41.116176,45,2025-11-07 14:11:42.959655692
2025-11-07 14:11:41.116176,3072,2025-11-07 14:11:42.967348000
2025-11-07 14:11:41.116176,0,2025-11-07 14:11:42.975040308
2025-11-07 14:11:41.116176,-2,2025-11-07 14:11:42.982732615
2025-11-07 14:11:41.116176,6911,2025-11-07 14:11:42.990424923
2025-11-07 14:11:41.116176,0,2025-11-07 14:11:42.998117231
2025-11-07 14:11:41.116176,38,2025-11-07 14:11:43.005809538
2025-11-07 14:11:41.116176,7168,2025-11-07 14:11:43.013501846
2025-11-07 14:11:41.116176,0,2025-11-07 14:11:43.021194154
2025-11-07 14:11:41.116176,2,2025-11-07 14:11:43.028886462
2025-11-07 14:11:41.116176,-17664,2025-11-07 14:11:43.036578769
2025-11-07 14:11:41.116176,-1,2025-11-07 14:11:43.044271077
2025-11-07 14:11:41.116176,-62,2025-11-07 14:11:43.051963385
2025-11-07 14:11:41.661340,414,2025-11-07 14:11:43.059655692
2025-11-07 14:11:41.661340,27648,2025-11-07 14:11:43.067348000
2025-11-07 14:11:41.661340,4,2025-11-07 14:11:43.075040308
2025-11-07 14:11:41.661340,977,2025-11-07 14:11:43.082732615
2025-11-07 14:11:41.661340,23296,2025-11-07 14:11:43.090424923
2025-11-07 14:11:41.661340,0,2025-11-07 14:11:43.098117231
2025-11-07 14:11:41.661340,-158,2025-11-07 14:11:43.105809538
2025-11-07 14:11:41.661340,21759,2025-11-07 14:11:43.113501846
2025-11-07 14:11:41.661340,0,2025-11-07 14:11:43.121194154
2025-11-07 14:11:41.661340,2,2025-11-07 14:11:43.128886462
2025-11-07 14:11:41.661340,-29440,2025-11-07 14:11:43.136578769
2025-11-07 14:11:41.661340,-1,2025-11-07 14:11:43.144271077
2025-11-07 14:11:41.661340,-31,2025-11-07 14:11:43.151963385
2025-11-07 14:11:41.661340,-2817,2025-11-07 14:11:43.159655692
2025-11-07 14:11:41.661340,-1,2025-11-07 14:11:43.167348000
2025-11-07 14:11:41.661340,-57,2025-11-07 14:11:43.175040308
2025-11-07 14:11:41.661340,-6913,2025-11-07 14:11:43.182732615
2025-11-07 14:11:41.661340,-1,2025-11-07 14:11:43.190424923
2025-11-07 14:11:41.661340,12,2025-11-07 14:11:43.198117231
2025-11-07 14:11:41.661340,0,2025-11-07 14:11:43.205809538
2025-11-07 14:11:41.661340,0,2025-11-07 14:11:43.213501846
2025-11-07 14:11:41.661340,-4,2025-11-07 14:11:43.221194154
2025-11-07 14:11:41.661340,3327,2025-11-07 14:11:43.228886462
2025-11-07 14:11:41.661340,0,2025-11-07 14:11:43.236578769
2025-11-07 14:11:41.661340,19,2025-11-07 14:11:43.244271077
2025-11-07 14:11:41.661340,4864,2025-11-07 14:11:43.251963385
2025-11-07 14:11:41.661340,0,2025-11-07 14:11:43.259655692
2025-11-07 14:11:41.661340,24,2025-11-07 14:11:43.267348000
2025-11-07 14:11:41.661340,6144,2025-11-07 14:11:43.275040308
2025-11-07 14:11:41.661340,0,2025-11-07 14:11:43.282732615
2025-11-07 14:11:41.661340,19,2025-11-07 14:11:43.290424923
2025-11-07 14:11:41.661340,4096,2025-11-07 14:11:43.298117231
2025-11-07 14:11:41.661340,0,2025-11-07 14:11:43.305809538
2025-11-07 14:11:41.661340,16,2025-11-07 14:11:43.313501846
2025-11-07 14:11:41.661340,3072,2025-11-07 14:11:43.321194154
2025-11-07 14:11:41.661340,0,2025-11-07 14:11:43.328886462
2025-11-07 14:11:41.661340,7,2025-11-07 14:11:43.336578769
2025-11-07 14:11:41.661340,3584,2025-11-07 14:11:43.344271077
2025-11-07 14:11:41.661340,0,2025-11-07 14:11:43.351963385
2025-11-07 14:11:41.661340,19,2025-11-07 14:11:43.359655692
2025-11-07 14:11:41.661340,6656,2025-11-07 14:11:43.367348000
2025-11-07 14:11:41.661340,0,2025-11-07 14:11:43.375040308
2025-11-07 14:11:41.661340,31,2025-11-07 14:11:43.382732615
2025-11-07 14:11:41.661340,6144,2025-11-07 14:11:43.390424923
2025-11-07 14:11:41.661340,0,2025-11-07 14:11:43.398117230
2025-11-07 14:11:41.661340,7,2025-11-07 14:11:43.405809538
2025-11-07 14:11:41.661340,-512,2025-11-07 14:11:43.413501846
2025-11-07 14:11:41.661340,-1,2025-11-07 14:11:43.421194154
2025-11-07 14:11:41.661340,-7,2025-11-07 14:11:43.428886462
2025-11-07 14:11:41.661340,-2817,2025-11-07 14:11:43.436578769
2025-11-07 14:11:41.661340,-1,2025-11-07 14:11:43.444271077
2025-11-07 14:11:41.661340,-16,2025-11-07 14:11:43.451963385
2025-11-07 14:11:41.661340,-2817,2025-11-07 14:11:43.459655692
2025-11-07 14:11:41.661340,-1,2025-11-07 14:11:43.467348000
2025-11-07 14:11:41.661340,-12,2025-11-07 14:11:43.475040308
2025-11-07 14:11:41.661340,-3329,2025-11-07 14:11:43.482732615
2025-11-07 14:11:41.661340,-1,2025-11-07 14:11:43.490424923
2025-11-07 14:11:41.661340,-7,2025-11-07 14:11:43.498117231
2025-11-07 14:11:41.661340,-769,2025-11-07 14:11:43.505809538
2025-11-07 14:11:41.661340,-1,2025-11-07 14:11:43.513501846
2025-11-07 14:11:41.661340,-2,2025-11-07 14:11:43.521194154
2025-11-07 14:11:41.661340,-257,2025-11-07 14:11:43.528886462
2025-11-07 14:11:41.661340,-1,2025-11-07 14:11:43.536578769
2025-11-07 14:11:41.661340,-7,2025-11-07 14:11:43.544271077
2025-11-07 14:11:41.661340,-769,2025-11-07 14:11:43.551963385
2025-11-07 14:11:41.661340,-1,2025-11-07 14:11:43.559655692
2025-11-07 14:11:41.661340,-12,2025-11-07 14:11:43.567348000
2025-11-07 14:11:41.661340,-8193,2025-11-07 14:11:43.575040308
2025-11-07 14:11:41.661340,-1,2025-11-07 14:11:43.582732615
2025-11-07 14:11:41.661340,-45,2025-11-07 14:11:43.590424923
2025-11-07 14:11:41.661340,-8193,2025-11-07 14:11:43.598117231
2025-11-07 14:11:41.661340,-1,2025-11-07 14:11:43.605809538
2025-11-07 14:11:41.661340,-9,2025-11-07 14:11:43.613501846
2025-11-07 14:11:41.661340,5631,2025-11-07 14:11:43.621194154
2025-11-07 14:11:41.661340,0,2025-11-07 14:11:43.628886462
2025-11-07 14:11:41.661340,48,2025-11-07 14:11:43.636578769
2025-11-07 14:11:41.661340,8448,2025-11-07 14:11:43.644271077
2025-11-07 14:11:41.661340,0,2025-11-07 14:11:43.651963385
2025-11-07 14:11:41.661340,7,2025-11-07 14:11:43.659655692
2025-11-07 14:11:41.661340,4096,2025-11-07 14:11:43.667348000
2025-11-07 14:11:41.661340,0,2025-11-07 14:11:43.675040308
2025-11-07 14:11:41.661340,36,2025-11-07 14:11:43.682732615
2025-11-07 14:11:41.661340,9216,2025-11-07 14:11:43.690424923
2025-11-07 14:11:41.661340,0,2025-11-07 14:11:43.698117231
2025-11-07 14:11:41.661340,31,2025-11-07 14:11:43.705809538
2025-11-07 14:11:41.661340,-6144,2025-11-07 14:11:43.713501846
2025-11-07 14:11:41.661340,-1,2025-11-07 14:11:43.721194154
2025-11-07 14:11:41.661340,-91,2025-11-07 14:11:43.728886462
2025-11-07 14:11:41.661340,-16129,2025-11-07 14:11:43.736578769
2025-11-07 14:11:41.661340,0,2025-11-07 14:11:43.744271077
2025-11-07 14:11:41.661340,941,2025-11-07 14:11:43.751963385
2025-11-07 14:11:41.661340,-23808,2025-11-07 14:11:43.759655692
2025-11-07 14:11:41.661340,4,2025-11-07 14:11:43.767348000
2025-11-07 14:11:41.661340,404,2025-11-07 14:11:43.775040308
2025-11-07 14:11:41.661340,25088,2025-11-07 14:11:43.782732615
2025-11-07 14:11:41.661340,-1,2025-11-07 14:11:43.790424923
2025-11-07 14:11:41.661340,40,2025-11-07 14:11:43.798117231
2025-11-07 14:11:41.661340,22016,2025-11-07 14:11:43.805809538
2025-11-07 14:11:41.661340,0,2025-11-07 14:11:43.813501846
2025-11-07 14:11:41.661340,-91,2025-11-07 14:11:43.821194154
2025-11-07 14:11:41.661340,-12545,2025-11-07 14:11:43.828886462
2025-11-07 14:11:41.661340,-1,2025-11-07 14:11:43.836578769
2025-11-07 14:11:41.661340,9,2025-11-07 14:11:43.844271077
2025-11-07 14:11:41.661340,-8448,2025-11-07 14:11:43.851963385
2025-11-07 14:11:41.661340,-1,2025-11-07 14:11:43.859655692
2025-11-07 14:11:41.661340,-31,2025-11-07 14:11:43.867348000
2025-11-07 14:11:41.661340,767,2025-11-07 14:11:43.875040308
2025-11-07 14:11:41.661340,0,2025-11-07 14:11:43.882732615
2025-11-07 14:11:41.661340,-2,2025-11-07 14:11:43.890424923
2025-11-07 14:11:42.197304,-7,2025-11-07 14:11:43.898117231
2025-11-07 14:11:42.197304,3839,2025-11-07 14:11:43.905809538
2025-11-07 14:11:42.197304,0,2025-11-07 14:11:43.913501846
2025-11-07 14:11:42.197304,19,2025-11-07 14:11:43.921194154
2025-11-07 14:11:42.197304,3584,2025-11-07 14:11:43.928886462
2025-11-07 14:11:42.197304,0,2025-11-07 14:11:43.936578769
2025-11-07 14:11:42.197304,21,2025-11-07 14:11:43.944271077
2025-11-07 14:11:42.197304,6656,2025-11-07 14:11:43.951963385
2025-11-07 14:11:42.197304,0,2025-11-07 14:11:43.959655692
2025-11-07 14:11:42.197304,24,2025-11-07 14:11:43.967348000
2025-11-07 14:11:42.197304,6656,2025-11-07 14:11:43.975040308
2025-11-07 14:11:42.197304,0,2025-11-07 14:11:43.982732615
2025-11-07 14:11:42.197304,28,2025-11-07 14:11:43.990424923
2025-11-07 14:11:42.197304,10240,2025-11-07 14:11:43.998117231
2025-11-07 14:11:42.197304,0,2025-11-07 14:11:44.005809538
2025-11-07 14:11:42.197304,43,2025-11-07 14:11:44.013501846
2025-11-07 14:11:42.197304,10240,2025-11-07 14:11:44.021194154
2025-11-07 14:11:42.197304,0,2025-11-07 14:11:44.028886462
2025-11-07 14:11:42.197304,45,2025-11-07 14:11:44.036578769
2025-11-07 14:11:42.197304,14080,2025-11-07 14:11:44.044271077
2025-11-07 14:11:42.197304,0,2025-11-07 14:11:44.051963385
2025-11-07 14:11:42.197304,65,2025-11-07 14:11:44.059655692
2025-11-07 14:11:42.197304,14592,2025-11-07 14:11:44.067348000
2025-11-07 14:11:42.197304,0,2025-11-07 14:11:44.075040308
2025-11-07 14:11:42.197304,38,2025-11-07 14:11:44.082732615
2025-11-07 14:11:42.197304,5376,2025-11-07 14:11:44.090424923
2025-11-07 14:11:42.197304,0,2025-11-07 14:11:44.098117231
2025-11-07 14:11:42.197304,12,2025-11-07 14:11:44.105809538
2025-11-07 14:11:42.197304,1024,2025-11-07 14:11:44.113501846
2025-11-07 14:11:42.197304,0,2025-11-07 14:11:44.121194154
2025-11-07 14:11:42.197304,4,2025-11-07 14:11:44.128886462
2025-11-07 14:11:42.197304,1024,2025-11-07 14:11:44.136578769
2025-11-07 14:11:42.197304,0,2025-11-07 14:11:44.144271077
2025-11-07 14:11:42.197304,7,2025-11-07 14:11:44.151963385
2025-11-07 14:11:42.197304,1792,2025-11-07 14:11:44.159655692
2025-11-07 14:11:42.197304,0,2025-11-07 14:11:44.167348000
2025-11-07 14:11:42.197304,2,2025-11-07 14:11:44.175040308
2025-11-07 14:11:42.197304,0,2025-11-07 14:11:44.182732615
2025-11-07 14:11:42.197304,0,2025-11-07 14:11:44.190424923
2025-11-07 14:11:42.197304,4,2025-11-07 14:11:44.198117231
2025-11-07 14:11:42.197304,2304,2025-11-07 14:11:44.205809538
2025-11-07 14:11:42.197304,0,2025-11-07 14:11:44.213501846
2025-11-07 14:11:42.197304,4,2025-11-07 14:11:44.221194154
2025-11-07 14:11:42.197304,0,2025-11-07 14:11:44.228886462
2025-11-07 14:11:42.197304,0,2025-11-07 14:11:44.236578769
2025-11-07 14:11:42.197304,-4,2025-11-07 14:11:44.244271077
2025-11-07 14:11:42.197304,-5889,2025-11-07 14:11:44.251963385
2025-11-07 14:11:42.197304,-1,2025-11-07 14:11:44.259655692
2025-11-07 14:11:42.197304,-33,2025-11-07 14:11:44.267348000
2025-11-07 14:11:42.197304,-5121,2025-11-07 14:11:44.275040308
2025-11-07 14:11:42.197304,-1,2025-11-07 14:11:44.282732615
2025-11-07 14:11:42.197304,2,2025-11-07 14:11:44.290424923
2025-11-07 14:11:42.197304,9216,2025-11-07 14:11:44.298117231
2025-11-07 14:11:42.197304,0,2025-11-07 14:11:44.305809538
2025-11-07 14:11:42.197304,62,2025-11-07 14:11:44.313501846
2025-11-07 14:11:42.197304,13312,2025-11-07 14:11:44.321194154
2025-11-07 14:11:42.197304,0,2025-11-07 14:11:44.328886462
2025-11-07 14:11:42.197304,24,2025-11-07 14:11:44.336578769
2025-11-07 14:11:42.197304,6144,2025-11-07 14:11:44.344271077
2025-11-07 14:11:42.197304,0,2025-11-07 14:11:44.351963385
2025-11-07 14:11:42.197304,45,2025-11-07 14:11:44.359655692
2025-11-07 14:11:42.197304,11520,2025-11-07 14:11:44.367348000
2025-11-07 14:11:42.197304,0,2025-11-07 14:11:44.375040308
2025-11-07 14:11:42.197304,28,2025-11-07 14:11:44.382732615
2025-11-07 14:11:42.197304,-8448,2025-11-07 14:11:44.390424923
2025-11-07 14:11:42.197304,-1,2025-11-07 14:11:44.398117230
2025-11-07 14:11:42.197304,-89,2025-11-07 14:11:44.405809538
2025-11-07 14:11:42.197304,-2561,2025-11-07 14:11:44.413501846
2025-11-07 14:11:42.197304,0,2025-11-07 14:11:44.421194154
2025-11-07 14:11:42.197304,990,2025-11-07 14:11:44.428886462
2025-11-07 14:11:42.197304,19456,2025-11-07 14:11:44.436578769
2025-11-07 14:11:42.197304,4,2025-11-07 14:11:44.444271077
2025-11-07 14:11:42.197304,281,2025-11-07 14:11:44.451963385
2025-11-07 14:11:42.197304,26880,2025-11-07 14:11:44.459655692
2025-11-07 14:11:42.197304,-1,2025-11-07 14:11:44.467348000
2025-11-07 14:11:42.197304,79,2025-11-07 14:11:44.475040308
2025-11-07 14:11:42.197304,18432,2025-11-07 14:11:44.482732615
2025-11-07 14:11:42.197304,0,2025-11-07 14:11:44.490424923
2025-11-07 14:11:42.197304,-86,2025-11-07 14:11:44.498117231
2025-11-07 14:11:42.197304,-4609,2025-11-07 14:11:44.505809538
2025-11-07 14:11:42.197304,-1,2025-11-07 14:11:44.513501846
2025-11-07 14:11:42.197304,28,2025-11-07 14:11:44.521194154
2025-11-07 14:11:42.197304,-4864,2025-11-07 14:11:44.528886462
2025-11-07 14:11:42.197304,-1,2025-11-07 14:11:44.536578769
2025-11-07 14:11:42.197304,-7,2025-11-07 14:11:44.544271077
2025-11-07 14:11:42.197304,6399,2025-11-07 14:11:44.551963385
2025-11-07 14:11:42.197304,0,2025-11-07 14:11:44.559655692
2025-11-07 14:11:42.197304,19,2025-11-07 14:11:44.567348000
2025-11-07 14:11:42.197304,4864,2025-11-07 14:11:44.575040308
2025-11-07 14:11:42.197304,0,2025-11-07 14:11:44.582732615
2025-11-07 14:11:42.197304,33,2025-11-07 14:11:44.590424923
2025-11-07 14:11:42.197304,11520,2025-11-07 14:11:44.598117231
2025-11-07 14:11:42.197304,0,2025-11-07 14:11:44.605809538
2025-11-07 14:11:42.197304,52,2025-11-07 14:11:44.613501846
2025-11-07 14:11:42.197304,14592,2025-11-07 14:11:44.621194154
2025-11-07 14:11:42.197304,0,2025-11-07 14:11:44.628886462
2025-11-07 14:11:42.197304,57,2025-11-07 14:11:44.636578769
2025-11-07 14:11:42.197304,15872,2025-11-07 14:11:44.644271077
2025-11-07 14:11:42.197304,0,2025-11-07 14:11:44.651963385
2025-11-07 14:11:42.197304,67,2025-11-07 14:11:44.659655692
2025-11-07 14:11:42.197304,15872,2025-11-07 14:11:44.667348000
2025-11-07 14:11:42.197304,0,2025-11-07 14:11:44.675040308
2025-11-07 14:11:42.197304,60,2025-11-07 14:11:44.682732615
2025-11-07 14:11:42.197304,16640,2025-11-07 14:11:44.690424923
2025-11-07 14:11:42.197304,0,2025-11-07 14:11:44.698117231
2025-11-07 14:11:42.197304,65,2025-11-07 14:11:44.705809538
2025-11-07 14:11:42.197304,17152,2025-11-07 14:11:44.713501846
2025-11-07 14:11:42.197304,0,2025-11-07 14:11:44.721194154
2025-11-07 14:11:42.197304,79,2025-11-07 14:11:44.728886462
2025-11-07 14:11:42.781266,86,2025-11-07 14:11:44.736578769
2025-11-07 14:11:42.781266,17664,2025-11-07 14:11:44.744271077
2025-11-07 14:11:42.781266,0,2025-11-07 14:11:44.751963385
2025-11-07 14:11:42.781266,43,2025-11-07 14:11:44.759655692
2025-11-07 14:11:42.781266,7168,2025-11-07 14:11:44.767348000
2025-11-07 14:11:42.781266,0,2025-11-07 14:11:44.775040308
2025-11-07 14:11:42.781266,21,2025-11-07 14:11:44.782732615
2025-11-07 14:11:42.781266,3584,2025-11-07 14:11:44.790424923
2025-11-07 14:11:42.781266,0,2025-11-07 14:11:44.798117231
2025-11-07 14:11:42.781266,26,2025-11-07 14:11:44.805809538
2025-11-07 14:11:42.781266,8448,2025-11-07 14:11:44.813501846
2025-11-07 14:11:42.781266,0,2025-11-07 14:11:44.821194154
2025-11-07 14:11:42.781266,28,2025-11-07 14:11:44.828886462
2025-11-07 14:11:42.781266,7168,2025-11-07 14:11:44.836578769
2025-11-07 14:11:42.781266,0,2025-11-07 14:11:44.844271077
2025-11-07 14:11:42.781266,26,2025-11-07 14:11:44.851963385
2025-11-07 14:11:42.781266,6144,2025-11-07 14:11:44.859655692
2025-11-07 14:11:42.781266,0,2025-11-07 14:11:44.867348000
2025-11-07 14:11:42.781266,31,2025-11-07 14:11:44.875040308
2025-11-07 14:11:42.781266,8448,2025-11-07 14:11:44.882732615
2025-11-07 14:11:42.781266,0,2025-11-07 14:11:44.890424923
2025-11-07 14:11:42.781266,21,2025-11-07 14:11:44.898117231
2025-11-07 14:11:42.781266,2304,2025-11-07 14:11:44.905809538
2025-11-07 14:11:42.781266,0,2025-11-07 14:11:44.913501846
2025-11-07 14:11:42.781266,-4,2025-11-07 14:11:44.921194154
2025-11-07 14:11:42.781266,-2817,2025-11-07 14:11:44.928886462
2025-11-07 14:11:42.781266,-1,2025-11-07 14:11:44.936578769
2025-11-07 14:11:42.781266,-4,2025-11-07 14:11:44.944271077
2025-11-07 14:11:42.781266,4351,2025-11-07 14:11:44.951963385
2025-11-07 14:11:42.781266,0,2025-11-07 14:11:44.959655692
2025-11-07 14:11:42.781266,40,2025-11-07 14:11:44.967348000
2025-11-07 14:11:42.781266,17664,2025-11-07 14:11:44.975040308
2025-11-07 14:11:42.781266,0,2025-11-07 14:11:44.982732615
2025-11-07 14:11:42.781266,74,2025-11-07 14:11:44.990424923
2025-11-07 14:11:42.781266,10240,2025-11-07 14:11:44.998117231
2025-11-07 14:11:42.781266,0,2025-11-07 14:11:45.005809538
2025-11-07 14:11:42.781266,26,2025-11-07 14:11:45.013501846
2025-11-07 14:11:42.781266,12288,2025-11-07 14:11:45.021194154
2025-11-07 14:11:42.781266,0,2025-11-07 14:11:45.028886462
2025-11-07 14:11:42.781266,55,2025-11-07 14:11:45.036578769
2025-11-07 14:11:42.781266,11008,2025-11-07 14:11:45.044271077
2025-11-07 14:11:42.781266,0,2025-11-07 14:11:45.051963385
2025-11-07 14:11:42.781266,2,2025-11-07 14:11:45.059655692
2025-11-07 14:11:42.781266,-21504,2025-11-07 14:11:45.067348000
2025-11-07 14:11:42.781266,-1,2025-11-07 14:11:45.075040308
2025-11-07 14:11:42.781266,48,2025-11-07 14:11:45.082732615
2025-11-07 14:11:42.781266,-15360,2025-11-07 14:11:45.090424923
2025-11-07 14:11:42.781266,2,2025-11-07 14:11:45.098117231
2025-11-07 14:11:42.781266,1194,2025-11-07 14:11:45.105809538
2025-11-07 14:11:42.781266,27392,2025-11-07 14:11:45.113501846
2025-11-07 14:11:42.781266,2,2025-11-07 14:11:45.121194154
2025-11-07 14:11:42.781266,-101,2025-11-07 14:11:45.128886462
2025-11-07 14:11:42.781266,-1537,2025-11-07 14:11:45.136578769
2025-11-07 14:11:42.781266,-1,2025-11-07 14:11:45.144271077
2025-11-07 14:11:42.781266,130,2025-11-07 14:11:45.151963385
2025-11-07 14:11:42.781266,-12800,2025-11-07 14:11:45.159655692
2025-11-07 14:11:42.781266,-1,2025-11-07 14:11:45.167348000
2025-11-07 14:11:42.781266,-60,2025-11-07 14:11:45.175040308
2025-11-07 14:11:42.781266,6399,2025-11-07 14:11:45.182732615
2025-11-07 14:11:42.781266,0,2025-11-07 14:11:45.190424923
2025-11-07 14:11:42.781266,-7,2025-11-07 14:11:45.198117231
2025-11-07 14:11:42.781266,-5889,2025-11-07 14:11:45.205809538
2025-11-07 14:11:42.781266,-1,2025-11-07 14:11:45.213501846
2025-11-07 14:11:42.781266,7,2025-11-07 14:11:45.221194154
2025-11-07 14:11:42.781266,1024,2025-11-07 14:11:45.228886462
2025-11-07 14:11:42.781266,0,2025-11-07 14:11:45.236578769
2025-11-07 14:11:42.781266,-2,2025-11-07 14:11:45.244271077
2025-11-07 14:11:42.781266,3839,2025-11-07 14:11:45.251963385
2025-11-07 14:11:42.781266,0,2025-11-07 14:11:45.259655692
2025-11-07 14:11:42.781266,26,2025-11-07 14:11:45.267348000
2025-11-07 14:11:42.781266,7168,2025-11-07 14:11:45.275040308
2025-11-07 14:11:42.781266,0,2025-11-07 14:11:45.282732615
2025-11-07 14:11:42.781266,40,2025-11-07 14:11:45.290424923
2025-11-07 14:11:42.781266,11008,2025-11-07 14:11:45.298117231
2025-11-07 14:11:42.781266,0,2025-11-07 14:11:45.305809538
2025-11-07 14:11:42.781266,45,2025-11-07 14:11:45.313501846
2025-11-07 14:11:42.781266,12800,2025-11-07 14:11:45.321194154
2025-11-07 14:11:42.781266,0,2025-11-07 14:11:45.328886462
2025-11-07 14:11:42.781266,55,2025-11-07 14:11:45.336578769
2025-11-07 14:11:42.781266,14592,2025-11-07 14:11:45.344271077
2025-11-07 14:11:42.781266,0,2025-11-07 14:11:45.351963385
2025-11-07 14:11:42.781266,55,2025-11-07 14:11:45.359655692
2025-11-07 14:11:42.781266,12800,2025-11-07 14:11:45.367348000
2025-11-07 14:11:42.781266,0,2025-11-07 14:11:45.375040308
2025-11-07 14:11:42.781266,52,2025-11-07 14:11:45.382732615
2025-11-07 14:11:42.781266,15360,2025-11-07 14:11:45.390424923
2025-11-07 14:11:42.781266,0,2025-11-07 14:11:45.398117230
2025-11-07 14:11:42.781266,65,2025-11-07 14:11:45.405809538
2025-11-07 14:11:42.781266,14592,2025-11-07 14:11:45.413501846
2025-11-07 14:11:42.781266,0,2025-11-07 14:11:45.421194154
2025-11-07 14:11:42.781266,36,2025-11-07 14:11:45.428886462
2025-11-07 14:11:42.781266,3072,2025-11-07 14:11:45.436578769
2025-11-07 14:11:42.781266,0,2025-11-07 14:11:45.444271077
2025-11-07 14:11:42.781266,-4,2025-11-07 14:11:45.451963385
2025-11-07 14:11:42.781266,-2817,2025-11-07 14:11:45.459655692
2025-11-07 14:11:42.781266,-1,2025-11-07 14:11:45.467348000
2025-11-07 14:11:42.781266,-14,2025-11-07 14:11:45.475040308
2025-11-07 14:11:42.781266,-3841,2025-11-07 14:11:45.482732615
2025-11-07 14:11:42.781266,-1,2025-11-07 14:11:45.490424923
2025-11-07 14:11:42.781266,-16,2025-11-07 14:11:45.498117231
2025-11-07 14:11:42.781266,-4609,2025-11-07 14:11:45.505809538
2025-11-07 14:11:42.781266,-1,2025-11-07 14:11:45.513501846
2025-11-07 14:11:42.781266,-21,2025-11-07 14:11:45.521194154
2025-11-07 14:11:42.781266,-4609,2025-11-07 14:11:45.528886462
2025-11-07 14:11:42.781266,-1,2025-11-07 14:11:45.536578769
2025-11-07 14:11:42.781266,-19,2025-11-07 14:11:45.544271077
2025-11-07 14:11:42.781266,-4609,2025-11-07 14:11:45.551963385
2025-11-07 14:11:42.781266,-1,2025-11-07 14:11:45.559655692
2025-11-07 14:11:42.781266,-19,2025-11-07 14:11:45.567348000
2025-11-07 14:11:43.322122,-24,2025-11-07 14:11:45.575040308
2025-11-07 14:11:43.322122,-8193,2025-11-07 14:11:45.582732615
2025-11-07 14:11:43.322122,-1,2025-11-07 14:11:45.590424923
2025-11-07 14:11:43.322122,-48,2025-11-07 14:11:45.598117231
2025-11-07 14:11:43.322122,-11265,2025-11-07 14:11:45.605809538
2025-11-07 14:11:43.322122,-1,2025-11-07 14:11:45.613501846
2025-11-07 14:11:43.322122,-24,2025-11-07 14:11:45.621194154
2025-11-07 14:11:43.322122,-257,2025-11-07 14:11:45.628886462
2025-11-07 14:11:43.322122,-1,2025-11-07 14:11:45.636578769
2025-11-07 14:11:43.322122,26,2025-11-07 14:11:45.644271077
2025-11-07 14:11:43.322122,9728,2025-11-07 14:11:45.651963385
2025-11-07 14:11:43.322122,0,2025-11-07 14:11:45.659655692
2025-11-07 14:11:43.322122,12,2025-11-07 14:11:45.667348000
2025-11-07 14:11:43.322122,1024,2025-11-07 14:11:45.675040308
2025-11-07 14:11:43.322122,0,2025-11-07 14:11:45.682732615
2025-11-07 14:11:43.322122,31,2025-11-07 14:11:45.690424923
2025-11-07 14:11:43.322122,10240,2025-11-07 14:11:45.698117231
2025-11-07 14:11:43.322122,0,2025-11-07 14:11:45.705809538
2025-11-07 14:11:43.322122,33,2025-11-07 14:11:45.713501846
2025-11-07 14:11:43.322122,0,2025-11-07 14:11:45.721194154
2025-11-07 14:11:43.322122,0,2025-11-07 14:11:45.728886462
2025-11-07 14:11:43.322122,-91,2025-11-07 14:11:45.736578769
2025-11-07 14:11:43.322122,-10753,2025-11-07 14:11:45.744271077
2025-11-07 14:11:43.322122,-1,2025-11-07 14:11:45.751963385
2025-11-07 14:11:43.322122,534,2025-11-07 14:11:45.759655692
2025-11-07 14:11:43.322122,-29952,2025-11-07 14:11:45.767348000
2025-11-07 14:11:43.322122,4,2025-11-07 14:11:45.775040308
2025-11-07 14:11:43.322122,773,2025-11-07 14:11:45.782732615
2025-11-07 14:11:43.322122,-11008,2025-11-07 14:11:45.790424923
2025-11-07 14:11:43.322122,-1,2025-11-07 14:11:45.798117231
2025-11-07 14:11:43.322122,-79,2025-11-07 14:11:45.805809538
2025-11-07 14:11:43.322122,30975,2025-11-07 14:11:45.813501846
2025-11-07 14:11:43.322122,0,2025-11-07 14:11:45.821194154
2025-11-07 14:11:43.322122,-31,2025-11-07 14:11:45.828886462
2025-11-07 14:11:43.322122,-23041,2025-11-07 14:11:45.836578769
2025-11-07 14:11:43.322122,-1,2025-11-07 14:11:45.844271077
2025-11-07 14:11:43.322122,2,2025-11-07 14:11:45.851963385
2025-11-07 14:11:43.322122,-3584,2025-11-07 14:11:45.859655692
2025-11-07 14:11:43.322122,-1,2025-11-07 14:11:45.867348000
2025-11-07 14:11:43.322122,-43,2025-11-07 14:11:45.875040308
2025-11-07 14:11:43.322122,-2049,2025-11-07 14:11:45.882732615
2025-11-07 14:11:43.322122,-1,2025-11-07 14:11:45.890424923
2025-11-07 14:11:43.322122,0,2025-11-07 14:11:45.898117231
2025-11-07 14:11:43.322122,-2304,2025-11-07 14:11:45.905809538
2025-11-07 14:11:43.322122,-1,2025-11-07 14:11:45.913501846
2025-11-07 14:11:43.322122,2,2025-11-07 14:11:45.921194154
2025-11-07 14:11:43.322122,2304,2025-11-07 14:11:45.928886462
2025-11-07 14:11:43.322122,0,2025-11-07 14:11:45.936578769
2025-11-07 14:11:43.322122,14,2025-11-07 14:11:45.944271077
2025-11-07 14:11:43.322122,6656,2025-11-07 14:11:45.951963385
2025-11-07 14:11:43.322122,0,2025-11-07 14:11:45.959655692
2025-11-07 14:11:43.322122,36,2025-11-07 14:11:45.967348000
2025-11-07 14:11:43.322122,10240,2025-11-07 14:11:45.975040308
2025-11-07 14:11:43.322122,0,2025-11-07 14:11:45.982732615
2025-11-07 14:11:43.322122,45,2025-11-07 14:11:45.990424923
2025-11-07 14:11:43.322122,11520,2025-11-07 14:11:45.998117231
2025-11-07 14:11:43.322122,0,2025-11-07 14:11:46.005809538
2025-11-07 14:11:43.322122,48,2025-11-07 14:11:46.013501846
2025-11-07 14:11:43.322122,12288,2025-11-07 14:11:46.021194154
2025-11-07 14:11:43.322122,0,2025-11-07 14:11:46.028886462
2025-11-07 14:11:43.322122,48,2025-11-07 14:11:46.036578769
2025-11-07 14:11:43.322122,12288,2025-11-07 14:11:46.044271077
2025-11-07 14:11:43.322122,0,2025-11-07 14:11:46.051963385
2025-11-07 14:11:43.322122,55,2025-11-07 14:11:46.059655692
2025-11-07 14:11:43.322122,15872,2025-11-07 14:11:46.067348000
2025-11-07 14:11:43.322122,0,2025-11-07 14:11:46.075040308
2025-11-07 14:11:43.322122,60,2025-11-07 14:11:46.082732615
2025-11-07 14:11:43.322122,11008,2025-11-07 14:11:46.090424923
2025-11-07 14:11:43.322122,0,2025-11-07 14:11:46.098117231
2025-11-07 14:11:43.322122,19,2025-11-07 14:11:46.105809538
2025-11-07 14:11:43.322122,0,2025-11-07 14:11:46.113501846
2025-11-07 14:11:43.322122,0,2025-11-07 14:11:46.121194154
2025-11-07 14:11:43.322122,-12,2025-11-07 14:11:46.128886462
2025-11-07 14:11:43.322122,-3841,2025-11-07 14:11:46.136578769
2025-11-07 14:11:43.322122,-1,2025-11-07 14:11:46.144271077
2025-11-07 14:11:43.322122,-16,2025-11-07 14:11:46.151963385
2025-11-07 14:11:43.322122,-4609,2025-11-07 14:11:46.159655692
2025-11-07 14:11:43.322122,-1,2025-11-07 14:11:46.167348000
2025-11-07 14:11:43.322122,-19,2025-11-07 14:11:46.175040308
2025-11-07 14:11:43.322122,-3329,2025-11-07 14:11:46.182732615
2025-11-07 14:11:43.322122,-1,2025-11-07 14:11:46.190424923
2025-11-07 14:11:43.322122,-14,2025-11-07 14:11:46.198117231
2025-11-07 14:11:43.322122,-3329,2025-11-07 14:11:46.205809538
2025-11-07 14:11:43.322122,-1,2025-11-07 14:11:46.213501846
2025-11-07 14:11:43.322122,-9,2025-11-07 14:11:46.221194154
2025-11-07 14:11:43.322122,-2049,2025-11-07 14:11:46.228886462
2025-11-07 14:11:43.322122,-1,2025-11-07 14:11:46.236578769
2025-11-07 14:11:43.322122,-16,2025-11-07 14:11:46.244271077
2025-11-07 14:11:43.322122,-6913,2025-11-07 14:11:46.251963385
2025-11-07 14:11:43.322122,-1,2025-11-07 14:11:46.259655692
2025-11-07 14:11:43.322122,-43,2025-11-07 14:11:46.267348000
2025-11-07 14:11:43.322122,-9985,2025-11-07 14:11:46.275040308
2025-11-07 14:11:43.322122,-1,2025-11-07 14:11:46.282732615
2025-11-07 14:11:43.322122,-21,2025-11-07 14:11:46.290424923
2025-11-07 14:11:43.322122,1279,2025-11-07 14:11:46.298117231
2025-11-07 14:11:43.322122,0,2025-11-07 14:11:46.305809538
2025-11-07 14:11:43.322122,36,2025-11-07 14:11:46.313501846
2025-11-07 14:11:43.322122,11520,2025-11-07 14:11:46.321194154
2025-11-07 14:11:43.322122,0,2025-11-07 14:11:46.328886462
2025-11-07 14:11:43.322122,16,2025-11-07 14:11:46.336578769
2025-11-07 14:11:43.322122,-1024,2025-11-07 14:11:46.344271077
2025-11-07 14:11:43.322122,-1,2025-11-07 14:11:46.351963385
2025-11-07 14:11:43.322122,7,2025-11-07 14:11:46.359655692
2025-11-07 14:11:43.322122,6144,2025-11-07 14:11:46.367348000
2025-11-07 14:11:43.322122,0,2025-11-07 14:11:46.375040308
2025-11-07 14:11:43.322122,16,2025-11-07 14:11:46.382732615
2025-11-07 14:11:43.322122,-4864,2025-11-07 14:11:46.390424923
2025-11-07 14:11:43.322122,-1,2025-11-07 14:11:46.398117230
2025-11-07 14:11:43.322122,-108,2025-11-07 14:11:46.405809538
2025-11-07 14:11:43.860745,-55,2025-11-07 14:11:46.413501846
2025-11-07 14:11:43.860745,4095,2025-11-07 14:11:46.421194154
2025-11-07 14:11:43.860745,2,2025-11-07 14:11:46.428886462
2025-11-07 14:11:43.860745,1173,2025-11-07 14:11:46.436578769
2025-11-07 14:11:43.860745,7936,2025-11-07 14:11:46.444271077
2025-11-07 14:11:43.860745,3,2025-11-07 14:11:46.451963385
2025-11-07 14:11:43.860745,-38,2025-11-07 14:11:46.459655692
2025-11-07 14:11:43.860745,-24833,2025-11-07 14:11:46.467348000
2025-11-07 14:11:43.860745,-1,2025-11-07 14:11:46.475040308
2025-11-07 14:11:43.860745,115,2025-11-07 14:11:46.482732615
2025-11-07 14:11:43.860745,-4864,2025-11-07 14:11:46.490424923
2025-11-07 14:11:43.860745,-1,2025-11-07 14:11:46.498117231
2025-11-07 14:11:43.860745,-79,2025-11-07 14:11:46.505809538
2025-11-07 14:11:43.860745,3327,2025-11-07 14:11:46.513501846
2025-11-07 14:11:43.860745,0,2025-11-07 14:11:46.521194154
2025-11-07 14:11:43.860745,-4,2025-11-07 14:11:46.528886462
2025-11-07 14:11:43.860745,-9473,2025-11-07 14:11:46.536578769
2025-11-07 14:11:43.860745,-1,2025-11-07 14:11:46.544271077
2025-11-07 14:11:43.860745,-7,2025-11-07 14:11:46.551963385
2025-11-07 14:11:43.860745,767,2025-11-07 14:11:46.559655692
2025-11-07 14:11:43.860745,0,2025-11-07 14:11:46.567348000
2025-11-07 14:11:43.860745,-2,2025-11-07 14:11:46.575040308
2025-11-07 14:11:43.860745,3839,2025-11-07 14:11:46.582732615
2025-11-07 14:11:43.860745,0,2025-11-07 14:11:46.590424923
2025-11-07 14:11:43.860745,26,2025-11-07 14:11:46.598117231
2025-11-07 14:11:43.860745,6656,2025-11-07 14:11:46.605809538
2025-11-07 14:11:43.860745,0,2025-11-07 14:11:46.613501846
2025-11-07 14:11:43.860745,31,2025-11-07 14:11:46.621194154
2025-11-07 14:11:43.860745,11008,2025-11-07 14:11:46.628886462
2025-11-07 14:11:43.860745,0,2025-11-07 14:11:46.636578769
2025-11-07 14:11:43.860745,45,2025-11-07 14:11:46.644271077
2025-11-07 14:11:43.860745,12800,2025-11-07 14:11:46.651963385
2025-11-07 14:11:43.860745,0,2025-11-07 14:11:46.659655692
2025-11-07 14:11:43.860745,57,2025-11-07 14:11:46.667348000
2025-11-07 14:11:43.860745,14080,2025-11-07 14:11:46.675040308
2025-11-07 14:11:43.860745,0,2025-11-07 14:11:46.682732615
2025-11-07 14:11:43.860745,52,2025-11-07 14:11:46.690424923
2025-11-07 14:11:43.860745,12800,2025-11-07 14:11:46.698117231
2025-11-07 14:11:43.860745,0,2025-11-07 14:11:46.705809538
2025-11-07 14:11:43.860745,45,2025-11-07 14:11:46.713501846
2025-11-07 14:11:43.860745,12800,2025-11-07 14:11:46.721194154
2025-11-07 14:11:43.860745,0,2025-11-07 14:11:46.728886462
2025-11-07 14:11:43.860745,55,2025-11-07 14:11:46.736578769
2025-11-07 14:11:43.860745,13312,2025-11-07 14:11:46.744271077
2025-11-07 14:11:43.860745,0,2025-11-07 14:11:46.751963385
2025-11-07 14:11:43.860745,40,2025-11-07 14:11:46.759655692
2025-11-07 14:11:43.860745,6144,2025-11-07 14:11:46.767348000
2025-11-07 14:11:43.860745,0,2025-11-07 14:11:46.775040308
2025-11-07 14:11:43.860745,9,2025-11-07 14:11:46.782732615
2025-11-07 14:11:43.860745,-1024,2025-11-07 14:11:46.790424923
2025-11-07 14:11:43.860745,-1,2025-11-07 14:11:46.798117231
2025-11-07 14:11:43.860745,-9,2025-11-07 14:11:46.805809538
2025-11-07 14:11:43.860745,-1537,2025-11-07 14:11:46.813501846
2025-11-07 14:11:43.860745,-1,2025-11-07 14:11:46.821194154
2025-11-07 14:11:43.860745,-7,2025-11-07 14:11:46.828886462
2025-11-07 14:11:43.860745,-4609,2025-11-07 14:11:46.836578769
2025-11-07 14:11:43.860745,-1,2025-11-07 14:11:46.844271077
2025-11-07 14:11:43.860745,-38,2025-11-07 14:11:46.851963385
2025-11-07 14:11:43.860745,-12545,2025-11-07 14:11:46.859655692
2025-11-07 14:11:43.860745,-1,2025-11-07 14:11:46.867348000
2025-11-07 14:11:43.860745,-50,2025-11-07 14:11:46.875040308
2025-11-07 14:11:43.860745,-12545,2025-11-07 14:11:46.882732615
2025-11-07 14:11:43.860745,-1,2025-11-07 14:11:46.890424923
2025-11-07 14:11:43.860745,-50,2025-11-07 14:11:46.898117231
2025-11-07 14:11:43.860745,-12545,2025-11-07 14:11:46.905809538
2025-11-07 14:11:43.860745,-1,2025-11-07 14:11:46.913501846
2025-11-07 14:11:43.860745,-60,2025-11-07 14:11:46.921194154
2025-11-07 14:11:43.860745,-18689,2025-11-07 14:11:46.928886462
2025-11-07 14:11:43.860745,-1,2025-11-07 14:11:46.936578769
2025-11-07 14:11:43.860745,-79,2025-11-07 14:11:46.944271077
2025-11-07 14:11:43.860745,-15105,2025-11-07 14:11:46.951963385
2025-11-07 14:11:43.860745,-1,2025-11-07 14:11:46.959655692
2025-11-07 14:11:43.860745,-31,2025-11-07 14:11:46.967348000
2025-11-07 14:11:43.860745,-2049,2025-11-07 14:11:46.975040308
2025-11-07 14:11:43.860745,-1,2025-11-07 14:11:46.982732615
2025-11-07 14:11:43.860745,14,2025-11-07 14:11:46.990424923
2025-11-07 14:11:43.860745,1792,2025-11-07 14:11:46.998117231
2025-11-07 14:11:43.860745,0,2025-11-07 14:11:47.005809538
2025-11-07 14:11:43.860745,-26,2025-11-07 14:11:47.013501846
2025-11-07 14:11:43.860745,-6401,2025-11-07 14:11:47.021194154
2025-11-07 14:11:43.860745,-1,2025-11-07 14:11:47.028886462
2025-11-07 14:11:43.860745,-4,2025-11-07 14:11:47.036578769
2025-11-07 14:11:43.860745,-769,2025-11-07 14:11:47.044271077
2025-11-07 14:11:43.860745,-1,2025-11-07 14:11:47.051963385
2025-11-07 14:11:43.860745,-24,2025-11-07 14:11:47.059655692
2025-11-07 14:11:43.860745,-23553,2025-11-07 14:11:47.067348000
2025-11-07 14:11:43.860745,-1,2025-11-07 14:11:47.075040308
2025-11-07 14:11:43.860745,-156,2025-11-07 14:11:47.082732615
2025-11-07 14:11:43.860745,-17409,2025-11-07 14:11:47.090424923
2025-11-07 14:11:43.860745,0,2025-11-07 14:11:47.098117231
2025-11-07 14:11:43.860745,968,2025-11-07 14:11:47.105809538
2025-11-07 14:11:43.860745,23808,2025-11-07 14:11:47.113501846
2025-11-07 14:11:43.860745,4,2025-11-07 14:11:47.121194154
2025-11-07 14:11:43.860745,269,2025-11-07 14:11:47.128886462
2025-11-07 14:11:43.860745,11520,2025-11-07 14:11:47.136578769
2025-11-07 14:11:43.860745,-1,2025-11-07 14:11:47.144271077
2025-11-07 14:11:43.860745,21,2025-11-07 14:11:47.151963385
2025-11-07 14:11:43.860745,6656,2025-11-07 14:11:47.159655692
2025-11-07 14:11:43.860745,0,2025-11-07 14:11:47.167348000
2025-11-07 14:11:43.860745,-139,2025-11-07 14:11:47.175040308
2025-11-07 14:11:43.860745,-18689,2025-11-07 14:11:47.182732615
2025-11-07 14:11:43.860745,-1,2025-11-07 14:11:47.190424923
2025-11-07 14:11:43.860745,-19,2025-11-07 14:11:47.198117231
2025-11-07 14:11:43.860745,-16897,2025-11-07 14:11:47.205809538
2025-11-07 14:11:43.860745,-1,2025-11-07 14:11:47.213501846
2025-11-07 14:11:43.860745,-57,2025-11-07 14:11:47.221194154
2025-11-07 14:11:43.860745,-5889,2025-11-07 14:11:47.228886462
2025-11-07 14:11:43.860745,-1,2025-11-07 14:11:47.236578769
2025-11-07 14:11:43.860745,-33,2025-11-07 14:11:47.244271077
2025-11-07 14:11:44.489702,-21,2025-11-07 14:11:47.251963385
2025-11-07 14:11:44.489702,8191,2025-11-07 14:11:47.259655692
2025-11-07 14:11:44.489702,0,2025-11-07 14:11:47.267348000
2025-11-07 14:11:44.489702,57,2025-11-07 14:11:47.275040308
2025-11-07 14:11:44.489702,14080,2025-11-07 14:11:47.282732615
2025-11-07 14:11:44.489702,0,2025-11-07 14:11:47.290424923
2025-11-07 14:11:44.489702,72,2025-11-07 14:11:47.298117231
2025-11-07 14:11:44.489702,22784,2025-11-07 14:11:47.305809538
2025-11-07 14:11:44.489702,0,2025-11-07 14:11:47.313501846
2025-11-07 14:11:44.489702,84,2025-11-07 14:11:47.321194154
2025-11-07 14:11:44.489702,22016,2025-11-07 14:11:47.328886462
2025-11-07 14:11:44.489702,0,2025-11-07 14:11:47.336578769
2025-11-07 14:11:44.489702,96,2025-11-07 14:11:47.344271077
2025-11-07 14:11:44.489702,23296,2025-11-07 14:11:47.351963385
2025-11-07 14:11:44.489702,0,2025-11-07 14:11:47.359655692
2025-11-07 14:11:44.489702,77,2025-11-07 14:11:47.367348000
2025-11-07 14:11:44.489702,17664,2025-11-07 14:11:47.375040308
2025-11-07 14:11:44.489702,0,2025-11-07 14:11:47.382732615
2025-11-07 14:11:44.489702,69,2025-11-07 14:11:47.390424923
2025-11-07 14:11:44.489702,17152,2025-11-07 14:11:47.398117230
2025-11-07 14:11:44.489702,0,2025-11-07 14:11:47.405809538
2025-11-07 14:11:44.489702,67,2025-11-07 14:11:47.413501846
2025-11-07 14:11:44.489702,15872,2025-11-07 14:11:47.421194154
2025-11-07 14:11:44.489702,0,2025-11-07 14:11:47.428886462
2025-11-07 14:11:44.489702,50,2025-11-07 14:11:47.436578769
2025-11-07 14:11:44.489702,9216,2025-11-07 14:11:47.444271077
2025-11-07 14:11:44.489702,0,2025-11-07 14:11:47.451963385
2025-11-07 14:11:44.489702,21,2025-11-07 14:11:47.459655692
2025-11-07 14:11:44.489702,3584,2025-11-07 14:11:47.467348000
2025-11-07 14:11:44.489702,0,2025-11-07 14:11:47.475040308
2025-11-07 14:11:44.489702,12,2025-11-07 14:11:47.482732615
2025-11-07 14:11:44.489702,3072,2025-11-07 14:11:47.490424923
2025-11-07 14:11:44.489702,0,2025-11-07 14:11:47.498117231
2025-11-07 14:11:44.489702,12,2025-11-07 14:11:47.505809538
2025-11-07 14:11:44.489702,2304,2025-11-07 14:11:47.513501846
2025-11-07 14:11:44.489702,0,2025-11-07 14:11:47.521194154
2025-11-07 14:11:44.489702,9,2025-11-07 14:11:47.528886462
2025-11-07 14:11:44.489702,3072,2025-11-07 14:11:47.536578769
2025-11-07 14:11:44.489702,0,2025-11-07 14:11:47.544271077
2025-11-07 14:11:44.489702,14,2025-11-07 14:11:47.551963385
2025-11-07 14:11:44.489702,4864,2025-11-07 14:11:47.559655692
2025-11-07 14:11:44.489702,0,2025-11-07 14:11:47.567348000
2025-11-07 14:11:44.489702,16,2025-11-07 14:11:47.575040308
2025-11-07 14:11:44.489702,3072,2025-11-07 14:11:47.582732615
2025-11-07 14:11:44.489702,0,2025-11-07 14:11:47.590424923
2025-11-07 14:11:44.489702,12,2025-11-07 14:11:47.598117231
2025-11-07 14:11:44.489702,2304,2025-11-07 14:11:47.605809538
2025-11-07 14:11:44.489702,0,2025-11-07 14:11:47.613501846
2025-11-07 14:11:44.489702,-2,2025-11-07 14:11:47.621194154
2025-11-07 14:11:44.489702,-4609,2025-11-07 14:11:47.628886462
2025-11-07 14:11:44.489702,-1,2025-11-07 14:11:47.636578769
2025-11-07 14:11:44.489702,-16,2025-11-07 14:11:47.644271077
2025-11-07 14:11:44.489702,2047,2025-11-07 14:11:47.651963385
2025-11-07 14:11:44.489702,0,2025-11-07 14:11:47.659655692
2025-11-07 14:11:44.489702,28,2025-11-07 14:11:47.667348000
2025-11-07 14:11:44.489702,14080,2025-11-07 14:11:47.675040308
2025-11-07 14:11:44.489702,0,2025-11-07 14:11:47.682732615
2025-11-07 14:11:44.489702,65,2025-11-07 14:11:47.690424923
2025-11-07 14:11:44.489702,9728,2025-11-07 14:11:47.698117231
2025-11-07 14:11:44.489702,0,2025-11-07 14:11:47.705809538
2025-11-07 14:11:44.489702,16,2025-11-07 14:11:47.713501846
2025-11-07 14:11:44.489702,7936,2025-11-07 14:11:47.721194154
2025-11-07 14:11:44.489702,0,2025-11-07 14:11:47.728886462
2025-11-07 14:11:44.489702,43,2025-11-07 14:11:47.736578769
2025-11-07 14:11:44.489702,7936,2025-11-07 14:11:47.744271077
2025-11-07 14:11:44.489702,0,2025-11-07 14:11:47.751963385
2025-11-07 14:11:44.489702,-19,2025-11-07 14:11:47.759655692
2025-11-07 14:11:44.489702,-26113,2025-11-07 14:11:47.767348000
2025-11-07 14:11:44.489702,-1,2025-11-07 14:11:47.775040308
2025-11-07 14:11:44.489702,45,2025-11-07 14:11:47.782732615
2025-11-07 14:11:44.489702,-6144,2025-11-07 14:11:47.790424923
2025-11-07 14:11:44.489702,2,2025-11-07 14:11:47.798117231
2025-11-07 14:11:44.489702,1279,2025-11-07 14:11:47.805809538
2025-11-07 14:11:44.489702,-19712,2025-11-07 14:11:47.813501846
2025-11-07 14:11:44.489702,2,2025-11-07 14:11:47.821194154
2025-11-07 14:11:44.489702,-120,2025-11-07 14:11:47.828886462
2025-11-07 14:11:44.489702,-16897,2025-11-07 14:11:47.836578769
2025-11-07 14:11:44.489702,-1,2025-11-07 14:11:47.844271077
2025-11-07 14:11:44.489702,101,2025-11-07 14:11:47.851963385
2025-11-07 14:11:44.489702,-18944,2025-11-07 14:11:47.859655692
2025-11-07 14:11:44.489702,-1,2025-11-07 14:11:47.867348000
2025-11-07 14:11:44.489702,-103,2025-11-07 14:11:47.875040308
2025-11-07 14:11:44.489702,-2817,2025-11-07 14:11:47.882732615
2025-11-07 14:11:44.489702,-1,2025-11-07 14:11:47.890424923
2025-11-07 14:11:44.489702,-38,2025-11-07 14:11:47.898117231
2025-11-07 14:11:44.489702,-14337,2025-11-07 14:11:47.905809538
2025-11-07 14:11:44.489702,-1,2025-11-07 14:11:47.913501846
2025-11-07 14:11:44.489702,-16,2025-11-07 14:11:47.921194154
2025-11-07 14:11:44.489702,-2817,2025-11-07 14:11:47.928886462
2025-11-07 14:11:44.489702,-1,2025-11-07 14:11:47.936578769
2025-11-07 14:11:44.489702,-21,2025-11-07 14:11:47.944271077
2025-11-07 14:11:44.489702,-1537,2025-11-07 14:11:47.951963385
2025-11-07 14:11:44.489702,-1,2025-11-07 14:11:47.959655692
2025-11-07 14:11:44.489702,2,2025-11-07 14:11:47.967348000
2025-11-07 14:11:44.489702,1792,2025-11-07 14:11:47.975040308
2025-11-07 14:11:44.489702,0,2025-11-07 14:11:47.982732615
2025-11-07 14:11:44.489702,12,2025-11-07 14:11:47.990424923
2025-11-07 14:11:44.489702,5376,2025-11-07 14:11:47.998117231
2025-11-07 14:11:44.489702,0,2025-11-07 14:11:48.005809538
2025-11-07 14:11:44.489702,26,2025-11-07 14:11:48.013501846
2025-11-07 14:11:44.489702,7936,2025-11-07 14:11:48.021194154
2025-11-07 14:11:44.489702,0,2025-11-07 14:11:48.028886462
2025-11-07 14:11:44.489702,33,2025-11-07 14:11:48.036578769
2025-11-07 14:11:44.489702,8448,2025-11-07 14:11:48.044271077
2025-11-07 14:11:44.489702,0,2025-11-07 14:11:48.051963385
2025-11-07 14:11:44.489702,24,2025-11-07 14:11:48.059655692
2025-11-07 14:11:44.489702,4096,2025-11-07 14:11:48.067348000
2025-11-07 14:11:44.489702,0,2025-11-07 14:11:48.075040308
2025-11-07 14:11:44.489702,12,2025-11-07 14:11:48.082732615
2025-11-07 14:11:45.029621,16,2025-11-07 14:11:48.090424923
2025-11-07 14:11:45.029621,6656,2025-11-07 14:11:48.098117231
2025-11-07 14:11:45.029621,0,2025-11-07 14:11:48.105809538
2025-11-07 14:11:45.029621,26,2025-11-07 14:11:48.113501846
2025-11-07 14:11:45.029621,4864,2025-11-07 14:11:48.121194154
2025-11-07 14:11:45.029621,0,2025-11-07 14:11:48.128886462
2025-11-07 14:11:45.029621,12,2025-11-07 14:11:48.136578769
2025-11-07 14:11:45.029621,0,2025-11-07 14:11:48.144271077
2025-11-07 14:11:45.029621,0,2025-11-07 14:11:48.151963385
2025-11-07 14:11:45.029621,-9,2025-11-07 14:11:48.159655692
2025-11-07 14:11:45.029621,-2049,2025-11-07 14:11:48.167348000
2025-11-07 14:11:45.029621,-1,2025-11-07 14:11:48.175040308
2025-11-07 14:11:45.029621,-12,2025-11-07 14:11:48.182732615
2025-11-07 14:11:45.029621,-3329,2025-11-07 14:11:48.190424923
2025-11-07 14:11:45.029621,-1,2025-11-07 14:11:48.198117231
2025-11-07 14:11:45.029621,-14,2025-11-07 14:11:48.205809538
2025-11-07 14:11:45.029621,-2049,2025-11-07 14:11:48.213501846
2025-11-07 14:11:45.029621,-1,2025-11-07 14:11:48.221194154
2025-11-07 14:11:45.029621,-4,2025-11-07 14:11:48.228886462
2025-11-07 14:11:45.029621,2559,2025-11-07 14:11:48.236578769
2025-11-07 14:11:45.029621,0,2025-11-07 14:11:48.244271077
2025-11-07 14:11:45.029621,19,2025-11-07 14:11:48.251963385
2025-11-07 14:11:45.029621,2304,2025-11-07 14:11:48.259655692
2025-11-07 14:11:45.029621,0,2025-11-07 14:11:48.267348000
2025-11-07 14:11:45.029621,2,2025-11-07 14:11:48.275040308
2025-11-07 14:11:45.029621,1792,2025-11-07 14:11:48.282732615
2025-11-07 14:11:45.029621,0,2025-11-07 14:11:48.290424923
2025-11-07 14:11:45.029621,9,2025-11-07 14:11:48.298117231
2025-11-07 14:11:45.029621,3072,2025-11-07 14:11:48.305809538
2025-11-07 14:11:45.029621,0,2025-11-07 14:11:48.313501846
2025-11-07 14:11:45.029621,14,2025-11-07 14:11:48.321194154
2025-11-07 14:11:45.029621,6656,2025-11-07 14:11:48.328886462
2025-11-07 14:11:45.029621,0,2025-11-07 14:11:48.336578769
2025-11-07 14:11:45.029621,45,2025-11-07 14:11:48.344271077
2025-11-07 14:11:45.029621,11520,2025-11-07 14:11:48.351963385
2025-11-07 14:11:45.029621,0,2025-11-07 14:11:48.359655692
2025-11-07 14:11:45.029621,31,2025-11-07 14:11:48.367348000
2025-11-07 14:11:45.029621,-512,2025-11-07 14:11:48.375040308
2025-11-07 14:11:45.029621,-1,2025-11-07 14:11:48.382732615
2025-11-07 14:11:45.029621,-31,2025-11-07 14:11:48.390424923
2025-11-07 14:11:45.029621,-2049,2025-11-07 14:11:48.398117230
2025-11-07 14:11:45.029621,-1,2025-11-07 14:11:48.405809538
2025-11-07 14:11:45.029621,21,2025-11-07 14:11:48.413501846
2025-11-07 14:11:45.029621,8448,2025-11-07 14:11:48.421194154
2025-11-07 14:11:45.029621,0,2025-11-07 14:11:48.428886462
2025-11-07 14:11:45.029621,52,2025-11-07 14:11:48.436578769
2025-11-07 14:11:45.029621,12800,2025-11-07 14:11:48.444271077
2025-11-07 14:11:45.029621,0,2025-11-07 14:11:48.451963385
2025-11-07 14:11:45.029621,21,2025-11-07 14:11:48.459655692
2025-11-07 14:11:45.029621,4864,2025-11-07 14:11:48.467348000
2025-11-07 14:11:45.029621,0,2025-11-07 14:11:48.475040308
2025-11-07 14:11:45.029621,48,2025-11-07 14:11:48.482732615
2025-11-07 14:11:45.029621,12288,2025-11-07 14:11:48.490424923
2025-11-07 14:11:45.029621,0,2025-11-07 14:11:48.498117231
2025-11-07 14:11:45.029621,4,2025-11-07 14:11:48.505809538
2025-11-07 14:11:45.029621,-16640,2025-11-07 14:11:48.513501846
2025-11-07 14:11:45.029621,-1,2025-11-07 14:11:48.521194154
2025-11-07 14:11:45.029621,-21,2025-11-07 14:11:48.528886462
2025-11-07 14:11:45.029621,2303,2025-11-07 14:11:48.536578769
2025-11-07 14:11:45.029621,2,2025-11-07 14:11:48.544271077
2025-11-07 14:11:45.029621,1271,2025-11-07 14:11:48.551963385
2025-11-07 14:11:45.029621,5888,2025-11-07 14:11:48.559655692
2025-11-07 14:11:45.029621,4,2025-11-07 14:11:48.567348000
2025-11-07 14:11:45.029621,77,2025-11-07 14:11:48.575040308
2025-11-07 14:11:45.029621,19968,2025-11-07 14:11:48.582732615
2025-11-07 14:11:45.029621,-1,2025-11-07 14:11:48.590424923
2025-11-07 14:11:45.029621,74,2025-11-07 14:11:48.598117231
2025-11-07 14:11:45.029621,-6656,2025-11-07 14:11:48.605809538
2025-11-07 14:11:45.029621,-1,2025-11-07 14:11:48.613501846
2025-11-07 14:11:45.029621,-142,2025-11-07 14:11:48.621194154
2025-11-07 14:11:45.029621,-11265,2025-11-07 14:11:48.628886462
2025-11-07 14:11:45.029621,-1,2025-11-07 14:11:48.636578769
2025-11-07 14:11:45.029621,-33,2025-11-07 14:11:48.644271077
2025-11-07 14:11:45.029621,-20481,2025-11-07 14:11:48.651963385
2025-11-07 14:11:45.029621,-1,2025-11-07 14:11:48.659655692
2025-11-07 14:11:45.029621,-52,2025-11-07 14:11:48.667348000
2025-11-07 14:11:45.029621,-7681,2025-11-07 14:11:48.675040308
2025-11-07 14:11:45.029621,-1,2025-11-07 14:11:48.682732615
2025-11-07 14:11:45.029621,-43,2025-11-07 14:11:48.690424923
2025-11-07 14:11:45.029621,-7681,2025-11-07 14:11:48.698117231
2025-11-07 14:11:45.029621,-1,2025-11-07 14:11:48.705809538
2025-11-07 14:11:45.029621,-21,2025-11-07 14:11:48.713501846
2025-11-07 14:11:45.029621,-6913,2025-11-07 14:11:48.721194154
2025-11-07 14:11:45.029621,-1,2025-11-07 14:11:48.728886462
2025-11-07 14:11:45.029621,-24,2025-11-07 14:11:48.736578769
2025-11-07 14:11:45.029621,-2817,2025-11-07 14:11:48.744271077
2025-11-07 14:11:45.029621,-1,2025-11-07 14:11:48.751963385
2025-11-07 14:11:45.029621,-7,2025-11-07 14:11:48.759655692
2025-11-07 14:11:45.029621,-769,2025-11-07 14:11:48.767348000
2025-11-07 14:11:45.029621,-1,2025-11-07 14:11:48.775040308
2025-11-07 14:11:45.029621,2,2025-11-07 14:11:48.782732615
2025-11-07 14:11:45.029621,512,2025-11-07 14:11:48.790424923
2025-11-07 14:11:45.029621,0,2025-11-07 14:11:48.798117231
2025-11-07 14:11:45.029621,-2,2025-11-07 14:11:48.805809538
2025-11-07 14:11:45.029621,-2049,2025-11-07 14:11:48.813501846
2025-11-07 14:11:45.029621,-1,2025-11-07 14:11:48.821194154
2025-11-07 14:11:45.029621,-16,2025-11-07 14:11:48.828886462
2025-11-07 14:11:45.029621,-2817,2025-11-07 14:11:48.836578769
2025-11-07 14:11:45.029621,-1,2025-11-07 14:11:48.844271077
2025-11-07 14:11:45.029621,-7,2025-11-07 14:11:48.851963385
2025-11-07 14:11:45.029621,-257,2025-11-07 14:11:48.859655692
2025-11-07 14:11:45.029621,-1,2025-11-07 14:11:48.867348000
2025-11-07 14:11:45.029621,-2,2025-11-07 14:11:48.875040308
2025-11-07 14:11:45.029621,-3329,2025-11-07 14:11:48.882732615
2025-11-07 14:11:45.029621,-1,2025-11-07 14:11:48.890424923
2025-11-07 14:11:45.029621,-26,2025-11-07 14:11:48.898117231
2025-11-07 14:11:45.029621,-5889,2025-11-07 14:11:48.905809538
2025-11-07 14:11:45.029621,-1,2025-11-07 14:11:48.913501846
2025-11-07 14:11:45.029621,-36,2025-11-07 14:11:48.921194154
2025-11-07 14:11:45.569665,-48,2025-11-07 14:11:48.928886462
2025-11-07 14:11:45.569665,-10753,2025-11-07 14:11:48.936578769
2025-11-07 14:11:45.569665,-1,2025-11-07 14:11:48.944271077
2025-11-07 14:11:45.569665,-43,2025-11-07 14:11:48.951963385
2025-11-07 14:11:45.569665,-13825,2025-11-07 14:11:48.959655692
2025-11-07 14:11:45.569665,-1,2025-11-07 14:11:48.967348000
2025-11-07 14:11:45.569665,-57,2025-11-07 14:11:48.975040308
2025-11-07 14:11:45.569665,-13057,2025-11-07 14:11:48.982732615
2025-11-07 14:11:45.569665,-1,2025-11-07 14:11:48.990424923
2025-11-07 14:11:45.569665,-57,2025-11-07 14:11:48.998117231
2025-11-07 14:11:45.569665,-16385,2025-11-07 14:11:49.005809538
2025-11-07 14:11:45.569665,-1,2025-11-07 14:11:49.013501846
2025-11-07 14:11:45.569665,-65,2025-11-07 14:11:49.021194154
2025-11-07 14:11:45.569665,-15105,2025-11-07 14:11:49.028886462
2025-11-07 14:11:45.569665,-1,2025-11-07 14:11:49.036578769
2025-11-07 14:11:45.569665,-52,2025-11-07 14:11:49.044271077
2025-11-07 14:11:45.569665,-9985,2025-11-07 14:11:49.051963385
2025-11-07 14:11:45.569665,-1,2025-11-07 14:11:49.059655692
2025-11-07 14:11:45.569665,-45,2025-11-07 14:11:49.067348000
2025-11-07 14:11:45.569665,-11265,2025-11-07 14:11:49.075040308
2025-11-07 14:11:45.569665,-1,2025-11-07 14:11:49.082732615
2025-11-07 14:11:45.569665,-43,2025-11-07 14:11:49.090424923
2025-11-07 14:11:45.569665,-12033,2025-11-07 14:11:49.098117231
2025-11-07 14:11:45.569665,-1,2025-11-07 14:11:49.105809538
2025-11-07 14:11:45.569665,-48,2025-11-07 14:11:49.113501846
2025-11-07 14:11:45.569665,-12033,2025-11-07 14:11:49.121194154
2025-11-07 14:11:45.569665,-1,2025-11-07 14:11:49.128886462
2025-11-07 14:11:45.569665,-52,2025-11-07 14:11:49.136578769
2025-11-07 14:11:45.569665,-12545,2025-11-07 14:11:49.144271077
2025-11-07 14:11:45.569665,-1,2025-11-07 14:11:49.151963385
2025-11-07 14:11:45.569665,-45,2025-11-07 14:11:49.159655692
2025-11-07 14:11:45.569665,-12545,2025-11-07 14:11:49.167348000
2025-11-07 14:11:45.569665,-1,2025-11-07 14:11:49.175040308
2025-11-07 14:11:45.569665,-57,2025-11-07 14:11:49.182732615
2025-11-07 14:11:45.569665,-16385,2025-11-07 14:11:49.190424923
2025-11-07 14:11:45.569665,-1,2025-11-07 14:11:49.198117231
2025-11-07 14:11:45.569665,-62,2025-11-07 14:11:49.205809538
2025-11-07 14:11:45.569665,-13057,2025-11-07 14:11:49.213501846
2025-11-07 14:11:45.569665,-1,2025-11-07 14:11:49.221194154
2025-11-07 14:11:45.569665,-62,2025-11-07 14:11:49.228886462
2025-11-07 14:11:45.569665,-23041,2025-11-07 14:11:49.236578769
2025-11-07 14:11:45.569665,-1,2025-11-07 14:11:49.244271077
2025-11-07 14:11:45.569665,-110,2025-11-07 14:11:49.251963385
2025-11-07 14:11:45.569665,-27393,2025-11-07 14:11:49.259655692
2025-11-07 14:11:45.569665,-1,2025-11-07 14:11:49.267348000
2025-11-07 14:11:45.569665,-91,2025-11-07 14:11:49.275040308
2025-11-07 14:11:45.569665,-18689,2025-11-07 14:11:49.282732615
2025-11-07 14:11:45.569665,-1,2025-11-07 14:11:49.290424923
2025-11-07 14:11:45.569665,-52,2025-11-07 14:11:49.298117231
2025-11-07 14:11:45.569665,-9985,2025-11-07 14:11:49.305809538
2025-11-07 14:11:45.569665,-1,2025-11-07 14:11:49.313501846
2025-11-07 14:11:45.569665,-62,2025-11-07 14:11:49.321194154
2025-11-07 14:11:45.569665,-21761,2025-11-07 14:11:49.328886462
2025-11-07 14:11:45.569665,-1,2025-11-07 14:11:49.336578769
2025-11-07 14:11:45.569665,-77,2025-11-07 14:11:49.344271077
2025-11-07 14:11:45.569665,-14337,2025-11-07 14:11:49.351963385
2025-11-07 14:11:45.569665,-1,2025-11-07 14:11:49.359655692
2025-11-07 14:11:45.569665,-67,2025-11-07 14:11:49.367348000
2025-11-07 14:11:45.569665,-29185,2025-11-07 14:11:49.375040308
2025-11-07 14:11:45.569665,-1,2025-11-07 14:11:49.382732615
2025-11-07 14:11:45.569665,-185,2025-11-07 14:11:49.390424923
2025-11-07 14:11:45.569665,-6401,2025-11-07 14:11:49.398117230
2025-11-07 14:11:45.569665,-1,2025-11-07 14:11:49.405809538
2025-11-07 14:11:45.569665,664,2025-11-07 14:11:49.413501846
2025-11-07 14:11:45.569665,-18944,2025-11-07 14:11:49.421194154
2025-11-07 14:11:45.569665,4,2025-11-07 14:11:49.428886462
2025-11-07 14:11:45.569665,621,2025-11-07 14:11:49.436578769
2025-11-07 14:11:45.569665,13312,2025-11-07 14:11:49.444271077
2025-11-07 14:11:45.569665,-1,2025-11-07 14:11:49.451963385
2025-11-07 14:11:45.569665,-168,2025-11-07 14:11:49.459655692
2025-11-07 14:11:45.569665,-3329,2025-11-07 14:11:49.467348000
2025-11-07 14:11:45.569665,-1,2025-11-07 14:11:49.475040308
2025-11-07 14:11:45.569665,-199,2025-11-07 14:11:49.482732615
2025-11-07 14:11:45.569665,8447,2025-11-07 14:11:49.490424923
2025-11-07 14:11:45.569665,-1,2025-11-07 14:11:49.498117231
2025-11-07 14:11:45.569665,-130,2025-11-07 14:11:49.505809538
2025-11-07 14:11:45.569665,25855,2025-11-07 14:11:49.513501846
2025-11-07 14:11:45.569665,-1,2025-11-07 14:11:49.521194154
2025-11-07 14:11:45.569665,-178,2025-11-07 14:11:49.528886462
2025-11-07 14:11:45.569665,29439,2025-11-07 14:11:49.536578769
2025-11-07 14:11:45.569665,-1,2025-11-07 14:11:49.544271077
2025-11-07 14:11:45.569665,-137,2025-11-07 14:11:49.551963385
2025-11-07 14:11:45.569665,28415,2025-11-07 14:11:49.559655692
2025-11-07 14:11:45.569665,-1,2025-11-07 14:11:49.567348000
2025-11-07 14:11:45.569665,-134,2025-11-07 14:11:49.575040308
2025-11-07 14:11:45.569665,-29185,2025-11-07 14:11:49.582732615
2025-11-07 14:11:45.569665,-1,2025-11-07 14:11:49.590424923
2025-11-07 14:11:45.569665,-103,2025-11-07 14:11:49.598117231
2025-11-07 14:11:45.569665,-24833,2025-11-07 14:11:49.605809538
2025-11-07 14:11:45.569665,-1,2025-11-07 14:11:49.613501846
2025-11-07 14:11:45.569665,-93,2025-11-07 14:11:49.621194154
2025-11-07 14:11:45.569665,-21249,2025-11-07 14:11:49.628886462
2025-11-07 14:11:45.569665,-1,2025-11-07 14:11:49.636578769
2025-11-07 14:11:45.569665,-79,2025-11-07 14:11:49.644271077
2025-11-07 14:11:45.569665,-18177,2025-11-07 14:11:49.651963385
2025-11-07 14:11:45.569665,-1,2025-11-07 14:11:49.659655692
2025-11-07 14:11:45.569665,-65,2025-11-07 14:11:49.667348000
2025-11-07 14:11:45.569665,-15617,2025-11-07 14:11:49.675040308
2025-11-07 14:11:45.569665,-1,2025-11-07 14:11:49.682732615
2025-11-07 14:11:45.569665,-65,2025-11-07 14:11:49.690424923
2025-11-07 14:11:45.569665,-16897,2025-11-07 14:11:49.698117231
2025-11-07 14:11:45.569665,-1,2025-11-07 14:11:49.705809538
2025-11-07 14:11:45.569665,-67,2025-11-07 14:11:49.713501846
2025-11-07 14:11:45.569665,-15105,2025-11-07 14:11:49.721194154
2025-11-07 14:11:45.569665,-1,2025-11-07 14:11:49.728886462
2025-11-07 14:11:45.569665,-52,2025-11-07 14:11:49.736578769
2025-11-07 14:11:45.569665,-12033,2025-11-07 14:11:49.744271077
2025-11-07 14:11:45.569665,-1,2025-11-07 14:11:49.751963385
2025-11-07 14:11:45.569665,-52,2025-11-07 14:11:49.759655692
2025-11-07 14:11:46.156329,-60,2025-11-07 14:11:49.767348000
2025-11-07 14:11:46.156329,-18177,2025-11-07 14:11:49.775040308
2025-11-07 14:11:46.156329,-1,2025-11-07 14:11:49.782732615
2025-11-07 14:11:46.156329,-89,2025-11-07 14:11:49.790424923
2025-11-07 14:11:46.156329,-24833,2025-11-07 14:11:49.798117231
2025-11-07 14:11:46.156329,-1,2025-11-07 14:11:49.805809538
2025-11-07 14:11:46.156329,-98,2025-11-07 14:11:49.813501846
2025-11-07 14:11:46.156329,-21761,2025-11-07 14:11:49.821194154
2025-11-07 14:11:46.156329,-1,2025-11-07 14:11:49.828886462
2025-11-07 14:11:46.156329,-74,2025-11-07 14:11:49.836578769
2025-11-07 14:11:46.156329,-18689,2025-11-07 14:11:49.844271077
2025-11-07 14:11:46.156329,-1,2025-11-07 14:11:49.851963385
2025-11-07 14:11:46.156329,-62,2025-11-07 14:11:49.859655692
2025-11-07 14:11:46.156329,-15105,2025-11-07 14:11:49.867348000
2025-11-07 14:11:46.156329,-1,2025-11-07 14:11:49.875040308
2025-11-07 14:11:46.156329,-69,2025-11-07 14:11:49.882732615
2025-11-07 14:11:46.156329,-15105,2025-11-07 14:11:49.890424923
2025-11-07 14:11:46.156329,-1,2025-11-07 14:11:49.898117231
2025-11-07 14:11:46.156329,-50,2025-11-07 14:11:49.905809538
2025-11-07 14:11:46.156329,-12033,2025-11-07 14:11:49.913501846
2025-11-07 14:11:46.156329,-1,2025-11-07 14:11:49.921194154
2025-11-07 14:11:46.156329,-38,2025-11-07 14:11:49.928886462
2025-11-07 14:11:46.156329,-8193,2025-11-07 14:11:49.936578769
2025-11-07 14:11:46.156329,-1,2025-11-07 14:11:49.944271077
2025-11-07 14:11:46.156329,-28,2025-11-07 14:11:49.951963385
2025-11-07 14:11:46.156329,-5121,2025-11-07 14:11:49.959655692
2025-11-07 14:11:46.156329,-1,2025-11-07 14:11:49.967348000
2025-11-07 14:11:46.156329,-19,2025-11-07 14:11:49.975040308
2025-11-07 14:11:46.156329,-3329,2025-11-07 14:11:49.982732615
2025-11-07 14:11:46.156329,-1,2025-11-07 14:11:49.990424923
2025-11-07 14:11:46.156329,-9,2025-11-07 14:11:49.998117231
2025-11-07 14:11:46.156329,-1537,2025-11-07 14:11:50.005809538
2025-11-07 14:11:46.156329,-1,2025-11-07 14:11:50.013501846
2025-11-07 14:11:46.156329,4,2025-11-07 14:11:50.021194154
2025-11-07 14:11:46.156329,8448,2025-11-07 14:11:50.028886462
2025-11-07 14:11:46.156329,0,2025-11-07 14:11:50.036578769
2025-11-07 14:11:46.156329,38,2025-11-07 14:11:50.044271077
2025-11-07 14:11:46.156329,1024,2025-11-07 14:11:50.051963385
2025-11-07 14:11:46.156329,0,2025-11-07 14:11:50.059655692
2025-11-07 14:11:46.156329,-9,2025-11-07 14:11:50.067348000
2025-11-07 14:11:46.156329,1279,2025-11-07 14:11:50.075040308
2025-11-07 14:11:46.156329,0,2025-11-07 14:11:50.082732615
2025-11-07 14:11:46.156329,-2,2025-11-07 14:11:50.090424923
2025-11-07 14:11:46.156329,-5889,2025-11-07 14:11:50.098117231
2025-11-07 14:11:46.156329,-1,2025-11-07 14:11:50.105809538
2025-11-07 14:11:46.156329,-33,2025-11-07 14:11:50.113501846
2025-11-07 14:11:46.156329,-6401,2025-11-07 14:11:50.121194154
2025-11-07 14:11:46.156329,-1,2025-11-07 14:11:50.128886462
2025-11-07 14:11:46.156329,-2,2025-11-07 14:11:50.136578769
2025-11-07 14:11:46.156329,6399,2025-11-07 14:11:50.144271077
2025-11-07 14:11:46.156329,0,2025-11-07 14:11:50.151963385
2025-11-07 14:11:46.156329,52,2025-11-07 14:11:50.159655692
2025-11-07 14:11:46.156329,15872,2025-11-07 14:11:50.167348000
2025-11-07 14:11:46.156329,0,2025-11-07 14:11:50.175040308
2025-11-07 14:11:46.156329,43,2025-11-07 14:11:50.182732615
2025-11-07 14:11:46.156329,8448,2025-11-07 14:11:50.190424923
2025-11-07 14:11:46.156329,0,2025-11-07 14:11:50.198117231
2025-11-07 14:11:46.156329,48,2025-11-07 14:11:50.205809538
2025-11-07 14:11:46.156329,15360,2025-11-07 14:11:50.213501846
2025-11-07 14:11:46.156329,0,2025-11-07 14:11:50.221194154
2025-11-07 14:11:46.156329,55,2025-11-07 14:11:50.228886462
2025-11-07 14:11:46.156329,3584,2025-11-07 14:11:50.236578769
2025-11-07 14:11:46.156329,0,2025-11-07 14:11:50.244271077
2025-11-07 14:11:46.156329,-48,2025-11-07 14:11:50.251963385
2025-11-07 14:11:46.156329,-27905,2025-11-07 14:11:50.259655692
2025-11-07 14:11:46.156329,0,2025-11-07 14:11:50.267348000
2025-11-07 14:11:46.156329,920,2025-11-07 14:11:50.275040308
2025-11-07 14:11:46.156329,-3072,2025-11-07 14:11:50.282732615
2025-11-07 14:11:46.156329,5,2025-11-07 14:11:50.290424923
2025-11-07 14:11:46.156329,881,2025-11-07 14:11:50.298117231
2025-11-07 14:11:46.156329,-18944,2025-11-07 14:11:50.305809538
2025-11-07 14:11:46.156329,-1,2025-11-07 14:11:50.313501846
2025-11-07 14:11:46.156329,-84,2025-11-07 14:11:50.321194154
2025-11-07 14:11:46.156329,27135,2025-11-07 14:11:50.328886462
2025-11-07 14:11:46.156329,0,2025-11-07 14:11:50.336578769
2025-11-07 14:11:46.156329,-67,2025-11-07 14:11:50.344271077
2025-11-07 14:11:46.156329,-25601,2025-11-07 14:11:50.351963385
2025-11-07 14:11:46.156329,-1,2025-11-07 14:11:50.359655692
2025-11-07 14:11:46.156329,-2,2025-11-07 14:11:50.367348000
2025-11-07 14:11:46.156329,-6913,2025-11-07 14:11:50.375040308
2025-11-07 14:11:46.156329,-1,2025-11-07 14:11:50.382732615
2025-11-07 14:11:46.156329,-55,2025-11-07 14:11:50.390424923
2025-11-07 14:11:46.156329,-2817,2025-11-07 14:11:50.398117230
2025-11-07 14:11:46.156329,-1,2025-11-07 14:11:50.405809538
2025-11-07 14:11:46.156329,-4,2025-11-07 14:11:50.413501846
2025-11-07 14:11:46.156329,-3841,2025-11-07 14:11:50.421194154
2025-11-07 14:11:46.156329,-1,2025-11-07 14:11:50.428886462
2025-11-07 14:11:46.156329,0,2025-11-07 14:11:50.436578769
2025-11-07 14:11:46.156329,2304,2025-11-07 14:11:50.444271077
2025-11-07 14:11:46.156329,0,2025-11-07 14:11:50.451963385
2025-11-07 14:11:46.156329,9,2025-11-07 14:11:50.459655692
2025-11-07 14:11:46.156329,4096,2025-11-07 14:11:50.467348000
2025-11-07 14:11:46.156329,0,2025-11-07 14:11:50.475040308
2025-11-07 14:11:46.156329,24,2025-11-07 14:11:50.482732615
2025-11-07 14:11:46.156329,7936,2025-11-07 14:11:50.490424923
2025-11-07 14:11:46.156329,0,2025-11-07 14:11:50.498117231
2025-11-07 14:11:46.156329,38,2025-11-07 14:11:50.505809538
2025-11-07 14:11:46.156329,11008,2025-11-07 14:11:50.513501846
2025-11-07 14:11:46.156329,0,2025-11-07 14:11:50.521194154
2025-11-07 14:11:46.156329,48,2025-11-07 14:11:50.528886462
2025-11-07 14:11:46.156329,11520,2025-11-07 14:11:50.536578769
2025-11-07 14:11:46.156329,0,2025-11-07 14:11:50.544271077
2025-11-07 14:11:46.156329,40,2025-11-07 14:11:50.551963385
2025-11-07 14:11:46.156329,8448,2025-11-07 14:11:50.559655692
2025-11-07 14:11:46.156329,0,2025-11-07 14:11:50.567348000
2025-11-07 14:11:46.156329,28,2025-11-07 14:11:50.575040308
2025-11-07 14:11:46.156329,7168,2025-11-07 14:11:50.582732615
2025-11-07 14:11:46.156329,0,2025-11-07 14:11:50.590424923
2025-11-07 14:11:46.156329,26,2025-11-07 14:11:50.598117231
2025-11-07 14:11:46.787364,26,2025-11-07 14:11:50.605809538
2025-11-07 14:11:46.787364,6656,2025-11-07 14:11:50.613501846
2025-11-07 14:11:46.787364,0,2025-11-07 14:11:50.621194154
2025-11-07 14:11:46.787364,24,2025-11-07 14:11:50.628886462
2025-11-07 14:11:46.787364,4864,2025-11-07 14:11:50.636578769
2025-11-07 14:11:46.787364,0,2025-11-07 14:11:50.644271077
2025-11-07 14:11:46.787364,16,2025-11-07 14:11:50.651963385
2025-11-07 14:11:46.787364,4864,2025-11-07 14:11:50.659655692
2025-11-07 14:11:46.787364,0,2025-11-07 14:11:50.667348000
2025-11-07 14:11:46.787364,19,2025-11-07 14:11:50.675040308
2025-11-07 14:11:46.787364,3584,2025-11-07 14:11:50.682732615
2025-11-07 14:11:46.787364,0,2025-11-07 14:11:50.690424923
2025-11-07 14:11:46.787364,12,2025-11-07 14:11:50.698117231
2025-11-07 14:11:46.787364,3072,2025-11-07 14:11:50.705809538
2025-11-07 14:11:46.787364,0,2025-11-07 14:11:50.713501846
2025-11-07 14:11:46.787364,19,2025-11-07 14:11:50.721194154
2025-11-07 14:11:46.787364,7936,2025-11-07 14:11:50.728886462
2025-11-07 14:11:46.787364,0,2025-11-07 14:11:50.736578769
2025-11-07 14:11:46.787364,31,2025-11-07 14:11:50.744271077
2025-11-07 14:11:46.787364,4864,2025-11-07 14:11:50.751963385
2025-11-07 14:11:46.787364,0,2025-11-07 14:11:50.759655692
2025-11-07 14:11:46.787364,19,2025-11-07 14:11:50.767348000
2025-11-07 14:11:46.787364,4096,2025-11-07 14:11:50.775040308
2025-11-07 14:11:46.787364,0,2025-11-07 14:11:50.782732615
2025-11-07 14:11:46.787364,16,2025-11-07 14:11:50.790424923
2025-11-07 14:11:46.787364,4864,2025-11-07 14:11:50.798117231
2025-11-07 14:11:46.787364,0,2025-11-07 14:11:50.805809538
2025-11-07 14:11:46.787364,24,2025-11-07 14:11:50.813501846
2025-11-07 14:11:46.787364,7168,2025-11-07 14:11:50.821194154
2025-11-07 14:11:46.787364,0,2025-11-07 14:11:50.828886462
2025-11-07 14:11:46.787364,28,2025-11-07 14:11:50.836578769
2025-11-07 14:11:46.787364,8448,2025-11-07 14:11:50.844271077
2025-11-07 14:11:46.787364,0,2025-11-07 14:11:50.851963385
2025-11-07 14:11:46.787364,38,2025-11-07 14:11:50.859655692
2025-11-07 14:11:46.787364,11008,2025-11-07 14:11:50.867348000
2025-11-07 14:11:46.787364,0,2025-11-07 14:11:50.875040308
2025-11-07 14:11:46.787364,45,2025-11-07 14:11:50.882732615
2025-11-07 14:11:46.787364,11008,2025-11-07 14:11:50.890424923
2025-11-07 14:11:46.787364,0,2025-11-07 14:11:50.898117231
2025-11-07 14:11:46.787364,45,2025-11-07 14:11:50.905809538
2025-11-07 14:11:46.787364,12288,2025-11-07 14:11:50.913501846
2025-11-07 14:11:46.787364,0,2025-11-07 14:11:50.921194154
2025-11-07 14:11:46.787364,50,2025-11-07 14:11:50.928886462
2025-11-07 14:11:46.787364,13312,2025-11-07 14:11:50.936578769
2025-11-07 14:11:46.787364,0,2025-11-07 14:11:50.944271077
2025-11-07 14:11:46.787364,50,2025-11-07 14:11:50.951963385
2025-11-07 14:11:46.787364,12800,2025-11-07 14:11:50.959655692
2025-11-07 14:11:46.787364,0,2025-11-07 14:11:50.967348000
2025-11-07 14:11:46.787364,52,2025-11-07 14:11:50.975040308
2025-11-07 14:11:46.787364,12800,2025-11-07 14:11:50.982732615
2025-11-07 14:11:46.787364,0,2025-11-07 14:11:50.990424923
2025-11-07 14:11:46.787364,50,2025-11-07 14:11:50.998117231
2025-11-07 14:11:46.787364,14080,2025-11-07 14:11:51.005809538
2025-11-07 14:11:46.787364,0,2025-11-07 14:11:51.013501846
2025-11-07 14:11:46.787364,50,2025-11-07 14:11:51.021194154
2025-11-07 14:11:46.787364,12288,2025-11-07 14:11:51.028886462
2025-11-07 14:11:46.787364,0,2025-11-07 14:11:51.036578769
2025-11-07 14:11:46.787364,48,2025-11-07 14:11:51.044271077
2025-11-07 14:11:46.787364,12288,2025-11-07 14:11:51.051963385
2025-11-07 14:11:46.787364,0,2025-11-07 14:11:51.059655692
2025-11-07 14:11:46.787364,48,2025-11-07 14:11:51.067348000
2025-11-07 14:11:46.787364,12288,2025-11-07 14:11:51.075040308
2025-11-07 14:11:46.787364,0,2025-11-07 14:11:51.082732615
2025-11-07 14:11:46.787364,43,2025-11-07 14:11:51.090424923
2025-11-07 14:11:46.787364,7936,2025-11-07 14:11:51.098117231
2025-11-07 14:11:46.787364,0,2025-11-07 14:11:51.105809538
2025-11-07 14:11:46.787364,14,2025-11-07 14:11:51.113501846
2025-11-07 14:11:46.787364,2304,2025-11-07 14:11:51.121194154
2025-11-07 14:11:46.787364,0,2025-11-07 14:11:51.128886462
2025-11-07 14:11:46.787364,24,2025-11-07 14:11:51.136578769
2025-11-07 14:11:46.787364,11520,2025-11-07 14:11:51.144271077
2025-11-07 14:11:46.787364,0,2025-11-07 14:11:51.151963385
2025-11-07 14:11:46.787364,67,2025-11-07 14:11:51.159655692
2025-11-07 14:11:46.787364,21504,2025-11-07 14:11:51.167348000
2025-11-07 14:11:46.787364,0,2025-11-07 14:11:51.175040308
2025-11-07 14:11:46.787364,69,2025-11-07 14:11:51.182732615
2025-11-07 14:11:46.787364,10240,2025-11-07 14:11:51.190424923
2025-11-07 14:11:46.787364,0,2025-11-07 14:11:51.198117231
2025-11-07 14:11:46.787364,43,2025-11-07 14:11:51.205809538
2025-11-07 14:11:46.787364,15360,2025-11-07 14:11:51.213501846
2025-11-07 14:11:46.787364,0,2025-11-07 14:11:51.221194154
2025-11-07 14:11:46.787364,57,2025-11-07 14:11:51.228886462
2025-11-07 14:11:46.787364,8448,2025-11-07 14:11:51.236578769
2025-11-07 14:11:46.787364,0,2025-11-07 14:11:51.244271077
2025-11-07 14:11:46.787364,-33,2025-11-07 14:11:51.251963385
2025-11-07 14:11:46.787364,767,2025-11-07 14:11:51.259655692
2025-11-07 14:11:46.787364,0,2025-11-07 14:11:51.267348000
2025-11-07 14:11:46.787364,556,2025-11-07 14:11:51.275040308
2025-11-07 14:11:46.787364,27392,2025-11-07 14:11:51.282732615
2025-11-07 14:11:46.787364,5,2025-11-07 14:11:51.290424923
2025-11-07 14:11:46.787364,1257,2025-11-07 14:11:51.298117231
2025-11-07 14:11:46.787364,-12544,2025-11-07 14:11:51.305809538
2025-11-07 14:11:46.787364,0,2025-11-07 14:11:51.313501846
2025-11-07 14:11:46.787364,-207,2025-11-07 14:11:51.321194154
2025-11-07 14:11:46.787364,13567,2025-11-07 14:11:51.328886462
2025-11-07 14:11:46.787364,0,2025-11-07 14:11:51.336578769
2025-11-07 14:11:46.787364,0,2025-11-07 14:11:51.344271077
2025-11-07 14:11:46.787364,27392,2025-11-07 14:11:51.351963385
2025-11-07 14:11:46.787364,-1,2025-11-07 14:11:51.359655692
2025-11-07 14:11:46.787364,-65,2025-11-07 14:11:51.367348000
2025-11-07 14:11:46.787364,-8193,2025-11-07 14:11:51.375040308
2025-11-07 14:11:46.787364,-1,2025-11-07 14:11:51.382732615
2025-11-07 14:11:46.787364,-86,2025-11-07 14:11:51.390424923
2025-11-07 14:11:46.787364,-16385,2025-11-07 14:11:51.398117230
2025-11-07 14:11:46.787364,-1,2025-11-07 14:11:51.405809538
2025-11-07 14:11:46.787364,-33,2025-11-07 14:11:51.413501846
2025-11-07 14:11:46.787364,-10753,2025-11-07 14:11:51.421194154
2025-11-07 14:11:46.787364,-1,2025-11-07 14:11:51.428886462
2025-11-07 14:11:46.787364,-43,2025-11-07 14:11:51.436578769
2025-11-07 14:11:47.279714,-28,2025-11-07 14:11:51.444271077
2025-11-07 14:11:47.279714,-6401,2025-11-07 14:11:51.451963385
2025-11-07 14:11:47.279714,-1,2025-11-07 14:11:51.459655692
2025-11-07 14:11:47.279714,-26,2025-11-07 14:11:51.467348000
2025-11-07 14:11:47.279714,-4609,2025-11-07 14:11:51.475040308
2025-11-07 14:11:47.279714,-1,2025-11-07 14:11:51.482732615
2025-11-07 14:11:47.279714,-14,2025-11-07 14:11:51.490424923
2025-11-07 14:11:47.279714,-2049,2025-11-07 14:11:51.498117231
2025-11-07 14:11:47.279714,-1,2025-11-07 14:11:51.505809538
2025-11-07 14:11:47.279714,-2,2025-11-07 14:11:51.513501846
2025-11-07 14:11:47.279714,-257,2025-11-07 14:11:51.521194154
2025-11-07 14:11:47.279714,-1,2025-11-07 14:11:51.528886462
2025-11-07 14:11:47.279714,-2,2025-11-07 14:11:51.536578769
2025-11-07 14:11:47.279714,-769,2025-11-07 14:11:51.544271077
2025-11-07 14:11:47.279714,-1,2025-11-07 14:11:51.551963385
2025-11-07 14:11:47.279714,-9,2025-11-07 14:11:51.559655692
2025-11-07 14:11:47.279714,-3329,2025-11-07 14:11:51.567348000
2025-11-07 14:11:47.279714,-1,2025-11-07 14:11:51.575040308
2025-11-07 14:11:47.279714,-16,2025-11-07 14:11:51.582732615
2025-11-07 14:11:47.279714,-3329,2025-11-07 14:11:51.590424923
2025-11-07 14:11:47.279714,-1,2025-11-07 14:11:51.598117231
2025-11-07 14:11:47.279714,-12,2025-11-07 14:11:51.605809538
2025-11-07 14:11:47.279714,-2049,2025-11-07 14:11:51.613501846
2025-11-07 14:11:47.279714,-1,2025-11-07 14:11:51.621194154
2025-11-07 14:11:47.279714,-4,2025-11-07 14:11:51.628886462
2025-11-07 14:11:47.279714,-769,2025-11-07 14:11:51.636578769
2025-11-07 14:11:47.279714,-1,2025-11-07 14:11:51.644271077
2025-11-07 14:11:47.279714,-2,2025-11-07 14:11:51.651963385
2025-11-07 14:11:47.279714,2559,2025-11-07 14:11:51.659655692
2025-11-07 14:11:47.279714,0,2025-11-07 14:11:51.667348000
2025-11-07 14:11:47.279714,24,2025-11-07 14:11:51.675040308
2025-11-07 14:11:47.279714,4864,2025-11-07 14:11:51.682732615
2025-11-07 14:11:47.279714,0,2025-11-07 14:11:51.690424923
2025-11-07 14:11:47.279714,7,2025-11-07 14:11:51.698117231
2025-11-07 14:11:47.279714,1024,2025-11-07 14:11:51.705809538
2025-11-07 14:11:47.279714,0,2025-11-07 14:11:51.713501846
2025-11-07 14:11:47.279714,7,2025-11-07 14:11:51.721194154
2025-11-07 14:11:47.279714,512,2025-11-07 14:11:51.728886462
2025-11-07 14:11:47.279714,0,2025-11-07 14:11:51.736578769
2025-11-07 14:11:47.279714,-2,2025-11-07 14:11:51.744271077
2025-11-07 14:11:47.279714,-769,2025-11-07 14:11:51.751963385
2025-11-07 14:11:47.279714,-1,2025-11-07 14:11:51.759655692
2025-11-07 14:11:47.279714,-9,2025-11-07 14:11:51.767348000
2025-11-07 14:11:47.279714,-3329,2025-11-07 14:11:51.775040308
2025-11-07 14:11:47.279714,-1,2025-11-07 14:11:51.782732615
2025-11-07 14:11:47.279714,-16,2025-11-07 14:11:51.790424923
2025-11-07 14:11:47.279714,-2817,2025-11-07 14:11:51.798117231
2025-11-07 14:11:47.279714,-1,2025-11-07 14:11:51.805809538
2025-11-07 14:11:47.279714,-9,2025-11-07 14:11:51.813501846
2025-11-07 14:11:47.279714,-1537,2025-11-07 14:11:51.821194154
2025-11-07 14:11:47.279714,-1,2025-11-07 14:11:51.828886462
2025-11-07 14:11:47.279714,-2,2025-11-07 14:11:51.836578769
2025-11-07 14:11:47.279714,767,2025-11-07 14:11:51.844271077
2025-11-07 14:11:47.279714,0,2025-11-07 14:11:51.851963385
2025-11-07 14:11:47.279714,7,2025-11-07 14:11:51.859655692
2025-11-07 14:11:47.279714,3072,2025-11-07 14:11:51.867348000
2025-11-07 14:11:47.279714,0,2025-11-07 14:11:51.875040308
2025-11-07 14:11:47.279714,9,2025-11-07 14:11:51.882732615
2025-11-07 14:11:47.279714,1792,2025-11-07 14:11:51.890424923
2025-11-07 14:11:47.279714,0,2025-11-07 14:11:51.898117231
2025-11-07 14:11:47.279714,7,2025-11-07 14:11:51.905809538
2025-11-07 14:11:47.279714,1792,2025-11-07 14:11:51.913501846
2025-11-07 14:11:47.279714,0,2025-11-07 14:11:51.921194154
2025-11-07 14:11:47.279714,4,2025-11-07 14:11:51.928886462
2025-11-07 14:11:47.279714,-512,2025-11-07 14:11:51.936578769
2025-11-07 14:11:47.279714,-1,2025-11-07 14:11:51.944271077
2025-11-07 14:11:47.279714,-2,2025-11-07 14:11:51.951963385
2025-11-07 14:11:47.279714,767,2025-11-07 14:11:51.959655692
2025-11-07 14:11:47.279714,0,2025-11-07 14:11:51.967348000
2025-11-07 14:11:47.279714,0,2025-11-07 14:11:51.975040308
2025-11-07 14:11:47.279714,-512,2025-11-07 14:11:51.982732615
2025-11-07 14:11:47.279714,-1,2025-11-07 14:11:51.990424923
2025-11-07 14:11:47.279714,-4,2025-11-07 14:11:51.998117231
2025-11-07 14:11:47.279714,-769,2025-11-07 14:11:52.005809538
2025-11-07 14:11:47.279714,-1,2025-11-07 14:11:52.013501846
2025-11-07 14:11:47.279714,-2,2025-11-07 14:11:52.021194154
2025-11-07 14:11:47.279714,-1537,2025-11-07 14:11:52.028886462
2025-11-07 14:11:47.279714,-1,2025-11-07 14:11:52.036578769
2025-11-07 14:11:47.279714,-4,2025-11-07 14:11:52.044271077
2025-11-07 14:11:47.279714,-769,2025-11-07 14:11:52.051963385
2025-11-07 14:11:47.279714,-1,2025-11-07 14:11:52.059655692
2025-11-07 14:11:47.279714,-14,2025-11-07 14:11:52.067348000
2025-11-07 14:11:47.279714,-5121,2025-11-07 14:11:52.075040308
2025-11-07 14:11:47.279714,-1,2025-11-07 14:11:52.082732615
2025-11-07 14:11:47.279714,-24,2025-11-07 14:11:52.090424923
2025-11-07 14:11:47.279714,-3329,2025-11-07 14:11:52.098117231
2025-11-07 14:11:47.279714,-1,2025-11-07 14:11:52.105809538
2025-11-07 14:11:47.279714,-9,2025-11-07 14:11:52.113501846
2025-11-07 14:11:47.279714,-5121,2025-11-07 14:11:52.121194154
2025-11-07 14:11:47.279714,-1,2025-11-07 14:11:52.128886462
2025-11-07 14:11:47.279714,-24,2025-11-07 14:11:52.136578769
2025-11-07 14:11:47.279714,-5889,2025-11-07 14:11:52.144271077
2025-11-07 14:11:47.279714,-1,2025-11-07 14:11:52.151963385
2025-11-07 14:11:47.279714,-26,2025-11-07 14:11:52.159655692
2025-11-07 14:11:47.279714,-5121,2025-11-07 14:11:52.167348000
2025-11-07 14:11:47.279714,-1,2025-11-07 14:11:52.175040308
2025-11-07 14:11:47.279714,-19,2025-11-07 14:11:52.182732615
2025-11-07 14:11:47.279714,-4609,2025-11-07 14:11:52.190424923
2025-11-07 14:11:47.279714,-1,2025-11-07 14:11:52.198117231
2025-11-07 14:11:47.279714,-19,2025-11-07 14:11:52.205809538
2025-11-07 14:11:47.279714,-6401,2025-11-07 14:11:52.213501846
2025-11-07 14:11:47.279714,-1,2025-11-07 14:11:52.221194154
2025-11-07 14:11:47.279714,-38,2025-11-07 14:11:52.228886462
2025-11-07 14:11:47.279714,-12545,2025-11-07 14:11:52.236578769
2025-11-07 14:11:47.279714,-1,2025-11-07 14:11:52.244271077
2025-11-07 14:11:47.279714,-55,2025-11-07 14:11:52.251963385
2025-11-07 14:11:47.279714,-14337,2025-11-07 14:11:52.259655692
2025-11-07 14:11:47.279714,-1,2025-11-07 14:11:52.267348000
2025-11-07 14:11:47.279714,-45,2025-11-07 14:11:52.275040308
2025-11-07 14:11:47.821313,-14,2025-11-07 14:11:52.282732615
2025-11-07 14:11:47.821313,4351,2025-11-07 14:11:52.290424923
2025-11-07 14:11:47.821313,0,2025-11-07 14:11:52.298117231
2025-11-07 14:11:47.821313,9,2025-11-07 14:11:52.305809538
2025-11-07 14:11:47.821313,-5376,2025-11-07 14:11:52.313501846
2025-11-07 14:11:47.821313,-1,2025-11-07 14:11:52.321194154
2025-11-07 14:11:47.821313,-28,2025-11-07 14:11:52.328886462
2025-11-07 14:11:47.821313,-2817,2025-11-07 14:11:52.336578769
2025-11-07 14:11:47.821313,-1,2025-11-07 14:11:52.344271077
2025-11-07 14:11:47.821313,-12,2025-11-07 14:11:52.351963385
2025-11-07 14:11:47.821313,-6401,2025-11-07 14:11:52.359655692
2025-11-07 14:11:47.821313,-1,2025-11-07 14:11:52.367348000
2025-11-07 14:11:47.821313,-77,2025-11-07 14:11:52.375040308
2025-11-07 14:11:47.821313,31487,2025-11-07 14:11:52.382732615
2025-11-07 14:11:47.821313,-1,2025-11-07 14:11:52.390424923
2025-11-07 14:11:47.821313,180,2025-11-07 14:11:52.398117230
2025-11-07 14:11:47.821313,6656,2025-11-07 14:11:52.405809538
2025-11-07 14:11:47.821313,4,2025-11-07 14:11:52.413501846
2025-11-07 14:11:47.821313,1411,2025-11-07 14:11:52.421194154
2025-11-07 14:11:47.821313,6400,2025-11-07 14:11:52.428886462
2025-11-07 14:11:47.821313,2,2025-11-07 14:11:52.436578769
2025-11-07 14:11:47.821313,-226,2025-11-07 14:11:52.444271077
2025-11-07 14:11:47.821313,-17409,2025-11-07 14:11:52.451963385
2025-11-07 14:11:47.821313,-1,2025-11-07 14:11:52.459655692
2025-11-07 14:11:47.821313,16,2025-11-07 14:11:52.467348000
2025-11-07 14:11:47.821313,19456,2025-11-07 14:11:52.475040308
2025-11-07 14:11:47.821313,-1,2025-11-07 14:11:52.482732615
2025-11-07 14:11:47.821313,-154,2025-11-07 14:11:52.490424923
2025-11-07 14:11:47.821313,-20481,2025-11-07 14:11:52.498117231
2025-11-07 14:11:47.821313,-1,2025-11-07 14:11:52.505809538
2025-11-07 14:11:47.821313,-130,2025-11-07 14:11:52.513501846
2025-11-07 14:11:47.821313,-32257,2025-11-07 14:11:52.521194154
2025-11-07 14:11:47.821313,-1,2025-11-07 14:11:52.528886462
2025-11-07 14:11:47.821313,-86,2025-11-07 14:11:52.536578769
2025-11-07 14:11:47.821313,-24321,2025-11-07 14:11:52.544271077
2025-11-07 14:11:47.821313,-1,2025-11-07 14:11:52.551963385
2025-11-07 14:11:47.821313,-110,2025-11-07 14:11:52.559655692
2025-11-07 14:11:47.821313,-24321,2025-11-07 14:11:52.567348000
2025-11-07 14:11:47.821313,-1,2025-11-07 14:11:52.575040308
2025-11-07 14:11:47.821313,-84,2025-11-07 14:11:52.582732615
2025-11-07 14:11:47.821313,-22529,2025-11-07 14:11:52.590424923
2025-11-07 14:11:47.821313,-1,2025-11-07 14:11:52.598117231
2025-11-07 14:11:47.821313,-84,2025-11-07 14:11:52.605809538
2025-11-07 14:11:47.821313,-18689,2025-11-07 14:11:52.613501846
2025-11-07 14:11:47.821313,-1,2025-11-07 14:11:52.621194154
2025-11-07 14:11:47.821313,-74,2025-11-07 14:11:52.628886462
2025-11-07 14:11:47.821313,-18177,2025-11-07 14:11:52.636578769
2025-11-07 14:11:47.821313,-1,2025-11-07 14:11:52.644271077
2025-11-07 14:11:47.821313,-62,2025-11-07 14:11:52.651963385
2025-11-07 14:11:47.821313,-15617,2025-11-07 14:11:52.659655692
2025-11-07 14:11:47.821313,-1,2025-11-07 14:11:52.667348000
2025-11-07 14:11:47.821313,-62,2025-11-07 14:11:52.675040308
2025-11-07 14:11:47.821313,-16897,2025-11-07 14:11:52.682732615
2025-11-07 14:11:47.821313,-1,2025-11-07 14:11:52.690424923
2025-11-07 14:11:47.821313,-74,2025-11-07 14:11:52.698117231
2025-11-07 14:11:47.821313,-19457,2025-11-07 14:11:52.705809538
2025-11-07 14:11:47.821313,-1,2025-11-07 14:11:52.713501846
2025-11-07 14:11:47.821313,-77,2025-11-07 14:11:52.721194154
2025-11-07 14:11:47.821313,-20481,2025-11-07 14:11:52.728886462
2025-11-07 14:11:47.821313,-1,2025-11-07 14:11:52.736578769
2025-11-07 14:11:47.821313,-81,2025-11-07 14:11:52.744271077
2025-11-07 14:11:47.821313,-17409,2025-11-07 14:11:52.751963385
2025-11-07 14:11:47.821313,-1,2025-11-07 14:11:52.759655692
2025-11-07 14:11:47.821313,-65,2025-11-07 14:11:52.767348000
2025-11-07 14:11:47.821313,-19457,2025-11-07 14:11:52.775040308
2025-11-07 14:11:47.821313,-1,2025-11-07 14:11:52.782732615
2025-11-07 14:11:47.821313,-86,2025-11-07 14:11:52.790424923
2025-11-07 14:11:47.821313,-21761,2025-11-07 14:11:52.798117231
2025-11-07 14:11:47.821313,-1,2025-11-07 14:11:52.805809538
2025-11-07 14:11:47.821313,-93,2025-11-07 14:11:52.813501846
2025-11-07 14:11:47.821313,-25601,2025-11-07 14:11:52.821194154
2025-11-07 14:11:47.821313,-1,2025-11-07 14:11:52.828886462
2025-11-07 14:11:47.821313,-103,2025-11-07 14:11:52.836578769
2025-11-07 14:11:47.821313,-25601,2025-11-07 14:11:52.844271077
2025-11-07 14:11:47.821313,-1,2025-11-07 14:11:52.851963385
2025-11-07 14:11:47.821313,-101,2025-11-07 14:11:52.859655692
2025-11-07 14:11:47.821313,-26113,2025-11-07 14:11:52.867348000
2025-11-07 14:11:47.821313,-1,2025-11-07 14:11:52.875040308
2025-11-07 14:11:47.821313,-98,2025-11-07 14:11:52.882732615
2025-11-07 14:11:47.821313,-23553,2025-11-07 14:11:52.890424923
2025-11-07 14:11:47.821313,-1,2025-11-07 14:11:52.898117231
2025-11-07 14:11:47.821313,-96,2025-11-07 14:11:52.905809538
2025-11-07 14:11:47.821313,-23041,2025-11-07 14:11:52.913501846
2025-11-07 14:11:47.821313,-1,2025-11-07 14:11:52.921194154
2025-11-07 14:11:47.821313,-77,2025-11-07 14:11:52.928886462
2025-11-07 14:11:47.821313,-17409,2025-11-07 14:11:52.936578769
2025-11-07 14:11:47.821313,-1,2025-11-07 14:11:52.944271077
2025-11-07 14:11:47.821313,-69,2025-11-07 14:11:52.951963385
2025-11-07 14:11:47.821313,-16897,2025-11-07 14:11:52.959655692
2025-11-07 14:11:47.821313,-1,2025-11-07 14:11:52.967348000
2025-11-07 14:11:47.821313,-62,2025-11-07 14:11:52.975040308
2025-11-07 14:11:47.821313,-15105,2025-11-07 14:11:52.982732615
2025-11-07 14:11:47.821313,-1,2025-11-07 14:11:52.990424923
2025-11-07 14:11:47.821313,-62,2025-11-07 14:11:52.998117231
2025-11-07 14:11:47.821313,-14337,2025-11-07 14:11:53.005809538
2025-11-07 14:11:47.821313,-1,2025-11-07 14:11:53.013501846
2025-11-07 14:11:47.821313,-55,2025-11-07 14:11:53.021194154
2025-11-07 14:11:47.821313,-13825,2025-11-07 14:11:53.028886462
2025-11-07 14:11:47.821313,-1,2025-11-07 14:11:53.036578769
2025-11-07 14:11:47.821313,-50,2025-11-07 14:11:53.044271077
2025-11-07 14:11:47.821313,-12545,2025-11-07 14:11:53.051963385
2025-11-07 14:11:47.821313,-1,2025-11-07 14:11:53.059655692
2025-11-07 14:11:47.821313,-50,2025-11-07 14:11:53.067348000
2025-11-07 14:11:47.821313,-11265,2025-11-07 14:11:53.075040308
2025-11-07 14:11:47.821313,-1,2025-11-07 14:11:53.082732615
2025-11-07 14:11:47.821313,-40,2025-11-07 14:11:53.090424923
2025-11-07 14:11:47.821313,-9985,2025-11-07 14:11:53.098117231
2025-11-07 14:11:47.821313,-1,2025-11-07 14:11:53.105809538
2025-11-07 14:11:47.821313,-40,2025-11-07 14:11:53.113501846
2025-11-07 14:11:48.413623,-33,2025-11-07 14:11:53.121194154
2025-11-07 14:11:48.413623,-8193,2025-11-07 14:11:53.128886462
2025-11-07 14:11:48.413623,-1,2025-11-07 14:11:53.136578769
2025-11-07 14:11:48.413623,-36,2025-11-07 14:11:53.144271077
2025-11-07 14:11:48.413623,-7681,2025-11-07 14:11:53.151963385
2025-11-07 14:11:48.413623,-1,2025-11-07 14:11:53.159655692
2025-11-07 14:11:48.413623,-31,2025-11-07 14:11:53.167348000
2025-11-07 14:11:48.413623,-7681,2025-11-07 14:11:53.175040308
2025-11-07 14:11:48.413623,-1,2025-11-07 14:11:53.182732615
2025-11-07 14:11:48.413623,-28,2025-11-07 14:11:53.190424923
2025-11-07 14:11:48.413623,-5889,2025-11-07 14:11:53.198117231
2025-11-07 14:11:48.413623,-1,2025-11-07 14:11:53.205809538
2025-11-07 14:11:48.413623,-12,2025-11-07 14:11:53.213501846
2025-11-07 14:11:48.413623,767,2025-11-07 14:11:53.221194154
2025-11-07 14:11:48.413623,0,2025-11-07 14:11:53.228886462
2025-11-07 14:11:48.413623,0,2025-11-07 14:11:53.236578769
2025-11-07 14:11:48.413623,-3072,2025-11-07 14:11:53.244271077
2025-11-07 14:11:48.413623,-1,2025-11-07 14:11:53.251963385
2025-11-07 14:11:48.413623,-26,2025-11-07 14:11:53.259655692
2025-11-07 14:11:48.413623,-9985,2025-11-07 14:11:53.267348000
2025-11-07 14:11:48.413623,-1,2025-11-07 14:11:53.275040308
2025-11-07 14:11:48.413623,-38,2025-11-07 14:11:53.282732615
2025-11-07 14:11:48.413623,-3841,2025-11-07 14:11:53.290424923
2025-11-07 14:11:48.413623,-1,2025-11-07 14:11:53.298117231
2025-11-07 14:11:48.413623,9,2025-11-07 14:11:53.305809538
2025-11-07 14:11:48.413623,8448,2025-11-07 14:11:53.313501846
2025-11-07 14:11:48.413623,0,2025-11-07 14:11:53.321194154
2025-11-07 14:11:48.413623,36,2025-11-07 14:11:53.328886462
2025-11-07 14:11:48.413623,2304,2025-11-07 14:11:53.336578769
2025-11-07 14:11:48.413623,0,2025-11-07 14:11:53.344271077
2025-11-07 14:11:48.413623,-2,2025-11-07 14:11:53.351963385
2025-11-07 14:11:48.413623,5119,2025-11-07 14:11:53.359655692
2025-11-07 14:11:48.413623,0,2025-11-07 14:11:53.367348000
2025-11-07 14:11:48.413623,28,2025-11-07 14:11:53.375040308
2025-11-07 14:11:48.413623,4096,2025-11-07 14:11:53.382732615
2025-11-07 14:11:48.413623,0,2025-11-07 14:11:53.390424923
2025-11-07 14:11:48.413623,-21,2025-11-07 14:11:53.398117230
2025-11-07 14:11:48.413623,-24321,2025-11-07 14:11:53.405809538
2025-11-07 14:11:48.413623,-1,2025-11-07 14:11:53.413501846
2025-11-07 14:11:48.413623,62,2025-11-07 14:11:53.421194154
2025-11-07 14:11:48.413623,9728,2025-11-07 14:11:53.428886462
2025-11-07 14:11:48.413623,3,2025-11-07 14:11:53.436578769
2025-11-07 14:11:48.413623,1471,2025-11-07 14:11:53.444271077
2025-11-07 14:11:48.413623,-27904,2025-11-07 14:11:53.451963385
2025-11-07 14:11:48.413623,3,2025-11-07 14:11:53.459655692
2025-11-07 14:11:48.413623,-74,2025-11-07 14:11:53.467348000
2025-11-07 14:11:48.413623,29439,2025-11-07 14:11:53.475040308
2025-11-07 14:11:48.413623,-1,2025-11-07 14:11:53.482732615
2025-11-07 14:11:48.413623,67,2025-11-07 14:11:53.490424923
2025-11-07 14:11:48.413623,-26880,2025-11-07 14:11:53.498117231
2025-11-07 14:11:48.413623,-1,2025-11-07 14:11:53.505809538
2025-11-07 14:11:48.413623,-156,2025-11-07 14:11:53.513501846
2025-11-07 14:11:48.413623,-12545,2025-11-07 14:11:53.521194154
2025-11-07 14:11:48.413623,-1,2025-11-07 14:11:53.528886462
2025-11-07 14:11:48.413623,-69,2025-11-07 14:11:53.536578769
2025-11-07 14:11:48.413623,-24833,2025-11-07 14:11:53.544271077
2025-11-07 14:11:48.413623,-1,2025-11-07 14:11:53.551963385
2025-11-07 14:11:48.413623,-55,2025-11-07 14:11:53.559655692
2025-11-07 14:11:48.413623,-10753,2025-11-07 14:11:53.567348000
2025-11-07 14:11:48.413623,-1,2025-11-07 14:11:53.575040308
2025-11-07 14:11:48.413623,-52,2025-11-07 14:11:53.582732615
2025-11-07 14:11:48.413623,-9473,2025-11-07 14:11:53.590424923
2025-11-07 14:11:48.413623,-1,2025-11-07 14:11:53.598117231
2025-11-07 14:11:48.413623,-24,2025-11-07 14:11:53.605809538
2025-11-07 14:11:48.413623,-5889,2025-11-07 14:11:53.613501846
2025-11-07 14:11:48.413623,-1,2025-11-07 14:11:53.621194154
2025-11-07 14:11:48.413623,-19,2025-11-07 14:11:53.628886462
2025-11-07 14:11:48.413623,-2817,2025-11-07 14:11:53.636578769
2025-11-07 14:11:48.413623,-1,2025-11-07 14:11:53.644271077
2025-11-07 14:11:48.413623,-12,2025-11-07 14:11:53.651963385
2025-11-07 14:11:48.413623,-1537,2025-11-07 14:11:53.659655692
2025-11-07 14:11:48.413623,-1,2025-11-07 14:11:53.667348000
2025-11-07 14:11:48.413623,0,2025-11-07 14:11:53.675040308
2025-11-07 14:11:48.413623,1792,2025-11-07 14:11:53.682732615
2025-11-07 14:11:48.413623,0,2025-11-07 14:11:53.690424923
2025-11-07 14:11:48.413623,14,2025-11-07 14:11:53.698117231
2025-11-07 14:11:48.413623,3584,2025-11-07 14:11:53.705809538
2025-11-07 14:11:48.413623,0,2025-11-07 14:11:53.713501846
2025-11-07 14:11:48.413623,12,2025-11-07 14:11:53.721194154
2025-11-07 14:11:48.413623,2304,2025-11-07 14:11:53.728886462
2025-11-07 14:11:48.413623,0,2025-11-07 14:11:53.736578769
2025-11-07 14:11:48.413623,7,2025-11-07 14:11:53.744271077
2025-11-07 14:11:48.413623,2304,2025-11-07 14:11:53.751963385
2025-11-07 14:11:48.413623,0,2025-11-07 14:11:53.759655692
2025-11-07 14:11:48.413623,9,2025-11-07 14:11:53.767348000
2025-11-07 14:11:48.413623,1792,2025-11-07 14:11:53.775040308
2025-11-07 14:11:48.413623,0,2025-11-07 14:11:53.782732615
2025-11-07 14:11:48.413623,4,2025-11-07 14:11:53.790424923
2025-11-07 14:11:48.413623,512,2025-11-07 14:11:53.798117231
2025-11-07 14:11:48.413623,0,2025-11-07 14:11:53.805809538
2025-11-07 14:11:48.413623,2,2025-11-07 14:11:53.813501846
2025-11-07 14:11:48.413623,512,2025-11-07 14:11:53.821194154
2025-11-07 14:11:48.413623,0,2025-11-07 14:11:53.828886462
2025-11-07 14:11:48.413623,0,2025-11-07 14:11:53.836578769
2025-11-07 14:11:48.413623,-512,2025-11-07 14:11:53.844271077
2025-11-07 14:11:48.413623,-1,2025-11-07 14:11:53.851963385
2025-11-07 14:11:48.413623,-9,2025-11-07 14:11:53.859655692
2025-11-07 14:11:48.413623,-3329,2025-11-07 14:11:53.867348000
2025-11-07 14:11:48.413623,-1,2025-11-07 14:11:53.875040308
2025-11-07 14:11:48.413623,-16,2025-11-07 14:11:53.882732615
2025-11-07 14:11:48.413623,-3841,2025-11-07 14:11:53.890424923
2025-11-07 14:11:48.413623,-1,2025-11-07 14:11:53.898117231
2025-11-07 14:11:48.413623,-14,2025-11-07 14:11:53.905809538
2025-11-07 14:11:48.413623,-3329,2025-11-07 14:11:53.913501846
2025-11-07 14:11:48.413623,-1,2025-11-07 14:11:53.921194154
2025-11-07 14:11:48.413623,-12,2025-11-07 14:11:53.928886462
2025-11-07 14:11:48.413623,-1537,2025-11-07 14:11:53.936578769
2025-11-07 14:11:48.413623,-1,2025-11-07 14:11:53.944271077
2025-11-07 14:11:48.413623,0,2025-11-07 14:11:53.951963385
2025-11-07 14:11:48.947083,4,2025-11-07 14:11:53.959655692
2025-11-07 14:11:48.947083,2304,2025-11-07 14:11:53.967348000
