timestamp,ecg
14:11:38.867348,-36
14:11:38.867348,10495
14:11:38.867348,-1
14:11:38.867348,-171
14:11:38.867348,-29185
14:11:38.867348,-1
14:11:38.867348,-161
14:11:38.867348,26367
14:11:38.867348,-1
14:11:38.867348,-125
14:11:38.867348,-28673
14:11:38.867348,-1
14:11:38.867348,-93
14:11:38.867348,-21761
14:11:38.867348,-1
14:11:38.867348,-93
14:11:38.867348,-22529
14:11:38.867348,-1
14:11:38.867348,-72
14:11:38.867348,-16385
14:11:38.867348,-1
14:11:38.867348,-60
14:11:38.867348,-12033
14:11:38.867348,-1
14:11:38.867348,-55
14:11:38.867348,-16385
14:11:38.867348,-1
14:11:38.867348,-60
14:11:38.867348,-13825
14:11:38.867348,-1
14:11:38.867348,-69
14:11:38.867348,-21249
14:11:38.867348,-1
14:11:38.867348,-77
14:11:38.867348,-17409
14:11:38.867348,-1
14:11:38.867348,-77
14:11:38.867348,-25601
14:11:38.867348,-1
14:11:38.867348,-130
14:11:38.867348,27135
14:11:38.867348,-1
14:11:38.867348,-158
14:11:38.867348,24575
14:11:38.867348,-1
14:11:38.867348,-163
14:11:38.867348,22783
14:11:38.867348,-1
14:11:38.867348,-166
14:11:38.867348,26367
14:11:38.867348,-1
14:11:38.867348,-158
14:11:38.867348,20991
14:11:38.867348,-1
14:11:38.867348,-180
14:11:38.867348,22783
14:11:38.867348,-1
14:11:38.867348,-161
14:11:38.867348,23295
14:11:38.867348,-1
14:11:38.867348,-168
14:11:38.867348,22783
14:11:38.867348,-1
14:11:38.867348,-171
14:11:38.867348,20991
14:11:38.867348,-1
14:11:38.867348,-183
14:11:38.867348,20991
14:11:38.867348,-1
14:11:38.867348,-168
14:11:38.867348,22015
14:11:38.867348,-1
14:11:38.867348,-144
14:11:38.867348,32511
14:11:38.867348,-1
14:11:38.867348,-158
14:11:38.867348,25343
14:11:38.867348,-1
14:11:38.867348,-130
14:11:38.867348,-31745
14:11:38.867348,-1
14:11:38.867348,-134
14:11:38.867348,29439
14:11:38.867348,-1
14:11:38.867348,-166
14:11:38.867348,3583
14:11:38.867348,-1
14:11:38.867348,-187
14:11:38.867348,27135
14:11:38.867348,1
14:11:38.867348,917
14:11:38.867348,-2816
14:11:38.867348,1
14:11:38.867348,-257
14:11:38.867348,4863
14:11:38.867348,-1
14:11:38.867348,-60
14:11:38.867348,511
14:11:38.867348,-1
14:11:38.867348,-293
14:11:38.867348,20223
14:11:38.867348,-1
14:11:38.867348,-207
14:11:38.867348,4351
14:11:38.867348,-1
14:11:38.867348,-199
14:11:38.867348,15359
14:11:38.867348,-1
14:11:38.867348,-209
14:11:39.406879,-197
14:11:39.406879,17919
14:11:39.406879,-1
14:11:39.406879,-183
14:11:39.406879,20991
14:11:39.406879,-1
14:11:39.406879,-175
14:11:39.406879,24063
14:11:39.406879,-1
14:11:39.406879,-144
14:11:39.406879,30719
14:11:39.406879,-1
14:11:39.406879,-144
14:11:39.406879,28927
14:11:39.406879,-1
14:11:39.406879,-139
14:11:39.406879,-32257
14:11:39.406879,-1
14:11:39.406879,-115
14:11:39.406879,-29953
14:11:39.406879,-1
14:11:39.406879,-125
14:11:39.406879,29439
14:11:39.406879,-1
14:11:39.406879,-168
14:11:39.406879,18431
14:11:39.406879,-1
14:11:39.406879,-204
14:11:39.406879,8447
14:11:39.406879,-1
14:11:39.406879,-224
14:11:39.406879,9215
14:11:39.406879,-1
14:11:39.406879,-219
14:11:39.406879,12287
14:11:39.406879,-1
14:11:39.406879,-204
14:11:39.406879,12799
14:11:39.406879,-1
14:11:39.406879,-202
14:11:39.406879,14847
14:11:39.406879,-1
14:11:39.406879,-199
14:11:39.406879,16639
14:11:39.406879,-1
14:11:39.406879,-187
14:11:39.406879,17151
14:11:39.406879,-1
14:11:39.406879,-187
14:11:39.406879,16639
14:11:39.406879,-1
14:11:39.406879,-199
14:11:39.406879,16639
14:11:39.406879,-1
14:11:39.406879,-173
14:11:39.406879,27135
14:11:39.406879,-1
14:11:39.406879,-127
14:11:39.406879,-31745
14:11:39.406879,-1
14:11:39.406879,-154
14:11:39.406879,24575
14:11:39.406879,-1
14:11:39.406879,-137
14:11:39.406879,32511
14:11:39.406879,-1
14:11:39.406879,-139
14:11:39.406879,30207
14:11:39.406879,-1
14:11:39.406879,-151
14:11:39.406879,6655
14:11:39.406879,-1
14:11:39.406879,-151
14:11:39.406879,-11265
14:11:39.406879,1
14:11:39.406879,1136
14:11:39.406879,-5632
14:11:39.406879,2
14:11:39.406879,-161
14:11:39.406879,1279
14:11:39.406879,-1
14:11:39.406879,-28
14:11:39.406879,17919
14:11:39.406879,-1
14:11:39.406879,-255
14:11:39.406879,30207
14:11:39.406879,-1
14:11:39.406879,-154
14:11:39.406879,17919
14:11:39.406879,-1
14:11:39.406879,-142
14:11:39.406879,-32257
14:11:39.406879,-1
14:11:39.406879,-144
14:11:39.406879,32511
14:11:39.406879,-1
14:11:39.406879,-108
14:11:39.406879,-27905
14:11:39.406879,-1
14:11:39.406879,-115
14:11:39.406879,-28673
14:11:39.406879,-1
14:11:39.406879,-101
14:11:39.406879,-23553
14:11:39.406879,-1
14:11:39.406879,-103
14:11:39.406879,-26113
14:11:39.406879,-1
14:11:39.406879,-89
14:11:39.945294,-98
14:11:39.945294,-27905
14:11:39.945294,-1
14:11:39.945294,-96
14:11:39.945294,-21249
14:11:39.945294,-1
14:11:39.945294,-81
14:11:39.945294,-21249
14:11:39.945294,-1
14:11:39.945294,-93
14:11:39.945294,-22529
14:11:39.945294,-1
14:11:39.945294,-89
14:11:39.945294,-27393
14:11:39.945294,-1
14:11:39.945294,-115
14:11:39.945294,-23041
14:11:39.945294,-1
14:11:39.945294,-69
14:11:39.945294,-19969
14:11:39.945294,-1
14:11:39.945294,-89
14:11:39.945294,-21249
14:11:39.945294,-1
14:11:39.945294,-77
14:11:39.945294,-17409
14:11:39.945294,-1
14:11:39.945294,-65
14:11:39.945294,-14337
14:11:39.945294,-1
14:11:39.945294,-48
14:11:39.945294,-10753
14:11:39.945294,-1
14:11:39.945294,-52
14:11:39.945294,-19457
14:11:39.945294,-1
14:11:39.945294,-96
14:11:39.945294,-20481
14:11:39.945294,-1
14:11:39.945294,-57
14:11:39.945294,-7681
14:11:39.945294,-1
14:11:39.945294,-14
14:11:39.945294,-9473
14:11:39.945294,-1
14:11:39.945294,-65
14:11:39.945294,-10753
14:11:39.945294,-1
14:11:39.945294,-16
14:11:39.945294,-3841
14:11:39.945294,-1
14:11:39.945294,-14
14:11:39.945294,-8961
14:11:39.945294,-1
14:11:39.945294,-125
14:11:39.945294,-3841
14:11:39.945294,-1
14:11:39.945294,650
14:11:39.945294,256
14:11:39.945294,5
14:11:39.945294,797
14:11:39.945294,-31232
14:11:39.945294,-1
14:11:39.945294,-199
14:11:39.945294,6399
14:11:39.945294,0
14:11:39.945294,-115
14:11:39.945294,19711
14:11:39.945294,-1
14:11:39.945294,-81
14:11:39.945294,-26625
14:11:39.945294,-1
14:11:39.945294,-146
14:11:39.945294,-27393
14:11:39.945294,-1
14:11:39.945294,-103
14:11:39.945294,-30977
14:11:39.945294,-1
14:11:39.945294,-113
14:11:39.945294,-23553
14:11:39.945294,-1
14:11:39.945294,-89
14:11:39.945294,-20481
14:11:39.945294,-1
14:11:39.945294,-72
14:11:39.945294,-19457
14:11:39.945294,-1
14:11:39.945294,-84
14:11:39.945294,-20481
14:11:39.945294,-1
14:11:39.945294,-79
14:11:39.945294,-22529
14:11:39.945294,-1
14:11:39.945294,-98
14:11:39.945294,-24321
14:11:39.945294,-1
14:11:39.945294,-86
14:11:39.945294,-17409
14:11:39.945294,-1
14:11:39.945294,-50
14:11:39.945294,-9985
14:11:39.945294,-1
14:11:39.945294,-38
14:11:39.945294,-8193
14:11:39.945294,-1
14:11:39.945294,-28
14:11:39.945294,-7681
14:11:39.945294,-1
14:11:39.945294,-33
14:11:40.530533,-33
14:11:40.530533,-8961
14:11:40.530533,-1
14:11:40.530533,-38
14:11:40.530533,-10753
14:11:40.530533,-1
14:11:40.530533,-45
14:11:40.530533,-12033
14:11:40.530533,-1
14:11:40.530533,-43
14:11:40.530533,-9473
14:11:40.530533,-1
14:11:40.530533,-45
14:11:40.530533,-12033
14:11:40.530533,-1
14:11:40.530533,-57
14:11:40.530533,-18689
14:11:40.530533,-1
14:11:40.530533,-79
14:11:40.530533,-16385
14:11:40.530533,-1
14:11:40.530533,-33
14:11:40.530533,3327
14:11:40.530533,0
14:11:40.530533,43
14:11:40.530533,6656
14:11:40.530533,0
14:11:40.530533,-4
14:11:40.530533,255
14:11:40.530533,0
14:11:40.530533,19
14:11:40.530533,4864
14:11:40.530533,0
14:11:40.530533,12
14:11:40.530533,-1024
14:11:40.530533,-1
14:11:40.530533,-81
14:11:40.530533,-5889
14:11:40.530533,-1
14:11:40.530533,566
14:11:40.530533,-7168
14:11:40.530533,4
14:11:40.530533,917
14:11:40.530533,1024
14:11:40.530533,0
14:11:40.530533,-154
14:11:40.530533,17407
14:11:40.530533,0
14:11:40.530533,-50
14:11:40.530533,31487
14:11:40.530533,-1
14:11:40.530533,-45
14:11:40.530533,-12033
14:11:40.530533,-1
14:11:40.530533,-84
14:11:40.530533,-14337
14:11:40.530533,-1
14:11:40.530533,-43
14:11:40.530533,-15105
14:11:40.530533,-1
14:11:40.530533,-57
14:11:40.530533,-11265
14:11:40.530533,-1
14:11:40.530533,-52
14:11:40.530533,-13057
14:11:40.530533,-1
14:11:40.530533,-45
14:11:40.530533,-11265
14:11:40.530533,-1
14:11:40.530533,-48
14:11:40.530533,-12545
14:11:40.530533,-1
14:11:40.530533,-57
14:11:40.530533,-16897
14:11:40.530533,-1
14:11:40.530533,-79
14:11:40.530533,-21249
14:11:40.530533,-1
14:11:40.530533,-79
14:11:40.530533,-16385
14:11:40.530533,-1
14:11:40.530533,-48
14:11:40.530533,-8961
14:11:40.530533,-1
14:11:40.530533,-28
14:11:40.530533,-5121
14:11:40.530533,-1
14:11:40.530533,-16
14:11:40.530533,-5121
14:11:40.530533,-1
14:11:40.530533,-28
14:11:40.530533,-6401
14:11:40.530533,-1
14:11:40.530533,-24
14:11:40.530533,-6401
14:11:40.530533,-1
14:11:40.530533,-21
14:11:40.530533,-5121
14:11:40.530533,-1
14:11:40.530533,-21
14:11:40.530533,-4609
14:11:40.530533,-1
14:11:40.530533,-19
14:11:40.530533,-5121
14:11:40.530533,-1
14:11:40.530533,-28
14:11:40.530533,-13057
14:11:40.530533,-1
14:11:40.530533,-77
14:11:41.116176,-77
14:11:41.116176,-12545
14:11:41.116176,-1
14:11:41.116176,-16
14:11:41.116176,3839
14:11:41.116176,0
14:11:41.116176,26
14:11:41.116176,512
14:11:41.116176,0
14:11:41.116176,-16
14:11:41.116176,-257
14:11:41.116176,-1
14:11:41.116176,21
14:11:41.116176,8448
14:11:41.116176,0
14:11:41.116176,16
14:11:41.116176,-14080
14:11:41.116176,-1
14:11:41.116176,-91
14:11:41.116176,10495
14:11:41.116176,1
14:11:41.116176,1052
14:11:41.116176,19456
14:11:41.116176,4
14:11:41.116176,231
14:11:41.116176,16896
14:11:41.116176,-1
14:11:41.116176,40
14:11:41.116176,6144
14:11:41.116176,0
14:11:41.116176,-127
14:11:41.116176,-15105
14:11:41.116176,-1
14:11:41.116176,-16
14:11:41.116176,-16897
14:11:41.116176,-1
14:11:41.116176,-62
14:11:41.116176,-9473
14:11:41.116176,-1
14:11:41.116176,-43
14:11:41.116176,-8961
14:11:41.116176,-1
14:11:41.116176,-26
14:11:41.116176,-6913
14:11:41.116176,-1
14:11:41.116176,-24
14:11:41.116176,-5121
14:11:41.116176,-1
14:11:41.116176,-21
14:11:41.116176,-3841
14:11:41.116176,-1
14:11:41.116176,-24
14:11:41.116176,-8193
14:11:41.116176,-1
14:11:41.116176,-36
14:11:41.116176,-8961
14:11:41.116176,-1
14:11:41.116176,-33
14:11:41.116176,-7681
14:11:41.116176,-1
14:11:41.116176,-24
14:11:41.116176,-3329
14:11:41.116176,-1
14:11:41.116176,-14
14:11:41.116176,-3841
14:11:41.116176,-1
14:11:41.116176,-24
14:11:41.116176,-7681
14:11:41.116176,-1
14:11:41.116176,-31
14:11:41.116176,-8961
14:11:41.116176,-1
14:11:41.116176,-40
14:11:41.116176,-9473
14:11:41.116176,-1
14:11:41.116176,-28
14:11:41.116176,-5121
14:11:41.116176,-1
14:11:41.116176,-19
14:11:41.116176,-4609
14:11:41.116176,-1
14:11:41.116176,-19
14:11:41.116176,-4609
14:11:41.116176,-1
14:11:41.116176,-16
14:11:41.116176,-6401
14:11:41.116176,-1
14:11:41.116176,-40
14:11:41.116176,-12545
14:11:41.116176,-1
14:11:41.116176,-48
14:11:41.116176,-7681
14:11:41.116176,-1
14:11:41.116176,-7
14:11:41.116176,8191
14:11:41.116176,0
14:11:41.116176,45
14:11:41.116176,3072
14:11:41.116176,0
14:11:41.116176,-2
14:11:41.116176,6911
14:11:41.116176,0
14:11:41.116176,38
14:11:41.116176,7168
14:11:41.116176,0
14:11:41.116176,2
14:11:41.116176,-17664
14:11:41.116176,-1
14:11:41.116176,-62
14:11:41.661340,414
14:11:41.661340,27648
14:11:41.661340,4
14:11:41.661340,977
14:11:41.661340,23296
14:11:41.661340,0
14:11:41.661340,-158
14:11:41.661340,21759
14:11:41.661340,0
14:11:41.661340,2
14:11:41.661340,-29440
14:11:41.661340,-1
14:11:41.661340,-31
14:11:41.661340,-2817
14:11:41.661340,-1
14:11:41.661340,-57
14:11:41.661340,-6913
14:11:41.661340,-1
14:11:41.661340,12
14:11:41.661340,0
14:11:41.661340,0
14:11:41.661340,-4
14:11:41.661340,3327
14:11:41.661340,0
14:11:41.661340,19
14:11:41.661340,4864
14:11:41.661340,0
14:11:41.661340,24
14:11:41.661340,6144
14:11:41.661340,0
14:11:41.661340,19
14:11:41.661340,4096
14:11:41.661340,0
14:11:41.661340,16
14:11:41.661340,3072
14:11:41.661340,0
14:11:41.661340,7
14:11:41.661340,3584
14:11:41.661340,0
14:11:41.661340,19
14:11:41.661340,6656
14:11:41.661340,0
14:11:41.661340,31
14:11:41.661340,6144
14:11:41.661340,0
14:11:41.661340,7
14:11:41.661340,-512
14:11:41.661340,-1
14:11:41.661340,-7
14:11:41.661340,-2817
14:11:41.661340,-1
14:11:41.661340,-16
14:11:41.661340,-2817
14:11:41.661340,-1
14:11:41.661340,-12
14:11:41.661340,-3329
14:11:41.661340,-1
14:11:41.661340,-7
14:11:41.661340,-769
14:11:41.661340,-1
14:11:41.661340,-2
14:11:41.661340,-257
14:11:41.661340,-1
14:11:41.661340,-7
14:11:41.661340,-769
14:11:41.661340,-1
14:11:41.661340,-12
14:11:41.661340,-8193
14:11:41.661340,-1
14:11:41.661340,-45
14:11:41.661340,-8193
14:11:41.661340,-1
14:11:41.661340,-9
14:11:41.661340,5631
14:11:41.661340,0
14:11:41.661340,48
14:11:41.661340,8448
14:11:41.661340,0
14:11:41.661340,7
14:11:41.661340,4096
14:11:41.661340,0
14:11:41.661340,36
14:11:41.661340,9216
14:11:41.661340,0
14:11:41.661340,31
14:11:41.661340,-6144
14:11:41.661340,-1
14:11:41.661340,-91
14:11:41.661340,-16129
14:11:41.661340,0
14:11:41.661340,941
14:11:41.661340,-23808
14:11:41.661340,4
14:11:41.661340,404
14:11:41.661340,25088
14:11:41.661340,-1
14:11:41.661340,40
14:11:41.661340,22016
14:11:41.661340,0
14:11:41.661340,-91
14:11:41.661340,-12545
14:11:41.661340,-1
14:11:41.661340,9
14:11:41.661340,-8448
14:11:41.661340,-1
14:11:41.661340,-31
14:11:41.661340,767
14:11:41.661340,0
14:11:41.661340,-2
14:11:42.197304,-7
14:11:42.197304,3839
14:11:42.197304,0
14:11:42.197304,19
14:11:42.197304,3584
14:11:42.197304,0
14:11:42.197304,21
14:11:42.197304,6656
14:11:42.197304,0
14:11:42.197304,24
14:11:42.197304,6656
14:11:42.197304,0
14:11:42.197304,28
14:11:42.197304,10240
14:11:42.197304,0
14:11:42.197304,43
14:11:42.197304,10240
14:11:42.197304,0
14:11:42.197304,45
14:11:42.197304,14080
14:11:42.197304,0
14:11:42.197304,65
14:11:42.197304,14592
14:11:42.197304,0
14:11:42.197304,38
14:11:42.197304,5376
14:11:42.197304,0
14:11:42.197304,12
14:11:42.197304,1024
14:11:42.197304,0
14:11:42.197304,4
14:11:42.197304,1024
14:11:42.197304,0
14:11:42.197304,7
14:11:42.197304,1792
14:11:42.197304,0
14:11:42.197304,2
14:11:42.197304,0
14:11:42.197304,0
14:11:42.197304,4
14:11:42.197304,2304
14:11:42.197304,0
14:11:42.197304,4
14:11:42.197304,0
14:11:42.197304,0
14:11:42.197304,-4
14:11:42.197304,-5889
14:11:42.197304,-1
14:11:42.197304,-33
14:11:42.197304,-5121
14:11:42.197304,-1
14:11:42.197304,2
14:11:42.197304,9216
14:11:42.197304,0
14:11:42.197304,62
14:11:42.197304,13312
14:11:42.197304,0
14:11:42.197304,24
14:11:42.197304,6144
14:11:42.197304,0
14:11:42.197304,45
14:11:42.197304,11520
14:11:42.197304,0
14:11:42.197304,28
14:11:42.197304,-8448
14:11:42.197304,-1
14:11:42.197304,-89
14:11:42.197304,-2561
14:11:42.197304,0
14:11:42.197304,990
14:11:42.197304,19456
14:11:42.197304,4
14:11:42.197304,281
14:11:42.197304,26880
14:11:42.197304,-1
14:11:42.197304,79
14:11:42.197304,18432
14:11:42.197304,0
14:11:42.197304,-86
14:11:42.197304,-4609
14:11:42.197304,-1
14:11:42.197304,28
14:11:42.197304,-4864
14:11:42.197304,-1
14:11:42.197304,-7
14:11:42.197304,6399
14:11:42.197304,0
14:11:42.197304,19
14:11:42.197304,4864
14:11:42.197304,0
14:11:42.197304,33
14:11:42.197304,11520
14:11:42.197304,0
14:11:42.197304,52
14:11:42.197304,14592
14:11:42.197304,0
14:11:42.197304,57
14:11:42.197304,15872
14:11:42.197304,0
14:11:42.197304,67
14:11:42.197304,15872
14:11:42.197304,0
14:11:42.197304,60
14:11:42.197304,16640
14:11:42.197304,0
14:11:42.197304,65
14:11:42.197304,17152
14:11:42.197304,0
14:11:42.197304,79
14:11:42.781266,86
14:11:42.781266,17664
14:11:42.781266,0
14:11:42.781266,43
14:11:42.781266,7168
14:11:42.781266,0
14:11:42.781266,21
14:11:42.781266,3584
14:11:42.781266,0
14:11:42.781266,26
14:11:42.781266,8448
14:11:42.781266,0
14:11:42.781266,28
14:11:42.781266,7168
14:11:42.781266,0
14:11:42.781266,26
14:11:42.781266,6144
14:11:42.781266,0
14:11:42.781266,31
14:11:42.781266,8448
14:11:42.781266,0
14:11:42.781266,21
14:11:42.781266,2304
14:11:42.781266,0
14:11:42.781266,-4
14:11:42.781266,-2817
14:11:42.781266,-1
14:11:42.781266,-4
14:11:42.781266,4351
14:11:42.781266,0
14:11:42.781266,40
14:11:42.781266,17664
14:11:42.781266,0
14:11:42.781266,74
14:11:42.781266,10240
14:11:42.781266,0
14:11:42.781266,26
14:11:42.781266,12288
14:11:42.781266,0
14:11:42.781266,55
14:11:42.781266,11008
14:11:42.781266,0
14:11:42.781266,2
14:11:42.781266,-21504
14:11:42.781266,-1
14:11:42.781266,48
14:11:42.781266,-15360
14:11:42.781266,2
14:11:42.781266,1194
14:11:42.781266,27392
14:11:42.781266,2
14:11:42.781266,-101
14:11:42.781266,-1537
14:11:42.781266,-1
14:11:42.781266,130
14:11:42.781266,-12800
14:11:42.781266,-1
14:11:42.781266,-60
14:11:42.781266,6399
14:11:42.781266,0
14:11:42.781266,-7
14:11:42.781266,-5889
14:11:42.781266,-1
14:11:42.781266,7
14:11:42.781266,1024
14:11:42.781266,0
14:11:42.781266,-2
14:11:42.781266,3839
14:11:42.781266,0
14:11:42.781266,26
14:11:42.781266,7168
14:11:42.781266,0
14:11:42.781266,40
14:11:42.781266,11008
14:11:42.781266,0
14:11:42.781266,45
14:11:42.781266,12800
14:11:42.781266,0
14:11:42.781266,55
14:11:42.781266,14592
14:11:42.781266,0
14:11:42.781266,55
14:11:42.781266,12800
14:11:42.781266,0
14:11:42.781266,52
14:11:42.781266,15360
14:11:42.781266,0
14:11:42.781266,65
14:11:42.781266,14592
14:11:42.781266,0
14:11:42.781266,36
14:11:42.781266,3072
14:11:42.781266,0
14:11:42.781266,-4
14:11:42.781266,-2817
14:11:42.781266,-1
14:11:42.781266,-14
14:11:42.781266,-3841
14:11:42.781266,-1
14:11:42.781266,-16
14:11:42.781266,-4609
14:11:42.781266,-1
14:11:42.781266,-21
14:11:42.781266,-4609
14:11:42.781266,-1
14:11:42.781266,-19
14:11:42.781266,-4609
14:11:42.781266,-1
14:11:42.781266,-19
14:11:43.322122,-24
14:11:43.322122,-8193
14:11:43.322122,-1
14:11:43.322122,-48
14:11:43.322122,-11265
14:11:43.322122,-1
14:11:43.322122,-24
14:11:43.322122,-257
14:11:43.322122,-1
14:11:43.322122,26
14:11:43.322122,9728
14:11:43.322122,0
14:11:43.322122,12
14:11:43.322122,1024
14:11:43.322122,0
14:11:43.322122,31
14:11:43.322122,10240
14:11:43.322122,0
14:11:43.322122,33
14:11:43.322122,0
14:11:43.322122,0
14:11:43.322122,-91
14:11:43.322122,-10753
14:11:43.322122,-1
14:11:43.322122,534
14:11:43.322122,-29952
14:11:43.322122,4
14:11:43.322122,773
14:11:43.322122,-11008
14:11:43.322122,-1
14:11:43.322122,-79
14:11:43.322122,30975
14:11:43.322122,0
14:11:43.322122,-31
14:11:43.322122,-23041
14:11:43.322122,-1
14:11:43.322122,2
14:11:43.322122,-3584
14:11:43.322122,-1
14:11:43.322122,-43
14:11:43.322122,-2049
14:11:43.322122,-1
14:11:43.322122,0
14:11:43.322122,-2304
14:11:43.322122,-1
14:11:43.322122,2
14:11:43.322122,2304
14:11:43.322122,0
14:11:43.322122,14
14:11:43.322122,6656
14:11:43.322122,0
14:11:43.322122,36
14:11:43.322122,10240
14:11:43.322122,0
14:11:43.322122,45
14:11:43.322122,11520
14:11:43.322122,0
14:11:43.322122,48
14:11:43.322122,12288
14:11:43.322122,0
14:11:43.322122,48
14:11:43.322122,12288
14:11:43.322122,0
14:11:43.322122,55
14:11:43.322122,15872
14:11:43.322122,0
14:11:43.322122,60
14:11:43.322122,11008
14:11:43.322122,0
14:11:43.322122,19
14:11:43.322122,0
14:11:43.322122,0
14:11:43.322122,-12
14:11:43.322122,-3841
14:11:43.322122,-1
14:11:43.322122,-16
14:11:43.322122,-4609
14:11:43.322122,-1
14:11:43.322122,-19
14:11:43.322122,-3329
14:11:43.322122,-1
14:11:43.322122,-14
14:11:43.322122,-3329
14:11:43.322122,-1
14:11:43.322122,-9
14:11:43.322122,-2049
14:11:43.322122,-1
14:11:43.322122,-16
14:11:43.322122,-6913
14:11:43.322122,-1
14:11:43.322122,-43
14:11:43.322122,-9985
14:11:43.322122,-1
14:11:43.322122,-21
14:11:43.322122,1279
14:11:43.322122,0
14:11:43.322122,36
14:11:43.322122,11520
14:11:43.322122,0
14:11:43.322122,16
14:11:43.322122,-1024
14:11:43.322122,-1
14:11:43.322122,7
14:11:43.322122,6144
14:11:43.322122,0
14:11:43.322122,16
14:11:43.322122,-4864
14:11:43.322122,-1
14:11:43.322122,-108
14:11:43.860745,-55
14:11:43.860745,4095
14:11:43.860745,2
14:11:43.860745,1173
14:11:43.860745,7936
14:11:43.860745,3
14:11:43.860745,-38
14:11:43.860745,-24833
14:11:43.860745,-1
14:11:43.860745,115
14:11:43.860745,-4864
14:11:43.860745,-1
14:11:43.860745,-79
14:11:43.860745,3327
14:11:43.860745,0
14:11:43.860745,-4
14:11:43.860745,-9473
14:11:43.860745,-1
14:11:43.860745,-7
14:11:43.860745,767
14:11:43.860745,0
14:11:43.860745,-2
14:11:43.860745,3839
14:11:43.860745,0
14:11:43.860745,26
14:11:43.860745,6656
14:11:43.860745,0
14:11:43.860745,31
14:11:43.860745,11008
14:11:43.860745,0
14:11:43.860745,45
14:11:43.860745,12800
14:11:43.860745,0
14:11:43.860745,57
14:11:43.860745,14080
14:11:43.860745,0
14:11:43.860745,52
14:11:43.860745,12800
14:11:43.860745,0
14:11:43.860745,45
14:11:43.860745,12800
14:11:43.860745,0
14:11:43.860745,55
14:11:43.860745,13312
14:11:43.860745,0
14:11:43.860745,40
14:11:43.860745,6144
14:11:43.860745,0
14:11:43.860745,9
14:11:43.860745,-1024
14:11:43.860745,-1
14:11:43.860745,-9
14:11:43.860745,-1537
14:11:43.860745,-1
14:11:43.860745,-7
14:11:43.860745,-4609
14:11:43.860745,-1
14:11:43.860745,-38
14:11:43.860745,-12545
14:11:43.860745,-1
14:11:43.860745,-50
14:11:43.860745,-12545
14:11:43.860745,-1
14:11:43.860745,-50
14:11:43.860745,-12545
14:11:43.860745,-1
14:11:43.860745,-60
14:11:43.860745,-18689
14:11:43.860745,-1
14:11:43.860745,-79
14:11:43.860745,-15105
14:11:43.860745,-1
14:11:43.860745,-31
14:11:43.860745,-2049
14:11:43.860745,-1
14:11:43.860745,14
14:11:43.860745,1792
14:11:43.860745,0
14:11:43.860745,-26
14:11:43.860745,-6401
14:11:43.860745,-1
14:11:43.860745,-4
14:11:43.860745,-769
14:11:43.860745,-1
14:11:43.860745,-24
14:11:43.860745,-23553
14:11:43.860745,-1
14:11:43.860745,-156
14:11:43.860745,-17409
14:11:43.860745,0
14:11:43.860745,968
14:11:43.860745,23808
14:11:43.860745,4
14:11:43.860745,269
14:11:43.860745,11520
14:11:43.860745,-1
14:11:43.860745,21
14:11:43.860745,6656
14:11:43.860745,0
14:11:43.860745,-139
14:11:43.860745,-18689
14:11:43.860745,-1
14:11:43.860745,-19
14:11:43.860745,-16897
14:11:43.860745,-1
14:11:43.860745,-57
14:11:43.860745,-5889
14:11:43.860745,-1
14:11:43.860745,-33
14:11:44.489702,-21
14:11:44.489702,8191
14:11:44.489702,0
14:11:44.489702,57
14:11:44.489702,14080
14:11:44.489702,0
14:11:44.489702,72
14:11:44.489702,22784
14:11:44.489702,0
14:11:44.489702,84
14:11:44.489702,22016
14:11:44.489702,0
14:11:44.489702,96
14:11:44.489702,23296
14:11:44.489702,0
14:11:44.489702,77
14:11:44.489702,17664
14:11:44.489702,0
14:11:44.489702,69
14:11:44.489702,17152
14:11:44.489702,0
14:11:44.489702,67
14:11:44.489702,15872
14:11:44.489702,0
14:11:44.489702,50
14:11:44.489702,9216
14:11:44.489702,0
14:11:44.489702,21
14:11:44.489702,3584
14:11:44.489702,0
14:11:44.489702,12
14:11:44.489702,3072
14:11:44.489702,0
14:11:44.489702,12
14:11:44.489702,2304
14:11:44.489702,0
14:11:44.489702,9
14:11:44.489702,3072
14:11:44.489702,0
14:11:44.489702,14
14:11:44.489702,4864
14:11:44.489702,0
14:11:44.489702,16
14:11:44.489702,3072
14:11:44.489702,0
14:11:44.489702,12
14:11:44.489702,2304
14:11:44.489702,0
14:11:44.489702,-2
14:11:44.489702,-4609
14:11:44.489702,-1
14:11:44.489702,-16
14:11:44.489702,2047
14:11:44.489702,0
14:11:44.489702,28
14:11:44.489702,14080
14:11:44.489702,0
14:11:44.489702,65
14:11:44.489702,9728
14:11:44.489702,0
14:11:44.489702,16
14:11:44.489702,7936
14:11:44.489702,0
14:11:44.489702,43
14:11:44.489702,7936
14:11:44.489702,0
14:11:44.489702,-19
14:11:44.489702,-26113
14:11:44.489702,-1
14:11:44.489702,45
14:11:44.489702,-6144
14:11:44.489702,2
14:11:44.489702,1279
14:11:44.489702,-19712
14:11:44.489702,2
14:11:44.489702,-120
14:11:44.489702,-16897
14:11:44.489702,-1
14:11:44.489702,101
14:11:44.489702,-18944
14:11:44.489702,-1
14:11:44.489702,-103
14:11:44.489702,-2817
14:11:44.489702,-1
14:11:44.489702,-38
14:11:44.489702,-14337
14:11:44.489702,-1
14:11:44.489702,-16
14:11:44.489702,-2817
14:11:44.489702,-1
14:11:44.489702,-21
14:11:44.489702,-1537
14:11:44.489702,-1
14:11:44.489702,2
14:11:44.489702,1792
14:11:44.489702,0
14:11:44.489702,12
14:11:44.489702,5376
14:11:44.489702,0
14:11:44.489702,26
14:11:44.489702,7936
14:11:44.489702,0
14:11:44.489702,33
14:11:44.489702,8448
14:11:44.489702,0
14:11:44.489702,24
14:11:44.489702,4096
14:11:44.489702,0
14:11:44.489702,12
14:11:45.029621,16
14:11:45.029621,6656
14:11:45.029621,0
14:11:45.029621,26
14:11:45.029621,4864
14:11:45.029621,0
14:11:45.029621,12
14:11:45.029621,0
14:11:45.029621,0
14:11:45.029621,-9
14:11:45.029621,-2049
14:11:45.029621,-1
14:11:45.029621,-12
14:11:45.029621,-3329
14:11:45.029621,-1
14:11:45.029621,-14
14:11:45.029621,-2049
14:11:45.029621,-1
14:11:45.029621,-4
14:11:45.029621,2559
14:11:45.029621,0
14:11:45.029621,19
14:11:45.029621,2304
14:11:45.029621,0
14:11:45.029621,2
14:11:45.029621,1792
14:11:45.029621,0
14:11:45.029621,9
14:11:45.029621,3072
14:11:45.029621,0
14:11:45.029621,14
14:11:45.029621,6656
14:11:45.029621,0
14:11:45.029621,45
14:11:45.029621,11520
14:11:45.029621,0
14:11:45.029621,31
14:11:45.029621,-512
14:11:45.029621,-1
14:11:45.029621,-31
14:11:45.029621,-2049
14:11:45.029621,-1
14:11:45.029621,21
14:11:45.029621,8448
14:11:45.029621,0
14:11:45.029621,52
14:11:45.029621,12800
14:11:45.029621,0
14:11:45.029621,21
14:11:45.029621,4864
14:11:45.029621,0
14:11:45.029621,48
14:11:45.029621,12288
14:11:45.029621,0
14:11:45.029621,4
14:11:45.029621,-16640
14:11:45.029621,-1
14:11:45.029621,-21
14:11:45.029621,2303
14:11:45.029621,2
14:11:45.029621,1271
14:11:45.029621,5888
14:11:45.029621,4
14:11:45.029621,77
14:11:45.029621,19968
14:11:45.029621,-1
14:11:45.029621,74
14:11:45.029621,-6656
14:11:45.029621,-1
14:11:45.029621,-142
14:11:45.029621,-11265
14:11:45.029621,-1
14:11:45.029621,-33
14:11:45.029621,-20481
14:11:45.029621,-1
14:11:45.029621,-52
14:11:45.029621,-7681
14:11:45.029621,-1
14:11:45.029621,-43
14:11:45.029621,-7681
14:11:45.029621,-1
14:11:45.029621,-21
14:11:45.029621,-6913
14:11:45.029621,-1
14:11:45.029621,-24
14:11:45.029621,-2817
14:11:45.029621,-1
14:11:45.029621,-7
14:11:45.029621,-769
14:11:45.029621,-1
14:11:45.029621,2
14:11:45.029621,512
14:11:45.029621,0
14:11:45.029621,-2
14:11:45.029621,-2049
14:11:45.029621,-1
14:11:45.029621,-16
14:11:45.029621,-2817
14:11:45.029621,-1
14:11:45.029621,-7
14:11:45.029621,-257
14:11:45.029621,-1
14:11:45.029621,-2
14:11:45.029621,-3329
14:11:45.029621,-1
14:11:45.029621,-26
14:11:45.029621,-5889
14:11:45.029621,-1
14:11:45.029621,-36
14:11:45.569665,-48
14:11:45.569665,-10753
14:11:45.569665,-1
14:11:45.569665,-43
14:11:45.569665,-13825
14:11:45.569665,-1
14:11:45.569665,-57
14:11:45.569665,-13057
14:11:45.569665,-1
14:11:45.569665,-57
14:11:45.569665,-16385
14:11:45.569665,-1
14:11:45.569665,-65
14:11:45.569665,-15105
14:11:45.569665,-1
14:11:45.569665,-52
14:11:45.569665,-9985
14:11:45.569665,-1
14:11:45.569665,-45
14:11:45.569665,-11265
14:11:45.569665,-1
14:11:45.569665,-43
14:11:45.569665,-12033
14:11:45.569665,-1
14:11:45.569665,-48
14:11:45.569665,-12033
14:11:45.569665,-1
14:11:45.569665,-52
14:11:45.569665,-12545
14:11:45.569665,-1
14:11:45.569665,-45
14:11:45.569665,-12545
14:11:45.569665,-1
14:11:45.569665,-57
14:11:45.569665,-16385
14:11:45.569665,-1
14:11:45.569665,-62
14:11:45.569665,-13057
14:11:45.569665,-1
14:11:45.569665,-62
14:11:45.569665,-23041
14:11:45.569665,-1
14:11:45.569665,-110
14:11:45.569665,-27393
14:11:45.569665,-1
14:11:45.569665,-91
14:11:45.569665,-18689
14:11:45.569665,-1
14:11:45.569665,-52
14:11:45.569665,-9985
14:11:45.569665,-1
14:11:45.569665,-62
14:11:45.569665,-21761
14:11:45.569665,-1
14:11:45.569665,-77
14:11:45.569665,-14337
14:11:45.569665,-1
14:11:45.569665,-67
14:11:45.569665,-29185
14:11:45.569665,-1
14:11:45.569665,-185
14:11:45.569665,-6401
14:11:45.569665,-1
14:11:45.569665,664
14:11:45.569665,-18944
14:11:45.569665,4
14:11:45.569665,621
14:11:45.569665,13312
14:11:45.569665,-1
14:11:45.569665,-168
14:11:45.569665,-3329
14:11:45.569665,-1
14:11:45.569665,-199
14:11:45.569665,8447
14:11:45.569665,-1
14:11:45.569665,-130
14:11:45.569665,25855
14:11:45.569665,-1
14:11:45.569665,-178
14:11:45.569665,29439
14:11:45.569665,-1
14:11:45.569665,-137
14:11:45.569665,28415
14:11:45.569665,-1
14:11:45.569665,-134
14:11:45.569665,-29185
14:11:45.569665,-1
14:11:45.569665,-103
14:11:45.569665,-24833
14:11:45.569665,-1
14:11:45.569665,-93
14:11:45.569665,-21249
14:11:45.569665,-1
14:11:45.569665,-79
14:11:45.569665,-18177
14:11:45.569665,-1
14:11:45.569665,-65
14:11:45.569665,-15617
14:11:45.569665,-1
14:11:45.569665,-65
14:11:45.569665,-16897
14:11:45.569665,-1
14:11:45.569665,-67
14:11:45.569665,-15105
14:11:45.569665,-1
14:11:45.569665,-52
14:11:45.569665,-12033
14:11:45.569665,-1
14:11:45.569665,-52
14:11:46.156329,-60
14:11:46.156329,-18177
14:11:46.156329,-1
14:11:46.156329,-89
14:11:46.156329,-24833
14:11:46.156329,-1
14:11:46.156329,-98
14:11:46.156329,-21761
14:11:46.156329,-1
14:11:46.156329,-74
14:11:46.156329,-18689
14:11:46.156329,-1
14:11:46.156329,-62
14:11:46.156329,-15105
14:11:46.156329,-1
14:11:46.156329,-69
14:11:46.156329,-15105
14:11:46.156329,-1
14:11:46.156329,-50
14:11:46.156329,-12033
14:11:46.156329,-1
14:11:46.156329,-38
14:11:46.156329,-8193
14:11:46.156329,-1
14:11:46.156329,-28
14:11:46.156329,-5121
14:11:46.156329,-1
14:11:46.156329,-19
14:11:46.156329,-3329
14:11:46.156329,-1
14:11:46.156329,-9
14:11:46.156329,-1537
14:11:46.156329,-1
14:11:46.156329,4
14:11:46.156329,8448
14:11:46.156329,0
14:11:46.156329,38
14:11:46.156329,1024
14:11:46.156329,0
14:11:46.156329,-9
14:11:46.156329,1279
14:11:46.156329,0
14:11:46.156329,-2
14:11:46.156329,-5889
14:11:46.156329,-1
14:11:46.156329,-33
14:11:46.156329,-6401
14:11:46.156329,-1
14:11:46.156329,-2
14:11:46.156329,6399
14:11:46.156329,0
14:11:46.156329,52
14:11:46.156329,15872
14:11:46.156329,0
14:11:46.156329,43
14:11:46.156329,8448
14:11:46.156329,0
14:11:46.156329,48
14:11:46.156329,15360
14:11:46.156329,0
14:11:46.156329,55
14:11:46.156329,3584
14:11:46.156329,0
14:11:46.156329,-48
14:11:46.156329,-27905
14:11:46.156329,0
14:11:46.156329,920
14:11:46.156329,-3072
14:11:46.156329,5
14:11:46.156329,881
14:11:46.156329,-18944
14:11:46.156329,-1
14:11:46.156329,-84
14:11:46.156329,27135
14:11:46.156329,0
14:11:46.156329,-67
14:11:46.156329,-25601
14:11:46.156329,-1
14:11:46.156329,-2
14:11:46.156329,-6913
14:11:46.156329,-1
14:11:46.156329,-55
14:11:46.156329,-2817
14:11:46.156329,-1
14:11:46.156329,-4
14:11:46.156329,-3841
14:11:46.156329,-1
14:11:46.156329,0
14:11:46.156329,2304
14:11:46.156329,0
14:11:46.156329,9
14:11:46.156329,4096
14:11:46.156329,0
14:11:46.156329,24
14:11:46.156329,7936
14:11:46.156329,0
14:11:46.156329,38
14:11:46.156329,11008
14:11:46.156329,0
14:11:46.156329,48
14:11:46.156329,11520
14:11:46.156329,0
14:11:46.156329,40
14:11:46.156329,8448
14:11:46.156329,0
14:11:46.156329,28
14:11:46.156329,7168
14:11:46.156329,0
14:11:46.156329,26
14:11:46.787364,26
14:11:46.787364,6656
14:11:46.787364,0
14:11:46.787364,24
14:11:46.787364,4864
14:11:46.787364,0
14:11:46.787364,16
14:11:46.787364,4864
14:11:46.787364,0
14:11:46.787364,19
14:11:46.787364,3584
14:11:46.787364,0
14:11:46.787364,12
14:11:46.787364,3072
14:11:46.787364,0
14:11:46.787364,19
14:11:46.787364,7936
14:11:46.787364,0
14:11:46.787364,31
14:11:46.787364,4864
14:11:46.787364,0
14:11:46.787364,19
14:11:46.787364,4096
14:11:46.787364,0
14:11:46.787364,16
14:11:46.787364,4864
14:11:46.787364,0
14:11:46.787364,24
14:11:46.787364,7168
14:11:46.787364,0
14:11:46.787364,28
14:11:46.787364,8448
14:11:46.787364,0
14:11:46.787364,38
14:11:46.787364,11008
14:11:46.787364,0
14:11:46.787364,45
14:11:46.787364,11008
14:11:46.787364,0
14:11:46.787364,45
14:11:46.787364,12288
14:11:46.787364,0
14:11:46.787364,50
14:11:46.787364,13312
14:11:46.787364,0
14:11:46.787364,50
14:11:46.787364,12800
14:11:46.787364,0
14:11:46.787364,52
14:11:46.787364,12800
14:11:46.787364,0
14:11:46.787364,50
14:11:46.787364,14080
14:11:46.787364,0
14:11:46.787364,50
14:11:46.787364,12288
14:11:46.787364,0
14:11:46.787364,48
14:11:46.787364,12288
14:11:46.787364,0
14:11:46.787364,48
14:11:46.787364,12288
14:11:46.787364,0
14:11:46.787364,43
14:11:46.787364,7936
14:11:46.787364,0
14:11:46.787364,14
14:11:46.787364,2304
14:11:46.787364,0
14:11:46.787364,24
14:11:46.787364,11520
14:11:46.787364,0
14:11:46.787364,67
14:11:46.787364,21504
14:11:46.787364,0
14:11:46.787364,69
14:11:46.787364,10240
14:11:46.787364,0
14:11:46.787364,43
14:11:46.787364,15360
14:11:46.787364,0
14:11:46.787364,57
14:11:46.787364,8448
14:11:46.787364,0
14:11:46.787364,-33
14:11:46.787364,767
14:11:46.787364,0
14:11:46.787364,556
14:11:46.787364,27392
14:11:46.787364,5
14:11:46.787364,1257
14:11:46.787364,-12544
14:11:46.787364,0
14:11:46.787364,-207
14:11:46.787364,13567
14:11:46.787364,0
14:11:46.787364,0
14:11:46.787364,27392
14:11:46.787364,-1
14:11:46.787364,-65
14:11:46.787364,-8193
14:11:46.787364,-1
14:11:46.787364,-86
14:11:46.787364,-16385
14:11:46.787364,-1
14:11:46.787364,-33
14:11:46.787364,-10753
14:11:46.787364,-1
14:11:46.787364,-43
14:11:47.279714,-28
14:11:47.279714,-6401
14:11:47.279714,-1
14:11:47.279714,-26
14:11:47.279714,-4609
14:11:47.279714,-1
14:11:47.279714,-14
14:11:47.279714,-2049
14:11:47.279714,-1
14:11:47.279714,-2
14:11:47.279714,-257
14:11:47.279714,-1
14:11:47.279714,-2
14:11:47.279714,-769
14:11:47.279714,-1
14:11:47.279714,-9
14:11:47.279714,-3329
14:11:47.279714,-1
14:11:47.279714,-16
14:11:47.279714,-3329
14:11:47.279714,-1
14:11:47.279714,-12
14:11:47.279714,-2049
14:11:47.279714,-1
14:11:47.279714,-4
14:11:47.279714,-769
14:11:47.279714,-1
14:11:47.279714,-2
14:11:47.279714,2559
14:11:47.279714,0
14:11:47.279714,24
14:11:47.279714,4864
14:11:47.279714,0
14:11:47.279714,7
14:11:47.279714,1024
14:11:47.279714,0
14:11:47.279714,7
14:11:47.279714,512
14:11:47.279714,0
14:11:47.279714,-2
14:11:47.279714,-769
14:11:47.279714,-1
14:11:47.279714,-9
14:11:47.279714,-3329
14:11:47.279714,-1
14:11:47.279714,-16
14:11:47.279714,-2817
14:11:47.279714,-1
14:11:47.279714,-9
14:11:47.279714,-1537
14:11:47.279714,-1
14:11:47.279714,-2
14:11:47.279714,767
14:11:47.279714,0
14:11:47.279714,7
14:11:47.279714,3072
14:11:47.279714,0
14:11:47.279714,9
14:11:47.279714,1792
14:11:47.279714,0
14:11:47.279714,7
14:11:47.279714,1792
14:11:47.279714,0
14:11:47.279714,4
14:11:47.279714,-512
14:11:47.279714,-1
14:11:47.279714,-2
14:11:47.279714,767
14:11:47.279714,0
14:11:47.279714,0
14:11:47.279714,-512
14:11:47.279714,-1
14:11:47.279714,-4
14:11:47.279714,-769
14:11:47.279714,-1
14:11:47.279714,-2
14:11:47.279714,-1537
14:11:47.279714,-1
14:11:47.279714,-4
14:11:47.279714,-769
14:11:47.279714,-1
14:11:47.279714,-14
14:11:47.279714,-5121
14:11:47.279714,-1
14:11:47.279714,-24
14:11:47.279714,-3329
14:11:47.279714,-1
14:11:47.279714,-9
14:11:47.279714,-5121
14:11:47.279714,-1
14:11:47.279714,-24
14:11:47.279714,-5889
14:11:47.279714,-1
14:11:47.279714,-26
14:11:47.279714,-5121
14:11:47.279714,-1
14:11:47.279714,-19
14:11:47.279714,-4609
14:11:47.279714,-1
14:11:47.279714,-19
14:11:47.279714,-6401
14:11:47.279714,-1
14:11:47.279714,-38
14:11:47.279714,-12545
14:11:47.279714,-1
14:11:47.279714,-55
14:11:47.279714,-14337
14:11:47.279714,-1
14:11:47.279714,-45
14:11:47.821313,-14
14:11:47.821313,4351
14:11:47.821313,0
14:11:47.821313,9
14:11:47.821313,-5376
14:11:47.821313,-1
14:11:47.821313,-28
14:11:47.821313,-2817
14:11:47.821313,-1
14:11:47.821313,-12
14:11:47.821313,-6401
14:11:47.821313,-1
14:11:47.821313,-77
14:11:47.821313,31487
14:11:47.821313,-1
14:11:47.821313,180
14:11:47.821313,6656
14:11:47.821313,4
14:11:47.821313,1411
14:11:47.821313,6400
14:11:47.821313,2
14:11:47.821313,-226
14:11:47.821313,-17409
14:11:47.821313,-1
14:11:47.821313,16
14:11:47.821313,19456
14:11:47.821313,-1
14:11:47.821313,-154
14:11:47.821313,-20481
14:11:47.821313,-1
14:11:47.821313,-130
14:11:47.821313,-32257
14:11:47.821313,-1
14:11:47.821313,-86
14:11:47.821313,-24321
14:11:47.821313,-1
14:11:47.821313,-110
14:11:47.821313,-24321
14:11:47.821313,-1
14:11:47.821313,-84
14:11:47.821313,-22529
14:11:47.821313,-1
14:11:47.821313,-84
14:11:47.821313,-18689
14:11:47.821313,-1
14:11:47.821313,-74
14:11:47.821313,-18177
14:11:47.821313,-1
14:11:47.821313,-62
14:11:47.821313,-15617
14:11:47.821313,-1
14:11:47.821313,-62
14:11:47.821313,-16897
14:11:47.821313,-1
14:11:47.821313,-74
14:11:47.821313,-19457
14:11:47.821313,-1
14:11:47.821313,-77
14:11:47.821313,-20481
14:11:47.821313,-1
14:11:47.821313,-81
14:11:47.821313,-17409
14:11:47.821313,-1
14:11:47.821313,-65
14:11:47.821313,-19457
14:11:47.821313,-1
14:11:47.821313,-86
14:11:47.821313,-21761
14:11:47.821313,-1
14:11:47.821313,-93
14:11:47.821313,-25601
14:11:47.821313,-1
14:11:47.821313,-103
14:11:47.821313,-25601
14:11:47.821313,-1
14:11:47.821313,-101
14:11:47.821313,-26113
14:11:47.821313,-1
14:11:47.821313,-98
14:11:47.821313,-23553
14:11:47.821313,-1
14:11:47.821313,-96
14:11:47.821313,-23041
14:11:47.821313,-1
14:11:47.821313,-77
14:11:47.821313,-17409
14:11:47.821313,-1
14:11:47.821313,-69
14:11:47.821313,-16897
14:11:47.821313,-1
14:11:47.821313,-62
14:11:47.821313,-15105
14:11:47.821313,-1
14:11:47.821313,-62
14:11:47.821313,-14337
14:11:47.821313,-1
14:11:47.821313,-55
14:11:47.821313,-13825
14:11:47.821313,-1
14:11:47.821313,-50
14:11:47.821313,-12545
14:11:47.821313,-1
14:11:47.821313,-50
14:11:47.821313,-11265
14:11:47.821313,-1
14:11:47.821313,-40
14:11:47.821313,-9985
14:11:47.821313,-1
14:11:47.821313,-40
14:11:48.413623,-33
14:11:48.413623,-8193
14:11:48.413623,-1
14:11:48.413623,-36
14:11:48.413623,-7681
14:11:48.413623,-1
14:11:48.413623,-31
14:11:48.413623,-7681
14:11:48.413623,-1
14:11:48.413623,-28
14:11:48.413623,-5889
14:11:48.413623,-1
14:11:48.413623,-12
14:11:48.413623,767
14:11:48.413623,0
14:11:48.413623,0
14:11:48.413623,-3072
14:11:48.413623,-1
14:11:48.413623,-26
14:11:48.413623,-9985
14:11:48.413623,-1
14:11:48.413623,-38
14:11:48.413623,-3841
14:11:48.413623,-1
14:11:48.413623,9
14:11:48.413623,8448
14:11:48.413623,0
14:11:48.413623,36
14:11:48.413623,2304
14:11:48.413623,0
14:11:48.413623,-2
14:11:48.413623,5119
14:11:48.413623,0
14:11:48.413623,28
14:11:48.413623,4096
14:11:48.413623,0
14:11:48.413623,-21
14:11:48.413623,-24321
14:11:48.413623,-1
14:11:48.413623,62
14:11:48.413623,9728
14:11:48.413623,3
14:11:48.413623,1471
14:11:48.413623,-27904
14:11:48.413623,3
14:11:48.413623,-74
14:11:48.413623,29439
14:11:48.413623,-1
14:11:48.413623,67
14:11:48.413623,-26880
14:11:48.413623,-1
14:11:48.413623,-156
14:11:48.413623,-12545
14:11:48.413623,-1
14:11:48.413623,-69
14:11:48.413623,-24833
14:11:48.413623,-1
14:11:48.413623,-55
14:11:48.413623,-10753
14:11:48.413623,-1
14:11:48.413623,-52
14:11:48.413623,-9473
14:11:48.413623,-1
14:11:48.413623,-24
14:11:48.413623,-5889
14:11:48.413623,-1
14:11:48.413623,-19
14:11:48.413623,-2817
14:11:48.413623,-1
14:11:48.413623,-12
14:11:48.413623,-1537
14:11:48.413623,-1
14:11:48.413623,0
14:11:48.413623,1792
14:11:48.413623,0
14:11:48.413623,14
14:11:48.413623,3584
14:11:48.413623,0
14:11:48.413623,12
14:11:48.413623,2304
14:11:48.413623,0
14:11:48.413623,7
14:11:48.413623,2304
14:11:48.413623,0
14:11:48.413623,9
14:11:48.413623,1792
14:11:48.413623,0
14:11:48.413623,4
14:11:48.413623,512
14:11:48.413623,0
14:11:48.413623,2
14:11:48.413623,512
14:11:48.413623,0
14:11:48.413623,0
14:11:48.413623,-512
14:11:48.413623,-1
14:11:48.413623,-9
14:11:48.413623,-3329
14:11:48.413623,-1
14:11:48.413623,-16
14:11:48.413623,-3841
14:11:48.413623,-1
14:11:48.413623,-14
14:11:48.413623,-3329
14:11:48.413623,-1
14:11:48.413623,-12
14:11:48.413623,-1537
14:11:48.413623,-1
14:11:48.413623,0
14:11:48.947083,4
14:11:48.947083,2304
14:11:48.947083,0
14:11:48.947083,14
14:11:48.947083,4864
14:11:48.947083,0
14:11:48.947083,24
14:11:48.947083,7168
14:11:48.947083,0
14:11:48.947083,33
14:11:48.947083,9216
14:11:48.947083,0
14:11:48.947083,38
14:11:48.947083,9728
14:11:48.947083,0
14:11:48.947083,40
14:11:48.947083,12800
14:11:48.947083,0
14:11:48.947083,65
14:11:48.947083,17664
14:11:48.947083,0
14:11:48.947083,67
14:11:48.947083,17152
14:11:48.947083,0
14:11:48.947083,69
14:11:48.947083,17664
14:11:48.947083,0
14:11:48.947083,72
14:11:48.947083,20224
14:11:48.947083,0
14:11:48.947083,79
14:11:48.947083,19712
14:11:48.947083,0
14:11:48.947083,77
14:11:48.947083,19712
14:11:48.947083,0
14:11:48.947083,77
14:11:48.947083,18944
14:11:48.947083,0
14:11:48.947083,77
14:11:48.947083,20224
14:11:48.947083,0
14:11:48.947083,79
14:11:48.947083,20736
14:11:48.947083,0
14:11:48.947083,81
14:11:48.947083,20224
14:11:48.947083,0
14:11:48.947083,77
14:11:48.947083,18944
14:11:48.947083,0
14:11:48.947083,77
14:11:48.947083,19712
14:11:48.947083,0
14:11:48.947083,74
14:11:48.947083,17664
14:11:48.947083,0
14:11:48.947083,55
14:11:48.947083,8448
14:11:48.947083,0
14:11:48.947083,26
14:11:48.947083,12288
14:11:48.947083,0
14:11:48.947083,77
14:11:48.947083,24576
14:11:48.947083,0
14:11:48.947083,108
14:11:48.947083,24576
14:11:48.947083,0
14:11:48.947083,67
14:11:48.947083,17152
14:11:48.947083,0
14:11:48.947083,81
14:11:48.947083,20224
14:11:48.947083,0
14:11:48.947083,43
14:11:48.947083,-6144
14:11:48.947083,-1
14:11:48.947083,139
14:11:48.947083,31488
14:11:48.947083,3
14:11:48.947083,1592
14:11:48.947083,11008
14:11:48.947083,4
14:11:48.947083,-2
14:11:48.947083,26367
14:11:48.947083,-1
14:11:48.947083,89
14:11:48.947083,-13312
14:11:48.947083,-1
14:11:48.947083,-139
14:11:48.947083,-8961
14:11:48.947083,-1
14:11:48.947083,-45
14:11:48.947083,-21249
14:11:48.947083,-1
14:11:48.947083,-50
14:11:48.947083,-8193
14:11:48.947083,-1
14:11:48.947083,-48
14:11:48.947083,-9985
14:11:48.947083,-1
14:11:48.947083,-28
14:11:48.947083,-7681
14:11:48.947083,-1
14:11:48.947083,-26
14:11:48.947083,-3841
14:11:48.947083,-1
14:11:48.947083,-16
14:11:49.487986,-12
14:11:49.487986,-1537
14:11:49.487986,-1
14:11:49.487986,-4
14:11:49.487986,-769
14:11:49.487986,-1
14:11:49.487986,-7
14:11:49.487986,-2049
14:11:49.487986,-1
14:11:49.487986,-9
14:11:49.487986,-3329
14:11:49.487986,-1
14:11:49.487986,-16
14:11:49.487986,-769
14:11:49.487986,-1
14:11:49.487986,9
14:11:49.487986,3584
14:11:49.487986,0
14:11:49.487986,16
14:11:49.487986,5376
14:11:49.487986,0
14:11:49.487986,26
14:11:49.487986,7168
14:11:49.487986,0
14:11:49.487986,31
14:11:49.487986,6656
14:11:49.487986,0
14:11:49.487986,24
14:11:49.487986,6144
14:11:49.487986,0
14:11:49.487986,19
14:11:49.487986,4864
14:11:49.487986,0
14:11:49.487986,14
14:11:49.487986,3072
14:11:49.487986,0
14:11:49.487986,12
14:11:49.487986,3072
14:11:49.487986,0
14:11:49.487986,14
14:11:49.487986,4096
14:11:49.487986,0
14:11:49.487986,19
14:11:49.487986,6144
14:11:49.487986,0
14:11:49.487986,28
14:11:49.487986,7936
14:11:49.487986,0
14:11:49.487986,33
14:11:49.487986,8448
14:11:49.487986,0
14:11:49.487986,36
14:11:49.487986,9216
14:11:49.487986,0
14:11:49.487986,36
14:11:49.487986,9216
14:11:49.487986,0
14:11:49.487986,33
14:11:49.487986,8448
14:11:49.487986,0
14:11:49.487986,31
14:11:49.487986,7936
14:11:49.487986,0
14:11:49.487986,36
14:11:49.487986,8448
14:11:49.487986,0
14:11:49.487986,31
14:11:49.487986,7936
14:11:49.487986,0
14:11:49.487986,28
14:11:49.487986,7168
14:11:49.487986,0
14:11:49.487986,26
14:11:49.487986,6656
14:11:49.487986,0
14:11:49.487986,24
14:11:49.487986,5376
14:11:49.487986,0
14:11:49.487986,21
14:11:49.487986,4864
14:11:49.487986,0
14:11:49.487986,16
14:11:49.487986,4096
14:11:49.487986,0
14:11:49.487986,14
14:11:49.487986,3072
14:11:49.487986,0
14:11:49.487986,9
14:11:49.487986,1024
14:11:49.487986,0
14:11:49.487986,7
14:11:49.487986,2304
14:11:49.487986,0
14:11:49.487986,7
14:11:49.487986,512
14:11:49.487986,0
14:11:49.487986,0
14:11:49.487986,512
14:11:49.487986,0
14:11:49.487986,-2
14:11:49.487986,-2049
14:11:49.487986,-1
14:11:49.487986,-24
14:11:49.487986,-10753
14:11:49.487986,-1
14:11:49.487986,-40
14:11:49.487986,-3329
14:11:49.487986,-1
14:11:49.487986,12
14:11:50.071979,33
14:11:50.071979,9216
14:11:50.071979,0
14:11:50.071979,7
14:11:50.071979,-3072
14:11:50.071979,-1
14:11:50.071979,0
14:11:50.071979,3584
14:11:50.071979,0
14:11:50.071979,0
14:11:50.071979,-14080
14:11:50.071979,-1
14:11:50.071979,-60
14:11:50.071979,-29697
14:11:50.071979,1
14:11:50.071979,1269
14:11:50.071979,21248
14:11:50.071979,5
14:11:50.071979,339
14:11:50.071979,-256
14:11:50.071979,-2
14:11:50.071979,-31
14:11:50.071979,-5889
14:11:50.071979,-1
14:11:50.071979,-202
14:11:50.071979,31487
14:11:50.071979,-1
14:11:50.071979,-79
14:11:50.071979,30719
14:11:50.071979,-1
14:11:50.071979,-125
14:11:50.071979,-21761
14:11:50.071979,-1
14:11:50.071979,-101
14:11:50.071979,-24833
14:11:50.071979,-1
14:11:50.071979,-79
14:11:50.071979,-21249
14:11:50.071979,-1
14:11:50.071979,-89
14:11:50.071979,-20481
14:11:50.071979,-1
14:11:50.071979,-74
14:11:50.071979,-16897
14:11:50.071979,-1
14:11:50.071979,-60
14:11:50.071979,-13825
14:11:50.071979,-1
14:11:50.071979,-57
14:11:50.071979,-13825
14:11:50.071979,-1
14:11:50.071979,-55
14:11:50.071979,-16897
14:11:50.071979,-1
14:11:50.071979,-79
14:11:50.071979,-21761
14:11:50.071979,-1
14:11:50.071979,-93
14:11:50.071979,-23041
14:11:50.071979,-1
14:11:50.071979,-81
14:11:50.071979,-18689
14:11:50.071979,-1
14:11:50.071979,-74
14:11:50.071979,-18689
14:11:50.071979,-1
14:11:50.071979,-65
14:11:50.071979,-17409
14:11:50.071979,-1
14:11:50.071979,-81
14:11:50.071979,-20481
14:11:50.071979,-1
14:11:50.071979,-81
14:11:50.071979,-21761
14:11:50.071979,-1
14:11:50.071979,-86
14:11:50.071979,-20481
14:11:50.071979,-1
14:11:50.071979,-79
14:11:50.071979,-20481
14:11:50.071979,-1
14:11:50.071979,-81
14:11:50.071979,-19969
14:11:50.071979,-1
14:11:50.071979,-74
14:11:50.071979,-18177
14:11:50.071979,-1
14:11:50.071979,-67
14:11:50.071979,-14337
14:11:50.071979,-1
14:11:50.071979,-52
14:11:50.071979,-14337
14:11:50.071979,-1
14:11:50.071979,-55
14:11:50.071979,-12033
14:11:50.071979,-1
14:11:50.071979,-48
14:11:50.071979,-12033
14:11:50.071979,-1
14:11:50.071979,-48
14:11:50.071979,-12033
14:11:50.071979,-1
14:11:50.071979,-45
14:11:50.071979,-11265
14:11:50.071979,-1
14:11:50.071979,-50
14:11:50.071979,-12033
14:11:50.071979,-1
14:11:50.071979,-43
14:11:50.612563,-40
14:11:50.612563,-10753
14:11:50.612563,-1
14:11:50.612563,-43
14:11:50.612563,-9985
14:11:50.612563,-1
14:11:50.612563,-38
14:11:50.612563,-9473
14:11:50.612563,-1
14:11:50.612563,-43
14:11:50.612563,-12033
14:11:50.612563,-1
14:11:50.612563,-38
14:11:50.612563,-6913
14:11:50.612563,-1
14:11:50.612563,-21
14:11:50.612563,-5889
14:11:50.612563,-1
14:11:50.612563,-28
14:11:50.612563,-7681
14:11:50.612563,-1
14:11:50.612563,-28
14:11:50.612563,-5889
14:11:50.612563,-1
14:11:50.612563,-24
14:11:50.612563,-6401
14:11:50.612563,-1
14:11:50.612563,-21
14:11:50.612563,-5889
14:11:50.612563,-1
14:11:50.612563,-28
14:11:50.612563,-9985
14:11:50.612563,-1
14:11:50.612563,-57
14:11:50.612563,-13825
14:11:50.612563,-1
14:11:50.612563,-33
14:11:50.612563,-2817
14:11:50.612563,-1
14:11:50.612563,21
14:11:50.612563,8448
14:11:50.612563,0
14:11:50.612563,7
14:11:50.612563,-3584
14:11:50.612563,-1
14:11:50.612563,2
14:11:50.612563,3584
14:11:50.612563,0
14:11:50.612563,0
14:11:50.612563,-13312
14:11:50.612563,-1
14:11:50.612563,-103
14:11:50.612563,-21505
14:11:50.612563,0
14:11:50.612563,963
14:11:50.612563,16896
14:11:50.612563,5
14:11:50.612563,563
14:11:50.612563,17664
14:11:50.612563,-1
14:11:50.612563,-57
14:11:50.612563,11263
14:11:50.612563,0
14:11:50.612563,-146
14:11:50.612563,32511
14:11:50.612563,-1
14:11:50.612563,-43
14:11:50.612563,-19969
14:11:50.612563,-1
14:11:50.612563,-86
14:11:50.612563,-12545
14:11:50.612563,-1
14:11:50.612563,-52
14:11:50.612563,-14337
14:11:50.612563,-1
14:11:50.612563,-36
14:11:50.612563,-7681
14:11:50.612563,-1
14:11:50.612563,-33
14:11:50.612563,-6913
14:11:50.612563,-1
14:11:50.612563,-21
14:11:50.612563,-4609
14:11:50.612563,-1
14:11:50.612563,-9
14:11:50.612563,1279
14:11:50.612563,0
14:11:50.612563,9
14:11:50.612563,3072
14:11:50.612563,0
14:11:50.612563,16
14:11:50.612563,4096
14:11:50.612563,0
14:11:50.612563,12
14:11:50.612563,2304
14:11:50.612563,0
14:11:50.612563,7
14:11:50.612563,2304
14:11:50.612563,0
14:11:50.612563,14
14:11:50.612563,4864
14:11:50.612563,0
14:11:50.612563,16
14:11:50.612563,2304
14:11:50.612563,0
14:11:50.612563,2
14:11:50.612563,-1024
14:11:50.612563,-1
14:11:50.612563,-12
14:11:51.195784,-14
14:11:51.195784,-3841
14:11:51.195784,-1
14:11:51.195784,-14
14:11:51.195784,-3329
14:11:51.195784,-1
14:11:51.195784,-9
14:11:51.195784,-257
14:11:51.195784,-1
14:11:51.195784,12
14:11:51.195784,7936
14:11:51.195784,0
14:11:51.195784,40
14:11:51.195784,9728
14:11:51.195784,0
14:11:51.195784,40
14:11:51.195784,12288
14:11:51.195784,0
14:11:51.195784,50
14:11:51.195784,12800
14:11:51.195784,0
14:11:51.195784,48
14:11:51.195784,13312
14:11:51.195784,0
14:11:51.195784,57
14:11:51.195784,14080
14:11:51.195784,0
14:11:51.195784,57
14:11:51.195784,14592
14:11:51.195784,0
14:11:51.195784,60
14:11:51.195784,15872
14:11:51.195784,0
14:11:51.195784,60
14:11:51.195784,15360
14:11:51.195784,0
14:11:51.195784,60
14:11:51.195784,14592
14:11:51.195784,0
14:11:51.195784,57
14:11:51.195784,14080
14:11:51.195784,0
14:11:51.195784,55
14:11:51.195784,14080
14:11:51.195784,0
14:11:51.195784,57
14:11:51.195784,15360
14:11:51.195784,0
14:11:51.195784,57
14:11:51.195784,15360
14:11:51.195784,0
14:11:51.195784,62
14:11:51.195784,15360
14:11:51.195784,0
14:11:51.195784,60
14:11:51.195784,15872
14:11:51.195784,0
14:11:51.195784,62
14:11:51.195784,15872
14:11:51.195784,0
14:11:51.195784,57
14:11:51.195784,15360
14:11:51.195784,0
14:11:51.195784,65
14:11:51.195784,15360
14:11:51.195784,0
14:11:51.195784,50
14:11:51.195784,7168
14:11:51.195784,0
14:11:51.195784,14
14:11:51.195784,8448
14:11:51.195784,0
14:11:51.195784,65
14:11:51.195784,22784
14:11:51.195784,0
14:11:51.195784,108
14:11:51.195784,25088
14:11:51.195784,0
14:11:51.195784,69
14:11:51.195784,15872
14:11:51.195784,0
14:11:51.195784,79
14:11:51.195784,20224
14:11:51.195784,0
14:11:51.195784,48
14:11:51.195784,-3072
14:11:51.195784,-1
14:11:51.195784,103
14:11:51.195784,1792
14:11:51.195784,3
14:11:51.195784,1541
14:11:51.195784,-26368
14:11:51.195784,4
14:11:51.195784,93
14:11:51.195784,18688
14:11:51.195784,-1
14:11:51.195784,72
14:11:51.195784,-7168
14:11:51.195784,-1
14:11:51.195784,-146
14:11:51.195784,-13057
14:11:51.195784,-1
14:11:51.195784,-40
14:11:51.195784,-21761
14:11:51.195784,-1
14:11:51.195784,-57
14:11:51.195784,-9473
14:11:51.195784,-1
14:11:51.195784,-50
14:11:51.736694,-43
14:11:51.736694,-8193
14:11:51.736694,-1
14:11:51.736694,-33
14:11:51.736694,-7681
14:11:51.736694,-1
14:11:51.736694,-26
14:11:51.736694,-5889
14:11:51.736694,-1
14:11:51.736694,-21
14:11:51.736694,-3329
14:11:51.736694,-1
14:11:51.736694,-7
14:11:51.736694,-769
14:11:51.736694,-1
14:11:51.736694,7
14:11:51.736694,1024
14:11:51.736694,0
14:11:51.736694,-12
14:11:51.736694,-4609
14:11:51.736694,-1
14:11:51.736694,-24
14:11:51.736694,-6913
14:11:51.736694,-1
14:11:51.736694,-28
14:11:51.736694,-5889
14:11:51.736694,-1
14:11:51.736694,-19
14:11:51.736694,-3329
14:11:51.736694,-1
14:11:51.736694,-7
14:11:51.736694,-257
14:11:51.736694,-1
14:11:51.736694,-2
14:11:51.736694,-769
14:11:51.736694,-1
14:11:51.736694,-7
14:11:51.736694,-2049
14:11:51.736694,-1
14:11:51.736694,-9
14:11:51.736694,-3329
14:11:51.736694,-1
14:11:51.736694,-16
14:11:51.736694,-3841
14:11:51.736694,-1
14:11:51.736694,-19
14:11:51.736694,-3841
14:11:51.736694,-1
14:11:51.736694,-14
14:11:51.736694,-2049
14:11:51.736694,-1
14:11:51.736694,-7
14:11:51.736694,-769
14:11:51.736694,-1
14:11:51.736694,-2
14:11:51.736694,255
14:11:51.736694,0
14:11:51.736694,2
14:11:51.736694,2304
14:11:51.736694,0
14:11:51.736694,12
14:11:51.736694,3072
14:11:51.736694,0
14:11:51.736694,16
14:11:51.736694,4864
14:11:51.736694,0
14:11:51.736694,19
14:11:51.736694,4864
14:11:51.736694,0
14:11:51.736694,19
14:11:51.736694,4864
14:11:51.736694,0
14:11:51.736694,16
14:11:51.736694,4864
14:11:51.736694,0
14:11:51.736694,21
14:11:51.736694,4864
14:11:51.736694,0
14:11:51.736694,19
14:11:51.736694,4096
14:11:51.736694,0
14:11:51.736694,16
14:11:51.736694,4864
14:11:51.736694,0
14:11:51.736694,19
14:11:51.736694,5376
14:11:51.736694,0
14:11:51.736694,24
14:11:51.736694,6656
14:11:51.736694,0
14:11:51.736694,24
14:11:51.736694,5376
14:11:51.736694,0
14:11:51.736694,26
14:11:51.736694,7168
14:11:51.736694,0
14:11:51.736694,24
14:11:51.736694,6144
14:11:51.736694,0
14:11:51.736694,21
14:11:51.736694,2304
14:11:51.736694,0
14:11:51.736694,-7
14:11:51.736694,-2817
14:11:51.736694,-1
14:11:51.736694,12
14:11:51.736694,9216
14:11:51.736694,0
14:11:51.736694,60
14:11:52.322539,74
14:11:52.322539,13312
14:11:52.322539,0
14:11:52.322539,26
14:11:52.322539,7168
14:11:52.322539,0
14:11:52.322539,43
14:11:52.322539,7936
14:11:52.322539,0
14:11:52.322539,-16
14:11:52.322539,-13057
14:11:52.322539,-1
14:11:52.322539,238
14:11:52.322539,8960
14:11:52.322539,4
14:11:52.322539,1529
14:11:52.322539,-6144
14:11:52.322539,2
14:11:52.322539,-166
14:11:52.322539,-26113
14:11:52.322539,-1
14:11:52.322539,62
14:11:52.322539,-32512
14:11:52.322539,-1
14:11:52.322539,-149
14:11:52.322539,-14337
14:11:52.322539,-1
14:11:52.322539,-91
14:11:52.322539,-28673
14:11:52.322539,-1
14:11:52.322539,-72
14:11:52.322539,-18177
14:11:52.322539,-1
14:11:52.322539,-86
14:11:52.322539,-18689
14:11:52.322539,-1
14:11:52.322539,-69
14:11:52.322539,-18689
14:11:52.322539,-1
14:11:52.322539,-74
14:11:52.322539,-16897
14:11:52.322539,-1
14:11:52.322539,-57
14:11:52.322539,-13825
14:11:52.322539,-1
14:11:52.322539,-52
14:11:52.322539,-9985
14:11:52.322539,-1
14:11:52.322539,-40
14:11:52.322539,-13057
14:11:52.322539,-1
14:11:52.322539,-57
14:11:52.322539,-15617
14:11:52.322539,-1
14:11:52.322539,-67
14:11:52.322539,-19457
14:11:52.322539,-1
14:11:52.322539,-86
14:11:52.322539,-21761
14:11:52.322539,-1
14:11:52.322539,-72
14:11:52.322539,-16385
14:11:52.322539,-1
14:11:52.322539,-67
14:11:52.322539,-16385
14:11:52.322539,-1
14:11:52.322539,-62
14:11:52.322539,-17409
14:11:52.322539,-1
14:11:52.322539,-79
14:11:52.322539,-19457
14:11:52.322539,-1
14:11:52.322539,-74
14:11:52.322539,-19457
14:11:52.322539,-1
14:11:52.322539,-81
14:11:52.322539,-20481
14:11:52.322539,-1
14:11:52.322539,-79
14:11:52.322539,-21249
14:11:52.322539,-1
14:11:52.322539,-84
14:11:52.322539,-19457
14:11:52.322539,-1
14:11:52.322539,-69
14:11:52.322539,-16897
14:11:52.322539,-1
14:11:52.322539,-72
14:11:52.322539,-16897
14:11:52.322539,-1
14:11:52.322539,-55
14:11:52.322539,-13825
14:11:52.322539,-1
14:11:52.322539,-55
14:11:52.322539,-13057
14:11:52.322539,-1
14:11:52.322539,-57
14:11:52.322539,-15617
14:11:52.322539,-1
14:11:52.322539,-57
14:11:52.322539,-12545
14:11:52.322539,-1
14:11:52.322539,-52
14:11:52.322539,-15617
14:11:52.322539,-1
14:11:52.322539,-60
14:11:52.322539,-13825
14:11:52.322539,-1
14:11:52.322539,-57
14:11:52.861932,-57
14:11:52.861932,-13057
14:11:52.861932,-1
14:11:52.861932,-52
14:11:52.861932,-14337
14:11:52.861932,-1
14:11:52.861932,-55
14:11:52.861932,-12545
14:11:52.861932,-1
14:11:52.861932,-50
14:11:52.861932,-12033
14:11:52.861932,-1
14:11:52.861932,-45
14:11:52.861932,-12033
14:11:52.861932,-1
14:11:52.861932,-50
14:11:52.861932,-13825
14:11:52.861932,-1
14:11:52.861932,-50
14:11:52.861932,-8193
14:11:52.861932,-1
14:11:52.861932,-14
14:11:52.861932,3839
14:11:52.861932,0
14:11:52.861932,16
14:11:52.861932,-4096
14:11:52.861932,-1
14:11:52.861932,-28
14:11:52.861932,-2049
14:11:52.861932,-1
14:11:52.861932,-2
14:11:52.861932,-4609
14:11:52.861932,-1
14:11:52.861932,-69
14:11:52.861932,-27905
14:11:52.861932,-1
14:11:52.861932,207
14:11:52.861932,-3840
14:11:52.861932,3
14:11:52.861932,1286
14:11:52.861932,-18432
14:11:52.861932,1
14:11:52.861932,-216
14:11:52.861932,-10753
14:11:52.861932,-1
14:11:52.861932,9
14:11:52.861932,21760
14:11:52.861932,-1
14:11:52.861932,-132
14:11:52.861932,-15617
14:11:52.861932,-1
14:11:52.861932,-105
14:11:52.861932,-26625
14:11:52.861932,-1
14:11:52.861932,-69
14:11:52.861932,-19969
14:11:52.861932,-1
14:11:52.861932,-81
14:11:52.861932,-16897
14:11:52.861932,-1
14:11:52.861932,-67
14:11:52.861932,-16897
14:11:52.861932,-1
14:11:52.861932,-57
14:11:52.861932,-13057
14:11:52.861932,-1
14:11:52.861932,-48
14:11:52.861932,-9473
14:11:52.861932,-1
14:11:52.861932,-26
14:11:52.861932,-4609
14:11:52.861932,-1
14:11:52.861932,-16
14:11:52.861932,-3329
14:11:52.861932,-1
14:11:52.861932,-21
14:11:52.861932,-6401
14:11:52.861932,-1
14:11:52.861932,-24
14:11:52.861932,-5121
14:11:52.861932,-1
14:11:52.861932,-19
14:11:52.861932,-6401
14:11:52.861932,-1
14:11:52.861932,-40
14:11:52.861932,-11265
14:11:52.861932,-1
14:11:52.861932,-45
14:11:52.861932,-13057
14:11:52.861932,-1
14:11:52.861932,-69
14:11:52.861932,-19457
14:11:52.861932,-1
14:11:52.861932,-79
14:11:52.861932,-19457
14:11:52.861932,-1
14:11:52.861932,-72
14:11:52.861932,-16897
14:11:52.861932,-1
14:11:52.861932,-67
14:11:52.861932,-15617
14:11:52.861932,-1
14:11:52.861932,-52
14:11:52.861932,-12545
14:11:52.861932,-1
14:11:52.861932,-45
14:11:52.861932,-11265
14:11:52.861932,-1
14:11:52.861932,-40
14:11:53.402800,-36
14:11:53.402800,-8961
14:11:53.402800,-1
14:11:53.402800,-33
14:11:53.402800,-8961
14:11:53.402800,-1
14:11:53.402800,-33
14:11:53.402800,-6913
14:11:53.402800,-1
14:11:53.402800,-28
14:11:53.402800,-4609
14:11:53.402800,-1
14:11:53.402800,-4
14:11:53.402800,-769
14:11:53.402800,-1
14:11:53.402800,-9
14:11:53.402800,-769
14:11:53.402800,-1
14:11:53.402800,-2
14:11:53.402800,255
14:11:53.402800,0
14:11:53.402800,4
14:11:53.402800,1792
14:11:53.402800,0
14:11:53.402800,4
14:11:53.402800,1024
14:11:53.402800,0
14:11:53.402800,7
14:11:53.402800,512
14:11:53.402800,0
14:11:53.402800,-7
14:11:53.402800,-5121
14:11:53.402800,-1
14:11:53.402800,-21
14:11:53.402800,255
14:11:53.402800,0
14:11:53.402800,24
14:11:53.402800,13312
14:11:53.402800,0
14:11:53.402800,65
14:11:53.402800,11008
14:11:53.402800,0
14:11:53.402800,26
14:11:53.402800,10240
14:11:53.402800,0
14:11:53.402800,52
14:11:53.402800,11520
14:11:53.402800,0
14:11:53.402800,7
14:11:53.402800,-12800
14:11:53.402800,-1
14:11:53.402800,156
14:11:53.402800,-24320
14:11:53.402800,3
14:11:53.402800,1507
14:11:53.402800,23296
14:11:53.402800,3
14:11:53.402800,-79
14:11:53.402800,-23041
14:11:53.402800,-1
14:11:53.402800,89
14:11:53.402800,-20736
14:11:53.402800,-1
14:11:53.402800,-115
14:11:53.402800,-4609
14:11:53.402800,-1
14:11:53.402800,-40
14:11:53.402800,-16897
14:11:53.402800,-1
14:11:53.402800,-31
14:11:53.402800,-6913
14:11:53.402800,-1
14:11:53.402800,-38
14:11:53.402800,-5889
14:11:53.402800,-1
14:11:53.402800,-19
14:11:53.402800,-5889
14:11:53.402800,-1
14:11:53.402800,-19
14:11:53.402800,-3841
14:11:53.402800,-1
14:11:53.402800,-16
14:11:53.402800,-3841
14:11:53.402800,-1
14:11:53.402800,-14
14:11:53.402800,-2817
14:11:53.402800,-1
14:11:53.402800,-9
14:11:53.402800,-2049
14:11:53.402800,-1
14:11:53.402800,-12
14:11:53.402800,-3841
14:11:53.402800,-1
14:11:53.402800,-19
14:11:53.402800,-5889
14:11:53.402800,-1
14:11:53.402800,-26
14:11:53.402800,-5889
14:11:53.402800,-1
14:11:53.402800,-21
14:11:53.402800,-5121
14:11:53.402800,-1
14:11:53.402800,-24
14:11:53.402800,-6401
14:11:53.402800,-1
14:11:53.402800,-26
14:11:53.402800,-7681
14:11:53.402800,-1
14:11:53.402800,-33
14:11:53.981040,-33
14:11:53.981040,-8961
14:11:53.981040,-1
14:11:53.981040,-36
14:11:53.981040,-7681
14:11:53.981040,-1
14:11:53.981040,-21
14:11:53.981040,-769
14:11:53.981040,-1
14:11:53.981040,0
14:11:53.981040,-512
14:11:53.981040,-1
14:11:53.981040,0
14:11:53.981040,1792
14:11:53.981040,0
14:11:53.981040,12
14:11:53.981040,3072
14:11:53.981040,0
14:11:53.981040,14
14:11:53.981040,4864
14:11:53.981040,0
14:11:53.981040,21
14:11:53.981040,6144
14:11:53.981040,0
14:11:53.981040,26
14:11:53.981040,6656
14:11:53.981040,0
14:11:53.981040,24
14:11:53.981040,5376
14:11:53.981040,0
14:11:53.981040,24
14:11:53.981040,6144
14:11:53.981040,0
14:11:53.981040,19
14:11:53.981040,1024
14:11:53.981040,0
14:11:53.981040,-19
14:11:53.981040,-5121
14:11:53.981040,-1
14:11:53.981040,2
14:11:53.981040,6656
14:11:53.981040,0
14:11:53.981040,45
14:11:53.981040,15360
14:11:53.981040,0
14:11:53.981040,52
14:11:53.981040,8448
14:11:53.981040,0
14:11:53.981040,38
14:11:53.981040,14080
14:11:53.981040,0
14:11:53.981040,52
14:11:53.981040,9216
14:11:53.981040,0
14:11:53.981040,-21
14:11:53.981040,1279
14:11:53.981040,0
14:11:53.981040,537
14:11:53.981040,29184
14:11:53.981040,5
14:11:53.981040,1341
14:11:53.981040,8960
14:11:53.981040,1
14:11:53.981040,-219
14:11:53.981040,5119
14:11:53.981040,0
14:11:53.981040,9
14:11:53.981040,27392
14:11:53.981040,-1
14:11:53.981040,-77
14:11:53.981040,-8193
14:11:53.981040,-1
14:11:53.981040,-86
14:11:53.981040,-18177
14:11:53.981040,-1
14:11:53.981040,-43
14:11:53.981040,-12545
14:11:53.981040,-1
14:11:53.981040,-45
14:11:53.981040,-8193
14:11:53.981040,-1
14:11:53.981040,-33
14:11:53.981040,-8193
14:11:53.981040,-1
14:11:53.981040,-28
14:11:53.981040,-5889
14:11:53.981040,-1
14:11:53.981040,-21
14:11:53.981040,-4609
14:11:53.981040,-1
14:11:53.981040,-19
14:11:53.981040,-4609
14:11:53.981040,-1
14:11:53.981040,-19
14:11:53.981040,-5889
14:11:53.981040,-1
14:11:53.981040,-26
14:11:53.981040,-7681
14:11:53.981040,-1
14:11:53.981040,-38
14:11:53.981040,-8193
14:11:53.981040,-1
14:11:53.981040,-19
14:11:53.981040,-1537
14:11:53.981040,-1
14:11:53.981040,2
14:11:53.981040,1792
14:11:53.981040,0
14:11:53.981040,14
14:11:54.569879,16
14:11:54.569879,3584
14:11:54.569879,0
14:11:54.569879,14
14:11:54.569879,3584
14:11:54.569879,0
14:11:54.569879,12
14:11:54.569879,3072
14:11:54.569879,0
14:11:54.569879,14
14:11:54.569879,6144
14:11:54.569879,0
14:11:54.569879,36
14:11:54.569879,11008
14:11:54.569879,0
14:11:54.569879,38
14:11:54.569879,9728
14:11:54.569879,0
14:11:54.569879,43
14:11:54.569879,11520
14:11:54.569879,0
14:11:54.569879,50
14:11:54.569879,14592
14:11:54.569879,0
14:11:54.569879,57
14:11:54.569879,14080
14:11:54.569879,0
14:11:54.569879,57
14:11:54.569879,14592
14:11:54.569879,0
14:11:54.569879,60
14:11:54.569879,15360
14:11:54.569879,0
14:11:54.569879,57
14:11:54.569879,14592
14:11:54.569879,0
14:11:54.569879,55
14:11:54.569879,13312
14:11:54.569879,0
14:11:54.569879,52
14:11:54.569879,9728
14:11:54.569879,0
14:11:54.569879,14
14:11:54.569879,1792
14:11:54.569879,0
14:11:54.569879,28
14:11:54.569879,14080
14:11:54.569879,0
14:11:54.569879,77
14:11:54.569879,23296
14:11:54.569879,0
14:11:54.569879,74
14:11:54.569879,12800
14:11:54.569879,0
14:11:54.569879,57
14:11:54.569879,18432
14:11:54.569879,0
14:11:54.569879,67
14:11:54.569879,11520
14:11:54.569879,0
14:11:54.569879,-12
14:11:54.569879,-769
14:11:54.569879,-1
14:11:54.569879,462
14:11:54.569879,5888
14:11:54.569879,5
14:11:54.569879,1322
14:11:54.569879,14592
14:11:54.569879,1
14:11:54.569879,-204
14:11:54.569879,8703
14:11:54.569879,0
14:11:54.569879,26
14:11:54.569879,30464
14:11:54.569879,-1
14:11:54.569879,-67
14:11:54.569879,-5121
14:11:54.569879,-1
14:11:54.569879,-74
14:11:54.569879,-15105
14:11:54.569879,-1
14:11:54.569879,-26
14:11:54.569879,-9473
14:11:54.569879,-1
14:11:54.569879,-36
14:11:54.569879,-3841
14:11:54.569879,-1
14:11:54.569879,-16
14:11:54.569879,-3329
14:11:54.569879,-1
14:11:54.569879,-7
14:11:54.569879,-769
14:11:54.569879,-1
14:11:54.569879,0
14:11:54.569879,1792
14:11:54.569879,0
14:11:54.569879,9
14:11:54.569879,1792
14:11:54.569879,0
14:11:54.569879,4
14:11:54.569879,512
14:11:54.569879,0
14:11:54.569879,-7
14:11:54.569879,-3841
14:11:54.569879,-1
14:11:54.569879,-19
14:11:54.569879,-5121
14:11:54.569879,-1
14:11:54.569879,-14
14:11:55.154372,-2
14:11:55.154372,-257
14:11:55.154372,-1
14:11:55.154372,-7
14:11:55.154372,-2049
14:11:55.154372,-1
14:11:55.154372,-12
14:11:55.154372,-3841
14:11:55.154372,-1
14:11:55.154372,-19
14:11:55.154372,-3841
14:11:55.154372,-1
14:11:55.154372,-19
14:11:55.154372,-4609
14:11:55.154372,-1
14:11:55.154372,-14
14:11:55.154372,-257
14:11:55.154372,-1
14:11:55.154372,9
14:11:55.154372,1792
14:11:55.154372,0
14:11:55.154372,4
14:11:55.154372,3072
14:11:55.154372,0
14:11:55.154372,14
14:11:55.154372,4864
14:11:55.154372,0
14:11:55.154372,24
14:11:55.154372,6656
14:11:55.154372,0
14:11:55.154372,26
14:11:55.154372,7168
14:11:55.154372,0
14:11:55.154372,31
14:11:55.154372,7936
14:11:55.154372,0
14:11:55.154372,28
14:11:55.154372,7168
14:11:55.154372,0
14:11:55.154372,28
14:11:55.154372,6656
14:11:55.154372,0
14:11:55.154372,28
14:11:55.154372,7168
14:11:55.154372,0
14:11:55.154372,28
14:11:55.154372,6656
14:11:55.154372,0
14:11:55.154372,26
14:11:55.154372,7168
14:11:55.154372,0
14:11:55.154372,26
14:11:55.154372,7168
14:11:55.154372,0
14:11:55.154372,28
14:11:55.154372,6656
14:11:55.154372,0
14:11:55.154372,26
14:11:55.154372,6656
14:11:55.154372,0
14:11:55.154372,26
14:11:55.154372,6656
14:11:55.154372,0
14:11:55.154372,24
14:11:55.154372,6144
14:11:55.154372,0
14:11:55.154372,24
14:11:55.154372,5376
14:11:55.154372,0
14:11:55.154372,21
14:11:55.154372,4864
14:11:55.154372,0
14:11:55.154372,19
14:11:55.154372,5376
14:11:55.154372,0
14:11:55.154372,21
14:11:55.154372,4096
14:11:55.154372,0
14:11:55.154372,0
14:11:55.154372,-4864
14:11:55.154372,-1
14:11:55.154372,-14
14:11:55.154372,2559
14:11:55.154372,0
14:11:55.154372,33
14:11:55.154372,14080
14:11:55.154372,0
14:11:55.154372,50
14:11:55.154372,6144
14:11:55.154372,0
14:11:55.154372,12
14:11:55.154372,6656
14:11:55.154372,0
14:11:55.154372,33
14:11:55.154372,3584
14:11:55.154372,0
14:11:55.154372,-38
14:11:55.154372,-10753
14:11:55.154372,-1
14:11:55.154372,380
14:11:55.154372,-18176
14:11:55.154372,4
14:11:55.154372,1312
14:11:55.154372,23040
14:11:55.154372,1
14:11:55.154372,-231
14:11:55.154372,-2049
14:11:55.154372,-1
14:11:55.154372,9
14:11:55.695775,-168
14:11:55.695775,-27905
14:11:55.695775,-1
14:11:55.695775,-50
14:11:55.695775,-27393
14:11:55.695775,-1
14:11:55.695775,-103
14:11:55.695775,-16897
14:11:55.695775,-1
14:11:55.695775,-77
14:11:55.695775,-20481
14:11:55.695775,-1
14:11:55.695775,-69
14:11:55.695775,-16897
14:11:55.695775,-1
14:11:55.695775,-69
14:11:55.695775,-16897
14:11:55.695775,-1
14:11:55.695775,-62
14:11:55.695775,-14337
14:11:55.695775,-1
14:11:55.695775,-40
14:11:55.695775,-6401
14:11:55.695775,-1
14:11:55.695775,-31
14:11:55.695775,-10753
14:11:55.695775,-1
14:11:55.695775,-48
14:11:55.695775,-13825
14:11:55.695775,-1
14:11:55.695775,-60
14:11:55.695775,-15617
14:11:55.695775,-1
14:11:55.695775,-52
14:11:55.695775,-11265
14:11:55.695775,-1
14:11:55.695775,-43
14:11:55.695775,-7681
14:11:55.695775,-1
14:11:55.695775,-36
14:11:55.695775,-13057
14:11:55.695775,-1
14:11:55.695775,-55
14:11:55.695775,-13057
14:11:55.695775,-1
14:11:55.695775,-60
14:11:55.695775,-16385
14:11:55.695775,-1
14:11:55.695775,-62
14:11:55.695775,-16385
14:11:55.695775,-1
14:11:55.695775,-67
14:11:55.695775,-16897
14:11:55.695775,-1
14:11:55.695775,-72
14:11:55.695775,-18177
14:11:55.695775,-1
14:11:55.695775,-67
14:11:55.695775,-16897
14:11:55.695775,-1
14:11:55.695775,-65
14:11:55.695775,-13057
14:11:55.695775,-1
14:11:55.695775,-50
14:11:55.695775,-12545
14:11:55.695775,-1
14:11:55.695775,-43
14:11:55.695775,-11265
14:11:55.695775,-1
14:11:55.695775,-50
14:11:55.695775,-12033
14:11:55.695775,-1
14:11:55.695775,-50
14:11:55.695775,-12545
14:11:55.695775,-1
14:11:55.695775,-45
14:11:55.695775,-10753
14:11:55.695775,-1
14:11:55.695775,-48
14:11:55.695775,-12545
14:11:55.695775,-1
14:11:55.695775,-43
14:11:55.695775,-10753
14:11:55.695775,-1
14:11:55.695775,-43
14:11:55.695775,-9985
14:11:55.695775,-1
14:11:55.695775,-38
14:11:55.695775,-9985
14:11:55.695775,-1
14:11:55.695775,-40
14:11:55.695775,-9985
14:11:55.695775,-1
14:11:55.695775,-43
14:11:55.695775,-11265
14:11:55.695775,-1
14:11:55.695775,-43
14:11:55.695775,-9985
14:11:55.695775,-1
14:11:55.695775,-40
14:11:55.695775,-9985
14:11:55.695775,-1
14:11:55.695775,-38
14:11:55.695775,-9985
14:11:55.695775,-1
14:11:55.695775,-48
14:11:55.695775,-14337
14:11:55.695775,-1
14:11:55.695775,-67
14:11:56.234718,-65
14:11:56.234718,-12033
14:11:56.234718,-1
14:11:56.234718,-26
14:11:56.234718,-257
14:11:56.234718,-1
14:11:56.234718,0
14:11:56.234718,-6656
14:11:56.234718,-1
14:11:56.234718,-38
14:11:56.234718,-4609
14:11:56.234718,-1
14:11:56.234718,-12
14:11:56.234718,-6913
14:11:56.234718,-1
14:11:56.234718,-86
14:11:56.234718,-30465
14:11:56.234718,-1
14:11:56.234718,199
14:11:56.234718,-15104
14:11:56.234718,3
14:11:56.234718,1226
14:11:56.234718,-25856
14:11:56.234718,1
14:11:56.234718,-209
14:11:56.234718,-7681
14:11:56.234718,-1
14:11:56.234718,19
14:11:56.234718,23808
14:11:56.234718,-1
14:11:56.234718,-122
14:11:56.234718,-13825
14:11:56.234718,-1
14:11:56.234718,-98
14:11:56.234718,-24321
14:11:56.234718,-1
14:11:56.234718,-62
14:11:56.234718,-18177
14:11:56.234718,-1
14:11:56.234718,-77
14:11:56.234718,-15617
14:11:56.234718,-1
14:11:56.234718,-60
14:11:56.234718,-14337
14:11:56.234718,-1
14:11:56.234718,-48
14:11:56.234718,-10753
14:11:56.234718,-1
14:11:56.234718,-36
14:11:56.234718,-6401
14:11:56.234718,-1
14:11:56.234718,-21
14:11:56.234718,-3329
14:11:56.234718,-1
14:11:56.234718,-12
14:11:56.234718,-3329
14:11:56.234718,-1
14:11:56.234718,-12
14:11:56.234718,-3329
14:11:56.234718,-1
14:11:56.234718,-12
14:11:56.234718,-257
14:11:56.234718,-1
14:11:56.234718,7
14:11:56.234718,1792
14:11:56.234718,0
14:11:56.234718,-7
14:11:56.234718,-6401
14:11:56.234718,-1
14:11:56.234718,-38
14:11:56.234718,-11265
14:11:56.234718,-1
14:11:56.234718,-52
14:11:56.234718,-13057
14:11:56.234718,-1
14:11:56.234718,-50
14:11:56.234718,-12545
14:11:56.234718,-1
14:11:56.234718,-48
14:11:56.234718,-9985
14:11:56.234718,-1
14:11:56.234718,-36
14:11:56.234718,-8193
14:11:56.234718,-1
14:11:56.234718,-28
14:11:56.234718,-5121
14:11:56.234718,-1
14:11:56.234718,-16
14:11:56.234718,-2817
14:11:56.234718,-1
14:11:56.234718,-9
14:11:56.234718,-257
14:11:56.234718,-1
14:11:56.234718,0
14:11:56.234718,0
14:11:56.234718,0
14:11:56.234718,9
14:11:56.234718,3584
14:11:56.234718,0
14:11:56.234718,12
14:11:56.234718,3584
14:11:56.234718,0
14:11:56.234718,14
14:11:56.234718,4096
14:11:56.234718,0
14:11:56.234718,19
14:11:56.234718,5376
14:11:56.234718,0
14:11:56.234718,26
14:11:56.775575,26
14:11:56.775575,6656
14:11:56.775575,0
14:11:56.775575,31
14:11:56.775575,8448
14:11:56.775575,0
14:11:56.775575,36
14:11:56.775575,9216
14:11:56.775575,0
14:11:56.775575,38
14:11:56.775575,9728
14:11:56.775575,0
14:11:56.775575,43
14:11:56.775575,15872
14:11:56.775575,0
14:11:56.775575,69
14:11:56.775575,12288
14:11:56.775575,0
14:11:56.775575,24
14:11:56.775575,4096
14:11:56.775575,0
14:11:56.775575,38
14:11:56.775575,16640
14:11:56.775575,0
14:11:56.775575,86
14:11:56.775575,26368
14:11:56.775575,0
14:11:56.775575,81
14:11:56.775575,14592
14:11:56.775575,0
14:11:56.775575,67
14:11:56.775575,20736
14:11:56.775575,0
14:11:56.775575,77
14:11:56.775575,11520
14:11:56.775575,0
14:11:56.775575,-14
14:11:56.775575,27903
14:11:56.775575,0
14:11:56.775575,787
14:11:56.775575,-9216
14:11:56.775575,5
14:11:56.775575,1071
14:11:56.775575,11008
14:11:56.775575,0
14:11:56.775575,-139
14:11:56.775575,26111
14:11:56.775575,0
14:11:56.775575,-26
14:11:56.775575,-29953
14:11:56.775575,-1
14:11:56.775575,-21
14:11:56.775575,-5889
14:11:56.775575,-1
14:11:56.775575,-62
14:11:56.775575,-8193
14:11:56.775575,-1
14:11:56.775575,-16
14:11:56.775575,-6913
14:11:56.775575,-1
14:11:56.775575,-19
14:11:56.775575,-769
14:11:56.775575,-1
14:11:56.775575,-2
14:11:56.775575,767
14:11:56.775575,0
14:11:56.775575,4
14:11:56.775575,1024
14:11:56.775575,0
14:11:56.775575,9
14:11:56.775575,3072
14:11:56.775575,0
14:11:56.775575,14
14:11:56.775575,3072
14:11:56.775575,0
14:11:56.775575,7
14:11:56.775575,512
14:11:56.775575,0
14:11:56.775575,-9
14:11:56.775575,-3329
14:11:56.775575,-1
14:11:56.775575,-19
14:11:56.775575,-3841
14:11:56.775575,-1
14:11:56.775575,-7
14:11:56.775575,-257
14:11:56.775575,-1
14:11:56.775575,2
14:11:56.775575,1024
14:11:56.775575,0
14:11:56.775575,2
14:11:56.775575,512
14:11:56.775575,0
14:11:56.775575,0
14:11:56.775575,-1024
14:11:56.775575,-1
14:11:56.775575,-4
14:11:56.775575,-1537
14:11:56.775575,-1
14:11:56.775575,-7
14:11:56.775575,-1537
14:11:56.775575,-1
14:11:56.775575,-9
14:11:56.775575,-1537
14:11:56.775575,-1
14:11:56.775575,-7
14:11:56.775575,-257
14:11:56.775575,-1
14:11:56.775575,2
14:11:57.315329,7
14:11:57.315329,2304
14:11:57.315329,0
14:11:57.315329,12
14:11:57.315329,3584
14:11:57.315329,0
14:11:57.315329,21
14:11:57.315329,7168
14:11:57.315329,0
14:11:57.315329,40
14:11:57.315329,13312
14:11:57.315329,0
14:11:57.315329,48
14:11:57.315329,11008
14:11:57.315329,0
14:11:57.315329,48
14:11:57.315329,12288
14:11:57.315329,0
14:11:57.315329,48
14:11:57.315329,12800
14:11:57.315329,0
14:11:57.315329,52
14:11:57.315329,13312
14:11:57.315329,0
14:11:57.315329,52
14:11:57.315329,13312
14:11:57.315329,0
14:11:57.315329,52
14:11:57.315329,13312
14:11:57.315329,0
14:11:57.315329,50
14:11:57.315329,12288
14:11:57.315329,0
14:11:57.315329,50
14:11:57.315329,12800
14:11:57.315329,0
14:11:57.315329,43
14:11:57.315329,6656
14:11:57.315329,0
14:11:57.315329,0
14:11:57.315329,1792
14:11:57.315329,0
14:11:57.315329,36
14:11:57.315329,14592
14:11:57.315329,0
14:11:57.315329,79
14:11:57.315329,20224
14:11:57.315329,0
14:11:57.315329,48
14:11:57.315329,9728
14:11:57.315329,0
14:11:57.315329,57
14:11:57.315329,17664
14:11:57.315329,0
14:11:57.315329,52
14:11:57.315329,512
14:11:57.315329,0
14:11:57.315329,-33
14:11:57.315329,5631
14:11:57.315329,1
14:11:57.315329,1088
14:11:57.315329,-24064
14:11:57.315329,5
14:11:57.315329,607
14:11:57.315329,19968
14:11:57.315329,-1
14:11:57.315329,-48
14:11:57.315329,17407
14:11:57.315329,0
14:11:57.315329,-115
14:11:57.315329,-24833
14:11:57.315329,-1
14:11:57.315329,-16
14:11:57.315329,-16385
14:11:57.315329,-1
14:11:57.315329,-77
14:11:57.315329,-8961
14:11:57.315329,-1
14:11:57.315329,-38
14:11:57.315329,-10753
14:11:57.315329,-1
14:11:57.315329,-28
14:11:57.315329,-6401
14:11:57.315329,-1
14:11:57.315329,-28
14:11:57.315329,-5121
14:11:57.315329,-1
14:11:57.315329,-14
14:11:57.315329,-2049
14:11:57.315329,-1
14:11:57.315329,-7
14:11:57.315329,-769
14:11:57.315329,-1
14:11:57.315329,-4
14:11:57.315329,-769
14:11:57.315329,-1
14:11:57.315329,-9
14:11:57.315329,-3841
14:11:57.315329,-1
14:11:57.315329,-26
14:11:57.315329,-8193
14:11:57.315329,-1
14:11:57.315329,-38
14:11:57.315329,-6913
14:11:57.315329,-1
14:11:57.315329,-19
14:11:57.315329,-3329
14:11:57.315329,-1
14:11:57.315329,-14
14:11:57.945285,-16
14:11:57.945285,-4609
14:11:57.945285,-1
14:11:57.945285,-21
14:11:57.945285,-3329
14:11:57.945285,-1
14:11:57.945285,0
14:11:57.945285,0
14:11:57.945285,0
14:11:57.945285,-7
14:11:57.945285,-1537
14:11:57.945285,-1
14:11:57.945285,-7
14:11:57.945285,-1537
14:11:57.945285,-1
14:11:57.945285,-4
14:11:57.945285,-769
14:11:57.945285,-1
14:11:57.945285,-7
14:11:57.945285,-769
14:11:57.945285,-1
14:11:57.945285,2
14:11:57.945285,3072
14:11:57.945285,0
14:11:57.945285,9
14:11:57.945285,2304
14:11:57.945285,0
14:11:57.945285,12
14:11:57.945285,3072
14:11:57.945285,0
14:11:57.945285,14
14:11:57.945285,3584
14:11:57.945285,0
14:11:57.945285,14
14:11:57.945285,2304
14:11:57.945285,0
14:11:57.945285,12
14:11:57.945285,3072
14:11:57.945285,0
14:11:57.945285,9
14:11:57.945285,3584
14:11:57.945285,0
14:11:57.945285,19
14:11:57.945285,3072
14:11:57.945285,0
14:11:57.945285,7
14:11:57.945285,1792
14:11:57.945285,0
14:11:57.945285,9
14:11:57.945285,3072
14:11:57.945285,0
14:11:57.945285,7
14:11:57.945285,1024
14:11:57.945285,0
14:11:57.945285,4
14:11:57.945285,1024
14:11:57.945285,0
14:11:57.945285,7
14:11:57.945285,2304
14:11:57.945285,0
14:11:57.945285,-9
14:11:57.945285,-9473
14:11:57.945285,-1
14:11:57.945285,-36
14:11:57.945285,-2049
14:11:57.945285,-1
14:11:57.945285,12
14:11:57.945285,9728
14:11:57.945285,0
14:11:57.945285,38
14:11:57.945285,-512
14:11:57.945285,-1
14:11:57.945285,-14
14:11:57.945285,767
14:11:57.945285,0
14:11:57.945285,9
14:11:57.945285,-1024
14:11:57.945285,-1
14:11:57.945285,-57
14:11:57.945285,-23553
14:11:57.945285,-1
14:11:57.945285,231
14:11:57.945285,5376
14:11:57.945285,4
14:11:57.945285,1341
14:11:57.945285,-9728
14:11:57.945285,1
14:11:57.945285,-238
14:11:57.945285,-17409
14:11:57.945285,-1
14:11:57.945285,12
14:11:57.945285,20736
14:11:57.945285,-1
14:11:57.945285,-142
14:11:57.945285,-16897
14:11:57.945285,-1
14:11:57.945285,-118
14:11:57.945285,-32257
14:11:57.945285,-1
14:11:57.945285,-89
14:11:57.945285,-23553
14:11:57.945285,-1
14:11:57.945285,-101
14:11:57.945285,-20481
14:11:57.945285,-1
14:11:57.945285,-77
14:11:57.945285,-20481
14:11:57.945285,-1
14:11:57.945285,-77
14:11:58.484431,-67
14:11:58.484431,-15105
14:11:58.484431,-1
14:11:58.484431,-52
14:11:58.484431,-12545
14:11:58.484431,-1
14:11:58.484431,-50
14:11:58.484431,-12545
14:11:58.484431,-1
14:11:58.484431,-52
14:11:58.484431,-15105
14:11:58.484431,-1
14:11:58.484431,-67
14:11:58.484431,-17409
14:11:58.484431,-1
14:11:58.484431,-69
14:11:58.484431,-14337
14:11:58.484431,-1
14:11:58.484431,-45
14:11:58.484431,-8961
14:11:58.484431,-1
14:11:58.484431,-36
14:11:58.484431,-13057
14:11:58.484431,-1
14:11:58.484431,-62
14:11:58.484431,-15617
14:11:58.484431,-1
14:11:58.484431,-62
14:11:58.484431,-14337
14:11:58.484431,-1
14:11:58.484431,-50
14:11:58.484431,-13057
14:11:58.484431,-1
14:11:58.484431,-52
14:11:58.484431,-14337
14:11:58.484431,-1
14:11:58.484431,-57
14:11:58.484431,-12545
14:11:58.484431,-1
14:11:58.484431,-48
14:11:58.484431,-11265
14:11:58.484431,-1
14:11:58.484431,-40
14:11:58.484431,-9985
14:11:58.484431,-1
14:11:58.484431,-38
14:11:58.484431,-8961
14:11:58.484431,-1
14:11:58.484431,-36
14:11:58.484431,-8193
14:11:58.484431,-1
14:11:58.484431,-31
14:11:58.484431,-7681
14:11:58.484431,-1
14:11:58.484431,-31
14:11:58.484431,-6913
14:11:58.484431,-1
14:11:58.484431,-31
14:11:58.484431,-7681
14:11:58.484431,-1
14:11:58.484431,-31
14:11:58.484431,-8193
14:11:58.484431,-1
14:11:58.484431,-31
14:11:58.484431,-5889
14:11:58.484431,-1
14:11:58.484431,-26
14:11:58.484431,-7681
14:11:58.484431,-1
14:11:58.484431,-28
14:11:58.484431,-6913
14:11:58.484431,-1
14:11:58.484431,-28
14:11:58.484431,-8193
14:11:58.484431,-1
14:11:58.484431,-45
14:11:58.484431,-16385
14:11:58.484431,-1
14:11:58.484431,-69
14:11:58.484431,-12545
14:11:58.484431,-1
14:11:58.484431,-28
14:11:58.484431,-257
14:11:58.484431,-1
14:11:58.484431,14
14:11:58.484431,-3072
14:11:58.484431,-1
14:11:58.484431,-36
14:11:58.484431,-3841
14:11:58.484431,-1
14:11:58.484431,0
14:11:58.484431,-512
14:11:58.484431,-1
14:11:58.484431,-24
14:11:58.484431,-23041
14:11:58.484431,-1
14:11:58.484431,-62
14:11:58.484431,-16129
14:11:58.484431,1
14:11:58.484431,1194
14:11:58.484431,-256
14:11:58.484431,3
14:11:58.484431,81
14:11:58.484431,17664
14:11:58.484431,-1
14:11:58.484431,52
14:11:58.484431,-11008
14:11:58.484431,-1
14:11:58.484431,-156
14:11:59.021062,-62
14:11:59.021062,-12033
14:11:59.021062,-1
14:11:59.021062,-91
14:11:59.021062,-15617
14:11:59.021062,-1
14:11:59.021062,-40
14:11:59.021062,-13057
14:11:59.021062,-1
14:11:59.021062,-43
14:11:59.021062,-6913
14:11:59.021062,-1
14:11:59.021062,-28
14:11:59.021062,-3329
14:11:59.021062,-1
14:11:59.021062,4
14:11:59.021062,3584
14:11:59.021062,0
14:11:59.021062,16
14:11:59.021062,7168
14:11:59.021062,0
14:11:59.021062,38
14:11:59.021062,9728
14:11:59.021062,0
14:11:59.021062,40
14:11:59.021062,11008
14:11:59.021062,0
14:11:59.021062,38
14:11:59.021062,10240
14:11:59.021062,0
14:11:59.021062,45
14:11:59.021062,12800
14:11:59.021062,0
14:11:59.021062,55
14:11:59.021062,12288
14:11:59.021062,0
14:11:59.021062,36
14:11:59.021062,5376
14:11:59.021062,0
14:11:59.021062,7
14:11:59.021062,0
14:11:59.021062,0
14:11:59.021062,-4
14:11:59.021062,-1537
14:11:59.021062,-1
14:11:59.021062,-4
14:11:59.021062,-257
14:11:59.021062,-1
14:11:59.021062,2
14:11:59.021062,1024
14:11:59.021062,0
14:11:59.021062,7
14:11:59.021062,3072
14:11:59.021062,0
14:11:59.021062,16
14:11:59.021062,4864
14:11:59.021062,0
14:11:59.021062,24
14:11:59.021062,6656
14:11:59.021062,0
14:11:59.021062,31
14:11:59.021062,7168
14:11:59.021062,0
14:11:59.021062,26
14:11:59.021062,7936
14:11:59.021062,0
14:11:59.021062,31
14:11:59.021062,7936
14:11:59.021062,0
14:11:59.021062,31
14:11:59.021062,7936
14:11:59.021062,0
14:11:59.021062,31
14:11:59.021062,7936
14:11:59.021062,0
14:11:59.021062,31
14:11:59.021062,8448
14:11:59.021062,0
14:11:59.021062,36
14:11:59.021062,9728
14:11:59.021062,0
14:11:59.021062,38
14:11:59.021062,9728
14:11:59.021062,0
14:11:59.021062,38
14:11:59.021062,9728
14:11:59.021062,0
14:11:59.021062,33
14:11:59.021062,2304
14:11:59.021062,0
14:11:59.021062,-12
14:11:59.021062,255
14:11:59.021062,0
14:11:59.021062,28
14:11:59.021062,13312
14:11:59.021062,0
14:11:59.021062,72
14:11:59.021062,18944
14:11:59.021062,0
14:11:59.021062,50
14:11:59.021062,9216
14:11:59.021062,0
14:11:59.021062,50
14:11:59.021062,15360
14:11:59.021062,0
14:11:59.021062,48
14:11:59.021062,3072
14:11:59.021062,0
14:11:59.021062,-45
14:11:59.610651,127
14:11:59.610651,24064
14:11:59.610651,3
14:11:59.610651,1481
14:11:59.610651,-29184
14:11:59.610651,3
14:11:59.610651,-62
14:11:59.610651,32511
14:11:59.610651,-1
14:11:59.610651,93
14:11:59.610651,-12800
14:11:59.610651,-1
14:11:59.610651,-103
14:11:59.610651,-1537
14:11:59.610651,-1
14:11:59.610651,-28
14:11:59.610651,-13825
14:11:59.610651,-1
14:11:59.610651,-16
14:11:59.610651,-2817
14:11:59.610651,-1
14:11:59.610651,-24
14:11:59.610651,-3329
14:11:59.610651,-1
14:11:59.610651,-4
14:11:59.610651,-1537
14:11:59.610651,-1
14:11:59.610651,-2
14:11:59.610651,1279
14:11:59.610651,0
14:11:59.610651,4
14:11:59.610651,1792
14:11:59.610651,0
14:11:59.610651,9
14:11:59.610651,2304
14:11:59.610651,0
14:11:59.610651,9
14:11:59.610651,1024
14:11:59.610651,0
14:11:59.610651,-4
14:11:59.610651,-3329
14:11:59.610651,-1
14:11:59.610651,-24
14:11:59.610651,-5889
14:11:59.610651,-1
14:11:59.610651,-19
14:11:59.610651,-3329
14:11:59.610651,-1
14:11:59.610651,-4
14:11:59.610651,-257
14:11:59.610651,-1
14:11:59.610651,-4
14:11:59.610651,-257
14:11:59.610651,-1
14:11:59.610651,-2
14:11:59.610651,-769
14:11:59.610651,-1
14:11:59.610651,-9
14:11:59.610651,-2817
14:11:59.610651,-1
14:11:59.610651,-9
14:11:59.610651,-2817
14:11:59.610651,-1
14:11:59.610651,-9
14:11:59.610651,-1537
14:11:59.610651,-1
14:11:59.610651,-7
14:11:59.610651,-1537
14:11:59.610651,-1
14:11:59.610651,-4
14:11:59.610651,255
14:11:59.610651,0
14:11:59.610651,7
14:11:59.610651,3072
14:11:59.610651,0
14:11:59.610651,14
14:11:59.610651,3584
14:11:59.610651,0
14:11:59.610651,14
14:11:59.610651,4864
14:11:59.610651,0
14:11:59.610651,21
14:11:59.610651,5376
14:11:59.610651,0
14:11:59.610651,21
14:11:59.610651,4864
14:11:59.610651,0
14:11:59.610651,21
14:11:59.610651,6144
14:11:59.610651,0
14:11:59.610651,24
14:11:59.610651,6144
14:11:59.610651,0
14:11:59.610651,24
14:11:59.610651,6656
14:11:59.610651,0
14:11:59.610651,24
14:11:59.610651,6144
14:11:59.610651,0
14:11:59.610651,28
14:11:59.610651,6656
14:11:59.610651,0
14:11:59.610651,16
14:11:59.610651,-512
14:11:59.610651,-1
14:11:59.610651,-21
14:11:59.610651,-257
14:11:59.610651,-1
14:11:59.610651,31
14:12:00.150221,50
14:12:00.150221,17664
14:12:00.150221,0
14:12:00.150221,65
14:12:00.150221,9728
14:12:00.150221,0
14:12:00.150221,33
14:12:00.150221,12800
14:12:00.150221,0
14:12:00.150221,52
14:12:00.150221,9216
14:12:00.150221,0
14:12:00.150221,-7
14:12:00.150221,-11265
14:12:00.150221,-1
14:12:00.150221,255
14:12:00.150221,11008
14:12:00.150221,4
14:12:00.150221,1435
14:12:00.150221,28416
14:12:00.150221,2
14:12:00.150221,-156
14:12:00.150221,-8961
14:12:00.150221,-1
14:12:00.150221,84
14:12:00.150221,-25088
14:12:00.150221,-1
14:12:00.150221,-93
14:12:00.150221,-2817
14:12:00.150221,-1
14:12:00.150221,-55
14:12:00.150221,-16897
14:12:00.150221,-1
14:12:00.150221,-26
14:12:00.150221,-6913
14:12:00.150221,-1
14:12:00.150221,-36
14:12:00.150221,-5889
14:12:00.150221,-1
14:12:00.150221,-21
14:12:00.150221,-5889
14:12:00.150221,-1
14:12:00.150221,-19
14:12:00.150221,-2049
14:12:00.150221,-1
14:12:00.150221,-4
14:12:00.150221,-769
14:12:00.150221,-1
14:12:00.150221,-4
14:12:00.150221,-1537
14:12:00.150221,-1
14:12:00.150221,-4
14:12:00.150221,-1537
14:12:00.150221,-1
14:12:00.150221,-19
14:12:00.150221,-7681
14:12:00.150221,-1
14:12:00.150221,-33
14:12:00.150221,-6913
14:12:00.150221,-1
14:12:00.150221,-26
14:12:00.150221,-5889
14:12:00.150221,-1
14:12:00.150221,-21
14:12:00.150221,-6401
14:12:00.150221,-1
14:12:00.150221,-31
14:12:00.150221,-8193
14:12:00.150221,-1
14:12:00.150221,-38
14:12:00.150221,-10753
14:12:00.150221,-1
14:12:00.150221,-43
14:12:00.150221,-10753
14:12:00.150221,-1
14:12:00.150221,-43
14:12:00.150221,-12545
14:12:00.150221,-1
14:12:00.150221,-55
14:12:00.150221,-12033
14:12:00.150221,-1
14:12:00.150221,-48
14:12:00.150221,-12033
14:12:00.150221,-1
14:12:00.150221,-43
14:12:00.150221,-11265
14:12:00.150221,-1
14:12:00.150221,-43
14:12:00.150221,-9473
14:12:00.150221,-1
14:12:00.150221,-31
14:12:00.150221,-6913
14:12:00.150221,-1
14:12:00.150221,-33
14:12:00.150221,-6913
14:12:00.150221,-1
14:12:00.150221,-19
14:12:00.150221,-3841
14:12:00.150221,-1
14:12:00.150221,-14
14:12:00.150221,-2049
14:12:00.150221,-1
14:12:00.150221,-2
14:12:00.150221,-257
14:12:00.150221,-1
14:12:00.150221,-9
14:12:00.150221,-2049
14:12:00.150221,-1
14:12:00.150221,-9
14:12:00.689911,-9
14:12:00.689911,-2049
14:12:00.689911,-1
14:12:00.689911,-12
14:12:00.689911,-2817
14:12:00.689911,-1
14:12:00.689911,-12
14:12:00.689911,-3841
14:12:00.689911,-1
14:12:00.689911,-14
14:12:00.689911,-769
14:12:00.689911,-1
14:12:00.689911,0
14:12:00.689911,-4096
14:12:00.689911,-1
14:12:00.689911,-45
14:12:00.689911,-9473
14:12:00.689911,-1
14:12:00.689911,-16
14:12:00.689911,767
14:12:00.689911,0
14:12:00.689911,33
14:12:00.689911,9216
14:12:00.689911,0
14:12:00.689911,-4
14:12:00.689911,-5121
14:12:00.689911,-1
14:12:00.689911,0
14:12:00.689911,1792
14:12:00.689911,0
14:12:00.689911,-7
14:12:00.689911,-9473
14:12:00.689911,-1
14:12:00.689911,-101
14:12:00.689911,16127
14:12:00.689911,0
14:12:00.689911,780
14:12:00.689911,12544
14:12:00.689911,5
14:12:00.689911,710
14:12:00.689911,28160
14:12:00.689911,-1
14:12:00.689911,-110
14:12:00.689911,13055
14:12:00.689911,0
14:12:00.689911,-137
14:12:00.689911,25343
14:12:00.689911,-1
14:12:00.689911,-60
14:12:00.689911,-24321
14:12:00.689911,-1
14:12:00.689911,-118
14:12:00.689911,-19457
14:12:00.689911,-1
14:12:00.689911,-72
14:12:00.689911,-21761
14:12:00.689911,-1
14:12:00.689911,-79
14:12:00.689911,-18689
14:12:00.689911,-1
14:12:00.689911,-69
14:12:00.689911,-16897
14:12:00.689911,-1
14:12:00.689911,-62
14:12:00.689911,-13057
14:12:00.689911,-1
14:12:00.689911,-45
14:12:00.689911,-9473
14:12:00.689911,-1
14:12:00.689911,-31
14:12:00.689911,-6401
14:12:00.689911,-1
14:12:00.689911,-26
14:12:00.689911,-8193
14:12:00.689911,-1
14:12:00.689911,-36
14:12:00.689911,-8193
14:12:00.689911,-1
14:12:00.689911,-28
14:12:00.689911,-6401
14:12:00.689911,-1
14:12:00.689911,-26
14:12:00.689911,-7681
14:12:00.689911,-1
14:12:00.689911,-45
14:12:00.689911,-13825
14:12:00.689911,-1
14:12:00.689911,-60
14:12:00.689911,-17409
14:12:00.689911,-1
14:12:00.689911,-74
14:12:00.689911,-18689
14:12:00.689911,-1
14:12:00.689911,-77
14:12:00.689911,-19457
14:12:00.689911,-1
14:12:00.689911,-69
14:12:00.689911,-16897
14:12:00.689911,-1
14:12:00.689911,-67
14:12:00.689911,-16385
14:12:00.689911,-1
14:12:00.689911,-60
14:12:00.689911,-14337
14:12:00.689911,-1
14:12:00.689911,-55
14:12:00.689911,-12545
14:12:00.689911,-1
14:12:00.689911,-48
14:12:01.272063,-43
14:12:01.272063,-9473
14:12:01.272063,-1
14:12:01.272063,-36
14:12:01.272063,-8193
14:12:01.272063,-1
14:12:01.272063,-28
14:12:01.272063,-3329
14:12:01.272063,-1
14:12:01.272063,-4
14:12:01.272063,-1537
14:12:01.272063,-1
14:12:01.272063,-4
14:12:01.272063,767
14:12:01.272063,0
14:12:01.272063,4
14:12:01.272063,2304
14:12:01.272063,0
14:12:01.272063,12
14:12:01.272063,3072
14:12:01.272063,0
14:12:01.272063,14
14:12:01.272063,2304
14:12:01.272063,0
14:12:01.272063,-7
14:12:01.272063,-6401
14:12:01.272063,-1
14:12:01.272063,-24
14:12:01.272063,255
14:12:01.272063,0
14:12:01.272063,24
14:12:01.272063,13312
14:12:01.272063,0
14:12:01.272063,60
14:12:01.272063,9216
14:12:01.272063,0
14:12:01.272063,24
14:12:01.272063,9728
14:12:01.272063,0
14:12:01.272063,48
14:12:01.272063,10240
14:12:01.272063,0
14:12:01.272063,12
14:12:01.272063,-12800
14:12:01.272063,-1
14:12:01.272063,52
14:12:01.272063,-13568
14:12:01.272063,2
14:12:01.272063,1454
14:12:01.272063,7936
14:12:01.272063,4
14:12:01.272063,24
14:12:01.272063,21248
14:12:01.272063,-1
14:12:01.272063,62
14:12:01.272063,-15872
14:12:01.272063,-1
14:12:01.272063,-158
14:12:01.272063,-15105
14:12:01.272063,-1
14:12:01.272063,-57
14:12:01.272063,-24833
14:12:01.272063,-1
14:12:01.272063,-69
14:12:01.272063,-14337
14:12:01.272063,-1
14:12:01.272063,-69
14:12:01.272063,-14337
14:12:01.272063,-1
14:12:01.272063,-48
14:12:01.272063,-12545
14:12:01.272063,-1
14:12:01.272063,-45
14:12:01.272063,-9473
14:12:01.272063,-1
14:12:01.272063,-36
14:12:01.272063,-9473
14:12:01.272063,-1
14:12:01.272063,-38
14:12:01.272063,-9985
14:12:01.272063,-1
14:12:01.272063,-45
14:12:01.272063,-12033
14:12:01.272063,-1
14:12:01.272063,-52
14:12:01.272063,-14337
14:12:01.272063,-1
14:12:01.272063,-55
14:12:01.272063,-13825
14:12:01.272063,-1
14:12:01.272063,-55
14:12:01.272063,-11265
14:12:01.272063,-1
14:12:01.272063,-38
14:12:01.272063,-8193
14:12:01.272063,-1
14:12:01.272063,-31
14:12:01.272063,-7681
14:12:01.272063,-1
14:12:01.272063,-38
14:12:01.272063,-9985
14:12:01.272063,-1
14:12:01.272063,-38
14:12:01.272063,-8961
14:12:01.272063,-1
14:12:01.272063,-38
14:12:01.272063,-9473
14:12:01.272063,-1
14:12:01.272063,-38
14:12:01.860822,-36
14:12:01.860822,-8193
14:12:01.860822,-1
14:12:01.860822,-36
14:12:01.860822,-8193
14:12:01.860822,-1
14:12:01.860822,-28
14:12:01.860822,-6401
14:12:01.860822,-1
14:12:01.860822,-21
14:12:01.860822,-2049
14:12:01.860822,-1
14:12:01.860822,9
14:12:01.860822,4864
14:12:01.860822,0
14:12:01.860822,12
14:12:01.860822,3584
14:12:01.860822,0
14:12:01.860822,16
14:12:01.860822,4864
14:12:01.860822,0
14:12:01.860822,24
14:12:01.860822,7168
14:12:01.860822,0
14:12:01.860822,28
14:12:01.860822,7936
14:12:01.860822,0
14:12:01.860822,31
14:12:01.860822,8448
14:12:01.860822,0
14:12:01.860822,26
14:12:01.860822,1792
14:12:01.860822,0
14:12:01.860822,-12
14:12:01.860822,-257
14:12:01.860822,-1
14:12:01.860822,28
14:12:01.860822,14592
14:12:01.860822,0
14:12:01.860822,77
14:12:01.860822,19712
14:12:01.860822,0
14:12:01.860822,55
14:12:01.860822,12800
14:12:01.860822,0
14:12:01.860822,67
14:12:01.860822,17664
14:12:01.860822,0
14:12:01.860822,62
14:12:01.860822,7936
14:12:01.860822,0
14:12:01.860822,-24
14:12:01.860822,-24065
14:12:01.860822,0
14:12:01.860822,900
14:12:01.860822,-11008
14:12:01.860822,5
14:12:01.860822,888
14:12:01.860822,-17152
14:12:01.860822,-1
14:12:01.860822,-118
14:12:01.860822,22271
14:12:01.860822,0
14:12:01.860822,-65
14:12:01.860822,-29953
14:12:01.860822,-1
14:12:01.860822,-26
14:12:01.860822,-10753
14:12:01.860822,-1
14:12:01.860822,-77
14:12:01.860822,-10753
14:12:01.860822,-1
14:12:01.860822,-31
14:12:01.860822,-10753
14:12:01.860822,-1
14:12:01.860822,-31
14:12:01.860822,-5889
14:12:01.860822,-1
14:12:01.860822,-26
14:12:01.860822,-6401
14:12:01.860822,-1
14:12:01.860822,-24
14:12:01.860822,-5889
14:12:01.860822,-1
14:12:01.860822,-24
14:12:01.860822,-6913
14:12:01.860822,-1
14:12:01.860822,-33
14:12:01.860822,-9985
14:12:01.860822,-1
14:12:01.860822,-45
14:12:01.860822,-13057
14:12:01.860822,-1
14:12:01.860822,-60
14:12:01.860822,-16385
14:12:01.860822,-1
14:12:01.860822,-62
14:12:01.860822,-12033
14:12:01.860822,-1
14:12:01.860822,-28
14:12:01.860822,-4609
14:12:01.860822,-1
14:12:01.860822,-12
14:12:01.860822,-2817
14:12:01.860822,-1
14:12:01.860822,-14
14:12:01.860822,-2817
14:12:01.860822,-1
14:12:01.860822,-14
14:12:02.400871,-12
14:12:02.400871,-3329
14:12:02.400871,-1
14:12:02.400871,-16
14:12:02.400871,-4609
14:12:02.400871,-1
14:12:02.400871,-21
14:12:02.400871,-5121
14:12:02.400871,-1
14:12:02.400871,-19
14:12:02.400871,-4609
14:12:02.400871,-1
14:12:02.400871,-16
14:12:02.400871,-3329
14:12:02.400871,-1
14:12:02.400871,-9
14:12:02.400871,1279
14:12:02.400871,0
14:12:02.400871,21
14:12:02.400871,5376
14:12:02.400871,0
14:12:02.400871,14
14:12:02.400871,4096
14:12:02.400871,0
14:12:02.400871,21
14:12:02.400871,4864
14:12:02.400871,0
14:12:02.400871,21
14:12:02.400871,6144
14:12:02.400871,0
14:12:02.400871,21
14:12:02.400871,4864
14:12:02.400871,0
14:12:02.400871,21
14:12:02.400871,6144
14:12:02.400871,0
14:12:02.400871,26
14:12:02.400871,6144
14:12:02.400871,0
14:12:02.400871,24
14:12:02.400871,6144
14:12:02.400871,0
14:12:02.400871,16
14:12:02.400871,512
14:12:02.400871,0
14:12:02.400871,-14
14:12:02.400871,-2817
14:12:02.400871,-1
14:12:02.400871,12
14:12:02.400871,9728
14:12:02.400871,0
14:12:02.400871,69
14:12:02.400871,19712
14:12:02.400871,0
14:12:02.400871,48
14:12:02.400871,9728
14:12:02.400871,0
14:12:02.400871,57
14:12:02.400871,15872
14:12:02.400871,0
14:12:02.400871,52
14:12:02.400871,7168
14:12:02.400871,0
14:12:02.400871,-26
14:12:02.400871,24063
14:12:02.400871,0
14:12:02.400871,746
14:12:02.400871,-32512
14:12:02.400871,5
14:12:02.400871,956
14:12:02.400871,-3584
14:12:02.400871,-1
14:12:02.400871,-144
14:12:02.400871,23039
14:12:02.400871,0
14:12:02.400871,-45
14:12:02.400871,-30977
14:12:02.400871,-1
14:12:02.400871,-21
14:12:02.400871,-7681
14:12:02.400871,-1
14:12:02.400871,-69
14:12:02.400871,-8193
14:12:02.400871,-1
14:12:02.400871,-21
14:12:02.400871,-7681
14:12:02.400871,-1
14:12:02.400871,-14
14:12:02.400871,-769
14:12:02.400871,-1
14:12:02.400871,-7
14:12:02.400871,-257
14:12:02.400871,-1
14:12:02.400871,4
14:12:02.400871,2304
14:12:02.400871,0
14:12:02.400871,12
14:12:02.400871,3584
14:12:02.400871,0
14:12:02.400871,16
14:12:02.400871,3584
14:12:02.400871,0
14:12:02.400871,9
14:12:02.400871,1024
14:12:02.400871,0
14:12:02.400871,2
14:12:02.400871,1024
14:12:02.400871,0
14:12:02.400871,9
14:12:02.936191,21
14:12:02.936191,6656
14:12:02.936191,0
14:12:02.936191,19
14:12:02.936191,2304
14:12:02.936191,0
14:12:02.936191,0
14:12:02.936191,-1024
14:12:02.936191,-1
14:12:02.936191,-7
14:12:02.936191,-2049
14:12:02.936191,-1
14:12:02.936191,-2
14:12:02.936191,2559
14:12:02.936191,0
14:12:02.936191,9
14:12:02.936191,1024
14:12:02.936191,0
14:12:02.936191,4
14:12:02.936191,1024
14:12:02.936191,0
14:12:02.936191,2
14:12:02.936191,512
14:12:02.936191,0
14:12:02.936191,4
14:12:02.936191,1024
14:12:02.936191,0
14:12:02.936191,7
14:12:02.936191,2304
14:12:02.936191,0
14:12:02.936191,12
14:12:02.936191,4096
14:12:02.936191,0
14:12:02.936191,19
14:12:02.936191,5376
14:12:02.936191,0
14:12:02.936191,21
14:12:02.936191,4864
14:12:02.936191,0
14:12:02.936191,21
14:12:02.936191,6144
14:12:02.936191,0
14:12:02.936191,26
14:12:02.936191,6656
14:12:02.936191,0
14:12:02.936191,26
14:12:02.936191,7168
14:12:02.936191,0
14:12:02.936191,28
14:12:02.936191,6656
14:12:02.936191,0
14:12:02.936191,28
14:12:02.936191,7168
14:12:02.936191,0
14:12:02.936191,26
14:12:02.936191,4096
14:12:02.936191,0
14:12:02.936191,-4
14:12:02.936191,-3841
14:12:02.936191,-1
14:12:02.936191,0
14:12:02.936191,6656
14:12:02.936191,0
14:12:02.936191,52
14:12:02.936191,18432
14:12:02.936191,0
14:12:02.936191,55
14:12:02.936191,7168
14:12:02.936191,0
14:12:02.936191,33
14:12:02.936191,14080
14:12:02.936191,0
14:12:02.936191,55
14:12:02.936191,10240
14:12:02.936191,0
14:12:02.936191,-2
14:12:02.936191,-12033
14:12:02.936191,-1
14:12:02.936191,243
14:12:02.936191,-5120
14:12:02.936191,3
14:12:02.936191,1271
14:12:02.936191,-14592
14:12:02.936191,1
14:12:02.936191,-173
14:12:02.936191,3839
14:12:02.936191,0
14:12:02.936191,72
14:12:02.936191,-28928
14:12:02.936191,-1
14:12:02.936191,-69
14:12:02.936191,255
14:12:02.936191,0
14:12:02.936191,-50
14:12:02.936191,-13057
14:12:02.936191,-1
14:12:02.936191,-16
14:12:02.936191,-5121
14:12:02.936191,-1
14:12:02.936191,-26
14:12:02.936191,-2049
14:12:02.936191,-1
14:12:02.936191,-4
14:12:02.936191,-1537
14:12:02.936191,-1
14:12:02.936191,-2
14:12:02.936191,767
14:12:02.936191,0
14:12:02.936191,4
14:12:03.522232,9
14:12:03.522232,3584
14:12:03.522232,0
14:12:03.522232,12
14:12:03.522232,3072
14:12:03.522232,0
14:12:03.522232,9
14:12:03.522232,3584
14:12:03.522232,0
14:12:03.522232,28
14:12:03.522232,9728
14:12:03.522232,0
14:12:03.522232,38
14:12:03.522232,9216
14:12:03.522232,0
14:12:03.522232,28
14:12:03.522232,1024
14:12:03.522232,0
14:12:03.522232,-19
14:12:03.522232,-5889
14:12:03.522232,-1
14:12:03.522232,-28
14:12:03.522232,-9985
14:12:03.522232,-1
14:12:03.522232,-45
14:12:03.522232,-11265
14:12:03.522232,-1
14:12:03.522232,-45
14:12:03.522232,-11265
14:12:03.522232,-1
14:12:03.522232,-40
14:12:03.522232,-9985
14:12:03.522232,-1
14:12:03.522232,-48
14:12:03.522232,-13057
14:12:03.522232,-1
14:12:03.522232,-45
14:12:03.522232,-12033
14:12:03.522232,-1
14:12:03.522232,-50
14:12:03.522232,-11265
14:12:03.522232,-1
14:12:03.522232,-48
14:12:03.522232,-11265
14:12:03.522232,-1
14:12:03.522232,-38
14:12:03.522232,-9985
14:12:03.522232,-1
14:12:03.522232,-45
14:12:03.522232,-10753
14:12:03.522232,-1
14:12:03.522232,-40
14:12:03.522232,-9985
14:12:03.522232,-1
14:12:03.522232,-38
14:12:03.522232,-9985
14:12:03.522232,-1
14:12:03.522232,-48
14:12:03.522232,-10753
14:12:03.522232,-1
14:12:03.522232,-38
14:12:03.522232,-10753
14:12:03.522232,-1
14:12:03.522232,-48
14:12:03.522232,-13825
14:12:03.522232,-1
14:12:03.522232,-72
14:12:03.522232,-21249
14:12:03.522232,-1
14:12:03.522232,-74
14:12:03.522232,-13825
14:12:03.522232,-1
14:12:03.522232,-31
14:12:03.522232,-257
14:12:03.522232,-1
14:12:03.522232,-4
14:12:03.522232,-9985
14:12:03.522232,-1
14:12:03.522232,-40
14:12:03.522232,-3329
14:12:03.522232,-1
14:12:03.522232,-9
14:12:03.522232,-5121
14:12:03.522232,-1
14:12:03.522232,-55
14:12:03.522232,-32257
14:12:03.522232,-1
14:12:03.522232,-9
14:12:03.522232,30719
14:12:03.522232,2
14:12:03.522232,1209
14:12:03.522232,-17920
14:12:03.522232,2
14:12:03.522232,-142
14:12:03.522232,-32257
14:12:03.522232,-1
14:12:03.522232,50
14:12:03.522232,31232
14:12:03.522232,-1
14:12:03.522232,-168
14:12:03.522232,-15617
14:12:03.522232,-1
14:12:03.522232,-91
14:12:03.522232,-31745
14:12:03.522232,-1
14:12:03.522232,-81
14:12:03.522232,-16897
14:12:03.522232,-1
14:12:03.522232,-89
14:12:04.112003,-79
14:12:04.112003,-15617
14:12:04.112003,-1
14:12:04.112003,-69
14:12:04.112003,-16897
14:12:04.112003,-1
14:12:04.112003,-48
14:12:04.112003,-10753
14:12:04.112003,-1
14:12:04.112003,-40
14:12:04.112003,-6913
14:12:04.112003,-1
14:12:04.112003,-14
14:12:04.112003,255
14:12:04.112003,0
14:12:04.112003,12
14:12:04.112003,1024
14:12:04.112003,0
14:12:04.112003,0
14:12:04.112003,4096
14:12:04.112003,0
14:12:04.112003,24
14:12:04.112003,4096
14:12:04.112003,0
14:12:04.112003,4
14:12:04.112003,-6144
14:12:04.112003,-1
14:12:04.112003,-50
14:12:04.112003,-16897
14:12:04.112003,-1
14:12:04.112003,-77
14:12:04.112003,-21249
14:12:04.112003,-1
14:12:04.112003,-89
14:12:04.112003,-22529
14:12:04.112003,-1
14:12:04.112003,-86
14:12:04.112003,-21761
14:12:04.112003,-1
14:12:04.112003,-81
14:12:04.112003,-19457
14:12:04.112003,-1
14:12:04.112003,-77
14:12:04.112003,-18177
14:12:04.112003,-1
14:12:04.112003,-69
14:12:04.112003,-16897
14:12:04.112003,-1
14:12:04.112003,-62
14:12:04.112003,-15105
14:12:04.112003,-1
14:12:04.112003,-57
14:12:04.112003,-14337
14:12:04.112003,-1
14:12:04.112003,-52
14:12:04.112003,-12033
14:12:04.112003,-1
14:12:04.112003,-48
14:12:04.112003,-12033
14:12:04.112003,-1
14:12:04.112003,-48
14:12:04.112003,-11265
14:12:04.112003,-1
14:12:04.112003,-43
14:12:04.112003,-10753
14:12:04.112003,-1
14:12:04.112003,-40
14:12:04.112003,-12545
14:12:04.112003,-1
14:12:04.112003,-69
14:12:04.112003,-18177
14:12:04.112003,-1
14:12:04.112003,-57
14:12:04.112003,-8193
14:12:04.112003,-1
14:12:04.112003,0
14:12:04.112003,5376
14:12:04.112003,0
14:12:04.112003,12
14:12:04.112003,-1792
14:12:04.112003,-1
14:12:04.112003,2
14:12:04.112003,5376
14:12:04.112003,0
14:12:04.112003,19
14:12:04.112003,3072
14:12:04.112003,0
14:12:04.112003,-21
14:12:04.112003,-20481
14:12:04.112003,-1
14:12:04.112003,118
14:12:04.112003,30208
14:12:04.112003,3
14:12:04.112003,1438
14:12:04.112003,-512
14:12:04.112003,2
14:12:04.112003,-134
14:12:04.112003,-25601
14:12:04.112003,-1
14:12:04.112003,69
14:12:04.112003,-28928
14:12:04.112003,-1
14:12:04.112003,-130
14:12:04.112003,-7681
14:12:04.112003,-1
14:12:04.112003,-65
14:12:04.112003,-22529
14:12:04.112003,-1
14:12:04.112003,-50
14:12:04.646037,-43
14:12:04.646037,-13057
14:12:04.646037,-1
14:12:04.646037,-40
14:12:04.646037,-8193
14:12:04.646037,-1
14:12:04.646037,-38
14:12:04.646037,-7681
14:12:04.646037,-1
14:12:04.646037,-24
14:12:04.646037,-6401
14:12:04.646037,-1
14:12:04.646037,-26
14:12:04.646037,-6913
14:12:04.646037,-1
14:12:04.646037,-28
14:12:04.646037,-6401
14:12:04.646037,-1
14:12:04.646037,-16
14:12:04.646037,-2817
14:12:04.646037,-1
14:12:04.646037,-19
14:12:04.646037,-5121
14:12:04.646037,-1
14:12:04.646037,-12
14:12:04.646037,-2049
14:12:04.646037,-1
14:12:04.646037,-7
14:12:04.646037,-2049
14:12:04.646037,-1
14:12:04.646037,-14
14:12:04.646037,-5121
14:12:04.646037,-1
14:12:04.646037,-26
14:12:04.646037,-6913
14:12:04.646037,-1
14:12:04.646037,-31
14:12:04.646037,-8193
14:12:04.646037,-1
14:12:04.646037,-33
14:12:04.646037,-6913
14:12:04.646037,-1
14:12:04.646037,-28
14:12:04.646037,-6913
14:12:04.646037,-1
14:12:04.646037,-26
14:12:04.646037,-5889
14:12:04.646037,-1
14:12:04.646037,-24
14:12:04.646037,-5121
14:12:04.646037,-1
14:12:04.646037,-16
14:12:04.646037,-3841
14:12:04.646037,-1
14:12:04.646037,-12
14:12:04.646037,-2049
14:12:04.646037,-1
14:12:04.646037,-7
14:12:04.646037,-769
14:12:04.646037,-1
14:12:04.646037,-4
14:12:04.646037,-257
14:12:04.646037,-1
14:12:04.646037,2
14:12:04.646037,0
14:12:04.646037,0
14:12:04.646037,-2
14:12:04.646037,-3841
14:12:04.646037,-1
14:12:04.646037,-38
14:12:04.646037,-9985
14:12:04.646037,-1
14:12:04.646037,-19
14:12:04.646037,2047
14:12:04.646037,0
14:12:04.646037,31
14:12:04.646037,10240
14:12:04.646037,0
14:12:04.646037,31
14:12:04.646037,4864
14:12:04.646037,0
14:12:04.646037,24
14:12:04.646037,9728
14:12:04.646037,0
14:12:04.646037,36
14:12:04.646037,7168
14:12:04.646037,0
14:12:04.646037,-2
14:12:04.646037,-10753
14:12:04.646037,-1
14:12:04.646037,228
14:12:04.646037,-768
14:12:04.646037,3
14:12:04.646037,1435
14:12:04.646037,-27648
14:12:04.646037,2
14:12:04.646037,-161
14:12:04.646037,-19457
14:12:04.646037,-1
14:12:04.646037,60
14:12:04.646037,-30208
14:12:04.646037,-1
14:12:04.646037,-118
14:12:04.646037,-8961
14:12:04.646037,-1
14:12:04.646037,-72
14:12:04.646037,-20481
14:12:04.646037,-1
14:12:04.646037,-38
14:12:05.232735,-38
14:12:05.232735,-11265
14:12:05.232735,-1
14:12:05.232735,-28
14:12:05.232735,-4609
14:12:05.232735,-1
14:12:05.232735,-24
14:12:05.232735,-5121
14:12:05.232735,-1
14:12:05.232735,-19
14:12:05.232735,-4609
14:12:05.232735,-1
14:12:05.232735,-21
14:12:05.232735,-3841
14:12:05.232735,-1
14:12:05.232735,-4
14:12:05.232735,-2817
14:12:05.232735,-1
14:12:05.232735,-31
14:12:05.232735,-8961
14:12:05.232735,-1
14:12:05.232735,-38
14:12:05.232735,-9473
14:12:05.232735,-1
14:12:05.232735,-31
14:12:05.232735,-3329
14:12:05.232735,-1
14:12:05.232735,2
14:12:05.232735,2304
14:12:05.232735,0
14:12:05.232735,14
14:12:05.232735,4096
14:12:05.232735,0
14:12:05.232735,12
14:12:05.232735,1024
14:12:05.232735,0
14:12:05.232735,4
14:12:05.232735,512
14:12:05.232735,0
14:12:05.232735,4
14:12:05.232735,1024
14:12:05.232735,0
14:12:05.232735,0
14:12:05.232735,0
14:12:05.232735,0
14:12:05.232735,0
14:12:05.232735,0
14:12:05.232735,0
14:12:05.232735,2
14:12:05.232735,512
14:12:05.232735,0
14:12:05.232735,4
14:12:05.232735,1024
14:12:05.232735,0
14:12:05.232735,4
14:12:05.232735,1792
14:12:05.232735,0
14:12:05.232735,9
14:12:05.232735,3072
14:12:05.232735,0
14:12:05.232735,9
14:12:05.232735,2304
14:12:05.232735,0
14:12:05.232735,12
14:12:05.232735,3072
14:12:05.232735,0
14:12:05.232735,12
14:12:05.232735,0
14:12:05.232735,0
14:12:05.232735,-24
14:12:05.232735,-8961
14:12:05.232735,-1
14:12:05.232735,-16
14:12:05.232735,3327
14:12:05.232735,0
14:12:05.232735,38
14:12:05.232735,13312
14:12:05.232735,0
14:12:05.232735,40
14:12:05.232735,4864
14:12:05.232735,0
14:12:05.232735,24
14:12:05.232735,10240
14:12:05.232735,0
14:12:05.232735,36
14:12:05.232735,6656
14:12:05.232735,0
14:12:05.232735,-7
14:12:05.232735,-12545
14:12:05.232735,-1
14:12:05.232735,207
14:12:05.232735,-11264
14:12:05.232735,3
14:12:05.232735,1392
14:12:05.232735,29184
14:12:05.232735,2
14:12:05.232735,-168
14:12:05.232735,-15105
14:12:05.232735,-1
14:12:05.232735,65
14:12:05.232735,-30720
14:12:05.232735,-1
14:12:05.232735,-113
14:12:05.232735,-7681
14:12:05.232735,-1
14:12:05.232735,-72
14:12:05.232735,-21249
14:12:05.232735,-1
14:12:05.232735,-48
14:12:05.773115,-50
14:12:05.773115,-13825
14:12:05.773115,-1
14:12:05.773115,-36
14:12:05.773115,-8193
14:12:05.773115,-1
14:12:05.773115,-38
14:12:05.773115,-7681
14:12:05.773115,-1
14:12:05.773115,-26
14:12:05.773115,-5889
14:12:05.773115,-1
14:12:05.773115,-26
14:12:05.773115,-6913
14:12:05.773115,-1
14:12:05.773115,-26
14:12:05.773115,-7681
14:12:05.773115,-1
14:12:05.773115,-31
14:12:05.773115,-4609
14:12:05.773115,-1
14:12:05.773115,-19
14:12:05.773115,-3841
14:12:05.773115,-1
14:12:05.773115,-2
14:12:05.773115,767
14:12:05.773115,0
14:12:05.773115,2
14:12:05.773115,512
14:12:05.773115,0
14:12:05.773115,-4
14:12:05.773115,-3841
14:12:05.773115,-1
14:12:05.773115,-21
14:12:05.773115,-3841
14:12:05.773115,-1
14:12:05.773115,-16
14:12:05.773115,-4609
14:12:05.773115,-1
14:12:05.773115,-21
14:12:05.773115,-6401
14:12:05.773115,-1
14:12:05.773115,-26
14:12:05.773115,-4609
14:12:05.773115,-1
14:12:05.773115,-16
14:12:05.773115,-5121
14:12:05.773115,-1
14:12:05.773115,-24
14:12:05.773115,-5121
14:12:05.773115,-1
14:12:05.773115,-19
14:12:05.773115,-3329
14:12:05.773115,-1
14:12:05.773115,-12
14:12:05.773115,-2049
14:12:05.773115,-1
14:12:05.773115,-9
14:12:05.773115,-2049
14:12:05.773115,-1
14:12:05.773115,-7
14:12:05.773115,-769
14:12:05.773115,-1
14:12:05.773115,0
14:12:05.773115,0
14:12:05.773115,0
14:12:05.773115,2
14:12:05.773115,0
14:12:05.773115,0
14:12:05.773115,-7
14:12:05.773115,-5889
14:12:05.773115,-1
14:12:05.773115,-43
14:12:05.773115,-8961
14:12:05.773115,-1
14:12:05.773115,-14
14:12:05.773115,3327
14:12:05.773115,0
14:12:05.773115,38
14:12:05.773115,9728
14:12:05.773115,0
14:12:05.773115,14
14:12:05.773115,2304
14:12:05.773115,0
14:12:05.773115,26
14:12:05.773115,8448
14:12:05.773115,0
14:12:05.773115,31
14:12:05.773115,3584
14:12:05.773115,0
14:12:05.773115,-33
14:12:05.773115,12543
14:12:05.773115,0
14:12:05.773115,638
14:12:05.773115,11264
14:12:05.773115,5
14:12:05.773115,961
14:12:05.773115,-1024
14:12:05.773115,-1
14:12:05.773115,-168
14:12:05.773115,19199
14:12:05.773115,0
14:12:05.773115,-55
14:12:05.773115,28415
14:12:05.773115,-1
14:12:05.773115,-45
14:12:05.773115,-12033
14:12:05.773115,-1
14:12:05.773115,-86
14:12:06.316840,-50
14:12:06.316840,-7681
14:12:06.316840,-1
14:12:06.316840,-40
14:12:06.316840,-6913
14:12:06.316840,-1
14:12:06.316840,-16
14:12:06.316840,-4609
14:12:06.316840,-1
14:12:06.316840,-14
14:12:06.316840,-1537
14:12:06.316840,-1
14:12:06.316840,-7
14:12:06.316840,-257
14:12:06.316840,-1
14:12:06.316840,14
14:12:06.316840,5376
14:12:06.316840,0
14:12:06.316840,14
14:12:06.316840,3072
14:12:06.316840,0
14:12:06.316840,9
14:12:06.316840,3072
14:12:06.316840,0
14:12:06.316840,21
14:12:06.316840,7168
14:12:06.316840,0
14:12:06.316840,36
14:12:06.316840,7936
14:12:06.316840,0
14:12:06.316840,14
14:12:06.316840,1024
14:12:06.316840,0
14:12:06.316840,-2
14:12:06.316840,-2049
14:12:06.316840,-1
14:12:06.316840,-12
14:12:06.316840,-2817
14:12:06.316840,-1
14:12:06.316840,-14
14:12:06.316840,-4609
14:12:06.316840,-1
14:12:06.316840,-16
14:12:06.316840,-3841
14:12:06.316840,-1
14:12:06.316840,-19
14:12:06.316840,-5121
14:12:06.316840,-1
14:12:06.316840,-21
14:12:06.316840,-3841
14:12:06.316840,-1
14:12:06.316840,-12
14:12:06.316840,-3329
14:12:06.316840,-1
14:12:06.316840,-12
14:12:06.316840,-1537
14:12:06.316840,-1
14:12:06.316840,-4
14:12:06.316840,-257
14:12:06.316840,-1
14:12:06.316840,-4
14:12:06.316840,-257
14:12:06.316840,-1
14:12:06.316840,2
14:12:06.316840,1024
14:12:06.316840,0
14:12:06.316840,4
14:12:06.316840,1024
14:12:06.316840,0
14:12:06.316840,0
14:12:06.316840,-2304
14:12:06.316840,-1
14:12:06.316840,-26
14:12:06.316840,-7681
14:12:06.316840,-1
14:12:06.316840,-7
14:12:06.316840,6911
14:12:06.316840,0
14:12:06.316840,55
14:12:06.316840,15872
14:12:06.316840,0
14:12:06.316840,40
14:12:06.316840,5376
14:12:06.316840,0
14:12:06.316840,33
14:12:06.316840,12288
14:12:06.316840,0
14:12:06.316840,43
14:12:06.316840,7168
14:12:06.316840,0
14:12:06.316840,-12
14:12:06.316840,-6913
14:12:06.316840,-1
14:12:06.316840,315
14:12:06.316840,14080
14:12:06.316840,4
14:12:06.316840,1240
14:12:06.316840,27392
14:12:06.316840,1
14:12:06.316840,-199
14:12:06.316840,6911
14:12:06.316840,0
14:12:06.316840,65
14:12:06.316840,-29440
14:12:06.316840,-1
14:12:06.316840,-60
14:12:06.316840,255
14:12:06.316840,0
14:12:06.316840,-50
14:12:06.854997,-40
14:12:06.854997,-769
14:12:06.854997,-1
14:12:06.854997,-7
14:12:06.854997,-2049
14:12:06.854997,-1
14:12:06.854997,9
14:12:06.854997,3584
14:12:06.854997,0
14:12:06.854997,16
14:12:06.854997,9216
14:12:06.854997,0
14:12:06.854997,52
14:12:06.854997,12800
14:12:06.854997,0
14:12:06.854997,50
14:12:06.854997,13312
14:12:06.854997,0
14:12:06.854997,52
14:12:06.854997,12800
14:12:06.854997,0
14:12:06.854997,50
14:12:06.854997,12288
14:12:06.854997,0
14:12:06.854997,52
14:12:06.854997,16640
14:12:06.854997,0
14:12:06.854997,72
14:12:06.854997,16640
14:12:06.854997,0
14:12:06.854997,45
14:12:06.854997,7168
14:12:06.854997,0
14:12:06.854997,16
14:12:06.854997,4096
14:12:06.854997,0
14:12:06.854997,16
14:12:06.854997,3584
14:12:06.854997,0
14:12:06.854997,16
14:12:06.854997,4096
14:12:06.854997,0
14:12:06.854997,14
14:12:06.854997,3584
14:12:06.854997,0
14:12:06.854997,14
14:12:06.854997,3584
14:12:06.854997,0
14:12:06.854997,9
14:12:06.854997,2304
14:12:06.854997,0
14:12:06.854997,14
14:12:06.854997,4096
14:12:06.854997,0
14:12:06.854997,19
14:12:06.854997,6144
14:12:06.854997,0
14:12:06.854997,24
14:12:06.854997,6144
14:12:06.854997,0
14:12:06.854997,24
14:12:06.854997,6656
14:12:06.854997,0
14:12:06.854997,28
14:12:06.854997,9216
14:12:06.854997,0
14:12:06.854997,40
14:12:06.854997,8448
14:12:06.854997,0
14:12:06.854997,26
14:12:06.854997,3584
14:12:06.854997,0
14:12:06.854997,0
14:12:06.854997,2304
14:12:06.854997,0
14:12:06.854997,36
14:12:06.854997,15872
14:12:06.854997,0
14:12:06.854997,89
14:12:06.854997,20736
14:12:06.854997,0
14:12:06.854997,48
14:12:06.854997,12800
14:12:06.854997,0
14:12:06.854997,72
14:12:06.854997,19712
14:12:06.854997,0
14:12:06.854997,62
14:12:06.854997,11008
14:12:06.854997,0
14:12:06.854997,-9
14:12:06.854997,20991
14:12:06.854997,0
14:12:06.854997,679
14:12:06.854997,7168
14:12:06.854997,5
14:12:06.854997,881
14:12:06.854997,-7168
14:12:06.854997,-1
14:12:06.854997,-105
14:12:06.854997,32255
14:12:06.854997,0
14:12:06.854997,-31
14:12:06.854997,-26113
14:12:06.854997,-1
14:12:06.854997,4
14:12:06.854997,-1792
14:12:06.854997,-1
14:12:06.854997,-43
14:12:07.481112,-4
14:12:07.481112,2559
14:12:07.481112,0
14:12:07.481112,2
14:12:07.481112,4864
14:12:07.481112,0
14:12:07.481112,43
14:12:07.481112,14592
14:12:07.481112,0
14:12:07.481112,57
14:12:07.481112,15360
14:12:07.481112,0
14:12:07.481112,62
14:12:07.481112,17664
14:12:07.481112,0
14:12:07.481112,74
14:12:07.481112,18944
14:12:07.481112,0
14:12:07.481112,72
14:12:07.481112,18432
14:12:07.481112,0
14:12:07.481112,74
14:12:07.481112,20736
14:12:07.481112,0
14:12:07.481112,91
14:12:07.481112,23808
14:12:07.481112,0
14:12:07.481112,89
14:12:07.481112,17664
14:12:07.481112,0
14:12:07.481112,45
14:12:07.481112,8448
14:12:07.481112,0
14:12:07.481112,26
14:12:07.481112,4864
14:12:07.481112,0
14:12:07.481112,12
14:12:07.481112,2304
14:12:07.481112,0
14:12:07.481112,12
14:12:07.481112,2304
14:12:07.481112,0
14:12:07.481112,9
14:12:07.481112,2304
14:12:07.481112,0
14:12:07.481112,4
14:12:07.481112,1024
14:12:07.481112,0
14:12:07.481112,7
14:12:07.481112,3072
14:12:07.481112,0
14:12:07.481112,16
14:12:07.481112,4864
14:12:07.481112,0
14:12:07.481112,24
14:12:07.481112,7168
14:12:07.481112,0
14:12:07.481112,28
14:12:07.481112,7168
14:12:07.481112,0
14:12:07.481112,31
14:12:07.481112,7936
14:12:07.481112,0
14:12:07.481112,31
14:12:07.481112,7936
14:12:07.481112,0
14:12:07.481112,26
14:12:07.481112,3584
14:12:07.481112,0
14:12:07.481112,-2
14:12:07.481112,-257
14:12:07.481112,-1
14:12:07.481112,16
14:12:07.481112,10240
14:12:07.481112,0
14:12:07.481112,67
14:12:07.481112,20224
14:12:07.481112,0
14:12:07.481112,57
14:12:07.481112,8448
14:12:07.481112,0
14:12:07.481112,45
14:12:07.481112,14592
14:12:07.481112,0
14:12:07.481112,50
14:12:07.481112,11008
14:12:07.481112,0
14:12:07.481112,4
14:12:07.481112,-12800
14:12:07.481112,-1
14:12:07.481112,175
14:12:07.481112,31488
14:12:07.481112,3
14:12:07.481112,1252
14:12:07.481112,-512
14:12:07.481112,1
14:12:07.481112,-175
14:12:07.481112,-2049
14:12:07.481112,-1
14:12:07.481112,84
14:12:07.481112,-27648
14:12:07.481112,-1
14:12:07.481112,-86
14:12:07.481112,-769
14:12:07.481112,-1
14:12:07.481112,-48
14:12:07.481112,-13825
14:12:07.481112,-1
14:12:07.481112,-19
14:12:08.023062,-21
14:12:08.023062,-6401
14:12:08.023062,-1
14:12:08.023062,-9
14:12:08.023062,-769
14:12:08.023062,-1
14:12:08.023062,-7
14:12:08.023062,255
14:12:08.023062,0
14:12:08.023062,7
14:12:08.023062,4096
14:12:08.023062,0
14:12:08.023062,31
14:12:08.023062,10240
14:12:08.023062,0
14:12:08.023062,38
14:12:08.023062,8448
14:12:08.023062,0
14:12:08.023062,31
14:12:08.023062,8448
14:12:08.023062,0
14:12:08.023062,40
14:12:08.023062,12288
14:12:08.023062,0
14:12:08.023062,45
14:12:08.023062,6656
14:12:08.023062,0
14:12:08.023062,-2
14:12:08.023062,-6401
14:12:08.023062,-1
14:12:08.023062,-38
14:12:08.023062,-12033
14:12:08.023062,-1
14:12:08.023062,-60
14:12:08.023062,-16897
14:12:08.023062,-1
14:12:08.023062,-67
14:12:08.023062,-16897
14:12:08.023062,-1
14:12:08.023062,-69
14:12:08.023062,-18689
14:12:08.023062,-1
14:12:08.023062,-72
14:12:08.023062,-17409
14:12:08.023062,-1
14:12:08.023062,-74
14:12:08.023062,-18177
14:12:08.023062,-1
14:12:08.023062,-77
14:12:08.023062,-21249
14:12:08.023062,-1
14:12:08.023062,-79
14:12:08.023062,-17409
14:12:08.023062,-1
14:12:08.023062,-74
14:12:08.023062,-19969
14:12:08.023062,-1
14:12:08.023062,-69
14:12:08.023062,-17409
14:12:08.023062,-1
14:12:08.023062,-74
14:12:08.023062,-17409
14:12:08.023062,-1
14:12:08.023062,-67
14:12:08.023062,-18689
14:12:08.023062,-1
14:12:08.023062,-79
14:12:08.023062,-24833
14:12:08.023062,-1
14:12:08.023062,-110
14:12:08.023062,-24321
14:12:08.023062,-1
14:12:08.023062,-74
14:12:08.023062,-12033
14:12:08.023062,-1
14:12:08.023062,-33
14:12:08.023062,-12545
14:12:08.023062,-1
14:12:08.023062,-72
14:12:08.023062,-16897
14:12:08.023062,-1
14:12:08.023062,-55
14:12:08.023062,-13825
14:12:08.023062,-1
14:12:08.023062,-60
14:12:08.023062,-24833
14:12:08.023062,-1
14:12:08.023062,-178
14:12:08.023062,-4609
14:12:08.023062,-1
14:12:08.023062,669
14:12:08.023062,-26368
14:12:08.023062,4
14:12:08.023062,563
14:12:08.023062,7168
14:12:08.023062,-1
14:12:08.023062,-144
14:12:08.023062,767
14:12:08.023062,0
14:12:08.023062,-197
14:12:08.023062,13567
14:12:08.023062,-1
14:12:08.023062,-105
14:12:08.023062,29439
14:12:08.023062,-1
14:12:08.023062,-156
14:12:08.023062,-29185
14:12:08.023062,-1
14:12:08.023062,-113
14:12:08.607564,-118
14:12:08.607564,-26113
14:12:08.607564,-1
14:12:08.607564,-96
14:12:08.607564,-24321
14:12:08.607564,-1
14:12:08.607564,-86
14:12:08.607564,-18689
14:12:08.607564,-1
14:12:08.607564,-69
14:12:08.607564,-15617
14:12:08.607564,-1
14:12:08.607564,-52
14:12:08.607564,-11265
14:12:08.607564,-1
14:12:08.607564,-36
14:12:08.607564,-5121
14:12:08.607564,-1
14:12:08.607564,-14
14:12:08.607564,-3329
14:12:08.607564,-1
14:12:08.607564,-7
14:12:08.607564,255
14:12:08.607564,0
14:12:08.607564,-12
14:12:08.607564,-9473
14:12:08.607564,-1
14:12:08.607564,-62
14:12:08.607564,-20481
14:12:08.607564,-1
14:12:08.607564,-91
14:12:08.607564,-24321
14:12:08.607564,-1
14:12:08.607564,-96
14:12:08.607564,-23553
14:12:08.607564,-1
14:12:08.607564,-93
14:12:08.607564,-22529
14:12:08.607564,-1
14:12:08.607564,-79
14:12:08.607564,-18689
14:12:08.607564,-1
14:12:08.607564,-69
14:12:08.607564,-15617
14:12:08.607564,-1
14:12:08.607564,-52
14:12:08.607564,-12033
14:12:08.607564,-1
14:12:08.607564,-45
14:12:08.607564,-9985
14:12:08.607564,-1
14:12:08.607564,-33
14:12:08.607564,-6913
14:12:08.607564,-1
14:12:08.607564,-24
14:12:08.607564,-5121
14:12:08.607564,-1
14:12:08.607564,-16
14:12:08.607564,-2817
14:12:08.607564,-1
14:12:08.607564,-7
14:12:08.607564,-1537
14:12:08.607564,-1
14:12:08.607564,-14
14:12:08.607564,-7681
14:12:08.607564,-1
14:12:08.607564,-33
14:12:08.607564,-4609
14:12:08.607564,-1
14:12:08.607564,12
14:12:08.607564,11008
14:12:08.607564,0
14:12:08.607564,62
14:12:08.607564,12800
14:12:08.607564,0
14:12:08.607564,26
14:12:08.607564,9216
14:12:08.607564,0
14:12:08.607564,55
14:12:08.607564,12800
14:12:08.607564,0
14:12:08.607564,43
14:12:08.607564,3584
14:12:08.607564,0
14:12:08.607564,-45
14:12:08.607564,26111
14:12:08.607564,0
14:12:08.607564,806
14:12:08.607564,-23296
14:12:08.607564,5
14:12:08.607564,900
14:12:08.607564,-15872
14:12:08.607564,-1
14:12:08.607564,-115
14:12:08.607564,25343
14:12:08.607564,0
14:12:08.607564,-65
14:12:08.607564,-30977
14:12:08.607564,-1
14:12:08.607564,-21
14:12:08.607564,-9473
14:12:08.607564,-1
14:12:08.607564,-69
14:12:08.607564,-8193
14:12:08.607564,-1
14:12:08.607564,-21
14:12:08.607564,-7681
14:12:08.607564,-1
14:12:08.607564,-16
14:12:09.194621,-4
14:12:09.194621,-769
14:12:09.194621,-1
14:12:09.194621,2
14:12:09.194621,1792
14:12:09.194621,0
14:12:09.194621,9
14:12:09.194621,3072
14:12:09.194621,0
14:12:09.194621,16
14:12:09.194621,5376
14:12:09.194621,0
14:12:09.194621,26
14:12:09.194621,6656
14:12:09.194621,0
14:12:09.194621,16
14:12:09.194621,2304
14:12:09.194621,0
14:12:09.194621,12
14:12:09.194621,5376
14:12:09.194621,0
14:12:09.194621,31
14:12:09.194621,8448
14:12:09.194621,0
14:12:09.194621,21
14:12:09.194621,3584
14:12:09.194621,0
14:12:09.194621,12
14:12:09.194621,1792
14:12:09.194621,0
14:12:09.194621,4
14:12:09.194621,1024
14:12:09.194621,0
14:12:09.194621,2
14:12:09.194621,0
14:12:09.194621,0
14:12:09.194621,0
14:12:09.194621,1024
14:12:09.194621,0
14:12:09.194621,4
14:12:09.194621,512
14:12:09.194621,0
14:12:09.194621,0
14:12:09.194621,0
14:12:09.194621,0
14:12:09.194621,0
14:12:09.194621,1024
14:12:09.194621,0
14:12:09.194621,4
14:12:09.194621,1792
14:12:09.194621,0
14:12:09.194621,9
14:12:09.194621,2304
14:12:09.194621,0
14:12:09.194621,14
14:12:09.194621,4096
14:12:09.194621,0
14:12:09.194621,14
14:12:09.194621,3584
14:12:09.194621,0
14:12:09.194621,14
14:12:09.194621,1792
14:12:09.194621,0
14:12:09.194621,-12
14:12:09.194621,-4609
14:12:09.194621,-1
14:12:09.194621,-4
14:12:09.194621,5119
14:12:09.194621,0
14:12:09.194621,45
14:12:09.194621,15872
14:12:09.194621,0
14:12:09.194621,52
14:12:09.194621,7936
14:12:09.194621,0
14:12:09.194621,28
14:12:09.194621,11520
14:12:09.194621,0
14:12:09.194621,50
14:12:09.194621,11008
14:12:09.194621,0
14:12:09.194621,19
14:12:09.194621,-11008
14:12:09.194621,-1
14:12:09.194621,50
14:12:09.194621,-24576
14:12:09.194621,2
14:12:09.194621,1389
14:12:09.194621,1024
14:12:09.194621,4
14:12:09.194621,21
14:12:09.194621,22528
14:12:09.194621,-1
14:12:09.194621,79
14:12:09.194621,-12288
14:12:09.194621,-1
14:12:09.194621,-149
14:12:09.194621,-11265
14:12:09.194621,-1
14:12:09.194621,-45
14:12:09.194621,-21249
14:12:09.194621,-1
14:12:09.194621,-52
14:12:09.194621,-8961
14:12:09.194621,-1
14:12:09.194621,-45
14:12:09.194621,-8961
14:12:09.194621,-1
14:12:09.194621,-19
14:12:09.689623,-16
14:12:09.689623,-3841
14:12:09.689623,-1
14:12:09.689623,-7
