timestamp,ecg,reconstructed_time
2025-11-07 18:06:42.048856,-7,2025-11-07 18:06:42.048856000
2025-11-07 18:06:42.048856,-257,2025-11-07 18:06:42.056548308
2025-11-07 18:06:42.048856,-1,2025-11-07 18:06:42.064240615
2025-11-07 18:06:42.048856,0,2025-11-07 18:06:42.071932923
2025-11-07 18:06:42.048856,3584,2025-11-07 18:06:42.079625231
2025-11-07 18:06:42.048856,0,2025-11-07 18:06:42.087317538
2025-11-07 18:06:42.048856,35,2025-11-07 18:06:42.095009846
2025-11-07 18:06:42.048856,11264,2025-11-07 18:06:42.102702154
2025-11-07 18:06:42.048856,0,2025-11-07 18:06:42.110394462
2025-11-07 18:06:42.048856,52,2025-11-07 18:06:42.118086769
2025-11-07 18:06:42.048856,16896,2025-11-07 18:06:42.125779077
2025-11-07 18:06:42.048856,0,2025-11-07 18:06:42.133471385
2025-11-07 18:06:42.048856,75,2025-11-07 18:06:42.141163692
2025-11-07 18:06:42.048856,20480,2025-11-07 18:06:42.148856000
2025-11-07 18:06:42.048856,0,2025-11-07 18:06:42.156548308
2025-11-07 18:06:42.048856,82,2025-11-07 18:06:42.164240615
2025-11-07 18:06:42.048856,20992,2025-11-07 18:06:42.171932923
2025-11-07 18:06:42.048856,0,2025-11-07 18:06:42.179625231
2025-11-07 18:06:42.048856,68,2025-11-07 18:06:42.187317538
2025-11-07 18:06:42.048856,8448,2025-11-07 18:06:42.195009846
2025-11-07 18:06:42.048856,0,2025-11-07 18:06:42.202702154
2025-11-07 18:06:42.048856,-7,2025-11-07 18:06:42.210394462
2025-11-07 18:06:42.048856,-9217,2025-11-07 18:06:42.218086769
2025-11-07 18:06:42.048856,-1,2025-11-07 18:06:42.225779077
2025-11-07 18:06:42.048856,-59,2025-11-07 18:06:42.233471385
2025-11-07 18:06:42.048856,-18945,2025-11-07 18:06:42.241163692
2025-11-07 18:06:42.048856,-1,2025-11-07 18:06:42.248856000
2025-11-07 18:06:42.048856,-89,2025-11-07 18:06:42.256548308
2025-11-07 18:06:42.048856,-23809,2025-11-07 18:06:42.264240615
2025-11-07 18:06:42.048856,-1,2025-11-07 18:06:42.271932923
2025-11-07 18:06:42.048856,-94,2025-11-07 18:06:42.279625231
2025-11-07 18:06:42.048856,-24321,2025-11-07 18:06:42.287317538
2025-11-07 18:06:42.048856,-1,2025-11-07 18:06:42.295009846
2025-11-07 18:06:42.048856,-96,2025-11-07 18:06:42.302702154
2025-11-07 18:06:42.048856,-25089,2025-11-07 18:06:42.310394462
2025-11-07 18:06:42.048856,-1,2025-11-07 18:06:42.318086769
2025-11-07 18:06:42.048856,-94,2025-11-07 18:06:42.325779077
2025-11-07 18:06:42.048856,-23297,2025-11-07 18:06:42.333471385
2025-11-07 18:06:42.048856,-1,2025-11-07 18:06:42.341163692
2025-11-07 18:06:42.048856,-89,2025-11-07 18:06:42.348856000
2025-11-07 18:06:42.048856,-20225,2025-11-07 18:06:42.356548308
2025-11-07 18:06:42.048856,-1,2025-11-07 18:06:42.364240615
2025-11-07 18:06:42.048856,-75,2025-11-07 18:06:42.371932923
2025-11-07 18:06:42.048856,-18433,2025-11-07 18:06:42.379625231
2025-11-07 18:06:42.048856,-1,2025-11-07 18:06:42.387317538
2025-11-07 18:06:42.048856,-73,2025-11-07 18:06:42.395009846
2025-11-07 18:06:42.048856,-17153,2025-11-07 18:06:42.402702154
2025-11-07 18:06:42.048856,-1,2025-11-07 18:06:42.410394462
2025-11-07 18:06:42.048856,-61,2025-11-07 18:06:42.418086769
2025-11-07 18:06:42.048856,-13569,2025-11-07 18:06:42.425779077
2025-11-07 18:06:42.048856,-1,2025-11-07 18:06:42.433471385
2025-11-07 18:06:42.048856,-54,2025-11-07 18:06:42.441163692
2025-11-07 18:06:42.048856,-14081,2025-11-07 18:06:42.448856000
2025-11-07 18:06:42.048856,-1,2025-11-07 18:06:42.456548308
2025-11-07 18:06:42.048856,-49,2025-11-07 18:06:42.464240615
2025-11-07 18:06:42.048856,-10497,2025-11-07 18:06:42.471932923
2025-11-07 18:06:42.048856,-1,2025-11-07 18:06:42.479625231
2025-11-07 18:06:42.048856,-42,2025-11-07 18:06:42.487317538
2025-11-07 18:06:42.048856,-10497,2025-11-07 18:06:42.495009846
2025-11-07 18:06:42.048856,-1,2025-11-07 18:06:42.502702154
2025-11-07 18:06:42.048856,-47,2025-11-07 18:06:42.510394462
2025-11-07 18:06:42.048856,-12289,2025-11-07 18:06:42.518086769
2025-11-07 18:06:42.048856,-1,2025-11-07 18:06:42.525779077
2025-11-07 18:06:42.048856,-49,2025-11-07 18:06:42.533471385
2025-11-07 18:06:42.048856,-13057,2025-11-07 18:06:42.541163692
2025-11-07 18:06:42.048856,-1,2025-11-07 18:06:42.548856000
2025-11-07 18:06:42.048856,-59,2025-11-07 18:06:42.556548308
2025-11-07 18:06:42.048856,-14081,2025-11-07 18:06:42.564240615
2025-11-07 18:06:42.048856,-1,2025-11-07 18:06:42.571932923
2025-11-07 18:06:42.048856,-44,2025-11-07 18:06:42.579625230
2025-11-07 18:06:42.048856,-11777,2025-11-07 18:06:42.587317538
2025-11-07 18:06:42.048856,-1,2025-11-07 18:06:42.595009846
2025-11-07 18:06:42.048856,-56,2025-11-07 18:06:42.602702154
2025-11-07 18:06:42.048856,-13057,2025-11-07 18:06:42.610394462
2025-11-07 18:06:42.048856,-1,2025-11-07 18:06:42.618086769
2025-11-07 18:06:42.048856,-47,2025-11-07 18:06:42.625779077
2025-11-07 18:06:42.048856,-11777,2025-11-07 18:06:42.633471385
2025-11-07 18:06:42.048856,-1,2025-11-07 18:06:42.641163692
2025-11-07 18:06:42.048856,-49,2025-11-07 18:06:42.648856000
2025-11-07 18:06:42.048856,-13057,2025-11-07 18:06:42.656548308
2025-11-07 18:06:42.048856,-1,2025-11-07 18:06:42.664240615
2025-11-07 18:06:42.048856,-61,2025-11-07 18:06:42.671932923
2025-11-07 18:06:42.048856,-21505,2025-11-07 18:06:42.679625231
2025-11-07 18:06:42.048856,-1,2025-11-07 18:06:42.687317538
2025-11-07 18:06:42.048856,-101,2025-11-07 18:06:42.695009846
2025-11-07 18:06:42.048856,-23809,2025-11-07 18:06:42.702702154
2025-11-07 18:06:42.048856,-1,2025-11-07 18:06:42.710394462
2025-11-07 18:06:42.048856,-85,2025-11-07 18:06:42.718086769
2025-11-07 18:06:42.048856,-17153,2025-11-07 18:06:42.725779077
2025-11-07 18:06:42.048856,-1,2025-11-07 18:06:42.733471385
2025-11-07 18:06:42.048856,-30,2025-11-07 18:06:42.741163692
2025-11-07 18:06:42.048856,-2561,2025-11-07 18:06:42.748856000
2025-11-07 18:06:42.048856,-1,2025-11-07 18:06:42.756548308
2025-11-07 18:06:42.048856,-23,2025-11-07 18:06:42.764240615
2025-11-07 18:06:42.048856,-6913,2025-11-07 18:06:42.771932923
2025-11-07 18:06:42.048856,-1,2025-11-07 18:06:42.779625231
2025-11-07 18:06:42.048856,-18,2025-11-07 18:06:42.787317538
2025-11-07 18:06:42.048856,-3329,2025-11-07 18:06:42.795009846
2025-11-07 18:06:42.048856,-1,2025-11-07 18:06:42.802702154
2025-11-07 18:06:42.048856,-9,2025-11-07 18:06:42.810394462
2025-11-07 18:06:42.048856,-769,2025-11-07 18:06:42.818086769
2025-11-07 18:06:42.048856,-1,2025-11-07 18:06:42.825779077
2025-11-07 18:06:42.048856,-11,2025-11-07 18:06:42.833471385
2025-11-07 18:06:42.048856,-17665,2025-11-07 18:06:42.841163692
2025-11-07 18:06:42.048856,-1,2025-11-07 18:06:42.848856000
2025-11-07 18:06:42.048856,-113,2025-11-07 18:06:42.856548308
2025-11-07 18:06:42.048856,15615,2025-11-07 18:06:42.864240615
2025-11-07 18:06:42.048856,1,2025-11-07 18:06:42.871932923
2025-11-07 18:06:42.048856,1366,2025-11-07 18:06:42.879625231
2025-11-07 18:06:42.588276,1801,2025-11-07 18:06:42.887317538
2025-11-07 18:06:42.588276,20224,2025-11-07 18:06:42.895009846
2025-11-07 18:06:42.588276,2,2025-11-07 18:06:42.902702154
2025-11-07 18:06:42.588276,-553,2025-11-07 18:06:42.910394462
2025-11-07 18:06:42.588276,29695,2025-11-07 18:06:42.918086769
2025-11-07 18:06:42.588276,-1,2025-11-07 18:06:42.925779077
2025-11-07 18:06:42.588276,250,2025-11-07 18:06:42.933471385
2025-11-07 18:06:42.588276,-30720,2025-11-07 18:06:42.941163692
2025-11-07 18:06:42.588276,-1,2025-11-07 18:06:42.948856000
2025-11-07 18:06:42.588276,-198,2025-11-07 18:06:42.956548308
2025-11-07 18:06:42.588276,-6913,2025-11-07 18:06:42.964240615
2025-11-07 18:06:42.588276,-1,2025-11-07 18:06:42.971932923
2025-11-07 18:06:42.588276,-87,2025-11-07 18:06:42.979625231
2025-11-07 18:06:42.588276,30719,2025-11-07 18:06:42.987317538
2025-11-07 18:06:42.588276,-1,2025-11-07 18:06:42.995009846
2025-11-07 18:06:42.588276,-68,2025-11-07 18:06:43.002702154
2025-11-07 18:06:42.588276,-15873,2025-11-07 18:06:43.010394462
2025-11-07 18:06:42.588276,-1,2025-11-07 18:06:43.018086769
2025-11-07 18:06:42.588276,-82,2025-11-07 18:06:43.025779077
2025-11-07 18:06:42.588276,-11777,2025-11-07 18:06:43.033471385
2025-11-07 18:06:42.588276,-1,2025-11-07 18:06:43.041163692
2025-11-07 18:06:42.588276,-33,2025-11-07 18:06:43.048856000
2025-11-07 18:06:42.588276,-12289,2025-11-07 18:06:43.056548308
2025-11-07 18:06:42.588276,-1,2025-11-07 18:06:43.064240615
2025-11-07 18:06:42.588276,-47,2025-11-07 18:06:43.071932923
2025-11-07 18:06:42.588276,-8193,2025-11-07 18:06:43.079625231
2025-11-07 18:06:42.588276,-1,2025-11-07 18:06:43.087317538
2025-11-07 18:06:42.588276,-23,2025-11-07 18:06:43.095009846
2025-11-07 18:06:42.588276,-5633,2025-11-07 18:06:43.102702154
2025-11-07 18:06:42.588276,-1,2025-11-07 18:06:43.110394462
2025-11-07 18:06:42.588276,-21,2025-11-07 18:06:43.118086769
2025-11-07 18:06:42.588276,-2049,2025-11-07 18:06:43.125779077
2025-11-07 18:06:42.588276,-1,2025-11-07 18:06:43.133471385
2025-11-07 18:06:42.588276,0,2025-11-07 18:06:43.141163692
2025-11-07 18:06:42.588276,-512,2025-11-07 18:06:43.148856000
2025-11-07 18:06:42.588276,-1,2025-11-07 18:06:43.156548308
2025-11-07 18:06:42.588276,14,2025-11-07 18:06:43.164240615
2025-11-07 18:06:42.588276,8960,2025-11-07 18:06:43.171932923
2025-11-07 18:06:42.588276,0,2025-11-07 18:06:43.179625231
2025-11-07 18:06:42.588276,44,2025-11-07 18:06:43.187317538
2025-11-07 18:06:42.588276,16896,2025-11-07 18:06:43.195009846
2025-11-07 18:06:42.588276,0,2025-11-07 18:06:43.202702154
2025-11-07 18:06:42.588276,87,2025-11-07 18:06:43.210394462
2025-11-07 18:06:42.588276,23552,2025-11-07 18:06:43.218086769
2025-11-07 18:06:42.588276,0,2025-11-07 18:06:43.225779077
2025-11-07 18:06:42.588276,94,2025-11-07 18:06:43.233471385
2025-11-07 18:06:42.588276,25344,2025-11-07 18:06:43.241163692
2025-11-07 18:06:42.588276,0,2025-11-07 18:06:43.248856000
2025-11-07 18:06:42.588276,80,2025-11-07 18:06:43.256548308
2025-11-07 18:06:42.588276,7680,2025-11-07 18:06:43.264240615
2025-11-07 18:06:42.588276,0,2025-11-07 18:06:43.271932923
2025-11-07 18:06:42.588276,-9,2025-11-07 18:06:43.279625231
2025-11-07 18:06:42.588276,-5633,2025-11-07 18:06:43.287317538
2025-11-07 18:06:42.588276,-1,2025-11-07 18:06:43.295009846
2025-11-07 18:06:42.588276,-35,2025-11-07 18:06:43.302702154
2025-11-07 18:06:42.588276,-12289,2025-11-07 18:06:43.310394462
2025-11-07 18:06:42.588276,-1,2025-11-07 18:06:43.318086769
2025-11-07 18:06:42.588276,-59,2025-11-07 18:06:43.325779077
2025-11-07 18:06:42.588276,-14849,2025-11-07 18:06:43.333471385
2025-11-07 18:06:42.588276,-1,2025-11-07 18:06:43.341163692
2025-11-07 18:06:42.588276,-59,2025-11-07 18:06:43.348856000
2025-11-07 18:06:42.588276,-14849,2025-11-07 18:06:43.356548308
2025-11-07 18:06:42.588276,-1,2025-11-07 18:06:43.364240615
2025-11-07 18:06:42.588276,-54,2025-11-07 18:06:43.371932923
2025-11-07 18:06:42.588276,-12289,2025-11-07 18:06:43.379625231
2025-11-07 18:06:42.588276,-1,2025-11-07 18:06:43.387317538
2025-11-07 18:06:42.588276,-49,2025-11-07 18:06:43.395009846
2025-11-07 18:06:42.588276,-12289,2025-11-07 18:06:43.402702154
2025-11-07 18:06:42.588276,-1,2025-11-07 18:06:43.410394462
2025-11-07 18:06:42.588276,-42,2025-11-07 18:06:43.418086769
2025-11-07 18:06:42.588276,-8193,2025-11-07 18:06:43.425779077
2025-11-07 18:06:42.588276,-1,2025-11-07 18:06:43.433471385
2025-11-07 18:06:42.588276,-28,2025-11-07 18:06:43.441163692
2025-11-07 18:06:42.588276,-6401,2025-11-07 18:06:43.448856000
2025-11-07 18:06:42.588276,-1,2025-11-07 18:06:43.456548308
2025-11-07 18:06:42.588276,-21,2025-11-07 18:06:43.464240615
2025-11-07 18:06:42.588276,-4353,2025-11-07 18:06:43.471932923
2025-11-07 18:06:42.588276,-1,2025-11-07 18:06:43.479625231
2025-11-07 18:06:42.588276,-14,2025-11-07 18:06:43.487317538
2025-11-07 18:06:42.588276,-2049,2025-11-07 18:06:43.495009846
2025-11-07 18:06:42.588276,-1,2025-11-07 18:06:43.502702154
2025-11-07 18:06:42.588276,-4,2025-11-07 18:06:43.510394462
2025-11-07 18:06:42.588276,-1537,2025-11-07 18:06:43.518086769
2025-11-07 18:06:42.588276,-1,2025-11-07 18:06:43.525779077
2025-11-07 18:06:42.588276,-7,2025-11-07 18:06:43.533471385
2025-11-07 18:06:42.588276,255,2025-11-07 18:06:43.541163692
2025-11-07 18:06:42.588276,0,2025-11-07 18:06:43.548856000
2025-11-07 18:06:42.588276,4,2025-11-07 18:06:43.556548308
2025-11-07 18:06:42.588276,512,2025-11-07 18:06:43.564240615
2025-11-07 18:06:42.588276,0,2025-11-07 18:06:43.571932923
2025-11-07 18:06:42.588276,4,2025-11-07 18:06:43.579625230
2025-11-07 18:06:42.588276,1792,2025-11-07 18:06:43.587317538
2025-11-07 18:06:42.588276,0,2025-11-07 18:06:43.595009846
2025-11-07 18:06:42.588276,-2,2025-11-07 18:06:43.602702154
2025-11-07 18:06:42.588276,-769,2025-11-07 18:06:43.610394462
2025-11-07 18:06:42.588276,-1,2025-11-07 18:06:43.618086769
2025-11-07 18:06:42.588276,2,2025-11-07 18:06:43.625779077
2025-11-07 18:06:42.588276,0,2025-11-07 18:06:43.633471385
2025-11-07 18:06:42.588276,0,2025-11-07 18:06:43.641163692
2025-11-07 18:06:42.588276,-7,2025-11-07 18:06:43.648856000
2025-11-07 18:06:42.588276,-769,2025-11-07 18:06:43.656548308
2025-11-07 18:06:42.588276,-1,2025-11-07 18:06:43.664240615
2025-11-07 18:06:42.588276,2,2025-11-07 18:06:43.671932923
2025-11-07 18:06:42.588276,2304,2025-11-07 18:06:43.679625231
2025-11-07 18:06:42.588276,0,2025-11-07 18:06:43.687317538
2025-11-07 18:06:42.588276,7,2025-11-07 18:06:43.695009846
2025-11-07 18:06:42.588276,-512,2025-11-07 18:06:43.702702154
2025-11-07 18:06:42.588276,-1,2025-11-07 18:06:43.710394462
2025-11-07 18:06:42.588276,-23,2025-11-07 18:06:43.718086769
2025-11-07 18:06:43.127426,-47,2025-11-07 18:06:43.725779077
2025-11-07 18:06:43.127426,-11777,2025-11-07 18:06:43.733471385
2025-11-07 18:06:43.127426,-1,2025-11-07 18:06:43.741163692
2025-11-07 18:06:43.127426,-42,2025-11-07 18:06:43.748856000
2025-11-07 18:06:43.127426,-9985,2025-11-07 18:06:43.756548308
2025-11-07 18:06:43.127426,-1,2025-11-07 18:06:43.764240615
2025-11-07 18:06:43.127426,-7,2025-11-07 18:06:43.771932923
2025-11-07 18:06:43.127426,7935,2025-11-07 18:06:43.779625231
2025-11-07 18:06:43.127426,0,2025-11-07 18:06:43.787317538
2025-11-07 18:06:43.127426,28,2025-11-07 18:06:43.795009846
2025-11-07 18:06:43.127426,4096,2025-11-07 18:06:43.802702154
2025-11-07 18:06:43.127426,0,2025-11-07 18:06:43.810394462
2025-11-07 18:06:43.127426,21,2025-11-07 18:06:43.818086769
2025-11-07 18:06:43.127426,10240,2025-11-07 18:06:43.825779077
2025-11-07 18:06:43.127426,0,2025-11-07 18:06:43.833471385
2025-11-07 18:06:43.127426,56,2025-11-07 18:06:43.841163692
2025-11-07 18:06:43.127426,15104,2025-11-07 18:06:43.848856000
2025-11-07 18:06:43.127426,0,2025-11-07 18:06:43.856548308
2025-11-07 18:06:43.127426,54,2025-11-07 18:06:43.864240615
2025-11-07 18:06:43.127426,10240,2025-11-07 18:06:43.871932923
2025-11-07 18:06:43.127426,0,2025-11-07 18:06:43.879625231
2025-11-07 18:06:43.127426,-28,2025-11-07 18:06:43.887317538
2025-11-07 18:06:43.127426,-1537,2025-11-07 18:06:43.895009846
2025-11-07 18:06:43.127426,-1,2025-11-07 18:06:43.902702154
2025-11-07 18:06:43.127426,591,2025-11-07 18:06:43.910394462
2025-11-07 18:06:43.127426,12032,2025-11-07 18:06:43.918086769
2025-11-07 18:06:43.127426,6,2025-11-07 18:06:43.925779077
2025-11-07 18:06:43.127426,1472,2025-11-07 18:06:43.933471385
2025-11-07 18:06:43.127426,0,2025-11-07 18:06:43.941163692
2025-11-07 18:06:43.127426,0,2025-11-07 18:06:43.948856000
2025-11-07 18:06:43.127426,-609,2025-11-07 18:06:43.956548308
2025-11-07 18:06:43.127426,22527,2025-11-07 18:06:43.964240615
2025-11-07 18:06:43.127426,0,2025-11-07 18:06:43.971932923
2025-11-07 18:06:43.127426,238,2025-11-07 18:06:43.979625231
2025-11-07 18:06:43.127426,-30720,2025-11-07 18:06:43.987317538
2025-11-07 18:06:43.127426,-1,2025-11-07 18:06:43.995009846
2025-11-07 18:06:43.127426,-59,2025-11-07 18:06:44.002702154
2025-11-07 18:06:43.127426,13567,2025-11-07 18:06:44.010394462
2025-11-07 18:06:43.127426,0,2025-11-07 18:06:44.018086769
2025-11-07 18:06:43.127426,-37,2025-11-07 18:06:44.025779077
2025-11-07 18:06:43.127426,-9985,2025-11-07 18:06:44.033471385
2025-11-07 18:06:43.127426,-1,2025-11-07 18:06:44.041163692
2025-11-07 18:06:43.127426,18,2025-11-07 18:06:44.048856000
2025-11-07 18:06:43.127426,0,2025-11-07 18:06:44.056548308
2025-11-07 18:06:43.127426,0,2025-11-07 18:06:44.064240615
2025-11-07 18:06:43.127426,-18,2025-11-07 18:06:44.071932923
2025-11-07 18:06:43.127426,255,2025-11-07 18:06:44.079625231
2025-11-07 18:06:43.127426,0,2025-11-07 18:06:44.087317538
2025-11-07 18:06:43.127426,4,2025-11-07 18:06:44.095009846
2025-11-07 18:06:43.127426,1792,2025-11-07 18:06:44.102702154
2025-11-07 18:06:43.127426,0,2025-11-07 18:06:44.110394462
2025-11-07 18:06:43.127426,18,2025-11-07 18:06:44.118086769
2025-11-07 18:06:43.127426,4608,2025-11-07 18:06:44.125779077
2025-11-07 18:06:43.127426,0,2025-11-07 18:06:44.133471385
2025-11-07 18:06:43.127426,26,2025-11-07 18:06:44.141163692
2025-11-07 18:06:43.127426,8960,2025-11-07 18:06:44.148856000
2025-11-07 18:06:43.127426,0,2025-11-07 18:06:44.156548308
2025-11-07 18:06:43.127426,40,2025-11-07 18:06:44.164240615
2025-11-07 18:06:43.127426,13312,2025-11-07 18:06:44.171932923
2025-11-07 18:06:43.127426,0,2025-11-07 18:06:44.179625231
2025-11-07 18:06:43.127426,66,2025-11-07 18:06:44.187317538
2025-11-07 18:06:43.127426,20480,2025-11-07 18:06:44.195009846
2025-11-07 18:06:43.127426,0,2025-11-07 18:06:44.202702154
2025-11-07 18:06:43.127426,104,2025-11-07 18:06:44.210394462
2025-11-07 18:06:43.127426,31232,2025-11-07 18:06:44.218086769
2025-11-07 18:06:43.127426,0,2025-11-07 18:06:44.225779077
2025-11-07 18:06:43.127426,139,2025-11-07 18:06:44.233471385
2025-11-07 18:06:43.127426,-25088,2025-11-07 18:06:44.241163692
2025-11-07 18:06:43.127426,0,2025-11-07 18:06:44.248856000
2025-11-07 18:06:43.127426,167,2025-11-07 18:06:44.256548308
2025-11-07 18:06:43.127426,-22784,2025-11-07 18:06:44.264240615
2025-11-07 18:06:43.127426,0,2025-11-07 18:06:44.271932923
2025-11-07 18:06:43.127426,156,2025-11-07 18:06:44.279625231
2025-11-07 18:06:43.127426,-32256,2025-11-07 18:06:44.287317538
2025-11-07 18:06:43.127426,0,2025-11-07 18:06:44.295009846
2025-11-07 18:06:43.127426,80,2025-11-07 18:06:44.302702154
2025-11-07 18:06:43.127426,6656,2025-11-07 18:06:44.310394462
2025-11-07 18:06:43.127426,0,2025-11-07 18:06:44.318086769
2025-11-07 18:06:43.127426,-9,2025-11-07 18:06:44.325779077
2025-11-07 18:06:43.127426,-6913,2025-11-07 18:06:44.333471385
2025-11-07 18:06:43.127426,-1,2025-11-07 18:06:44.341163692
2025-11-07 18:06:43.127426,-44,2025-11-07 18:06:44.348856000
2025-11-07 18:06:43.127426,-13057,2025-11-07 18:06:44.356548308
2025-11-07 18:06:43.127426,-1,2025-11-07 18:06:44.364240615
2025-11-07 18:06:43.127426,-54,2025-11-07 18:06:44.371932923
2025-11-07 18:06:43.127426,-13569,2025-11-07 18:06:44.379625231
2025-11-07 18:06:43.127426,-1,2025-11-07 18:06:44.387317538
2025-11-07 18:06:43.127426,-52,2025-11-07 18:06:44.395009846
2025-11-07 18:06:43.127426,-12289,2025-11-07 18:06:44.402702154
2025-11-07 18:06:43.127426,-1,2025-11-07 18:06:44.410394462
2025-11-07 18:06:43.127426,-52,2025-11-07 18:06:44.418086769
2025-11-07 18:06:43.127426,-12289,2025-11-07 18:06:44.425779077
2025-11-07 18:06:43.127426,-1,2025-11-07 18:06:44.433471385
2025-11-07 18:06:43.127426,-47,2025-11-07 18:06:44.441163692
2025-11-07 18:06:43.127426,-10497,2025-11-07 18:06:44.448856000
2025-11-07 18:06:43.127426,-1,2025-11-07 18:06:44.456548308
2025-11-07 18:06:43.127426,-40,2025-11-07 18:06:44.464240615
2025-11-07 18:06:43.127426,-9217,2025-11-07 18:06:44.471932923
2025-11-07 18:06:43.127426,-1,2025-11-07 18:06:44.479625231
2025-11-07 18:06:43.127426,-33,2025-11-07 18:06:44.487317538
2025-11-07 18:06:43.127426,-6401,2025-11-07 18:06:44.495009846
2025-11-07 18:06:43.127426,-1,2025-11-07 18:06:44.502702154
2025-11-07 18:06:43.127426,-14,2025-11-07 18:06:44.510394462
2025-11-07 18:06:43.127426,-2049,2025-11-07 18:06:44.518086769
2025-11-07 18:06:43.127426,-1,2025-11-07 18:06:44.525779077
2025-11-07 18:06:43.127426,-7,2025-11-07 18:06:44.533471385
2025-11-07 18:06:43.127426,-2049,2025-11-07 18:06:44.541163692
2025-11-07 18:06:43.127426,-1,2025-11-07 18:06:44.548856000
2025-11-07 18:06:43.127426,-4,2025-11-07 18:06:44.556548308
2025-11-07 18:06:43.714279,7,2025-11-07 18:06:44.564240615
2025-11-07 18:06:43.714279,3584,2025-11-07 18:06:44.571932923
2025-11-07 18:06:43.714279,0,2025-11-07 18:06:44.579625230
2025-11-07 18:06:43.714279,11,2025-11-07 18:06:44.587317538
2025-11-07 18:06:43.714279,3584,2025-11-07 18:06:44.595009846
2025-11-07 18:06:43.714279,0,2025-11-07 18:06:44.602702154
2025-11-07 18:06:43.714279,9,2025-11-07 18:06:44.610394462
2025-11-07 18:06:43.714279,1792,2025-11-07 18:06:44.618086769
2025-11-07 18:06:43.714279,0,2025-11-07 18:06:44.625779077
2025-11-07 18:06:43.714279,9,2025-11-07 18:06:44.633471385
2025-11-07 18:06:43.714279,5376,2025-11-07 18:06:44.641163692
2025-11-07 18:06:43.714279,0,2025-11-07 18:06:44.648856000
2025-11-07 18:06:43.714279,30,2025-11-07 18:06:44.656548308
2025-11-07 18:06:43.714279,6656,2025-11-07 18:06:44.664240615
2025-11-07 18:06:43.714279,0,2025-11-07 18:06:44.671932923
2025-11-07 18:06:43.714279,18,2025-11-07 18:06:44.679625231
2025-11-07 18:06:43.714279,5376,2025-11-07 18:06:44.687317538
2025-11-07 18:06:43.714279,0,2025-11-07 18:06:44.695009846
2025-11-07 18:06:43.714279,23,2025-11-07 18:06:44.702702154
2025-11-07 18:06:43.714279,5376,2025-11-07 18:06:44.710394462
2025-11-07 18:06:43.714279,0,2025-11-07 18:06:44.718086769
2025-11-07 18:06:43.714279,23,2025-11-07 18:06:44.725779077
2025-11-07 18:06:43.714279,5888,2025-11-07 18:06:44.733471385
2025-11-07 18:06:43.714279,0,2025-11-07 18:06:44.741163692
2025-11-07 18:06:43.714279,2,2025-11-07 18:06:44.748856000
2025-11-07 18:06:43.714279,-6656,2025-11-07 18:06:44.756548308
2025-11-07 18:06:43.714279,-1,2025-11-07 18:06:44.764240615
2025-11-07 18:06:43.714279,-37,2025-11-07 18:06:44.771932923
2025-11-07 18:06:43.714279,-9217,2025-11-07 18:06:44.779625231
2025-11-07 18:06:43.714279,-1,2025-11-07 18:06:44.787317538
2025-11-07 18:06:43.714279,-33,2025-11-07 18:06:44.795009846
2025-11-07 18:06:43.714279,-257,2025-11-07 18:06:44.802702154
2025-11-07 18:06:43.714279,-1,2025-11-07 18:06:44.810394462
2025-11-07 18:06:43.714279,42,2025-11-07 18:06:44.818086769
2025-11-07 18:06:43.714279,13312,2025-11-07 18:06:44.825779077
2025-11-07 18:06:43.714279,0,2025-11-07 18:06:44.833471385
2025-11-07 18:06:43.714279,30,2025-11-07 18:06:44.841163692
2025-11-07 18:06:43.714279,5888,2025-11-07 18:06:44.848856000
2025-11-07 18:06:43.714279,0,2025-11-07 18:06:44.856548308
2025-11-07 18:06:43.714279,33,2025-11-07 18:06:44.864240615
2025-11-07 18:06:43.714279,8960,2025-11-07 18:06:44.871932923
2025-11-07 18:06:43.714279,0,2025-11-07 18:06:44.879625231
2025-11-07 18:06:43.714279,33,2025-11-07 18:06:44.887317538
2025-11-07 18:06:43.714279,8448,2025-11-07 18:06:44.895009846
2025-11-07 18:06:43.714279,0,2025-11-07 18:06:44.902702154
2025-11-07 18:06:43.714279,33,2025-11-07 18:06:44.910394462
2025-11-07 18:06:43.714279,-512,2025-11-07 18:06:44.918086769
2025-11-07 18:06:43.714279,-1,2025-11-07 18:06:44.925779077
2025-11-07 18:06:43.714279,-89,2025-11-07 18:06:44.933471385
2025-11-07 18:06:43.714279,22015,2025-11-07 18:06:44.941163692
2025-11-07 18:06:43.714279,0,2025-11-07 18:06:44.948856000
2025-11-07 18:06:43.714279,929,2025-11-07 18:06:44.956548308
2025-11-07 18:06:43.714279,-768,2025-11-07 18:06:44.964240615
2025-11-07 18:06:43.714279,6,2025-11-07 18:06:44.971932923
2025-11-07 18:06:43.714279,1208,2025-11-07 18:06:44.979625231
2025-11-07 18:06:43.714279,24576,2025-11-07 18:06:44.987317538
2025-11-07 18:06:43.714279,-1,2025-11-07 18:06:44.995009846
2025-11-07 18:06:43.714279,-260,2025-11-07 18:06:45.002702154
2025-11-07 18:06:43.714279,3071,2025-11-07 18:06:45.010394462
2025-11-07 18:06:43.714279,1,2025-11-07 18:06:45.018086769
2025-11-07 18:06:43.714279,40,2025-11-07 18:06:45.025779077
2025-11-07 18:06:43.714279,11776,2025-11-07 18:06:45.033471385
2025-11-07 18:06:43.714279,-1,2025-11-07 18:06:45.041163692
2025-11-07 18:06:43.714279,-59,2025-11-07 18:06:45.048856000
2025-11-07 18:06:43.714279,-9217,2025-11-07 18:06:45.056548308
2025-11-07 18:06:43.714279,-1,2025-11-07 18:06:45.064240615
2025-11-07 18:06:43.714279,-122,2025-11-07 18:06:45.071932923
2025-11-07 18:06:43.714279,-21505,2025-11-07 18:06:45.079625231
2025-11-07 18:06:43.714279,-1,2025-11-07 18:06:45.087317538
2025-11-07 18:06:43.714279,-54,2025-11-07 18:06:45.095009846
2025-11-07 18:06:43.714279,-20737,2025-11-07 18:06:45.102702154
2025-11-07 18:06:43.714279,-1,2025-11-07 18:06:45.110394462
2025-11-07 18:06:43.714279,-75,2025-11-07 18:06:45.118086769
2025-11-07 18:06:43.714279,-14849,2025-11-07 18:06:45.125779077
2025-11-07 18:06:43.714279,-1,2025-11-07 18:06:45.133471385
2025-11-07 18:06:43.714279,-66,2025-11-07 18:06:45.141163692
2025-11-07 18:06:43.714279,-17153,2025-11-07 18:06:45.148856000
2025-11-07 18:06:43.714279,-1,2025-11-07 18:06:45.156548308
2025-11-07 18:06:43.714279,-63,2025-11-07 18:06:45.164240615
2025-11-07 18:06:43.714279,-16641,2025-11-07 18:06:45.171932923
2025-11-07 18:06:43.714279,-1,2025-11-07 18:06:45.179625231
2025-11-07 18:06:43.714279,-63,2025-11-07 18:06:45.187317538
2025-11-07 18:06:43.714279,-15873,2025-11-07 18:06:45.195009846
2025-11-07 18:06:43.714279,-1,2025-11-07 18:06:45.202702154
2025-11-07 18:06:43.714279,-73,2025-11-07 18:06:45.210394462
2025-11-07 18:06:43.714279,-19713,2025-11-07 18:06:45.218086769
2025-11-07 18:06:43.714279,-1,2025-11-07 18:06:45.225779077
2025-11-07 18:06:43.714279,-75,2025-11-07 18:06:45.233471385
2025-11-07 18:06:43.714279,-18433,2025-11-07 18:06:45.241163692
2025-11-07 18:06:43.714279,-1,2025-11-07 18:06:45.248856000
2025-11-07 18:06:43.714279,-66,2025-11-07 18:06:45.256548308
2025-11-07 18:06:43.714279,-13569,2025-11-07 18:06:45.264240615
2025-11-07 18:06:43.714279,-1,2025-11-07 18:06:45.271932923
2025-11-07 18:06:43.714279,-40,2025-11-07 18:06:45.279625231
2025-11-07 18:06:43.714279,-5633,2025-11-07 18:06:45.287317538
2025-11-07 18:06:43.714279,-1,2025-11-07 18:06:45.295009846
2025-11-07 18:06:43.714279,-2,2025-11-07 18:06:45.302702154
2025-11-07 18:06:43.714279,7935,2025-11-07 18:06:45.310394462
2025-11-07 18:06:43.714279,0,2025-11-07 18:06:45.318086769
2025-11-07 18:06:43.714279,56,2025-11-07 18:06:45.325779077
2025-11-07 18:06:43.714279,14336,2025-11-07 18:06:45.333471385
2025-11-07 18:06:43.714279,0,2025-11-07 18:06:45.341163692
2025-11-07 18:06:43.714279,33,2025-11-07 18:06:45.348856000
2025-11-07 18:06:43.714279,2304,2025-11-07 18:06:45.356548308
2025-11-07 18:06:43.714279,0,2025-11-07 18:06:45.364240615
2025-11-07 18:06:43.714279,-7,2025-11-07 18:06:45.371932923
2025-11-07 18:06:43.714279,-3841,2025-11-07 18:06:45.379625231
2025-11-07 18:06:43.714279,-1,2025-11-07 18:06:45.387317538
2025-11-07 18:06:43.714279,-26,2025-11-07 18:06:45.395009846
2025-11-07 18:06:44.250786,-30,2025-11-07 18:06:45.402702154
2025-11-07 18:06:44.250786,-8193,2025-11-07 18:06:45.410394462
2025-11-07 18:06:44.250786,-1,2025-11-07 18:06:45.418086769
2025-11-07 18:06:44.250786,-30,2025-11-07 18:06:45.425779077
2025-11-07 18:06:44.250786,-7425,2025-11-07 18:06:45.433471385
2025-11-07 18:06:44.250786,-1,2025-11-07 18:06:45.441163692
2025-11-07 18:06:44.250786,-28,2025-11-07 18:06:45.448856000
2025-11-07 18:06:44.250786,-5633,2025-11-07 18:06:45.456548308
2025-11-07 18:06:44.250786,-1,2025-11-07 18:06:45.464240615
2025-11-07 18:06:44.250786,-23,2025-11-07 18:06:45.471932923
2025-11-07 18:06:44.250786,-5121,2025-11-07 18:06:45.479625231
2025-11-07 18:06:44.250786,-1,2025-11-07 18:06:45.487317538
2025-11-07 18:06:44.250786,-16,2025-11-07 18:06:45.495009846
2025-11-07 18:06:44.250786,-3841,2025-11-07 18:06:45.502702154
2025-11-07 18:06:44.250786,-1,2025-11-07 18:06:45.510394462
2025-11-07 18:06:44.250786,-4,2025-11-07 18:06:45.518086769
2025-11-07 18:06:44.250786,3839,2025-11-07 18:06:45.525779077
2025-11-07 18:06:44.250786,0,2025-11-07 18:06:45.533471385
2025-11-07 18:06:44.250786,11,2025-11-07 18:06:45.541163692
2025-11-07 18:06:44.250786,1024,2025-11-07 18:06:45.548856000
2025-11-07 18:06:44.250786,0,2025-11-07 18:06:45.556548308
2025-11-07 18:06:44.250786,9,2025-11-07 18:06:45.564240615
2025-11-07 18:06:44.250786,4096,2025-11-07 18:06:45.571932923
2025-11-07 18:06:44.250786,0,2025-11-07 18:06:45.579625230
2025-11-07 18:06:44.250786,16,2025-11-07 18:06:45.587317538
2025-11-07 18:06:44.250786,4608,2025-11-07 18:06:45.595009846
2025-11-07 18:06:44.250786,0,2025-11-07 18:06:45.602702154
2025-11-07 18:06:44.250786,18,2025-11-07 18:06:45.610394462
2025-11-07 18:06:44.250786,5376,2025-11-07 18:06:45.618086769
2025-11-07 18:06:44.250786,0,2025-11-07 18:06:45.625779077
2025-11-07 18:06:44.250786,23,2025-11-07 18:06:45.633471385
2025-11-07 18:06:44.250786,5888,2025-11-07 18:06:45.641163692
2025-11-07 18:06:44.250786,0,2025-11-07 18:06:45.648856000
2025-11-07 18:06:44.250786,26,2025-11-07 18:06:45.656548308
2025-11-07 18:06:44.250786,7168,2025-11-07 18:06:45.664240615
2025-11-07 18:06:44.250786,0,2025-11-07 18:06:45.671932923
2025-11-07 18:06:44.250786,26,2025-11-07 18:06:45.679625231
2025-11-07 18:06:44.250786,5376,2025-11-07 18:06:45.687317538
2025-11-07 18:06:44.250786,0,2025-11-07 18:06:45.695009846
2025-11-07 18:06:44.250786,21,2025-11-07 18:06:45.702702154
2025-11-07 18:06:44.250786,4608,2025-11-07 18:06:45.710394462
2025-11-07 18:06:44.250786,0,2025-11-07 18:06:45.718086769
2025-11-07 18:06:44.250786,18,2025-11-07 18:06:45.725779077
2025-11-07 18:06:44.250786,4608,2025-11-07 18:06:45.733471385
2025-11-07 18:06:44.250786,0,2025-11-07 18:06:45.741163692
2025-11-07 18:06:44.250786,18,2025-11-07 18:06:45.748856000
2025-11-07 18:06:44.250786,4096,2025-11-07 18:06:45.756548308
2025-11-07 18:06:44.250786,0,2025-11-07 18:06:45.764240615
2025-11-07 18:06:44.250786,16,2025-11-07 18:06:45.771932923
2025-11-07 18:06:44.250786,4096,2025-11-07 18:06:45.779625231
2025-11-07 18:06:44.250786,0,2025-11-07 18:06:45.787317538
2025-11-07 18:06:44.250786,18,2025-11-07 18:06:45.795009846
2025-11-07 18:06:44.250786,4608,2025-11-07 18:06:45.802702154
2025-11-07 18:06:44.250786,0,2025-11-07 18:06:45.810394462
2025-11-07 18:06:44.250786,14,2025-11-07 18:06:45.818086769
2025-11-07 18:06:44.250786,2816,2025-11-07 18:06:45.825779077
2025-11-07 18:06:44.250786,0,2025-11-07 18:06:45.833471385
2025-11-07 18:06:44.250786,11,2025-11-07 18:06:45.841163692
2025-11-07 18:06:44.250786,2816,2025-11-07 18:06:45.848856000
2025-11-07 18:06:44.250786,0,2025-11-07 18:06:45.856548308
2025-11-07 18:06:44.250786,11,2025-11-07 18:06:45.864240615
2025-11-07 18:06:44.250786,2816,2025-11-07 18:06:45.871932923
2025-11-07 18:06:44.250786,0,2025-11-07 18:06:45.879625231
2025-11-07 18:06:44.250786,16,2025-11-07 18:06:45.887317538
2025-11-07 18:06:44.250786,4096,2025-11-07 18:06:45.895009846
2025-11-07 18:06:44.250786,0,2025-11-07 18:06:45.902702154
2025-11-07 18:06:44.250786,2,2025-11-07 18:06:45.910394462
2025-11-07 18:06:44.250786,-5376,2025-11-07 18:06:45.918086769
2025-11-07 18:06:44.250786,-1,2025-11-07 18:06:45.925779077
2025-11-07 18:06:44.250786,-37,2025-11-07 18:06:45.933471385
2025-11-07 18:06:44.250786,-10497,2025-11-07 18:06:45.941163692
2025-11-07 18:06:44.250786,-1,2025-11-07 18:06:45.948856000
2025-11-07 18:06:44.250786,-40,2025-11-07 18:06:45.956548308
2025-11-07 18:06:44.250786,-5121,2025-11-07 18:06:45.964240615
2025-11-07 18:06:44.250786,-1,2025-11-07 18:06:45.971932923
2025-11-07 18:06:44.250786,14,2025-11-07 18:06:45.979625231
2025-11-07 18:06:44.250786,10240,2025-11-07 18:06:45.987317538
2025-11-07 18:06:44.250786,0,2025-11-07 18:06:45.995009846
2025-11-07 18:06:44.250786,40,2025-11-07 18:06:46.002702154
2025-11-07 18:06:44.250786,4608,2025-11-07 18:06:46.010394462
2025-11-07 18:06:44.250786,0,2025-11-07 18:06:46.018086769
2025-11-07 18:06:44.250786,14,2025-11-07 18:06:46.025779077
2025-11-07 18:06:44.250786,6656,2025-11-07 18:06:46.033471385
2025-11-07 18:06:44.250786,0,2025-11-07 18:06:46.041163692
2025-11-07 18:06:44.250786,33,2025-11-07 18:06:46.048856000
2025-11-07 18:06:44.250786,8448,2025-11-07 18:06:46.056548308
2025-11-07 18:06:44.250786,0,2025-11-07 18:06:46.064240615
2025-11-07 18:06:44.250786,35,2025-11-07 18:06:46.071932923
2025-11-07 18:06:44.250786,-1792,2025-11-07 18:06:46.079625231
2025-11-07 18:06:44.250786,-1,2025-11-07 18:06:46.087317538
2025-11-07 18:06:44.250786,-80,2025-11-07 18:06:46.095009846
2025-11-07 18:06:44.250786,-24833,2025-11-07 18:06:46.102702154
2025-11-07 18:06:44.250786,0,2025-11-07 18:06:46.110394462
2025-11-07 18:06:44.250786,1018,2025-11-07 18:06:46.118086769
2025-11-07 18:06:44.250786,512,2025-11-07 18:06:46.125779077
2025-11-07 18:06:44.250786,7,2025-11-07 18:06:46.133471385
2025-11-07 18:06:44.250786,1250,2025-11-07 18:06:46.141163692
2025-11-07 18:06:44.250786,8960,2025-11-07 18:06:46.148856000
2025-11-07 18:06:44.250786,0,2025-11-07 18:06:46.156548308
2025-11-07 18:06:44.250786,-115,2025-11-07 18:06:46.164240615
2025-11-07 18:06:44.250786,-6145,2025-11-07 18:06:46.171932923
2025-11-07 18:06:44.250786,0,2025-11-07 18:06:46.179625231
2025-11-07 18:06:44.250786,-18,2025-11-07 18:06:46.187317538
2025-11-07 18:06:44.250786,12031,2025-11-07 18:06:46.195009846
2025-11-07 18:06:44.250786,-1,2025-11-07 18:06:46.202702154
2025-11-07 18:06:44.250786,-66,2025-11-07 18:06:46.210394462
2025-11-07 18:06:44.250786,-15361,2025-11-07 18:06:46.218086769
2025-11-07 18:06:44.250786,-1,2025-11-07 18:06:46.225779077
2025-11-07 18:06:44.250786,-137,2025-11-07 18:06:46.233471385
2025-11-07 18:06:44.838998,-89,2025-11-07 18:06:46.241163692
2025-11-07 18:06:44.838998,-14849,2025-11-07 18:06:46.248856000
2025-11-07 18:06:44.838998,-1,2025-11-07 18:06:46.256548308
2025-11-07 18:06:44.838998,-82,2025-11-07 18:06:46.264240615
2025-11-07 18:06:44.838998,-18945,2025-11-07 18:06:46.271932923
2025-11-07 18:06:44.838998,-1,2025-11-07 18:06:46.279625231
2025-11-07 18:06:44.838998,-59,2025-11-07 18:06:46.287317538
2025-11-07 18:06:44.838998,-16641,2025-11-07 18:06:46.295009846
2025-11-07 18:06:44.838998,-1,2025-11-07 18:06:46.302702154
2025-11-07 18:06:44.838998,-68,2025-11-07 18:06:46.310394462
2025-11-07 18:06:44.838998,-14081,2025-11-07 18:06:46.318086769
2025-11-07 18:06:44.838998,-1,2025-11-07 18:06:46.325779077
2025-11-07 18:06:44.838998,-44,2025-11-07 18:06:46.333471385
2025-11-07 18:06:44.838998,-11777,2025-11-07 18:06:46.341163692
2025-11-07 18:06:44.838998,-1,2025-11-07 18:06:46.348856000
2025-11-07 18:06:44.838998,-52,2025-11-07 18:06:46.356548308
2025-11-07 18:06:44.838998,-14081,2025-11-07 18:06:46.364240615
2025-11-07 18:06:44.838998,-1,2025-11-07 18:06:46.371932923
2025-11-07 18:06:44.838998,-61,2025-11-07 18:06:46.379625231
2025-11-07 18:06:44.838998,-16641,2025-11-07 18:06:46.387317538
2025-11-07 18:06:44.838998,-1,2025-11-07 18:06:46.395009846
2025-11-07 18:06:44.838998,-63,2025-11-07 18:06:46.402702154
2025-11-07 18:06:44.838998,-13057,2025-11-07 18:06:46.410394462
2025-11-07 18:06:44.838998,-1,2025-11-07 18:06:46.418086769
2025-11-07 18:06:44.838998,-33,2025-11-07 18:06:46.425779077
2025-11-07 18:06:44.838998,-3841,2025-11-07 18:06:46.433471385
2025-11-07 18:06:44.838998,-1,2025-11-07 18:06:46.441163692
2025-11-07 18:06:44.838998,2,2025-11-07 18:06:46.448856000
2025-11-07 18:06:44.838998,7680,2025-11-07 18:06:46.456548308
2025-11-07 18:06:44.838998,0,2025-11-07 18:06:46.464240615
2025-11-07 18:06:44.838998,63,2025-11-07 18:06:46.471932923
2025-11-07 18:06:44.838998,22272,2025-11-07 18:06:46.479625231
2025-11-07 18:06:44.838998,0,2025-11-07 18:06:46.487317538
2025-11-07 18:06:44.838998,89,2025-11-07 18:06:46.495009846
2025-11-07 18:06:44.838998,16896,2025-11-07 18:06:46.502702154
2025-11-07 18:06:44.838998,0,2025-11-07 18:06:46.510394462
2025-11-07 18:06:44.838998,35,2025-11-07 18:06:46.518086769
2025-11-07 18:06:44.838998,4608,2025-11-07 18:06:46.525779077
2025-11-07 18:06:44.838998,0,2025-11-07 18:06:46.533471385
2025-11-07 18:06:44.838998,16,2025-11-07 18:06:46.541163692
2025-11-07 18:06:44.838998,4096,2025-11-07 18:06:46.548856000
2025-11-07 18:06:44.838998,0,2025-11-07 18:06:46.556548308
2025-11-07 18:06:44.838998,0,2025-11-07 18:06:46.564240615
2025-11-07 18:06:44.838998,-2816,2025-11-07 18:06:46.571932923
2025-11-07 18:06:44.838998,-1,2025-11-07 18:06:46.579625230
2025-11-07 18:06:44.838998,-4,2025-11-07 18:06:46.587317538
2025-11-07 18:06:44.838998,-2049,2025-11-07 18:06:46.595009846
2025-11-07 18:06:44.838998,-1,2025-11-07 18:06:46.602702154
2025-11-07 18:06:44.838998,-23,2025-11-07 18:06:46.610394462
2025-11-07 18:06:44.838998,-5121,2025-11-07 18:06:46.618086769
2025-11-07 18:06:44.838998,-1,2025-11-07 18:06:46.625779077
2025-11-07 18:06:44.838998,-9,2025-11-07 18:06:46.633471385
2025-11-07 18:06:44.838998,-5121,2025-11-07 18:06:46.641163692
2025-11-07 18:06:44.838998,-1,2025-11-07 18:06:46.648856000
2025-11-07 18:06:44.838998,-35,2025-11-07 18:06:46.656548308
2025-11-07 18:06:44.838998,-6913,2025-11-07 18:06:46.664240615
2025-11-07 18:06:44.838998,-1,2025-11-07 18:06:46.671932923
2025-11-07 18:06:44.838998,-21,2025-11-07 18:06:46.679625231
2025-11-07 18:06:44.838998,-7425,2025-11-07 18:06:46.687317538
2025-11-07 18:06:44.838998,-1,2025-11-07 18:06:46.695009846
2025-11-07 18:06:44.838998,-37,2025-11-07 18:06:46.702702154
2025-11-07 18:06:44.838998,-8705,2025-11-07 18:06:46.710394462
2025-11-07 18:06:44.838998,-1,2025-11-07 18:06:46.718086769
2025-11-07 18:06:44.838998,-33,2025-11-07 18:06:46.725779077
2025-11-07 18:06:44.838998,-9985,2025-11-07 18:06:46.733471385
2025-11-07 18:06:44.838998,-1,2025-11-07 18:06:46.741163692
2025-11-07 18:06:44.838998,-47,2025-11-07 18:06:46.748856000
2025-11-07 18:06:44.838998,-11777,2025-11-07 18:06:46.756548308
2025-11-07 18:06:44.838998,-1,2025-11-07 18:06:46.764240615
2025-11-07 18:06:44.838998,-47,2025-11-07 18:06:46.771932923
2025-11-07 18:06:44.838998,-10497,2025-11-07 18:06:46.779625231
2025-11-07 18:06:44.838998,-1,2025-11-07 18:06:46.787317538
2025-11-07 18:06:44.838998,-30,2025-11-07 18:06:46.795009846
2025-11-07 18:06:44.838998,-6913,2025-11-07 18:06:46.802702154
2025-11-07 18:06:44.838998,-1,2025-11-07 18:06:46.810394462
2025-11-07 18:06:44.838998,-30,2025-11-07 18:06:46.818086769
2025-11-07 18:06:44.838998,-7425,2025-11-07 18:06:46.825779077
2025-11-07 18:06:44.838998,-1,2025-11-07 18:06:46.833471385
2025-11-07 18:06:44.838998,-28,2025-11-07 18:06:46.841163692
2025-11-07 18:06:44.838998,-7425,2025-11-07 18:06:46.848856000
2025-11-07 18:06:44.838998,-1,2025-11-07 18:06:46.856548308
2025-11-07 18:06:44.838998,-28,2025-11-07 18:06:46.864240615
2025-11-07 18:06:44.838998,-5121,2025-11-07 18:06:46.871932923
2025-11-07 18:06:44.838998,-1,2025-11-07 18:06:46.879625231
2025-11-07 18:06:44.838998,-21,2025-11-07 18:06:46.887317538
2025-11-07 18:06:44.838998,-3841,2025-11-07 18:06:46.895009846
2025-11-07 18:06:44.838998,-1,2025-11-07 18:06:46.902702154
2025-11-07 18:06:44.838998,-9,2025-11-07 18:06:46.910394462
2025-11-07 18:06:44.838998,-4353,2025-11-07 18:06:46.918086769
2025-11-07 18:06:44.838998,-1,2025-11-07 18:06:46.925779077
2025-11-07 18:06:44.838998,-28,2025-11-07 18:06:46.933471385
2025-11-07 18:06:44.838998,-5121,2025-11-07 18:06:46.941163692
2025-11-07 18:06:44.838998,-1,2025-11-07 18:06:46.948856000
2025-11-07 18:06:44.838998,-11,2025-11-07 18:06:46.956548308
2025-11-07 18:06:44.838998,-5121,2025-11-07 18:06:46.964240615
2025-11-07 18:06:44.838998,-1,2025-11-07 18:06:46.971932923
2025-11-07 18:06:44.838998,-21,2025-11-07 18:06:46.979625231
2025-11-07 18:06:44.838998,-2561,2025-11-07 18:06:46.987317538
2025-11-07 18:06:44.838998,-1,2025-11-07 18:06:46.995009846
2025-11-07 18:06:44.838998,-14,2025-11-07 18:06:47.002702154
2025-11-07 18:06:44.838998,-4353,2025-11-07 18:06:47.010394462
2025-11-07 18:06:44.838998,-1,2025-11-07 18:06:47.018086769
2025-11-07 18:06:44.838998,-16,2025-11-07 18:06:47.025779077
2025-11-07 18:06:44.838998,-5633,2025-11-07 18:06:47.033471385
2025-11-07 18:06:44.838998,-1,2025-11-07 18:06:47.041163692
2025-11-07 18:06:44.838998,-28,2025-11-07 18:06:47.048856000
2025-11-07 18:06:44.838998,-5633,2025-11-07 18:06:47.056548308
2025-11-07 18:06:44.838998,-1,2025-11-07 18:06:47.064240615
2025-11-07 18:06:44.838998,-23,2025-11-07 18:06:47.071932923
2025-11-07 18:06:45.378976,-30,2025-11-07 18:06:47.079625231
2025-11-07 18:06:45.378976,-8193,2025-11-07 18:06:47.087317538
2025-11-07 18:06:45.378976,-1,2025-11-07 18:06:47.095009846
2025-11-07 18:06:45.378976,-30,2025-11-07 18:06:47.102702154
2025-11-07 18:06:45.378976,-7425,2025-11-07 18:06:47.110394462
2025-11-07 18:06:45.378976,-1,2025-11-07 18:06:47.118086769
2025-11-07 18:06:45.378976,-33,2025-11-07 18:06:47.125779077
2025-11-07 18:06:45.378976,-7425,2025-11-07 18:06:47.133471385
2025-11-07 18:06:45.378976,-1,2025-11-07 18:06:47.141163692
2025-11-07 18:06:45.378976,-26,2025-11-07 18:06:47.148856000
2025-11-07 18:06:45.378976,-7425,2025-11-07 18:06:47.156548308
2025-11-07 18:06:45.378976,-1,2025-11-07 18:06:47.164240615
2025-11-07 18:06:45.378976,-35,2025-11-07 18:06:47.171932923
2025-11-07 18:06:45.378976,-8193,2025-11-07 18:06:47.179625231
2025-11-07 18:06:45.378976,-1,2025-11-07 18:06:47.187317538
2025-11-07 18:06:45.378976,-23,2025-11-07 18:06:47.195009846
2025-11-07 18:06:45.378976,-2049,2025-11-07 18:06:47.202702154
2025-11-07 18:06:45.378976,-1,2025-11-07 18:06:47.210394462
2025-11-07 18:06:45.378976,2,2025-11-07 18:06:47.218086769
2025-11-07 18:06:45.378976,-512,2025-11-07 18:06:47.225779077
2025-11-07 18:06:45.378976,-1,2025-11-07 18:06:47.233471385
2025-11-07 18:06:45.378976,2,2025-11-07 18:06:47.241163692
2025-11-07 18:06:45.378976,2816,2025-11-07 18:06:47.248856000
2025-11-07 18:06:45.378976,0,2025-11-07 18:06:47.256548308
2025-11-07 18:06:45.378976,-11,2025-11-07 18:06:47.264240615
2025-11-07 18:06:45.378976,-5121,2025-11-07 18:06:47.271932923
2025-11-07 18:06:45.378976,-1,2025-11-07 18:06:47.279625231
2025-11-07 18:06:45.378976,-4,2025-11-07 18:06:47.287317538
2025-11-07 18:06:45.378976,-6401,2025-11-07 18:06:47.295009846
2025-11-07 18:06:45.378976,-1,2025-11-07 18:06:47.302702154
2025-11-07 18:06:45.378976,-49,2025-11-07 18:06:47.310394462
2025-11-07 18:06:45.378976,-11777,2025-11-07 18:06:47.318086769
2025-11-07 18:06:45.378976,-1,2025-11-07 18:06:47.325779077
2025-11-07 18:06:45.378976,-59,2025-11-07 18:06:47.333471385
2025-11-07 18:06:45.378976,-23297,2025-11-07 18:06:47.341163692
2025-11-07 18:06:45.378976,-1,2025-11-07 18:06:47.348856000
2025-11-07 18:06:45.378976,-104,2025-11-07 18:06:47.356548308
2025-11-07 18:06:45.378976,-16641,2025-11-07 18:06:47.364240615
2025-11-07 18:06:45.378976,-1,2025-11-07 18:06:47.371932923
2025-11-07 18:06:45.378976,-23,2025-11-07 18:06:47.379625231
2025-11-07 18:06:45.378976,-6401,2025-11-07 18:06:47.387317538
2025-11-07 18:06:45.378976,-1,2025-11-07 18:06:47.395009846
2025-11-07 18:06:45.378976,-52,2025-11-07 18:06:47.402702154
2025-11-07 18:06:45.378976,-18433,2025-11-07 18:06:47.410394462
2025-11-07 18:06:45.378976,-1,2025-11-07 18:06:47.418086769
2025-11-07 18:06:45.378976,-82,2025-11-07 18:06:47.425779077
2025-11-07 18:06:45.378976,-20225,2025-11-07 18:06:47.433471385
2025-11-07 18:06:45.378976,-1,2025-11-07 18:06:47.441163692
2025-11-07 18:06:45.378976,-85,2025-11-07 18:06:47.448856000
2025-11-07 18:06:45.378976,-22017,2025-11-07 18:06:47.456548308
2025-11-07 18:06:45.378976,-1,2025-11-07 18:06:47.464240615
2025-11-07 18:06:45.378976,-101,2025-11-07 18:06:47.471932923
2025-11-07 18:06:45.378976,24831,2025-11-07 18:06:47.479625231
2025-11-07 18:06:45.378976,-1,2025-11-07 18:06:47.487317538
2025-11-07 18:06:45.378976,-182,2025-11-07 18:06:47.495009846
2025-11-07 18:06:45.378976,-11521,2025-11-07 18:06:47.502702154
2025-11-07 18:06:45.378976,0,2025-11-07 18:06:47.510394462
2025-11-07 18:06:45.378976,1132,2025-11-07 18:06:47.518086769
2025-11-07 18:06:45.378976,24832,2025-11-07 18:06:47.525779077
2025-11-07 18:06:45.378976,6,2025-11-07 18:06:47.533471385
2025-11-07 18:06:45.378976,737,2025-11-07 18:06:47.541163692
2025-11-07 18:06:45.378976,-32256,2025-11-07 18:06:47.548856000
2025-11-07 18:06:45.378976,-2,2025-11-07 18:06:47.556548308
2025-11-07 18:06:45.378976,-255,2025-11-07 18:06:47.564240615
2025-11-07 18:06:45.378976,13567,2025-11-07 18:06:47.571932923
2025-11-07 18:06:45.378976,0,2025-11-07 18:06:47.579625230
2025-11-07 18:06:45.378976,-250,2025-11-07 18:06:47.587317538
2025-11-07 18:06:45.378976,-23041,2025-11-07 18:06:47.595009846
2025-11-07 18:06:45.378976,-2,2025-11-07 18:06:47.602702154
2025-11-07 18:06:45.378976,-200,2025-11-07 18:06:47.610394462
2025-11-07 18:06:45.378976,4863,2025-11-07 18:06:47.618086769
2025-11-07 18:06:45.378976,-1,2025-11-07 18:06:47.625779077
2025-11-07 18:06:45.378976,-293,2025-11-07 18:06:47.633471385
2025-11-07 18:06:45.378976,5375,2025-11-07 18:06:47.641163692
2025-11-07 18:06:45.378976,-1,2025-11-07 18:06:47.648856000
2025-11-07 18:06:45.378976,-229,2025-11-07 18:06:47.656548308
2025-11-07 18:06:45.378976,1791,2025-11-07 18:06:47.664240615
2025-11-07 18:06:45.378976,-1,2025-11-07 18:06:47.671932923
2025-11-07 18:06:45.378976,-224,2025-11-07 18:06:47.679625231
2025-11-07 18:06:45.378976,12031,2025-11-07 18:06:47.687317538
2025-11-07 18:06:45.378976,-1,2025-11-07 18:06:47.695009846
2025-11-07 18:06:45.378976,-189,2025-11-07 18:06:47.702702154
2025-11-07 18:06:45.378976,27903,2025-11-07 18:06:47.710394462
2025-11-07 18:06:45.378976,-1,2025-11-07 18:06:47.718086769
2025-11-07 18:06:45.378976,-177,2025-11-07 18:06:47.725779077
2025-11-07 18:06:45.378976,15615,2025-11-07 18:06:47.733471385
2025-11-07 18:06:45.378976,-1,2025-11-07 18:06:47.741163692
2025-11-07 18:06:45.378976,-153,2025-11-07 18:06:47.748856000
2025-11-07 18:06:45.378976,25855,2025-11-07 18:06:47.756548308
2025-11-07 18:06:45.378976,-1,2025-11-07 18:06:47.764240615
2025-11-07 18:06:45.378976,-234,2025-11-07 18:06:47.771932923
2025-11-07 18:06:45.378976,-3585,2025-11-07 18:06:47.779625231
2025-11-07 18:06:45.378976,-2,2025-11-07 18:06:47.787317538
2025-11-07 18:06:45.378976,-215,2025-11-07 18:06:47.795009846
2025-11-07 18:06:45.378976,18687,2025-11-07 18:06:47.802702154
2025-11-07 18:06:45.378976,-1,2025-11-07 18:06:47.810394462
2025-11-07 18:06:45.378976,-203,2025-11-07 18:06:47.818086769
2025-11-07 18:06:45.378976,13823,2025-11-07 18:06:47.825779077
2025-11-07 18:06:45.378976,-1,2025-11-07 18:06:47.833471385
2025-11-07 18:06:45.378976,-217,2025-11-07 18:06:47.841163692
2025-11-07 18:06:45.378976,11519,2025-11-07 18:06:47.848856000
2025-11-07 18:06:45.378976,-1,2025-11-07 18:06:47.856548308
2025-11-07 18:06:45.378976,-177,2025-11-07 18:06:47.864240615
2025-11-07 18:06:45.378976,21247,2025-11-07 18:06:47.871932923
2025-11-07 18:06:45.378976,-1,2025-11-07 18:06:47.879625231
2025-11-07 18:06:45.378976,-198,2025-11-07 18:06:47.887317538
2025-11-07 18:06:45.378976,7935,2025-11-07 18:06:47.895009846
2025-11-07 18:06:45.378976,-1,2025-11-07 18:06:47.902702154
2025-11-07 18:06:45.378976,-250,2025-11-07 18:06:47.910394462
2025-11-07 18:06:45.961061,-290,2025-11-07 18:06:47.918086769
2025-11-07 18:06:45.961061,-24321,2025-11-07 18:06:47.925779077
2025-11-07 18:06:45.961061,-2,2025-11-07 18:06:47.933471385
2025-11-07 18:06:45.961061,-382,2025-11-07 18:06:47.941163692
2025-11-07 18:06:45.961061,-30209,2025-11-07 18:06:47.948856000
2025-11-07 18:06:45.961061,-2,2025-11-07 18:06:47.956548308
2025-11-07 18:06:45.961061,-368,2025-11-07 18:06:47.964240615
2025-11-07 18:06:45.961061,-26625,2025-11-07 18:06:47.971932923
2025-11-07 18:06:45.961061,-2,2025-11-07 18:06:47.979625231
2025-11-07 18:06:45.961061,-356,2025-11-07 18:06:47.987317538
2025-11-07 18:06:45.961061,-26625,2025-11-07 18:06:47.995009846
2025-11-07 18:06:45.961061,-2,2025-11-07 18:06:48.002702154
2025-11-07 18:06:45.961061,-354,2025-11-07 18:06:48.010394462
2025-11-07 18:06:45.961061,-19457,2025-11-07 18:06:48.018086769
2025-11-07 18:06:45.961061,-2,2025-11-07 18:06:48.025779077
2025-11-07 18:06:45.961061,-314,2025-11-07 18:06:48.033471385
2025-11-07 18:06:45.961061,-17665,2025-11-07 18:06:48.041163692
2025-11-07 18:06:45.961061,-2,2025-11-07 18:06:48.048856000
2025-11-07 18:06:45.961061,-356,2025-11-07 18:06:48.056548308
2025-11-07 18:06:45.961061,-23553,2025-11-07 18:06:48.064240615
2025-11-07 18:06:45.961061,-2,2025-11-07 18:06:48.071932923
2025-11-07 18:06:45.961061,-309,2025-11-07 18:06:48.079625231
2025-11-07 18:06:45.961061,-9217,2025-11-07 18:06:48.087317538
2025-11-07 18:06:45.961061,-2,2025-11-07 18:06:48.095009846
2025-11-07 18:06:45.961061,-297,2025-11-07 18:06:48.102702154
2025-11-07 18:06:45.961061,-6657,2025-11-07 18:06:48.110394462
2025-11-07 18:06:45.961061,-2,2025-11-07 18:06:48.118086769
2025-11-07 18:06:45.961061,-271,2025-11-07 18:06:48.125779077
2025-11-07 18:06:45.961061,-7937,2025-11-07 18:06:48.133471385
2025-11-07 18:06:45.961061,-2,2025-11-07 18:06:48.141163692
2025-11-07 18:06:45.961061,-321,2025-11-07 18:06:48.148856000
2025-11-07 18:06:45.961061,-23041,2025-11-07 18:06:48.156548308
2025-11-07 18:06:45.961061,-2,2025-11-07 18:06:48.164240615
2025-11-07 18:06:45.961061,-340,2025-11-07 18:06:48.171932923
2025-11-07 18:06:45.961061,-24833,2025-11-07 18:06:48.179625231
2025-11-07 18:06:45.961061,-2,2025-11-07 18:06:48.187317538
2025-11-07 18:06:45.961061,-404,2025-11-07 18:06:48.195009846
2025-11-07 18:06:45.961061,30975,2025-11-07 18:06:48.202702154
2025-11-07 18:06:45.961061,-2,2025-11-07 18:06:48.210394462
2025-11-07 18:06:45.961061,-356,2025-11-07 18:06:48.218086769
2025-11-07 18:06:45.961061,-29185,2025-11-07 18:06:48.225779077
2025-11-07 18:06:45.961061,-2,2025-11-07 18:06:48.233471385
2025-11-07 18:06:45.961061,-397,2025-11-07 18:06:48.241163692
2025-11-07 18:06:45.961061,27391,2025-11-07 18:06:48.248856000
2025-11-07 18:06:45.961061,-2,2025-11-07 18:06:48.256548308
2025-11-07 18:06:45.961061,-406,2025-11-07 18:06:48.264240615
2025-11-07 18:06:45.961061,27391,2025-11-07 18:06:48.271932923
2025-11-07 18:06:45.961061,-2,2025-11-07 18:06:48.279625231
2025-11-07 18:06:45.961061,-408,2025-11-07 18:06:48.287317538
2025-11-07 18:06:45.961061,32255,2025-11-07 18:06:48.295009846
2025-11-07 18:06:45.961061,-2,2025-11-07 18:06:48.302702154
2025-11-07 18:06:45.961061,-354,2025-11-07 18:06:48.310394462
2025-11-07 18:06:45.961061,-30977,2025-11-07 18:06:48.318086769
2025-11-07 18:06:45.961061,-2,2025-11-07 18:06:48.325779077
2025-11-07 18:06:45.961061,-423,2025-11-07 18:06:48.333471385
2025-11-07 18:06:45.961061,23039,2025-11-07 18:06:48.341163692
2025-11-07 18:06:45.961061,-2,2025-11-07 18:06:48.348856000
2025-11-07 18:06:45.961061,-385,2025-11-07 18:06:48.356548308
2025-11-07 18:06:45.961061,-29185,2025-11-07 18:06:48.364240615
2025-11-07 18:06:45.961061,-2,2025-11-07 18:06:48.371932923
2025-11-07 18:06:45.961061,-406,2025-11-07 18:06:48.379625231
2025-11-07 18:06:45.961061,23039,2025-11-07 18:06:48.387317538
2025-11-07 18:06:45.961061,-2,2025-11-07 18:06:48.395009846
2025-11-07 18:06:45.961061,-401,2025-11-07 18:06:48.402702154
2025-11-07 18:06:45.961061,32255,2025-11-07 18:06:48.410394462
2025-11-07 18:06:45.961061,-2,2025-11-07 18:06:48.418086769
2025-11-07 18:06:45.961061,-366,2025-11-07 18:06:48.425779077
2025-11-07 18:06:45.961061,-29185,2025-11-07 18:06:48.433471385
2025-11-07 18:06:45.961061,-2,2025-11-07 18:06:48.441163692
2025-11-07 18:06:45.961061,-404,2025-11-07 18:06:48.448856000
2025-11-07 18:06:45.961061,28671,2025-11-07 18:06:48.456548308
2025-11-07 18:06:45.961061,-2,2025-11-07 18:06:48.464240615
2025-11-07 18:06:45.961061,-387,2025-11-07 18:06:48.471932923
2025-11-07 18:06:45.961061,28671,2025-11-07 18:06:48.479625231
2025-11-07 18:06:45.961061,-2,2025-11-07 18:06:48.487317538
2025-11-07 18:06:45.961061,-408,2025-11-07 18:06:48.495009846
2025-11-07 18:06:45.961061,28671,2025-11-07 18:06:48.502702154
2025-11-07 18:06:45.961061,-2,2025-11-07 18:06:48.510394462
2025-11-07 18:06:45.961061,-408,2025-11-07 18:06:48.518086769
2025-11-07 18:06:45.961061,20223,2025-11-07 18:06:48.525779077
2025-11-07 18:06:45.961061,-2,2025-11-07 18:06:48.533471385
2025-11-07 18:06:45.961061,-460,2025-11-07 18:06:48.541163692
2025-11-07 18:06:45.961061,14591,2025-11-07 18:06:48.548856000
2025-11-07 18:06:45.961061,-2,2025-11-07 18:06:48.556548308
2025-11-07 18:06:45.961061,-423,2025-11-07 18:06:48.564240615
2025-11-07 18:06:45.961061,29183,2025-11-07 18:06:48.571932923
2025-11-07 18:06:45.961061,-2,2025-11-07 18:06:48.579625230
2025-11-07 18:06:45.961061,-392,2025-11-07 18:06:48.587317538
2025-11-07 18:06:45.961061,31487,2025-11-07 18:06:48.595009846
2025-11-07 18:06:45.961061,-2,2025-11-07 18:06:48.602702154
2025-11-07 18:06:45.961061,-406,2025-11-07 18:06:48.610394462
2025-11-07 18:06:45.961061,21247,2025-11-07 18:06:48.618086769
2025-11-07 18:06:45.961061,-2,2025-11-07 18:06:48.625779077
2025-11-07 18:06:45.961061,-434,2025-11-07 18:06:48.633471385
2025-11-07 18:06:45.961061,20223,2025-11-07 18:06:48.641163692
2025-11-07 18:06:45.961061,-2,2025-11-07 18:06:48.648856000
2025-11-07 18:06:45.961061,-434,2025-11-07 18:06:48.656548308
2025-11-07 18:06:45.961061,18175,2025-11-07 18:06:48.664240615
2025-11-07 18:06:45.961061,-2,2025-11-07 18:06:48.671932923
2025-11-07 18:06:45.961061,-453,2025-11-07 18:06:48.679625231
2025-11-07 18:06:45.961061,18943,2025-11-07 18:06:48.687317538
2025-11-07 18:06:45.961061,-2,2025-11-07 18:06:48.695009846
2025-11-07 18:06:45.961061,-456,2025-11-07 18:06:48.702702154
2025-11-07 18:06:45.961061,29695,2025-11-07 18:06:48.710394462
2025-11-07 18:06:45.961061,-2,2025-11-07 18:06:48.718086769
2025-11-07 18:06:45.961061,118,2025-11-07 18:06:48.725779077
2025-11-07 18:06:45.961061,19200,2025-11-07 18:06:48.733471385
2025-11-07 18:06:45.961061,3,2025-11-07 18:06:48.741163692
2025-11-07 18:06:45.961061,574,2025-11-07 18:06:48.748856000
2025-11-07 18:06:46.501727,-614,2025-11-07 18:06:48.756548308
2025-11-07 18:06:46.501727,20991,2025-11-07 18:06:48.764240615
2025-11-07 18:06:46.501727,-4,2025-11-07 18:06:48.771932923
2025-11-07 18:06:46.501727,-411,2025-11-07 18:06:48.779625231
2025-11-07 18:06:46.501727,-26113,2025-11-07 18:06:48.787317538
2025-11-07 18:06:46.501727,-2,2025-11-07 18:06:48.795009846
2025-11-07 18:06:46.501727,-567,2025-11-07 18:06:48.802702154
2025-11-07 18:06:46.501727,4863,2025-11-07 18:06:48.810394462
2025-11-07 18:06:46.501727,-2,2025-11-07 18:06:48.818086769
2025-11-07 18:06:46.501727,-451,2025-11-07 18:06:48.825779077
2025-11-07 18:06:46.501727,-1025,2025-11-07 18:06:48.833471385
2025-11-07 18:06:46.501727,-3,2025-11-07 18:06:48.841163692
2025-11-07 18:06:46.501727,-494,2025-11-07 18:06:48.848856000
2025-11-07 18:06:46.501727,17151,2025-11-07 18:06:48.856548308
2025-11-07 18:06:46.501727,-2,2025-11-07 18:06:48.864240615
2025-11-07 18:06:46.501727,-463,2025-11-07 18:06:48.871932923
2025-11-07 18:06:46.501727,17151,2025-11-07 18:06:48.879625231
2025-11-07 18:06:46.501727,-2,2025-11-07 18:06:48.887317538
2025-11-07 18:06:46.501727,-387,2025-11-07 18:06:48.895009846
2025-11-07 18:06:46.501727,-27393,2025-11-07 18:06:48.902702154
2025-11-07 18:06:46.501727,-2,2025-11-07 18:06:48.910394462
2025-11-07 18:06:46.501727,-364,2025-11-07 18:06:48.918086769
2025-11-07 18:06:46.501727,-21761,2025-11-07 18:06:48.925779077
2025-11-07 18:06:46.501727,-2,2025-11-07 18:06:48.933471385
2025-11-07 18:06:46.501727,-319,2025-11-07 18:06:48.941163692
2025-11-07 18:06:46.501727,-15873,2025-11-07 18:06:48.948856000
2025-11-07 18:06:46.501727,-2,2025-11-07 18:06:48.956548308
2025-11-07 18:06:46.501727,-302,2025-11-07 18:06:48.964240615
2025-11-07 18:06:46.501727,-3073,2025-11-07 18:06:48.971932923
2025-11-07 18:06:46.501727,-2,2025-11-07 18:06:48.979625231
2025-11-07 18:06:46.501727,-248,2025-11-07 18:06:48.987317538
2025-11-07 18:06:46.501727,9727,2025-11-07 18:06:48.995009846
2025-11-07 18:06:46.501727,-1,2025-11-07 18:06:49.002702154
2025-11-07 18:06:46.501727,-182,2025-11-07 18:06:49.010394462
2025-11-07 18:06:46.501727,23039,2025-11-07 18:06:49.018086769
2025-11-07 18:06:46.501727,-1,2025-11-07 18:06:49.025779077
2025-11-07 18:06:46.501727,-160,2025-11-07 18:06:49.033471385
2025-11-07 18:06:46.501727,-29953,2025-11-07 18:06:49.041163692
2025-11-07 18:06:46.501727,-1,2025-11-07 18:06:49.048856000
2025-11-07 18:06:46.501727,-75,2025-11-07 18:06:49.056548308
2025-11-07 18:06:46.501727,-19713,2025-11-07 18:06:49.064240615
2025-11-07 18:06:46.501727,-1,2025-11-07 18:06:49.071932923
2025-11-07 18:06:46.501727,-66,2025-11-07 18:06:49.079625231
2025-11-07 18:06:46.501727,-13057,2025-11-07 18:06:49.087317538
2025-11-07 18:06:46.501727,-1,2025-11-07 18:06:49.095009846
2025-11-07 18:06:46.501727,-125,2025-11-07 18:06:49.102702154
2025-11-07 18:06:46.501727,8447,2025-11-07 18:06:49.110394462
2025-11-07 18:06:46.501727,-1,2025-11-07 18:06:49.118086769
2025-11-07 18:06:46.501727,-264,2025-11-07 18:06:49.125779077
2025-11-07 18:06:46.501727,-7937,2025-11-07 18:06:49.133471385
2025-11-07 18:06:46.501727,-2,2025-11-07 18:06:49.141163692
2025-11-07 18:06:46.501727,-323,2025-11-07 18:06:49.148856000
2025-11-07 18:06:46.501727,-23553,2025-11-07 18:06:49.156548308
2025-11-07 18:06:46.501727,-2,2025-11-07 18:06:49.164240615
2025-11-07 18:06:46.501727,-361,2025-11-07 18:06:49.171932923
2025-11-07 18:06:46.501727,-26625,2025-11-07 18:06:49.179625231
2025-11-07 18:06:46.501727,-2,2025-11-07 18:06:49.187317538
2025-11-07 18:06:46.501727,-356,2025-11-07 18:06:49.195009846
2025-11-07 18:06:46.501727,-27905,2025-11-07 18:06:49.202702154
2025-11-07 18:06:46.501727,-2,2025-11-07 18:06:49.210394462
2025-11-07 18:06:46.501727,-366,2025-11-07 18:06:49.218086769
2025-11-07 18:06:46.501727,-22529,2025-11-07 18:06:49.225779077
2025-11-07 18:06:46.501727,-2,2025-11-07 18:06:49.233471385
2025-11-07 18:06:46.501727,-323,2025-11-07 18:06:49.241163692
2025-11-07 18:06:46.501727,-16385,2025-11-07 18:06:49.248856000
2025-11-07 18:06:46.501727,-2,2025-11-07 18:06:49.256548308
2025-11-07 18:06:46.501727,-319,2025-11-07 18:06:49.264240615
2025-11-07 18:06:46.501727,-11009,2025-11-07 18:06:49.271932923
2025-11-07 18:06:46.501727,-2,2025-11-07 18:06:49.279625231
2025-11-07 18:06:46.501727,-286,2025-11-07 18:06:49.287317538
2025-11-07 18:06:46.501727,-6145,2025-11-07 18:06:49.295009846
2025-11-07 18:06:46.501727,-2,2025-11-07 18:06:49.302702154
2025-11-07 18:06:46.501727,-264,2025-11-07 18:06:49.310394462
2025-11-07 18:06:46.501727,1279,2025-11-07 18:06:49.318086769
2025-11-07 18:06:46.501727,-1,2025-11-07 18:06:49.325779077
2025-11-07 18:06:46.501727,-255,2025-11-07 18:06:49.333471385
2025-11-07 18:06:46.501727,-1793,2025-11-07 18:06:49.341163692
2025-11-07 18:06:46.501727,-2,2025-11-07 18:06:49.348856000
2025-11-07 18:06:46.501727,-236,2025-11-07 18:06:49.356548308
2025-11-07 18:06:46.501727,14591,2025-11-07 18:06:49.364240615
2025-11-07 18:06:46.501727,-1,2025-11-07 18:06:49.371932923
2025-11-07 18:06:46.501727,-231,2025-11-07 18:06:49.379625231
2025-11-07 18:06:46.501727,5375,2025-11-07 18:06:49.387317538
2025-11-07 18:06:46.501727,-1,2025-11-07 18:06:49.395009846
2025-11-07 18:06:46.501727,-182,2025-11-07 18:06:49.402702154
2025-11-07 18:06:46.501727,21759,2025-11-07 18:06:49.410394462
2025-11-07 18:06:46.501727,-1,2025-11-07 18:06:49.418086769
2025-11-07 18:06:46.501727,-203,2025-11-07 18:06:49.425779077
2025-11-07 18:06:46.501727,14591,2025-11-07 18:06:49.433471385
2025-11-07 18:06:46.501727,-1,2025-11-07 18:06:49.441163692
2025-11-07 18:06:46.501727,-189,2025-11-07 18:06:49.448856000
2025-11-07 18:06:46.501727,15615,2025-11-07 18:06:49.456548308
2025-11-07 18:06:46.501727,-1,2025-11-07 18:06:49.464240615
2025-11-07 18:06:46.501727,-200,2025-11-07 18:06:49.471932923
2025-11-07 18:06:46.501727,18175,2025-11-07 18:06:49.479625231
2025-11-07 18:06:46.501727,-1,2025-11-07 18:06:49.487317538
2025-11-07 18:06:46.501727,-177,2025-11-07 18:06:49.495009846
2025-11-07 18:06:46.501727,21759,2025-11-07 18:06:49.502702154
2025-11-07 18:06:46.501727,-1,2025-11-07 18:06:49.510394462
2025-11-07 18:06:46.501727,-163,2025-11-07 18:06:49.518086769
2025-11-07 18:06:46.501727,25855,2025-11-07 18:06:49.525779077
2025-11-07 18:06:46.501727,-1,2025-11-07 18:06:49.533471385
2025-11-07 18:06:46.501727,-151,2025-11-07 18:06:49.541163692
2025-11-07 18:06:46.501727,27903,2025-11-07 18:06:49.548856000
2025-11-07 18:06:46.501727,-1,2025-11-07 18:06:49.556548308
2025-11-07 18:06:46.501727,-153,2025-11-07 18:06:49.564240615
2025-11-07 18:06:46.501727,31999,2025-11-07 18:06:49.571932923
2025-11-07 18:06:46.501727,-1,2025-11-07 18:06:49.579625230
2025-11-07 18:06:46.501727,-101,2025-11-07 18:06:49.587317538
2025-11-07 18:06:47.040987,-99,2025-11-07 18:06:49.595009846
2025-11-07 18:06:47.040987,-29185,2025-11-07 18:06:49.602702154
2025-11-07 18:06:47.040987,-1,2025-11-07 18:06:49.610394462
2025-11-07 18:06:47.040987,-122,2025-11-07 18:06:49.618086769
2025-11-07 18:06:47.040987,-27393,2025-11-07 18:06:49.625779077
2025-11-07 18:06:47.040987,-1,2025-11-07 18:06:49.633471385
2025-11-07 18:06:47.040987,-92,2025-11-07 18:06:49.641163692
2025-11-07 18:06:47.040987,-14849,2025-11-07 18:06:49.648856000
2025-11-07 18:06:47.040987,-1,2025-11-07 18:06:49.656548308
2025-11-07 18:06:47.040987,-7,2025-11-07 18:06:49.664240615
2025-11-07 18:06:47.040987,3839,2025-11-07 18:06:49.671932923
2025-11-07 18:06:47.040987,0,2025-11-07 18:06:49.679625231
2025-11-07 18:06:47.040987,35,2025-11-07 18:06:49.687317538
2025-11-07 18:06:47.040987,13824,2025-11-07 18:06:49.695009846
2025-11-07 18:06:47.040987,0,2025-11-07 18:06:49.702702154
2025-11-07 18:06:47.040987,23,2025-11-07 18:06:49.710394462
2025-11-07 18:06:47.040987,8448,2025-11-07 18:06:49.718086769
2025-11-07 18:06:47.040987,0,2025-11-07 18:06:49.725779077
2025-11-07 18:06:47.040987,80,2025-11-07 18:06:49.733471385
2025-11-07 18:06:47.040987,18688,2025-11-07 18:06:49.741163692
2025-11-07 18:06:47.040987,0,2025-11-07 18:06:49.748856000
2025-11-07 18:06:47.040987,52,2025-11-07 18:06:49.756548308
2025-11-07 18:06:47.040987,17920,2025-11-07 18:06:49.764240615
2025-11-07 18:06:47.040987,0,2025-11-07 18:06:49.771932923
2025-11-07 18:06:47.040987,85,2025-11-07 18:06:49.779625231
2025-11-07 18:06:47.040987,8960,2025-11-07 18:06:49.787317538
2025-11-07 18:06:47.040987,0,2025-11-07 18:06:49.795009846
2025-11-07 18:06:47.040987,59,2025-11-07 18:06:49.802702154
2025-11-07 18:06:47.040987,7936,2025-11-07 18:06:49.810394462
2025-11-07 18:06:47.040987,2,2025-11-07 18:06:49.818086769
2025-11-07 18:06:47.040987,1397,2025-11-07 18:06:49.825779077
2025-11-07 18:06:47.040987,12288,2025-11-07 18:06:49.833471385
2025-11-07 18:06:47.040987,5,2025-11-07 18:06:49.841163692
2025-11-07 18:06:47.040987,40,2025-11-07 18:06:49.848856000
2025-11-07 18:06:47.040987,-5632,2025-11-07 18:06:49.856548308
2025-11-07 18:06:47.040987,-3,2025-11-07 18:06:49.864240615
2025-11-07 18:06:47.040987,52,2025-11-07 18:06:49.871932923
2025-11-07 18:06:47.040987,2816,2025-11-07 18:06:49.879625231
2025-11-07 18:06:47.040987,1,2025-11-07 18:06:49.887317538
2025-11-07 18:06:47.040987,44,2025-11-07 18:06:49.895009846
2025-11-07 18:06:47.040987,17920,2025-11-07 18:06:49.902702154
2025-11-07 18:06:47.040987,0,2025-11-07 18:06:49.910394462
2025-11-07 18:06:47.040987,134,2025-11-07 18:06:49.918086769
2025-11-07 18:06:47.040987,23552,2025-11-07 18:06:49.925779077
2025-11-07 18:06:47.040987,0,2025-11-07 18:06:49.933471385
2025-11-07 18:06:47.040987,115,2025-11-07 18:06:49.941163692
2025-11-07 18:06:47.040987,-28160,2025-11-07 18:06:49.948856000
2025-11-07 18:06:47.040987,0,2025-11-07 18:06:49.956548308
2025-11-07 18:06:47.040987,130,2025-11-07 18:06:49.964240615
2025-11-07 18:06:47.040987,-28672,2025-11-07 18:06:49.971932923
2025-11-07 18:06:47.040987,0,2025-11-07 18:06:49.979625231
2025-11-07 18:06:47.040987,182,2025-11-07 18:06:49.987317538
2025-11-07 18:06:47.040987,-10496,2025-11-07 18:06:49.995009846
2025-11-07 18:06:47.040987,0,2025-11-07 18:06:50.002702154
2025-11-07 18:06:47.040987,245,2025-11-07 18:06:50.010394462
2025-11-07 18:06:47.040987,4608,2025-11-07 18:06:50.018086769
2025-11-07 18:06:47.040987,1,2025-11-07 18:06:50.025779077
2025-11-07 18:06:47.040987,290,2025-11-07 18:06:50.033471385
2025-11-07 18:06:47.040987,6912,2025-11-07 18:06:50.041163692
2025-11-07 18:06:47.040987,1,2025-11-07 18:06:50.048856000
2025-11-07 18:06:47.040987,307,2025-11-07 18:06:50.056548308
2025-11-07 18:06:47.040987,22016,2025-11-07 18:06:50.064240615
2025-11-07 18:06:47.040987,1,2025-11-07 18:06:50.071932923
2025-11-07 18:06:47.040987,309,2025-11-07 18:06:50.079625231
2025-11-07 18:06:47.040987,13568,2025-11-07 18:06:50.087317538
2025-11-07 18:06:47.040987,1,2025-11-07 18:06:50.095009846
2025-11-07 18:06:47.040987,392,2025-11-07 18:06:50.102702154
2025-11-07 18:06:47.040987,-23552,2025-11-07 18:06:50.110394462
2025-11-07 18:06:47.040987,1,2025-11-07 18:06:50.118086769
2025-11-07 18:06:47.040987,382,2025-11-07 18:06:50.125779077
2025-11-07 18:06:47.040987,-32512,2025-11-07 18:06:50.133471385
2025-11-07 18:06:47.040987,1,2025-11-07 18:06:50.141163692
2025-11-07 18:06:47.040987,416,2025-11-07 18:06:50.148856000
2025-11-07 18:06:47.040987,-27136,2025-11-07 18:06:50.156548308
2025-11-07 18:06:47.040987,1,2025-11-07 18:06:50.164240615
2025-11-07 18:06:47.040987,387,2025-11-07 18:06:50.171932923
2025-11-07 18:06:47.040987,26880,2025-11-07 18:06:50.179625231
2025-11-07 18:06:47.040987,1,2025-11-07 18:06:50.187317538
2025-11-07 18:06:47.040987,302,2025-11-07 18:06:50.195009846
2025-11-07 18:06:47.040987,-5120,2025-11-07 18:06:50.202702154
2025-11-07 18:06:47.040987,0,2025-11-07 18:06:50.210394462
2025-11-07 18:06:47.040987,189,2025-11-07 18:06:50.218086769
2025-11-07 18:06:47.040987,32512,2025-11-07 18:06:50.225779077
2025-11-07 18:06:47.040987,0,2025-11-07 18:06:50.233471385
2025-11-07 18:06:47.040987,61,2025-11-07 18:06:50.241163692
2025-11-07 18:06:47.040987,11264,2025-11-07 18:06:50.248856000
2025-11-07 18:06:47.040987,0,2025-11-07 18:06:50.256548308
2025-11-07 18:06:47.040987,47,2025-11-07 18:06:50.264240615
2025-11-07 18:06:47.040987,5376,2025-11-07 18:06:50.271932923
2025-11-07 18:06:47.040987,0,2025-11-07 18:06:50.279625231
2025-11-07 18:06:47.040987,16,2025-11-07 18:06:50.287317538
2025-11-07 18:06:47.040987,7168,2025-11-07 18:06:50.295009846
2025-11-07 18:06:47.040987,0,2025-11-07 18:06:50.302702154
2025-11-07 18:06:47.040987,-4,2025-11-07 18:06:50.310394462
2025-11-07 18:06:47.040987,-3841,2025-11-07 18:06:50.318086769
2025-11-07 18:06:47.040987,-1,2025-11-07 18:06:50.325779077
2025-11-07 18:06:47.040987,23,2025-11-07 18:06:50.333471385
2025-11-07 18:06:47.040987,5888,2025-11-07 18:06:50.341163692
2025-11-07 18:06:47.040987,0,2025-11-07 18:06:50.348856000
2025-11-07 18:06:47.040987,11,2025-11-07 18:06:50.356548308
2025-11-07 18:06:47.040987,10752,2025-11-07 18:06:50.364240615
2025-11-07 18:06:47.040987,0,2025-11-07 18:06:50.371932923
2025-11-07 18:06:47.040987,54,2025-11-07 18:06:50.379625231
2025-11-07 18:06:47.040987,10752,2025-11-07 18:06:50.387317538
2025-11-07 18:06:47.040987,0,2025-11-07 18:06:50.395009846
2025-11-07 18:06:47.040987,70,2025-11-07 18:06:50.402702154
2025-11-07 18:06:47.040987,21760,2025-11-07 18:06:50.410394462
2025-11-07 18:06:47.040987,0,2025-11-07 18:06:50.418086769
2025-11-07 18:06:47.040987,40,2025-11-07 18:06:50.425779077
2025-11-07 18:06:47.629807,70,2025-11-07 18:06:50.433471385
2025-11-07 18:06:47.629807,-26368,2025-11-07 18:06:50.441163692
2025-11-07 18:06:47.629807,0,2025-11-07 18:06:50.448856000
2025-11-07 18:06:47.629807,137,2025-11-07 18:06:50.456548308
2025-11-07 18:06:47.629807,28928,2025-11-07 18:06:50.464240615
2025-11-07 18:06:47.629807,0,2025-11-07 18:06:50.471932923
2025-11-07 18:06:47.629807,148,2025-11-07 18:06:50.479625231
2025-11-07 18:06:47.629807,-23808,2025-11-07 18:06:50.487317538
2025-11-07 18:06:47.629807,0,2025-11-07 18:06:50.495009846
2025-11-07 18:06:47.629807,167,2025-11-07 18:06:50.502702154
2025-11-07 18:06:47.629807,-16128,2025-11-07 18:06:50.510394462
2025-11-07 18:06:47.629807,0,2025-11-07 18:06:50.518086769
2025-11-07 18:06:47.629807,203,2025-11-07 18:06:50.525779077
2025-11-07 18:06:47.629807,-15360,2025-11-07 18:06:50.533471385
2025-11-07 18:06:47.629807,0,2025-11-07 18:06:50.541163692
2025-11-07 18:06:47.629807,191,2025-11-07 18:06:50.548856000
2025-11-07 18:06:47.629807,-22016,2025-11-07 18:06:50.556548308
2025-11-07 18:06:47.629807,0,2025-11-07 18:06:50.564240615
2025-11-07 18:06:47.629807,165,2025-11-07 18:06:50.571932923
2025-11-07 18:06:47.629807,-19712,2025-11-07 18:06:50.579625230
2025-11-07 18:06:47.629807,0,2025-11-07 18:06:50.587317538
2025-11-07 18:06:47.629807,170,2025-11-07 18:06:50.595009846
2025-11-07 18:06:47.629807,-18944,2025-11-07 18:06:50.602702154
2025-11-07 18:06:47.629807,0,2025-11-07 18:06:50.610394462
2025-11-07 18:06:47.629807,200,2025-11-07 18:06:50.618086769
2025-11-07 18:06:47.629807,-20992,2025-11-07 18:06:50.625779077
2025-11-07 18:06:47.629807,0,2025-11-07 18:06:50.633471385
2025-11-07 18:06:47.629807,139,2025-11-07 18:06:50.641163692
2025-11-07 18:06:47.629807,28416,2025-11-07 18:06:50.648856000
2025-11-07 18:06:47.629807,0,2025-11-07 18:06:50.656548308
2025-11-07 18:06:47.629807,94,2025-11-07 18:06:50.664240615
2025-11-07 18:06:47.629807,21760,2025-11-07 18:06:50.671932923
2025-11-07 18:06:47.629807,0,2025-11-07 18:06:50.679625231
2025-11-07 18:06:47.629807,96,2025-11-07 18:06:50.687317538
2025-11-07 18:06:47.629807,28928,2025-11-07 18:06:50.695009846
2025-11-07 18:06:47.629807,0,2025-11-07 18:06:50.702702154
2025-11-07 18:06:47.629807,127,2025-11-07 18:06:50.710394462
2025-11-07 18:06:47.629807,-28160,2025-11-07 18:06:50.718086769
2025-11-07 18:06:47.629807,0,2025-11-07 18:06:50.725779077
2025-11-07 18:06:47.629807,148,2025-11-07 18:06:50.733471385
2025-11-07 18:06:47.629807,32512,2025-11-07 18:06:50.741163692
2025-11-07 18:06:47.629807,0,2025-11-07 18:06:50.748856000
2025-11-07 18:06:47.629807,130,2025-11-07 18:06:50.756548308
2025-11-07 18:06:47.629807,-28672,2025-11-07 18:06:50.764240615
2025-11-07 18:06:47.629807,0,2025-11-07 18:06:50.771932923
2025-11-07 18:06:47.629807,118,2025-11-07 18:06:50.779625231
2025-11-07 18:06:47.629807,24064,2025-11-07 18:06:50.787317538
2025-11-07 18:06:47.629807,0,2025-11-07 18:06:50.795009846
2025-11-07 18:06:47.629807,144,2025-11-07 18:06:50.802702154
2025-11-07 18:06:47.629807,-21504,2025-11-07 18:06:50.810394462
2025-11-07 18:06:47.629807,0,2025-11-07 18:06:50.818086769
2025-11-07 18:06:47.629807,89,2025-11-07 18:06:50.825779077
2025-11-07 18:06:47.629807,16128,2025-11-07 18:06:50.833471385
2025-11-07 18:06:47.629807,0,2025-11-07 18:06:50.841163692
2025-11-07 18:06:47.629807,517,2025-11-07 18:06:50.848856000
2025-11-07 18:06:47.629807,-19200,2025-11-07 18:06:50.856548308
2025-11-07 18:06:47.629807,5,2025-11-07 18:06:50.864240615
2025-11-07 18:06:47.629807,1775,2025-11-07 18:06:50.871932923
2025-11-07 18:06:47.629807,-13312,2025-11-07 18:06:50.879625231
2025-11-07 18:06:47.629807,2,2025-11-07 18:06:50.887317538
2025-11-07 18:06:47.629807,-205,2025-11-07 18:06:50.895009846
2025-11-07 18:06:47.629807,22015,2025-11-07 18:06:50.902702154
2025-11-07 18:06:47.629807,0,2025-11-07 18:06:50.910394462
2025-11-07 18:06:47.629807,307,2025-11-07 18:06:50.918086769
2025-11-07 18:06:47.629807,1792,2025-11-07 18:06:50.925779077
2025-11-07 18:06:47.629807,0,2025-11-07 18:06:50.933471385
2025-11-07 18:06:47.629807,-42,2025-11-07 18:06:50.941163692
2025-11-07 18:06:47.629807,20223,2025-11-07 18:06:50.948856000
2025-11-07 18:06:47.629807,0,2025-11-07 18:06:50.956548308
2025-11-07 18:06:47.629807,37,2025-11-07 18:06:50.964240615
2025-11-07 18:06:47.629807,5376,2025-11-07 18:06:50.971932923
2025-11-07 18:06:47.629807,0,2025-11-07 18:06:50.979625231
2025-11-07 18:06:47.629807,99,2025-11-07 18:06:50.987317538
2025-11-07 18:06:47.629807,22272,2025-11-07 18:06:50.995009846
2025-11-07 18:06:47.629807,0,2025-11-07 18:06:51.002702154
2025-11-07 18:06:47.629807,23,2025-11-07 18:06:51.010394462
2025-11-07 18:06:47.629807,20992,2025-11-07 18:06:51.018086769
2025-11-07 18:06:47.629807,0,2025-11-07 18:06:51.025779077
2025-11-07 18:06:47.629807,163,2025-11-07 18:06:51.033471385
2025-11-07 18:06:47.629807,-32256,2025-11-07 18:06:51.041163692
2025-11-07 18:06:47.629807,0,2025-11-07 18:06:51.048856000
2025-11-07 18:06:47.629807,108,2025-11-07 18:06:51.056548308
2025-11-07 18:06:47.629807,-28672,2025-11-07 18:06:51.064240615
2025-11-07 18:06:47.629807,0,2025-11-07 18:06:51.071932923
2025-11-07 18:06:47.629807,151,2025-11-07 18:06:51.079625231
2025-11-07 18:06:47.629807,-28160,2025-11-07 18:06:51.087317538
2025-11-07 18:06:47.629807,0,2025-11-07 18:06:51.095009846
2025-11-07 18:06:47.629807,163,2025-11-07 18:06:51.102702154
2025-11-07 18:06:47.629807,-22016,2025-11-07 18:06:51.110394462
2025-11-07 18:06:47.629807,0,2025-11-07 18:06:51.118086769
2025-11-07 18:06:47.629807,170,2025-11-07 18:06:51.125779077
2025-11-07 18:06:47.629807,-18432,2025-11-07 18:06:51.133471385
2025-11-07 18:06:47.629807,0,2025-11-07 18:06:51.141163692
2025-11-07 18:06:47.629807,217,2025-11-07 18:06:51.148856000
2025-11-07 18:06:47.629807,-3328,2025-11-07 18:06:51.156548308
2025-11-07 18:06:47.629807,0,2025-11-07 18:06:51.164240615
2025-11-07 18:06:47.629807,252,2025-11-07 18:06:51.171932923
2025-11-07 18:06:47.629807,3840,2025-11-07 18:06:51.179625231
2025-11-07 18:06:47.629807,1,2025-11-07 18:06:51.187317538
2025-11-07 18:06:47.629807,283,2025-11-07 18:06:51.195009846
2025-11-07 18:06:47.629807,2048,2025-11-07 18:06:51.202702154
2025-11-07 18:06:47.629807,1,2025-11-07 18:06:51.210394462
2025-11-07 18:06:47.629807,276,2025-11-07 18:06:51.218086769
2025-11-07 18:06:47.629807,13056,2025-11-07 18:06:51.225779077
2025-11-07 18:06:47.629807,1,2025-11-07 18:06:51.233471385
2025-11-07 18:06:47.629807,260,2025-11-07 18:06:51.241163692
2025-11-07 18:06:47.629807,-18944,2025-11-07 18:06:51.248856000
2025-11-07 18:06:47.629807,0,2025-11-07 18:06:51.256548308
2025-11-07 18:06:47.629807,158,2025-11-07 18:06:51.264240615
2025-11-07 18:06:48.183381,137,2025-11-07 18:06:51.271932923
2025-11-07 18:06:48.183381,22272,2025-11-07 18:06:51.279625231
2025-11-07 18:06:48.183381,0,2025-11-07 18:06:51.287317538
2025-11-07 18:06:48.183381,66,2025-11-07 18:06:51.295009846
2025-11-07 18:06:48.183381,21760,2025-11-07 18:06:51.302702154
2025-11-07 18:06:48.183381,0,2025-11-07 18:06:51.310394462
2025-11-07 18:06:48.183381,85,2025-11-07 18:06:51.318086769
2025-11-07 18:06:48.183381,16128,2025-11-07 18:06:51.325779077
2025-11-07 18:06:48.183381,0,2025-11-07 18:06:51.333471385
2025-11-07 18:06:48.183381,63,2025-11-07 18:06:51.341163692
2025-11-07 18:06:48.183381,18688,2025-11-07 18:06:51.348856000
2025-11-07 18:06:48.183381,0,2025-11-07 18:06:51.356548308
2025-11-07 18:06:48.183381,68,2025-11-07 18:06:51.364240615
2025-11-07 18:06:48.183381,20480,2025-11-07 18:06:51.371932923
2025-11-07 18:06:48.183381,0,2025-11-07 18:06:51.379625231
2025-11-07 18:06:48.183381,113,2025-11-07 18:06:51.387317538
2025-11-07 18:06:48.183381,27136,2025-11-07 18:06:51.395009846
2025-11-07 18:06:48.183381,0,2025-11-07 18:06:51.402702154
2025-11-07 18:06:48.183381,82,2025-11-07 18:06:51.410394462
2025-11-07 18:06:48.183381,22784,2025-11-07 18:06:51.418086769
2025-11-07 18:06:48.183381,0,2025-11-07 18:06:51.425779077
2025-11-07 18:06:48.183381,92,2025-11-07 18:06:51.433471385
2025-11-07 18:06:48.183381,22272,2025-11-07 18:06:51.441163692
2025-11-07 18:06:48.183381,0,2025-11-07 18:06:51.448856000
2025-11-07 18:06:48.183381,92,2025-11-07 18:06:51.456548308
2025-11-07 18:06:48.183381,22784,2025-11-07 18:06:51.464240615
2025-11-07 18:06:48.183381,0,2025-11-07 18:06:51.471932923
2025-11-07 18:06:48.183381,80,2025-11-07 18:06:51.479625231
2025-11-07 18:06:48.183381,20480,2025-11-07 18:06:51.487317538
2025-11-07 18:06:48.183381,0,2025-11-07 18:06:51.495009846
2025-11-07 18:06:48.183381,87,2025-11-07 18:06:51.502702154
2025-11-07 18:06:48.183381,23552,2025-11-07 18:06:51.510394462
2025-11-07 18:06:48.183381,0,2025-11-07 18:06:51.518086769
2025-11-07 18:06:48.183381,92,2025-11-07 18:06:51.525779077
2025-11-07 18:06:48.183381,23552,2025-11-07 18:06:51.533471385
2025-11-07 18:06:48.183381,0,2025-11-07 18:06:51.541163692
2025-11-07 18:06:48.183381,94,2025-11-07 18:06:51.548856000
2025-11-07 18:06:48.183381,25856,2025-11-07 18:06:51.556548308
2025-11-07 18:06:48.183381,0,2025-11-07 18:06:51.564240615
2025-11-07 18:06:48.183381,101,2025-11-07 18:06:51.571932923
2025-11-07 18:06:48.183381,22784,2025-11-07 18:06:51.579625230
2025-11-07 18:06:48.183381,0,2025-11-07 18:06:51.587317538
2025-11-07 18:06:48.183381,73,2025-11-07 18:06:51.595009846
2025-11-07 18:06:48.183381,15104,2025-11-07 18:06:51.602702154
2025-11-07 18:06:48.183381,0,2025-11-07 18:06:51.610394462
2025-11-07 18:06:48.183381,47,2025-11-07 18:06:51.618086769
2025-11-07 18:06:48.183381,9472,2025-11-07 18:06:51.625779077
2025-11-07 18:06:48.183381,0,2025-11-07 18:06:51.633471385
2025-11-07 18:06:48.183381,26,2025-11-07 18:06:51.641163692
2025-11-07 18:06:48.183381,7680,2025-11-07 18:06:51.648856000
2025-11-07 18:06:48.183381,0,2025-11-07 18:06:51.656548308
2025-11-07 18:06:48.183381,49,2025-11-07 18:06:51.664240615
2025-11-07 18:06:48.183381,15104,2025-11-07 18:06:51.671932923
2025-11-07 18:06:48.183381,0,2025-11-07 18:06:51.679625231
2025-11-07 18:06:48.183381,54,2025-11-07 18:06:51.687317538
2025-11-07 18:06:48.183381,14336,2025-11-07 18:06:51.695009846
2025-11-07 18:06:48.183381,0,2025-11-07 18:06:51.702702154
2025-11-07 18:06:48.183381,56,2025-11-07 18:06:51.710394462
2025-11-07 18:06:48.183381,14336,2025-11-07 18:06:51.718086769
2025-11-07 18:06:48.183381,0,2025-11-07 18:06:51.725779077
2025-11-07 18:06:48.183381,63,2025-11-07 18:06:51.733471385
2025-11-07 18:06:48.183381,16896,2025-11-07 18:06:51.741163692
2025-11-07 18:06:48.183381,0,2025-11-07 18:06:51.748856000
2025-11-07 18:06:48.183381,52,2025-11-07 18:06:51.756548308
2025-11-07 18:06:48.183381,-4096,2025-11-07 18:06:51.764240615
2025-11-07 18:06:48.183381,-1,2025-11-07 18:06:51.771932923
2025-11-07 18:06:48.183381,-78,2025-11-07 18:06:51.779625231
2025-11-07 18:06:48.183381,10239,2025-11-07 18:06:51.787317538
2025-11-07 18:06:48.183381,1,2025-11-07 18:06:51.795009846
2025-11-07 18:06:48.183381,1326,2025-11-07 18:06:51.802702154
2025-11-07 18:06:48.183381,30720,2025-11-07 18:06:51.810394462
2025-11-07 18:06:48.183381,7,2025-11-07 18:06:51.818086769
2025-11-07 18:06:48.183381,846,2025-11-07 18:06:51.825779077
2025-11-07 18:06:48.183381,20480,2025-11-07 18:06:51.833471385
2025-11-07 18:06:48.183381,-2,2025-11-07 18:06:51.841163692
2025-11-07 18:06:48.183381,-198,2025-11-07 18:06:51.848856000
2025-11-07 18:06:48.183381,-10241,2025-11-07 18:06:51.856548308
2025-11-07 18:06:48.183381,0,2025-11-07 18:06:51.864240615
2025-11-07 18:06:48.183381,-127,2025-11-07 18:06:51.871932923
2025-11-07 18:06:48.183381,1279,2025-11-07 18:06:51.879625231
2025-11-07 18:06:48.183381,-1,2025-11-07 18:06:51.887317538
2025-11-07 18:06:48.183381,-85,2025-11-07 18:06:51.895009846
2025-11-07 18:06:48.183381,32511,2025-11-07 18:06:51.902702154
2025-11-07 18:06:48.183381,-1,2025-11-07 18:06:51.910394462
2025-11-07 18:06:48.183381,-198,2025-11-07 18:06:51.918086769
2025-11-07 18:06:48.183381,28927,2025-11-07 18:06:51.925779077
2025-11-07 18:06:48.183381,-1,2025-11-07 18:06:51.933471385
2025-11-07 18:06:48.183381,-134,2025-11-07 18:06:51.941163692
2025-11-07 18:06:48.183381,23039,2025-11-07 18:06:51.948856000
2025-11-07 18:06:48.183381,-1,2025-11-07 18:06:51.956548308
2025-11-07 18:06:48.183381,-156,2025-11-07 18:06:51.964240615
2025-11-07 18:06:48.183381,29695,2025-11-07 18:06:51.971932923
2025-11-07 18:06:48.183381,-1,2025-11-07 18:06:51.979625231
2025-11-07 18:06:48.183381,-146,2025-11-07 18:06:51.987317538
2025-11-07 18:06:48.183381,28415,2025-11-07 18:06:51.995009846
2025-11-07 18:06:48.183381,-1,2025-11-07 18:06:52.002702154
2025-11-07 18:06:48.183381,-134,2025-11-07 18:06:52.010394462
2025-11-07 18:06:48.183381,31999,2025-11-07 18:06:52.018086769
2025-11-07 18:06:48.183381,-1,2025-11-07 18:06:52.025779077
2025-11-07 18:06:48.183381,-127,2025-11-07 18:06:52.033471385
2025-11-07 18:06:48.183381,-28161,2025-11-07 18:06:52.041163692
2025-11-07 18:06:48.183381,-1,2025-11-07 18:06:52.048856000
2025-11-07 18:06:48.183381,-111,2025-11-07 18:06:52.056548308
2025-11-07 18:06:48.183381,-29185,2025-11-07 18:06:52.064240615
2025-11-07 18:06:48.183381,-1,2025-11-07 18:06:52.071932923
2025-11-07 18:06:48.183381,-92,2025-11-07 18:06:52.079625231
2025-11-07 18:06:48.183381,-17665,2025-11-07 18:06:52.087317538
2025-11-07 18:06:48.183381,-1,2025-11-07 18:06:52.095009846
2025-11-07 18:06:48.183381,-63,2025-11-07 18:06:52.102702154
2025-11-07 18:06:48.753816,-37,2025-11-07 18:06:52.110394462
2025-11-07 18:06:48.753816,-2561,2025-11-07 18:06:52.118086769
2025-11-07 18:06:48.753816,-1,2025-11-07 18:06:52.125779077
2025-11-07 18:06:48.753816,-16,2025-11-07 18:06:52.133471385
2025-11-07 18:06:48.753816,-6401,2025-11-07 18:06:52.141163692
2025-11-07 18:06:48.753816,-1,2025-11-07 18:06:52.148856000
2025-11-07 18:06:48.753816,-2,2025-11-07 18:06:52.156548308
2025-11-07 18:06:48.753816,4351,2025-11-07 18:06:52.164240615
2025-11-07 18:06:48.753816,0,2025-11-07 18:06:52.171932923
2025-11-07 18:06:48.753816,-11,2025-11-07 18:06:52.179625231
2025-11-07 18:06:48.753816,-15873,2025-11-07 18:06:52.187317538
2025-11-07 18:06:48.753816,-1,2025-11-07 18:06:52.195009846
2025-11-07 18:06:48.753816,-92,2025-11-07 18:06:52.202702154
2025-11-07 18:06:48.753816,-29185,2025-11-07 18:06:52.210394462
2025-11-07 18:06:48.753816,-1,2025-11-07 18:06:52.218086769
2025-11-07 18:06:48.753816,-146,2025-11-07 18:06:52.225779077
2025-11-07 18:06:48.753816,24063,2025-11-07 18:06:52.233471385
2025-11-07 18:06:48.753816,-1,2025-11-07 18:06:52.241163692
2025-11-07 18:06:48.753816,-167,2025-11-07 18:06:52.248856000
2025-11-07 18:06:48.753816,21759,2025-11-07 18:06:52.256548308
2025-11-07 18:06:48.753816,-1,2025-11-07 18:06:52.264240615
2025-11-07 18:06:48.753816,-174,2025-11-07 18:06:52.271932923
2025-11-07 18:06:48.753816,24063,2025-11-07 18:06:52.279625231
2025-11-07 18:06:48.753816,-1,2025-11-07 18:06:52.287317538
2025-11-07 18:06:48.753816,-153,2025-11-07 18:06:52.295009846
2025-11-07 18:06:48.753816,25855,2025-11-07 18:06:52.302702154
2025-11-07 18:06:48.753816,-1,2025-11-07 18:06:52.310394462
2025-11-07 18:06:48.753816,-163,2025-11-07 18:06:52.318086769
2025-11-07 18:06:48.753816,23551,2025-11-07 18:06:52.325779077
2025-11-07 18:06:48.753816,-1,2025-11-07 18:06:52.333471385
2025-11-07 18:06:48.753816,-153,2025-11-07 18:06:52.341163692
2025-11-07 18:06:48.753816,-32257,2025-11-07 18:06:52.348856000
2025-11-07 18:06:48.753816,-1,2025-11-07 18:06:52.356548308
2025-11-07 18:06:48.753816,-118,2025-11-07 18:06:52.364240615
2025-11-07 18:06:48.753816,32511,2025-11-07 18:06:52.371932923
2025-11-07 18:06:48.753816,-1,2025-11-07 18:06:52.379625231
2025-11-07 18:06:48.753816,-127,2025-11-07 18:06:52.387317538
2025-11-07 18:06:48.753816,-29953,2025-11-07 18:06:52.395009846
2025-11-07 18:06:48.753816,-1,2025-11-07 18:06:52.402702154
2025-11-07 18:06:48.753816,-111,2025-11-07 18:06:52.410394462
2025-11-07 18:06:48.753816,-25089,2025-11-07 18:06:52.418086769
2025-11-07 18:06:48.753816,-1,2025-11-07 18:06:52.425779077
2025-11-07 18:06:48.753816,-87,2025-11-07 18:06:52.433471385
2025-11-07 18:06:48.753816,-20225,2025-11-07 18:06:52.441163692
2025-11-07 18:06:48.753816,-1,2025-11-07 18:06:52.448856000
2025-11-07 18:06:48.753816,-75,2025-11-07 18:06:52.456548308
2025-11-07 18:06:48.753816,-18433,2025-11-07 18:06:52.464240615
2025-11-07 18:06:48.753816,-1,2025-11-07 18:06:52.471932923
2025-11-07 18:06:48.753816,-54,2025-11-07 18:06:52.479625231
2025-11-07 18:06:48.753816,-6913,2025-11-07 18:06:52.487317538
2025-11-07 18:06:48.753816,-1,2025-11-07 18:06:52.495009846
2025-11-07 18:06:48.753816,-30,2025-11-07 18:06:52.502702154
2025-11-07 18:06:48.753816,-7425,2025-11-07 18:06:52.510394462
2025-11-07 18:06:48.753816,-1,2025-11-07 18:06:52.518086769
2025-11-07 18:06:48.753816,-23,2025-11-07 18:06:52.525779077
2025-11-07 18:06:48.753816,-6913,2025-11-07 18:06:52.533471385
2025-11-07 18:06:48.753816,-1,2025-11-07 18:06:52.541163692
2025-11-07 18:06:48.753816,-26,2025-11-07 18:06:52.548856000
2025-11-07 18:06:48.753816,-3841,2025-11-07 18:06:52.556548308
2025-11-07 18:06:48.753816,-1,2025-11-07 18:06:52.564240615
2025-11-07 18:06:48.753816,-16,2025-11-07 18:06:52.571932923
2025-11-07 18:06:48.753816,-4353,2025-11-07 18:06:52.579625230
2025-11-07 18:06:48.753816,-1,2025-11-07 18:06:52.587317538
2025-11-07 18:06:48.753816,-26,2025-11-07 18:06:52.595009846
2025-11-07 18:06:48.753816,-9985,2025-11-07 18:06:52.602702154
2025-11-07 18:06:48.753816,-1,2025-11-07 18:06:52.610394462
2025-11-07 18:06:48.753816,-54,2025-11-07 18:06:52.618086769
2025-11-07 18:06:48.753816,-15873,2025-11-07 18:06:52.625779077
2025-11-07 18:06:48.753816,-1,2025-11-07 18:06:52.633471385
2025-11-07 18:06:48.753816,-63,2025-11-07 18:06:52.641163692
2025-11-07 18:06:48.753816,-10497,2025-11-07 18:06:52.648856000
2025-11-07 18:06:48.753816,-1,2025-11-07 18:06:52.656548308
2025-11-07 18:06:48.753816,-4,2025-11-07 18:06:52.664240615
2025-11-07 18:06:48.753816,7935,2025-11-07 18:06:52.671932923
2025-11-07 18:06:48.753816,0,2025-11-07 18:06:52.679625231
2025-11-07 18:06:48.753816,30,2025-11-07 18:06:52.687317538
2025-11-07 18:06:48.753816,2304,2025-11-07 18:06:52.695009846
2025-11-07 18:06:48.753816,0,2025-11-07 18:06:52.702702154
2025-11-07 18:06:48.753816,9,2025-11-07 18:06:52.710394462
2025-11-07 18:06:48.753816,4096,2025-11-07 18:06:52.718086769
2025-11-07 18:06:48.753816,0,2025-11-07 18:06:52.725779077
2025-11-07 18:06:48.753816,14,2025-11-07 18:06:52.733471385
2025-11-07 18:06:48.753816,2304,2025-11-07 18:06:52.741163692
2025-11-07 18:06:48.753816,0,2025-11-07 18:06:52.748856000
2025-11-07 18:06:48.753816,14,2025-11-07 18:06:52.756548308
2025-11-07 18:06:48.753816,4608,2025-11-07 18:06:52.764240615
2025-11-07 18:06:48.753816,0,2025-11-07 18:06:52.771932923
2025-11-07 18:06:48.753816,-14,2025-11-07 18:06:52.779625231
2025-11-07 18:06:48.753816,-24321,2025-11-07 18:06:52.787317538
2025-11-07 18:06:48.753816,-1,2025-11-07 18:06:52.795009846
2025-11-07 18:06:48.753816,70,2025-11-07 18:06:52.802702154
2025-11-07 18:06:48.753816,-30976,2025-11-07 18:06:52.810394462
2025-11-07 18:06:48.753816,3,2025-11-07 18:06:52.818086769
2025-11-07 18:06:48.753816,1851,2025-11-07 18:06:52.825779077
2025-11-07 18:06:48.753816,29184,2025-11-07 18:06:52.833471385
2025-11-07 18:06:48.753816,5,2025-11-07 18:06:52.841163692
2025-11-07 18:06:48.753816,-75,2025-11-07 18:06:52.848856000
2025-11-07 18:06:48.753816,-30209,2025-11-07 18:06:52.856548308
2025-11-07 18:06:48.753816,-2,2025-11-07 18:06:52.864240615
2025-11-07 18:06:48.753816,172,2025-11-07 18:06:52.871932923
2025-11-07 18:06:48.753816,12032,2025-11-07 18:06:52.879625231
2025-11-07 18:06:48.753816,0,2025-11-07 18:06:52.887317538
2025-11-07 18:06:48.753816,-215,2025-11-07 18:06:52.895009846
2025-11-07 18:06:48.753816,-19713,2025-11-07 18:06:52.902702154
2025-11-07 18:06:48.753816,-1,2025-11-07 18:06:52.910394462
2025-11-07 18:06:48.753816,-30,2025-11-07 18:06:52.918086769
2025-11-07 18:06:48.753816,-29953,2025-11-07 18:06:52.925779077
2025-11-07 18:06:48.753816,-1,2025-11-07 18:06:52.933471385
2025-11-07 18:06:48.753816,-85,2025-11-07 18:06:52.941163692
2025-11-07 18:06:49.338939,-37,2025-11-07 18:06:52.948856000
2025-11-07 18:06:49.338939,-15361,2025-11-07 18:06:52.956548308
2025-11-07 18:06:49.338939,-1,2025-11-07 18:06:52.964240615
2025-11-07 18:06:49.338939,-66,2025-11-07 18:06:52.971932923
2025-11-07 18:06:49.338939,-10497,2025-11-07 18:06:52.979625231
2025-11-07 18:06:49.338939,-1,2025-11-07 18:06:52.987317538
2025-11-07 18:06:49.338939,-37,2025-11-07 18:06:52.995009846
2025-11-07 18:06:49.338939,-9217,2025-11-07 18:06:53.002702154
2025-11-07 18:06:49.338939,-1,2025-11-07 18:06:53.010394462
2025-11-07 18:06:49.338939,-30,2025-11-07 18:06:53.018086769
2025-11-07 18:06:49.338939,-3841,2025-11-07 18:06:53.025779077
2025-11-07 18:06:49.338939,-1,2025-11-07 18:06:53.033471385
2025-11-07 18:06:49.338939,4,2025-11-07 18:06:53.041163692
2025-11-07 18:06:49.338939,4096,2025-11-07 18:06:53.048856000
2025-11-07 18:06:49.338939,0,2025-11-07 18:06:53.056548308
2025-11-07 18:06:49.338939,30,2025-11-07 18:06:53.064240615
2025-11-07 18:06:49.338939,12032,2025-11-07 18:06:53.071932923
2025-11-07 18:06:49.338939,0,2025-11-07 18:06:53.079625231
2025-11-07 18:06:49.338939,54,2025-11-07 18:06:53.087317538
2025-11-07 18:06:49.338939,16896,2025-11-07 18:06:53.095009846
2025-11-07 18:06:49.338939,0,2025-11-07 18:06:53.102702154
2025-11-07 18:06:49.338939,82,2025-11-07 18:06:53.110394462
2025-11-07 18:06:49.338939,26624,2025-11-07 18:06:53.118086769
2025-11-07 18:06:49.338939,0,2025-11-07 18:06:53.125779077
2025-11-07 18:06:49.338939,132,2025-11-07 18:06:53.133471385
2025-11-07 18:06:49.338939,-28672,2025-11-07 18:06:53.141163692
2025-11-07 18:06:49.338939,0,2025-11-07 18:06:53.148856000
2025-11-07 18:06:49.338939,141,2025-11-07 18:06:53.156548308
2025-11-07 18:06:49.338939,-27648,2025-11-07 18:06:53.164240615
2025-11-07 18:06:49.338939,0,2025-11-07 18:06:53.171932923
2025-11-07 18:06:49.338939,158,2025-11-07 18:06:53.179625231
2025-11-07 18:06:49.338939,-29440,2025-11-07 18:06:53.187317538
2025-11-07 18:06:49.338939,0,2025-11-07 18:06:53.195009846
2025-11-07 18:06:49.338939,92,2025-11-07 18:06:53.202702154
2025-11-07 18:06:49.338939,9472,2025-11-07 18:06:53.210394462
2025-11-07 18:06:49.338939,0,2025-11-07 18:06:53.218086769
2025-11-07 18:06:49.338939,7,2025-11-07 18:06:53.225779077
2025-11-07 18:06:49.338939,-4608,2025-11-07 18:06:53.233471385
2025-11-07 18:06:49.338939,-1,2025-11-07 18:06:53.241163692
2025-11-07 18:06:49.338939,-44,2025-11-07 18:06:53.248856000
2025-11-07 18:06:49.338939,-13569,2025-11-07 18:06:53.256548308
2025-11-07 18:06:49.338939,-1,2025-11-07 18:06:53.264240615
2025-11-07 18:06:49.338939,-56,2025-11-07 18:06:53.271932923
2025-11-07 18:06:49.338939,-14849,2025-11-07 18:06:53.279625231
2025-11-07 18:06:49.338939,-1,2025-11-07 18:06:53.287317538
2025-11-07 18:06:49.338939,-59,2025-11-07 18:06:53.295009846
2025-11-07 18:06:49.338939,-14849,2025-11-07 18:06:53.302702154
2025-11-07 18:06:49.338939,-1,2025-11-07 18:06:53.310394462
2025-11-07 18:06:49.338939,-56,2025-11-07 18:06:53.318086769
2025-11-07 18:06:49.338939,-15361,2025-11-07 18:06:53.325779077
2025-11-07 18:06:49.338939,-1,2025-11-07 18:06:53.333471385
2025-11-07 18:06:49.338939,-61,2025-11-07 18:06:53.341163692
2025-11-07 18:06:49.338939,-13057,2025-11-07 18:06:53.348856000
2025-11-07 18:06:49.338939,-1,2025-11-07 18:06:53.356548308
2025-11-07 18:06:49.338939,-56,2025-11-07 18:06:53.364240615
2025-11-07 18:06:49.338939,-15361,2025-11-07 18:06:53.371932923
2025-11-07 18:06:49.338939,-1,2025-11-07 18:06:53.379625231
2025-11-07 18:06:49.338939,-56,2025-11-07 18:06:53.387317538
2025-11-07 18:06:49.338939,-14081,2025-11-07 18:06:53.395009846
2025-11-07 18:06:49.338939,-1,2025-11-07 18:06:53.402702154
2025-11-07 18:06:49.338939,-56,2025-11-07 18:06:53.410394462
2025-11-07 18:06:49.338939,-13057,2025-11-07 18:06:53.418086769
2025-11-07 18:06:49.338939,-1,2025-11-07 18:06:53.425779077
2025-11-07 18:06:49.338939,-54,2025-11-07 18:06:53.433471385
2025-11-07 18:06:49.338939,-13569,2025-11-07 18:06:53.441163692
2025-11-07 18:06:49.338939,-1,2025-11-07 18:06:53.448856000
2025-11-07 18:06:49.338939,-52,2025-11-07 18:06:53.456548308
2025-11-07 18:06:49.338939,-14849,2025-11-07 18:06:53.464240615
2025-11-07 18:06:49.338939,-1,2025-11-07 18:06:53.471932923
2025-11-07 18:06:49.338939,-61,2025-11-07 18:06:53.479625231
2025-11-07 18:06:49.338939,-14849,2025-11-07 18:06:53.487317538
2025-11-07 18:06:49.338939,-1,2025-11-07 18:06:53.495009846
2025-11-07 18:06:49.338939,-66,2025-11-07 18:06:53.502702154
2025-11-07 18:06:49.338939,-20737,2025-11-07 18:06:53.510394462
2025-11-07 18:06:49.338939,-1,2025-11-07 18:06:53.518086769
2025-11-07 18:06:49.338939,-99,2025-11-07 18:06:53.525779077
2025-11-07 18:06:49.338939,-29185,2025-11-07 18:06:53.533471385
2025-11-07 18:06:49.338939,-1,2025-11-07 18:06:53.541163692
2025-11-07 18:06:49.338939,-122,2025-11-07 18:06:53.548856000
2025-11-07 18:06:49.338939,32511,2025-11-07 18:06:53.556548308
2025-11-07 18:06:49.338939,-1,2025-11-07 18:06:53.564240615
2025-11-07 18:06:49.338939,-139,2025-11-07 18:06:53.571932923
2025-11-07 18:06:49.338939,-31745,2025-11-07 18:06:53.579625230
2025-11-07 18:06:49.338939,-1,2025-11-07 18:06:53.587317538
2025-11-07 18:06:49.338939,-87,2025-11-07 18:06:53.595009846
2025-11-07 18:06:49.338939,-19713,2025-11-07 18:06:53.602702154
2025-11-07 18:06:49.338939,-1,2025-11-07 18:06:53.610394462
2025-11-07 18:06:49.338939,-94,2025-11-07 18:06:53.618086769
2025-11-07 18:06:49.338939,-23297,2025-11-07 18:06:53.625779077
2025-11-07 18:06:49.338939,-1,2025-11-07 18:06:53.633471385
2025-11-07 18:06:49.338939,-87,2025-11-07 18:06:53.641163692
2025-11-07 18:06:49.338939,-22529,2025-11-07 18:06:53.648856000
2025-11-07 18:06:49.338939,-1,2025-11-07 18:06:53.656548308
2025-11-07 18:06:49.338939,-87,2025-11-07 18:06:53.664240615
2025-11-07 18:06:49.338939,-21505,2025-11-07 18:06:53.671932923
2025-11-07 18:06:49.338939,-1,2025-11-07 18:06:53.679625231
2025-11-07 18:06:49.338939,-104,2025-11-07 18:06:53.687317538
2025-11-07 18:06:49.338939,19967,2025-11-07 18:06:53.695009846
2025-11-07 18:06:49.338939,-1,2025-11-07 18:06:53.702702154
2025-11-07 18:06:49.338939,-184,2025-11-07 18:06:53.710394462
2025-11-07 18:06:49.338939,30207,2025-11-07 18:06:53.718086769
2025-11-07 18:06:49.338939,1,2025-11-07 18:06:53.725779077
2025-11-07 18:06:49.338939,1453,2025-11-07 18:06:53.733471385
2025-11-07 18:06:49.338939,19968,2025-11-07 18:06:53.741163692
2025-11-07 18:06:49.338939,6,2025-11-07 18:06:53.748856000
2025-11-07 18:06:49.338939,215,2025-11-07 18:06:53.756548308
2025-11-07 18:06:49.338939,21760,2025-11-07 18:06:53.764240615
2025-11-07 18:06:49.338939,-3,2025-11-07 18:06:53.771932923
2025-11-07 18:06:49.338939,-130,2025-11-07 18:06:53.779625231
2025-11-07 18:06:49.878978,101,2025-11-07 18:06:53.787317538
2025-11-07 18:06:49.878978,-6400,2025-11-07 18:06:53.795009846
2025-11-07 18:06:49.878978,-2,2025-11-07 18:06:53.802702154
2025-11-07 18:06:49.878978,-269,2025-11-07 18:06:53.810394462
2025-11-07 18:06:49.878978,-31745,2025-11-07 18:06:53.818086769
2025-11-07 18:06:49.878978,-1,2025-11-07 18:06:53.825779077
2025-11-07 18:06:49.878978,-212,2025-11-07 18:06:53.833471385
2025-11-07 18:06:49.878978,5887,2025-11-07 18:06:53.841163692
2025-11-07 18:06:49.878978,-1,2025-11-07 18:06:53.848856000
2025-11-07 18:06:49.878978,-170,2025-11-07 18:06:53.856548308
2025-11-07 18:06:49.878978,19967,2025-11-07 18:06:53.864240615
2025-11-07 18:06:49.878978,-1,2025-11-07 18:06:53.871932923
2025-11-07 18:06:49.878978,-198,2025-11-07 18:06:53.879625231
2025-11-07 18:06:49.878978,20479,2025-11-07 18:06:53.887317538
2025-11-07 18:06:49.878978,-1,2025-11-07 18:06:53.895009846
2025-11-07 18:06:49.878978,-172,2025-11-07 18:06:53.902702154
2025-11-07 18:06:49.878978,19967,2025-11-07 18:06:53.910394462
2025-11-07 18:06:49.878978,-1,2025-11-07 18:06:53.918086769
2025-11-07 18:06:49.878978,-163,2025-11-07 18:06:53.925779077
2025-11-07 18:06:49.878978,29695,2025-11-07 18:06:53.933471385
2025-11-07 18:06:49.878978,-1,2025-11-07 18:06:53.941163692
2025-11-07 18:06:49.878978,-139,2025-11-07 18:06:53.948856000
2025-11-07 18:06:49.878978,30207,2025-11-07 18:06:53.956548308
2025-11-07 18:06:49.878978,-1,2025-11-07 18:06:53.964240615
2025-11-07 18:06:49.878978,-132,2025-11-07 18:06:53.971932923
2025-11-07 18:06:49.878978,-30977,2025-11-07 18:06:53.979625231
2025-11-07 18:06:49.878978,-1,2025-11-07 18:06:53.987317538
2025-11-07 18:06:49.878978,-115,2025-11-07 18:06:53.995009846
2025-11-07 18:06:49.878978,-25089,2025-11-07 18:06:54.002702154
2025-11-07 18:06:49.878978,-1,2025-11-07 18:06:54.010394462
2025-11-07 18:06:49.878978,-80,2025-11-07 18:06:54.018086769
2025-11-07 18:06:49.878978,-14849,2025-11-07 18:06:54.025779077
2025-11-07 18:06:49.878978,-1,2025-11-07 18:06:54.033471385
2025-11-07 18:06:49.878978,-37,2025-11-07 18:06:54.041163692
2025-11-07 18:06:49.878978,-3841,2025-11-07 18:06:54.048856000
2025-11-07 18:06:49.878978,-1,2025-11-07 18:06:54.056548308
2025-11-07 18:06:49.878978,-2,2025-11-07 18:06:54.064240615
2025-11-07 18:06:49.878978,3071,2025-11-07 18:06:54.071932923
2025-11-07 18:06:49.878978,0,2025-11-07 18:06:54.079625231
2025-11-07 18:06:49.878978,11,2025-11-07 18:06:54.087317538
2025-11-07 18:06:49.878978,-2816,2025-11-07 18:06:54.095009846
2025-11-07 18:06:49.878978,-1,2025-11-07 18:06:54.102702154
2025-11-07 18:06:49.878978,-59,2025-11-07 18:06:54.110394462
2025-11-07 18:06:49.878978,-25601,2025-11-07 18:06:54.118086769
2025-11-07 18:06:49.878978,-1,2025-11-07 18:06:54.125779077
2025-11-07 18:06:49.878978,-127,2025-11-07 18:06:54.133471385
2025-11-07 18:06:49.878978,29695,2025-11-07 18:06:54.141163692
2025-11-07 18:06:49.878978,-1,2025-11-07 18:06:54.148856000
2025-11-07 18:06:49.878978,-156,2025-11-07 18:06:54.156548308
2025-11-07 18:06:49.878978,24831,2025-11-07 18:06:54.164240615
2025-11-07 18:06:49.878978,-1,2025-11-07 18:06:54.171932923
2025-11-07 18:06:49.878978,-163,2025-11-07 18:06:54.179625231
2025-11-07 18:06:49.878978,24063,2025-11-07 18:06:54.187317538
2025-11-07 18:06:49.878978,-1,2025-11-07 18:06:54.195009846
2025-11-07 18:06:49.878978,-156,2025-11-07 18:06:54.202702154
2025-11-07 18:06:49.878978,27135,2025-11-07 18:06:54.210394462
2025-11-07 18:06:49.878978,-1,2025-11-07 18:06:54.218086769
2025-11-07 18:06:49.878978,-151,2025-11-07 18:06:54.225779077
2025-11-07 18:06:49.878978,27135,2025-11-07 18:06:54.233471385
2025-11-07 18:06:49.878978,-1,2025-11-07 18:06:54.241163692
2025-11-07 18:06:49.878978,-146,2025-11-07 18:06:54.248856000
2025-11-07 18:06:49.878978,28927,2025-11-07 18:06:54.256548308
2025-11-07 18:06:49.878978,-1,2025-11-07 18:06:54.264240615
2025-11-07 18:06:49.878978,-137,2025-11-07 18:06:54.271932923
2025-11-07 18:06:49.878978,-32257,2025-11-07 18:06:54.279625231
2025-11-07 18:06:49.878978,-1,2025-11-07 18:06:54.287317538
2025-11-07 18:06:49.878978,-125,2025-11-07 18:06:54.295009846
2025-11-07 18:06:49.878978,-30977,2025-11-07 18:06:54.302702154
2025-11-07 18:06:49.878978,-1,2025-11-07 18:06:54.310394462
2025-11-07 18:06:49.878978,-115,2025-11-07 18:06:54.318086769
2025-11-07 18:06:49.878978,-26881,2025-11-07 18:06:54.325779077
2025-11-07 18:06:49.878978,-1,2025-11-07 18:06:54.333471385
2025-11-07 18:06:49.878978,-101,2025-11-07 18:06:54.341163692
2025-11-07 18:06:49.878978,-25089,2025-11-07 18:06:54.348856000
2025-11-07 18:06:49.878978,-1,2025-11-07 18:06:54.356548308
2025-11-07 18:06:49.878978,-94,2025-11-07 18:06:54.364240615
2025-11-07 18:06:49.878978,-23297,2025-11-07 18:06:54.371932923
2025-11-07 18:06:49.878978,-1,2025-11-07 18:06:54.379625231
2025-11-07 18:06:49.878978,-92,2025-11-07 18:06:54.387317538
2025-11-07 18:06:49.878978,-22017,2025-11-07 18:06:54.395009846
2025-11-07 18:06:49.878978,-1,2025-11-07 18:06:54.402702154
2025-11-07 18:06:49.878978,-85,2025-11-07 18:06:54.410394462
2025-11-07 18:06:49.878978,-20737,2025-11-07 18:06:54.418086769
2025-11-07 18:06:49.878978,-1,2025-11-07 18:06:54.425779077
2025-11-07 18:06:49.878978,-82,2025-11-07 18:06:54.433471385
2025-11-07 18:06:49.878978,-20737,2025-11-07 18:06:54.441163692
2025-11-07 18:06:49.878978,-1,2025-11-07 18:06:54.448856000
2025-11-07 18:06:49.878978,-80,2025-11-07 18:06:54.456548308
2025-11-07 18:06:49.878978,-21505,2025-11-07 18:06:54.464240615
2025-11-07 18:06:49.878978,-1,2025-11-07 18:06:54.471932923
2025-11-07 18:06:49.878978,-104,2025-11-07 18:06:54.479625231
2025-11-07 18:06:49.878978,-30977,2025-11-07 18:06:54.487317538
2025-11-07 18:06:49.878978,-1,2025-11-07 18:06:54.495009846
2025-11-07 18:06:49.878978,-132,2025-11-07 18:06:54.502702154
2025-11-07 18:06:49.878978,32511,2025-11-07 18:06:54.510394462
2025-11-07 18:06:49.878978,-1,2025-11-07 18:06:54.518086769
2025-11-07 18:06:49.878978,-106,2025-11-07 18:06:54.525779077
2025-11-07 18:06:49.878978,-13569,2025-11-07 18:06:54.533471385
2025-11-07 18:06:49.878978,-1,2025-11-07 18:06:54.541163692
2025-11-07 18:06:49.878978,-16,2025-11-07 18:06:54.548856000
2025-11-07 18:06:49.878978,-4353,2025-11-07 18:06:54.556548308
2025-11-07 18:06:49.878978,-1,2025-11-07 18:06:54.564240615
2025-11-07 18:06:49.878978,-37,2025-11-07 18:06:54.571932923
2025-11-07 18:06:49.878978,-11009,2025-11-07 18:06:54.579625230
2025-11-07 18:06:49.878978,-1,2025-11-07 18:06:54.587317538
2025-11-07 18:06:49.878978,-37,2025-11-07 18:06:54.595009846
2025-11-07 18:06:49.878978,-7425,2025-11-07 18:06:54.602702154
2025-11-07 18:06:49.878978,-1,2025-11-07 18:06:54.610394462
2025-11-07 18:06:49.878978,-28,2025-11-07 18:06:54.618086769
2025-11-07 18:06:50.509997,-26,2025-11-07 18:06:54.625779077
2025-11-07 18:06:50.509997,-6401,2025-11-07 18:06:54.633471385
2025-11-07 18:06:50.509997,-1,2025-11-07 18:06:54.641163692
2025-11-07 18:06:50.509997,-52,2025-11-07 18:06:54.648856000
2025-11-07 18:06:50.509997,29695,2025-11-07 18:06:54.656548308
2025-11-07 18:06:50.509997,-1,2025-11-07 18:06:54.664240615
2025-11-07 18:06:50.509997,-54,2025-11-07 18:06:54.671932923
2025-11-07 18:06:50.509997,-15617,2025-11-07 18:06:54.679625231
2025-11-07 18:06:50.509997,2,2025-11-07 18:06:54.687317538
2025-11-07 18:06:50.509997,1799,2025-11-07 18:06:54.695009846
2025-11-07 18:06:50.509997,28416,2025-11-07 18:06:54.702702154
2025-11-07 18:06:50.509997,6,2025-11-07 18:06:54.710394462
2025-11-07 18:06:50.509997,134,2025-11-07 18:06:54.718086769
2025-11-07 18:06:50.509997,7168,2025-11-07 18:06:54.725779077
2025-11-07 18:06:50.509997,-2,2025-11-07 18:06:54.733471385
2025-11-07 18:06:50.509997,89,2025-11-07 18:06:54.741163692
2025-11-07 18:06:50.509997,29440,2025-11-07 18:06:54.748856000
2025-11-07 18:06:50.509997,0,2025-11-07 18:06:54.756548308
2025-11-07 18:06:50.509997,-243,2025-11-07 18:06:54.764240615
2025-11-07 18:06:50.509997,24063,2025-11-07 18:06:54.771932923
2025-11-07 18:06:50.509997,-1,2025-11-07 18:06:54.779625231
2025-11-07 18:06:50.509997,-61,2025-11-07 18:06:54.787317538
2025-11-07 18:06:50.509997,27903,2025-11-07 18:06:54.795009846
2025-11-07 18:06:50.509997,-1,2025-11-07 18:06:54.802702154
2025-11-07 18:06:50.509997,-139,2025-11-07 18:06:54.810394462
2025-11-07 18:06:50.509997,-21505,2025-11-07 18:06:54.818086769
2025-11-07 18:06:50.509997,-1,2025-11-07 18:06:54.825779077
2025-11-07 18:06:50.509997,-108,2025-11-07 18:06:54.833471385
2025-11-07 18:06:50.509997,-29953,2025-11-07 18:06:54.841163692
2025-11-07 18:06:50.509997,-1,2025-11-07 18:06:54.848856000
2025-11-07 18:06:50.509997,-92,2025-11-07 18:06:54.856548308
2025-11-07 18:06:50.509997,-22017,2025-11-07 18:06:54.864240615
2025-11-07 18:06:50.509997,-1,2025-11-07 18:06:54.871932923
2025-11-07 18:06:50.509997,-89,2025-11-07 18:06:54.879625231
2025-11-07 18:06:50.509997,-20225,2025-11-07 18:06:54.887317538
2025-11-07 18:06:50.509997,-1,2025-11-07 18:06:54.895009846
2025-11-07 18:06:50.509997,-70,2025-11-07 18:06:54.902702154
2025-11-07 18:06:50.509997,-17153,2025-11-07 18:06:54.910394462
2025-11-07 18:06:50.509997,-1,2025-11-07 18:06:54.918086769
2025-11-07 18:06:50.509997,-66,2025-11-07 18:06:54.925779077
2025-11-07 18:06:50.509997,-14081,2025-11-07 18:06:54.933471385
2025-11-07 18:06:50.509997,-1,2025-11-07 18:06:54.941163692
2025-11-07 18:06:50.509997,-42,2025-11-07 18:06:54.948856000
2025-11-07 18:06:50.509997,-8705,2025-11-07 18:06:54.956548308
2025-11-07 18:06:50.509997,-1,2025-11-07 18:06:54.964240615
2025-11-07 18:06:50.509997,-23,2025-11-07 18:06:54.971932923
2025-11-07 18:06:50.509997,767,2025-11-07 18:06:54.979625231
2025-11-07 18:06:50.509997,0,2025-11-07 18:06:54.987317538
2025-11-07 18:06:50.509997,23,2025-11-07 18:06:54.995009846
2025-11-07 18:06:50.509997,10240,2025-11-07 18:06:55.002702154
2025-11-07 18:06:50.509997,0,2025-11-07 18:06:55.010394462
2025-11-07 18:06:50.509997,54,2025-11-07 18:06:55.018086769
2025-11-07 18:06:50.509997,17408,2025-11-07 18:06:55.025779077
2025-11-07 18:06:50.509997,0,2025-11-07 18:06:55.033471385
2025-11-07 18:06:50.509997,89,2025-11-07 18:06:55.041163692
2025-11-07 18:06:50.509997,25344,2025-11-07 18:06:55.048856000
2025-11-07 18:06:50.509997,0,2025-11-07 18:06:55.056548308
2025-11-07 18:06:50.509997,78,2025-11-07 18:06:55.064240615
2025-11-07 18:06:50.509997,8448,2025-11-07 18:06:55.071932923
2025-11-07 18:06:50.509997,0,2025-11-07 18:06:55.079625231
2025-11-07 18:06:50.509997,-14,2025-11-07 18:06:55.087317538
2025-11-07 18:06:50.509997,-11009,2025-11-07 18:06:55.095009846
2025-11-07 18:06:50.509997,-1,2025-11-07 18:06:55.102702154
2025-11-07 18:06:50.509997,-59,2025-11-07 18:06:55.110394462
2025-11-07 18:06:50.509997,-17665,2025-11-07 18:06:55.118086769
2025-11-07 18:06:50.509997,-1,2025-11-07 18:06:55.125779077
2025-11-07 18:06:50.509997,-80,2025-11-07 18:06:55.133471385
2025-11-07 18:06:50.509997,-20225,2025-11-07 18:06:55.141163692
2025-11-07 18:06:50.509997,-1,2025-11-07 18:06:55.148856000
2025-11-07 18:06:50.509997,-78,2025-11-07 18:06:55.156548308
2025-11-07 18:06:50.509997,-17665,2025-11-07 18:06:55.164240615
2025-11-07 18:06:50.509997,-1,2025-11-07 18:06:55.171932923
2025-11-07 18:06:50.509997,-68,2025-11-07 18:06:55.179625231
2025-11-07 18:06:50.509997,-15873,2025-11-07 18:06:55.187317538
2025-11-07 18:06:50.509997,-1,2025-11-07 18:06:55.195009846
2025-11-07 18:06:50.509997,-56,2025-11-07 18:06:55.202702154
2025-11-07 18:06:50.509997,-11777,2025-11-07 18:06:55.210394462
2025-11-07 18:06:50.509997,-1,2025-11-07 18:06:55.218086769
2025-11-07 18:06:50.509997,-42,2025-11-07 18:06:55.225779077
2025-11-07 18:06:50.509997,-9217,2025-11-07 18:06:55.233471385
2025-11-07 18:06:50.509997,-1,2025-11-07 18:06:55.241163692
2025-11-07 18:06:50.509997,-28,2025-11-07 18:06:55.248856000
2025-11-07 18:06:50.509997,-3841,2025-11-07 18:06:55.256548308
2025-11-07 18:06:50.509997,-1,2025-11-07 18:06:55.264240615
2025-11-07 18:06:50.509997,-14,2025-11-07 18:06:55.271932923
2025-11-07 18:06:50.509997,-3329,2025-11-07 18:06:55.279625231
2025-11-07 18:06:50.509997,-1,2025-11-07 18:06:55.287317538
2025-11-07 18:06:50.509997,-14,2025-11-07 18:06:55.295009846
2025-11-07 18:06:50.509997,-2049,2025-11-07 18:06:55.302702154
2025-11-07 18:06:50.509997,-1,2025-11-07 18:06:55.310394462
2025-11-07 18:06:50.509997,-2,2025-11-07 18:06:55.318086769
2025-11-07 18:06:50.509997,767,2025-11-07 18:06:55.325779077
2025-11-07 18:06:50.509997,0,2025-11-07 18:06:55.333471385
2025-11-07 18:06:50.509997,4,2025-11-07 18:06:55.341163692
2025-11-07 18:06:50.509997,1792,2025-11-07 18:06:55.348856000
2025-11-07 18:06:50.509997,0,2025-11-07 18:06:55.356548308
2025-11-07 18:06:50.509997,7,2025-11-07 18:06:55.364240615
2025-11-07 18:06:50.509997,1792,2025-11-07 18:06:55.371932923
2025-11-07 18:06:50.509997,0,2025-11-07 18:06:55.379625231
2025-11-07 18:06:50.509997,9,2025-11-07 18:06:55.387317538
2025-11-07 18:06:50.509997,2304,2025-11-07 18:06:55.395009846
2025-11-07 18:06:50.509997,0,2025-11-07 18:06:55.402702154
2025-11-07 18:06:50.509997,11,2025-11-07 18:06:55.410394462
2025-11-07 18:06:50.509997,1792,2025-11-07 18:06:55.418086769
2025-11-07 18:06:50.509997,0,2025-11-07 18:06:55.425779077
2025-11-07 18:06:50.509997,-9,2025-11-07 18:06:55.433471385
2025-11-07 18:06:50.509997,-6913,2025-11-07 18:06:55.441163692
2025-11-07 18:06:50.509997,-1,2025-11-07 18:06:55.448856000
2025-11-07 18:06:50.509997,-40,2025-11-07 18:06:55.456548308
2025-11-07 18:06:51.003988,-44,2025-11-07 18:06:55.464240615
2025-11-07 18:06:51.003988,-6913,2025-11-07 18:06:55.471932923
2025-11-07 18:06:51.003988,-1,2025-11-07 18:06:55.479625231
2025-11-07 18:06:51.003988,16,2025-11-07 18:06:55.487317538
2025-11-07 18:06:51.003988,13824,2025-11-07 18:06:55.495009846
2025-11-07 18:06:51.003988,0,2025-11-07 18:06:55.502702154
2025-11-07 18:06:51.003988,61,2025-11-07 18:06:55.510394462
2025-11-07 18:06:51.003988,12032,2025-11-07 18:06:55.518086769
2025-11-07 18:06:51.003988,0,2025-11-07 18:06:55.525779077
2025-11-07 18:06:51.003988,33,2025-11-07 18:06:55.533471385
2025-11-07 18:06:51.003988,8448,2025-11-07 18:06:55.541163692
2025-11-07 18:06:51.003988,0,2025-11-07 18:06:55.548856000
2025-11-07 18:06:51.003988,47,2025-11-07 18:06:55.556548308
2025-11-07 18:06:51.003988,12544,2025-11-07 18:06:55.564240615
2025-11-07 18:06:51.003988,0,2025-11-07 18:06:55.571932923
2025-11-07 18:06:51.003988,44,2025-11-07 18:06:55.579625230
2025-11-07 18:06:51.003988,12032,2025-11-07 18:06:55.587317538
2025-11-07 18:06:51.003988,0,2025-11-07 18:06:55.595009846
2025-11-07 18:06:51.003988,35,2025-11-07 18:06:55.602702154
2025-11-07 18:06:51.003988,-10240,2025-11-07 18:06:55.610394462
2025-11-07 18:06:51.003988,-1,2025-11-07 18:06:55.618086769
2025-11-07 18:06:51.003988,-21,2025-11-07 18:06:55.625779077
2025-11-07 18:06:51.003988,21503,2025-11-07 18:06:55.633471385
2025-11-07 18:06:51.003988,2,2025-11-07 18:06:55.641163692
2025-11-07 18:06:51.003988,1680,2025-11-07 18:06:55.648856000
2025-11-07 18:06:51.003988,-12288,2025-11-07 18:06:55.656548308
2025-11-07 18:06:51.003988,6,2025-11-07 18:06:55.664240615
2025-11-07 18:06:51.003988,281,2025-11-07 18:06:55.671932923
2025-11-07 18:06:51.003988,-10496,2025-11-07 18:06:55.679625231
2025-11-07 18:06:51.003988,-3,2025-11-07 18:06:55.687317538
2025-11-07 18:06:51.003988,63,2025-11-07 18:06:55.695009846
2025-11-07 18:06:51.003988,4608,2025-11-07 18:06:55.702702154
2025-11-07 18:06:51.003988,1,2025-11-07 18:06:55.710394462
2025-11-07 18:06:51.003988,-120,2025-11-07 18:06:55.718086769
2025-11-07 18:06:51.003988,-22529,2025-11-07 18:06:55.725779077
2025-11-07 18:06:51.003988,-1,2025-11-07 18:06:55.733471385
2025-11-07 18:06:51.003988,54,2025-11-07 18:06:55.741163692
2025-11-07 18:06:51.003988,-8448,2025-11-07 18:06:55.748856000
2025-11-07 18:06:51.003988,-1,2025-11-07 18:06:55.756548308
2025-11-07 18:06:51.003988,-52,2025-11-07 18:06:55.764240615
2025-11-07 18:06:51.003988,2047,2025-11-07 18:06:55.771932923
2025-11-07 18:06:51.003988,0,2025-11-07 18:06:55.779625231
2025-11-07 18:06:51.003988,-4,2025-11-07 18:06:55.787317538
2025-11-07 18:06:51.003988,-4353,2025-11-07 18:06:55.795009846
2025-11-07 18:06:51.003988,-1,2025-11-07 18:06:55.802702154
2025-11-07 18:06:51.003988,2,2025-11-07 18:06:55.810394462
2025-11-07 18:06:51.003988,1792,2025-11-07 18:06:55.818086769
2025-11-07 18:06:51.003988,0,2025-11-07 18:06:55.825779077
2025-11-07 18:06:51.003988,2,2025-11-07 18:06:55.833471385
2025-11-07 18:06:51.003988,2304,2025-11-07 18:06:55.841163692
2025-11-07 18:06:51.003988,0,2025-11-07 18:06:55.848856000
2025-11-07 18:06:51.003988,18,2025-11-07 18:06:55.856548308
2025-11-07 18:06:51.003988,6656,2025-11-07 18:06:55.864240615
2025-11-07 18:06:51.003988,0,2025-11-07 18:06:55.871932923
2025-11-07 18:06:51.003988,33,2025-11-07 18:06:55.879625231
2025-11-07 18:06:51.003988,10240,2025-11-07 18:06:55.887317538
2025-11-07 18:06:51.003988,0,2025-11-07 18:06:55.895009846
2025-11-07 18:06:51.003988,49,2025-11-07 18:06:55.902702154
2025-11-07 18:06:51.003988,15104,2025-11-07 18:06:55.910394462
2025-11-07 18:06:51.003988,0,2025-11-07 18:06:55.918086769
2025-11-07 18:06:51.003988,73,2025-11-07 18:06:55.925779077
2025-11-07 18:06:51.003988,24064,2025-11-07 18:06:55.933471385
2025-11-07 18:06:51.003988,0,2025-11-07 18:06:55.941163692
2025-11-07 18:06:51.003988,118,2025-11-07 18:06:55.948856000
2025-11-07 18:06:51.003988,-31232,2025-11-07 18:06:55.956548308
2025-11-07 18:06:51.003988,0,2025-11-07 18:06:55.964240615
2025-11-07 18:06:51.003988,148,2025-11-07 18:06:55.971932923
2025-11-07 18:06:51.003988,-23808,2025-11-07 18:06:55.979625231
2025-11-07 18:06:51.003988,0,2025-11-07 18:06:55.987317538
2025-11-07 18:06:51.003988,170,2025-11-07 18:06:55.995009846
2025-11-07 18:06:51.003988,-23296,2025-11-07 18:06:56.002702154
2025-11-07 18:06:51.003988,0,2025-11-07 18:06:56.010394462
2025-11-07 18:06:51.003988,141,2025-11-07 18:06:56.018086769
2025-11-07 18:06:51.003988,24576,2025-11-07 18:06:56.025779077
2025-11-07 18:06:51.003988,0,2025-11-07 18:06:56.033471385
2025-11-07 18:06:51.003988,47,2025-11-07 18:06:56.041163692
2025-11-07 18:06:51.003988,4608,2025-11-07 18:06:56.048856000
2025-11-07 18:06:51.003988,0,2025-11-07 18:06:56.056548308
2025-11-07 18:06:51.003988,9,2025-11-07 18:06:56.064240615
2025-11-07 18:06:51.003988,0,2025-11-07 18:06:56.071932923
2025-11-07 18:06:51.003988,0,2025-11-07 18:06:56.079625231
2025-11-07 18:06:51.003988,-9,2025-11-07 18:06:56.087317538
2025-11-07 18:06:51.003988,-3329,2025-11-07 18:06:56.095009846
2025-11-07 18:06:51.003988,-1,2025-11-07 18:06:56.102702154
2025-11-07 18:06:51.003988,-16,2025-11-07 18:06:56.110394462
2025-11-07 18:06:51.003988,-3329,2025-11-07 18:06:56.118086769
2025-11-07 18:06:51.003988,-1,2025-11-07 18:06:56.125779077
2025-11-07 18:06:51.003988,-11,2025-11-07 18:06:56.133471385
2025-11-07 18:06:51.003988,-1537,2025-11-07 18:06:56.141163692
2025-11-07 18:06:51.003988,-1,2025-11-07 18:06:56.148856000
2025-11-07 18:06:51.003988,-2,2025-11-07 18:06:56.156548308
2025-11-07 18:06:51.003988,767,2025-11-07 18:06:56.164240615
2025-11-07 18:06:51.003988,0,2025-11-07 18:06:56.171932923
2025-11-07 18:06:51.003988,7,2025-11-07 18:06:56.179625231
2025-11-07 18:06:51.003988,1792,2025-11-07 18:06:56.187317538
2025-11-07 18:06:51.003988,0,2025-11-07 18:06:56.195009846
2025-11-07 18:06:51.003988,11,2025-11-07 18:06:56.202702154
2025-11-07 18:06:51.003988,4608,2025-11-07 18:06:56.210394462
2025-11-07 18:06:51.003988,0,2025-11-07 18:06:56.218086769
2025-11-07 18:06:51.003988,23,2025-11-07 18:06:56.225779077
2025-11-07 18:06:51.003988,6656,2025-11-07 18:06:56.233471385
2025-11-07 18:06:51.003988,0,2025-11-07 18:06:56.241163692
2025-11-07 18:06:51.003988,30,2025-11-07 18:06:56.248856000
2025-11-07 18:06:51.003988,8448,2025-11-07 18:06:56.256548308
2025-11-07 18:06:51.003988,0,2025-11-07 18:06:56.264240615
2025-11-07 18:06:51.003988,37,2025-11-07 18:06:56.271932923
2025-11-07 18:06:51.003988,10752,2025-11-07 18:06:56.279625231
2025-11-07 18:06:51.003988,0,2025-11-07 18:06:56.287317538
2025-11-07 18:06:51.003988,47,2025-11-07 18:06:56.295009846
2025-11-07 18:06:51.543846,49,2025-11-07 18:06:56.302702154
2025-11-07 18:06:51.543846,11264,2025-11-07 18:06:56.310394462
2025-11-07 18:06:51.543846,0,2025-11-07 18:06:56.318086769
2025-11-07 18:06:51.543846,42,2025-11-07 18:06:56.325779077
2025-11-07 18:06:51.543846,11264,2025-11-07 18:06:56.333471385
2025-11-07 18:06:51.543846,0,2025-11-07 18:06:56.341163692
2025-11-07 18:06:51.543846,49,2025-11-07 18:06:56.348856000
2025-11-07 18:06:51.543846,12032,2025-11-07 18:06:56.356548308
2025-11-07 18:06:51.543846,0,2025-11-07 18:06:56.364240615
2025-11-07 18:06:51.543846,47,2025-11-07 18:06:56.371932923
2025-11-07 18:06:51.543846,12032,2025-11-07 18:06:56.379625231
2025-11-07 18:06:51.543846,0,2025-11-07 18:06:56.387317538
2025-11-07 18:06:51.543846,44,2025-11-07 18:06:56.395009846
2025-11-07 18:06:51.543846,12032,2025-11-07 18:06:56.402702154
2025-11-07 18:06:51.543846,0,2025-11-07 18:06:56.410394462
2025-11-07 18:06:51.543846,56,2025-11-07 18:06:56.418086769
2025-11-07 18:06:51.543846,13824,2025-11-07 18:06:56.425779077
2025-11-07 18:06:51.543846,0,2025-11-07 18:06:56.433471385
2025-11-07 18:06:51.543846,28,2025-11-07 18:06:56.441163692
2025-11-07 18:06:51.543846,512,2025-11-07 18:06:56.448856000
2025-11-07 18:06:51.543846,0,2025-11-07 18:06:56.456548308
2025-11-07 18:06:51.543846,0,2025-11-07 18:06:56.464240615
2025-11-07 18:06:51.543846,1792,2025-11-07 18:06:56.471932923
2025-11-07 18:06:51.543846,0,2025-11-07 18:06:56.479625231
2025-11-07 18:06:51.543846,28,2025-11-07 18:06:56.487317538
2025-11-07 18:06:51.543846,19200,2025-11-07 18:06:56.495009846
2025-11-07 18:06:51.543846,0,2025-11-07 18:06:56.502702154
2025-11-07 18:06:51.543846,96,2025-11-07 18:06:56.510394462
2025-11-07 18:06:51.543846,19968,2025-11-07 18:06:56.518086769
2025-11-07 18:06:51.543846,0,2025-11-07 18:06:56.525779077
2025-11-07 18:06:51.543846,63,2025-11-07 18:06:56.533471385
2025-11-07 18:06:51.543846,16128,2025-11-07 18:06:56.541163692
2025-11-07 18:06:51.543846,0,2025-11-07 18:06:56.548856000
2025-11-07 18:06:51.543846,66,2025-11-07 18:06:56.556548308
2025-11-07 18:06:51.543846,18688,2025-11-07 18:06:56.564240615
2025-11-07 18:06:51.543846,0,2025-11-07 18:06:56.571932923
2025-11-07 18:06:51.543846,73,2025-11-07 18:06:56.579625230
2025-11-07 18:06:51.543846,17408,2025-11-07 18:06:56.587317538
2025-11-07 18:06:51.543846,0,2025-11-07 18:06:56.595009846
2025-11-07 18:06:51.543846,61,2025-11-07 18:06:56.602702154
2025-11-07 18:06:51.543846,0,2025-11-07 18:06:56.610394462
2025-11-07 18:06:51.543846,0,2025-11-07 18:06:56.618086769
2025-11-07 18:06:51.543846,-49,2025-11-07 18:06:56.625779077
2025-11-07 18:06:51.543846,31487,2025-11-07 18:06:56.633471385
2025-11-07 18:06:51.543846,1,2025-11-07 18:06:56.641163692
2025-11-07 18:06:51.543846,1432,2025-11-07 18:06:56.648856000
2025-11-07 18:06:51.543846,-20224,2025-11-07 18:06:56.656548308
2025-11-07 18:06:51.543846,7,2025-11-07 18:06:56.664240615
2025-11-07 18:06:51.543846,891,2025-11-07 18:06:56.671932923
2025-11-07 18:06:51.543846,-20992,2025-11-07 18:06:56.679625231
2025-11-07 18:06:51.543846,-2,2025-11-07 18:06:56.687317538
2025-11-07 18:06:51.543846,-89,2025-11-07 18:06:56.695009846
2025-11-07 18:06:51.543846,9727,2025-11-07 18:06:56.702702154
2025-11-07 18:06:51.543846,1,2025-11-07 18:06:56.710394462
2025-11-07 18:06:51.543846,-68,2025-11-07 18:06:56.718086769
2025-11-07 18:06:51.543846,19199,2025-11-07 18:06:56.725779077
2025-11-07 18:06:51.543846,-1,2025-11-07 18:06:56.733471385
2025-11-07 18:06:51.543846,-11,2025-11-07 18:06:56.741163692
2025-11-07 18:06:51.543846,-13569,2025-11-07 18:06:56.748856000
2025-11-07 18:06:51.543846,-1,2025-11-07 18:06:56.756548308
2025-11-07 18:06:51.543846,-113,2025-11-07 18:06:56.764240615
2025-11-07 18:06:51.543846,-13057,2025-11-07 18:06:56.771932923
2025-11-07 18:06:51.543846,-1,2025-11-07 18:06:56.779625231
2025-11-07 18:06:51.543846,-44,2025-11-07 18:06:56.787317538
2025-11-07 18:06:51.543846,-17665,2025-11-07 18:06:56.795009846
2025-11-07 18:06:51.543846,-1,2025-11-07 18:06:56.802702154
2025-11-07 18:06:51.543846,-47,2025-11-07 18:06:56.810394462
2025-11-07 18:06:51.543846,-6913,2025-11-07 18:06:56.818086769
2025-11-07 18:06:51.543846,-1,2025-11-07 18:06:56.825779077
2025-11-07 18:06:51.543846,-40,2025-11-07 18:06:56.833471385
2025-11-07 18:06:51.543846,-8705,2025-11-07 18:06:56.841163692
2025-11-07 18:06:51.543846,-1,2025-11-07 18:06:56.848856000
2025-11-07 18:06:51.543846,-26,2025-11-07 18:06:56.856548308
2025-11-07 18:06:51.543846,-5633,2025-11-07 18:06:56.864240615
2025-11-07 18:06:51.543846,-1,2025-11-07 18:06:56.871932923
2025-11-07 18:06:51.543846,-21,2025-11-07 18:06:56.879625231
2025-11-07 18:06:51.543846,-2561,2025-11-07 18:06:56.887317538
2025-11-07 18:06:51.543846,-1,2025-11-07 18:06:56.895009846
2025-11-07 18:06:51.543846,-4,2025-11-07 18:06:56.902702154
2025-11-07 18:06:51.543846,255,2025-11-07 18:06:56.910394462
2025-11-07 18:06:51.543846,0,2025-11-07 18:06:56.918086769
2025-11-07 18:06:51.543846,11,2025-11-07 18:06:56.925779077
2025-11-07 18:06:51.543846,6656,2025-11-07 18:06:56.933471385
2025-11-07 18:06:51.543846,0,2025-11-07 18:06:56.941163692
2025-11-07 18:06:51.543846,44,2025-11-07 18:06:56.948856000
2025-11-07 18:06:51.543846,17408,2025-11-07 18:06:56.956548308
2025-11-07 18:06:51.543846,0,2025-11-07 18:06:56.964240615
2025-11-07 18:06:51.543846,87,2025-11-07 18:06:56.971932923
2025-11-07 18:06:51.543846,25344,2025-11-07 18:06:56.979625231
2025-11-07 18:06:51.543846,0,2025-11-07 18:06:56.987317538
2025-11-07 18:06:51.543846,108,2025-11-07 18:06:56.995009846
2025-11-07 18:06:51.543846,30720,2025-11-07 18:06:57.002702154
2025-11-07 18:06:51.543846,0,2025-11-07 18:06:57.010394462
2025-11-07 18:06:51.543846,118,2025-11-07 18:06:57.018086769
2025-11-07 18:06:51.543846,20480,2025-11-07 18:06:57.025779077
2025-11-07 18:06:51.543846,0,2025-11-07 18:06:57.033471385
2025-11-07 18:06:51.543846,23,2025-11-07 18:06:57.041163692
2025-11-07 18:06:51.543846,-3584,2025-11-07 18:06:57.048856000
2025-11-07 18:06:51.543846,-1,2025-11-07 18:06:57.056548308
2025-11-07 18:06:51.543846,-37,2025-11-07 18:06:57.064240615
2025-11-07 18:06:51.543846,-14849,2025-11-07 18:06:57.071932923
2025-11-07 18:06:51.543846,-1,2025-11-07 18:06:57.079625231
2025-11-07 18:06:51.543846,-59,2025-11-07 18:06:57.087317538
2025-11-07 18:06:51.543846,-14081,2025-11-07 18:06:57.095009846
2025-11-07 18:06:51.543846,-1,2025-11-07 18:06:57.102702154
2025-11-07 18:06:51.543846,-61,2025-11-07 18:06:57.110394462
2025-11-07 18:06:51.543846,-14849,2025-11-07 18:06:57.118086769
