timestamp,ecg,reconstructed_time
2025-11-07 18:46:55.311263,-274,2025-11-07 18:46:55.311263000
2025-11-07 18:46:55.311263,-4353,2025-11-07 18:46:55.318955308
2025-11-07 18:46:55.311263,-2,2025-11-07 18:46:55.326647615
2025-11-07 18:46:55.311263,-276,2025-11-07 18:46:55.334339923
2025-11-07 18:46:55.311263,-4353,2025-11-07 18:46:55.342032231
2025-11-07 18:46:55.311263,-2,2025-11-07 18:46:55.349724538
2025-11-07 18:46:55.311263,-261,2025-11-07 18:46:55.357416846
2025-11-07 18:46:55.311263,-1,2025-11-07 18:46:55.365109154
2025-11-07 18:46:55.311263,-2,2025-11-07 18:46:55.372801462
2025-11-07 18:46:55.311263,-257,2025-11-07 18:46:55.380493769
2025-11-07 18:46:55.311263,-3073,2025-11-07 18:46:55.388186077
2025-11-07 18:46:55.311263,-2,2025-11-07 18:46:55.395878385
2025-11-07 18:46:55.311263,-274,2025-11-07 18:46:55.403570692
2025-11-07 18:46:55.311263,-1793,2025-11-07 18:46:55.411263000
2025-11-07 18:46:55.311263,-2,2025-11-07 18:46:55.418955308
2025-11-07 18:46:55.311263,-271,2025-11-07 18:46:55.426647615
2025-11-07 18:46:55.311263,-4865,2025-11-07 18:46:55.434339923
2025-11-07 18:46:55.311263,-2,2025-11-07 18:46:55.442032231
2025-11-07 18:46:55.311263,-288,2025-11-07 18:46:55.449724538
2025-11-07 18:46:55.311263,-11009,2025-11-07 18:46:55.457416846
2025-11-07 18:46:55.311263,-2,2025-11-07 18:46:55.465109154
2025-11-07 18:46:55.311263,-271,2025-11-07 18:46:55.472801462
2025-11-07 18:46:55.311263,9983,2025-11-07 18:46:55.480493769
2025-11-07 18:46:55.311263,-1,2025-11-07 18:46:55.488186077
2025-11-07 18:46:55.311263,-177,2025-11-07 18:46:55.495878385
2025-11-07 18:46:55.311263,16895,2025-11-07 18:46:55.503570692
2025-11-07 18:46:55.311263,-1,2025-11-07 18:46:55.511263000
2025-11-07 18:46:55.311263,-215,2025-11-07 18:46:55.518955308
2025-11-07 18:46:55.311263,13823,2025-11-07 18:46:55.526647615
2025-11-07 18:46:55.311263,-1,2025-11-07 18:46:55.534339923
2025-11-07 18:46:55.311263,-223,2025-11-07 18:46:55.542032231
2025-11-07 18:46:55.311263,1279,2025-11-07 18:46:55.549724538
2025-11-07 18:46:55.311263,-1,2025-11-07 18:46:55.557416846
2025-11-07 18:46:55.311263,-240,2025-11-07 18:46:55.565109154
2025-11-07 18:46:55.311263,3327,2025-11-07 18:46:55.572801462
2025-11-07 18:46:55.311263,-1,2025-11-07 18:46:55.580493769
2025-11-07 18:46:55.311263,-269,2025-11-07 18:46:55.588186077
2025-11-07 18:46:55.311263,-7425,2025-11-07 18:46:55.595878385
2025-11-07 18:46:55.311263,-2,2025-11-07 18:46:55.603570692
2025-11-07 18:46:55.311263,-300,2025-11-07 18:46:55.611263000
2025-11-07 18:46:55.311263,-12801,2025-11-07 18:46:55.618955308
2025-11-07 18:46:55.311263,-2,2025-11-07 18:46:55.626647615
2025-11-07 18:46:55.311263,-329,2025-11-07 18:46:55.634339923
2025-11-07 18:46:55.311263,-22273,2025-11-07 18:46:55.642032231
2025-11-07 18:46:55.311263,-2,2025-11-07 18:46:55.649724538
2025-11-07 18:46:55.311263,-356,2025-11-07 18:46:55.657416846
2025-11-07 18:46:55.311263,-32257,2025-11-07 18:46:55.665109154
2025-11-07 18:46:55.311263,-2,2025-11-07 18:46:55.672801462
2025-11-07 18:46:55.311263,-395,2025-11-07 18:46:55.680493769
2025-11-07 18:46:55.311263,28927,2025-11-07 18:46:55.688186077
2025-11-07 18:46:55.311263,-2,2025-11-07 18:46:55.695878385
2025-11-07 18:46:55.311263,-392,2025-11-07 18:46:55.703570692
2025-11-07 18:46:55.311263,-30977,2025-11-07 18:46:55.711263000
2025-11-07 18:46:55.311263,-2,2025-11-07 18:46:55.718955308
2025-11-07 18:46:55.311263,-373,2025-11-07 18:46:55.726647615
2025-11-07 18:46:55.311263,-27905,2025-11-07 18:46:55.734339923
2025-11-07 18:46:55.311263,-2,2025-11-07 18:46:55.742032231
2025-11-07 18:46:55.311263,-373,2025-11-07 18:46:55.749724538
2025-11-07 18:46:55.311263,31999,2025-11-07 18:46:55.757416846
2025-11-07 18:46:55.311263,-2,2025-11-07 18:46:55.765109154
2025-11-07 18:46:55.311263,-385,2025-11-07 18:46:55.772801462
2025-11-07 18:46:55.311263,27135,2025-11-07 18:46:55.780493769
2025-11-07 18:46:55.311263,-2,2025-11-07 18:46:55.788186077
2025-11-07 18:46:55.311263,-431,2025-11-07 18:46:55.795878385
2025-11-07 18:46:55.311263,16639,2025-11-07 18:46:55.803570692
2025-11-07 18:46:55.311263,-2,2025-11-07 18:46:55.811263000
2025-11-07 18:46:55.311263,-477,2025-11-07 18:46:55.818955308
2025-11-07 18:46:55.311263,7167,2025-11-07 18:46:55.826647615
2025-11-07 18:46:55.311263,-2,2025-11-07 18:46:55.834339923
2025-11-07 18:46:55.311263,-489,2025-11-07 18:46:55.842032230
2025-11-07 18:46:55.311263,2815,2025-11-07 18:46:55.849724538
2025-11-07 18:46:55.311263,-2,2025-11-07 18:46:55.857416846
2025-11-07 18:46:55.311263,-506,2025-11-07 18:46:55.865109154
2025-11-07 18:46:55.311263,-3329,2025-11-07 18:46:55.872801462
2025-11-07 18:46:55.311263,-3,2025-11-07 18:46:55.880493769
2025-11-07 18:46:55.311263,-540,2025-11-07 18:46:55.888186077
2025-11-07 18:46:55.311263,-7681,2025-11-07 18:46:55.895878385
2025-11-07 18:46:55.311263,-3,2025-11-07 18:46:55.903570692
2025-11-07 18:46:55.311263,-548,2025-11-07 18:46:55.911263000
2025-11-07 18:46:55.311263,-5121,2025-11-07 18:46:55.918955308
2025-11-07 18:46:55.311263,-3,2025-11-07 18:46:55.926647615
2025-11-07 18:46:55.311263,-526,2025-11-07 18:46:55.934339923
2025-11-07 18:46:55.311263,-3841,2025-11-07 18:46:55.942032231
2025-11-07 18:46:55.311263,-3,2025-11-07 18:46:55.949724538
2025-11-07 18:46:55.311263,-526,2025-11-07 18:46:55.957416846
2025-11-07 18:46:55.311263,-4609,2025-11-07 18:46:55.965109154
2025-11-07 18:46:55.311263,-3,2025-11-07 18:46:55.972801462
2025-11-07 18:46:55.311263,-516,2025-11-07 18:46:55.980493769
2025-11-07 18:46:55.311263,1023,2025-11-07 18:46:55.988186077
2025-11-07 18:46:55.311263,-2,2025-11-07 18:46:55.995878385
2025-11-07 18:46:55.311263,-509,2025-11-07 18:46:56.003570692
2025-11-07 18:46:55.311263,1023,2025-11-07 18:46:56.011263000
2025-11-07 18:46:55.311263,-2,2025-11-07 18:46:56.018955308
2025-11-07 18:46:55.311263,-540,2025-11-07 18:46:56.026647615
2025-11-07 18:46:55.311263,-13825,2025-11-07 18:46:56.034339923
2025-11-07 18:46:55.311263,-3,2025-11-07 18:46:56.042032231
2025-11-07 18:46:55.311263,-555,2025-11-07 18:46:56.049724538
2025-11-07 18:46:55.311263,-11265,2025-11-07 18:46:56.057416846
2025-11-07 18:46:55.311263,-3,2025-11-07 18:46:56.065109154
2025-11-07 18:46:55.311263,-574,2025-11-07 18:46:56.072801462
2025-11-07 18:46:55.311263,-15105,2025-11-07 18:46:56.080493769
2025-11-07 18:46:55.311263,-3,2025-11-07 18:46:56.088186077
2025-11-07 18:46:55.311263,-560,2025-11-07 18:46:56.095878385
2025-11-07 18:46:55.311263,-15617,2025-11-07 18:46:56.103570692
2025-11-07 18:46:55.311263,-3,2025-11-07 18:46:56.111263000
2025-11-07 18:46:55.311263,-579,2025-11-07 18:46:56.118955308
2025-11-07 18:46:55.311263,-7681,2025-11-07 18:46:56.126647615
2025-11-07 18:46:55.311263,-3,2025-11-07 18:46:56.134339923
2025-11-07 18:46:55.311263,-538,2025-11-07 18:46:56.142032231
2025-11-07 18:46:55.804269,-557,2025-11-07 18:46:56.149724538
2025-11-07 18:46:55.804269,-9473,2025-11-07 18:46:56.157416846
2025-11-07 18:46:55.804269,-3,2025-11-07 18:46:56.165109154
2025-11-07 18:46:55.804269,-538,2025-11-07 18:46:56.172801462
2025-11-07 18:46:55.804269,-2049,2025-11-07 18:46:56.180493769
2025-11-07 18:46:55.804269,-3,2025-11-07 18:46:56.188186077
2025-11-07 18:46:55.804269,-514,2025-11-07 18:46:56.195878385
2025-11-07 18:46:55.804269,-2561,2025-11-07 18:46:56.203570692
2025-11-07 18:46:55.804269,-3,2025-11-07 18:46:56.211263000
2025-11-07 18:46:55.804269,-518,2025-11-07 18:46:56.218955308
2025-11-07 18:46:55.804269,511,2025-11-07 18:46:56.226647615
2025-11-07 18:46:55.804269,-2,2025-11-07 18:46:56.234339923
2025-11-07 18:46:55.804269,-477,2025-11-07 18:46:56.242032231
2025-11-07 18:46:55.804269,18431,2025-11-07 18:46:56.249724538
2025-11-07 18:46:55.804269,-2,2025-11-07 18:46:56.257416846
2025-11-07 18:46:55.804269,-412,2025-11-07 18:46:56.265109154
2025-11-07 18:46:55.804269,-28417,2025-11-07 18:46:56.272801462
2025-11-07 18:46:55.804269,-2,2025-11-07 18:46:56.280493769
2025-11-07 18:46:55.804269,-363,2025-11-07 18:46:56.288186077
2025-11-07 18:46:55.804269,-28417,2025-11-07 18:46:56.295878385
2025-11-07 18:46:55.804269,-2,2025-11-07 18:46:56.303570692
2025-11-07 18:46:55.804269,-329,2025-11-07 18:46:56.311263000
2025-11-07 18:46:55.804269,-11777,2025-11-07 18:46:56.318955308
2025-11-07 18:46:55.804269,-2,2025-11-07 18:46:56.326647615
2025-11-07 18:46:55.804269,-281,2025-11-07 18:46:56.334339923
2025-11-07 18:46:55.804269,-5377,2025-11-07 18:46:56.342032231
2025-11-07 18:46:55.804269,-2,2025-11-07 18:46:56.349724538
2025-11-07 18:46:55.804269,-298,2025-11-07 18:46:56.357416846
2025-11-07 18:46:55.804269,-6145,2025-11-07 18:46:56.365109154
2025-11-07 18:46:55.804269,-2,2025-11-07 18:46:56.372801462
2025-11-07 18:46:55.804269,-264,2025-11-07 18:46:56.380493769
2025-11-07 18:46:55.804269,-1025,2025-11-07 18:46:56.388186077
2025-11-07 18:46:55.804269,-2,2025-11-07 18:46:56.395878385
2025-11-07 18:46:55.804269,-252,2025-11-07 18:46:56.403570692
2025-11-07 18:46:55.804269,2559,2025-11-07 18:46:56.411263000
2025-11-07 18:46:55.804269,-1,2025-11-07 18:46:56.418955308
2025-11-07 18:46:55.804269,-232,2025-11-07 18:46:56.426647615
2025-11-07 18:46:55.804269,8191,2025-11-07 18:46:56.434339923
2025-11-07 18:46:55.804269,-1,2025-11-07 18:46:56.442032231
2025-11-07 18:46:55.804269,-223,2025-11-07 18:46:56.449724538
2025-11-07 18:46:55.804269,13823,2025-11-07 18:46:56.457416846
2025-11-07 18:46:55.804269,-1,2025-11-07 18:46:56.465109154
2025-11-07 18:46:55.804269,-203,2025-11-07 18:46:56.472801462
2025-11-07 18:46:55.804269,13055,2025-11-07 18:46:56.480493769
2025-11-07 18:46:55.804269,-1,2025-11-07 18:46:56.488186077
2025-11-07 18:46:55.804269,-203,2025-11-07 18:46:56.495878385
2025-11-07 18:46:55.804269,12543,2025-11-07 18:46:56.503570692
2025-11-07 18:46:55.804269,-1,2025-11-07 18:46:56.511263000
2025-11-07 18:46:55.804269,-208,2025-11-07 18:46:56.518955308
2025-11-07 18:46:55.804269,7679,2025-11-07 18:46:56.526647615
2025-11-07 18:46:55.804269,-1,2025-11-07 18:46:56.534339923
2025-11-07 18:46:55.804269,-230,2025-11-07 18:46:56.542032231
2025-11-07 18:46:55.804269,18687,2025-11-07 18:46:56.549724538
2025-11-07 18:46:55.804269,-1,2025-11-07 18:46:56.557416846
2025-11-07 18:46:55.804269,-126,2025-11-07 18:46:56.565109154
2025-11-07 18:46:55.804269,-25089,2025-11-07 18:46:56.572801462
2025-11-07 18:46:55.804269,-1,2025-11-07 18:46:56.580493769
2025-11-07 18:46:55.804269,-143,2025-11-07 18:46:56.588186077
2025-11-07 18:46:55.804269,18687,2025-11-07 18:46:56.595878385
2025-11-07 18:46:55.804269,-1,2025-11-07 18:46:56.603570692
2025-11-07 18:46:55.804269,-189,2025-11-07 18:46:56.611263000
2025-11-07 18:46:55.804269,12031,2025-11-07 18:46:56.618955308
2025-11-07 18:46:55.804269,-1,2025-11-07 18:46:56.626647615
2025-11-07 18:46:55.804269,-218,2025-11-07 18:46:56.634339923
2025-11-07 18:46:55.804269,9471,2025-11-07 18:46:56.642032231
2025-11-07 18:46:55.804269,-1,2025-11-07 18:46:56.649724538
2025-11-07 18:46:55.804269,-249,2025-11-07 18:46:56.657416846
2025-11-07 18:46:55.804269,-3585,2025-11-07 18:46:56.665109154
2025-11-07 18:46:55.804269,-2,2025-11-07 18:46:56.672801462
2025-11-07 18:46:55.804269,-293,2025-11-07 18:46:56.680493769
2025-11-07 18:46:55.804269,-13569,2025-11-07 18:46:56.688186077
2025-11-07 18:46:55.804269,-2,2025-11-07 18:46:56.695878385
2025-11-07 18:46:55.804269,-322,2025-11-07 18:46:56.703570692
2025-11-07 18:46:55.804269,-20993,2025-11-07 18:46:56.711263000
2025-11-07 18:46:55.804269,-2,2025-11-07 18:46:56.718955308
2025-11-07 18:46:55.804269,-339,2025-11-07 18:46:56.726647615
2025-11-07 18:46:55.804269,-22273,2025-11-07 18:46:56.734339923
2025-11-07 18:46:55.804269,-2,2025-11-07 18:46:56.742032231
2025-11-07 18:46:55.804269,-341,2025-11-07 18:46:56.749724538
2025-11-07 18:46:55.804269,-18433,2025-11-07 18:46:56.757416846
2025-11-07 18:46:55.804269,-2,2025-11-07 18:46:56.765109154
2025-11-07 18:46:55.804269,-332,2025-11-07 18:46:56.772801462
2025-11-07 18:46:55.804269,-16641,2025-11-07 18:46:56.780493769
2025-11-07 18:46:55.804269,-2,2025-11-07 18:46:56.788186077
2025-11-07 18:46:55.804269,-312,2025-11-07 18:46:56.795878385
2025-11-07 18:46:55.804269,-13569,2025-11-07 18:46:56.803570692
2025-11-07 18:46:55.804269,-2,2025-11-07 18:46:56.811263000
2025-11-07 18:46:55.804269,-293,2025-11-07 18:46:56.818955308
2025-11-07 18:46:55.804269,-8705,2025-11-07 18:46:56.826647615
2025-11-07 18:46:55.804269,-2,2025-11-07 18:46:56.834339923
2025-11-07 18:46:55.804269,-281,2025-11-07 18:46:56.842032230
2025-11-07 18:46:55.804269,-1025,2025-11-07 18:46:56.849724538
2025-11-07 18:46:55.804269,-2,2025-11-07 18:46:56.857416846
2025-11-07 18:46:55.804269,-261,2025-11-07 18:46:56.865109154
2025-11-07 18:46:55.804269,1279,2025-11-07 18:46:56.872801462
2025-11-07 18:46:55.804269,-1,2025-11-07 18:46:56.880493769
2025-11-07 18:46:55.804269,-254,2025-11-07 18:46:56.888186077
2025-11-07 18:46:55.804269,767,2025-11-07 18:46:56.895878385
2025-11-07 18:46:55.804269,-1,2025-11-07 18:46:56.903570692
2025-11-07 18:46:55.804269,-247,2025-11-07 18:46:56.911263000
2025-11-07 18:46:55.804269,-1,2025-11-07 18:46:56.918955308
2025-11-07 18:46:55.804269,-2,2025-11-07 18:46:56.926647615
2025-11-07 18:46:55.804269,-254,2025-11-07 18:46:56.934339923
2025-11-07 18:46:55.804269,767,2025-11-07 18:46:56.942032231
2025-11-07 18:46:55.804269,-1,2025-11-07 18:46:56.949724538
2025-11-07 18:46:55.804269,-276,2025-11-07 18:46:56.957416846
2025-11-07 18:46:55.804269,-4865,2025-11-07 18:46:56.965109154
2025-11-07 18:46:55.804269,-2,2025-11-07 18:46:56.972801462
2025-11-07 18:46:55.804269,-274,2025-11-07 18:46:56.980493769
2025-11-07 18:46:56.341461,-278,2025-11-07 18:46:56.988186077
2025-11-07 18:46:56.341461,-6145,2025-11-07 18:46:56.995878385
2025-11-07 18:46:56.341461,-2,2025-11-07 18:46:57.003570692
2025-11-07 18:46:56.341461,-288,2025-11-07 18:46:57.011263000
2025-11-07 18:46:56.341461,-6145,2025-11-07 18:46:57.018955308
2025-11-07 18:46:56.341461,-2,2025-11-07 18:46:57.026647615
2025-11-07 18:46:56.341461,-278,2025-11-07 18:46:57.034339923
2025-11-07 18:46:56.341461,-6145,2025-11-07 18:46:57.042032231
2025-11-07 18:46:56.341461,-2,2025-11-07 18:46:57.049724538
2025-11-07 18:46:56.341461,-274,2025-11-07 18:46:57.057416846
2025-11-07 18:46:56.341461,-1,2025-11-07 18:46:57.065109154
2025-11-07 18:46:56.341461,-2,2025-11-07 18:46:57.072801462
2025-11-07 18:46:56.341461,-240,2025-11-07 18:46:57.080493769
2025-11-07 18:46:56.341461,-1793,2025-11-07 18:46:57.088186077
2025-11-07 18:46:56.341461,-2,2025-11-07 18:46:57.095878385
2025-11-07 18:46:56.341461,-286,2025-11-07 18:46:57.103570692
2025-11-07 18:46:56.341461,-2305,2025-11-07 18:46:57.111263000
2025-11-07 18:46:56.341461,-2,2025-11-07 18:46:57.118955308
2025-11-07 18:46:56.341461,-266,2025-11-07 18:46:57.126647615
2025-11-07 18:46:56.341461,-4353,2025-11-07 18:46:57.134339923
2025-11-07 18:46:56.341461,-2,2025-11-07 18:46:57.142032231
2025-11-07 18:46:56.341461,-264,2025-11-07 18:46:57.149724538
2025-11-07 18:46:56.341461,-3073,2025-11-07 18:46:57.157416846
2025-11-07 18:46:56.341461,-2,2025-11-07 18:46:57.165109154
2025-11-07 18:46:56.341461,-266,2025-11-07 18:46:57.172801462
2025-11-07 18:46:56.341461,-2305,2025-11-07 18:46:57.180493769
2025-11-07 18:46:56.341461,-2,2025-11-07 18:46:57.188186077
2025-11-07 18:46:56.341461,-269,2025-11-07 18:46:57.195878385
2025-11-07 18:46:56.341461,-1,2025-11-07 18:46:57.203570692
2025-11-07 18:46:56.341461,-2,2025-11-07 18:46:57.211263000
2025-11-07 18:46:56.341461,-261,2025-11-07 18:46:57.218955308
2025-11-07 18:46:56.341461,-1025,2025-11-07 18:46:57.226647615
2025-11-07 18:46:56.341461,-2,2025-11-07 18:46:57.234339923
2025-11-07 18:46:56.341461,-264,2025-11-07 18:46:57.242032231
2025-11-07 18:46:56.341461,-3585,2025-11-07 18:46:57.249724538
2025-11-07 18:46:56.341461,-2,2025-11-07 18:46:57.257416846
2025-11-07 18:46:56.341461,-266,2025-11-07 18:46:57.265109154
2025-11-07 18:46:56.341461,-3585,2025-11-07 18:46:57.272801462
2025-11-07 18:46:56.341461,-2,2025-11-07 18:46:57.280493769
2025-11-07 18:46:56.341461,-271,2025-11-07 18:46:57.288186077
2025-11-07 18:46:56.341461,-1,2025-11-07 18:46:57.295878385
2025-11-07 18:46:56.341461,-2,2025-11-07 18:46:57.303570692
2025-11-07 18:46:56.341461,-259,2025-11-07 18:46:57.311263000
2025-11-07 18:46:56.341461,-513,2025-11-07 18:46:57.318955308
2025-11-07 18:46:56.341461,-2,2025-11-07 18:46:57.326647615
2025-11-07 18:46:56.341461,-257,2025-11-07 18:46:57.334339923
2025-11-07 18:46:56.341461,767,2025-11-07 18:46:57.342032231
2025-11-07 18:46:56.341461,-1,2025-11-07 18:46:57.349724538
2025-11-07 18:46:56.341461,-252,2025-11-07 18:46:57.357416846
2025-11-07 18:46:56.341461,-1,2025-11-07 18:46:57.365109154
2025-11-07 18:46:56.341461,-2,2025-11-07 18:46:57.372801462
2025-11-07 18:46:56.341461,-242,2025-11-07 18:46:57.380493769
2025-11-07 18:46:56.341461,5119,2025-11-07 18:46:57.388186077
2025-11-07 18:46:56.341461,-1,2025-11-07 18:46:57.395878385
2025-11-07 18:46:56.341461,-240,2025-11-07 18:46:57.403570692
2025-11-07 18:46:56.341461,7679,2025-11-07 18:46:57.411263000
2025-11-07 18:46:56.341461,-1,2025-11-07 18:46:57.418955308
2025-11-07 18:46:56.341461,-230,2025-11-07 18:46:57.426647615
2025-11-07 18:46:56.341461,5119,2025-11-07 18:46:57.434339923
2025-11-07 18:46:56.341461,-1,2025-11-07 18:46:57.442032231
2025-11-07 18:46:56.341461,-230,2025-11-07 18:46:57.449724538
2025-11-07 18:46:56.341461,7679,2025-11-07 18:46:57.457416846
2025-11-07 18:46:56.341461,-1,2025-11-07 18:46:57.465109154
2025-11-07 18:46:56.341461,-220,2025-11-07 18:46:57.472801462
2025-11-07 18:46:56.341461,8703,2025-11-07 18:46:57.480493769
2025-11-07 18:46:56.341461,-1,2025-11-07 18:46:57.488186077
2025-11-07 18:46:56.341461,-227,2025-11-07 18:46:57.495878385
2025-11-07 18:46:56.341461,9471,2025-11-07 18:46:57.503570692
2025-11-07 18:46:56.341461,-1,2025-11-07 18:46:57.511263000
2025-11-07 18:46:56.341461,-227,2025-11-07 18:46:57.518955308
2025-11-07 18:46:56.341461,8703,2025-11-07 18:46:57.526647615
2025-11-07 18:46:56.341461,-1,2025-11-07 18:46:57.534339923
2025-11-07 18:46:56.341461,-218,2025-11-07 18:46:57.542032231
2025-11-07 18:46:56.341461,6399,2025-11-07 18:46:57.549724538
2025-11-07 18:46:56.341461,-1,2025-11-07 18:46:57.557416846
2025-11-07 18:46:56.341461,-247,2025-11-07 18:46:57.565109154
2025-11-07 18:46:56.341461,2559,2025-11-07 18:46:57.572801462
2025-11-07 18:46:56.341461,-1,2025-11-07 18:46:57.580493769
2025-11-07 18:46:56.341461,-194,2025-11-07 18:46:57.588186077
2025-11-07 18:46:56.341461,-28673,2025-11-07 18:46:57.595878385
2025-11-07 18:46:56.341461,-1,2025-11-07 18:46:57.603570692
2025-11-07 18:46:56.341461,-99,2025-11-07 18:46:57.611263000
2025-11-07 18:46:56.341461,31231,2025-11-07 18:46:57.618955308
2025-11-07 18:46:56.341461,-1,2025-11-07 18:46:57.626647615
2025-11-07 18:46:56.341461,-184,2025-11-07 18:46:57.634339923
2025-11-07 18:46:56.341461,15103,2025-11-07 18:46:57.642032231
2025-11-07 18:46:56.341461,-1,2025-11-07 18:46:57.649724538
2025-11-07 18:46:56.341461,-194,2025-11-07 18:46:57.657416846
2025-11-07 18:46:56.341461,12543,2025-11-07 18:46:57.665109154
2025-11-07 18:46:56.341461,-1,2025-11-07 18:46:57.672801462
2025-11-07 18:46:56.341461,-210,2025-11-07 18:46:57.680493769
2025-11-07 18:46:56.341461,11263,2025-11-07 18:46:57.688186077
2025-11-07 18:46:56.341461,-1,2025-11-07 18:46:57.695878385
2025-11-07 18:46:56.341461,-223,2025-11-07 18:46:57.703570692
2025-11-07 18:46:56.341461,11263,2025-11-07 18:46:57.711263000
2025-11-07 18:46:56.341461,-1,2025-11-07 18:46:57.718955308
2025-11-07 18:46:56.341461,-218,2025-11-07 18:46:57.726647615
2025-11-07 18:46:56.341461,9983,2025-11-07 18:46:57.734339923
2025-11-07 18:46:56.341461,-1,2025-11-07 18:46:57.742032231
2025-11-07 18:46:56.341461,-201,2025-11-07 18:46:57.749724538
2025-11-07 18:46:56.341461,13055,2025-11-07 18:46:57.757416846
2025-11-07 18:46:56.341461,-1,2025-11-07 18:46:57.765109154
2025-11-07 18:46:56.341461,-203,2025-11-07 18:46:57.772801462
2025-11-07 18:46:56.341461,16895,2025-11-07 18:46:57.780493769
2025-11-07 18:46:56.341461,-1,2025-11-07 18:46:57.788186077
2025-11-07 18:46:56.341461,-184,2025-11-07 18:46:57.795878385
2025-11-07 18:46:56.341461,19967,2025-11-07 18:46:57.803570692
2025-11-07 18:46:56.341461,-1,2025-11-07 18:46:57.811263000
2025-11-07 18:46:56.341461,-184,2025-11-07 18:46:57.818955308
2025-11-07 18:46:56.929974,-177,2025-11-07 18:46:57.826647615
2025-11-07 18:46:56.929974,21247,2025-11-07 18:46:57.834339923
2025-11-07 18:46:56.929974,-1,2025-11-07 18:46:57.842032230
2025-11-07 18:46:56.929974,-184,2025-11-07 18:46:57.849724538
2025-11-07 18:46:56.929974,21247,2025-11-07 18:46:57.857416846
2025-11-07 18:46:56.929974,-1,2025-11-07 18:46:57.865109154
2025-11-07 18:46:56.929974,-155,2025-11-07 18:46:57.872801462
2025-11-07 18:46:56.929974,32511,2025-11-07 18:46:57.880493769
2025-11-07 18:46:56.929974,-1,2025-11-07 18:46:57.888186077
2025-11-07 18:46:56.929974,-135,2025-11-07 18:46:57.895878385
2025-11-07 18:46:56.929974,24831,2025-11-07 18:46:57.903570692
2025-11-07 18:46:56.929974,-1,2025-11-07 18:46:57.911263000
2025-11-07 18:46:56.929974,-135,2025-11-07 18:46:57.918955308
2025-11-07 18:46:56.929974,-31233,2025-11-07 18:46:57.926647615
2025-11-07 18:46:56.929974,-1,2025-11-07 18:46:57.934339923
2025-11-07 18:46:56.929974,-133,2025-11-07 18:46:57.942032231
2025-11-07 18:46:56.929974,32511,2025-11-07 18:46:57.949724538
2025-11-07 18:46:56.929974,-1,2025-11-07 18:46:57.957416846
2025-11-07 18:46:56.929974,-138,2025-11-07 18:46:57.965109154
2025-11-07 18:46:56.929974,31231,2025-11-07 18:46:57.972801462
2025-11-07 18:46:56.929974,-1,2025-11-07 18:46:57.980493769
2025-11-07 18:46:56.929974,-135,2025-11-07 18:46:57.988186077
2025-11-07 18:46:56.929974,29951,2025-11-07 18:46:57.995878385
2025-11-07 18:46:56.929974,-1,2025-11-07 18:46:58.003570692
2025-11-07 18:46:56.929974,-126,2025-11-07 18:46:58.011263000
2025-11-07 18:46:56.929974,-32001,2025-11-07 18:46:58.018955308
2025-11-07 18:46:56.929974,-1,2025-11-07 18:46:58.026647615
2025-11-07 18:46:56.929974,-130,2025-11-07 18:46:58.034339923
2025-11-07 18:46:56.929974,-31233,2025-11-07 18:46:58.042032231
2025-11-07 18:46:56.929974,-1,2025-11-07 18:46:58.049724538
2025-11-07 18:46:56.929974,-128,2025-11-07 18:46:58.057416846
2025-11-07 18:46:56.929974,-31233,2025-11-07 18:46:58.065109154
2025-11-07 18:46:56.929974,-1,2025-11-07 18:46:58.072801462
2025-11-07 18:46:56.929974,-121,2025-11-07 18:46:58.080493769
2025-11-07 18:46:56.929974,-32001,2025-11-07 18:46:58.088186077
2025-11-07 18:46:56.929974,-1,2025-11-07 18:46:58.095878385
2025-11-07 18:46:56.929974,-126,2025-11-07 18:46:58.103570692
2025-11-07 18:46:56.929974,31231,2025-11-07 18:46:58.111263000
2025-11-07 18:46:56.929974,-1,2025-11-07 18:46:58.118955308
2025-11-07 18:46:56.929974,-133,2025-11-07 18:46:58.126647615
2025-11-07 18:46:56.929974,-32001,2025-11-07 18:46:58.134339923
2025-11-07 18:46:56.929974,-1,2025-11-07 18:46:58.142032231
2025-11-07 18:46:56.929974,-128,2025-11-07 18:46:58.149724538
2025-11-07 18:46:56.929974,-31233,2025-11-07 18:46:58.157416846
2025-11-07 18:46:56.929974,-1,2025-11-07 18:46:58.165109154
2025-11-07 18:46:56.929974,-128,2025-11-07 18:46:58.172801462
2025-11-07 18:46:56.929974,-31233,2025-11-07 18:46:58.180493769
2025-11-07 18:46:56.929974,-1,2025-11-07 18:46:58.188186077
2025-11-07 18:46:56.929974,-111,2025-11-07 18:46:58.195878385
2025-11-07 18:46:56.929974,-29953,2025-11-07 18:46:58.203570692
2025-11-07 18:46:56.929974,-1,2025-11-07 18:46:58.211263000
2025-11-07 18:46:56.929974,-109,2025-11-07 18:46:58.218955308
2025-11-07 18:46:56.929974,-26881,2025-11-07 18:46:58.226647615
2025-11-07 18:46:56.929974,-1,2025-11-07 18:46:58.234339923
2025-11-07 18:46:56.929974,-113,2025-11-07 18:46:58.242032231
2025-11-07 18:46:56.929974,-25601,2025-11-07 18:46:58.249724538
2025-11-07 18:46:56.929974,-1,2025-11-07 18:46:58.257416846
2025-11-07 18:46:56.929974,-104,2025-11-07 18:46:58.265109154
2025-11-07 18:46:56.929974,-26369,2025-11-07 18:46:58.272801462
2025-11-07 18:46:56.929974,-1,2025-11-07 18:46:58.280493769
2025-11-07 18:46:56.929974,-97,2025-11-07 18:46:58.288186077
2025-11-07 18:46:56.929974,-25601,2025-11-07 18:46:58.295878385
2025-11-07 18:46:56.929974,-1,2025-11-07 18:46:58.303570692
2025-11-07 18:46:56.929974,-101,2025-11-07 18:46:58.311263000
2025-11-07 18:46:56.929974,-26369,2025-11-07 18:46:58.318955308
2025-11-07 18:46:56.929974,-1,2025-11-07 18:46:58.326647615
2025-11-07 18:46:56.929974,-106,2025-11-07 18:46:58.334339923
2025-11-07 18:46:56.929974,-26369,2025-11-07 18:46:58.342032231
2025-11-07 18:46:56.929974,-1,2025-11-07 18:46:58.349724538
2025-11-07 18:46:56.929974,-104,2025-11-07 18:46:58.357416846
2025-11-07 18:46:56.929974,-25089,2025-11-07 18:46:58.365109154
2025-11-07 18:46:56.929974,-1,2025-11-07 18:46:58.372801462
2025-11-07 18:46:56.929974,-101,2025-11-07 18:46:58.380493769
2025-11-07 18:46:56.929974,-25601,2025-11-07 18:46:58.388186077
2025-11-07 18:46:56.929974,-1,2025-11-07 18:46:58.395878385
2025-11-07 18:46:56.929974,-84,2025-11-07 18:46:58.403570692
2025-11-07 18:46:56.929974,-23297,2025-11-07 18:46:58.411263000
2025-11-07 18:46:56.929974,-1,2025-11-07 18:46:58.418955308
2025-11-07 18:46:56.929974,-94,2025-11-07 18:46:58.426647615
2025-11-07 18:46:56.929974,-23297,2025-11-07 18:46:58.434339923
2025-11-07 18:46:56.929974,-1,2025-11-07 18:46:58.442032231
2025-11-07 18:46:56.929974,-97,2025-11-07 18:46:58.449724538
2025-11-07 18:46:56.929974,-23297,2025-11-07 18:46:58.457416846
2025-11-07 18:46:56.929974,-1,2025-11-07 18:46:58.465109154
2025-11-07 18:46:56.929974,-92,2025-11-07 18:46:58.472801462
2025-11-07 18:46:56.929974,-22529,2025-11-07 18:46:58.480493769
2025-11-07 18:46:56.929974,-1,2025-11-07 18:46:58.488186077
2025-11-07 18:46:56.929974,-87,2025-11-07 18:46:58.495878385
2025-11-07 18:46:56.929974,-24577,2025-11-07 18:46:58.503570692
2025-11-07 18:46:56.929974,-1,2025-11-07 18:46:58.511263000
2025-11-07 18:46:56.929974,-89,2025-11-07 18:46:58.518955308
2025-11-07 18:46:56.929974,-23297,2025-11-07 18:46:58.526647615
2025-11-07 18:46:56.929974,-1,2025-11-07 18:46:58.534339923
2025-11-07 18:46:56.929974,-101,2025-11-07 18:46:58.542032231
2025-11-07 18:46:56.929974,-26881,2025-11-07 18:46:58.549724538
2025-11-07 18:46:56.929974,-1,2025-11-07 18:46:58.557416846
2025-11-07 18:46:56.929974,-113,2025-11-07 18:46:58.565109154
2025-11-07 18:46:56.929974,-16897,2025-11-07 18:46:58.572801462
2025-11-07 18:46:56.929974,-1,2025-11-07 18:46:58.580493769
2025-11-07 18:46:56.929974,4,2025-11-07 18:46:58.588186077
2025-11-07 18:46:56.929974,4864,2025-11-07 18:46:58.595878385
2025-11-07 18:46:56.929974,0,2025-11-07 18:46:58.603570692
2025-11-07 18:46:56.929974,-4,2025-11-07 18:46:58.611263000
2025-11-07 18:46:56.929974,-10753,2025-11-07 18:46:58.618955308
2025-11-07 18:46:56.929974,-1,2025-11-07 18:46:58.626647615
2025-11-07 18:46:56.929974,-55,2025-11-07 18:46:58.634339923
2025-11-07 18:46:56.929974,-14593,2025-11-07 18:46:58.642032231
2025-11-07 18:46:56.929974,-1,2025-11-07 18:46:58.649724538
2025-11-07 18:46:56.929974,-87,2025-11-07 18:46:58.657416846
2025-11-07 18:46:57.474327,-94,2025-11-07 18:46:58.665109154
2025-11-07 18:46:57.474327,-24577,2025-11-07 18:46:58.672801462
2025-11-07 18:46:57.474327,-1,2025-11-07 18:46:58.680493769
2025-11-07 18:46:57.474327,-99,2025-11-07 18:46:58.688186077
2025-11-07 18:46:57.474327,-23809,2025-11-07 18:46:58.695878385
2025-11-07 18:46:57.474327,-1,2025-11-07 18:46:58.703570692
2025-11-07 18:46:57.474327,-99,2025-11-07 18:46:58.711263000
2025-11-07 18:46:57.474327,-24577,2025-11-07 18:46:58.718955308
2025-11-07 18:46:57.474327,-1,2025-11-07 18:46:58.726647615
2025-11-07 18:46:57.474327,-94,2025-11-07 18:46:58.734339923
2025-11-07 18:46:57.474327,-23297,2025-11-07 18:46:58.742032231
2025-11-07 18:46:57.474327,-1,2025-11-07 18:46:58.749724538
2025-11-07 18:46:57.474327,-63,2025-11-07 18:46:58.757416846
2025-11-07 18:46:57.474327,-16385,2025-11-07 18:46:58.765109154
2025-11-07 18:46:57.474327,-1,2025-11-07 18:46:58.772801462
2025-11-07 18:46:57.474327,-92,2025-11-07 18:46:58.780493769
2025-11-07 18:46:57.474327,-23297,2025-11-07 18:46:58.788186077
2025-11-07 18:46:57.474327,-1,2025-11-07 18:46:58.795878385
2025-11-07 18:46:57.474327,-87,2025-11-07 18:46:58.803570692
2025-11-07 18:46:57.474327,-20225,2025-11-07 18:46:58.811263000
2025-11-07 18:46:57.474327,-1,2025-11-07 18:46:58.818955308
2025-11-07 18:46:57.474327,-77,2025-11-07 18:46:58.826647615
2025-11-07 18:46:57.474327,-18945,2025-11-07 18:46:58.834339923
2025-11-07 18:46:57.474327,-1,2025-11-07 18:46:58.842032230
2025-11-07 18:46:57.474327,-65,2025-11-07 18:46:58.849724538
2025-11-07 18:46:57.474327,-18177,2025-11-07 18:46:58.857416846
2025-11-07 18:46:57.474327,-1,2025-11-07 18:46:58.865109154
2025-11-07 18:46:57.474327,-67,2025-11-07 18:46:58.872801462
2025-11-07 18:46:57.474327,-15105,2025-11-07 18:46:58.880493769
2025-11-07 18:46:57.474327,-1,2025-11-07 18:46:58.888186077
2025-11-07 18:46:57.474327,-67,2025-11-07 18:46:58.895878385
2025-11-07 18:46:57.474327,-15105,2025-11-07 18:46:58.903570692
2025-11-07 18:46:57.474327,-1,2025-11-07 18:46:58.911263000
2025-11-07 18:46:57.474327,-63,2025-11-07 18:46:58.918955308
2025-11-07 18:46:57.474327,-16385,2025-11-07 18:46:58.926647615
2025-11-07 18:46:57.474327,-1,2025-11-07 18:46:58.934339923
2025-11-07 18:46:57.474327,-63,2025-11-07 18:46:58.942032231
2025-11-07 18:46:57.474327,-18177,2025-11-07 18:46:58.949724538
2025-11-07 18:46:57.474327,-1,2025-11-07 18:46:58.957416846
2025-11-07 18:46:57.474327,-72,2025-11-07 18:46:58.965109154
2025-11-07 18:46:57.474327,-20225,2025-11-07 18:46:58.972801462
2025-11-07 18:46:57.474327,-1,2025-11-07 18:46:58.980493769
2025-11-07 18:46:57.474327,-84,2025-11-07 18:46:58.988186077
2025-11-07 18:46:57.474327,-19457,2025-11-07 18:46:58.995878385
2025-11-07 18:46:57.474327,-1,2025-11-07 18:46:59.003570692
2025-11-07 18:46:57.474327,-84,2025-11-07 18:46:59.011263000
2025-11-07 18:46:57.474327,-20737,2025-11-07 18:46:59.018955308
2025-11-07 18:46:57.474327,-1,2025-11-07 18:46:59.026647615
2025-11-07 18:46:57.474327,-75,2025-11-07 18:46:59.034339923
2025-11-07 18:46:57.474327,-18945,2025-11-07 18:46:59.042032231
2025-11-07 18:46:57.474327,-1,2025-11-07 18:46:59.049724538
2025-11-07 18:46:57.474327,-58,2025-11-07 18:46:59.057416846
2025-11-07 18:46:57.474327,-15105,2025-11-07 18:46:59.065109154
2025-11-07 18:46:57.474327,-1,2025-11-07 18:46:59.072801462
2025-11-07 18:46:57.474327,-65,2025-11-07 18:46:59.080493769
2025-11-07 18:46:57.474327,-13313,2025-11-07 18:46:59.088186077
2025-11-07 18:46:57.474327,-1,2025-11-07 18:46:59.095878385
2025-11-07 18:46:57.474327,-60,2025-11-07 18:46:59.103570692
2025-11-07 18:46:57.474327,-13313,2025-11-07 18:46:59.111263000
2025-11-07 18:46:57.474327,-1,2025-11-07 18:46:59.118955308
2025-11-07 18:46:57.474327,-41,2025-11-07 18:46:59.126647615
2025-11-07 18:46:57.474327,-11521,2025-11-07 18:46:59.134339923
2025-11-07 18:46:57.474327,-1,2025-11-07 18:46:59.142032231
2025-11-07 18:46:57.474327,-38,2025-11-07 18:46:59.149724538
2025-11-07 18:46:57.474327,-10753,2025-11-07 18:46:59.157416846
2025-11-07 18:46:57.474327,-1,2025-11-07 18:46:59.165109154
2025-11-07 18:46:57.474327,-43,2025-11-07 18:46:59.172801462
2025-11-07 18:46:57.474327,-8193,2025-11-07 18:46:59.180493769
2025-11-07 18:46:57.474327,-1,2025-11-07 18:46:59.188186077
2025-11-07 18:46:57.474327,-36,2025-11-07 18:46:59.195878385
2025-11-07 18:46:57.474327,-6401,2025-11-07 18:46:59.203570692
2025-11-07 18:46:57.474327,-1,2025-11-07 18:46:59.211263000
2025-11-07 18:46:57.474327,-26,2025-11-07 18:46:59.218955308
2025-11-07 18:46:57.474327,-5121,2025-11-07 18:46:59.226647615
2025-11-07 18:46:57.474327,-1,2025-11-07 18:46:59.234339923
2025-11-07 18:46:57.474327,-12,2025-11-07 18:46:59.242032231
2025-11-07 18:46:57.474327,-3841,2025-11-07 18:46:59.249724538
2025-11-07 18:46:57.474327,-1,2025-11-07 18:46:59.257416846
2025-11-07 18:46:57.474327,-12,2025-11-07 18:46:59.265109154
2025-11-07 18:46:57.474327,-3329,2025-11-07 18:46:59.272801462
2025-11-07 18:46:57.474327,-1,2025-11-07 18:46:59.280493769
2025-11-07 18:46:57.474327,-14,2025-11-07 18:46:59.288186077
2025-11-07 18:46:57.474327,2047,2025-11-07 18:46:59.295878385
2025-11-07 18:46:57.474327,0,2025-11-07 18:46:59.303570692
2025-11-07 18:46:57.474327,0,2025-11-07 18:46:59.311263000
2025-11-07 18:46:57.474327,-1024,2025-11-07 18:46:59.318955308
2025-11-07 18:46:57.474327,-1,2025-11-07 18:46:59.326647615
2025-11-07 18:46:57.474327,4,2025-11-07 18:46:59.334339923
2025-11-07 18:46:57.474327,0,2025-11-07 18:46:59.342032231
2025-11-07 18:46:57.474327,0,2025-11-07 18:46:59.349724538
2025-11-07 18:46:57.474327,4,2025-11-07 18:46:59.357416846
2025-11-07 18:46:57.474327,1792,2025-11-07 18:46:59.365109154
2025-11-07 18:46:57.474327,0,2025-11-07 18:46:59.372801462
2025-11-07 18:46:57.474327,4,2025-11-07 18:46:59.380493769
2025-11-07 18:46:57.474327,2304,2025-11-07 18:46:59.388186077
2025-11-07 18:46:57.474327,0,2025-11-07 18:46:59.395878385
2025-11-07 18:46:57.474327,0,2025-11-07 18:46:59.403570692
2025-11-07 18:46:57.474327,512,2025-11-07 18:46:59.411263000
2025-11-07 18:46:57.474327,0,2025-11-07 18:46:59.418955308
2025-11-07 18:46:57.474327,12,2025-11-07 18:46:59.426647615
2025-11-07 18:46:57.474327,4096,2025-11-07 18:46:59.434339923
2025-11-07 18:46:57.474327,0,2025-11-07 18:46:59.442032231
2025-11-07 18:46:57.474327,29,2025-11-07 18:46:59.449724538
2025-11-07 18:46:57.474327,7424,2025-11-07 18:46:59.457416846
2025-11-07 18:46:57.474327,0,2025-11-07 18:46:59.465109154
2025-11-07 18:46:57.474327,29,2025-11-07 18:46:59.472801462
2025-11-07 18:46:57.474327,7424,2025-11-07 18:46:59.480493769
2025-11-07 18:46:57.474327,0,2025-11-07 18:46:59.488186077
2025-11-07 18:46:57.474327,24,2025-11-07 18:46:59.495878385
2025-11-07 18:46:58.056750,41,2025-11-07 18:46:59.503570692
2025-11-07 18:46:58.056750,11008,2025-11-07 18:46:59.511263000
2025-11-07 18:46:58.056750,0,2025-11-07 18:46:59.518955308
2025-11-07 18:46:58.056750,43,2025-11-07 18:46:59.526647615
2025-11-07 18:46:58.056750,13568,2025-11-07 18:46:59.534339923
2025-11-07 18:46:58.056750,0,2025-11-07 18:46:59.542032231
2025-11-07 18:46:58.056750,58,2025-11-07 18:46:59.549724538
2025-11-07 18:46:58.056750,21504,2025-11-07 18:46:59.557416846
2025-11-07 18:46:58.056750,0,2025-11-07 18:46:59.565109154
2025-11-07 18:46:58.056750,89,2025-11-07 18:46:59.572801462
2025-11-07 18:46:58.056750,14080,2025-11-07 18:46:59.580493769
2025-11-07 18:46:58.056750,0,2025-11-07 18:46:59.588186077
2025-11-07 18:46:58.056750,55,2025-11-07 18:46:59.595878385
2025-11-07 18:46:58.056750,13568,2025-11-07 18:46:59.603570692
2025-11-07 18:46:58.056750,0,2025-11-07 18:46:59.611263000
2025-11-07 18:46:58.056750,46,2025-11-07 18:46:59.618955308
2025-11-07 18:46:58.056750,23552,2025-11-07 18:46:59.626647615
2025-11-07 18:46:58.056750,0,2025-11-07 18:46:59.634339923
2025-11-07 18:46:58.056750,162,2025-11-07 18:46:59.642032231
2025-11-07 18:46:58.056750,-16640,2025-11-07 18:46:59.649724538
2025-11-07 18:46:58.056750,0,2025-11-07 18:46:59.657416846
2025-11-07 18:46:58.056750,155,2025-11-07 18:46:59.665109154
2025-11-07 18:46:58.056750,29696,2025-11-07 18:46:59.672801462
2025-11-07 18:46:58.056750,0,2025-11-07 18:46:59.680493769
2025-11-07 18:46:58.056750,111,2025-11-07 18:46:59.688186077
2025-11-07 18:46:58.056750,25856,2025-11-07 18:46:59.695878385
2025-11-07 18:46:58.056750,0,2025-11-07 18:46:59.703570692
2025-11-07 18:46:58.056750,92,2025-11-07 18:46:59.711263000
2025-11-07 18:46:58.056750,21504,2025-11-07 18:46:59.718955308
2025-11-07 18:46:58.056750,0,2025-11-07 18:46:59.726647615
2025-11-07 18:46:58.056750,80,2025-11-07 18:46:59.734339923
2025-11-07 18:46:58.056750,22272,2025-11-07 18:46:59.742032231
2025-11-07 18:46:58.056750,0,2025-11-07 18:46:59.749724538
2025-11-07 18:46:58.056750,84,2025-11-07 18:46:59.757416846
2025-11-07 18:46:58.056750,21504,2025-11-07 18:46:59.765109154
2025-11-07 18:46:58.056750,0,2025-11-07 18:46:59.772801462
2025-11-07 18:46:58.056750,84,2025-11-07 18:46:59.780493769
2025-11-07 18:46:58.056750,20992,2025-11-07 18:46:59.788186077
2025-11-07 18:46:58.056750,0,2025-11-07 18:46:59.795878385
2025-11-07 18:46:58.056750,94,2025-11-07 18:46:59.803570692
2025-11-07 18:46:58.056750,23552,2025-11-07 18:46:59.811263000
2025-11-07 18:46:58.056750,0,2025-11-07 18:46:59.818955308
2025-11-07 18:46:58.056750,94,2025-11-07 18:46:59.826647615
2025-11-07 18:46:58.056750,27136,2025-11-07 18:46:59.834339923
2025-11-07 18:46:58.056750,0,2025-11-07 18:46:59.842032230
2025-11-07 18:46:58.056750,99,2025-11-07 18:46:59.849724538
2025-11-07 18:46:58.056750,27136,2025-11-07 18:46:59.857416846
2025-11-07 18:46:58.056750,0,2025-11-07 18:46:59.865109154
2025-11-07 18:46:58.056750,123,2025-11-07 18:46:59.872801462
2025-11-07 18:46:58.056750,32256,2025-11-07 18:46:59.880493769
2025-11-07 18:46:58.056750,0,2025-11-07 18:46:59.888186077
2025-11-07 18:46:58.056750,126,2025-11-07 18:46:59.895878385
2025-11-07 18:46:58.056750,30208,2025-11-07 18:46:59.903570692
2025-11-07 18:46:58.056750,0,2025-11-07 18:46:59.911263000
2025-11-07 18:46:58.056750,118,2025-11-07 18:46:59.918955308
2025-11-07 18:46:58.056750,32256,2025-11-07 18:46:59.926647615
2025-11-07 18:46:58.056750,0,2025-11-07 18:46:59.934339923
2025-11-07 18:46:58.056750,128,2025-11-07 18:46:59.942032231
2025-11-07 18:46:58.056750,-30208,2025-11-07 18:46:59.949724538
2025-11-07 18:46:58.056750,0,2025-11-07 18:46:59.957416846
2025-11-07 18:46:58.056750,135,2025-11-07 18:46:59.965109154
2025-11-07 18:46:58.056750,-28928,2025-11-07 18:46:59.972801462
2025-11-07 18:46:58.056750,0,2025-11-07 18:46:59.980493769
2025-11-07 18:46:58.056750,157,2025-11-07 18:46:59.988186077
2025-11-07 18:46:58.056750,-27136,2025-11-07 18:46:59.995878385
2025-11-07 18:46:58.056750,0,2025-11-07 18:47:00.003570692
2025-11-07 18:46:58.056750,155,2025-11-07 18:47:00.011263000
2025-11-07 18:46:58.056750,-23552,2025-11-07 18:47:00.018955308
2025-11-07 18:46:58.056750,0,2025-11-07 18:47:00.026647615
2025-11-07 18:46:58.056750,162,2025-11-07 18:47:00.034339923
2025-11-07 18:46:58.056750,-22784,2025-11-07 18:47:00.042032231
2025-11-07 18:46:58.056750,0,2025-11-07 18:47:00.049724538
2025-11-07 18:46:58.056750,167,2025-11-07 18:47:00.057416846
2025-11-07 18:46:58.056750,-22784,2025-11-07 18:47:00.065109154
2025-11-07 18:46:58.056750,0,2025-11-07 18:47:00.072801462
2025-11-07 18:46:58.056750,162,2025-11-07 18:47:00.080493769
2025-11-07 18:46:58.056750,-25344,2025-11-07 18:47:00.088186077
2025-11-07 18:46:58.056750,0,2025-11-07 18:47:00.095878385
2025-11-07 18:46:58.056750,164,2025-11-07 18:47:00.103570692
2025-11-07 18:46:58.056750,-25856,2025-11-07 18:47:00.111263000
2025-11-07 18:46:58.056750,0,2025-11-07 18:47:00.118955308
2025-11-07 18:46:58.056750,150,2025-11-07 18:47:00.126647615
2025-11-07 18:46:58.056750,-25344,2025-11-07 18:47:00.134339923
2025-11-07 18:46:58.056750,0,2025-11-07 18:47:00.142032231
2025-11-07 18:46:58.056750,152,2025-11-07 18:47:00.149724538
2025-11-07 18:46:58.056750,-24576,2025-11-07 18:47:00.157416846
2025-11-07 18:46:58.056750,0,2025-11-07 18:47:00.165109154
2025-11-07 18:46:58.056750,164,2025-11-07 18:47:00.172801462
2025-11-07 18:46:58.056750,-25856,2025-11-07 18:47:00.180493769
2025-11-07 18:46:58.056750,0,2025-11-07 18:47:00.188186077
2025-11-07 18:46:58.056750,157,2025-11-07 18:47:00.195878385
2025-11-07 18:46:58.056750,-26624,2025-11-07 18:47:00.203570692
2025-11-07 18:46:58.056750,0,2025-11-07 18:47:00.211263000
2025-11-07 18:46:58.056750,155,2025-11-07 18:47:00.218955308
2025-11-07 18:46:58.056750,-23552,2025-11-07 18:47:00.226647615
2025-11-07 18:46:58.056750,0,2025-11-07 18:47:00.234339923
2025-11-07 18:46:58.056750,162,2025-11-07 18:47:00.242032231
2025-11-07 18:46:58.056750,-21504,2025-11-07 18:47:00.249724538
2025-11-07 18:46:58.056750,0,2025-11-07 18:47:00.257416846
2025-11-07 18:46:58.056750,169,2025-11-07 18:47:00.265109154
2025-11-07 18:46:58.056750,-23552,2025-11-07 18:47:00.272801462
2025-11-07 18:46:58.056750,0,2025-11-07 18:47:00.280493769
2025-11-07 18:46:58.056750,169,2025-11-07 18:47:00.288186077
2025-11-07 18:46:58.056750,-23552,2025-11-07 18:47:00.295878385
2025-11-07 18:46:58.056750,0,2025-11-07 18:47:00.303570692
2025-11-07 18:46:58.056750,164,2025-11-07 18:47:00.311263000
2025-11-07 18:46:58.056750,-24064,2025-11-07 18:47:00.318955308
2025-11-07 18:46:58.056750,0,2025-11-07 18:47:00.326647615
2025-11-07 18:46:58.056750,155,2025-11-07 18:47:00.334339923
2025-11-07 18:46:58.641334,164,2025-11-07 18:47:00.342032231
2025-11-07 18:46:58.641334,-24576,2025-11-07 18:47:00.349724538
2025-11-07 18:46:58.641334,0,2025-11-07 18:47:00.357416846
2025-11-07 18:46:58.641334,160,2025-11-07 18:47:00.365109154
2025-11-07 18:46:58.641334,-24576,2025-11-07 18:47:00.372801462
2025-11-07 18:46:58.641334,0,2025-11-07 18:47:00.380493769
2025-11-07 18:46:58.641334,147,2025-11-07 18:47:00.388186077
2025-11-07 18:46:58.641334,-25344,2025-11-07 18:47:00.395878385
2025-11-07 18:46:58.641334,0,2025-11-07 18:47:00.403570692
2025-11-07 18:46:58.641334,157,2025-11-07 18:47:00.411263000
2025-11-07 18:46:58.641334,-26624,2025-11-07 18:47:00.418955308
2025-11-07 18:46:58.641334,0,2025-11-07 18:47:00.426647615
2025-11-07 18:46:58.641334,179,2025-11-07 18:47:00.434339923
2025-11-07 18:46:58.641334,-19200,2025-11-07 18:47:00.442032231
2025-11-07 18:46:58.641334,0,2025-11-07 18:47:00.449724538
2025-11-07 18:46:58.641334,152,2025-11-07 18:47:00.457416846
2025-11-07 18:46:58.641334,-29696,2025-11-07 18:47:00.465109154
2025-11-07 18:46:58.641334,0,2025-11-07 18:47:00.472801462
2025-11-07 18:46:58.641334,150,2025-11-07 18:47:00.480493769
2025-11-07 18:46:58.641334,-25856,2025-11-07 18:47:00.488186077
2025-11-07 18:46:58.641334,0,2025-11-07 18:47:00.495878385
2025-11-07 18:46:58.641334,143,2025-11-07 18:47:00.503570692
2025-11-07 18:46:58.641334,-28928,2025-11-07 18:47:00.511263000
2025-11-07 18:46:58.641334,0,2025-11-07 18:47:00.518955308
2025-11-07 18:46:58.641334,145,2025-11-07 18:47:00.526647615
2025-11-07 18:46:58.641334,-30976,2025-11-07 18:47:00.534339923
2025-11-07 18:46:58.641334,0,2025-11-07 18:47:00.542032231
2025-11-07 18:46:58.641334,140,2025-11-07 18:47:00.549724538
2025-11-07 18:46:58.641334,-28928,2025-11-07 18:47:00.557416846
2025-11-07 18:46:58.641334,0,2025-11-07 18:47:00.565109154
2025-11-07 18:46:58.641334,140,2025-11-07 18:47:00.572801462
2025-11-07 18:46:58.641334,-29696,2025-11-07 18:47:00.580493769
2025-11-07 18:46:58.641334,0,2025-11-07 18:47:00.588186077
2025-11-07 18:46:58.641334,128,2025-11-07 18:47:00.595878385
2025-11-07 18:46:58.641334,-31488,2025-11-07 18:47:00.603570692
2025-11-07 18:46:58.641334,0,2025-11-07 18:47:00.611263000
2025-11-07 18:46:58.641334,133,2025-11-07 18:47:00.618955308
2025-11-07 18:46:58.641334,30208,2025-11-07 18:47:00.626647615
2025-11-07 18:46:58.641334,0,2025-11-07 18:47:00.634339923
2025-11-07 18:46:58.641334,121,2025-11-07 18:47:00.642032231
2025-11-07 18:46:58.641334,29696,2025-11-07 18:47:00.649724538
2025-11-07 18:46:58.641334,0,2025-11-07 18:47:00.657416846
2025-11-07 18:46:58.641334,113,2025-11-07 18:47:00.665109154
2025-11-07 18:46:58.641334,31488,2025-11-07 18:47:00.672801462
2025-11-07 18:46:58.641334,0,2025-11-07 18:47:00.680493769
2025-11-07 18:46:58.641334,123,2025-11-07 18:47:00.688186077
2025-11-07 18:46:58.641334,-32256,2025-11-07 18:47:00.695878385
2025-11-07 18:46:58.641334,0,2025-11-07 18:47:00.703570692
2025-11-07 18:46:58.641334,123,2025-11-07 18:47:00.711263000
2025-11-07 18:46:58.641334,28928,2025-11-07 18:47:00.718955308
2025-11-07 18:46:58.641334,0,2025-11-07 18:47:00.726647615
2025-11-07 18:46:58.641334,116,2025-11-07 18:47:00.734339923
2025-11-07 18:46:58.641334,28416,2025-11-07 18:47:00.742032231
2025-11-07 18:46:58.641334,0,2025-11-07 18:47:00.749724538
2025-11-07 18:46:58.641334,109,2025-11-07 18:47:00.757416846
2025-11-07 18:46:58.641334,28416,2025-11-07 18:47:00.765109154
2025-11-07 18:46:58.641334,0,2025-11-07 18:47:00.772801462
2025-11-07 18:46:58.641334,109,2025-11-07 18:47:00.780493769
2025-11-07 18:46:58.641334,27136,2025-11-07 18:47:00.788186077
2025-11-07 18:46:58.641334,0,2025-11-07 18:47:00.795878385
2025-11-07 18:46:58.641334,109,2025-11-07 18:47:00.803570692
2025-11-07 18:46:58.641334,28928,2025-11-07 18:47:00.811263000
2025-11-07 18:46:58.641334,0,2025-11-07 18:47:00.818955308
2025-11-07 18:46:58.641334,101,2025-11-07 18:47:00.826647615
2025-11-07 18:46:58.641334,22784,2025-11-07 18:47:00.834339923
2025-11-07 18:46:58.641334,0,2025-11-07 18:47:00.842032230
2025-11-07 18:46:58.641334,82,2025-11-07 18:47:00.849724538
2025-11-07 18:46:58.641334,19200,2025-11-07 18:47:00.857416846
2025-11-07 18:46:58.641334,0,2025-11-07 18:47:00.865109154
2025-11-07 18:46:58.641334,118,2025-11-07 18:47:00.872801462
2025-11-07 18:46:58.641334,-16640,2025-11-07 18:47:00.880493769
2025-11-07 18:46:58.641334,0,2025-11-07 18:47:00.888186077
2025-11-07 18:46:58.641334,198,2025-11-07 18:47:00.895878385
2025-11-07 18:46:58.641334,-24576,2025-11-07 18:47:00.903570692
2025-11-07 18:46:58.641334,0,2025-11-07 18:47:00.911263000
2025-11-07 18:46:58.641334,118,2025-11-07 18:47:00.918955308
2025-11-07 18:46:58.641334,25344,2025-11-07 18:47:00.926647615
2025-11-07 18:46:58.641334,0,2025-11-07 18:47:00.934339923
2025-11-07 18:46:58.641334,104,2025-11-07 18:47:00.942032231
2025-11-07 18:46:58.641334,24064,2025-11-07 18:47:00.949724538
2025-11-07 18:46:58.641334,0,2025-11-07 18:47:00.957416846
2025-11-07 18:46:58.641334,84,2025-11-07 18:47:00.965109154
2025-11-07 18:46:58.641334,22272,2025-11-07 18:47:00.972801462
2025-11-07 18:46:58.641334,0,2025-11-07 18:47:00.980493769
2025-11-07 18:46:58.641334,80,2025-11-07 18:47:00.988186077
2025-11-07 18:46:58.641334,17920,2025-11-07 18:47:00.995878385
2025-11-07 18:46:58.641334,0,2025-11-07 18:47:01.003570692
2025-11-07 18:46:58.641334,65,2025-11-07 18:47:01.011263000
2025-11-07 18:46:58.641334,17152,2025-11-07 18:47:01.018955308
2025-11-07 18:46:58.641334,0,2025-11-07 18:47:01.026647615
2025-11-07 18:46:58.641334,72,2025-11-07 18:47:01.034339923
2025-11-07 18:46:58.641334,17152,2025-11-07 18:47:01.042032231
2025-11-07 18:46:58.641334,0,2025-11-07 18:47:01.049724538
2025-11-07 18:46:58.641334,63,2025-11-07 18:47:01.057416846
2025-11-07 18:46:58.641334,16128,2025-11-07 18:47:01.065109154
2025-11-07 18:46:58.641334,0,2025-11-07 18:47:01.072801462
2025-11-07 18:46:58.641334,63,2025-11-07 18:47:01.080493769
2025-11-07 18:46:58.641334,17152,2025-11-07 18:47:01.088186077
2025-11-07 18:46:58.641334,0,2025-11-07 18:47:01.095878385
2025-11-07 18:46:58.641334,70,2025-11-07 18:47:01.103570692
2025-11-07 18:46:58.641334,19712,2025-11-07 18:47:01.111263000
2025-11-07 18:46:58.641334,0,2025-11-07 18:47:01.118955308
2025-11-07 18:46:58.641334,80,2025-11-07 18:47:01.126647615
2025-11-07 18:46:58.641334,19200,2025-11-07 18:47:01.134339923
2025-11-07 18:46:58.641334,0,2025-11-07 18:47:01.142032231
2025-11-07 18:46:58.641334,80,2025-11-07 18:47:01.149724538
2025-11-07 18:46:58.641334,20992,2025-11-07 18:47:01.157416846
2025-11-07 18:46:58.641334,0,2025-11-07 18:47:01.165109154
2025-11-07 18:46:58.641334,77,2025-11-07 18:47:01.172801462
2025-11-07 18:46:59.181321,80,2025-11-07 18:47:01.180493769
2025-11-07 18:46:59.181321,18432,2025-11-07 18:47:01.188186077
2025-11-07 18:46:59.181321,0,2025-11-07 18:47:01.195878385
2025-11-07 18:46:59.181321,67,2025-11-07 18:47:01.203570692
2025-11-07 18:46:59.181321,17152,2025-11-07 18:47:01.211263000
2025-11-07 18:46:59.181321,0,2025-11-07 18:47:01.218955308
2025-11-07 18:46:59.181321,63,2025-11-07 18:47:01.226647615
2025-11-07 18:46:59.181321,16640,2025-11-07 18:47:01.234339923
2025-11-07 18:46:59.181321,0,2025-11-07 18:47:01.242032231
2025-11-07 18:46:59.181321,60,2025-11-07 18:47:01.249724538
2025-11-07 18:46:59.181321,11776,2025-11-07 18:47:01.257416846
2025-11-07 18:46:59.181321,0,2025-11-07 18:47:01.265109154
2025-11-07 18:46:59.181321,36,2025-11-07 18:47:01.272801462
2025-11-07 18:46:59.181321,6656,2025-11-07 18:47:01.280493769
2025-11-07 18:46:59.181321,0,2025-11-07 18:47:01.288186077
2025-11-07 18:46:59.181321,26,2025-11-07 18:47:01.295878385
2025-11-07 18:46:59.181321,9728,2025-11-07 18:47:01.303570692
2025-11-07 18:46:59.181321,0,2025-11-07 18:47:01.311263000
2025-11-07 18:46:59.181321,53,2025-11-07 18:47:01.318955308
2025-11-07 18:46:59.181321,8448,2025-11-07 18:47:01.326647615
2025-11-07 18:46:59.181321,0,2025-11-07 18:47:01.334339923
2025-11-07 18:46:59.181321,12,2025-11-07 18:47:01.342032231
2025-11-07 18:46:59.181321,6656,2025-11-07 18:47:01.349724538
2025-11-07 18:46:59.181321,0,2025-11-07 18:47:01.357416846
2025-11-07 18:46:59.181321,21,2025-11-07 18:47:01.365109154
2025-11-07 18:46:59.181321,1024,2025-11-07 18:47:01.372801462
2025-11-07 18:46:59.181321,0,2025-11-07 18:47:01.380493769
2025-11-07 18:46:59.181321,14,2025-11-07 18:47:01.388186077
2025-11-07 18:46:59.181321,3072,2025-11-07 18:47:01.395878385
2025-11-07 18:46:59.181321,0,2025-11-07 18:47:01.403570692
2025-11-07 18:46:59.181321,7,2025-11-07 18:47:01.411263000
2025-11-07 18:46:59.181321,2304,2025-11-07 18:47:01.418955308
2025-11-07 18:46:59.181321,0,2025-11-07 18:47:01.426647615
2025-11-07 18:46:59.181321,7,2025-11-07 18:47:01.434339923
2025-11-07 18:46:59.181321,1792,2025-11-07 18:47:01.442032231
2025-11-07 18:46:59.181321,0,2025-11-07 18:47:01.449724538
2025-11-07 18:46:59.181321,7,2025-11-07 18:47:01.457416846
2025-11-07 18:46:59.181321,512,2025-11-07 18:47:01.465109154
2025-11-07 18:46:59.181321,0,2025-11-07 18:47:01.472801462
2025-11-07 18:46:59.181321,-2,2025-11-07 18:47:01.480493769
2025-11-07 18:46:59.181321,-769,2025-11-07 18:47:01.488186077
2025-11-07 18:46:59.181321,-1,2025-11-07 18:47:01.495878385
2025-11-07 18:46:59.181321,0,2025-11-07 18:47:01.503570692
2025-11-07 18:46:59.181321,512,2025-11-07 18:47:01.511263000
2025-11-07 18:46:59.181321,0,2025-11-07 18:47:01.518955308
2025-11-07 18:46:59.181321,0,2025-11-07 18:47:01.526647615
2025-11-07 18:46:59.181321,512,2025-11-07 18:47:01.534339923
2025-11-07 18:46:59.181321,0,2025-11-07 18:47:01.542032231
2025-11-07 18:46:59.181321,4,2025-11-07 18:47:01.549724538
2025-11-07 18:46:59.181321,2304,2025-11-07 18:47:01.557416846
2025-11-07 18:46:59.181321,0,2025-11-07 18:47:01.565109154
2025-11-07 18:46:59.181321,14,2025-11-07 18:47:01.572801462
2025-11-07 18:46:59.181321,1024,2025-11-07 18:47:01.580493769
2025-11-07 18:46:59.181321,0,2025-11-07 18:47:01.588186077
2025-11-07 18:46:59.181321,7,2025-11-07 18:47:01.595878385
2025-11-07 18:46:59.181321,1792,2025-11-07 18:47:01.603570692
2025-11-07 18:46:59.181321,0,2025-11-07 18:47:01.611263000
2025-11-07 18:46:59.181321,7,2025-11-07 18:47:01.618955308
2025-11-07 18:46:59.181321,3584,2025-11-07 18:47:01.626647615
2025-11-07 18:46:59.181321,0,2025-11-07 18:47:01.634339923
2025-11-07 18:46:59.181321,16,2025-11-07 18:47:01.642032231
2025-11-07 18:46:59.181321,5376,2025-11-07 18:47:01.649724538
2025-11-07 18:46:59.181321,0,2025-11-07 18:47:01.657416846
2025-11-07 18:46:59.181321,24,2025-11-07 18:47:01.665109154
2025-11-07 18:46:59.181321,4864,2025-11-07 18:47:01.672801462
2025-11-07 18:46:59.181321,0,2025-11-07 18:47:01.680493769
2025-11-07 18:46:59.181321,16,2025-11-07 18:47:01.688186077
2025-11-07 18:46:59.181321,4864,2025-11-07 18:47:01.695878385
2025-11-07 18:46:59.181321,0,2025-11-07 18:47:01.703570692
2025-11-07 18:46:59.181321,21,2025-11-07 18:47:01.711263000
2025-11-07 18:46:59.181321,7424,2025-11-07 18:47:01.718955308
2025-11-07 18:46:59.181321,0,2025-11-07 18:47:01.726647615
2025-11-07 18:46:59.181321,26,2025-11-07 18:47:01.734339923
2025-11-07 18:46:59.181321,7424,2025-11-07 18:47:01.742032231
2025-11-07 18:46:59.181321,0,2025-11-07 18:47:01.749724538
2025-11-07 18:46:59.181321,31,2025-11-07 18:47:01.757416846
2025-11-07 18:46:59.181321,7424,2025-11-07 18:47:01.765109154
2025-11-07 18:46:59.181321,0,2025-11-07 18:47:01.772801462
2025-11-07 18:46:59.181321,33,2025-11-07 18:47:01.780493769
2025-11-07 18:46:59.181321,7936,2025-11-07 18:47:01.788186077
2025-11-07 18:46:59.181321,0,2025-11-07 18:47:01.795878385
2025-11-07 18:46:59.181321,29,2025-11-07 18:47:01.803570692
2025-11-07 18:46:59.181321,6656,2025-11-07 18:47:01.811263000
2025-11-07 18:46:59.181321,0,2025-11-07 18:47:01.818955308
2025-11-07 18:46:59.181321,19,2025-11-07 18:47:01.826647615
2025-11-07 18:46:59.181321,4864,2025-11-07 18:47:01.834339923
2025-11-07 18:46:59.181321,0,2025-11-07 18:47:01.842032230
2025-11-07 18:46:59.181321,16,2025-11-07 18:47:01.849724538
2025-11-07 18:46:59.181321,3072,2025-11-07 18:47:01.857416846
2025-11-07 18:46:59.181321,0,2025-11-07 18:47:01.865109154
2025-11-07 18:46:59.181321,7,2025-11-07 18:47:01.872801462
2025-11-07 18:46:59.181321,-512,2025-11-07 18:47:01.880493769
2025-11-07 18:46:59.181321,-1,2025-11-07 18:47:01.888186077
2025-11-07 18:46:59.181321,-7,2025-11-07 18:47:01.895878385
2025-11-07 18:46:59.181321,-2049,2025-11-07 18:47:01.903570692
2025-11-07 18:46:59.181321,-1,2025-11-07 18:47:01.911263000
2025-11-07 18:46:59.181321,-12,2025-11-07 18:47:01.918955308
2025-11-07 18:46:59.181321,-3841,2025-11-07 18:47:01.926647615
2025-11-07 18:46:59.181321,-1,2025-11-07 18:47:01.934339923
2025-11-07 18:46:59.181321,-21,2025-11-07 18:47:01.942032231
2025-11-07 18:46:59.181321,-8193,2025-11-07 18:47:01.949724538
2025-11-07 18:46:59.181321,-1,2025-11-07 18:47:01.957416846
2025-11-07 18:46:59.181321,-46,2025-11-07 18:47:01.965109154
2025-11-07 18:46:59.181321,-13313,2025-11-07 18:47:01.972801462
2025-11-07 18:46:59.181321,-1,2025-11-07 18:47:01.980493769
2025-11-07 18:46:59.181321,-53,2025-11-07 18:47:01.988186077
2025-11-07 18:46:59.181321,-16385,2025-11-07 18:47:01.995878385
2025-11-07 18:46:59.181321,-1,2025-11-07 18:47:02.003570692
2025-11-07 18:46:59.181321,-75,2025-11-07 18:47:02.011263000
2025-11-07 18:46:59.721279,-80,2025-11-07 18:47:02.018955308
2025-11-07 18:46:59.721279,-23297,2025-11-07 18:47:02.026647615
2025-11-07 18:46:59.721279,-1,2025-11-07 18:47:02.034339923
2025-11-07 18:46:59.721279,-99,2025-11-07 18:47:02.042032231
2025-11-07 18:46:59.721279,-25601,2025-11-07 18:47:02.049724538
2025-11-07 18:46:59.721279,-1,2025-11-07 18:47:02.057416846
2025-11-07 18:46:59.721279,-118,2025-11-07 18:47:02.065109154
2025-11-07 18:46:59.721279,-32513,2025-11-07 18:47:02.072801462
2025-11-07 18:46:59.721279,-1,2025-11-07 18:47:02.080493769
2025-11-07 18:46:59.721279,-143,2025-11-07 18:47:02.088186077
2025-11-07 18:46:59.721279,23039,2025-11-07 18:47:02.095878385
2025-11-07 18:46:59.721279,-1,2025-11-07 18:47:02.103570692
2025-11-07 18:46:59.721279,-143,2025-11-07 18:47:02.111263000
2025-11-07 18:46:59.721279,-16897,2025-11-07 18:47:02.118955308
2025-11-07 18:46:59.721279,-1,2025-11-07 18:47:02.126647615
2025-11-07 18:46:59.721279,-48,2025-11-07 18:47:02.134339923
2025-11-07 18:46:59.721279,-28161,2025-11-07 18:47:02.142032231
2025-11-07 18:46:59.721279,-1,2025-11-07 18:47:02.149724538
2025-11-07 18:46:59.721279,-169,2025-11-07 18:47:02.157416846
2025-11-07 18:46:59.721279,15103,2025-11-07 18:47:02.165109154
2025-11-07 18:46:59.721279,-1,2025-11-07 18:47:02.172801462
2025-11-07 18:46:59.721279,-210,2025-11-07 18:47:02.180493769
2025-11-07 18:46:59.721279,8191,2025-11-07 18:47:02.188186077
2025-11-07 18:46:59.721279,-1,2025-11-07 18:47:02.195878385
2025-11-07 18:46:59.721279,-252,2025-11-07 18:47:02.203570692
2025-11-07 18:46:59.721279,-4353,2025-11-07 18:47:02.211263000
2025-11-07 18:46:59.721279,-2,2025-11-07 18:47:02.218955308
2025-11-07 18:46:59.721279,-286,2025-11-07 18:47:02.226647615
2025-11-07 18:46:59.721279,-12289,2025-11-07 18:47:02.234339923
2025-11-07 18:46:59.721279,-2,2025-11-07 18:47:02.242032231
2025-11-07 18:46:59.721279,-320,2025-11-07 18:47:02.249724538
2025-11-07 18:46:59.721279,-17921,2025-11-07 18:47:02.257416846
2025-11-07 18:46:59.721279,-2,2025-11-07 18:47:02.265109154
2025-11-07 18:46:59.721279,-339,2025-11-07 18:47:02.272801462
2025-11-07 18:46:59.721279,-24065,2025-11-07 18:47:02.280493769
2025-11-07 18:46:59.721279,-2,2025-11-07 18:47:02.288186077
2025-11-07 18:46:59.721279,-373,2025-11-07 18:47:02.295878385
2025-11-07 18:46:59.721279,31999,2025-11-07 18:47:02.303570692
2025-11-07 18:46:59.721279,-2,2025-11-07 18:47:02.311263000
2025-11-07 18:46:59.721279,-383,2025-11-07 18:47:02.318955308
2025-11-07 18:46:59.721279,30975,2025-11-07 18:47:02.326647615
2025-11-07 18:46:59.721279,-2,2025-11-07 18:47:02.334339923
2025-11-07 18:46:59.721279,-417,2025-11-07 18:47:02.342032231
2025-11-07 18:46:59.721279,23551,2025-11-07 18:47:02.349724538
2025-11-07 18:46:59.721279,-2,2025-11-07 18:47:02.357416846
2025-11-07 18:46:59.721279,-434,2025-11-07 18:47:02.365109154
2025-11-07 18:46:59.721279,14079,2025-11-07 18:47:02.372801462
2025-11-07 18:46:59.721279,-2,2025-11-07 18:47:02.380493769
2025-11-07 18:46:59.721279,-475,2025-11-07 18:47:02.388186077
2025-11-07 18:46:59.721279,9215,2025-11-07 18:47:02.395878385
2025-11-07 18:46:59.721279,-2,2025-11-07 18:47:02.403570692
2025-11-07 18:46:59.721279,-494,2025-11-07 18:47:02.411263000
2025-11-07 18:46:59.721279,-2561,2025-11-07 18:47:02.418955308
2025-11-07 18:46:59.721279,-3,2025-11-07 18:47:02.426647615
2025-11-07 18:46:59.721279,-555,2025-11-07 18:47:02.434339923
2025-11-07 18:46:59.721279,-18689,2025-11-07 18:47:02.442032231
2025-11-07 18:46:59.721279,-3,2025-11-07 18:47:02.449724538
2025-11-07 18:46:59.721279,-596,2025-11-07 18:47:02.457416846
2025-11-07 18:46:59.721279,-19457,2025-11-07 18:47:02.465109154
2025-11-07 18:46:59.721279,-3,2025-11-07 18:47:02.472801462
2025-11-07 18:46:59.721279,-601,2025-11-07 18:47:02.480493769
2025-11-07 18:46:59.721279,-25601,2025-11-07 18:47:02.488186077
2025-11-07 18:46:59.721279,-3,2025-11-07 18:47:02.495878385
2025-11-07 18:46:59.721279,-596,2025-11-07 18:47:02.503570692
2025-11-07 18:46:59.721279,-16385,2025-11-07 18:47:02.511263000
2025-11-07 18:46:59.721279,-3,2025-11-07 18:47:02.518955308
2025-11-07 18:46:59.721279,-552,2025-11-07 18:47:02.526647615
2025-11-07 18:46:59.721279,-5121,2025-11-07 18:47:02.534339923
2025-11-07 18:46:59.721279,-3,2025-11-07 18:47:02.542032231
2025-11-07 18:46:59.721279,-538,2025-11-07 18:47:02.549724538
2025-11-07 18:46:59.721279,-9985,2025-11-07 18:47:02.557416846
2025-11-07 18:46:59.721279,-3,2025-11-07 18:47:02.565109154
2025-11-07 18:46:59.721279,-562,2025-11-07 18:47:02.572801462
2025-11-07 18:46:59.721279,-16385,2025-11-07 18:47:02.580493769
2025-11-07 18:46:59.721279,-3,2025-11-07 18:47:02.588186077
2025-11-07 18:46:59.721279,-579,2025-11-07 18:47:02.595878385
2025-11-07 18:46:59.721279,-13313,2025-11-07 18:47:02.603570692
2025-11-07 18:46:59.721279,-3,2025-11-07 18:47:02.611263000
2025-11-07 18:46:59.721279,-555,2025-11-07 18:47:02.618955308
2025-11-07 18:46:59.721279,-8961,2025-11-07 18:47:02.626647615
2025-11-07 18:46:59.721279,-3,2025-11-07 18:47:02.634339923
2025-11-07 18:46:59.721279,-540,2025-11-07 18:47:02.642032231
2025-11-07 18:46:59.721279,-1281,2025-11-07 18:47:02.649724538
2025-11-07 18:46:59.721279,-3,2025-11-07 18:47:02.657416846
2025-11-07 18:46:59.721279,-455,2025-11-07 18:47:02.665109154
2025-11-07 18:46:59.721279,-31489,2025-11-07 18:47:02.672801462
2025-11-07 18:46:59.721279,-2,2025-11-07 18:47:02.680493769
2025-11-07 18:46:59.721279,-341,2025-11-07 18:47:02.688186077
2025-11-07 18:46:59.721279,-11009,2025-11-07 18:47:02.695878385
2025-11-07 18:46:59.721279,-2,2025-11-07 18:47:02.703570692
2025-11-07 18:46:59.721279,-240,2025-11-07 18:47:02.711263000
2025-11-07 18:46:59.721279,16127,2025-11-07 18:47:02.718955308
2025-11-07 18:46:59.721279,-1,2025-11-07 18:47:02.726647615
2025-11-07 18:46:59.721279,-160,2025-11-07 18:47:02.734339923
2025-11-07 18:46:59.721279,-31233,2025-11-07 18:47:02.742032231
2025-11-07 18:46:59.721279,-1,2025-11-07 18:47:02.749724538
2025-11-07 18:46:59.721279,-97,2025-11-07 18:47:02.757416846
2025-11-07 18:46:59.721279,-21249,2025-11-07 18:47:02.765109154
2025-11-07 18:46:59.721279,-1,2025-11-07 18:47:02.772801462
2025-11-07 18:46:59.721279,-63,2025-11-07 18:47:02.780493769
2025-11-07 18:46:59.721279,-7169,2025-11-07 18:47:02.788186077
2025-11-07 18:46:59.721279,-1,2025-11-07 18:47:02.795878385
2025-11-07 18:46:59.721279,4,2025-11-07 18:47:02.803570692
2025-11-07 18:46:59.721279,6656,2025-11-07 18:47:02.811263000
2025-11-07 18:46:59.721279,0,2025-11-07 18:47:02.818955308
2025-11-07 18:46:59.721279,55,2025-11-07 18:47:02.826647615
2025-11-07 18:46:59.721279,20992,2025-11-07 18:47:02.834339923
2025-11-07 18:46:59.721279,0,2025-11-07 18:47:02.842032230
2025-11-07 18:46:59.721279,99,2025-11-07 18:47:02.849724538
2025-11-07 18:47:00.306121,113,2025-11-07 18:47:02.857416846
2025-11-07 18:47:00.306121,30976,2025-11-07 18:47:02.865109154
2025-11-07 18:47:00.306121,0,2025-11-07 18:47:02.872801462
2025-11-07 18:47:00.306121,123,2025-11-07 18:47:02.880493769
2025-11-07 18:47:00.306121,-30976,2025-11-07 18:47:02.888186077
2025-11-07 18:47:00.306121,0,2025-11-07 18:47:02.895878385
2025-11-07 18:47:00.306121,155,2025-11-07 18:47:02.903570692
2025-11-07 18:47:00.306121,-19200,2025-11-07 18:47:02.911263000
2025-11-07 18:47:00.306121,0,2025-11-07 18:47:02.918955308
2025-11-07 18:47:00.306121,227,2025-11-07 18:47:02.926647615
2025-11-07 18:47:00.306121,-3584,2025-11-07 18:47:02.934339923
2025-11-07 18:47:00.306121,0,2025-11-07 18:47:02.942032231
2025-11-07 18:47:00.306121,201,2025-11-07 18:47:02.949724538
2025-11-07 18:47:00.306121,-13568,2025-11-07 18:47:02.957416846
2025-11-07 18:47:00.306121,0,2025-11-07 18:47:02.965109154
2025-11-07 18:47:00.306121,237,2025-11-07 18:47:02.972801462
2025-11-07 18:47:00.306121,-6144,2025-11-07 18:47:02.980493769
2025-11-07 18:47:00.306121,0,2025-11-07 18:47:02.988186077
2025-11-07 18:47:00.306121,223,2025-11-07 18:47:02.995878385
2025-11-07 18:47:00.306121,-10496,2025-11-07 18:47:03.003570692
2025-11-07 18:47:00.306121,0,2025-11-07 18:47:03.011263000
2025-11-07 18:47:00.306121,198,2025-11-07 18:47:03.018955308
2025-11-07 18:47:00.306121,-9216,2025-11-07 18:47:03.026647615
2025-11-07 18:47:00.306121,0,2025-11-07 18:47:03.034339923
2025-11-07 18:47:00.306121,276,2025-11-07 18:47:03.042032231
2025-11-07 18:47:00.306121,3840,2025-11-07 18:47:03.049724538
2025-11-07 18:47:00.306121,1,2025-11-07 18:47:03.057416846
2025-11-07 18:47:00.306121,249,2025-11-07 18:47:03.065109154
2025-11-07 18:47:00.306121,2560,2025-11-07 18:47:03.072801462
2025-11-07 18:47:00.306121,1,2025-11-07 18:47:03.080493769
2025-11-07 18:47:00.306121,269,2025-11-07 18:47:03.088186077
2025-11-07 18:47:00.306121,-2304,2025-11-07 18:47:03.095878385
2025-11-07 18:47:00.306121,0,2025-11-07 18:47:03.103570692
2025-11-07 18:47:00.306121,252,2025-11-07 18:47:03.111263000
2025-11-07 18:47:00.306121,2048,2025-11-07 18:47:03.118955308
2025-11-07 18:47:00.306121,1,2025-11-07 18:47:03.126647615
2025-11-07 18:47:00.306121,269,2025-11-07 18:47:03.134339923
2025-11-07 18:47:00.306121,6400,2025-11-07 18:47:03.142032231
2025-11-07 18:47:00.306121,1,2025-11-07 18:47:03.149724538
2025-11-07 18:47:00.306121,288,2025-11-07 18:47:03.157416846
2025-11-07 18:47:00.306121,23808,2025-11-07 18:47:03.165109154
2025-11-07 18:47:00.306121,1,2025-11-07 18:47:03.172801462
2025-11-07 18:47:00.306121,455,2025-11-07 18:47:03.180493769
2025-11-07 18:47:00.306121,-3328,2025-11-07 18:47:03.188186077
2025-11-07 18:47:00.306121,1,2025-11-07 18:47:03.195878385
2025-11-07 18:47:00.306121,511,2025-11-07 18:47:03.203570692
2025-11-07 18:47:00.306121,16640,2025-11-07 18:47:03.211263000
2025-11-07 18:47:00.306121,2,2025-11-07 18:47:03.218955308
2025-11-07 18:47:00.306121,630,2025-11-07 18:47:03.226647615
2025-11-07 18:47:00.306121,32000,2025-11-07 18:47:03.234339923
2025-11-07 18:47:00.306121,2,2025-11-07 18:47:03.242032231
2025-11-07 18:47:00.306121,630,2025-11-07 18:47:03.249724538
2025-11-07 18:47:00.306121,-31488,2025-11-07 18:47:03.257416846
2025-11-07 18:47:00.306121,2,2025-11-07 18:47:03.265109154
2025-11-07 18:47:00.306121,686,2025-11-07 18:47:03.272801462
2025-11-07 18:47:00.306121,-6656,2025-11-07 18:47:03.280493769
2025-11-07 18:47:00.306121,2,2025-11-07 18:47:03.288186077
2025-11-07 18:47:00.306121,822,2025-11-07 18:47:03.295878385
2025-11-07 18:47:00.306121,-28928,2025-11-07 18:47:03.303570692
2025-11-07 18:47:00.306121,3,2025-11-07 18:47:03.311263000
2025-11-07 18:47:00.306121,1023,2025-11-07 18:47:03.318955308
2025-11-07 18:47:00.306121,-29184,2025-11-07 18:47:03.326647615
2025-11-07 18:47:00.306121,4,2025-11-07 18:47:03.334339923
2025-11-07 18:47:00.306121,1253,2025-11-07 18:47:03.342032231
2025-11-07 18:47:00.306121,-8192,2025-11-07 18:47:03.349724538
2025-11-07 18:47:00.306121,4,2025-11-07 18:47:03.357416846
2025-11-07 18:47:00.306121,1212,2025-11-07 18:47:03.365109154
2025-11-07 18:47:00.306121,-15616,2025-11-07 18:47:03.372801462
2025-11-07 18:47:00.306121,4,2025-11-07 18:47:03.380493769
2025-11-07 18:47:00.306121,1280,2025-11-07 18:47:03.388186077
2025-11-07 18:47:00.306121,7936,2025-11-07 18:47:03.395878385
2025-11-07 18:47:00.306121,5,2025-11-07 18:47:03.403570692
2025-11-07 18:47:00.306121,1321,2025-11-07 18:47:03.411263000
2025-11-07 18:47:00.306121,14336,2025-11-07 18:47:03.418955308
2025-11-07 18:47:00.306121,5,2025-11-07 18:47:03.426647615
2025-11-07 18:47:00.306121,1328,2025-11-07 18:47:03.434339923
2025-11-07 18:47:00.306121,8704,2025-11-07 18:47:03.442032231
2025-11-07 18:47:00.306121,5,2025-11-07 18:47:03.449724538
2025-11-07 18:47:00.306121,1326,2025-11-07 18:47:03.457416846
2025-11-07 18:47:00.306121,15616,2025-11-07 18:47:03.465109154
2025-11-07 18:47:00.306121,5,2025-11-07 18:47:03.472801462
2025-11-07 18:47:00.306121,1328,2025-11-07 18:47:03.480493769
2025-11-07 18:47:00.306121,7936,2025-11-07 18:47:03.488186077
2025-11-07 18:47:00.306121,5,2025-11-07 18:47:03.495878385
2025-11-07 18:47:00.306121,1316,2025-11-07 18:47:03.503570692
2025-11-07 18:47:00.306121,14336,2025-11-07 18:47:03.511263000
2025-11-07 18:47:00.306121,5,2025-11-07 18:47:03.518955308
2025-11-07 18:47:00.306121,1350,2025-11-07 18:47:03.526647615
2025-11-07 18:47:00.306121,15616,2025-11-07 18:47:03.534339923
2025-11-07 18:47:00.306121,5,2025-11-07 18:47:03.542032231
2025-11-07 18:47:00.306121,1309,2025-11-07 18:47:03.549724538
2025-11-07 18:47:00.306121,4352,2025-11-07 18:47:03.557416846
2025-11-07 18:47:00.306121,5,2025-11-07 18:47:03.565109154
2025-11-07 18:47:00.306121,1280,2025-11-07 18:47:03.572801462
2025-11-07 18:47:00.306121,-14336,2025-11-07 18:47:03.580493769
2025-11-07 18:47:00.306121,4,2025-11-07 18:47:03.588186077
2025-11-07 18:47:00.306121,1198,2025-11-07 18:47:03.595878385
2025-11-07 18:47:00.306121,-23040,2025-11-07 18:47:03.603570692
2025-11-07 18:47:00.306121,4,2025-11-07 18:47:03.611263000
2025-11-07 18:47:00.306121,1151,2025-11-07 18:47:03.618955308
2025-11-07 18:47:00.306121,28928,2025-11-07 18:47:03.626647615
2025-11-07 18:47:00.306121,4,2025-11-07 18:47:03.634339923
2025-11-07 18:47:00.306121,1127,2025-11-07 18:47:03.642032231
2025-11-07 18:47:00.306121,15872,2025-11-07 18:47:03.649724538
2025-11-07 18:47:00.306121,4,2025-11-07 18:47:03.657416846
2025-11-07 18:47:00.306121,1067,2025-11-07 18:47:03.665109154
2025-11-07 18:47:00.306121,11008,2025-11-07 18:47:03.672801462
2025-11-07 18:47:00.306121,4,2025-11-07 18:47:03.680493769
2025-11-07 18:47:00.306121,1064,2025-11-07 18:47:03.688186077
2025-11-07 18:47:00.889371,1064,2025-11-07 18:47:03.695878385
2025-11-07 18:47:00.889371,10240,2025-11-07 18:47:03.703570692
2025-11-07 18:47:00.889371,4,2025-11-07 18:47:03.711263000
2025-11-07 18:47:00.889371,1069,2025-11-07 18:47:03.718955308
2025-11-07 18:47:00.889371,10240,2025-11-07 18:47:03.726647615
2025-11-07 18:47:00.889371,4,2025-11-07 18:47:03.734339923
2025-11-07 18:47:00.889371,1059,2025-11-07 18:47:03.742032231
2025-11-07 18:47:00.889371,7168,2025-11-07 18:47:03.749724538
2025-11-07 18:47:00.889371,4,2025-11-07 18:47:03.757416846
2025-11-07 18:47:00.889371,1050,2025-11-07 18:47:03.765109154
2025-11-07 18:47:00.889371,9728,2025-11-07 18:47:03.772801462
2025-11-07 18:47:00.889371,4,2025-11-07 18:47:03.780493769
2025-11-07 18:47:00.889371,1071,2025-11-07 18:47:03.788186077
2025-11-07 18:47:00.889371,22016,2025-11-07 18:47:03.795878385
2025-11-07 18:47:00.889371,4,2025-11-07 18:47:03.803570692
2025-11-07 18:47:00.889371,1127,2025-11-07 18:47:03.811263000
2025-11-07 18:47:00.889371,14080,2025-11-07 18:47:03.818955308
2025-11-07 18:47:00.889371,4,2025-11-07 18:47:03.826647615
2025-11-07 18:47:00.889371,1069,2025-11-07 18:47:03.834339923
2025-11-07 18:47:00.889371,14080,2025-11-07 18:47:03.842032230
2025-11-07 18:47:00.889371,4,2025-11-07 18:47:03.849724538
2025-11-07 18:47:00.889371,1045,2025-11-07 18:47:03.857416846
2025-11-07 18:47:00.889371,1536,2025-11-07 18:47:03.865109154
2025-11-07 18:47:00.889371,4,2025-11-07 18:47:03.872801462
2025-11-07 18:47:00.889371,1020,2025-11-07 18:47:03.880493769
2025-11-07 18:47:00.889371,-6400,2025-11-07 18:47:03.888186077
2025-11-07 18:47:00.889371,3,2025-11-07 18:47:03.895878385
2025-11-07 18:47:00.889371,996,2025-11-07 18:47:03.903570692
2025-11-07 18:47:00.889371,-6400,2025-11-07 18:47:03.911263000
2025-11-07 18:47:00.889371,3,2025-11-07 18:47:03.918955308
2025-11-07 18:47:00.889371,1001,2025-11-07 18:47:03.926647615
2025-11-07 18:47:00.889371,-5888,2025-11-07 18:47:03.934339923
2025-11-07 18:47:00.889371,3,2025-11-07 18:47:03.942032231
2025-11-07 18:47:00.889371,996,2025-11-07 18:47:03.949724538
2025-11-07 18:47:00.889371,-7680,2025-11-07 18:47:03.957416846
2025-11-07 18:47:00.889371,3,2025-11-07 18:47:03.965109154
2025-11-07 18:47:00.889371,982,2025-11-07 18:47:03.972801462
2025-11-07 18:47:00.889371,-13312,2025-11-07 18:47:03.980493769
2025-11-07 18:47:00.889371,3,2025-11-07 18:47:03.988186077
2025-11-07 18:47:00.889371,962,2025-11-07 18:47:03.995878385
2025-11-07 18:47:00.889371,-18176,2025-11-07 18:47:04.003570692
2025-11-07 18:47:00.889371,3,2025-11-07 18:47:04.011263000
2025-11-07 18:47:00.889371,943,2025-11-07 18:47:04.018955308
2025-11-07 18:47:00.889371,-25856,2025-11-07 18:47:04.026647615
2025-11-07 18:47:00.889371,3,2025-11-07 18:47:04.034339923
2025-11-07 18:47:00.889371,911,2025-11-07 18:47:04.042032231
2025-11-07 18:47:00.889371,-30208,2025-11-07 18:47:04.049724538
2025-11-07 18:47:00.889371,3,2025-11-07 18:47:04.057416846
2025-11-07 18:47:00.889371,899,2025-11-07 18:47:04.065109154
2025-11-07 18:47:00.889371,-32000,2025-11-07 18:47:04.072801462
2025-11-07 18:47:00.889371,3,2025-11-07 18:47:04.080493769
2025-11-07 18:47:00.889371,882,2025-11-07 18:47:04.088186077
2025-11-07 18:47:00.889371,25600,2025-11-07 18:47:04.095878385
2025-11-07 18:47:00.889371,3,2025-11-07 18:47:04.103570692
2025-11-07 18:47:00.889371,870,2025-11-07 18:47:04.111263000
2025-11-07 18:47:00.889371,25600,2025-11-07 18:47:04.118955308
2025-11-07 18:47:00.889371,3,2025-11-07 18:47:04.126647615
2025-11-07 18:47:00.889371,865,2025-11-07 18:47:04.134339923
2025-11-07 18:47:00.889371,23552,2025-11-07 18:47:04.142032231
2025-11-07 18:47:00.889371,3,2025-11-07 18:47:04.149724538
2025-11-07 18:47:00.889371,841,2025-11-07 18:47:04.157416846
2025-11-07 18:47:00.889371,15616,2025-11-07 18:47:04.165109154
2025-11-07 18:47:00.889371,3,2025-11-07 18:47:04.172801462
2025-11-07 18:47:00.889371,819,2025-11-07 18:47:04.180493769
2025-11-07 18:47:00.889371,11264,2025-11-07 18:47:04.188186077
2025-11-07 18:47:00.889371,3,2025-11-07 18:47:04.195878385
2025-11-07 18:47:00.889371,797,2025-11-07 18:47:04.203570692
2025-11-07 18:47:00.889371,1280,2025-11-07 18:47:04.211263000
2025-11-07 18:47:00.889371,3,2025-11-07 18:47:04.218955308
2025-11-07 18:47:00.889371,768,2025-11-07 18:47:04.226647615
2025-11-07 18:47:00.889371,3072,2025-11-07 18:47:04.234339923
2025-11-07 18:47:00.889371,3,2025-11-07 18:47:04.242032231
2025-11-07 18:47:00.889371,778,2025-11-07 18:47:04.249724538
2025-11-07 18:47:00.889371,-3072,2025-11-07 18:47:04.257416846
2025-11-07 18:47:00.889371,2,2025-11-07 18:47:04.265109154
2025-11-07 18:47:00.889371,734,2025-11-07 18:47:04.272801462
2025-11-07 18:47:00.889371,-10496,2025-11-07 18:47:04.280493769
2025-11-07 18:47:00.889371,2,2025-11-07 18:47:04.288186077
2025-11-07 18:47:00.889371,734,2025-11-07 18:47:04.295878385
2025-11-07 18:47:00.889371,-7936,2025-11-07 18:47:04.303570692
2025-11-07 18:47:00.889371,2,2025-11-07 18:47:04.311263000
2025-11-07 18:47:00.889371,715,2025-11-07 18:47:04.318955308
2025-11-07 18:47:00.889371,-17920,2025-11-07 18:47:04.326647615
2025-11-07 18:47:00.889371,2,2025-11-07 18:47:04.334339923
2025-11-07 18:47:00.889371,693,2025-11-07 18:47:04.342032231
2025-11-07 18:47:00.889371,-24064,2025-11-07 18:47:04.349724538
2025-11-07 18:47:00.889371,2,2025-11-07 18:47:04.357416846
2025-11-07 18:47:00.889371,654,2025-11-07 18:47:04.365109154
2025-11-07 18:47:00.889371,-27904,2025-11-07 18:47:04.372801462
2025-11-07 18:47:00.889371,2,2025-11-07 18:47:04.380493769
2025-11-07 18:47:00.889371,659,2025-11-07 18:47:04.388186077
2025-11-07 18:47:00.889371,-32768,2025-11-07 18:47:04.395878385
2025-11-07 18:47:00.889371,2,2025-11-07 18:47:04.403570692
2025-11-07 18:47:00.889371,613,2025-11-07 18:47:04.411263000
2025-11-07 18:47:00.889371,20992,2025-11-07 18:47:04.418955308
2025-11-07 18:47:00.889371,2,2025-11-07 18:47:04.426647615
2025-11-07 18:47:00.889371,657,2025-11-07 18:47:04.434339923
2025-11-07 18:47:00.889371,-5632,2025-11-07 18:47:04.442032231
2025-11-07 18:47:00.889371,2,2025-11-07 18:47:04.449724538
2025-11-07 18:47:00.889371,759,2025-11-07 18:47:04.457416846
2025-11-07 18:47:00.889371,-13056,2025-11-07 18:47:04.465109154
2025-11-07 18:47:00.889371,2,2025-11-07 18:47:04.472801462
2025-11-07 18:47:00.889371,671,2025-11-07 18:47:04.480493769
2025-11-07 18:47:00.889371,-30464,2025-11-07 18:47:04.488186077
2025-11-07 18:47:00.889371,2,2025-11-07 18:47:04.495878385
2025-11-07 18:47:00.889371,649,2025-11-07 18:47:04.503570692
2025-11-07 18:47:00.889371,-30464,2025-11-07 18:47:04.511263000
2025-11-07 18:47:00.889371,2,2025-11-07 18:47:04.518955308
2025-11-07 18:47:00.889371,637,2025-11-07 18:47:04.526647615
2025-11-07 18:47:01.476652,615,2025-11-07 18:47:04.534339923
2025-11-07 18:47:01.476652,25856,2025-11-07 18:47:04.542032231
2025-11-07 18:47:01.476652,2,2025-11-07 18:47:04.549724538
2025-11-07 18:47:01.476652,618,2025-11-07 18:47:04.557416846
2025-11-07 18:47:01.476652,23296,2025-11-07 18:47:04.565109154
2025-11-07 18:47:01.476652,2,2025-11-07 18:47:04.572801462
2025-11-07 18:47:01.476652,594,2025-11-07 18:47:04.580493769
2025-11-07 18:47:01.476652,22784,2025-11-07 18:47:04.588186077
2025-11-07 18:47:01.476652,2,2025-11-07 18:47:04.595878385
2025-11-07 18:47:01.476652,615,2025-11-07 18:47:04.603570692
2025-11-07 18:47:01.476652,24576,2025-11-07 18:47:04.611263000
2025-11-07 18:47:01.476652,2,2025-11-07 18:47:04.618955308
2025-11-07 18:47:01.476652,577,2025-11-07 18:47:04.626647615
2025-11-07 18:47:01.476652,13568,2025-11-07 18:47:04.634339923
2025-11-07 18:47:01.476652,2,2025-11-07 18:47:04.642032231
2025-11-07 18:47:01.476652,555,2025-11-07 18:47:04.649724538
2025-11-07 18:47:01.476652,9216,2025-11-07 18:47:04.657416846
2025-11-07 18:47:01.476652,2,2025-11-07 18:47:04.665109154
2025-11-07 18:47:01.476652,555,2025-11-07 18:47:04.672801462
2025-11-07 18:47:01.476652,4864,2025-11-07 18:47:04.680493769
2025-11-07 18:47:01.476652,2,2025-11-07 18:47:04.688186077
2025-11-07 18:47:01.476652,489,2025-11-07 18:47:04.695878385
2025-11-07 18:47:01.476652,-6400,2025-11-07 18:47:04.703570692
2025-11-07 18:47:01.476652,1,2025-11-07 18:47:04.711263000
2025-11-07 18:47:01.476652,492,2025-11-07 18:47:04.718955308
2025-11-07 18:47:01.476652,-6912,2025-11-07 18:47:04.726647615
2025-11-07 18:47:01.476652,1,2025-11-07 18:47:04.734339923
2025-11-07 18:47:01.476652,482,2025-11-07 18:47:04.742032231
2025-11-07 18:47:01.476652,-7680,2025-11-07 18:47:04.749724538
2025-11-07 18:47:01.476652,1,2025-11-07 18:47:04.757416846
2025-11-07 18:47:01.476652,482,2025-11-07 18:47:04.765109154
2025-11-07 18:47:01.476652,-6912,2025-11-07 18:47:04.772801462
2025-11-07 18:47:01.476652,1,2025-11-07 18:47:04.780493769
2025-11-07 18:47:01.476652,489,2025-11-07 18:47:04.788186077
2025-11-07 18:47:01.476652,-3328,2025-11-07 18:47:04.795878385
2025-11-07 18:47:01.476652,1,2025-11-07 18:47:04.803570692
2025-11-07 18:47:01.476652,506,2025-11-07 18:47:04.811263000
2025-11-07 18:47:01.476652,-256,2025-11-07 18:47:04.818955308
2025-11-07 18:47:01.476652,1,2025-11-07 18:47:04.826647615
2025-11-07 18:47:01.476652,509,2025-11-07 18:47:04.834339923
2025-11-07 18:47:01.476652,-1536,2025-11-07 18:47:04.842032230
2025-11-07 18:47:01.476652,1,2025-11-07 18:47:04.849724538
2025-11-07 18:47:01.476652,502,2025-11-07 18:47:04.857416846
2025-11-07 18:47:01.476652,-3328,2025-11-07 18:47:04.865109154
2025-11-07 18:47:01.476652,1,2025-11-07 18:47:04.872801462
2025-11-07 18:47:01.476652,502,2025-11-07 18:47:04.880493769
2025-11-07 18:47:01.476652,-3328,2025-11-07 18:47:04.888186077
2025-11-07 18:47:01.476652,1,2025-11-07 18:47:04.895878385
2025-11-07 18:47:01.476652,497,2025-11-07 18:47:04.903570692
2025-11-07 18:47:01.476652,-4608,2025-11-07 18:47:04.911263000
2025-11-07 18:47:01.476652,1,2025-11-07 18:47:04.918955308
2025-11-07 18:47:01.476652,482,2025-11-07 18:47:04.926647615
2025-11-07 18:47:01.476652,-10240,2025-11-07 18:47:04.934339923
2025-11-07 18:47:01.476652,1,2025-11-07 18:47:04.942032231
2025-11-07 18:47:01.476652,468,2025-11-07 18:47:04.949724538
2025-11-07 18:47:01.476652,-13824,2025-11-07 18:47:04.957416846
2025-11-07 18:47:01.476652,1,2025-11-07 18:47:04.965109154
2025-11-07 18:47:01.476652,453,2025-11-07 18:47:04.972801462
2025-11-07 18:47:01.476652,-17664,2025-11-07 18:47:04.980493769
2025-11-07 18:47:01.476652,1,2025-11-07 18:47:04.988186077
2025-11-07 18:47:01.476652,431,2025-11-07 18:47:04.995878385
2025-11-07 18:47:01.476652,-21248,2025-11-07 18:47:05.003570692
2025-11-07 18:47:01.476652,1,2025-11-07 18:47:05.011263000
2025-11-07 18:47:01.476652,421,2025-11-07 18:47:05.018955308
2025-11-07 18:47:01.476652,-24320,2025-11-07 18:47:05.026647615
2025-11-07 18:47:01.476652,1,2025-11-07 18:47:05.034339923
2025-11-07 18:47:01.476652,414,2025-11-07 18:47:05.042032231
2025-11-07 18:47:01.476652,-27648,2025-11-07 18:47:05.049724538
2025-11-07 18:47:01.476652,1,2025-11-07 18:47:05.057416846
2025-11-07 18:47:01.476652,402,2025-11-07 18:47:05.065109154
2025-11-07 18:47:01.476652,-29952,2025-11-07 18:47:05.072801462
2025-11-07 18:47:01.476652,1,2025-11-07 18:47:05.080493769
2025-11-07 18:47:01.476652,378,2025-11-07 18:47:05.088186077
2025-11-07 18:47:01.476652,26880,2025-11-07 18:47:05.095878385
2025-11-07 18:47:01.476652,1,2025-11-07 18:47:05.103570692
2025-11-07 18:47:01.476652,354,2025-11-07 18:47:05.111263000
2025-11-07 18:47:01.476652,26112,2025-11-07 18:47:05.118955308
2025-11-07 18:47:01.476652,1,2025-11-07 18:47:05.126647615
2025-11-07 18:47:01.476652,349,2025-11-07 18:47:05.134339923
2025-11-07 18:47:01.476652,21248,2025-11-07 18:47:05.142032231
2025-11-07 18:47:01.476652,1,2025-11-07 18:47:05.149724538
2025-11-07 18:47:01.476652,341,2025-11-07 18:47:05.157416846
2025-11-07 18:47:01.476652,22528,2025-11-07 18:47:05.165109154
2025-11-07 18:47:01.476652,1,2025-11-07 18:47:05.172801462
2025-11-07 18:47:01.476652,351,2025-11-07 18:47:05.180493769
2025-11-07 18:47:01.476652,25088,2025-11-07 18:47:05.188186077
2025-11-07 18:47:01.476652,1,2025-11-07 18:47:05.195878385
2025-11-07 18:47:01.476652,354,2025-11-07 18:47:05.203570692
2025-11-07 18:47:01.476652,26880,2025-11-07 18:47:05.211263000
2025-11-07 18:47:01.476652,1,2025-11-07 18:47:05.218955308
2025-11-07 18:47:01.476652,356,2025-11-07 18:47:05.226647615
2025-11-07 18:47:01.476652,23808,2025-11-07 18:47:05.234339923
2025-11-07 18:47:01.476652,1,2025-11-07 18:47:05.242032231
2025-11-07 18:47:01.476652,349,2025-11-07 18:47:05.249724538
2025-11-07 18:47:01.476652,23808,2025-11-07 18:47:05.257416846
2025-11-07 18:47:01.476652,1,2025-11-07 18:47:05.265109154
2025-11-07 18:47:01.476652,351,2025-11-07 18:47:05.272801462
2025-11-07 18:47:01.476652,22528,2025-11-07 18:47:05.280493769
2025-11-07 18:47:01.476652,1,2025-11-07 18:47:05.288186077
2025-11-07 18:47:01.476652,337,2025-11-07 18:47:05.295878385
2025-11-07 18:47:01.476652,20736,2025-11-07 18:47:05.303570692
2025-11-07 18:47:01.476652,1,2025-11-07 18:47:05.311263000
2025-11-07 18:47:01.476652,329,2025-11-07 18:47:05.318955308
2025-11-07 18:47:01.476652,16896,2025-11-07 18:47:05.326647615
2025-11-07 18:47:01.476652,1,2025-11-07 18:47:05.334339923
2025-11-07 18:47:01.476652,315,2025-11-07 18:47:05.342032231
2025-11-07 18:47:01.476652,15104,2025-11-07 18:47:05.349724538
2025-11-07 18:47:01.476652,1,2025-11-07 18:47:05.357416846
2025-11-07 18:47:01.476652,310,2025-11-07 18:47:05.365109154
2025-11-07 18:47:01.970966,293,2025-11-07 18:47:05.372801462
2025-11-07 18:47:01.970966,8192,2025-11-07 18:47:05.380493769
2025-11-07 18:47:01.970966,1,2025-11-07 18:47:05.388186077
2025-11-07 18:47:01.970966,293,2025-11-07 18:47:05.395878385
2025-11-07 18:47:01.970966,6400,2025-11-07 18:47:05.403570692
2025-11-07 18:47:01.970966,1,2025-11-07 18:47:05.411263000
2025-11-07 18:47:01.970966,264,2025-11-07 18:47:05.418955308
2025-11-07 18:47:01.970966,-2304,2025-11-07 18:47:05.426647615
2025-11-07 18:47:01.970966,0,2025-11-07 18:47:05.434339923
2025-11-07 18:47:01.970966,240,2025-11-07 18:47:05.442032231
2025-11-07 18:47:01.970966,-3072,2025-11-07 18:47:05.449724538
2025-11-07 18:47:01.970966,0,2025-11-07 18:47:05.457416846
2025-11-07 18:47:01.970966,232,2025-11-07 18:47:05.465109154
2025-11-07 18:47:01.970966,-11776,2025-11-07 18:47:05.472801462
2025-11-07 18:47:01.970966,0,2025-11-07 18:47:05.480493769
2025-11-07 18:47:01.970966,194,2025-11-07 18:47:05.488186077
2025-11-07 18:47:01.970966,-15360,2025-11-07 18:47:05.495878385
2025-11-07 18:47:01.970966,0,2025-11-07 18:47:05.503570692
2025-11-07 18:47:01.970966,252,2025-11-07 18:47:05.511263000
2025-11-07 18:47:01.970966,12032,2025-11-07 18:47:05.518955308
2025-11-07 18:47:01.970966,1,2025-11-07 18:47:05.526647615
2025-11-07 18:47:01.970966,288,2025-11-07 18:47:05.534339923
2025-11-07 18:47:01.970966,768,2025-11-07 18:47:05.542032231
2025-11-07 18:47:01.970966,1,2025-11-07 18:47:05.549724538
2025-11-07 18:47:01.970966,254,2025-11-07 18:47:05.557416846
2025-11-07 18:47:01.970966,-5376,2025-11-07 18:47:05.565109154
2025-11-07 18:47:01.970966,0,2025-11-07 18:47:05.572801462
2025-11-07 18:47:01.970966,223,2025-11-07 18:47:05.580493769
2025-11-07 18:47:01.970966,-2304,2025-11-07 18:47:05.588186077
2025-11-07 18:47:01.970966,0,2025-11-07 18:47:05.595878385
2025-11-07 18:47:01.970966,257,2025-11-07 18:47:05.603570692
2025-11-07 18:47:01.970966,-4096,2025-11-07 18:47:05.611263000
2025-11-07 18:47:01.970966,0,2025-11-07 18:47:05.618955308
2025-11-07 18:47:01.970966,240,2025-11-07 18:47:05.626647615
2025-11-07 18:47:01.970966,-4096,2025-11-07 18:47:05.634339923
2025-11-07 18:47:01.970966,0,2025-11-07 18:47:05.642032231
2025-11-07 18:47:01.970966,230,2025-11-07 18:47:05.649724538
2025-11-07 18:47:01.970966,-7424,2025-11-07 18:47:05.657416846
2025-11-07 18:47:01.970966,0,2025-11-07 18:47:05.665109154
2025-11-07 18:47:01.970966,215,2025-11-07 18:47:05.672801462
2025-11-07 18:47:01.970966,-14848,2025-11-07 18:47:05.680493769
2025-11-07 18:47:01.970966,0,2025-11-07 18:47:05.688186077
2025-11-07 18:47:01.970966,189,2025-11-07 18:47:05.695878385
2025-11-07 18:47:01.970966,-19712,2025-11-07 18:47:05.703570692
2025-11-07 18:47:01.970966,0,2025-11-07 18:47:05.711263000
2025-11-07 18:47:01.970966,177,2025-11-07 18:47:05.718955308
2025-11-07 18:47:01.970966,-22272,2025-11-07 18:47:05.726647615
2025-11-07 18:47:01.970966,0,2025-11-07 18:47:05.734339923
2025-11-07 18:47:01.970966,160,2025-11-07 18:47:05.742032231
2025-11-07 18:47:01.970966,-27136,2025-11-07 18:47:05.749724538
2025-11-07 18:47:01.970966,0,2025-11-07 18:47:05.757416846
2025-11-07 18:47:01.970966,133,2025-11-07 18:47:05.765109154
2025-11-07 18:47:01.970966,31488,2025-11-07 18:47:05.772801462
2025-11-07 18:47:01.970966,0,2025-11-07 18:47:05.780493769
2025-11-07 18:47:01.970966,109,2025-11-07 18:47:05.788186077
2025-11-07 18:47:01.970966,24832,2025-11-07 18:47:05.795878385
2025-11-07 18:47:01.970966,0,2025-11-07 18:47:05.803570692
2025-11-07 18:47:01.970966,99,2025-11-07 18:47:05.811263000
2025-11-07 18:47:01.970966,24832,2025-11-07 18:47:05.818955308
2025-11-07 18:47:01.970966,0,2025-11-07 18:47:05.826647615
2025-11-07 18:47:01.970966,89,2025-11-07 18:47:05.834339923
2025-11-07 18:47:01.970966,22272,2025-11-07 18:47:05.842032230
2025-11-07 18:47:01.970966,0,2025-11-07 18:47:05.849724538
2025-11-07 18:47:01.970966,87,2025-11-07 18:47:05.857416846
2025-11-07 18:47:01.970966,22272,2025-11-07 18:47:05.865109154
2025-11-07 18:47:01.970966,0,2025-11-07 18:47:05.872801462
2025-11-07 18:47:01.970966,75,2025-11-07 18:47:05.880493769
2025-11-07 18:47:01.970966,13568,2025-11-07 18:47:05.888186077
2025-11-07 18:47:01.970966,0,2025-11-07 18:47:05.895878385
2025-11-07 18:47:01.970966,36,2025-11-07 18:47:05.903570692
2025-11-07 18:47:01.970966,4864,2025-11-07 18:47:05.911263000
2025-11-07 18:47:01.970966,0,2025-11-07 18:47:05.918955308
2025-11-07 18:47:01.970966,14,2025-11-07 18:47:05.926647615
2025-11-07 18:47:01.970966,1792,2025-11-07 18:47:05.934339923
2025-11-07 18:47:01.970966,0,2025-11-07 18:47:05.942032231
2025-11-07 18:47:01.970966,-4,2025-11-07 18:47:05.949724538
2025-11-07 18:47:01.970966,-2049,2025-11-07 18:47:05.957416846
2025-11-07 18:47:01.970966,-1,2025-11-07 18:47:05.965109154
2025-11-07 18:47:01.970966,-16,2025-11-07 18:47:05.972801462
2025-11-07 18:47:01.970966,-5121,2025-11-07 18:47:05.980493769
2025-11-07 18:47:01.970966,-1,2025-11-07 18:47:05.988186077
2025-11-07 18:47:01.970966,-24,2025-11-07 18:47:05.995878385
2025-11-07 18:47:01.970966,-5889,2025-11-07 18:47:06.003570692
2025-11-07 18:47:01.970966,-1,2025-11-07 18:47:06.011263000
2025-11-07 18:47:01.970966,-12,2025-11-07 18:47:06.018955308
2025-11-07 18:47:01.970966,-769,2025-11-07 18:47:06.026647615
2025-11-07 18:47:01.970966,-1,2025-11-07 18:47:06.034339923
2025-11-07 18:47:01.970966,9,2025-11-07 18:47:06.042032231
2025-11-07 18:47:01.970966,10496,2025-11-07 18:47:06.049724538
2025-11-07 18:47:01.970966,0,2025-11-07 18:47:06.057416846
2025-11-07 18:47:01.970966,63,2025-11-07 18:47:06.065109154
2025-11-07 18:47:01.970966,19200,2025-11-07 18:47:06.072801462
2025-11-07 18:47:01.970966,0,2025-11-07 18:47:06.080493769
2025-11-07 18:47:01.970966,89,2025-11-07 18:47:06.088186077
2025-11-07 18:47:01.970966,26624,2025-11-07 18:47:06.095878385
2025-11-07 18:47:01.970966,0,2025-11-07 18:47:06.103570692
2025-11-07 18:47:01.970966,106,2025-11-07 18:47:06.111263000
2025-11-07 18:47:01.970966,22784,2025-11-07 18:47:06.118955308
2025-11-07 18:47:01.970966,0,2025-11-07 18:47:06.126647615
2025-11-07 18:47:01.970966,92,2025-11-07 18:47:06.134339923
2025-11-07 18:47:01.970966,25344,2025-11-07 18:47:06.142032231
2025-11-07 18:47:01.970966,0,2025-11-07 18:47:06.149724538
2025-11-07 18:47:01.970966,82,2025-11-07 18:47:06.157416846
2025-11-07 18:47:01.970966,17920,2025-11-07 18:47:06.165109154
2025-11-07 18:47:01.970966,0,2025-11-07 18:47:06.172801462
2025-11-07 18:47:01.970966,63,2025-11-07 18:47:06.180493769
2025-11-07 18:47:01.970966,14848,2025-11-07 18:47:06.188186077
2025-11-07 18:47:01.970966,0,2025-11-07 18:47:06.195878385
2025-11-07 18:47:01.970966,53,2025-11-07 18:47:06.203570692
2025-11-07 18:47:02.556426,48,2025-11-07 18:47:06.211263000
2025-11-07 18:47:02.556426,12288,2025-11-07 18:47:06.218955308
2025-11-07 18:47:02.556426,0,2025-11-07 18:47:06.226647615
2025-11-07 18:47:02.556426,43,2025-11-07 18:47:06.234339923
2025-11-07 18:47:02.556426,10496,2025-11-07 18:47:06.242032231
2025-11-07 18:47:02.556426,0,2025-11-07 18:47:06.249724538
2025-11-07 18:47:02.556426,46,2025-11-07 18:47:06.257416846
2025-11-07 18:47:02.556426,9216,2025-11-07 18:47:06.265109154
2025-11-07 18:47:02.556426,0,2025-11-07 18:47:06.272801462
2025-11-07 18:47:02.556426,36,2025-11-07 18:47:06.280493769
2025-11-07 18:47:02.556426,14080,2025-11-07 18:47:06.288186077
2025-11-07 18:47:02.556426,0,2025-11-07 18:47:06.295878385
2025-11-07 18:47:02.556426,43,2025-11-07 18:47:06.303570692
2025-11-07 18:47:02.556426,512,2025-11-07 18:47:06.311263000
2025-11-07 18:47:02.556426,0,2025-11-07 18:47:06.318955308
2025-11-07 18:47:02.556426,-2,2025-11-07 18:47:06.326647615
2025-11-07 18:47:02.556426,2047,2025-11-07 18:47:06.334339923
2025-11-07 18:47:02.556426,0,2025-11-07 18:47:06.342032231
2025-11-07 18:47:02.556426,-4,2025-11-07 18:47:06.349724538
2025-11-07 18:47:02.556426,-3841,2025-11-07 18:47:06.357416846
2025-11-07 18:47:02.556426,-1,2025-11-07 18:47:06.365109154
2025-11-07 18:47:02.556426,-14,2025-11-07 18:47:06.372801462
2025-11-07 18:47:02.556426,-4609,2025-11-07 18:47:06.380493769
2025-11-07 18:47:02.556426,-1,2025-11-07 18:47:06.388186077
2025-11-07 18:47:02.556426,-24,2025-11-07 18:47:06.395878385
2025-11-07 18:47:02.556426,-3841,2025-11-07 18:47:06.403570692
2025-11-07 18:47:02.556426,-1,2025-11-07 18:47:06.411263000
2025-11-07 18:47:02.556426,-16,2025-11-07 18:47:06.418955308
2025-11-07 18:47:02.556426,-6401,2025-11-07 18:47:06.426647615
2025-11-07 18:47:02.556426,-1,2025-11-07 18:47:06.434339923
2025-11-07 18:47:02.556426,-31,2025-11-07 18:47:06.442032231
2025-11-07 18:47:02.556426,-7681,2025-11-07 18:47:06.449724538
2025-11-07 18:47:02.556426,-1,2025-11-07 18:47:06.457416846
2025-11-07 18:47:02.556426,-31,2025-11-07 18:47:06.465109154
2025-11-07 18:47:02.556426,-10753,2025-11-07 18:47:06.472801462
2025-11-07 18:47:02.556426,-1,2025-11-07 18:47:06.480493769
2025-11-07 18:47:02.556426,-60,2025-11-07 18:47:06.488186077
2025-11-07 18:47:02.556426,-10753,2025-11-07 18:47:06.495878385
2025-11-07 18:47:02.556426,-1,2025-11-07 18:47:06.503570692
2025-11-07 18:47:02.556426,12,2025-11-07 18:47:06.511263000
2025-11-07 18:47:02.556426,17152,2025-11-07 18:47:06.518955308
2025-11-07 18:47:02.556426,0,2025-11-07 18:47:06.526647615
2025-11-07 18:47:02.556426,55,2025-11-07 18:47:06.534339923
2025-11-07 18:47:02.556426,1024,2025-11-07 18:47:06.542032231
2025-11-07 18:47:02.556426,0,2025-11-07 18:47:06.549724538
2025-11-07 18:47:02.556426,-9,2025-11-07 18:47:06.557416846
2025-11-07 18:47:02.556426,-1537,2025-11-07 18:47:06.565109154
2025-11-07 18:47:02.556426,-1,2025-11-07 18:47:06.572801462
2025-11-07 18:47:02.556426,-21,2025-11-07 18:47:06.580493769
2025-11-07 18:47:02.556426,-5889,2025-11-07 18:47:06.588186077
2025-11-07 18:47:02.556426,-1,2025-11-07 18:47:06.595878385
2025-11-07 18:47:02.556426,-16,2025-11-07 18:47:06.603570692
2025-11-07 18:47:02.556426,-2817,2025-11-07 18:47:06.611263000
2025-11-07 18:47:02.556426,-1,2025-11-07 18:47:06.618955308
2025-11-07 18:47:02.556426,-16,2025-11-07 18:47:06.626647615
2025-11-07 18:47:02.556426,-5889,2025-11-07 18:47:06.634339923
2025-11-07 18:47:02.556426,-1,2025-11-07 18:47:06.642032231
2025-11-07 18:47:02.556426,-29,2025-11-07 18:47:06.649724538
2025-11-07 18:47:02.556426,-9473,2025-11-07 18:47:06.657416846
2025-11-07 18:47:02.556426,-1,2025-11-07 18:47:06.665109154
2025-11-07 18:47:02.556426,-46,2025-11-07 18:47:06.672801462
2025-11-07 18:47:02.556426,-12033,2025-11-07 18:47:06.680493769
2025-11-07 18:47:02.556426,-1,2025-11-07 18:47:06.688186077
2025-11-07 18:47:02.556426,-43,2025-11-07 18:47:06.695878385
2025-11-07 18:47:02.556426,-11521,2025-11-07 18:47:06.703570692
2025-11-07 18:47:02.556426,-1,2025-11-07 18:47:06.711263000
2025-11-07 18:47:02.556426,-53,2025-11-07 18:47:06.718955308
2025-11-07 18:47:02.556426,-11521,2025-11-07 18:47:06.726647615
2025-11-07 18:47:02.556426,-1,2025-11-07 18:47:06.734339923
2025-11-07 18:47:02.556426,-36,2025-11-07 18:47:06.742032231
2025-11-07 18:47:02.556426,-9473,2025-11-07 18:47:06.749724538
2025-11-07 18:47:02.556426,-1,2025-11-07 18:47:06.757416846
2025-11-07 18:47:02.556426,-33,2025-11-07 18:47:06.765109154
2025-11-07 18:47:02.556426,-7169,2025-11-07 18:47:06.772801462
2025-11-07 18:47:02.556426,-1,2025-11-07 18:47:06.780493769
2025-11-07 18:47:02.556426,-24,2025-11-07 18:47:06.788186077
2025-11-07 18:47:02.556426,-3841,2025-11-07 18:47:06.795878385
2025-11-07 18:47:02.556426,-1,2025-11-07 18:47:06.803570692
2025-11-07 18:47:02.556426,-9,2025-11-07 18:47:06.811263000
2025-11-07 18:47:02.556426,255,2025-11-07 18:47:06.818955308
2025-11-07 18:47:02.556426,0,2025-11-07 18:47:06.826647615
2025-11-07 18:47:02.556426,12,2025-11-07 18:47:06.834339923
2025-11-07 18:47:02.556426,5376,2025-11-07 18:47:06.842032230
2025-11-07 18:47:02.556426,0,2025-11-07 18:47:06.849724538
2025-11-07 18:47:02.556426,31,2025-11-07 18:47:06.857416846
2025-11-07 18:47:02.556426,7424,2025-11-07 18:47:06.865109154
2025-11-07 18:47:02.556426,0,2025-11-07 18:47:06.872801462
2025-11-07 18:47:02.556426,24,2025-11-07 18:47:06.880493769
2025-11-07 18:47:02.556426,5376,2025-11-07 18:47:06.888186077
2025-11-07 18:47:02.556426,0,2025-11-07 18:47:06.895878385
2025-11-07 18:47:02.556426,19,2025-11-07 18:47:06.903570692
2025-11-07 18:47:02.556426,5376,2025-11-07 18:47:06.911263000
2025-11-07 18:47:02.556426,0,2025-11-07 18:47:06.918955308
2025-11-07 18:47:02.556426,19,2025-11-07 18:47:06.926647615
2025-11-07 18:47:02.556426,3584,2025-11-07 18:47:06.934339923
2025-11-07 18:47:02.556426,0,2025-11-07 18:47:06.942032231
2025-11-07 18:47:02.556426,14,2025-11-07 18:47:06.949724538
2025-11-07 18:47:02.556426,4096,2025-11-07 18:47:06.957416846
2025-11-07 18:47:02.556426,0,2025-11-07 18:47:06.965109154
2025-11-07 18:47:02.556426,21,2025-11-07 18:47:06.972801462
2025-11-07 18:47:02.556426,4096,2025-11-07 18:47:06.980493769
2025-11-07 18:47:02.556426,0,2025-11-07 18:47:06.988186077
2025-11-07 18:47:02.556426,9,2025-11-07 18:47:06.995878385
2025-11-07 18:47:02.556426,3584,2025-11-07 18:47:07.003570692
2025-11-07 18:47:02.556426,0,2025-11-07 18:47:07.011263000
2025-11-07 18:47:02.556426,16,2025-11-07 18:47:07.018955308
2025-11-07 18:47:02.556426,3584,2025-11-07 18:47:07.026647615
2025-11-07 18:47:02.556426,0,2025-11-07 18:47:07.034339923
2025-11-07 18:47:02.556426,12,2025-11-07 18:47:07.042032231
2025-11-07 18:47:03.187963,7,2025-11-07 18:47:07.049724538
2025-11-07 18:47:03.187963,1024,2025-11-07 18:47:07.057416846
2025-11-07 18:47:03.187963,0,2025-11-07 18:47:07.065109154
2025-11-07 18:47:03.187963,4,2025-11-07 18:47:07.072801462
2025-11-07 18:47:03.187963,1024,2025-11-07 18:47:07.080493769
2025-11-07 18:47:03.187963,0,2025-11-07 18:47:07.088186077
2025-11-07 18:47:03.187963,12,2025-11-07 18:47:07.095878385
2025-11-07 18:47:03.187963,3584,2025-11-07 18:47:07.103570692
2025-11-07 18:47:03.187963,0,2025-11-07 18:47:07.111263000
2025-11-07 18:47:03.187963,14,2025-11-07 18:47:07.118955308
2025-11-07 18:47:03.187963,3072,2025-11-07 18:47:07.126647615
2025-11-07 18:47:03.187963,0,2025-11-07 18:47:07.134339923
2025-11-07 18:47:03.187963,12,2025-11-07 18:47:07.142032231
2025-11-07 18:47:03.187963,6144,2025-11-07 18:47:07.149724538
2025-11-07 18:47:03.187963,0,2025-11-07 18:47:07.157416846
2025-11-07 18:47:03.187963,48,2025-11-07 18:47:07.165109154
2025-11-07 18:47:03.187963,13568,2025-11-07 18:47:07.172801462
2025-11-07 18:47:03.187963,0,2025-11-07 18:47:07.180493769
2025-11-07 18:47:03.187963,26,2025-11-07 18:47:07.188186077
2025-11-07 18:47:03.187963,4096,2025-11-07 18:47:07.195878385
2025-11-07 18:47:03.187963,0,2025-11-07 18:47:07.203570692
2025-11-07 18:47:03.187963,31,2025-11-07 18:47:07.211263000
2025-11-07 18:47:03.187963,6144,2025-11-07 18:47:07.218955308
2025-11-07 18:47:03.187963,0,2025-11-07 18:47:07.226647615
2025-11-07 18:47:03.187963,19,2025-11-07 18:47:07.234339923
2025-11-07 18:47:03.187963,7424,2025-11-07 18:47:07.242032231
2025-11-07 18:47:03.187963,0,2025-11-07 18:47:07.249724538
2025-11-07 18:47:03.187963,19,2025-11-07 18:47:07.257416846
2025-11-07 18:47:03.187963,2304,2025-11-07 18:47:07.265109154
2025-11-07 18:47:03.187963,0,2025-11-07 18:47:07.272801462
2025-11-07 18:47:03.187963,19,2025-11-07 18:47:07.280493769
2025-11-07 18:47:03.187963,6144,2025-11-07 18:47:07.288186077
2025-11-07 18:47:03.187963,0,2025-11-07 18:47:07.295878385
2025-11-07 18:47:03.187963,21,2025-11-07 18:47:07.303570692
2025-11-07 18:47:03.187963,6144,2025-11-07 18:47:07.311263000
2025-11-07 18:47:03.187963,0,2025-11-07 18:47:07.318955308
2025-11-07 18:47:03.187963,24,2025-11-07 18:47:07.326647615
2025-11-07 18:47:03.187963,3584,2025-11-07 18:47:07.334339923
2025-11-07 18:47:03.187963,0,2025-11-07 18:47:07.342032231
2025-11-07 18:47:03.187963,9,2025-11-07 18:47:07.349724538
2025-11-07 18:47:03.187963,5376,2025-11-07 18:47:07.357416846
2025-11-07 18:47:03.187963,0,2025-11-07 18:47:07.365109154
2025-11-07 18:47:03.187963,24,2025-11-07 18:47:07.372801462
2025-11-07 18:47:03.187963,4096,2025-11-07 18:47:07.380493769
2025-11-07 18:47:03.187963,0,2025-11-07 18:47:07.388186077
2025-11-07 18:47:03.187963,21,2025-11-07 18:47:07.395878385
2025-11-07 18:47:03.187963,5376,2025-11-07 18:47:07.403570692
2025-11-07 18:47:03.187963,0,2025-11-07 18:47:07.411263000
2025-11-07 18:47:03.187963,19,2025-11-07 18:47:07.418955308
2025-11-07 18:47:03.187963,5376,2025-11-07 18:47:07.426647615
2025-11-07 18:47:03.187963,0,2025-11-07 18:47:07.434339923
2025-11-07 18:47:03.187963,26,2025-11-07 18:47:07.442032231
2025-11-07 18:47:03.187963,7424,2025-11-07 18:47:07.449724538
2025-11-07 18:47:03.187963,0,2025-11-07 18:47:07.457416846
2025-11-07 18:47:03.187963,14,2025-11-07 18:47:07.465109154
2025-11-07 18:47:03.187963,0,2025-11-07 18:47:07.472801462
2025-11-07 18:47:03.187963,0,2025-11-07 18:47:07.480493769
2025-11-07 18:47:03.187963,-9,2025-11-07 18:47:07.488186077
2025-11-07 18:47:03.187963,4351,2025-11-07 18:47:07.495878385
2025-11-07 18:47:03.187963,0,2025-11-07 18:47:07.503570692
2025-11-07 18:47:03.187963,87,2025-11-07 18:47:07.511263000
2025-11-07 18:47:03.187963,32256,2025-11-07 18:47:07.518955308
2025-11-07 18:47:03.187963,0,2025-11-07 18:47:07.526647615
2025-11-07 18:47:03.187963,92,2025-11-07 18:47:07.534339923
2025-11-07 18:47:03.187963,9728,2025-11-07 18:47:07.542032231
2025-11-07 18:47:03.187963,0,2025-11-07 18:47:07.549724538
2025-11-07 18:47:03.187963,24,2025-11-07 18:47:07.557416846
2025-11-07 18:47:03.187963,8448,2025-11-07 18:47:07.565109154
2025-11-07 18:47:03.187963,0,2025-11-07 18:47:07.572801462
2025-11-07 18:47:03.187963,29,2025-11-07 18:47:07.580493769
2025-11-07 18:47:03.187963,7424,2025-11-07 18:47:07.588186077
2025-11-07 18:47:03.187963,0,2025-11-07 18:47:07.595878385
2025-11-07 18:47:03.187963,38,2025-11-07 18:47:07.603570692
2025-11-07 18:47:03.187963,7424,2025-11-07 18:47:07.611263000
2025-11-07 18:47:03.187963,0,2025-11-07 18:47:07.618955308
2025-11-07 18:47:03.187963,14,2025-11-07 18:47:07.626647615
2025-11-07 18:47:03.187963,4096,2025-11-07 18:47:07.634339923
2025-11-07 18:47:03.187963,0,2025-11-07 18:47:07.642032231
2025-11-07 18:47:03.187963,16,2025-11-07 18:47:07.649724538
2025-11-07 18:47:03.187963,3072,2025-11-07 18:47:07.657416846
2025-11-07 18:47:03.187963,0,2025-11-07 18:47:07.665109154
2025-11-07 18:47:03.187963,9,2025-11-07 18:47:07.672801462
2025-11-07 18:47:03.187963,3072,2025-11-07 18:47:07.680493769
2025-11-07 18:47:03.187963,0,2025-11-07 18:47:07.688186077
2025-11-07 18:47:03.187963,19,2025-11-07 18:47:07.695878385
2025-11-07 18:47:03.187963,6144,2025-11-07 18:47:07.703570692
2025-11-07 18:47:03.187963,0,2025-11-07 18:47:07.711263000
2025-11-07 18:47:03.187963,21,2025-11-07 18:47:07.718955308
2025-11-07 18:47:03.187963,5376,2025-11-07 18:47:07.726647615
2025-11-07 18:47:03.187963,0,2025-11-07 18:47:07.734339923
2025-11-07 18:47:03.187963,26,2025-11-07 18:47:07.742032231
2025-11-07 18:47:03.187963,7424,2025-11-07 18:47:07.749724538
2025-11-07 18:47:03.187963,0,2025-11-07 18:47:07.757416846
2025-11-07 18:47:03.187963,29,2025-11-07 18:47:07.765109154
2025-11-07 18:47:03.187963,9728,2025-11-07 18:47:07.772801462
2025-11-07 18:47:03.187963,0,2025-11-07 18:47:07.780493769
2025-11-07 18:47:03.187963,43,2025-11-07 18:47:07.788186077
2025-11-07 18:47:03.187963,10496,2025-11-07 18:47:07.795878385
2025-11-07 18:47:03.187963,0,2025-11-07 18:47:07.803570692
2025-11-07 18:47:03.187963,43,2025-11-07 18:47:07.811263000
2025-11-07 18:47:03.187963,12288,2025-11-07 18:47:07.818955308
2025-11-07 18:47:03.187963,0,2025-11-07 18:47:07.826647615
2025-11-07 18:47:03.187963,50,2025-11-07 18:47:07.834339923
2025-11-07 18:47:03.187963,12800,2025-11-07 18:47:07.842032230
2025-11-07 18:47:03.187963,0,2025-11-07 18:47:07.849724538
2025-11-07 18:47:03.187963,43,2025-11-07 18:47:07.857416846
2025-11-07 18:47:03.187963,11776,2025-11-07 18:47:07.865109154
2025-11-07 18:47:03.187963,0,2025-11-07 18:47:07.872801462
2025-11-07 18:47:03.187963,43,2025-11-07 18:47:07.880493769
2025-11-07 18:47:03.636300,31,2025-11-07 18:47:07.888186077
2025-11-07 18:47:03.636300,7424,2025-11-07 18:47:07.895878385
2025-11-07 18:47:03.636300,0,2025-11-07 18:47:07.903570692
2025-11-07 18:47:03.636300,29,2025-11-07 18:47:07.911263000
2025-11-07 18:47:03.636300,5376,2025-11-07 18:47:07.918955308
2025-11-07 18:47:03.636300,0,2025-11-07 18:47:07.926647615
2025-11-07 18:47:03.636300,21,2025-11-07 18:47:07.934339923
2025-11-07 18:47:03.636300,6144,2025-11-07 18:47:07.942032231
2025-11-07 18:47:03.636300,0,2025-11-07 18:47:07.949724538
2025-11-07 18:47:03.636300,19,2025-11-07 18:47:07.957416846
2025-11-07 18:47:03.636300,4096,2025-11-07 18:47:07.965109154
2025-11-07 18:47:03.636300,0,2025-11-07 18:47:07.972801462
2025-11-07 18:47:03.636300,16,2025-11-07 18:47:07.980493769
2025-11-07 18:47:03.636300,3584,2025-11-07 18:47:07.988186077
2025-11-07 18:47:03.636300,0,2025-11-07 18:47:07.995878385
2025-11-07 18:47:03.636300,9,2025-11-07 18:47:08.003570692
2025-11-07 18:47:03.636300,3584,2025-11-07 18:47:08.011263000
2025-11-07 18:47:03.636300,0,2025-11-07 18:47:08.018955308
2025-11-07 18:47:03.636300,19,2025-11-07 18:47:08.026647615
2025-11-07 18:47:03.636300,3584,2025-11-07 18:47:08.034339923
2025-11-07 18:47:03.636300,0,2025-11-07 18:47:08.042032231
2025-11-07 18:47:03.636300,12,2025-11-07 18:47:08.049724538
2025-11-07 18:47:03.636300,1792,2025-11-07 18:47:08.057416846
2025-11-07 18:47:03.636300,0,2025-11-07 18:47:08.065109154
2025-11-07 18:47:03.636300,7,2025-11-07 18:47:08.072801462
2025-11-07 18:47:03.636300,2304,2025-11-07 18:47:08.080493769
2025-11-07 18:47:03.636300,0,2025-11-07 18:47:08.088186077
2025-11-07 18:47:03.636300,12,2025-11-07 18:47:08.095878385
2025-11-07 18:47:03.636300,8448,2025-11-07 18:47:08.103570692
2025-11-07 18:47:03.636300,0,2025-11-07 18:47:08.111263000
2025-11-07 18:47:03.636300,41,2025-11-07 18:47:08.118955308
2025-11-07 18:47:03.636300,3584,2025-11-07 18:47:08.126647615
2025-11-07 18:47:03.636300,0,2025-11-07 18:47:08.134339923
2025-11-07 18:47:03.636300,9,2025-11-07 18:47:08.142032231
2025-11-07 18:47:03.636300,4864,2025-11-07 18:47:08.149724538
2025-11-07 18:47:03.636300,0,2025-11-07 18:47:08.157416846
2025-11-07 18:47:03.636300,14,2025-11-07 18:47:08.165109154
2025-11-07 18:47:03.636300,3584,2025-11-07 18:47:08.172801462
2025-11-07 18:47:03.636300,0,2025-11-07 18:47:08.180493769
2025-11-07 18:47:03.636300,19,2025-11-07 18:47:08.188186077
2025-11-07 18:47:03.636300,4096,2025-11-07 18:47:08.195878385
2025-11-07 18:47:03.636300,0,2025-11-07 18:47:08.203570692
2025-11-07 18:47:03.636300,12,2025-11-07 18:47:08.211263000
2025-11-07 18:47:03.636300,3072,2025-11-07 18:47:08.218955308
2025-11-07 18:47:03.636300,0,2025-11-07 18:47:08.226647615
2025-11-07 18:47:03.636300,14,2025-11-07 18:47:08.234339923
2025-11-07 18:47:03.636300,3072,2025-11-07 18:47:08.242032231
2025-11-07 18:47:03.636300,0,2025-11-07 18:47:08.249724538
2025-11-07 18:47:03.636300,9,2025-11-07 18:47:08.257416846
2025-11-07 18:47:03.636300,2304,2025-11-07 18:47:08.265109154
2025-11-07 18:47:03.636300,0,2025-11-07 18:47:08.272801462
2025-11-07 18:47:03.636300,7,2025-11-07 18:47:08.280493769
2025-11-07 18:47:03.636300,1792,2025-11-07 18:47:08.288186077
2025-11-07 18:47:03.636300,0,2025-11-07 18:47:08.295878385
2025-11-07 18:47:03.636300,2,2025-11-07 18:47:08.303570692
2025-11-07 18:47:03.636300,1024,2025-11-07 18:47:08.311263000
2025-11-07 18:47:03.636300,0,2025-11-07 18:47:08.318955308
2025-11-07 18:47:03.636300,7,2025-11-07 18:47:08.326647615
2025-11-07 18:47:03.636300,2304,2025-11-07 18:47:08.334339923
2025-11-07 18:47:03.636300,0,2025-11-07 18:47:08.342032231
2025-11-07 18:47:03.636300,19,2025-11-07 18:47:08.349724538
2025-11-07 18:47:03.636300,7936,2025-11-07 18:47:08.357416846
2025-11-07 18:47:03.636300,0,2025-11-07 18:47:08.365109154
2025-11-07 18:47:03.636300,21,2025-11-07 18:47:08.372801462
2025-11-07 18:47:03.636300,2304,2025-11-07 18:47:08.380493769
2025-11-07 18:47:03.636300,0,2025-11-07 18:47:08.388186077
2025-11-07 18:47:03.636300,7,2025-11-07 18:47:08.395878385
2025-11-07 18:47:03.636300,3584,2025-11-07 18:47:08.403570692
2025-11-07 18:47:03.636300,0,2025-11-07 18:47:08.411263000
2025-11-07 18:47:03.636300,14,2025-11-07 18:47:08.418955308
2025-11-07 18:47:03.636300,3072,2025-11-07 18:47:08.426647615
2025-11-07 18:47:03.636300,0,2025-11-07 18:47:08.434339923
2025-11-07 18:47:03.636300,16,2025-11-07 18:47:08.442032231
2025-11-07 18:47:03.636300,3584,2025-11-07 18:47:08.449724538
2025-11-07 18:47:03.636300,0,2025-11-07 18:47:08.457416846
2025-11-07 18:47:03.636300,9,2025-11-07 18:47:08.465109154
2025-11-07 18:47:03.636300,3072,2025-11-07 18:47:08.472801462
2025-11-07 18:47:03.636300,0,2025-11-07 18:47:08.480493769
2025-11-07 18:47:03.636300,16,2025-11-07 18:47:08.488186077
2025-11-07 18:47:03.636300,4096,2025-11-07 18:47:08.495878385
2025-11-07 18:47:03.636300,0,2025-11-07 18:47:08.503570692
2025-11-07 18:47:03.636300,2,2025-11-07 18:47:08.511263000
2025-11-07 18:47:03.636300,-3584,2025-11-07 18:47:08.518955308
2025-11-07 18:47:03.636300,-1,2025-11-07 18:47:08.526647615
2025-11-07 18:47:03.636300,-4,2025-11-07 18:47:08.534339923
2025-11-07 18:47:03.636300,13823,2025-11-07 18:47:08.542032231
2025-11-07 18:47:03.636300,0,2025-11-07 18:47:08.549724538
2025-11-07 18:47:03.636300,121,2025-11-07 18:47:08.557416846
2025-11-07 18:47:03.636300,28928,2025-11-07 18:47:08.565109154
2025-11-07 18:47:03.636300,0,2025-11-07 18:47:08.572801462
2025-11-07 18:47:03.636300,55,2025-11-07 18:47:08.580493769
2025-11-07 18:47:03.636300,6656,2025-11-07 18:47:08.588186077
2025-11-07 18:47:03.636300,0,2025-11-07 18:47:08.595878385
2025-11-07 18:47:03.636300,26,2025-11-07 18:47:08.603570692
2025-11-07 18:47:03.636300,5376,2025-11-07 18:47:08.611263000
2025-11-07 18:47:03.636300,0,2025-11-07 18:47:08.618955308
2025-11-07 18:47:03.636300,14,2025-11-07 18:47:08.626647615
2025-11-07 18:47:03.636300,4096,2025-11-07 18:47:08.634339923
2025-11-07 18:47:03.636300,0,2025-11-07 18:47:08.642032231
2025-11-07 18:47:03.636300,12,2025-11-07 18:47:08.649724538
2025-11-07 18:47:03.636300,512,2025-11-07 18:47:08.657416846
2025-11-07 18:47:03.636300,0,2025-11-07 18:47:08.665109154
2025-11-07 18:47:03.636300,2,2025-11-07 18:47:08.672801462
2025-11-07 18:47:03.636300,1792,2025-11-07 18:47:08.680493769
2025-11-07 18:47:03.636300,0,2025-11-07 18:47:08.688186077
2025-11-07 18:47:03.636300,7,2025-11-07 18:47:08.695878385
2025-11-07 18:47:03.636300,2304,2025-11-07 18:47:08.703570692
2025-11-07 18:47:03.636300,0,2025-11-07 18:47:08.711263000
2025-11-07 18:47:03.636300,9,2025-11-07 18:47:08.718955308
2025-11-07 18:47:04.309264,7,2025-11-07 18:47:08.726647615
2025-11-07 18:47:04.309264,3072,2025-11-07 18:47:08.734339923
2025-11-07 18:47:04.309264,0,2025-11-07 18:47:08.742032231
2025-11-07 18:47:04.309264,14,2025-11-07 18:47:08.749724538
2025-11-07 18:47:04.309264,4864,2025-11-07 18:47:08.757416846
2025-11-07 18:47:04.309264,0,2025-11-07 18:47:08.765109154
2025-11-07 18:47:04.309264,33,2025-11-07 18:47:08.772801462
2025-11-07 18:47:04.309264,12800,2025-11-07 18:47:08.780493769
2025-11-07 18:47:04.309264,0,2025-11-07 18:47:08.788186077
2025-11-07 18:47:04.309264,41,2025-11-07 18:47:08.795878385
2025-11-07 18:47:04.309264,5376,2025-11-07 18:47:08.803570692
2025-11-07 18:47:04.309264,0,2025-11-07 18:47:08.811263000
2025-11-07 18:47:04.309264,31,2025-11-07 18:47:08.818955308
2025-11-07 18:47:04.309264,11776,2025-11-07 18:47:08.826647615
2025-11-07 18:47:04.309264,0,2025-11-07 18:47:08.834339923
2025-11-07 18:47:04.309264,43,2025-11-07 18:47:08.842032230
2025-11-07 18:47:04.309264,11776,2025-11-07 18:47:08.849724538
2025-11-07 18:47:04.309264,0,2025-11-07 18:47:08.857416846
2025-11-07 18:47:04.309264,46,2025-11-07 18:47:08.865109154
2025-11-07 18:47:04.309264,11008,2025-11-07 18:47:08.872801462
2025-11-07 18:47:04.309264,0,2025-11-07 18:47:08.880493769
2025-11-07 18:47:04.309264,46,2025-11-07 18:47:08.888186077
2025-11-07 18:47:04.309264,12288,2025-11-07 18:47:08.895878385
2025-11-07 18:47:04.309264,0,2025-11-07 18:47:08.903570692
2025-11-07 18:47:04.309264,48,2025-11-07 18:47:08.911263000
2025-11-07 18:47:04.309264,11008,2025-11-07 18:47:08.918955308
2025-11-07 18:47:04.309264,0,2025-11-07 18:47:08.926647615
2025-11-07 18:47:04.309264,36,2025-11-07 18:47:08.934339923
2025-11-07 18:47:04.309264,8448,2025-11-07 18:47:08.942032231
2025-11-07 18:47:04.309264,0,2025-11-07 18:47:08.949724538
2025-11-07 18:47:04.309264,26,2025-11-07 18:47:08.957416846
2025-11-07 18:47:04.309264,6144,2025-11-07 18:47:08.965109154
2025-11-07 18:47:04.309264,0,2025-11-07 18:47:08.972801462
2025-11-07 18:47:04.309264,26,2025-11-07 18:47:08.980493769
2025-11-07 18:47:04.309264,5376,2025-11-07 18:47:08.988186077
2025-11-07 18:47:04.309264,0,2025-11-07 18:47:08.995878385
2025-11-07 18:47:04.309264,19,2025-11-07 18:47:09.003570692
2025-11-07 18:47:04.309264,5376,2025-11-07 18:47:09.011263000
2025-11-07 18:47:04.309264,0,2025-11-07 18:47:09.018955308
2025-11-07 18:47:04.309264,21,2025-11-07 18:47:09.026647615
2025-11-07 18:47:04.309264,7424,2025-11-07 18:47:09.034339923
2025-11-07 18:47:04.309264,0,2025-11-07 18:47:09.042032231
2025-11-07 18:47:04.309264,31,2025-11-07 18:47:09.049724538
2025-11-07 18:47:04.309264,6656,2025-11-07 18:47:09.057416846
2025-11-07 18:47:04.309264,0,2025-11-07 18:47:09.065109154
2025-11-07 18:47:04.309264,24,2025-11-07 18:47:09.072801462
2025-11-07 18:47:04.309264,7424,2025-11-07 18:47:09.080493769
2025-11-07 18:47:04.309264,0,2025-11-07 18:47:09.088186077
2025-11-07 18:47:04.309264,24,2025-11-07 18:47:09.095878385
2025-11-07 18:47:04.309264,4096,2025-11-07 18:47:09.103570692
2025-11-07 18:47:04.309264,0,2025-11-07 18:47:09.111263000
2025-11-07 18:47:04.309264,31,2025-11-07 18:47:09.118955308
2025-11-07 18:47:04.309264,9216,2025-11-07 18:47:09.126647615
2025-11-07 18:47:04.309264,0,2025-11-07 18:47:09.134339923
2025-11-07 18:47:04.309264,19,2025-11-07 18:47:09.142032231
2025-11-07 18:47:04.309264,4096,2025-11-07 18:47:09.149724538
2025-11-07 18:47:04.309264,0,2025-11-07 18:47:09.157416846
2025-11-07 18:47:04.309264,29,2025-11-07 18:47:09.165109154
2025-11-07 18:47:04.309264,7424,2025-11-07 18:47:09.172801462
2025-11-07 18:47:04.309264,0,2025-11-07 18:47:09.180493769
2025-11-07 18:47:04.309264,26,2025-11-07 18:47:09.188186077
2025-11-07 18:47:04.309264,5376,2025-11-07 18:47:09.195878385
2025-11-07 18:47:04.309264,0,2025-11-07 18:47:09.203570692
2025-11-07 18:47:04.309264,21,2025-11-07 18:47:09.211263000
2025-11-07 18:47:04.309264,6144,2025-11-07 18:47:09.218955308
2025-11-07 18:47:04.309264,0,2025-11-07 18:47:09.226647615
2025-11-07 18:47:04.309264,24,2025-11-07 18:47:09.234339923
2025-11-07 18:47:04.309264,6144,2025-11-07 18:47:09.242032231
2025-11-07 18:47:04.309264,0,2025-11-07 18:47:09.249724538
2025-11-07 18:47:04.309264,26,2025-11-07 18:47:09.257416846
2025-11-07 18:47:04.309264,5376,2025-11-07 18:47:09.265109154
2025-11-07 18:47:04.309264,0,2025-11-07 18:47:09.272801462
2025-11-07 18:47:04.309264,21,2025-11-07 18:47:09.280493769
2025-11-07 18:47:04.309264,4864,2025-11-07 18:47:09.288186077
2025-11-07 18:47:04.309264,0,2025-11-07 18:47:09.295878385
2025-11-07 18:47:04.309264,16,2025-11-07 18:47:09.303570692
2025-11-07 18:47:04.309264,5376,2025-11-07 18:47:09.311263000
2025-11-07 18:47:04.309264,0,2025-11-07 18:47:09.318955308
2025-11-07 18:47:04.309264,21,2025-11-07 18:47:09.326647615
2025-11-07 18:47:04.309264,4864,2025-11-07 18:47:09.334339923
2025-11-07 18:47:04.309264,0,2025-11-07 18:47:09.342032231
2025-11-07 18:47:04.309264,16,2025-11-07 18:47:09.349724538
2025-11-07 18:47:04.309264,4096,2025-11-07 18:47:09.357416846
2025-11-07 18:47:04.309264,0,2025-11-07 18:47:09.365109154
2025-11-07 18:47:04.309264,16,2025-11-07 18:47:09.372801462
2025-11-07 18:47:04.309264,4096,2025-11-07 18:47:09.380493769
2025-11-07 18:47:04.309264,0,2025-11-07 18:47:09.388186077
2025-11-07 18:47:04.309264,14,2025-11-07 18:47:09.395878385
2025-11-07 18:47:04.309264,512,2025-11-07 18:47:09.403570692
2025-11-07 18:47:04.309264,0,2025-11-07 18:47:09.411263000
2025-11-07 18:47:04.309264,4,2025-11-07 18:47:09.418955308
2025-11-07 18:47:04.309264,4096,2025-11-07 18:47:09.426647615
2025-11-07 18:47:04.309264,0,2025-11-07 18:47:09.434339923
2025-11-07 18:47:04.309264,19,2025-11-07 18:47:09.442032231
2025-11-07 18:47:04.309264,6656,2025-11-07 18:47:09.449724538
2025-11-07 18:47:04.309264,0,2025-11-07 18:47:09.457416846
2025-11-07 18:47:04.309264,26,2025-11-07 18:47:09.465109154
2025-11-07 18:47:04.309264,3584,2025-11-07 18:47:09.472801462
2025-11-07 18:47:04.309264,0,2025-11-07 18:47:09.480493769
2025-11-07 18:47:04.309264,12,2025-11-07 18:47:09.488186077
2025-11-07 18:47:04.309264,4096,2025-11-07 18:47:09.495878385
2025-11-07 18:47:04.309264,0,2025-11-07 18:47:09.503570692
2025-11-07 18:47:04.309264,21,2025-11-07 18:47:09.511263000
2025-11-07 18:47:04.309264,6656,2025-11-07 18:47:09.518955308
2025-11-07 18:47:04.309264,0,2025-11-07 18:47:09.526647615
2025-11-07 18:47:04.309264,24,2025-11-07 18:47:09.534339923
2025-11-07 18:47:04.309264,4864,2025-11-07 18:47:09.542032231
2025-11-07 18:47:04.309264,0,2025-11-07 18:47:09.549724538
2025-11-07 18:47:04.309264,16,2025-11-07 18:47:09.557416846
2025-11-07 18:47:04.806343,19,2025-11-07 18:47:09.565109154
2025-11-07 18:47:04.806343,4864,2025-11-07 18:47:09.572801462
2025-11-07 18:47:04.806343,0,2025-11-07 18:47:09.580493769
2025-11-07 18:47:04.806343,21,2025-11-07 18:47:09.588186077
2025-11-07 18:47:04.806343,5376,2025-11-07 18:47:09.595878385
2025-11-07 18:47:04.806343,0,2025-11-07 18:47:09.603570692
2025-11-07 18:47:04.806343,7,2025-11-07 18:47:09.611263000
2025-11-07 18:47:04.806343,-3072,2025-11-07 18:47:09.618955308
2025-11-07 18:47:04.806343,-1,2025-11-07 18:47:09.626647615
2025-11-07 18:47:04.806343,-9,2025-11-07 18:47:09.634339923
2025-11-07 18:47:04.806343,12031,2025-11-07 18:47:09.642032231
2025-11-07 18:47:04.806343,0,2025-11-07 18:47:09.649724538
2025-11-07 18:47:04.806343,128,2025-11-07 18:47:09.657416846
2025-11-07 18:47:04.806343,-31488,2025-11-07 18:47:09.665109154
2025-11-07 18:47:04.806343,0,2025-11-07 18:47:09.672801462
2025-11-07 18:47:04.806343,70,2025-11-07 18:47:09.680493769
2025-11-07 18:47:04.806343,9728,2025-11-07 18:47:09.688186077
2025-11-07 18:47:04.806343,0,2025-11-07 18:47:09.695878385
2025-11-07 18:47:04.806343,38,2025-11-07 18:47:09.703570692
2025-11-07 18:47:04.806343,7936,2025-11-07 18:47:09.711263000
2025-11-07 18:47:04.806343,0,2025-11-07 18:47:09.718955308
2025-11-07 18:47:04.806343,29,2025-11-07 18:47:09.726647615
2025-11-07 18:47:04.806343,6144,2025-11-07 18:47:09.734339923
2025-11-07 18:47:04.806343,0,2025-11-07 18:47:09.742032231
2025-11-07 18:47:04.806343,12,2025-11-07 18:47:09.749724538
2025-11-07 18:47:04.806343,1024,2025-11-07 18:47:09.757416846
2025-11-07 18:47:04.806343,0,2025-11-07 18:47:09.765109154
2025-11-07 18:47:04.806343,7,2025-11-07 18:47:09.772801462
2025-11-07 18:47:04.806343,6144,2025-11-07 18:47:09.780493769
2025-11-07 18:47:04.806343,0,2025-11-07 18:47:09.788186077
2025-11-07 18:47:04.806343,33,2025-11-07 18:47:09.795878385
2025-11-07 18:47:04.806343,5376,2025-11-07 18:47:09.803570692
2025-11-07 18:47:04.806343,0,2025-11-07 18:47:09.811263000
2025-11-07 18:47:04.806343,14,2025-11-07 18:47:09.818955308
2025-11-07 18:47:04.806343,4864,2025-11-07 18:47:09.826647615
2025-11-07 18:47:04.806343,0,2025-11-07 18:47:09.834339923
2025-11-07 18:47:04.806343,19,2025-11-07 18:47:09.842032230
2025-11-07 18:47:04.806343,5376,2025-11-07 18:47:09.849724538
2025-11-07 18:47:04.806343,0,2025-11-07 18:47:09.857416846
2025-11-07 18:47:04.806343,33,2025-11-07 18:47:09.865109154
2025-11-07 18:47:04.806343,10496,2025-11-07 18:47:09.872801462
2025-11-07 18:47:04.806343,0,2025-11-07 18:47:09.880493769
2025-11-07 18:47:04.806343,36,2025-11-07 18:47:09.888186077
2025-11-07 18:47:04.806343,7936,2025-11-07 18:47:09.895878385
2025-11-07 18:47:04.806343,0,2025-11-07 18:47:09.903570692
2025-11-07 18:47:04.806343,33,2025-11-07 18:47:09.911263000
2025-11-07 18:47:04.806343,10496,2025-11-07 18:47:09.918955308
2025-11-07 18:47:04.806343,0,2025-11-07 18:47:09.926647615
2025-11-07 18:47:04.806343,46,2025-11-07 18:47:09.934339923
2025-11-07 18:47:04.806343,10496,2025-11-07 18:47:09.942032231
2025-11-07 18:47:04.806343,0,2025-11-07 18:47:09.949724538
2025-11-07 18:47:04.806343,46,2025-11-07 18:47:09.957416846
2025-11-07 18:47:04.806343,12800,2025-11-07 18:47:09.965109154
2025-11-07 18:47:04.806343,0,2025-11-07 18:47:09.972801462
2025-11-07 18:47:04.806343,53,2025-11-07 18:47:09.980493769
2025-11-07 18:47:04.806343,14848,2025-11-07 18:47:09.988186077
2025-11-07 18:47:04.806343,0,2025-11-07 18:47:09.995878385
2025-11-07 18:47:04.806343,58,2025-11-07 18:47:10.003570692
2025-11-07 18:47:04.806343,13568,2025-11-07 18:47:10.011263000
2025-11-07 18:47:04.806343,0,2025-11-07 18:47:10.018955308
2025-11-07 18:47:04.806343,50,2025-11-07 18:47:10.026647615
2025-11-07 18:47:04.806343,12288,2025-11-07 18:47:10.034339923
2025-11-07 18:47:04.806343,0,2025-11-07 18:47:10.042032231
2025-11-07 18:47:04.806343,41,2025-11-07 18:47:10.049724538
2025-11-07 18:47:04.806343,9728,2025-11-07 18:47:10.057416846
2025-11-07 18:47:04.806343,0,2025-11-07 18:47:10.065109154
2025-11-07 18:47:04.806343,33,2025-11-07 18:47:10.072801462
2025-11-07 18:47:04.806343,7424,2025-11-07 18:47:10.080493769
2025-11-07 18:47:04.806343,0,2025-11-07 18:47:10.088186077
2025-11-07 18:47:04.806343,26,2025-11-07 18:47:10.095878385
2025-11-07 18:47:04.806343,8448,2025-11-07 18:47:10.103570692
2025-11-07 18:47:04.806343,0,2025-11-07 18:47:10.111263000
2025-11-07 18:47:04.806343,36,2025-11-07 18:47:10.118955308
2025-11-07 18:47:04.806343,7936,2025-11-07 18:47:10.126647615
2025-11-07 18:47:04.806343,0,2025-11-07 18:47:10.134339923
2025-11-07 18:47:04.806343,33,2025-11-07 18:47:10.142032231
2025-11-07 18:47:04.806343,7936,2025-11-07 18:47:10.149724538
2025-11-07 18:47:04.806343,0,2025-11-07 18:47:10.157416846
2025-11-07 18:47:04.806343,24,2025-11-07 18:47:10.165109154
2025-11-07 18:47:04.806343,6656,2025-11-07 18:47:10.172801462
2025-11-07 18:47:04.806343,0,2025-11-07 18:47:10.180493769
2025-11-07 18:47:04.806343,31,2025-11-07 18:47:10.188186077
2025-11-07 18:47:04.806343,7936,2025-11-07 18:47:10.195878385
2025-11-07 18:47:04.806343,0,2025-11-07 18:47:10.203570692
2025-11-07 18:47:04.806343,24,2025-11-07 18:47:10.211263000
2025-11-07 18:47:04.806343,6144,2025-11-07 18:47:10.218955308
2025-11-07 18:47:04.806343,0,2025-11-07 18:47:10.226647615
2025-11-07 18:47:04.806343,29,2025-11-07 18:47:10.234339923
2025-11-07 18:47:04.806343,6144,2025-11-07 18:47:10.242032231
2025-11-07 18:47:04.806343,0,2025-11-07 18:47:10.249724538
2025-11-07 18:47:04.806343,26,2025-11-07 18:47:10.257416846
2025-11-07 18:47:04.806343,7424,2025-11-07 18:47:10.265109154
2025-11-07 18:47:04.806343,0,2025-11-07 18:47:10.272801462
2025-11-07 18:47:04.806343,21,2025-11-07 18:47:10.280493769
2025-11-07 18:47:04.806343,5376,2025-11-07 18:47:10.288186077
2025-11-07 18:47:04.806343,0,2025-11-07 18:47:10.295878385
2025-11-07 18:47:04.806343,26,2025-11-07 18:47:10.303570692
2025-11-07 18:47:04.806343,6144,2025-11-07 18:47:10.311263000
2025-11-07 18:47:04.806343,0,2025-11-07 18:47:10.318955308
2025-11-07 18:47:04.806343,26,2025-11-07 18:47:10.326647615
2025-11-07 18:47:04.806343,7424,2025-11-07 18:47:10.334339923
2025-11-07 18:47:04.806343,0,2025-11-07 18:47:10.342032231
2025-11-07 18:47:04.806343,26,2025-11-07 18:47:10.349724538
2025-11-07 18:47:04.806343,6144,2025-11-07 18:47:10.357416846
2025-11-07 18:47:04.806343,0,2025-11-07 18:47:10.365109154
2025-11-07 18:47:04.806343,21,2025-11-07 18:47:10.372801462
2025-11-07 18:47:04.806343,6144,2025-11-07 18:47:10.380493769
2025-11-07 18:47:04.806343,0,2025-11-07 18:47:10.388186077
2025-11-07 18:47:04.806343,24,2025-11-07 18:47:10.395878385
2025-11-07 18:47:05.386999,21,2025-11-07 18:47:10.403570692
2025-11-07 18:47:05.386999,5376,2025-11-07 18:47:10.411263000
2025-11-07 18:47:05.386999,0,2025-11-07 18:47:10.418955308
