timestamp,ecg,reconstructed_time
2025-11-07 12:47:05.626749,-231,2025-11-07 12:47:05.626749000
2025-11-07 12:47:05.626749,11007,2025-11-07 12:47:05.634441308
2025-11-07 12:47:05.626749,-1,2025-11-07 12:47:05.642133615
2025-11-07 12:47:05.626749,-217,2025-11-07 12:47:05.649825923
2025-11-07 12:47:05.626749,6655,2025-11-07 12:47:05.657518231
2025-11-07 12:47:05.626749,-1,2025-11-07 12:47:05.665210538
2025-11-07 12:47:05.626749,-236,2025-11-07 12:47:05.672902846
2025-11-07 12:47:05.626749,7167,2025-11-07 12:47:05.680595154
2025-11-07 12:47:05.626749,-1,2025-11-07 12:47:05.688287462
2025-11-07 12:47:05.626749,-231,2025-11-07 12:47:05.695979769
2025-11-07 12:47:05.626749,4095,2025-11-07 12:47:05.703672077
2025-11-07 12:47:05.626749,-1,2025-11-07 12:47:05.711364385
2025-11-07 12:47:05.626749,-250,2025-11-07 12:47:05.719056692
2025-11-07 12:47:05.626749,2815,2025-11-07 12:47:05.726749000
2025-11-07 12:47:05.626749,-1,2025-11-07 12:47:05.734441308
2025-11-07 12:47:05.626749,-248,2025-11-07 12:47:05.742133615
2025-11-07 12:47:05.626749,-3329,2025-11-07 12:47:05.749825923
2025-11-07 12:47:05.626749,-2,2025-11-07 12:47:05.757518231
2025-11-07 12:47:05.626749,-320,2025-11-07 12:47:05.765210538
2025-11-07 12:47:05.626749,21503,2025-11-07 12:47:05.772902846
2025-11-07 12:47:05.626749,-2,2025-11-07 12:47:05.780595154
2025-11-07 12:47:05.626749,-480,2025-11-07 12:47:05.788287462
2025-11-07 12:47:05.626749,17663,2025-11-07 12:47:05.795979769
2025-11-07 12:47:05.626749,-1,2025-11-07 12:47:05.803672077
2025-11-07 12:47:05.626749,390,2025-11-07 12:47:05.811364385
2025-11-07 12:47:05.626749,-31232,2025-11-07 12:47:05.819056692
2025-11-07 12:47:05.626749,2,2025-11-07 12:47:05.826749000
2025-11-07 12:47:05.626749,147,2025-11-07 12:47:05.834441308
2025-11-07 12:47:05.626749,2048,2025-11-07 12:47:05.842133615
2025-11-07 12:47:05.626749,-2,2025-11-07 12:47:05.849825923
2025-11-07 12:47:05.626749,-564,2025-11-07 12:47:05.857518231
2025-11-07 12:47:05.626749,-19201,2025-11-07 12:47:05.865210538
2025-11-07 12:47:05.626749,-2,2025-11-07 12:47:05.872902846
2025-11-07 12:47:05.626749,-291,2025-11-07 12:47:05.880595154
2025-11-07 12:47:05.626749,-15105,2025-11-07 12:47:05.888287462
2025-11-07 12:47:05.626749,-2,2025-11-07 12:47:05.895979769
2025-11-07 12:47:05.626749,-287,2025-11-07 12:47:05.903672077
2025-11-07 12:47:05.626749,-6401,2025-11-07 12:47:05.911364385
2025-11-07 12:47:05.626749,-2,2025-11-07 12:47:05.919056692
2025-11-07 12:47:05.626749,-294,2025-11-07 12:47:05.926749000
2025-11-07 12:47:05.626749,-7681,2025-11-07 12:47:05.934441308
2025-11-07 12:47:05.626749,-2,2025-11-07 12:47:05.942133615
2025-11-07 12:47:05.626749,-272,2025-11-07 12:47:05.949825923
2025-11-07 12:47:05.626749,-2049,2025-11-07 12:47:05.957518231
2025-11-07 12:47:05.626749,-2,2025-11-07 12:47:05.965210538
2025-11-07 12:47:05.626749,-263,2025-11-07 12:47:05.972902846
2025-11-07 12:47:05.626749,511,2025-11-07 12:47:05.980595154
2025-11-07 12:47:05.626749,-1,2025-11-07 12:47:05.988287462
2025-11-07 12:47:05.626749,-246,2025-11-07 12:47:05.995979769
2025-11-07 12:47:05.626749,4863,2025-11-07 12:47:06.003672077
2025-11-07 12:47:05.626749,-1,2025-11-07 12:47:06.011364385
2025-11-07 12:47:05.626749,-234,2025-11-07 12:47:06.019056692
2025-11-07 12:47:05.626749,7167,2025-11-07 12:47:06.026749000
2025-11-07 12:47:05.626749,-1,2025-11-07 12:47:06.034441308
2025-11-07 12:47:05.626749,-214,2025-11-07 12:47:06.042133615
2025-11-07 12:47:05.626749,13311,2025-11-07 12:47:06.049825923
2025-11-07 12:47:05.626749,-1,2025-11-07 12:47:06.057518231
2025-11-07 12:47:05.626749,-197,2025-11-07 12:47:06.065210538
2025-11-07 12:47:05.626749,17151,2025-11-07 12:47:06.072902846
2025-11-07 12:47:05.626749,-1,2025-11-07 12:47:06.080595154
2025-11-07 12:47:05.626749,-188,2025-11-07 12:47:06.088287462
2025-11-07 12:47:05.626749,18431,2025-11-07 12:47:06.095979769
2025-11-07 12:47:05.626749,-1,2025-11-07 12:47:06.103672077
2025-11-07 12:47:05.626749,-180,2025-11-07 12:47:06.111364385
2025-11-07 12:47:05.626749,18943,2025-11-07 12:47:06.119056692
2025-11-07 12:47:05.626749,-1,2025-11-07 12:47:06.126749000
2025-11-07 12:47:05.626749,-190,2025-11-07 12:47:06.134441308
2025-11-07 12:47:05.626749,15871,2025-11-07 12:47:06.142133615
2025-11-07 12:47:05.626749,-1,2025-11-07 12:47:06.149825923
2025-11-07 12:47:05.626749,-209,2025-11-07 12:47:06.157518230
2025-11-07 12:47:05.626749,5375,2025-11-07 12:47:06.165210538
2025-11-07 12:47:05.626749,-1,2025-11-07 12:47:06.172902846
2025-11-07 12:47:05.626749,-263,2025-11-07 12:47:06.180595154
2025-11-07 12:47:05.626749,-7681,2025-11-07 12:47:06.188287462
2025-11-07 12:47:05.626749,-2,2025-11-07 12:47:06.195979769
2025-11-07 12:47:05.626749,-304,2025-11-07 12:47:06.203672077
2025-11-07 12:47:05.626749,-12545,2025-11-07 12:47:06.211364385
2025-11-07 12:47:05.626749,-2,2025-11-07 12:47:06.219056692
2025-11-07 12:47:05.626749,-308,2025-11-07 12:47:06.226749000
2025-11-07 12:47:05.626749,-16129,2025-11-07 12:47:06.234441308
2025-11-07 12:47:05.626749,-2,2025-11-07 12:47:06.242133615
2025-11-07 12:47:05.626749,-332,2025-11-07 12:47:06.249825923
2025-11-07 12:47:05.626749,-20481,2025-11-07 12:47:06.257518231
2025-11-07 12:47:05.626749,-2,2025-11-07 12:47:06.265210538
2025-11-07 12:47:05.626749,-337,2025-11-07 12:47:06.272902846
2025-11-07 12:47:05.626749,-19201,2025-11-07 12:47:06.280595154
2025-11-07 12:47:05.626749,-2,2025-11-07 12:47:06.288287462
2025-11-07 12:47:05.626749,-332,2025-11-07 12:47:06.295979769
2025-11-07 12:47:05.626749,-19201,2025-11-07 12:47:06.303672077
2025-11-07 12:47:05.626749,-2,2025-11-07 12:47:06.311364385
2025-11-07 12:47:05.626749,-330,2025-11-07 12:47:06.319056692
2025-11-07 12:47:05.626749,-18177,2025-11-07 12:47:06.326749000
2025-11-07 12:47:05.626749,-2,2025-11-07 12:47:06.334441308
2025-11-07 12:47:05.626749,-328,2025-11-07 12:47:06.342133615
2025-11-07 12:47:05.626749,-16897,2025-11-07 12:47:06.349825923
2025-11-07 12:47:05.626749,-2,2025-11-07 12:47:06.357518231
2025-11-07 12:47:05.626749,-316,2025-11-07 12:47:06.365210538
2025-11-07 12:47:05.626749,-9473,2025-11-07 12:47:06.372902846
2025-11-07 12:47:05.626749,-2,2025-11-07 12:47:06.380595154
2025-11-07 12:47:05.626749,-272,2025-11-07 12:47:06.388287462
2025-11-07 12:47:05.626749,-4609,2025-11-07 12:47:06.395979769
2025-11-07 12:47:05.626749,-2,2025-11-07 12:47:06.403672077
2025-11-07 12:47:05.626749,-282,2025-11-07 12:47:06.411364385
2025-11-07 12:47:05.626749,-6401,2025-11-07 12:47:06.419056692
2025-11-07 12:47:05.626749,-2,2025-11-07 12:47:06.426749000
2025-11-07 12:47:05.626749,-282,2025-11-07 12:47:06.434441308
2025-11-07 12:47:05.626749,-8705,2025-11-07 12:47:06.442133615
2025-11-07 12:47:05.626749,-2,2025-11-07 12:47:06.449825923
2025-11-07 12:47:05.626749,-301,2025-11-07 12:47:06.457518231
2025-11-07 12:47:06.167528,-296,2025-11-07 12:47:06.465210538
2025-11-07 12:47:06.167528,-6913,2025-11-07 12:47:06.472902846
2025-11-07 12:47:06.167528,-2,2025-11-07 12:47:06.480595154
2025-11-07 12:47:06.167528,-284,2025-11-07 12:47:06.488287462
2025-11-07 12:47:06.167528,-7681,2025-11-07 12:47:06.495979769
2025-11-07 12:47:06.167528,-2,2025-11-07 12:47:06.503672077
2025-11-07 12:47:06.167528,-328,2025-11-07 12:47:06.511364385
2025-11-07 12:47:06.167528,16639,2025-11-07 12:47:06.519056692
2025-11-07 12:47:06.167528,-2,2025-11-07 12:47:06.526749000
2025-11-07 12:47:06.167528,-480,2025-11-07 12:47:06.534441308
2025-11-07 12:47:06.167528,30207,2025-11-07 12:47:06.542133615
2025-11-07 12:47:06.167528,-1,2025-11-07 12:47:06.549825923
2025-11-07 12:47:06.167528,446,2025-11-07 12:47:06.557518231
2025-11-07 12:47:06.167528,30720,2025-11-07 12:47:06.565210538
2025-11-07 12:47:06.167528,2,2025-11-07 12:47:06.572902846
2025-11-07 12:47:06.167528,91,2025-11-07 12:47:06.580595154
2025-11-07 12:47:06.167528,7168,2025-11-07 12:47:06.588287462
2025-11-07 12:47:06.167528,-2,2025-11-07 12:47:06.595979769
2025-11-07 12:47:06.167528,-487,2025-11-07 12:47:06.603672077
2025-11-07 12:47:06.167528,-8705,2025-11-07 12:47:06.611364385
2025-11-07 12:47:06.167528,-2,2025-11-07 12:47:06.619056692
2025-11-07 12:47:06.167528,-265,2025-11-07 12:47:06.626749000
2025-11-07 12:47:06.167528,-3329,2025-11-07 12:47:06.634441308
2025-11-07 12:47:06.167528,-2,2025-11-07 12:47:06.642133615
2025-11-07 12:47:06.167528,-250,2025-11-07 12:47:06.649825923
2025-11-07 12:47:06.167528,511,2025-11-07 12:47:06.657518231
2025-11-07 12:47:06.167528,-1,2025-11-07 12:47:06.665210538
2025-11-07 12:47:06.167528,-253,2025-11-07 12:47:06.672902846
2025-11-07 12:47:06.167528,4863,2025-11-07 12:47:06.680595154
2025-11-07 12:47:06.167528,-1,2025-11-07 12:47:06.688287462
2025-11-07 12:47:06.167528,-238,2025-11-07 12:47:06.695979769
2025-11-07 12:47:06.167528,5375,2025-11-07 12:47:06.703672077
2025-11-07 12:47:06.167528,-1,2025-11-07 12:47:06.711364385
2025-11-07 12:47:06.167528,-231,2025-11-07 12:47:06.719056692
2025-11-07 12:47:06.167528,8447,2025-11-07 12:47:06.726749000
2025-11-07 12:47:06.167528,-1,2025-11-07 12:47:06.734441308
2025-11-07 12:47:06.167528,-212,2025-11-07 12:47:06.742133615
2025-11-07 12:47:06.167528,15871,2025-11-07 12:47:06.749825923
2025-11-07 12:47:06.167528,-1,2025-11-07 12:47:06.757518231
2025-11-07 12:47:06.167528,-185,2025-11-07 12:47:06.765210538
2025-11-07 12:47:06.167528,18943,2025-11-07 12:47:06.772902846
2025-11-07 12:47:06.167528,-1,2025-11-07 12:47:06.780595154
2025-11-07 12:47:06.167528,-176,2025-11-07 12:47:06.788287462
2025-11-07 12:47:06.167528,24575,2025-11-07 12:47:06.795979769
2025-11-07 12:47:06.167528,-1,2025-11-07 12:47:06.803672077
2025-11-07 12:47:06.167528,-152,2025-11-07 12:47:06.811364385
2025-11-07 12:47:06.167528,29439,2025-11-07 12:47:06.819056692
2025-11-07 12:47:06.167528,-1,2025-11-07 12:47:06.826749000
2025-11-07 12:47:06.167528,-127,2025-11-07 12:47:06.834441308
2025-11-07 12:47:06.167528,-29953,2025-11-07 12:47:06.842133615
2025-11-07 12:47:06.167528,-1,2025-11-07 12:47:06.849825923
2025-11-07 12:47:06.167528,-115,2025-11-07 12:47:06.857518231
2025-11-07 12:47:06.167528,-29185,2025-11-07 12:47:06.865210538
2025-11-07 12:47:06.167528,-1,2025-11-07 12:47:06.872902846
2025-11-07 12:47:06.167528,-115,2025-11-07 12:47:06.880595154
2025-11-07 12:47:06.167528,-28673,2025-11-07 12:47:06.888287462
2025-11-07 12:47:06.167528,-1,2025-11-07 12:47:06.895979769
2025-11-07 12:47:06.167528,-115,2025-11-07 12:47:06.903672077
2025-11-07 12:47:06.167528,31231,2025-11-07 12:47:06.911364385
2025-11-07 12:47:06.167528,-1,2025-11-07 12:47:06.919056692
2025-11-07 12:47:06.167528,-156,2025-11-07 12:47:06.926749000
2025-11-07 12:47:06.167528,22015,2025-11-07 12:47:06.934441308
2025-11-07 12:47:06.167528,-1,2025-11-07 12:47:06.942133615
2025-11-07 12:47:06.167528,-180,2025-11-07 12:47:06.949825923
2025-11-07 12:47:06.167528,17663,2025-11-07 12:47:06.957518231
2025-11-07 12:47:06.167528,-1,2025-11-07 12:47:06.965210538
2025-11-07 12:47:06.167528,-195,2025-11-07 12:47:06.972902846
2025-11-07 12:47:06.167528,15359,2025-11-07 12:47:06.980595154
2025-11-07 12:47:06.167528,-1,2025-11-07 12:47:06.988287462
2025-11-07 12:47:06.167528,-193,2025-11-07 12:47:06.995979769
2025-11-07 12:47:06.167528,17663,2025-11-07 12:47:07.003672077
2025-11-07 12:47:06.167528,-1,2025-11-07 12:47:07.011364385
2025-11-07 12:47:06.167528,-185,2025-11-07 12:47:07.019056692
2025-11-07 12:47:06.167528,19711,2025-11-07 12:47:07.026749000
2025-11-07 12:47:06.167528,-1,2025-11-07 12:47:07.034441308
2025-11-07 12:47:06.167528,-171,2025-11-07 12:47:07.042133615
2025-11-07 12:47:06.167528,22783,2025-11-07 12:47:07.049825923
2025-11-07 12:47:06.167528,-1,2025-11-07 12:47:07.057518231
2025-11-07 12:47:06.167528,-171,2025-11-07 12:47:07.065210538
2025-11-07 12:47:06.167528,24575,2025-11-07 12:47:07.072902846
2025-11-07 12:47:06.167528,-1,2025-11-07 12:47:07.080595154
2025-11-07 12:47:06.167528,-149,2025-11-07 12:47:07.088287462
2025-11-07 12:47:06.167528,28927,2025-11-07 12:47:07.095979769
2025-11-07 12:47:06.167528,-1,2025-11-07 12:47:07.103672077
2025-11-07 12:47:06.167528,-123,2025-11-07 12:47:07.111364385
2025-11-07 12:47:06.167528,-23041,2025-11-07 12:47:07.119056692
2025-11-07 12:47:06.167528,-1,2025-11-07 12:47:07.126749000
2025-11-07 12:47:06.167528,-84,2025-11-07 12:47:07.134441308
2025-11-07 12:47:06.167528,-24833,2025-11-07 12:47:07.142133615
2025-11-07 12:47:06.167528,-1,2025-11-07 12:47:07.149825923
2025-11-07 12:47:06.167528,-101,2025-11-07 12:47:07.157518230
2025-11-07 12:47:06.167528,-24321,2025-11-07 12:47:07.165210538
2025-11-07 12:47:06.167528,-1,2025-11-07 12:47:07.172902846
2025-11-07 12:47:06.167528,-106,2025-11-07 12:47:07.180595154
2025-11-07 12:47:06.167528,-29185,2025-11-07 12:47:07.188287462
2025-11-07 12:47:06.167528,-1,2025-11-07 12:47:07.195979769
2025-11-07 12:47:06.167528,-110,2025-11-07 12:47:07.203672077
2025-11-07 12:47:06.167528,-27393,2025-11-07 12:47:07.211364385
2025-11-07 12:47:06.167528,-1,2025-11-07 12:47:07.219056692
2025-11-07 12:47:06.167528,-110,2025-11-07 12:47:07.226749000
2025-11-07 12:47:06.167528,-26113,2025-11-07 12:47:07.234441308
2025-11-07 12:47:06.167528,-1,2025-11-07 12:47:07.242133615
2025-11-07 12:47:06.167528,-135,2025-11-07 12:47:07.249825923
2025-11-07 12:47:06.167528,511,2025-11-07 12:47:07.257518231
2025-11-07 12:47:06.167528,-1,2025-11-07 12:47:07.265210538
2025-11-07 12:47:06.167528,-323,2025-11-07 12:47:07.272902846
2025-11-07 12:47:06.167528,-12033,2025-11-07 12:47:07.280595154
2025-11-07 12:47:06.167528,-1,2025-11-07 12:47:07.288287462
2025-11-07 12:47:06.167528,538,2025-11-07 12:47:07.295979769
2025-11-07 12:47:06.730098,878,2025-11-07 12:47:07.303672077
2025-11-07 12:47:06.730098,-12032,2025-11-07 12:47:07.311364385
2025-11-07 12:47:06.730098,1,2025-11-07 12:47:07.319056692
2025-11-07 12:47:06.730098,-229,2025-11-07 12:47:07.326749000
2025-11-07 12:47:06.730098,-23041,2025-11-07 12:47:07.334441308
2025-11-07 12:47:06.730098,-2,2025-11-07 12:47:07.342133615
2025-11-07 12:47:06.730098,-113,2025-11-07 12:47:07.349825923
2025-11-07 12:47:06.730098,-20737,2025-11-07 12:47:07.357518231
2025-11-07 12:47:06.730098,-1,2025-11-07 12:47:07.365210538
2025-11-07 12:47:06.730098,-130,2025-11-07 12:47:07.372902846
2025-11-07 12:47:06.730098,-24833,2025-11-07 12:47:07.380595154
2025-11-07 12:47:06.730098,-1,2025-11-07 12:47:07.388287462
2025-11-07 12:47:06.730098,-72,2025-11-07 12:47:07.395979769
2025-11-07 12:47:06.730098,-17409,2025-11-07 12:47:07.403672077
2025-11-07 12:47:06.730098,-1,2025-11-07 12:47:07.411364385
2025-11-07 12:47:06.730098,-74,2025-11-07 12:47:07.419056692
2025-11-07 12:47:06.730098,-18177,2025-11-07 12:47:07.426749000
2025-11-07 12:47:06.730098,-1,2025-11-07 12:47:07.434441308
2025-11-07 12:47:06.730098,-55,2025-11-07 12:47:07.442133615
2025-11-07 12:47:06.730098,-15105,2025-11-07 12:47:07.449825923
2025-11-07 12:47:06.730098,-1,2025-11-07 12:47:07.457518231
2025-11-07 12:47:06.730098,-69,2025-11-07 12:47:07.465210538
2025-11-07 12:47:06.730098,-10753,2025-11-07 12:47:07.472902846
2025-11-07 12:47:06.730098,-1,2025-11-07 12:47:07.480595154
2025-11-07 12:47:06.730098,-9,2025-11-07 12:47:07.488287462
2025-11-07 12:47:06.730098,-769,2025-11-07 12:47:07.495979769
2025-11-07 12:47:06.730098,-1,2025-11-07 12:47:07.503672077
2025-11-07 12:47:06.730098,2,2025-11-07 12:47:07.511364385
2025-11-07 12:47:06.730098,3584,2025-11-07 12:47:07.519056692
2025-11-07 12:47:06.730098,0,2025-11-07 12:47:07.526749000
2025-11-07 12:47:06.730098,12,2025-11-07 12:47:07.534441308
2025-11-07 12:47:06.730098,-2304,2025-11-07 12:47:07.542133615
2025-11-07 12:47:06.730098,-1,2025-11-07 12:47:07.549825923
2025-11-07 12:47:06.730098,2,2025-11-07 12:47:07.557518231
2025-11-07 12:47:06.730098,12288,2025-11-07 12:47:07.565210538
2025-11-07 12:47:06.730098,0,2025-11-07 12:47:07.572902846
2025-11-07 12:47:06.730098,53,2025-11-07 12:47:07.580595154
2025-11-07 12:47:06.730098,9728,2025-11-07 12:47:07.588287462
2025-11-07 12:47:06.730098,0,2025-11-07 12:47:07.595979769
2025-11-07 12:47:06.730098,55,2025-11-07 12:47:07.603672077
2025-11-07 12:47:06.730098,14080,2025-11-07 12:47:07.611364385
2025-11-07 12:47:06.730098,0,2025-11-07 12:47:07.619056692
2025-11-07 12:47:06.730098,36,2025-11-07 12:47:07.626749000
2025-11-07 12:47:06.730098,9216,2025-11-07 12:47:07.634441308
2025-11-07 12:47:06.730098,0,2025-11-07 12:47:07.642133615
2025-11-07 12:47:06.730098,26,2025-11-07 12:47:07.649825923
2025-11-07 12:47:06.730098,-512,2025-11-07 12:47:07.657518231
2025-11-07 12:47:06.730098,-1,2025-11-07 12:47:07.665210538
2025-11-07 12:47:06.730098,-24,2025-11-07 12:47:07.672902846
2025-11-07 12:47:06.730098,-10753,2025-11-07 12:47:07.680595154
2025-11-07 12:47:06.730098,-1,2025-11-07 12:47:07.688287462
2025-11-07 12:47:06.730098,-67,2025-11-07 12:47:07.695979769
2025-11-07 12:47:06.730098,-17409,2025-11-07 12:47:07.703672077
2025-11-07 12:47:06.730098,-1,2025-11-07 12:47:07.711364385
2025-11-07 12:47:06.730098,-69,2025-11-07 12:47:07.719056692
2025-11-07 12:47:06.730098,-22529,2025-11-07 12:47:07.726749000
2025-11-07 12:47:06.730098,-1,2025-11-07 12:47:07.734441308
2025-11-07 12:47:06.730098,-108,2025-11-07 12:47:07.742133615
2025-11-07 12:47:06.730098,-27905,2025-11-07 12:47:07.749825923
2025-11-07 12:47:06.730098,-1,2025-11-07 12:47:07.757518231
2025-11-07 12:47:06.730098,-110,2025-11-07 12:47:07.765210538
2025-11-07 12:47:06.730098,-27905,2025-11-07 12:47:07.772902846
2025-11-07 12:47:06.730098,-1,2025-11-07 12:47:07.780595154
2025-11-07 12:47:06.730098,-115,2025-11-07 12:47:07.788287462
2025-11-07 12:47:06.730098,-27393,2025-11-07 12:47:07.795979769
2025-11-07 12:47:06.730098,-1,2025-11-07 12:47:07.803672077
2025-11-07 12:47:06.730098,-96,2025-11-07 12:47:07.811364385
2025-11-07 12:47:06.730098,-24833,2025-11-07 12:47:07.819056692
2025-11-07 12:47:06.730098,-1,2025-11-07 12:47:07.826749000
2025-11-07 12:47:06.730098,-108,2025-11-07 12:47:07.834441308
2025-11-07 12:47:06.730098,-24321,2025-11-07 12:47:07.842133615
2025-11-07 12:47:06.730098,-1,2025-11-07 12:47:07.849825923
2025-11-07 12:47:06.730098,-69,2025-11-07 12:47:07.857518231
2025-11-07 12:47:06.730098,-15105,2025-11-07 12:47:07.865210538
2025-11-07 12:47:06.730098,-1,2025-11-07 12:47:07.872902846
2025-11-07 12:47:06.730098,-72,2025-11-07 12:47:07.880595154
2025-11-07 12:47:06.730098,-21249,2025-11-07 12:47:07.888287462
2025-11-07 12:47:06.730098,-1,2025-11-07 12:47:07.895979769
2025-11-07 12:47:06.730098,-94,2025-11-07 12:47:07.903672077
2025-11-07 12:47:06.730098,-24321,2025-11-07 12:47:07.911364385
2025-11-07 12:47:06.730098,-1,2025-11-07 12:47:07.919056692
2025-11-07 12:47:06.730098,-98,2025-11-07 12:47:07.926749000
2025-11-07 12:47:06.730098,-28673,2025-11-07 12:47:07.934441308
2025-11-07 12:47:06.730098,-1,2025-11-07 12:47:07.942133615
2025-11-07 12:47:06.730098,-118,2025-11-07 12:47:07.949825923
2025-11-07 12:47:06.730098,-31233,2025-11-07 12:47:07.957518231
2025-11-07 12:47:06.730098,-1,2025-11-07 12:47:07.965210538
2025-11-07 12:47:06.730098,-135,2025-11-07 12:47:07.972902846
2025-11-07 12:47:06.730098,28159,2025-11-07 12:47:07.980595154
2025-11-07 12:47:06.730098,-1,2025-11-07 12:47:07.988287462
2025-11-07 12:47:06.730098,-229,2025-11-07 12:47:07.995979769
2025-11-07 12:47:06.730098,-28673,2025-11-07 12:47:08.003672077
2025-11-07 12:47:06.730098,-2,2025-11-07 12:47:08.011364385
2025-11-07 12:47:06.730098,-263,2025-11-07 12:47:08.019056692
2025-11-07 12:47:06.730098,5631,2025-11-07 12:47:08.026749000
2025-11-07 12:47:06.730098,1,2025-11-07 12:47:08.034441308
2025-11-07 12:47:06.730098,813,2025-11-07 12:47:08.042133615
2025-11-07 12:47:06.730098,-30464,2025-11-07 12:47:08.049825923
2025-11-07 12:47:06.730098,2,2025-11-07 12:47:08.057518231
2025-11-07 12:47:06.730098,-96,2025-11-07 12:47:08.065210538
2025-11-07 12:47:06.730098,9215,2025-11-07 12:47:08.072902846
2025-11-07 12:47:06.730098,-2,2025-11-07 12:47:08.080595154
2025-11-07 12:47:06.730098,-299,2025-11-07 12:47:08.088287462
2025-11-07 12:47:06.730098,18943,2025-11-07 12:47:08.095979769
2025-11-07 12:47:06.730098,-1,2025-11-07 12:47:08.103672077
2025-11-07 12:47:06.730098,-246,2025-11-07 12:47:08.111364385
2025-11-07 12:47:06.730098,2303,2025-11-07 12:47:08.119056692
2025-11-07 12:47:06.730098,-1,2025-11-07 12:47:08.126749000
2025-11-07 12:47:06.730098,-224,2025-11-07 12:47:08.134441308
2025-11-07 12:47:07.289669,-238,2025-11-07 12:47:08.142133615
2025-11-07 12:47:07.289669,4863,2025-11-07 12:47:08.149825923
2025-11-07 12:47:07.289669,-1,2025-11-07 12:47:08.157518230
2025-11-07 12:47:07.289669,-219,2025-11-07 12:47:08.165210538
2025-11-07 12:47:07.289669,10239,2025-11-07 12:47:08.172902846
2025-11-07 12:47:07.289669,-1,2025-11-07 12:47:08.180595154
2025-11-07 12:47:07.289669,-214,2025-11-07 12:47:08.188287462
2025-11-07 12:47:07.289669,15359,2025-11-07 12:47:08.195979769
2025-11-07 12:47:07.289669,-1,2025-11-07 12:47:08.203672077
2025-11-07 12:47:07.289669,-185,2025-11-07 12:47:08.211364385
2025-11-07 12:47:07.289669,20735,2025-11-07 12:47:08.219056692
2025-11-07 12:47:07.289669,-1,2025-11-07 12:47:08.226749000
2025-11-07 12:47:07.289669,-164,2025-11-07 12:47:08.234441308
2025-11-07 12:47:07.289669,28159,2025-11-07 12:47:08.242133615
2025-11-07 12:47:07.289669,-1,2025-11-07 12:47:08.249825923
2025-11-07 12:47:07.289669,-135,2025-11-07 12:47:08.257518231
2025-11-07 12:47:07.289669,27647,2025-11-07 12:47:08.265210538
2025-11-07 12:47:07.289669,-1,2025-11-07 12:47:08.272902846
2025-11-07 12:47:07.289669,-156,2025-11-07 12:47:08.280595154
2025-11-07 12:47:07.289669,28927,2025-11-07 12:47:08.288287462
2025-11-07 12:47:07.289669,-1,2025-11-07 12:47:08.295979769
2025-11-07 12:47:07.289669,-130,2025-11-07 12:47:08.303672077
2025-11-07 12:47:07.289669,-28673,2025-11-07 12:47:08.311364385
2025-11-07 12:47:07.289669,-1,2025-11-07 12:47:08.319056692
2025-11-07 12:47:07.289669,-89,2025-11-07 12:47:08.326749000
2025-11-07 12:47:07.289669,-15105,2025-11-07 12:47:08.334441308
2025-11-07 12:47:07.289669,-1,2025-11-07 12:47:08.342133615
2025-11-07 12:47:07.289669,-26,2025-11-07 12:47:08.349825923
2025-11-07 12:47:07.289669,-1537,2025-11-07 12:47:08.357518231
2025-11-07 12:47:07.289669,-1,2025-11-07 12:47:08.365210538
2025-11-07 12:47:07.289669,0,2025-11-07 12:47:08.372902846
2025-11-07 12:47:07.289669,3584,2025-11-07 12:47:08.380595154
2025-11-07 12:47:07.289669,0,2025-11-07 12:47:08.388287462
2025-11-07 12:47:07.289669,19,2025-11-07 12:47:08.395979769
2025-11-07 12:47:07.289669,3072,2025-11-07 12:47:08.403672077
2025-11-07 12:47:07.289669,0,2025-11-07 12:47:08.411364385
2025-11-07 12:47:07.289669,24,2025-11-07 12:47:08.419056692
2025-11-07 12:47:07.289669,14080,2025-11-07 12:47:08.426749000
2025-11-07 12:47:07.289669,0,2025-11-07 12:47:08.434441308
2025-11-07 12:47:07.289669,84,2025-11-07 12:47:08.442133615
2025-11-07 12:47:07.289669,30720,2025-11-07 12:47:08.449825923
2025-11-07 12:47:07.289669,0,2025-11-07 12:47:08.457518231
2025-11-07 12:47:07.289669,149,2025-11-07 12:47:08.465210538
2025-11-07 12:47:07.289669,-25600,2025-11-07 12:47:08.472902846
2025-11-07 12:47:07.289669,0,2025-11-07 12:47:08.480595154
2025-11-07 12:47:07.289669,159,2025-11-07 12:47:08.488287462
2025-11-07 12:47:07.289669,-24832,2025-11-07 12:47:08.495979769
2025-11-07 12:47:07.289669,0,2025-11-07 12:47:08.503672077
2025-11-07 12:47:07.289669,166,2025-11-07 12:47:08.511364385
2025-11-07 12:47:07.289669,-22528,2025-11-07 12:47:08.519056692
2025-11-07 12:47:07.289669,0,2025-11-07 12:47:08.526749000
2025-11-07 12:47:07.289669,166,2025-11-07 12:47:08.534441308
2025-11-07 12:47:07.289669,-22528,2025-11-07 12:47:08.542133615
2025-11-07 12:47:07.289669,0,2025-11-07 12:47:08.549825923
2025-11-07 12:47:07.289669,161,2025-11-07 12:47:08.557518231
2025-11-07 12:47:07.289669,-27904,2025-11-07 12:47:08.565210538
2025-11-07 12:47:07.289669,0,2025-11-07 12:47:08.572902846
2025-11-07 12:47:07.289669,168,2025-11-07 12:47:08.580595154
2025-11-07 12:47:07.289669,-16896,2025-11-07 12:47:08.588287462
2025-11-07 12:47:07.289669,0,2025-11-07 12:47:08.595979769
2025-11-07 12:47:07.289669,180,2025-11-07 12:47:08.603672077
2025-11-07 12:47:07.289669,-22528,2025-11-07 12:47:08.611364385
2025-11-07 12:47:07.289669,0,2025-11-07 12:47:08.619056692
2025-11-07 12:47:07.289669,168,2025-11-07 12:47:08.626749000
2025-11-07 12:47:07.289669,-23552,2025-11-07 12:47:08.634441308
2025-11-07 12:47:07.289669,0,2025-11-07 12:47:08.642133615
2025-11-07 12:47:07.289669,154,2025-11-07 12:47:08.649825923
2025-11-07 12:47:07.289669,-26112,2025-11-07 12:47:08.657518231
2025-11-07 12:47:07.289669,0,2025-11-07 12:47:08.665210538
2025-11-07 12:47:07.289669,152,2025-11-07 12:47:08.672902846
2025-11-07 12:47:07.289669,-27904,2025-11-07 12:47:08.680595154
2025-11-07 12:47:07.289669,0,2025-11-07 12:47:08.688287462
2025-11-07 12:47:07.289669,166,2025-11-07 12:47:08.695979769
2025-11-07 12:47:07.289669,-19456,2025-11-07 12:47:08.703672077
2025-11-07 12:47:07.289669,0,2025-11-07 12:47:08.711364385
2025-11-07 12:47:07.289669,178,2025-11-07 12:47:08.719056692
2025-11-07 12:47:07.289669,-24320,2025-11-07 12:47:08.726749000
2025-11-07 12:47:07.289669,0,2025-11-07 12:47:08.734441308
2025-11-07 12:47:07.289669,67,2025-11-07 12:47:08.742133615
2025-11-07 12:47:07.289669,-3584,2025-11-07 12:47:08.749825923
2025-11-07 12:47:07.289669,-1,2025-11-07 12:47:08.757518231
2025-11-07 12:47:07.289669,214,2025-11-07 12:47:08.765210538
2025-11-07 12:47:07.289669,5888,2025-11-07 12:47:08.772902846
2025-11-07 12:47:07.289669,3,2025-11-07 12:47:08.780595154
2025-11-07 12:47:07.289669,1211,2025-11-07 12:47:08.788287462
2025-11-07 12:47:07.289669,-32512,2025-11-07 12:47:08.795979769
2025-11-07 12:47:07.289669,3,2025-11-07 12:47:08.803672077
2025-11-07 12:47:07.289669,183,2025-11-07 12:47:08.811364385
2025-11-07 12:47:07.289669,-11008,2025-11-07 12:47:08.819056692
2025-11-07 12:47:07.289669,-1,2025-11-07 12:47:08.826749000
2025-11-07 12:47:07.289669,156,2025-11-07 12:47:08.834441308
2025-11-07 12:47:07.289669,-18176,2025-11-07 12:47:08.842133615
2025-11-07 12:47:07.289669,0,2025-11-07 12:47:08.849825923
2025-11-07 12:47:07.289669,91,2025-11-07 12:47:08.857518231
2025-11-07 12:47:07.289669,24064,2025-11-07 12:47:08.865210538
2025-11-07 12:47:07.289669,0,2025-11-07 12:47:08.872902846
2025-11-07 12:47:07.289669,86,2025-11-07 12:47:08.880595154
2025-11-07 12:47:07.289669,7168,2025-11-07 12:47:08.888287462
2025-11-07 12:47:07.289669,0,2025-11-07 12:47:08.895979769
2025-11-07 12:47:07.289669,7,2025-11-07 12:47:08.903672077
2025-11-07 12:47:07.289669,4864,2025-11-07 12:47:08.911364385
2025-11-07 12:47:07.289669,0,2025-11-07 12:47:08.919056692
2025-11-07 12:47:07.289669,24,2025-11-07 12:47:08.926749000
2025-11-07 12:47:07.289669,2304,2025-11-07 12:47:08.934441308
2025-11-07 12:47:07.289669,0,2025-11-07 12:47:08.942133615
2025-11-07 12:47:07.289669,-4,2025-11-07 12:47:08.949825923
2025-11-07 12:47:07.289669,2047,2025-11-07 12:47:08.957518231
2025-11-07 12:47:07.289669,0,2025-11-07 12:47:08.965210538
2025-11-07 12:47:07.289669,26,2025-11-07 12:47:08.972902846
2025-11-07 12:47:07.805878,36,2025-11-07 12:47:08.980595154
2025-11-07 12:47:07.805878,8448,2025-11-07 12:47:08.988287462
2025-11-07 12:47:07.805878,0,2025-11-07 12:47:08.995979769
2025-11-07 12:47:07.805878,9,2025-11-07 12:47:09.003672077
2025-11-07 12:47:07.805878,-5376,2025-11-07 12:47:09.011364385
2025-11-07 12:47:07.805878,-1,2025-11-07 12:47:09.019056692
2025-11-07 12:47:07.805878,-38,2025-11-07 12:47:09.026749000
2025-11-07 12:47:07.805878,-10753,2025-11-07 12:47:09.034441308
2025-11-07 12:47:07.805878,-1,2025-11-07 12:47:09.042133615
2025-11-07 12:47:07.805878,-48,2025-11-07 12:47:09.049825923
2025-11-07 12:47:07.805878,-16385,2025-11-07 12:47:09.057518231
2025-11-07 12:47:07.805878,-1,2025-11-07 12:47:09.065210538
2025-11-07 12:47:07.805878,-89,2025-11-07 12:47:09.072902846
2025-11-07 12:47:07.805878,-29185,2025-11-07 12:47:09.080595154
2025-11-07 12:47:07.805878,-1,2025-11-07 12:47:09.088287462
2025-11-07 12:47:07.805878,-132,2025-11-07 12:47:09.095979769
2025-11-07 12:47:07.805878,30719,2025-11-07 12:47:09.103672077
2025-11-07 12:47:07.805878,-1,2025-11-07 12:47:09.111364385
2025-11-07 12:47:07.805878,-154,2025-11-07 12:47:09.119056692
2025-11-07 12:47:07.805878,22783,2025-11-07 12:47:09.126749000
2025-11-07 12:47:07.805878,-1,2025-11-07 12:47:09.134441308
2025-11-07 12:47:07.805878,-180,2025-11-07 12:47:09.142133615
2025-11-07 12:47:07.805878,13311,2025-11-07 12:47:09.149825923
2025-11-07 12:47:07.805878,-1,2025-11-07 12:47:09.157518230
2025-11-07 12:47:07.805878,-217,2025-11-07 12:47:09.165210538
2025-11-07 12:47:07.805878,11519,2025-11-07 12:47:09.172902846
2025-11-07 12:47:07.805878,-1,2025-11-07 12:47:09.180595154
2025-11-07 12:47:07.805878,-214,2025-11-07 12:47:09.188287462
2025-11-07 12:47:07.805878,9727,2025-11-07 12:47:09.195979769
2025-11-07 12:47:07.805878,-1,2025-11-07 12:47:09.203672077
2025-11-07 12:47:07.805878,-224,2025-11-07 12:47:09.211364385
2025-11-07 12:47:07.805878,2815,2025-11-07 12:47:09.219056692
2025-11-07 12:47:07.805878,-1,2025-11-07 12:47:09.226749000
2025-11-07 12:47:07.805878,-316,2025-11-07 12:47:09.234441308
2025-11-07 12:47:07.805878,-26625,2025-11-07 12:47:09.242133615
2025-11-07 12:47:07.805878,-2,2025-11-07 12:47:09.249825923
2025-11-07 12:47:07.805878,-311,2025-11-07 12:47:09.257518231
2025-11-07 12:47:07.805878,-5633,2025-11-07 12:47:09.265210538
2025-11-07 12:47:07.805878,-2,2025-11-07 12:47:09.272902846
2025-11-07 12:47:07.805878,-299,2025-11-07 12:47:09.280595154
2025-11-07 12:47:07.805878,-6913,2025-11-07 12:47:09.288287462
2025-11-07 12:47:07.805878,-2,2025-11-07 12:47:09.295979769
2025-11-07 12:47:07.805878,-270,2025-11-07 12:47:09.303672077
2025-11-07 12:47:07.805878,-5633,2025-11-07 12:47:09.311364385
2025-11-07 12:47:07.805878,-2,2025-11-07 12:47:09.319056692
2025-11-07 12:47:07.805878,-267,2025-11-07 12:47:09.326749000
2025-11-07 12:47:07.805878,7935,2025-11-07 12:47:09.334441308
2025-11-07 12:47:07.805878,-1,2025-11-07 12:47:09.342133615
2025-11-07 12:47:07.805878,-217,2025-11-07 12:47:09.349825923
2025-11-07 12:47:07.805878,7935,2025-11-07 12:47:09.357518231
2025-11-07 12:47:07.805878,-1,2025-11-07 12:47:09.365210538
2025-11-07 12:47:07.805878,-200,2025-11-07 12:47:09.372902846
2025-11-07 12:47:07.805878,17151,2025-11-07 12:47:09.380595154
2025-11-07 12:47:07.805878,-1,2025-11-07 12:47:09.388287462
2025-11-07 12:47:07.805878,-214,2025-11-07 12:47:09.395979769
2025-11-07 12:47:07.805878,18431,2025-11-07 12:47:09.403672077
2025-11-07 12:47:07.805878,-1,2025-11-07 12:47:09.411364385
2025-11-07 12:47:07.805878,-149,2025-11-07 12:47:09.419056692
2025-11-07 12:47:07.805878,-27905,2025-11-07 12:47:09.426749000
2025-11-07 12:47:07.805878,-1,2025-11-07 12:47:09.434441308
2025-11-07 12:47:07.805878,-26,2025-11-07 12:47:09.442133615
2025-11-07 12:47:07.805878,-2817,2025-11-07 12:47:09.449825923
2025-11-07 12:47:07.805878,-1,2025-11-07 12:47:09.457518231
2025-11-07 12:47:07.805878,-69,2025-11-07 12:47:09.465210538
2025-11-07 12:47:07.805878,23807,2025-11-07 12:47:09.472902846
2025-11-07 12:47:07.805878,-1,2025-11-07 12:47:09.480595154
2025-11-07 12:47:07.805878,-214,2025-11-07 12:47:09.488287462
2025-11-07 12:47:07.805878,29695,2025-11-07 12:47:09.495979769
2025-11-07 12:47:07.805878,0,2025-11-07 12:47:09.503672077
2025-11-07 12:47:07.805878,750,2025-11-07 12:47:09.511364385
2025-11-07 12:47:07.805878,4608,2025-11-07 12:47:09.519056692
2025-11-07 12:47:07.805878,4,2025-11-07 12:47:09.526749000
2025-11-07 12:47:07.805878,656,2025-11-07 12:47:09.534441308
2025-11-07 12:47:07.805878,16640,2025-11-07 12:47:09.542133615
2025-11-07 12:47:07.805878,0,2025-11-07 12:47:09.549825923
2025-11-07 12:47:07.805878,-65,2025-11-07 12:47:09.557518231
2025-11-07 12:47:07.805878,-27649,2025-11-07 12:47:09.565210538
2025-11-07 12:47:07.805878,0,2025-11-07 12:47:09.572902846
2025-11-07 12:47:07.805878,238,2025-11-07 12:47:09.580595154
2025-11-07 12:47:07.805878,-1536,2025-11-07 12:47:09.588287462
2025-11-07 12:47:07.805878,0,2025-11-07 12:47:09.595979769
2025-11-07 12:47:07.805878,335,2025-11-07 12:47:09.603672077
2025-11-07 12:47:07.805878,25856,2025-11-07 12:47:09.611364385
2025-11-07 12:47:07.805878,1,2025-11-07 12:47:09.619056692
2025-11-07 12:47:07.805878,332,2025-11-07 12:47:09.626749000
2025-11-07 12:47:07.805878,-22528,2025-11-07 12:47:09.634441308
2025-11-07 12:47:07.805878,1,2025-11-07 12:47:09.642133615
2025-11-07 12:47:07.805878,480,2025-11-07 12:47:09.649825923
2025-11-07 12:47:07.805878,-20736,2025-11-07 12:47:09.657518231
2025-11-07 12:47:07.805878,1,2025-11-07 12:47:09.665210538
2025-11-07 12:47:07.805878,492,2025-11-07 12:47:09.672902846
2025-11-07 12:47:07.805878,25088,2025-11-07 12:47:09.680595154
2025-11-07 12:47:07.805878,2,2025-11-07 12:47:09.688287462
2025-11-07 12:47:07.805878,627,2025-11-07 12:47:09.695979769
2025-11-07 12:47:07.805878,-30464,2025-11-07 12:47:09.703672077
2025-11-07 12:47:07.805878,2,2025-11-07 12:47:09.711364385
2025-11-07 12:47:07.805878,735,2025-11-07 12:47:09.719056692
2025-11-07 12:47:07.805878,10752,2025-11-07 12:47:09.726749000
2025-11-07 12:47:07.805878,3,2025-11-07 12:47:09.734441308
2025-11-07 12:47:07.805878,887,2025-11-07 12:47:09.742133615
2025-11-07 12:47:07.805878,-14080,2025-11-07 12:47:09.749825923
2025-11-07 12:47:07.805878,3,2025-11-07 12:47:09.757518231
2025-11-07 12:47:07.805878,989,2025-11-07 12:47:09.765210538
2025-11-07 12:47:07.805878,-10752,2025-11-07 12:47:09.772902846
2025-11-07 12:47:07.805878,3,2025-11-07 12:47:09.780595154
2025-11-07 12:47:07.805878,1013,2025-11-07 12:47:09.788287462
2025-11-07 12:47:07.805878,2816,2025-11-07 12:47:09.795979769
2025-11-07 12:47:07.805878,4,2025-11-07 12:47:09.803672077
2025-11-07 12:47:07.805878,1044,2025-11-07 12:47:09.811364385
2025-11-07 12:47:08.383958,1107,2025-11-07 12:47:09.819056692
2025-11-07 12:47:08.383958,-22016,2025-11-07 12:47:09.826749000
2025-11-07 12:47:08.383958,4,2025-11-07 12:47:09.834441308
2025-11-07 12:47:08.383958,1211,2025-11-07 12:47:09.842133615
2025-11-07 12:47:08.383958,-27648,2025-11-07 12:47:09.849825923
2025-11-07 12:47:08.383958,4,2025-11-07 12:47:09.857518231
2025-11-07 12:47:08.383958,1158,2025-11-07 12:47:09.865210538
2025-11-07 12:47:08.383958,30464,2025-11-07 12:47:09.872902846
2025-11-07 12:47:08.383958,4,2025-11-07 12:47:09.880595154
2025-11-07 12:47:08.383958,1093,2025-11-07 12:47:09.888287462
2025-11-07 12:47:08.383958,7168,2025-11-07 12:47:09.895979769
2025-11-07 12:47:08.383958,4,2025-11-07 12:47:09.903672077
2025-11-07 12:47:08.383958,1023,2025-11-07 12:47:09.911364385
2025-11-07 12:47:08.383958,-5888,2025-11-07 12:47:09.919056692
2025-11-07 12:47:08.383958,3,2025-11-07 12:47:09.926749000
2025-11-07 12:47:08.383958,1001,2025-11-07 12:47:09.934441308
2025-11-07 12:47:08.383958,-5888,2025-11-07 12:47:09.942133615
2025-11-07 12:47:08.383958,3,2025-11-07 12:47:09.949825923
2025-11-07 12:47:08.383958,982,2025-11-07 12:47:09.957518231
2025-11-07 12:47:08.383958,-17152,2025-11-07 12:47:09.965210538
2025-11-07 12:47:08.383958,3,2025-11-07 12:47:09.972902846
2025-11-07 12:47:08.383958,943,2025-11-07 12:47:09.980595154
2025-11-07 12:47:08.383958,-19456,2025-11-07 12:47:09.988287462
2025-11-07 12:47:08.383958,3,2025-11-07 12:47:09.995979769
2025-11-07 12:47:08.383958,960,2025-11-07 12:47:10.003672077
2025-11-07 12:47:08.383958,-21248,2025-11-07 12:47:10.011364385
2025-11-07 12:47:08.383958,3,2025-11-07 12:47:10.019056692
2025-11-07 12:47:08.383958,907,2025-11-07 12:47:10.026749000
2025-11-07 12:47:08.383958,-32512,2025-11-07 12:47:10.034441308
2025-11-07 12:47:08.383958,3,2025-11-07 12:47:10.042133615
2025-11-07 12:47:08.383958,890,2025-11-07 12:47:10.049825923
2025-11-07 12:47:08.383958,30464,2025-11-07 12:47:10.057518231
2025-11-07 12:47:08.383958,3,2025-11-07 12:47:10.065210538
2025-11-07 12:47:08.383958,900,2025-11-07 12:47:10.072902846
2025-11-07 12:47:08.383958,30464,2025-11-07 12:47:10.080595154
2025-11-07 12:47:08.383958,3,2025-11-07 12:47:10.088287462
2025-11-07 12:47:08.383958,839,2025-11-07 12:47:10.095979769
2025-11-07 12:47:08.383958,9472,2025-11-07 12:47:10.103672077
2025-11-07 12:47:08.383958,3,2025-11-07 12:47:10.111364385
2025-11-07 12:47:08.383958,793,2025-11-07 12:47:10.119056692
2025-11-07 12:47:08.383958,-2048,2025-11-07 12:47:10.126749000
2025-11-07 12:47:08.383958,2,2025-11-07 12:47:10.134441308
2025-11-07 12:47:08.383958,709,2025-11-07 12:47:10.142133615
2025-11-07 12:47:08.383958,-22528,2025-11-07 12:47:10.149825923
2025-11-07 12:47:08.383958,2,2025-11-07 12:47:10.157518230
2025-11-07 12:47:08.383958,658,2025-11-07 12:47:10.165210538
2025-11-07 12:47:08.383958,29952,2025-11-07 12:47:10.172902846
2025-11-07 12:47:08.383958,2,2025-11-07 12:47:10.180595154
2025-11-07 12:47:08.383958,600,2025-11-07 12:47:10.188287462
2025-11-07 12:47:08.383958,5888,2025-11-07 12:47:10.195979769
2025-11-07 12:47:08.383958,2,2025-11-07 12:47:10.203672077
2025-11-07 12:47:08.383958,395,2025-11-07 12:47:10.211364385
2025-11-07 12:47:08.383958,16384,2025-11-07 12:47:10.219056692
2025-11-07 12:47:08.383958,1,2025-11-07 12:47:10.226749000
2025-11-07 12:47:08.383958,557,2025-11-07 12:47:10.234441308
2025-11-07 12:47:08.383958,13312,2025-11-07 12:47:10.242133615
2025-11-07 12:47:08.383958,4,2025-11-07 12:47:10.249825923
2025-11-07 12:47:08.383958,1317,2025-11-07 12:47:10.257518231
2025-11-07 12:47:08.383958,20736,2025-11-07 12:47:10.265210538
2025-11-07 12:47:08.383958,3,2025-11-07 12:47:10.272902846
2025-11-07 12:47:08.383958,200,2025-11-07 12:47:10.280595154
2025-11-07 12:47:08.383958,27136,2025-11-07 12:47:10.288287462
2025-11-07 12:47:08.383958,0,2025-11-07 12:47:10.295979769
2025-11-07 12:47:08.383958,316,2025-11-07 12:47:10.303672077
2025-11-07 12:47:08.383958,23296,2025-11-07 12:47:10.311364385
2025-11-07 12:47:08.383958,1,2025-11-07 12:47:10.319056692
2025-11-07 12:47:08.383958,299,2025-11-07 12:47:10.326749000
2025-11-07 12:47:08.383958,12288,2025-11-07 12:47:10.334441308
2025-11-07 12:47:08.383958,1,2025-11-07 12:47:10.342133615
2025-11-07 12:47:08.383958,301,2025-11-07 12:47:10.349825923
2025-11-07 12:47:08.383958,5376,2025-11-07 12:47:10.357518231
2025-11-07 12:47:08.383958,1,2025-11-07 12:47:10.365210538
2025-11-07 12:47:08.383958,260,2025-11-07 12:47:10.372902846
2025-11-07 12:47:08.383958,-768,2025-11-07 12:47:10.380595154
2025-11-07 12:47:08.383958,0,2025-11-07 12:47:10.388287462
2025-11-07 12:47:08.383958,265,2025-11-07 12:47:10.395979769
2025-11-07 12:47:08.383958,4864,2025-11-07 12:47:10.403672077
2025-11-07 12:47:08.383958,1,2025-11-07 12:47:10.411364385
2025-11-07 12:47:08.383958,250,2025-11-07 12:47:10.419056692
2025-11-07 12:47:08.383958,-5120,2025-11-07 12:47:10.426749000
2025-11-07 12:47:08.383958,0,2025-11-07 12:47:10.434441308
2025-11-07 12:47:08.383958,253,2025-11-07 12:47:10.442133615
2025-11-07 12:47:08.383958,512,2025-11-07 12:47:10.449825923
2025-11-07 12:47:08.383958,1,2025-11-07 12:47:10.457518231
2025-11-07 12:47:08.383958,236,2025-11-07 12:47:10.465210538
2025-11-07 12:47:08.383958,-7680,2025-11-07 12:47:10.472902846
2025-11-07 12:47:08.383958,0,2025-11-07 12:47:10.480595154
2025-11-07 12:47:08.383958,236,2025-11-07 12:47:10.488287462
2025-11-07 12:47:08.383958,-3840,2025-11-07 12:47:10.495979769
2025-11-07 12:47:08.383958,0,2025-11-07 12:47:10.503672077
2025-11-07 12:47:08.383958,241,2025-11-07 12:47:10.511364385
2025-11-07 12:47:08.383958,-5120,2025-11-07 12:47:10.519056692
2025-11-07 12:47:08.383958,0,2025-11-07 12:47:10.526749000
2025-11-07 12:47:08.383958,231,2025-11-07 12:47:10.534441308
2025-11-07 12:47:08.383958,-5632,2025-11-07 12:47:10.542133615
2025-11-07 12:47:08.383958,0,2025-11-07 12:47:10.549825923
2025-11-07 12:47:08.383958,246,2025-11-07 12:47:10.557518231
2025-11-07 12:47:08.383958,-5632,2025-11-07 12:47:10.565210538
2025-11-07 12:47:08.383958,0,2025-11-07 12:47:10.572902846
2025-11-07 12:47:08.383958,209,2025-11-07 12:47:10.580595154
2025-11-07 12:47:08.383958,-13056,2025-11-07 12:47:10.588287462
2025-11-07 12:47:08.383958,0,2025-11-07 12:47:10.595979769
2025-11-07 12:47:08.383958,180,2025-11-07 12:47:10.603672077
2025-11-07 12:47:08.383958,-30464,2025-11-07 12:47:10.611364385
2025-11-07 12:47:08.383958,0,2025-11-07 12:47:10.619056692
2025-11-07 12:47:08.383958,120,2025-11-07 12:47:10.626749000
2025-11-07 12:47:08.383958,25856,2025-11-07 12:47:10.634441308
2025-11-07 12:47:08.383958,0,2025-11-07 12:47:10.642133615
2025-11-07 12:47:08.383958,67,2025-11-07 12:47:10.649825923
2025-11-07 12:47:08.987794,57,2025-11-07 12:47:10.657518231
2025-11-07 12:47:08.987794,14592,2025-11-07 12:47:10.665210538
2025-11-07 12:47:08.987794,0,2025-11-07 12:47:10.672902846
2025-11-07 12:47:08.987794,28,2025-11-07 12:47:10.680595154
2025-11-07 12:47:08.987794,1024,2025-11-07 12:47:10.688287462
2025-11-07 12:47:08.987794,0,2025-11-07 12:47:10.695979769
2025-11-07 12:47:08.987794,9,2025-11-07 12:47:10.703672077
2025-11-07 12:47:08.987794,4096,2025-11-07 12:47:10.711364385
2025-11-07 12:47:08.987794,0,2025-11-07 12:47:10.719056692
2025-11-07 12:47:08.987794,14,2025-11-07 12:47:10.726749000
2025-11-07 12:47:08.987794,512,2025-11-07 12:47:10.734441308
2025-11-07 12:47:08.987794,0,2025-11-07 12:47:10.742133615
2025-11-07 12:47:08.987794,2,2025-11-07 12:47:10.749825923
2025-11-07 12:47:08.987794,4864,2025-11-07 12:47:10.757518231
2025-11-07 12:47:08.987794,0,2025-11-07 12:47:10.765210538
2025-11-07 12:47:08.987794,12,2025-11-07 12:47:10.772902846
2025-11-07 12:47:08.987794,1792,2025-11-07 12:47:10.780595154
2025-11-07 12:47:08.987794,0,2025-11-07 12:47:10.788287462
2025-11-07 12:47:08.987794,24,2025-11-07 12:47:10.795979769
2025-11-07 12:47:08.987794,2304,2025-11-07 12:47:10.803672077
2025-11-07 12:47:08.987794,0,2025-11-07 12:47:10.811364385
2025-11-07 12:47:08.987794,-21,2025-11-07 12:47:10.819056692
2025-11-07 12:47:08.987794,-6913,2025-11-07 12:47:10.826749000
2025-11-07 12:47:08.987794,-1,2025-11-07 12:47:10.834441308
2025-11-07 12:47:08.987794,-33,2025-11-07 12:47:10.842133615
2025-11-07 12:47:08.987794,-8961,2025-11-07 12:47:10.849825923
2025-11-07 12:47:08.987794,-1,2025-11-07 12:47:10.857518231
2025-11-07 12:47:08.987794,-45,2025-11-07 12:47:10.865210538
2025-11-07 12:47:08.987794,-18177,2025-11-07 12:47:10.872902846
2025-11-07 12:47:08.987794,-1,2025-11-07 12:47:10.880595154
2025-11-07 12:47:08.987794,-84,2025-11-07 12:47:10.888287462
2025-11-07 12:47:08.987794,-19457,2025-11-07 12:47:10.895979769
2025-11-07 12:47:08.987794,-1,2025-11-07 12:47:10.903672077
2025-11-07 12:47:08.987794,-120,2025-11-07 12:47:10.911364385
2025-11-07 12:47:08.987794,4095,2025-11-07 12:47:10.919056692
2025-11-07 12:47:08.987794,-1,2025-11-07 12:47:10.926749000
2025-11-07 12:47:08.987794,-294,2025-11-07 12:47:10.934441308
2025-11-07 12:47:08.987794,-11265,2025-11-07 12:47:10.942133615
2025-11-07 12:47:08.987794,-1,2025-11-07 12:47:10.949825923
2025-11-07 12:47:08.987794,468,2025-11-07 12:47:10.957518231
2025-11-07 12:47:08.987794,-13824,2025-11-07 12:47:10.965210538
2025-11-07 12:47:08.987794,2,2025-11-07 12:47:10.972902846
2025-11-07 12:47:08.987794,265,2025-11-07 12:47:10.980595154
2025-11-07 12:47:08.987794,-23296,2025-11-07 12:47:10.988287462
2025-11-07 12:47:08.987794,-2,2025-11-07 12:47:10.995979769
2025-11-07 12:47:08.987794,-415,2025-11-07 12:47:11.003672077
2025-11-07 12:47:08.987794,11519,2025-11-07 12:47:11.011364385
2025-11-07 12:47:08.987794,-1,2025-11-07 12:47:11.019056692
2025-11-07 12:47:08.987794,-178,2025-11-07 12:47:11.026749000
2025-11-07 12:47:08.987794,14591,2025-11-07 12:47:11.034441308
2025-11-07 12:47:08.987794,-1,2025-11-07 12:47:11.042133615
2025-11-07 12:47:08.987794,-178,2025-11-07 12:47:11.049825923
2025-11-07 12:47:08.987794,18431,2025-11-07 12:47:11.057518231
2025-11-07 12:47:08.987794,-1,2025-11-07 12:47:11.065210538
2025-11-07 12:47:08.987794,-224,2025-11-07 12:47:11.072902846
2025-11-07 12:47:08.987794,5887,2025-11-07 12:47:11.080595154
2025-11-07 12:47:08.987794,-1,2025-11-07 12:47:11.088287462
2025-11-07 12:47:08.987794,-226,2025-11-07 12:47:11.095979769
2025-11-07 12:47:08.987794,7935,2025-11-07 12:47:11.103672077
2025-11-07 12:47:08.987794,-1,2025-11-07 12:47:11.111364385
2025-11-07 12:47:08.987794,-221,2025-11-07 12:47:11.119056692
2025-11-07 12:47:08.987794,11519,2025-11-07 12:47:11.126749000
2025-11-07 12:47:08.987794,-1,2025-11-07 12:47:11.134441308
2025-11-07 12:47:08.987794,-212,2025-11-07 12:47:11.142133615
2025-11-07 12:47:08.987794,11519,2025-11-07 12:47:11.149825923
2025-11-07 12:47:08.987794,-1,2025-11-07 12:47:11.157518230
2025-11-07 12:47:08.987794,-212,2025-11-07 12:47:11.165210538
2025-11-07 12:47:08.987794,7167,2025-11-07 12:47:11.172902846
2025-11-07 12:47:08.987794,-1,2025-11-07 12:47:11.180595154
2025-11-07 12:47:08.987794,-258,2025-11-07 12:47:11.188287462
2025-11-07 12:47:08.987794,-3329,2025-11-07 12:47:11.195979769
2025-11-07 12:47:08.987794,-2,2025-11-07 12:47:11.203672077
2025-11-07 12:47:08.987794,-258,2025-11-07 12:47:11.211364385
2025-11-07 12:47:08.987794,2303,2025-11-07 12:47:11.219056692
2025-11-07 12:47:08.987794,-1,2025-11-07 12:47:11.226749000
2025-11-07 12:47:08.987794,-250,2025-11-07 12:47:11.234441308
2025-11-07 12:47:08.987794,3583,2025-11-07 12:47:11.242133615
2025-11-07 12:47:08.987794,-1,2025-11-07 12:47:11.249825923
2025-11-07 12:47:08.987794,-229,2025-11-07 12:47:11.257518231
2025-11-07 12:47:08.987794,9727,2025-11-07 12:47:11.265210538
2025-11-07 12:47:08.987794,-1,2025-11-07 12:47:11.272902846
2025-11-07 12:47:08.987794,-224,2025-11-07 12:47:11.280595154
2025-11-07 12:47:08.987794,9727,2025-11-07 12:47:11.288287462
2025-11-07 12:47:08.987794,-1,2025-11-07 12:47:11.295979769
2025-11-07 12:47:08.987794,-209,2025-11-07 12:47:11.303672077
2025-11-07 12:47:08.987794,8447,2025-11-07 12:47:11.311364385
2025-11-07 12:47:08.987794,-1,2025-11-07 12:47:11.319056692
2025-11-07 12:47:08.987794,-248,2025-11-07 12:47:11.326749000
2025-11-07 12:47:08.987794,-2561,2025-11-07 12:47:11.334441308
2025-11-07 12:47:08.987794,-2,2025-11-07 12:47:11.342133615
2025-11-07 12:47:08.987794,-272,2025-11-07 12:47:11.349825923
2025-11-07 12:47:08.987794,-4609,2025-11-07 12:47:11.357518231
2025-11-07 12:47:08.987794,-2,2025-11-07 12:47:11.365210538
2025-11-07 12:47:08.987794,-282,2025-11-07 12:47:11.372902846
2025-11-07 12:47:08.987794,-7681,2025-11-07 12:47:11.380595154
2025-11-07 12:47:08.987794,-2,2025-11-07 12:47:11.388287462
2025-11-07 12:47:08.987794,-279,2025-11-07 12:47:11.395979769
2025-11-07 12:47:08.987794,-4609,2025-11-07 12:47:11.403672077
2025-11-07 12:47:08.987794,-2,2025-11-07 12:47:11.411364385
2025-11-07 12:47:08.987794,-270,2025-11-07 12:47:11.419056692
2025-11-07 12:47:08.987794,-1537,2025-11-07 12:47:11.426749000
2025-11-07 12:47:08.987794,-2,2025-11-07 12:47:11.434441308
2025-11-07 12:47:08.987794,-255,2025-11-07 12:47:11.442133615
2025-11-07 12:47:08.987794,2303,2025-11-07 12:47:11.449825923
2025-11-07 12:47:08.987794,-1,2025-11-07 12:47:11.457518231
2025-11-07 12:47:08.987794,-243,2025-11-07 12:47:11.465210538
2025-11-07 12:47:08.987794,8447,2025-11-07 12:47:11.472902846
2025-11-07 12:47:08.987794,-1,2025-11-07 12:47:11.480595154
2025-11-07 12:47:08.987794,-190,2025-11-07 12:47:11.488287462
2025-11-07 12:47:09.523700,-176,2025-11-07 12:47:11.495979769
2025-11-07 12:47:09.523700,20223,2025-11-07 12:47:11.503672077
2025-11-07 12:47:09.523700,-1,2025-11-07 12:47:11.511364385
2025-11-07 12:47:09.523700,-183,2025-11-07 12:47:11.519056692
2025-11-07 12:47:09.523700,20223,2025-11-07 12:47:11.526749000
2025-11-07 12:47:09.523700,-1,2025-11-07 12:47:11.534441308
2025-11-07 12:47:09.523700,-183,2025-11-07 12:47:11.542133615
2025-11-07 12:47:09.523700,14591,2025-11-07 12:47:11.549825923
2025-11-07 12:47:09.523700,-1,2025-11-07 12:47:11.557518231
2025-11-07 12:47:09.523700,-193,2025-11-07 12:47:11.565210538
2025-11-07 12:47:09.523700,20223,2025-11-07 12:47:11.572902846
2025-11-07 12:47:09.523700,-1,2025-11-07 12:47:11.580595154
2025-11-07 12:47:09.523700,-193,2025-11-07 12:47:11.588287462
2025-11-07 12:47:09.523700,15871,2025-11-07 12:47:11.595979769
2025-11-07 12:47:09.523700,-1,2025-11-07 12:47:11.603672077
2025-11-07 12:47:09.523700,-183,2025-11-07 12:47:11.611364385
2025-11-07 12:47:09.523700,1023,2025-11-07 12:47:11.619056692
2025-11-07 12:47:09.523700,-1,2025-11-07 12:47:11.626749000
2025-11-07 12:47:09.523700,-386,2025-11-07 12:47:11.634441308
2025-11-07 12:47:09.523700,-5121,2025-11-07 12:47:11.642133615
2025-11-07 12:47:09.523700,-2,2025-11-07 12:47:11.649825923
2025-11-07 12:47:09.523700,236,2025-11-07 12:47:11.657518231
2025-11-07 12:47:09.523700,-13824,2025-11-07 12:47:11.665210538
2025-11-07 12:47:09.523700,2,2025-11-07 12:47:11.672902846
2025-11-07 12:47:09.523700,526,2025-11-07 12:47:11.680595154
2025-11-07 12:47:09.523700,28672,2025-11-07 12:47:11.688287462
2025-11-07 12:47:09.523700,-1,2025-11-07 12:47:11.695979769
2025-11-07 12:47:09.523700,-431,2025-11-07 12:47:11.703672077
2025-11-07 12:47:09.523700,2815,2025-11-07 12:47:11.711364385
2025-11-07 12:47:09.523700,-1,2025-11-07 12:47:11.719056692
2025-11-07 12:47:09.523700,-142,2025-11-07 12:47:11.726749000
2025-11-07 12:47:09.523700,24575,2025-11-07 12:47:11.734441308
2025-11-07 12:47:09.523700,-1,2025-11-07 12:47:11.742133615
2025-11-07 12:47:09.523700,-142,2025-11-07 12:47:11.749825923
2025-11-07 12:47:09.523700,29439,2025-11-07 12:47:11.757518231
2025-11-07 12:47:09.523700,-1,2025-11-07 12:47:11.765210538
2025-11-07 12:47:09.523700,-154,2025-11-07 12:47:11.772902846
2025-11-07 12:47:09.523700,28927,2025-11-07 12:47:11.780595154
2025-11-07 12:47:09.523700,-1,2025-11-07 12:47:11.788287462
2025-11-07 12:47:09.523700,-142,2025-11-07 12:47:11.795979769
2025-11-07 12:47:09.523700,31231,2025-11-07 12:47:11.803672077
2025-11-07 12:47:09.523700,-1,2025-11-07 12:47:11.811364385
2025-11-07 12:47:09.523700,-113,2025-11-07 12:47:11.819056692
2025-11-07 12:47:09.523700,-26881,2025-11-07 12:47:11.826749000
2025-11-07 12:47:09.523700,-1,2025-11-07 12:47:11.834441308
2025-11-07 12:47:09.523700,-98,2025-11-07 12:47:11.842133615
2025-11-07 12:47:09.523700,-19969,2025-11-07 12:47:11.849825923
2025-11-07 12:47:09.523700,-1,2025-11-07 12:47:11.857518231
2025-11-07 12:47:09.523700,-77,2025-11-07 12:47:11.865210538
2025-11-07 12:47:09.523700,-21249,2025-11-07 12:47:11.872902846
2025-11-07 12:47:09.523700,-1,2025-11-07 12:47:11.880595154
2025-11-07 12:47:09.523700,-72,2025-11-07 12:47:11.888287462
2025-11-07 12:47:09.523700,-15105,2025-11-07 12:47:11.895979769
2025-11-07 12:47:09.523700,-1,2025-11-07 12:47:11.903672077
2025-11-07 12:47:09.523700,-55,2025-11-07 12:47:11.911364385
2025-11-07 12:47:09.523700,-9473,2025-11-07 12:47:11.919056692
2025-11-07 12:47:09.523700,-1,2025-11-07 12:47:11.926749000
2025-11-07 12:47:09.523700,-31,2025-11-07 12:47:11.934441308
2025-11-07 12:47:09.523700,-8193,2025-11-07 12:47:11.942133615
2025-11-07 12:47:09.523700,-1,2025-11-07 12:47:11.949825923
2025-11-07 12:47:09.523700,-28,2025-11-07 12:47:11.957518231
2025-11-07 12:47:09.523700,-5889,2025-11-07 12:47:11.965210538
2025-11-07 12:47:09.523700,-1,2025-11-07 12:47:11.972902846
2025-11-07 12:47:09.523700,-24,2025-11-07 12:47:11.980595154
2025-11-07 12:47:09.523700,-6401,2025-11-07 12:47:11.988287462
2025-11-07 12:47:09.523700,-1,2025-11-07 12:47:11.995979769
2025-11-07 12:47:09.523700,-33,2025-11-07 12:47:12.003672077
2025-11-07 12:47:09.523700,-10753,2025-11-07 12:47:12.011364385
2025-11-07 12:47:09.523700,-1,2025-11-07 12:47:12.019056692
2025-11-07 12:47:09.523700,-65,2025-11-07 12:47:12.026749000
2025-11-07 12:47:09.523700,-23041,2025-11-07 12:47:12.034441308
2025-11-07 12:47:09.523700,-1,2025-11-07 12:47:12.042133615
2025-11-07 12:47:09.523700,-101,2025-11-07 12:47:12.049825923
2025-11-07 12:47:09.523700,-28673,2025-11-07 12:47:12.057518231
2025-11-07 12:47:09.523700,-1,2025-11-07 12:47:12.065210538
2025-11-07 12:47:09.523700,-123,2025-11-07 12:47:12.072902846
2025-11-07 12:47:09.523700,-29953,2025-11-07 12:47:12.080595154
2025-11-07 12:47:09.523700,-1,2025-11-07 12:47:12.088287462
2025-11-07 12:47:09.523700,-115,2025-11-07 12:47:12.095979769
2025-11-07 12:47:09.523700,-27905,2025-11-07 12:47:12.103672077
2025-11-07 12:47:09.523700,-1,2025-11-07 12:47:12.111364385
2025-11-07 12:47:09.523700,-106,2025-11-07 12:47:12.119056692
2025-11-07 12:47:09.523700,-27905,2025-11-07 12:47:12.126749000
2025-11-07 12:47:09.523700,-1,2025-11-07 12:47:12.134441308
2025-11-07 12:47:09.523700,-123,2025-11-07 12:47:12.142133615
2025-11-07 12:47:09.523700,-31745,2025-11-07 12:47:12.149825923
2025-11-07 12:47:09.523700,-1,2025-11-07 12:47:12.157518230
2025-11-07 12:47:09.523700,-123,2025-11-07 12:47:12.165210538
2025-11-07 12:47:09.523700,-29185,2025-11-07 12:47:12.172902846
2025-11-07 12:47:09.523700,-1,2025-11-07 12:47:12.180595154
2025-11-07 12:47:09.523700,-84,2025-11-07 12:47:12.188287462
2025-11-07 12:47:09.523700,-14337,2025-11-07 12:47:12.195979769
2025-11-07 12:47:09.523700,-1,2025-11-07 12:47:12.203672077
2025-11-07 12:47:09.523700,-65,2025-11-07 12:47:12.211364385
2025-11-07 12:47:09.523700,-18177,2025-11-07 12:47:12.219056692
2025-11-07 12:47:09.523700,-1,2025-11-07 12:47:12.226749000
2025-11-07 12:47:09.523700,-65,2025-11-07 12:47:12.234441308
2025-11-07 12:47:09.523700,-16385,2025-11-07 12:47:12.242133615
2025-11-07 12:47:09.523700,-1,2025-11-07 12:47:12.249825923
2025-11-07 12:47:09.523700,-79,2025-11-07 12:47:12.257518231
2025-11-07 12:47:09.523700,-23041,2025-11-07 12:47:12.265210538
2025-11-07 12:47:09.523700,-1,2025-11-07 12:47:12.272902846
2025-11-07 12:47:09.523700,-96,2025-11-07 12:47:12.280595154
2025-11-07 12:47:09.523700,-21761,2025-11-07 12:47:12.288287462
2025-11-07 12:47:09.523700,-1,2025-11-07 12:47:12.295979769
2025-11-07 12:47:09.523700,-82,2025-11-07 12:47:12.303672077
2025-11-07 12:47:09.523700,-21761,2025-11-07 12:47:12.311364385
2025-11-07 12:47:09.523700,-1,2025-11-07 12:47:12.319056692
2025-11-07 12:47:09.523700,-132,2025-11-07 12:47:12.326749000
2025-11-07 12:47:10.095994,-246,2025-11-07 12:47:12.334441308
2025-11-07 12:47:10.095994,-12545,2025-11-07 12:47:12.342133615
2025-11-07 12:47:10.095994,-2,2025-11-07 12:47:12.349825923
2025-11-07 12:47:10.095994,-36,2025-11-07 12:47:12.357518231
2025-11-07 12:47:10.095994,9983,2025-11-07 12:47:12.365210538
2025-11-07 12:47:10.095994,2,2025-11-07 12:47:12.372902846
2025-11-07 12:47:10.095994,859,2025-11-07 12:47:12.380595154
2025-11-07 12:47:10.095994,-24320,2025-11-07 12:47:12.388287462
2025-11-07 12:47:10.095994,1,2025-11-07 12:47:12.395979769
2025-11-07 12:47:10.095994,-221,2025-11-07 12:47:12.403672077
2025-11-07 12:47:10.095994,-11265,2025-11-07 12:47:12.411364385
2025-11-07 12:47:10.095994,-2,2025-11-07 12:47:12.419056692
2025-11-07 12:47:10.095994,-94,2025-11-07 12:47:12.426749000
2025-11-07 12:47:10.095994,-19457,2025-11-07 12:47:12.434441308
2025-11-07 12:47:10.095994,-1,2025-11-07 12:47:12.442133615
2025-11-07 12:47:10.095994,-120,2025-11-07 12:47:12.449825923
2025-11-07 12:47:10.095994,-26113,2025-11-07 12:47:12.457518231
2025-11-07 12:47:10.095994,-1,2025-11-07 12:47:12.465210538
2025-11-07 12:47:10.095994,-103,2025-11-07 12:47:12.472902846
2025-11-07 12:47:10.095994,-29953,2025-11-07 12:47:12.480595154
2025-11-07 12:47:10.095994,-1,2025-11-07 12:47:12.488287462
2025-11-07 12:47:10.095994,-110,2025-11-07 12:47:12.495979769
2025-11-07 12:47:10.095994,-23809,2025-11-07 12:47:12.503672077
2025-11-07 12:47:10.095994,-1,2025-11-07 12:47:12.511364385
2025-11-07 12:47:10.095994,-96,2025-11-07 12:47:12.519056692
2025-11-07 12:47:10.095994,-24833,2025-11-07 12:47:12.526749000
2025-11-07 12:47:10.095994,-1,2025-11-07 12:47:12.534441308
2025-11-07 12:47:10.095994,-86,2025-11-07 12:47:12.542133615
2025-11-07 12:47:10.095994,-18177,2025-11-07 12:47:12.549825923
2025-11-07 12:47:10.095994,-1,2025-11-07 12:47:12.557518231
2025-11-07 12:47:10.095994,-65,2025-11-07 12:47:12.565210538
2025-11-07 12:47:10.095994,-16385,2025-11-07 12:47:12.572902846
2025-11-07 12:47:10.095994,-1,2025-11-07 12:47:12.580595154
2025-11-07 12:47:10.095994,-62,2025-11-07 12:47:12.588287462
2025-11-07 12:47:10.095994,-12033,2025-11-07 12:47:12.595979769
2025-11-07 12:47:10.095994,-1,2025-11-07 12:47:12.603672077
2025-11-07 12:47:10.095994,-38,2025-11-07 12:47:12.611364385
2025-11-07 12:47:10.095994,-9473,2025-11-07 12:47:12.619056692
2025-11-07 12:47:10.095994,-1,2025-11-07 12:47:12.626749000
2025-11-07 12:47:10.095994,-33,2025-11-07 12:47:12.634441308
2025-11-07 12:47:10.095994,-6913,2025-11-07 12:47:12.642133615
2025-11-07 12:47:10.095994,-1,2025-11-07 12:47:12.649825923
2025-11-07 12:47:10.095994,-33,2025-11-07 12:47:12.657518231
2025-11-07 12:47:10.095994,-9473,2025-11-07 12:47:12.665210538
2025-11-07 12:47:10.095994,-1,2025-11-07 12:47:12.672902846
2025-11-07 12:47:10.095994,-36,2025-11-07 12:47:12.680595154
2025-11-07 12:47:10.095994,-7681,2025-11-07 12:47:12.688287462
2025-11-07 12:47:10.095994,-1,2025-11-07 12:47:12.695979769
2025-11-07 12:47:10.095994,-36,2025-11-07 12:47:12.703672077
2025-11-07 12:47:10.095994,-13825,2025-11-07 12:47:12.711364385
2025-11-07 12:47:10.095994,-1,2025-11-07 12:47:12.719056692
2025-11-07 12:47:10.095994,-74,2025-11-07 12:47:12.726749000
2025-11-07 12:47:10.095994,-21761,2025-11-07 12:47:12.734441308
2025-11-07 12:47:10.095994,-1,2025-11-07 12:47:12.742133615
2025-11-07 12:47:10.095994,-94,2025-11-07 12:47:12.749825923
2025-11-07 12:47:10.095994,-28673,2025-11-07 12:47:12.757518231
2025-11-07 12:47:10.095994,-1,2025-11-07 12:47:12.765210538
2025-11-07 12:47:10.095994,-137,2025-11-07 12:47:12.772902846
2025-11-07 12:47:10.095994,30207,2025-11-07 12:47:12.780595154
2025-11-07 12:47:10.095994,-1,2025-11-07 12:47:12.788287462
2025-11-07 12:47:10.095994,-130,2025-11-07 12:47:12.795979769
2025-11-07 12:47:10.095994,-31233,2025-11-07 12:47:12.803672077
2025-11-07 12:47:10.095994,-1,2025-11-07 12:47:12.811364385
2025-11-07 12:47:10.095994,-137,2025-11-07 12:47:12.819056692
2025-11-07 12:47:10.095994,28927,2025-11-07 12:47:12.826749000
2025-11-07 12:47:10.095994,-1,2025-11-07 12:47:12.834441308
2025-11-07 12:47:10.095994,-127,2025-11-07 12:47:12.842133615
2025-11-07 12:47:10.095994,-31233,2025-11-07 12:47:12.849825923
2025-11-07 12:47:10.095994,-1,2025-11-07 12:47:12.857518231
2025-11-07 12:47:10.095994,-135,2025-11-07 12:47:12.865210538
2025-11-07 12:47:10.095994,29439,2025-11-07 12:47:12.872902846
2025-11-07 12:47:10.095994,-1,2025-11-07 12:47:12.880595154
2025-11-07 12:47:10.095994,-139,2025-11-07 12:47:12.888287462
2025-11-07 12:47:10.095994,31999,2025-11-07 12:47:12.895979769
2025-11-07 12:47:10.095994,-1,2025-11-07 12:47:12.903672077
2025-11-07 12:47:10.095994,-113,2025-11-07 12:47:12.911364385
2025-11-07 12:47:10.095994,-23809,2025-11-07 12:47:12.919056692
2025-11-07 12:47:10.095994,-1,2025-11-07 12:47:12.926749000
2025-11-07 12:47:10.095994,-98,2025-11-07 12:47:12.934441308
2025-11-07 12:47:10.095994,-29953,2025-11-07 12:47:12.942133615
2025-11-07 12:47:10.095994,-1,2025-11-07 12:47:12.949825923
2025-11-07 12:47:10.095994,-130,2025-11-07 12:47:12.957518231
2025-11-07 12:47:10.095994,31231,2025-11-07 12:47:12.965210538
2025-11-07 12:47:10.095994,-1,2025-11-07 12:47:12.972902846
2025-11-07 12:47:10.095994,-142,2025-11-07 12:47:12.980595154
2025-11-07 12:47:10.095994,26367,2025-11-07 12:47:12.988287462
2025-11-07 12:47:10.095994,-1,2025-11-07 12:47:12.995979769
2025-11-07 12:47:10.095994,-159,2025-11-07 12:47:13.003672077
2025-11-07 12:47:10.095994,25087,2025-11-07 12:47:13.011364385
2025-11-07 12:47:10.095994,-1,2025-11-07 12:47:13.019056692
2025-11-07 12:47:10.095994,-164,2025-11-07 12:47:13.026749000
2025-11-07 12:47:10.095994,22783,2025-11-07 12:47:13.034441308
2025-11-07 12:47:10.095994,-1,2025-11-07 12:47:13.042133615
2025-11-07 12:47:10.095994,-234,2025-11-07 12:47:13.049825923
2025-11-07 12:47:10.095994,-31745,2025-11-07 12:47:13.057518231
2025-11-07 12:47:10.095994,-2,2025-11-07 12:47:13.065210538
2025-11-07 12:47:10.095994,-366,2025-11-07 12:47:13.072902846
2025-11-07 12:47:10.095994,13055,2025-11-07 12:47:13.080595154
2025-11-07 12:47:10.095994,0,2025-11-07 12:47:13.088287462
2025-11-07 12:47:10.095994,637,2025-11-07 12:47:13.095979769
2025-11-07 12:47:10.095994,-5120,2025-11-07 12:47:13.103672077
2025-11-07 12:47:10.095994,2,2025-11-07 12:47:13.111364385
2025-11-07 12:47:10.095994,156,2025-11-07 12:47:13.119056692
2025-11-07 12:47:10.095994,30464,2025-11-07 12:47:13.126749000
2025-11-07 12:47:10.095994,-2,2025-11-07 12:47:13.134441308
2025-11-07 12:47:10.095994,-352,2025-11-07 12:47:13.142133615
2025-11-07 12:47:10.095994,18431,2025-11-07 12:47:13.149825923
2025-11-07 12:47:10.095994,-1,2025-11-07 12:47:13.157518230
2025-11-07 12:47:10.095994,-236,2025-11-07 12:47:13.165210538
2025-11-07 12:47:10.627146,-275,2025-11-07 12:47:13.172902846
2025-11-07 12:47:10.627146,-3841,2025-11-07 12:47:13.180595154
2025-11-07 12:47:10.627146,-2,2025-11-07 12:47:13.188287462
2025-11-07 12:47:10.627146,-349,2025-11-07 12:47:13.195979769
2025-11-07 12:47:10.627146,18431,2025-11-07 12:47:13.203672077
2025-11-07 12:47:10.627146,-2,2025-11-07 12:47:13.211364385
2025-11-07 12:47:10.627146,-499,2025-11-07 12:47:13.219056692
2025-11-07 12:47:10.627146,-5633,2025-11-07 12:47:13.226749000
2025-11-07 12:47:10.627146,-3,2025-11-07 12:47:13.234441308
2025-11-07 12:47:10.627146,-526,2025-11-07 12:47:13.242133615
2025-11-07 12:47:10.627146,1791,2025-11-07 12:47:13.249825923
2025-11-07 12:47:10.627146,-2,2025-11-07 12:47:13.257518231
2025-11-07 12:47:10.627146,-506,2025-11-07 12:47:13.265210538
2025-11-07 12:47:10.627146,6143,2025-11-07 12:47:13.272902846
2025-11-07 12:47:10.627146,-2,2025-11-07 12:47:13.280595154
2025-11-07 12:47:10.627146,-465,2025-11-07 12:47:13.288287462
2025-11-07 12:47:10.627146,11007,2025-11-07 12:47:13.295979769
2025-11-07 12:47:10.627146,-2,2025-11-07 12:47:13.303672077
2025-11-07 12:47:10.627146,-482,2025-11-07 12:47:13.311364385
2025-11-07 12:47:10.627146,12799,2025-11-07 12:47:13.319056692
2025-11-07 12:47:10.627146,-2,2025-11-07 12:47:13.326749000
2025-11-07 12:47:10.627146,-443,2025-11-07 12:47:13.334441308
2025-11-07 12:47:10.627146,8447,2025-11-07 12:47:13.342133615
2025-11-07 12:47:10.627146,-2,2025-11-07 12:47:13.349825923
2025-11-07 12:47:10.627146,-521,2025-11-07 12:47:13.357518231
2025-11-07 12:47:10.627146,3071,2025-11-07 12:47:13.365210538
2025-11-07 12:47:10.627146,-2,2025-11-07 12:47:13.372902846
2025-11-07 12:47:10.627146,-489,2025-11-07 12:47:13.380595154
2025-11-07 12:47:10.627146,1023,2025-11-07 12:47:13.388287462
2025-11-07 12:47:10.627146,-2,2025-11-07 12:47:13.395979769
2025-11-07 12:47:10.627146,-487,2025-11-07 12:47:13.403672077
2025-11-07 12:47:10.627146,12287,2025-11-07 12:47:13.411364385
2025-11-07 12:47:10.627146,-2,2025-11-07 12:47:13.419056692
2025-11-07 12:47:10.627146,-482,2025-11-07 12:47:13.426749000
2025-11-07 12:47:10.627146,7423,2025-11-07 12:47:13.434441308
2025-11-07 12:47:10.627146,-2,2025-11-07 12:47:13.442133615
2025-11-07 12:47:10.627146,-468,2025-11-07 12:47:13.449825923
2025-11-07 12:47:10.627146,8447,2025-11-07 12:47:13.457518231
2025-11-07 12:47:10.627146,-2,2025-11-07 12:47:13.465210538
2025-11-07 12:47:10.627146,-499,2025-11-07 12:47:13.472902846
2025-11-07 12:47:10.627146,3071,2025-11-07 12:47:13.480595154
2025-11-07 12:47:10.627146,-2,2025-11-07 12:47:13.488287462
2025-11-07 12:47:10.627146,-492,2025-11-07 12:47:13.495979769
2025-11-07 12:47:10.627146,6655,2025-11-07 12:47:13.503672077
2025-11-07 12:47:10.627146,-2,2025-11-07 12:47:13.511364385
2025-11-07 12:47:10.627146,-489,2025-11-07 12:47:13.519056692
2025-11-07 12:47:10.627146,5375,2025-11-07 12:47:13.526749000
2025-11-07 12:47:10.627146,-2,2025-11-07 12:47:13.534441308
2025-11-07 12:47:10.627146,-501,2025-11-07 12:47:13.542133615
2025-11-07 12:47:10.627146,-3329,2025-11-07 12:47:13.549825923
2025-11-07 12:47:10.627146,-3,2025-11-07 12:47:13.557518231
2025-11-07 12:47:10.627146,-530,2025-11-07 12:47:13.565210538
2025-11-07 12:47:10.627146,-3841,2025-11-07 12:47:13.572902846
2025-11-07 12:47:10.627146,-3,2025-11-07 12:47:13.580595154
2025-11-07 12:47:10.627146,-533,2025-11-07 12:47:13.588287462
2025-11-07 12:47:10.627146,-1281,2025-11-07 12:47:13.595979769
2025-11-07 12:47:10.627146,-3,2025-11-07 12:47:13.603672077
2025-11-07 12:47:10.627146,-499,2025-11-07 12:47:13.611364385
2025-11-07 12:47:10.627146,3583,2025-11-07 12:47:13.619056692
2025-11-07 12:47:10.627146,-2,2025-11-07 12:47:13.626749000
2025-11-07 12:47:10.627146,-506,2025-11-07 12:47:13.634441308
2025-11-07 12:47:10.627146,6655,2025-11-07 12:47:13.642133615
2025-11-07 12:47:10.627146,-2,2025-11-07 12:47:13.649825923
2025-11-07 12:47:10.627146,-448,2025-11-07 12:47:13.657518231
2025-11-07 12:47:10.627146,18943,2025-11-07 12:47:13.665210538
2025-11-07 12:47:10.627146,-2,2025-11-07 12:47:13.672902846
2025-11-07 12:47:10.627146,-463,2025-11-07 12:47:13.680595154
2025-11-07 12:47:10.627146,9727,2025-11-07 12:47:13.688287462
2025-11-07 12:47:10.627146,-2,2025-11-07 12:47:13.695979769
2025-11-07 12:47:10.627146,-470,2025-11-07 12:47:13.703672077
2025-11-07 12:47:10.627146,10495,2025-11-07 12:47:13.711364385
2025-11-07 12:47:10.627146,-2,2025-11-07 12:47:13.719056692
2025-11-07 12:47:10.627146,-482,2025-11-07 12:47:13.726749000
2025-11-07 12:47:10.627146,6143,2025-11-07 12:47:13.734441308
2025-11-07 12:47:10.627146,-2,2025-11-07 12:47:13.742133615
2025-11-07 12:47:10.627146,-489,2025-11-07 12:47:13.749825923
2025-11-07 12:47:10.627146,7423,2025-11-07 12:47:13.757518231
2025-11-07 12:47:10.627146,-2,2025-11-07 12:47:13.765210538
2025-11-07 12:47:10.627146,-487,2025-11-07 12:47:13.772902846
2025-11-07 12:47:10.627146,-8193,2025-11-07 12:47:13.780595154
2025-11-07 12:47:10.627146,-3,2025-11-07 12:47:13.788287462
2025-11-07 12:47:10.627146,-682,2025-11-07 12:47:13.795979769
2025-11-07 12:47:10.627146,18431,2025-11-07 12:47:13.803672077
2025-11-07 12:47:10.627146,-3,2025-11-07 12:47:13.811364385
2025-11-07 12:47:10.627146,-330,2025-11-07 12:47:13.819056692
2025-11-07 12:47:10.627146,2047,2025-11-07 12:47:13.826749000
2025-11-07 12:47:10.627146,1,2025-11-07 12:47:13.834441308
2025-11-07 12:47:10.627146,487,2025-11-07 12:47:13.842133615
2025-11-07 12:47:10.627146,-3072,2025-11-07 12:47:13.849825923
2025-11-07 12:47:10.627146,-1,2025-11-07 12:47:13.857518231
2025-11-07 12:47:10.627146,-678,2025-11-07 12:47:13.865210538
2025-11-07 12:47:10.627146,-16129,2025-11-07 12:47:13.872902846
2025-11-07 12:47:10.627146,-4,2025-11-07 12:47:13.880595154
2025-11-07 12:47:10.627146,-726,2025-11-07 12:47:13.888287462
2025-11-07 12:47:10.627146,5375,2025-11-07 12:47:13.895979769
2025-11-07 12:47:10.627146,-3,2025-11-07 12:47:13.903672077
2025-11-07 12:47:10.627146,-793,2025-11-07 12:47:13.911364385
2025-11-07 12:47:10.627146,-3073,2025-11-07 12:47:13.919056692
2025-11-07 12:47:10.627146,-4,2025-11-07 12:47:13.926749000
2025-11-07 12:47:10.627146,-796,2025-11-07 12:47:13.934441308
2025-11-07 12:47:10.627146,-16641,2025-11-07 12:47:13.942133615
2025-11-07 12:47:10.627146,-4,2025-11-07 12:47:13.949825923
2025-11-07 12:47:10.627146,-839,2025-11-07 12:47:13.957518231
2025-11-07 12:47:10.627146,-19713,2025-11-07 12:47:13.965210538
2025-11-07 12:47:10.627146,-4,2025-11-07 12:47:13.972902846
2025-11-07 12:47:10.627146,-856,2025-11-07 12:47:13.980595154
2025-11-07 12:47:10.627146,-17409,2025-11-07 12:47:13.988287462
2025-11-07 12:47:10.627146,-4,2025-11-07 12:47:13.995979769
2025-11-07 12:47:10.627146,-827,2025-11-07 12:47:14.003672077
2025-11-07 12:47:11.208538,-837,2025-11-07 12:47:14.011364385
2025-11-07 12:47:11.208538,-12289,2025-11-07 12:47:14.019056692
2025-11-07 12:47:11.208538,-4,2025-11-07 12:47:14.026749000
2025-11-07 12:47:11.208538,-793,2025-11-07 12:47:14.034441308
2025-11-07 12:47:11.208538,-4353,2025-11-07 12:47:14.042133615
2025-11-07 12:47:11.208538,-4,2025-11-07 12:47:14.049825923
2025-11-07 12:47:11.208538,-781,2025-11-07 12:47:14.057518231
2025-11-07 12:47:11.208538,-2561,2025-11-07 12:47:14.065210538
2025-11-07 12:47:11.208538,-4,2025-11-07 12:47:14.072902846
2025-11-07 12:47:11.208538,-767,2025-11-07 12:47:14.080595154
2025-11-07 12:47:11.208538,7935,2025-11-07 12:47:14.088287462
2025-11-07 12:47:11.208538,-3,2025-11-07 12:47:14.095979769
2025-11-07 12:47:11.208538,-745,2025-11-07 12:47:14.103672077
2025-11-07 12:47:11.208538,-4353,2025-11-07 12:47:14.111364385
2025-11-07 12:47:11.208538,-4,2025-11-07 12:47:14.119056692
2025-11-07 12:47:11.208538,-801,2025-11-07 12:47:14.126749000
2025-11-07 12:47:11.208538,-7425,2025-11-07 12:47:14.134441308
2025-11-07 12:47:11.208538,-4,2025-11-07 12:47:14.142133615
2025-11-07 12:47:11.208538,-803,2025-11-07 12:47:14.149825923
2025-11-07 12:47:11.208538,-8193,2025-11-07 12:47:14.157518230
2025-11-07 12:47:11.208538,-4,2025-11-07 12:47:14.165210538
2025-11-07 12:47:11.208538,-789,2025-11-07 12:47:14.172902846
2025-11-07 12:47:11.208538,-7425,2025-11-07 12:47:14.180595154
2025-11-07 12:47:11.208538,-4,2025-11-07 12:47:14.188287462
2025-11-07 12:47:11.208538,-822,2025-11-07 12:47:14.195979769
2025-11-07 12:47:11.208538,-19201,2025-11-07 12:47:14.203672077
2025-11-07 12:47:11.208538,-4,2025-11-07 12:47:14.211364385
2025-11-07 12:47:11.208538,-863,2025-11-07 12:47:14.219056692
2025-11-07 12:47:11.208538,-25345,2025-11-07 12:47:14.226749000
2025-11-07 12:47:11.208538,-4,2025-11-07 12:47:14.234441308
2025-11-07 12:47:11.208538,-854,2025-11-07 12:47:14.242133615
2025-11-07 12:47:11.208538,-17921,2025-11-07 12:47:14.249825923
2025-11-07 12:47:11.208538,-4,2025-11-07 12:47:14.257518231
2025-11-07 12:47:11.208538,-839,2025-11-07 12:47:14.265210538
2025-11-07 12:47:11.208538,-18689,2025-11-07 12:47:14.272902846
2025-11-07 12:47:11.208538,-4,2025-11-07 12:47:14.280595154
2025-11-07 12:47:11.208538,-832,2025-11-07 12:47:14.288287462
2025-11-07 12:47:11.208538,-14849,2025-11-07 12:47:14.295979769
2025-11-07 12:47:11.208538,-4,2025-11-07 12:47:14.303672077
2025-11-07 12:47:11.208538,-830,2025-11-07 12:47:14.311364385
2025-11-07 12:47:11.208538,-14849,2025-11-07 12:47:14.319056692
2025-11-07 12:47:11.208538,-4,2025-11-07 12:47:14.326749000
2025-11-07 12:47:11.208538,-805,2025-11-07 12:47:14.334441308
2025-11-07 12:47:11.208538,-1281,2025-11-07 12:47:14.342133615
2025-11-07 12:47:11.208538,-4,2025-11-07 12:47:14.349825923
2025-11-07 12:47:11.208538,-757,2025-11-07 12:47:14.357518231
2025-11-07 12:47:11.208538,3583,2025-11-07 12:47:14.365210538
2025-11-07 12:47:11.208538,-3,2025-11-07 12:47:14.372902846
2025-11-07 12:47:11.208538,-743,2025-11-07 12:47:14.380595154
2025-11-07 12:47:11.208538,11007,2025-11-07 12:47:14.388287462
2025-11-07 12:47:11.208538,-3,2025-11-07 12:47:14.395979769
2025-11-07 12:47:11.208538,-714,2025-11-07 12:47:14.403672077
2025-11-07 12:47:11.208538,20991,2025-11-07 12:47:14.411364385
2025-11-07 12:47:11.208538,-3,2025-11-07 12:47:14.419056692
2025-11-07 12:47:11.208538,-644,2025-11-07 12:47:14.426749000
2025-11-07 12:47:11.208538,-26113,2025-11-07 12:47:14.434441308
2025-11-07 12:47:11.208538,-3,2025-11-07 12:47:14.442133615
2025-11-07 12:47:11.208538,-617,2025-11-07 12:47:14.449825923
2025-11-07 12:47:11.208538,-24321,2025-11-07 12:47:14.457518231
2025-11-07 12:47:11.208538,-3,2025-11-07 12:47:14.465210538
2025-11-07 12:47:11.208538,-574,2025-11-07 12:47:14.472902846
2025-11-07 12:47:11.208538,-12545,2025-11-07 12:47:14.480595154
2025-11-07 12:47:11.208538,-3,2025-11-07 12:47:14.488287462
2025-11-07 12:47:11.208538,-559,2025-11-07 12:47:14.495979769
2025-11-07 12:47:11.208538,-5633,2025-11-07 12:47:14.503672077
2025-11-07 12:47:11.208538,-3,2025-11-07 12:47:14.511364385
2025-11-07 12:47:11.208538,-511,2025-11-07 12:47:14.519056692
2025-11-07 12:47:11.208538,4863,2025-11-07 12:47:14.526749000
2025-11-07 12:47:11.208538,-2,2025-11-07 12:47:14.534441308
2025-11-07 12:47:11.208538,-484,2025-11-07 12:47:14.542133615
2025-11-07 12:47:11.208538,-9473,2025-11-07 12:47:14.549825923
2025-11-07 12:47:11.208538,-3,2025-11-07 12:47:14.557518231
2025-11-07 12:47:11.208538,-670,2025-11-07 12:47:14.565210538
2025-11-07 12:47:11.208538,-14337,2025-11-07 12:47:14.572902846
2025-11-07 12:47:11.208538,-3,2025-11-07 12:47:14.580595154
2025-11-07 12:47:11.208538,-65,2025-11-07 12:47:14.588287462
2025-11-07 12:47:11.208538,1279,2025-11-07 12:47:14.595979769
2025-11-07 12:47:11.208538,2,2025-11-07 12:47:14.603672077
2025-11-07 12:47:11.208538,550,2025-11-07 12:47:14.611364385
2025-11-07 12:47:11.208538,-16640,2025-11-07 12:47:14.619056692
2025-11-07 12:47:11.208538,-1,2025-11-07 12:47:14.626749000
2025-11-07 12:47:11.208538,-538,2025-11-07 12:47:14.634441308
2025-11-07 12:47:11.208538,16639,2025-11-07 12:47:14.642133615
2025-11-07 12:47:11.208538,-2,2025-11-07 12:47:14.649825923
2025-11-07 12:47:11.208538,-301,2025-11-07 12:47:14.657518231
2025-11-07 12:47:11.208538,-18689,2025-11-07 12:47:14.665210538
2025-11-07 12:47:11.208538,-2,2025-11-07 12:47:14.672902846
2025-11-07 12:47:11.208538,-323,2025-11-07 12:47:14.680595154
2025-11-07 12:47:11.208538,-2561,2025-11-07 12:47:14.688287462
2025-11-07 12:47:11.208538,-2,2025-11-07 12:47:14.695979769
2025-11-07 12:47:11.208538,-248,2025-11-07 12:47:14.703672077
2025-11-07 12:47:11.208538,2815,2025-11-07 12:47:14.711364385
2025-11-07 12:47:11.208538,-1,2025-11-07 12:47:14.719056692
2025-11-07 12:47:11.208538,-224,2025-11-07 12:47:14.726749000
2025-11-07 12:47:11.208538,22015,2025-11-07 12:47:14.734441308
2025-11-07 12:47:11.208538,-1,2025-11-07 12:47:14.742133615
2025-11-07 12:47:11.208538,-98,2025-11-07 12:47:14.749825923
2025-11-07 12:47:11.208538,-12033,2025-11-07 12:47:14.757518231
2025-11-07 12:47:11.208538,-1,2025-11-07 12:47:14.765210538
2025-11-07 12:47:11.208538,-26,2025-11-07 12:47:14.772902846
2025-11-07 12:47:11.208538,-3329,2025-11-07 12:47:14.780595154
2025-11-07 12:47:11.208538,-1,2025-11-07 12:47:14.788287462
2025-11-07 12:47:11.208538,16,2025-11-07 12:47:14.795979769
2025-11-07 12:47:11.208538,14080,2025-11-07 12:47:14.803672077
2025-11-07 12:47:11.208538,0,2025-11-07 12:47:14.811364385
2025-11-07 12:47:11.208538,72,2025-11-07 12:47:14.819056692
2025-11-07 12:47:11.208538,16640,2025-11-07 12:47:14.826749000
2025-11-07 12:47:11.208538,0,2025-11-07 12:47:14.834441308
2025-11-07 12:47:11.208538,65,2025-11-07 12:47:14.842133615
2025-11-07 12:47:11.746745,79,2025-11-07 12:47:14.849825923
2025-11-07 12:47:11.746745,23296,2025-11-07 12:47:14.857518231
2025-11-07 12:47:11.746745,0,2025-11-07 12:47:14.865210538
2025-11-07 12:47:11.746745,89,2025-11-07 12:47:14.872902846
2025-11-07 12:47:11.746745,28928,2025-11-07 12:47:14.880595154
2025-11-07 12:47:11.746745,0,2025-11-07 12:47:14.888287462
2025-11-07 12:47:11.746745,137,2025-11-07 12:47:14.895979769
2025-11-07 12:47:11.746745,-31744,2025-11-07 12:47:14.903672077
2025-11-07 12:47:11.746745,0,2025-11-07 12:47:14.911364385
2025-11-07 12:47:11.746745,147,2025-11-07 12:47:14.919056692
2025-11-07 12:47:11.746745,-17408,2025-11-07 12:47:14.926749000
2025-11-07 12:47:11.746745,0,2025-11-07 12:47:14.934441308
2025-11-07 12:47:11.746745,209,2025-11-07 12:47:14.942133615
2025-11-07 12:47:11.746745,-15616,2025-11-07 12:47:14.949825923
2025-11-07 12:47:11.746745,0,2025-11-07 12:47:14.957518231
2025-11-07 12:47:11.746745,178,2025-11-07 12:47:14.965210538
2025-11-07 12:47:11.746745,-18688,2025-11-07 12:47:14.972902846
2025-11-07 12:47:11.746745,0,2025-11-07 12:47:14.980595154
2025-11-07 12:47:11.746745,171,2025-11-07 12:47:14.988287462
2025-11-07 12:47:11.746745,-31744,2025-11-07 12:47:14.995979769
2025-11-07 12:47:11.746745,0,2025-11-07 12:47:15.003672077
2025-11-07 12:47:11.746745,120,2025-11-07 12:47:15.011364385
2025-11-07 12:47:11.746745,30720,2025-11-07 12:47:15.019056692
2025-11-07 12:47:11.746745,0,2025-11-07 12:47:15.026749000
2025-11-07 12:47:11.746745,96,2025-11-07 12:47:15.034441308
2025-11-07 12:47:11.746745,20224,2025-11-07 12:47:15.042133615
2025-11-07 12:47:11.746745,0,2025-11-07 12:47:15.049825923
2025-11-07 12:47:11.746745,84,2025-11-07 12:47:15.057518231
2025-11-07 12:47:11.746745,20992,2025-11-07 12:47:15.065210538
2025-11-07 12:47:11.746745,0,2025-11-07 12:47:15.072902846
2025-11-07 12:47:11.746745,65,2025-11-07 12:47:15.080595154
2025-11-07 12:47:11.746745,14592,2025-11-07 12:47:15.088287462
2025-11-07 12:47:11.746745,0,2025-11-07 12:47:15.095979769
2025-11-07 12:47:11.746745,62,2025-11-07 12:47:15.103672077
2025-11-07 12:47:11.746745,16640,2025-11-07 12:47:15.111364385
2025-11-07 12:47:11.746745,0,2025-11-07 12:47:15.119056692
2025-11-07 12:47:11.746745,50,2025-11-07 12:47:15.126749000
2025-11-07 12:47:11.746745,11008,2025-11-07 12:47:15.134441308
2025-11-07 12:47:11.746745,0,2025-11-07 12:47:15.142133615
2025-11-07 12:47:11.746745,57,2025-11-07 12:47:15.149825923
2025-11-07 12:47:11.746745,18944,2025-11-07 12:47:15.157518230
2025-11-07 12:47:11.746745,0,2025-11-07 12:47:15.165210538
2025-11-07 12:47:11.746745,86,2025-11-07 12:47:15.172902846
2025-11-07 12:47:11.746745,20224,2025-11-07 12:47:15.180595154
2025-11-07 12:47:11.746745,0,2025-11-07 12:47:15.188287462
2025-11-07 12:47:11.746745,60,2025-11-07 12:47:15.195979769
2025-11-07 12:47:11.746745,13568,2025-11-07 12:47:15.203672077
2025-11-07 12:47:11.746745,0,2025-11-07 12:47:15.211364385
2025-11-07 12:47:11.746745,50,2025-11-07 12:47:15.219056692
2025-11-07 12:47:11.746745,10496,2025-11-07 12:47:15.226749000
2025-11-07 12:47:11.746745,0,2025-11-07 12:47:15.234441308
2025-11-07 12:47:11.746745,26,2025-11-07 12:47:15.242133615
2025-11-07 12:47:11.746745,4096,2025-11-07 12:47:15.249825923
2025-11-07 12:47:11.746745,0,2025-11-07 12:47:15.257518231
2025-11-07 12:47:11.746745,19,2025-11-07 12:47:15.265210538
2025-11-07 12:47:11.746745,6144,2025-11-07 12:47:15.272902846
2025-11-07 12:47:11.746745,0,2025-11-07 12:47:15.280595154
2025-11-07 12:47:11.746745,2,2025-11-07 12:47:15.288287462
2025-11-07 12:47:11.746745,-18432,2025-11-07 12:47:15.295979769
2025-11-07 12:47:11.746745,-1,2025-11-07 12:47:15.303672077
2025-11-07 12:47:11.746745,-190,2025-11-07 12:47:15.311364385
2025-11-07 12:47:11.746745,31999,2025-11-07 12:47:15.319056692
2025-11-07 12:47:11.746745,-1,2025-11-07 12:47:15.326749000
2025-11-07 12:47:11.746745,318,2025-11-07 12:47:15.334441308
2025-11-07 12:47:11.746745,24320,2025-11-07 12:47:15.342133615
2025-11-07 12:47:11.746745,3,2025-11-07 12:47:15.349825923
2025-11-07 12:47:11.746745,822,2025-11-07 12:47:15.357518231
2025-11-07 12:47:11.746745,-28672,2025-11-07 12:47:15.365210538
2025-11-07 12:47:11.746745,0,2025-11-07 12:47:15.372902846
2025-11-07 12:47:11.746745,-282,2025-11-07 12:47:15.380595154
2025-11-07 12:47:11.746745,30719,2025-11-07 12:47:15.388287462
2025-11-07 12:47:11.746745,-1,2025-11-07 12:47:15.395979769
2025-11-07 12:47:11.746745,2,2025-11-07 12:47:15.403672077
2025-11-07 12:47:11.746745,-7936,2025-11-07 12:47:15.411364385
2025-11-07 12:47:11.746745,-1,2025-11-07 12:47:15.419056692
2025-11-07 12:47:11.746745,-36,2025-11-07 12:47:15.426749000
2025-11-07 12:47:11.746745,-3841,2025-11-07 12:47:15.434441308
2025-11-07 12:47:11.746745,-1,2025-11-07 12:47:15.442133615
2025-11-07 12:47:11.746745,-24,2025-11-07 12:47:15.449825923
2025-11-07 12:47:11.746745,-8193,2025-11-07 12:47:15.457518231
2025-11-07 12:47:11.746745,-1,2025-11-07 12:47:15.465210538
2025-11-07 12:47:11.746745,-33,2025-11-07 12:47:15.472902846
2025-11-07 12:47:11.746745,-6913,2025-11-07 12:47:15.480595154
2025-11-07 12:47:11.746745,-1,2025-11-07 12:47:15.488287462
2025-11-07 12:47:11.746745,-21,2025-11-07 12:47:15.495979769
2025-11-07 12:47:11.746745,-4609,2025-11-07 12:47:15.503672077
2025-11-07 12:47:11.746745,-1,2025-11-07 12:47:15.511364385
2025-11-07 12:47:11.746745,-14,2025-11-07 12:47:15.519056692
2025-11-07 12:47:11.746745,-3329,2025-11-07 12:47:15.526749000
2025-11-07 12:47:11.746745,-1,2025-11-07 12:47:15.534441308
2025-11-07 12:47:11.746745,-19,2025-11-07 12:47:15.542133615
2025-11-07 12:47:11.746745,-5889,2025-11-07 12:47:15.549825923
2025-11-07 12:47:11.746745,-1,2025-11-07 12:47:15.557518231
2025-11-07 12:47:11.746745,-21,2025-11-07 12:47:15.565210538
2025-11-07 12:47:11.746745,-6913,2025-11-07 12:47:15.572902846
2025-11-07 12:47:11.746745,-1,2025-11-07 12:47:15.580595154
2025-11-07 12:47:11.746745,-36,2025-11-07 12:47:15.588287462
2025-11-07 12:47:11.746745,-8193,2025-11-07 12:47:15.595979769
2025-11-07 12:47:11.746745,-1,2025-11-07 12:47:15.603672077
2025-11-07 12:47:11.746745,-12,2025-11-07 12:47:15.611364385
2025-11-07 12:47:11.746745,767,2025-11-07 12:47:15.619056692
2025-11-07 12:47:11.746745,0,2025-11-07 12:47:15.626749000
2025-11-07 12:47:11.746745,-4,2025-11-07 12:47:15.634441308
2025-11-07 12:47:11.746745,-2049,2025-11-07 12:47:15.642133615
2025-11-07 12:47:11.746745,-1,2025-11-07 12:47:15.649825923
2025-11-07 12:47:11.746745,2,2025-11-07 12:47:15.657518231
2025-11-07 12:47:11.746745,1792,2025-11-07 12:47:15.665210538
2025-11-07 12:47:11.746745,0,2025-11-07 12:47:15.672902846
2025-11-07 12:47:11.746745,-7,2025-11-07 12:47:15.680595154
2025-11-07 12:47:12.346739,-16,2025-11-07 12:47:15.688287462
2025-11-07 12:47:12.346739,-3841,2025-11-07 12:47:15.695979769
2025-11-07 12:47:12.346739,-1,2025-11-07 12:47:15.703672077
2025-11-07 12:47:12.346739,-33,2025-11-07 12:47:15.711364385
2025-11-07 12:47:12.346739,-19969,2025-11-07 12:47:15.719056692
2025-11-07 12:47:12.346739,-1,2025-11-07 12:47:15.726749000
2025-11-07 12:47:12.346739,-94,2025-11-07 12:47:15.734441308
2025-11-07 12:47:12.346739,-22529,2025-11-07 12:47:15.742133615
2025-11-07 12:47:12.346739,-1,2025-11-07 12:47:15.749825923
2025-11-07 12:47:12.346739,-115,2025-11-07 12:47:15.757518231
2025-11-07 12:47:12.346739,29439,2025-11-07 12:47:15.765210538
2025-11-07 12:47:12.346739,-1,2025-11-07 12:47:15.772902846
2025-11-07 12:47:12.346739,-137,2025-11-07 12:47:15.780595154
2025-11-07 12:47:12.346739,27647,2025-11-07 12:47:15.788287462
2025-11-07 12:47:12.346739,-1,2025-11-07 12:47:15.795979769
2025-11-07 12:47:12.346739,-176,2025-11-07 12:47:15.803672077
2025-11-07 12:47:12.346739,22015,2025-11-07 12:47:15.811364385
2025-11-07 12:47:12.346739,-1,2025-11-07 12:47:15.819056692
2025-11-07 12:47:12.346739,-164,2025-11-07 12:47:15.826749000
2025-11-07 12:47:12.346739,20735,2025-11-07 12:47:15.834441308
2025-11-07 12:47:12.346739,-1,2025-11-07 12:47:15.842133615
2025-11-07 12:47:12.346739,-180,2025-11-07 12:47:15.849825923
2025-11-07 12:47:12.346739,18943,2025-11-07 12:47:15.857518231
2025-11-07 12:47:12.346739,-1,2025-11-07 12:47:15.865210538
2025-11-07 12:47:12.346739,-190,2025-11-07 12:47:15.872902846
2025-11-07 12:47:12.346739,18431,2025-11-07 12:47:15.880595154
2025-11-07 12:47:12.346739,-1,2025-11-07 12:47:15.888287462
2025-11-07 12:47:12.346739,-168,2025-11-07 12:47:15.895979769
2025-11-07 12:47:12.346739,23807,2025-11-07 12:47:15.903672077
2025-11-07 12:47:12.346739,-1,2025-11-07 12:47:15.911364385
2025-11-07 12:47:12.346739,-178,2025-11-07 12:47:15.919056692
2025-11-07 12:47:12.346739,17663,2025-11-07 12:47:15.926749000
2025-11-07 12:47:12.346739,-1,2025-11-07 12:47:15.934441308
2025-11-07 12:47:12.346739,-200,2025-11-07 12:47:15.942133615
2025-11-07 12:47:12.346739,11007,2025-11-07 12:47:15.949825923
2025-11-07 12:47:12.346739,-1,2025-11-07 12:47:15.957518231
2025-11-07 12:47:12.346739,-219,2025-11-07 12:47:15.965210538
2025-11-07 12:47:12.346739,5375,2025-11-07 12:47:15.972902846
2025-11-07 12:47:12.346739,-1,2025-11-07 12:47:15.980595154
2025-11-07 12:47:12.346739,-258,2025-11-07 12:47:15.988287462
2025-11-07 12:47:12.346739,-3329,2025-11-07 12:47:15.995979769
2025-11-07 12:47:12.346739,-2,2025-11-07 12:47:16.003672077
2025-11-07 12:47:12.346739,-301,2025-11-07 12:47:16.011364385
2025-11-07 12:47:12.346739,-29953,2025-11-07 12:47:16.019056692
2025-11-07 12:47:12.346739,-2,2025-11-07 12:47:16.026749000
2025-11-07 12:47:12.346739,-489,2025-11-07 12:47:16.034441308
2025-11-07 12:47:12.346739,1791,2025-11-07 12:47:16.042133615
2025-11-07 12:47:12.346739,-2,2025-11-07 12:47:16.049825923
2025-11-07 12:47:12.346739,-159,2025-11-07 12:47:16.057518231
2025-11-07 12:47:12.346739,-20993,2025-11-07 12:47:16.065210538
2025-11-07 12:47:12.346739,1,2025-11-07 12:47:16.072902846
2025-11-07 12:47:12.346739,586,2025-11-07 12:47:16.080595154
2025-11-07 12:47:12.346739,4864,2025-11-07 12:47:16.088287462
2025-11-07 12:47:12.346739,0,2025-11-07 12:47:16.095979769
2025-11-07 12:47:12.346739,-535,2025-11-07 12:47:16.103672077
2025-11-07 12:47:12.346739,-2049,2025-11-07 12:47:16.111364385
2025-11-07 12:47:12.346739,-3,2025-11-07 12:47:16.119056692
2025-11-07 12:47:12.346739,-349,2025-11-07 12:47:16.126749000
2025-11-07 12:47:12.346739,-23553,2025-11-07 12:47:16.134441308
2025-11-07 12:47:12.346739,-2,2025-11-07 12:47:16.142133615
2025-11-07 12:47:12.346739,-390,2025-11-07 12:47:16.149825923
2025-11-07 12:47:12.346739,32511,2025-11-07 12:47:16.157518230
2025-11-07 12:47:12.346739,-2,2025-11-07 12:47:16.165210538
2025-11-07 12:47:12.346739,-374,2025-11-07 12:47:16.172902846
2025-11-07 12:47:12.346739,-27905,2025-11-07 12:47:16.180595154
2025-11-07 12:47:12.346739,-2,2025-11-07 12:47:16.188287462
2025-11-07 12:47:12.346739,-364,2025-11-07 12:47:16.195979769
2025-11-07 12:47:12.346739,-27393,2025-11-07 12:47:16.203672077
2025-11-07 12:47:12.346739,-2,2025-11-07 12:47:16.211364385
2025-11-07 12:47:12.346739,-359,2025-11-07 12:47:16.219056692
2025-11-07 12:47:12.346739,-23041,2025-11-07 12:47:16.226749000
2025-11-07 12:47:12.346739,-2,2025-11-07 12:47:16.234441308
2025-11-07 12:47:12.346739,-332,2025-11-07 12:47:16.242133615
2025-11-07 12:47:12.346739,-22529,2025-11-07 12:47:16.249825923
2025-11-07 12:47:12.346739,-2,2025-11-07 12:47:16.257518231
2025-11-07 12:47:12.346739,-374,2025-11-07 12:47:16.265210538
2025-11-07 12:47:12.346739,-24321,2025-11-07 12:47:16.272902846
2025-11-07 12:47:12.346739,-2,2025-11-07 12:47:16.280595154
2025-11-07 12:47:12.346739,-325,2025-11-07 12:47:16.288287462
2025-11-07 12:47:12.346739,-26113,2025-11-07 12:47:16.295979769
2025-11-07 12:47:12.346739,-2,2025-11-07 12:47:16.303672077
2025-11-07 12:47:12.346739,-386,2025-11-07 12:47:16.311364385
2025-11-07 12:47:12.346739,-31745,2025-11-07 12:47:16.319056692
2025-11-07 12:47:12.346739,-2,2025-11-07 12:47:16.326749000
2025-11-07 12:47:12.346739,-381,2025-11-07 12:47:16.334441308
2025-11-07 12:47:12.346739,-28673,2025-11-07 12:47:16.342133615
2025-11-07 12:47:12.346739,-2,2025-11-07 12:47:16.349825923
2025-11-07 12:47:12.346739,-349,2025-11-07 12:47:16.357518231
2025-11-07 12:47:12.346739,-21249,2025-11-07 12:47:16.365210538
2025-11-07 12:47:12.346739,-2,2025-11-07 12:47:16.372902846
2025-11-07 12:47:12.346739,-328,2025-11-07 12:47:16.380595154
2025-11-07 12:47:12.346739,-19201,2025-11-07 12:47:16.388287462
2025-11-07 12:47:12.346739,-2,2025-11-07 12:47:16.395979769
2025-11-07 12:47:12.346739,-342,2025-11-07 12:47:16.403672077
2025-11-07 12:47:12.346739,-13825,2025-11-07 12:47:16.411364385
2025-11-07 12:47:12.346739,-2,2025-11-07 12:47:16.419056692
2025-11-07 12:47:12.346739,-308,2025-11-07 12:47:16.426749000
2025-11-07 12:47:12.346739,-24833,2025-11-07 12:47:16.434441308
2025-11-07 12:47:12.346739,-2,2025-11-07 12:47:16.442133615
2025-11-07 12:47:12.346739,-364,2025-11-07 12:47:16.449825923
2025-11-07 12:47:12.346739,-29185,2025-11-07 12:47:16.457518231
2025-11-07 12:47:12.346739,-2,2025-11-07 12:47:16.465210538
2025-11-07 12:47:12.346739,-400,2025-11-07 12:47:16.472902846
2025-11-07 12:47:12.346739,22783,2025-11-07 12:47:16.480595154
2025-11-07 12:47:12.346739,-2,2025-11-07 12:47:16.488287462
2025-11-07 12:47:12.346739,-427,2025-11-07 12:47:16.495979769
2025-11-07 12:47:12.346739,32511,2025-11-07 12:47:16.503672077
2025-11-07 12:47:12.346739,-2,2025-11-07 12:47:16.511364385
2025-11-07 12:47:12.346739,-383,2025-11-07 12:47:16.519056692
2025-11-07 12:47:12.886737,-407,2025-11-07 12:47:16.526749000
2025-11-07 12:47:12.886737,-31745,2025-11-07 12:47:16.534441308
2025-11-07 12:47:12.886737,-2,2025-11-07 12:47:16.542133615
2025-11-07 12:47:12.886737,-378,2025-11-07 12:47:16.549825923
2025-11-07 12:47:12.886737,28927,2025-11-07 12:47:16.557518231
2025-11-07 12:47:12.886737,-2,2025-11-07 12:47:16.565210538
2025-11-07 12:47:12.886737,-378,2025-11-07 12:47:16.572902846
2025-11-07 12:47:12.886737,-24833,2025-11-07 12:47:16.580595154
2025-11-07 12:47:12.886737,-2,2025-11-07 12:47:16.588287462
2025-11-07 12:47:12.886737,-328,2025-11-07 12:47:16.595979769
2025-11-07 12:47:12.886737,-2561,2025-11-07 12:47:16.603672077
2025-11-07 12:47:12.886737,-2,2025-11-07 12:47:16.611364385
2025-11-07 12:47:12.886737,-260,2025-11-07 12:47:16.619056692
2025-11-07 12:47:12.886737,-5121,2025-11-07 12:47:16.626749000
2025-11-07 12:47:12.886737,-2,2025-11-07 12:47:16.634441308
2025-11-07 12:47:12.886737,-236,2025-11-07 12:47:16.642133615
2025-11-07 12:47:12.886737,5375,2025-11-07 12:47:16.649825923
2025-11-07 12:47:12.886737,-1,2025-11-07 12:47:16.657518231
2025-11-07 12:47:12.886737,-289,2025-11-07 12:47:16.665210538
2025-11-07 12:47:12.886737,-5121,2025-11-07 12:47:16.672902846
2025-11-07 12:47:12.886737,-2,2025-11-07 12:47:16.680595154
2025-11-07 12:47:12.886737,-241,2025-11-07 12:47:16.688287462
2025-11-07 12:47:12.886737,-2561,2025-11-07 12:47:16.695979769
2025-11-07 12:47:12.886737,-2,2025-11-07 12:47:16.703672077
2025-11-07 12:47:12.886737,-265,2025-11-07 12:47:16.711364385
2025-11-07 12:47:12.886737,6655,2025-11-07 12:47:16.719056692
2025-11-07 12:47:12.886737,-1,2025-11-07 12:47:16.726749000
2025-11-07 12:47:12.886737,-311,2025-11-07 12:47:16.734441308
2025-11-07 12:47:12.886737,11007,2025-11-07 12:47:16.742133615
2025-11-07 12:47:12.886737,-2,2025-11-07 12:47:16.749825923
2025-11-07 12:47:12.886737,-487,2025-11-07 12:47:16.757518231
2025-11-07 12:47:12.886737,21503,2025-11-07 12:47:16.765210538
2025-11-07 12:47:12.886737,-1,2025-11-07 12:47:16.772902846
2025-11-07 12:47:12.886737,398,2025-11-07 12:47:16.780595154
2025-11-07 12:47:12.886737,-7168,2025-11-07 12:47:16.788287462
2025-11-07 12:47:12.886737,2,2025-11-07 12:47:16.795979769
2025-11-07 12:47:12.886737,354,2025-11-07 12:47:16.803672077
2025-11-07 12:47:12.886737,-17664,2025-11-07 12:47:16.811364385
2025-11-07 12:47:12.886737,-2,2025-11-07 12:47:16.819056692
2025-11-07 12:47:12.886737,-436,2025-11-07 12:47:16.826749000
2025-11-07 12:47:12.886737,17663,2025-11-07 12:47:16.834441308
2025-11-07 12:47:12.886737,-1,2025-11-07 12:47:16.842133615
2025-11-07 12:47:12.886737,-205,2025-11-07 12:47:16.849825923
2025-11-07 12:47:12.886737,-5121,2025-11-07 12:47:16.857518231
2025-11-07 12:47:12.886737,-2,2025-11-07 12:47:16.865210538
2025-11-07 12:47:12.886737,-178,2025-11-07 12:47:16.872902846
2025-11-07 12:47:12.886737,20223,2025-11-07 12:47:16.880595154
2025-11-07 12:47:12.886737,-1,2025-11-07 12:47:16.888287462
2025-11-07 12:47:12.886737,-241,2025-11-07 12:47:16.895979769
2025-11-07 12:47:12.886737,17151,2025-11-07 12:47:16.903672077
2025-11-07 12:47:12.886737,-1,2025-11-07 12:47:16.911364385
2025-11-07 12:47:12.886737,-178,2025-11-07 12:47:16.919056692
2025-11-07 12:47:12.886737,9727,2025-11-07 12:47:16.926749000
2025-11-07 12:47:12.886737,-1,2025-11-07 12:47:16.934441308
2025-11-07 12:47:12.886737,-185,2025-11-07 12:47:16.942133615
2025-11-07 12:47:12.886737,22015,2025-11-07 12:47:16.949825923
2025-11-07 12:47:12.886737,-1,2025-11-07 12:47:16.957518231
2025-11-07 12:47:12.886737,-188,2025-11-07 12:47:16.965210538
2025-11-07 12:47:12.886737,-32257,2025-11-07 12:47:16.972902846
2025-11-07 12:47:12.886737,-1,2025-11-07 12:47:16.980595154
2025-11-07 12:47:12.886737,-91,2025-11-07 12:47:16.988287462
2025-11-07 12:47:12.886737,27647,2025-11-07 12:47:16.995979769
2025-11-07 12:47:12.886737,-1,2025-11-07 12:47:17.003672077
2025-11-07 12:47:12.886737,-130,2025-11-07 12:47:17.011364385
2025-11-07 12:47:12.886737,-17409,2025-11-07 12:47:17.019056692
2025-11-07 12:47:12.886737,-1,2025-11-07 12:47:17.026749000
2025-11-07 12:47:12.886737,-110,2025-11-07 12:47:17.034441308
2025-11-07 12:47:12.886737,-32257,2025-11-07 12:47:17.042133615
2025-11-07 12:47:12.886737,-1,2025-11-07 12:47:17.049825923
2025-11-07 12:47:12.886737,-77,2025-11-07 12:47:17.057518231
2025-11-07 12:47:12.886737,-24833,2025-11-07 12:47:17.065210538
2025-11-07 12:47:12.886737,-1,2025-11-07 12:47:17.072902846
2025-11-07 12:47:12.886737,-118,2025-11-07 12:47:17.080595154
2025-11-07 12:47:12.886737,-19969,2025-11-07 12:47:17.088287462
2025-11-07 12:47:12.886737,-1,2025-11-07 12:47:17.095979769
2025-11-07 12:47:12.886737,-89,2025-11-07 12:47:17.103672077
2025-11-07 12:47:12.886737,32511,2025-11-07 12:47:17.111364385
2025-11-07 12:47:12.886737,-1,2025-11-07 12:47:17.119056692
2025-11-07 12:47:12.886737,-123,2025-11-07 12:47:17.126749000
2025-11-07 12:47:12.886737,-30465,2025-11-07 12:47:17.134441308
2025-11-07 12:47:12.886737,-1,2025-11-07 12:47:17.142133615
2025-11-07 12:47:12.886737,-168,2025-11-07 12:47:17.149825923
2025-11-07 12:47:12.886737,11519,2025-11-07 12:47:17.157518230
2025-11-07 12:47:12.886737,-1,2025-11-07 12:47:17.165210538
2025-11-07 12:47:12.886737,-229,2025-11-07 12:47:17.172902846
2025-11-07 12:47:12.886737,1023,2025-11-07 12:47:17.180595154
2025-11-07 12:47:12.886737,-1,2025-11-07 12:47:17.188287462
2025-11-07 12:47:12.886737,-289,2025-11-07 12:47:17.195979769
2025-11-07 12:47:12.886737,-13825,2025-11-07 12:47:17.203672077
2025-11-07 12:47:12.886737,-2,2025-11-07 12:47:17.211364385
2025-11-07 12:47:12.886737,-320,2025-11-07 12:47:17.219056692
2025-11-07 12:47:12.886737,-19969,2025-11-07 12:47:17.226749000
2025-11-07 12:47:12.886737,-2,2025-11-07 12:47:17.234441308
2025-11-07 12:47:12.886737,-359,2025-11-07 12:47:17.242133615
2025-11-07 12:47:12.886737,-28673,2025-11-07 12:47:17.249825923
2025-11-07 12:47:12.886737,-2,2025-11-07 12:47:17.257518231
2025-11-07 12:47:12.886737,-369,2025-11-07 12:47:17.265210538
2025-11-07 12:47:12.886737,-27905,2025-11-07 12:47:17.272902846
2025-11-07 12:47:12.886737,-2,2025-11-07 12:47:17.280595154
2025-11-07 12:47:12.886737,-359,2025-11-07 12:47:17.288287462
2025-11-07 12:47:12.886737,-23041,2025-11-07 12:47:17.295979769
2025-11-07 12:47:12.886737,-2,2025-11-07 12:47:17.303672077
2025-11-07 12:47:12.886737,-320,2025-11-07 12:47:17.311364385
2025-11-07 12:47:12.886737,-5633,2025-11-07 12:47:17.319056692
2025-11-07 12:47:12.886737,-2,2025-11-07 12:47:17.326749000
2025-11-07 12:47:12.886737,-231,2025-11-07 12:47:17.334441308
2025-11-07 12:47:12.886737,12799,2025-11-07 12:47:17.342133615
2025-11-07 12:47:12.886737,-1,2025-11-07 12:47:17.349825923
2025-11-07 12:47:12.886737,-209,2025-11-07 12:47:17.357518231
2025-11-07 12:47:13.457116,-190,2025-11-07 12:47:17.365210538
2025-11-07 12:47:13.457116,20223,2025-11-07 12:47:17.372902846
2025-11-07 12:47:13.457116,-1,2025-11-07 12:47:17.380595154
2025-11-07 12:47:13.457116,-197,2025-11-07 12:47:17.388287462
2025-11-07 12:47:13.457116,17151,2025-11-07 12:47:17.395979769
2025-11-07 12:47:13.457116,-1,2025-11-07 12:47:17.403672077
2025-11-07 12:47:13.457116,-168,2025-11-07 12:47:17.411364385
2025-11-07 12:47:13.457116,22783,2025-11-07 12:47:17.419056692
2025-11-07 12:47:13.457116,-1,2025-11-07 12:47:17.426749000
2025-11-07 12:47:13.457116,-164,2025-11-07 12:47:17.434441308
2025-11-07 12:47:13.457116,25855,2025-11-07 12:47:17.442133615
2025-11-07 12:47:13.457116,-1,2025-11-07 12:47:17.449825923
2025-11-07 12:47:13.457116,-243,2025-11-07 12:47:17.457518231
2025-11-07 12:47:13.457116,30207,2025-11-07 12:47:17.465210538
2025-11-07 12:47:13.457116,-2,2025-11-07 12:47:17.472902846
2025-11-07 12:47:13.457116,-287,2025-11-07 12:47:17.480595154
2025-11-07 12:47:13.457116,-1,2025-11-07 12:47:17.488287462
2025-11-07 12:47:13.457116,0,2025-11-07 12:47:17.495979769
2025-11-07 12:47:13.457116,805,2025-11-07 12:47:17.503672077
2025-11-07 12:47:13.457116,-12544,2025-11-07 12:47:17.511364385
2025-11-07 12:47:13.457116,2,2025-11-07 12:47:17.519056692
2025-11-07 12:47:13.457116,48,2025-11-07 12:47:17.526749000
2025-11-07 12:47:13.457116,-25088,2025-11-07 12:47:17.534441308
2025-11-07 12:47:13.457116,-2,2025-11-07 12:47:17.542133615
2025-11-07 12:47:13.457116,-231,2025-11-07 12:47:17.549825923
2025-11-07 12:47:13.457116,26879,2025-11-07 12:47:17.557518231
2025-11-07 12:47:13.457116,-1,2025-11-07 12:47:17.565210538
2025-11-07 12:47:13.457116,-231,2025-11-07 12:47:17.572902846
2025-11-07 12:47:13.457116,7935,2025-11-07 12:47:17.580595154
2025-11-07 12:47:13.457116,-1,2025-11-07 12:47:17.588287462
2025-11-07 12:47:13.457116,-200,2025-11-07 12:47:17.595979769
2025-11-07 12:47:13.457116,7935,2025-11-07 12:47:17.603672077
2025-11-07 12:47:13.457116,-1,2025-11-07 12:47:17.611364385
2025-11-07 12:47:13.457116,-236,2025-11-07 12:47:17.619056692
2025-11-07 12:47:13.457116,7167,2025-11-07 12:47:17.626749000
2025-11-07 12:47:13.457116,-1,2025-11-07 12:47:17.634441308
2025-11-07 12:47:13.457116,-219,2025-11-07 12:47:17.642133615
2025-11-07 12:47:13.457116,10239,2025-11-07 12:47:17.649825923
2025-11-07 12:47:13.457116,-1,2025-11-07 12:47:17.657518231
2025-11-07 12:47:13.457116,-219,2025-11-07 12:47:17.665210538
2025-11-07 12:47:13.457116,6655,2025-11-07 12:47:17.672902846
2025-11-07 12:47:13.457116,-1,2025-11-07 12:47:17.680595154
2025-11-07 12:47:13.457116,-255,2025-11-07 12:47:17.688287462
2025-11-07 12:47:13.457116,-257,2025-11-07 12:47:17.695979769
2025-11-07 12:47:13.457116,-2,2025-11-07 12:47:17.703672077
2025-11-07 12:47:13.457116,-265,2025-11-07 12:47:17.711364385
2025-11-07 12:47:13.457116,-5633,2025-11-07 12:47:17.719056692
2025-11-07 12:47:13.457116,-2,2025-11-07 12:47:17.726749000
2025-11-07 12:47:13.457116,-267,2025-11-07 12:47:17.734441308
2025-11-07 12:47:13.457116,-1537,2025-11-07 12:47:17.742133615
2025-11-07 12:47:13.457116,-2,2025-11-07 12:47:17.749825923
2025-11-07 12:47:13.457116,-270,2025-11-07 12:47:17.757518231
2025-11-07 12:47:13.457116,-2049,2025-11-07 12:47:17.765210538
2025-11-07 12:47:13.457116,-2,2025-11-07 12:47:17.772902846
2025-11-07 12:47:13.457116,-255,2025-11-07 12:47:17.780595154
2025-11-07 12:47:13.457116,1791,2025-11-07 12:47:17.788287462
2025-11-07 12:47:13.457116,-1,2025-11-07 12:47:17.795979769
2025-11-07 12:47:13.457116,-248,2025-11-07 12:47:17.803672077
2025-11-07 12:47:13.457116,5887,2025-11-07 12:47:17.811364385
2025-11-07 12:47:13.457116,-1,2025-11-07 12:47:17.819056692
2025-11-07 12:47:13.457116,-217,2025-11-07 12:47:17.826749000
2025-11-07 12:47:13.457116,9727,2025-11-07 12:47:17.834441308
2025-11-07 12:47:13.457116,-1,2025-11-07 12:47:17.842133615
2025-11-07 12:47:13.457116,-219,2025-11-07 12:47:17.849825923
2025-11-07 12:47:13.457116,7935,2025-11-07 12:47:17.857518231
2025-11-07 12:47:13.457116,-1,2025-11-07 12:47:17.865210538
2025-11-07 12:47:13.457116,-246,2025-11-07 12:47:17.872902846
2025-11-07 12:47:13.457116,-1537,2025-11-07 12:47:17.880595154
2025-11-07 12:47:13.457116,-2,2025-11-07 12:47:17.888287462
2025-11-07 12:47:13.457116,-282,2025-11-07 12:47:17.895979769
2025-11-07 12:47:13.457116,-10753,2025-11-07 12:47:17.903672077
2025-11-07 12:47:13.457116,-2,2025-11-07 12:47:17.911364385
2025-11-07 12:47:13.457116,-308,2025-11-07 12:47:17.919056692
2025-11-07 12:47:13.457116,-15617,2025-11-07 12:47:17.926749000
2025-11-07 12:47:13.457116,-2,2025-11-07 12:47:17.934441308
2025-11-07 12:47:13.457116,-328,2025-11-07 12:47:17.942133615
2025-11-07 12:47:13.457116,-21761,2025-11-07 12:47:17.949825923
2025-11-07 12:47:13.457116,-2,2025-11-07 12:47:17.957518231
2025-11-07 12:47:13.457116,-345,2025-11-07 12:47:17.965210538
2025-11-07 12:47:13.457116,-19201,2025-11-07 12:47:17.972902846
2025-11-07 12:47:13.457116,-2,2025-11-07 12:47:17.980595154
2025-11-07 12:47:13.457116,-330,2025-11-07 12:47:17.988287462
2025-11-07 12:47:13.457116,-16129,2025-11-07 12:47:17.995979769
2025-11-07 12:47:13.457116,-2,2025-11-07 12:47:18.003672077
2025-11-07 12:47:13.457116,-318,2025-11-07 12:47:18.011364385
2025-11-07 12:47:13.457116,-15105,2025-11-07 12:47:18.019056692
2025-11-07 12:47:13.457116,-2,2025-11-07 12:47:18.026749000
2025-11-07 12:47:13.457116,-294,2025-11-07 12:47:18.034441308
2025-11-07 12:47:13.457116,-2561,2025-11-07 12:47:18.042133615
2025-11-07 12:47:13.457116,-2,2025-11-07 12:47:18.049825923
2025-11-07 12:47:13.457116,-243,2025-11-07 12:47:18.057518231
2025-11-07 12:47:13.457116,6655,2025-11-07 12:47:18.065210538
2025-11-07 12:47:13.457116,-1,2025-11-07 12:47:18.072902846
2025-11-07 12:47:13.457116,-241,2025-11-07 12:47:18.080595154
2025-11-07 12:47:13.457116,4095,2025-11-07 12:47:18.088287462
2025-11-07 12:47:13.457116,-1,2025-11-07 12:47:18.095979769
2025-11-07 12:47:13.457116,-243,2025-11-07 12:47:18.103672077
2025-11-07 12:47:13.457116,2815,2025-11-07 12:47:18.111364385
2025-11-07 12:47:13.457116,-1,2025-11-07 12:47:18.119056692
2025-11-07 12:47:13.457116,-241,2025-11-07 12:47:18.126749000
2025-11-07 12:47:13.457116,4095,2025-11-07 12:47:18.134441308
2025-11-07 12:47:13.457116,-1,2025-11-07 12:47:18.142133615
2025-11-07 12:47:13.457116,-229,2025-11-07 12:47:18.149825923
2025-11-07 12:47:13.457116,9727,2025-11-07 12:47:18.157518230
2025-11-07 12:47:13.457116,-1,2025-11-07 12:47:18.165210538
2025-11-07 12:47:13.457116,-250,2025-11-07 12:47:18.172902846
2025-11-07 12:47:13.457116,-24833,2025-11-07 12:47:18.180595154
2025-11-07 12:47:13.457116,-2,2025-11-07 12:47:18.188287462
2025-11-07 12:47:13.457116,-446,2025-11-07 12:47:18.195979769
2025-11-07 12:47:14.026737,-229,2025-11-07 12:47:18.203672077
2025-11-07 12:47:14.026737,27135,2025-11-07 12:47:18.211364385
2025-11-07 12:47:14.026737,1,2025-11-07 12:47:18.219056692
2025-11-07 12:47:14.026737,825,2025-11-07 12:47:18.226749000
2025-11-07 12:47:14.026737,16384,2025-11-07 12:47:18.234441308
2025-11-07 12:47:14.026737,2,2025-11-07 12:47:18.242133615
2025-11-07 12:47:14.026737,-120,2025-11-07 12:47:18.249825923
2025-11-07 12:47:14.026737,31999,2025-11-07 12:47:18.257518231
2025-11-07 12:47:14.026737,-2,2025-11-07 12:47:18.265210538
2025-11-07 12:47:14.026737,-209,2025-11-07 12:47:18.272902846
2025-11-07 12:47:14.026737,20223,2025-11-07 12:47:18.280595154
2025-11-07 12:47:14.026737,-1,2025-11-07 12:47:18.288287462
2025-11-07 12:47:14.026737,-236,2025-11-07 12:47:18.295979769
2025-11-07 12:47:14.026737,16383,2025-11-07 12:47:18.303672077
2025-11-07 12:47:14.026737,-1,2025-11-07 12:47:18.311364385
2025-11-07 12:47:14.026737,-190,2025-11-07 12:47:18.319056692
2025-11-07 12:47:14.026737,8447,2025-11-07 12:47:18.326749000
2025-11-07 12:47:14.026737,-1,2025-11-07 12:47:18.334441308
2025-11-07 12:47:14.026737,-212,2025-11-07 12:47:18.342133615
2025-11-07 12:47:14.026737,15871,2025-11-07 12:47:18.349825923
2025-11-07 12:47:14.026737,-1,2025-11-07 12:47:18.357518231
2025-11-07 12:47:14.026737,-195,2025-11-07 12:47:18.365210538
2025-11-07 12:47:14.026737,17663,2025-11-07 12:47:18.372902846
2025-11-07 12:47:14.026737,-1,2025-11-07 12:47:18.380595154
2025-11-07 12:47:14.026737,-176,2025-11-07 12:47:18.388287462
2025-11-07 12:47:14.026737,20735,2025-11-07 12:47:18.395979769
2025-11-07 12:47:14.026737,-1,2025-11-07 12:47:18.403672077
2025-11-07 12:47:14.026737,-173,2025-11-07 12:47:18.411364385
2025-11-07 12:47:14.026737,22015,2025-11-07 12:47:18.419056692
2025-11-07 12:47:14.026737,-1,2025-11-07 12:47:18.426749000
2025-11-07 12:47:14.026737,-173,2025-11-07 12:47:18.434441308
2025-11-07 12:47:14.026737,25087,2025-11-07 12:47:18.442133615
2025-11-07 12:47:14.026737,-1,2025-11-07 12:47:18.449825923
2025-11-07 12:47:14.026737,-147,2025-11-07 12:47:18.457518231
2025-11-07 12:47:14.026737,28927,2025-11-07 12:47:18.465210538
2025-11-07 12:47:14.026737,-1,2025-11-07 12:47:18.472902846
2025-11-07 12:47:14.026737,-135,2025-11-07 12:47:18.480595154
2025-11-07 12:47:14.026737,31999,2025-11-07 12:47:18.488287462
2025-11-07 12:47:14.026737,-1,2025-11-07 12:47:18.495979769
2025-11-07 12:47:14.026737,-123,2025-11-07 12:47:18.503672077
2025-11-07 12:47:14.026737,-25601,2025-11-07 12:47:18.511364385
2025-11-07 12:47:14.026737,-1,2025-11-07 12:47:18.519056692
2025-11-07 12:47:14.026737,-82,2025-11-07 12:47:18.526749000
2025-11-07 12:47:14.026737,-16385,2025-11-07 12:47:18.534441308
2025-11-07 12:47:14.026737,-1,2025-11-07 12:47:18.542133615
2025-11-07 12:47:14.026737,-50,2025-11-07 12:47:18.549825923
2025-11-07 12:47:14.026737,-8193,2025-11-07 12:47:18.557518231
2025-11-07 12:47:14.026737,-1,2025-11-07 12:47:18.565210538
2025-11-07 12:47:14.026737,-21,2025-11-07 12:47:18.572902846
2025-11-07 12:47:14.026737,-5889,2025-11-07 12:47:18.580595154
2025-11-07 12:47:14.026737,-1,2025-11-07 12:47:18.588287462
2025-11-07 12:47:14.026737,-28,2025-11-07 12:47:18.595979769
2025-11-07 12:47:14.026737,-10241,2025-11-07 12:47:18.603672077
2025-11-07 12:47:14.026737,-1,2025-11-07 12:47:18.611364385
2025-11-07 12:47:14.026737,-62,2025-11-07 12:47:18.619056692
2025-11-07 12:47:14.026737,-16897,2025-11-07 12:47:18.626749000
2025-11-07 12:47:14.026737,-1,2025-11-07 12:47:18.634441308
2025-11-07 12:47:14.026737,-67,2025-11-07 12:47:18.642133615
2025-11-07 12:47:14.026737,-18689,2025-11-07 12:47:18.649825923
2025-11-07 12:47:14.026737,-1,2025-11-07 12:47:18.657518231
2025-11-07 12:47:14.026737,-82,2025-11-07 12:47:18.665210538
2025-11-07 12:47:14.026737,-21249,2025-11-07 12:47:18.672902846
2025-11-07 12:47:14.026737,-1,2025-11-07 12:47:18.680595154
2025-11-07 12:47:14.026737,-74,2025-11-07 12:47:18.688287462
2025-11-07 12:47:14.026737,-18177,2025-11-07 12:47:18.695979769
2025-11-07 12:47:14.026737,-1,2025-11-07 12:47:18.703672077
2025-11-07 12:47:14.026737,-67,2025-11-07 12:47:18.711364385
2025-11-07 12:47:14.026737,-12545,2025-11-07 12:47:18.719056692
2025-11-07 12:47:14.026737,-1,2025-11-07 12:47:18.726749000
2025-11-07 12:47:14.026737,-33,2025-11-07 12:47:18.734441308
2025-11-07 12:47:14.026737,-2817,2025-11-07 12:47:18.742133615
2025-11-07 12:47:14.026737,-1,2025-11-07 12:47:18.749825923
2025-11-07 12:47:14.026737,4,2025-11-07 12:47:18.757518231
2025-11-07 12:47:14.026737,7936,2025-11-07 12:47:18.765210538
2025-11-07 12:47:14.026737,0,2025-11-07 12:47:18.772902846
2025-11-07 12:47:14.026737,62,2025-11-07 12:47:18.780595154
2025-11-07 12:47:14.026737,12288,2025-11-07 12:47:18.788287462
2025-11-07 12:47:14.026737,0,2025-11-07 12:47:18.795979769
2025-11-07 12:47:14.026737,16,2025-11-07 12:47:18.803672077
2025-11-07 12:47:14.026737,3584,2025-11-07 12:47:18.811364385
2025-11-07 12:47:14.026737,0,2025-11-07 12:47:18.819056692
2025-11-07 12:47:14.026737,2,2025-11-07 12:47:18.826749000
2025-11-07 12:47:14.026737,-3584,2025-11-07 12:47:18.834441308
2025-11-07 12:47:14.026737,-1,2025-11-07 12:47:18.842133615
2025-11-07 12:47:14.026737,-21,2025-11-07 12:47:18.849825923
2025-11-07 12:47:14.026737,-6913,2025-11-07 12:47:18.857518231
2025-11-07 12:47:14.026737,-1,2025-11-07 12:47:18.865210538
2025-11-07 12:47:14.026737,-36,2025-11-07 12:47:18.872902846
2025-11-07 12:47:14.026737,-8961,2025-11-07 12:47:18.880595154
2025-11-07 12:47:14.026737,-1,2025-11-07 12:47:18.888287462
2025-11-07 12:47:14.026737,-69,2025-11-07 12:47:18.895979769
2025-11-07 12:47:14.026737,15359,2025-11-07 12:47:18.903672077
2025-11-07 12:47:14.026737,-1,2025-11-07 12:47:18.911364385
2025-11-07 12:47:14.026737,-282,2025-11-07 12:47:18.919056692
2025-11-07 12:47:14.026737,-3329,2025-11-07 12:47:18.926749000
2025-11-07 12:47:14.026737,-1,2025-11-07 12:47:18.934441308
2025-11-07 12:47:14.026737,576,2025-11-07 12:47:18.942133615
2025-11-07 12:47:14.026737,-22016,2025-11-07 12:47:18.949825923
2025-11-07 12:47:14.026737,3,2025-11-07 12:47:18.957518231
2025-11-07 12:47:14.026737,564,2025-11-07 12:47:18.965210538
2025-11-07 12:47:14.026737,-28160,2025-11-07 12:47:18.972902846
2025-11-07 12:47:14.026737,-1,2025-11-07 12:47:18.980595154
2025-11-07 12:47:14.026737,-260,2025-11-07 12:47:18.988287462
2025-11-07 12:47:14.026737,-13825,2025-11-07 12:47:18.995979769
2025-11-07 12:47:14.026737,-1,2025-11-07 12:47:19.003672077
2025-11-07 12:47:14.026737,-19,2025-11-07 12:47:19.011364385
2025-11-07 12:47:14.026737,-15617,2025-11-07 12:47:19.019056692
2025-11-07 12:47:14.026737,-1,2025-11-07 12:47:19.026749000
2025-11-07 12:47:14.026737,-50,2025-11-07 12:47:19.034441308
2025-11-07 12:47:14.567447,-41,2025-11-07 12:47:19.042133615
2025-11-07 12:47:14.567447,-12545,2025-11-07 12:47:19.049825923
2025-11-07 12:47:14.567447,-1,2025-11-07 12:47:19.057518231
2025-11-07 12:47:14.567447,-43,2025-11-07 12:47:19.065210538
2025-11-07 12:47:14.567447,-5121,2025-11-07 12:47:19.072902846
2025-11-07 12:47:14.567447,-1,2025-11-07 12:47:19.080595154
2025-11-07 12:47:14.567447,-7,2025-11-07 12:47:19.088287462
2025-11-07 12:47:14.567447,1279,2025-11-07 12:47:19.095979769
2025-11-07 12:47:14.567447,0,2025-11-07 12:47:19.103672077
2025-11-07 12:47:14.567447,14,2025-11-07 12:47:19.111364385
2025-11-07 12:47:14.567447,3072,2025-11-07 12:47:19.119056692
2025-11-07 12:47:14.567447,0,2025-11-07 12:47:19.126749000
2025-11-07 12:47:14.567447,24,2025-11-07 12:47:19.134441308
2025-11-07 12:47:14.567447,9728,2025-11-07 12:47:19.142133615
2025-11-07 12:47:14.567447,0,2025-11-07 12:47:19.149825923
2025-11-07 12:47:14.567447,48,2025-11-07 12:47:19.157518230
2025-11-07 12:47:14.567447,15872,2025-11-07 12:47:19.165210538
2025-11-07 12:47:14.567447,0,2025-11-07 12:47:19.172902846
2025-11-07 12:47:14.567447,62,2025-11-07 12:47:19.180595154
2025-11-07 12:47:14.567447,17152,2025-11-07 12:47:19.188287462
2025-11-07 12:47:14.567447,0,2025-11-07 12:47:19.195979769
2025-11-07 12:47:14.567447,74,2025-11-07 12:47:19.203672077
2025-11-07 12:47:14.567447,19712,2025-11-07 12:47:19.211364385
2025-11-07 12:47:14.567447,0,2025-11-07 12:47:19.219056692
2025-11-07 12:47:14.567447,94,2025-11-07 12:47:19.226749000
2025-11-07 12:47:14.567447,28160,2025-11-07 12:47:19.234441308
2025-11-07 12:47:14.567447,0,2025-11-07 12:47:19.242133615
2025-11-07 12:47:14.567447,118,2025-11-07 12:47:19.249825923
2025-11-07 12:47:14.567447,30720,2025-11-07 12:47:19.257518231
2025-11-07 12:47:14.567447,0,2025-11-07 12:47:19.265210538
2025-11-07 12:47:14.567447,123,2025-11-07 12:47:19.272902846
2025-11-07 12:47:14.567447,32512,2025-11-07 12:47:19.280595154
2025-11-07 12:47:14.567447,0,2025-11-07 12:47:19.288287462
2025-11-07 12:47:14.567447,125,2025-11-07 12:47:19.295979769
2025-11-07 12:47:14.567447,28160,2025-11-07 12:47:19.303672077
2025-11-07 12:47:14.567447,0,2025-11-07 12:47:19.311364385
2025-11-07 12:47:14.567447,94,2025-11-07 12:47:19.319056692
2025-11-07 12:47:14.567447,15872,2025-11-07 12:47:19.326749000
2025-11-07 12:47:14.567447,0,2025-11-07 12:47:19.334441308
2025-11-07 12:47:14.567447,31,2025-11-07 12:47:19.342133615
2025-11-07 12:47:14.567447,3072,2025-11-07 12:47:19.349825923
2025-11-07 12:47:14.567447,0,2025-11-07 12:47:19.357518231
2025-11-07 12:47:14.567447,7,2025-11-07 12:47:19.365210538
2025-11-07 12:47:14.567447,1792,2025-11-07 12:47:19.372902846
2025-11-07 12:47:14.567447,0,2025-11-07 12:47:19.380595154
2025-11-07 12:47:14.567447,-9,2025-11-07 12:47:19.388287462
2025-11-07 12:47:14.567447,-3329,2025-11-07 12:47:19.395979769
2025-11-07 12:47:14.567447,-1,2025-11-07 12:47:19.403672077
2025-11-07 12:47:14.567447,0,2025-11-07 12:47:19.411364385
2025-11-07 12:47:14.567447,-3584,2025-11-07 12:47:19.419056692
2025-11-07 12:47:14.567447,-1,2025-11-07 12:47:19.426749000
2025-11-07 12:47:14.567447,-24,2025-11-07 12:47:19.434441308
2025-11-07 12:47:14.567447,-3841,2025-11-07 12:47:19.442133615
2025-11-07 12:47:14.567447,-1,2025-11-07 12:47:19.449825923
2025-11-07 12:47:14.567447,-19,2025-11-07 12:47:19.457518231
2025-11-07 12:47:14.567447,-2817,2025-11-07 12:47:19.465210538
2025-11-07 12:47:14.567447,-1,2025-11-07 12:47:19.472902846
2025-11-07 12:47:14.567447,9,2025-11-07 12:47:19.480595154
2025-11-07 12:47:14.567447,6144,2025-11-07 12:47:19.488287462
2025-11-07 12:47:14.567447,0,2025-11-07 12:47:19.495979769
2025-11-07 12:47:14.567447,9,2025-11-07 12:47:19.503672077
2025-11-07 12:47:14.567447,-512,2025-11-07 12:47:19.511364385
2025-11-07 12:47:14.567447,-1,2025-11-07 12:47:19.519056692
2025-11-07 12:47:14.567447,2,2025-11-07 12:47:19.526749000
2025-11-07 12:47:14.567447,-3584,2025-11-07 12:47:19.534441308
2025-11-07 12:47:14.567447,-1,2025-11-07 12:47:19.542133615
2025-11-07 12:47:14.567447,-36,2025-11-07 12:47:19.549825923
2025-11-07 12:47:14.567447,-8961,2025-11-07 12:47:19.557518231
2025-11-07 12:47:14.567447,-1,2025-11-07 12:47:19.565210538
2025-11-07 12:47:14.567447,-31,2025-11-07 12:47:19.572902846
2025-11-07 12:47:14.567447,-8193,2025-11-07 12:47:19.580595154
2025-11-07 12:47:14.567447,-1,2025-11-07 12:47:19.588287462
2025-11-07 12:47:14.567447,-43,2025-11-07 12:47:19.595979769
2025-11-07 12:47:14.567447,-24321,2025-11-07 12:47:19.603672077
2025-11-07 12:47:14.567447,-1,2025-11-07 12:47:19.611364385
2025-11-07 12:47:14.567447,-231,2025-11-07 12:47:19.619056692
2025-11-07 12:47:14.567447,-12545,2025-11-07 12:47:19.626749000
2025-11-07 12:47:14.567447,-2,2025-11-07 12:47:19.634441308
2025-11-07 12:47:14.567447,-26,2025-11-07 12:47:19.642133615
2025-11-07 12:47:14.567447,9215,2025-11-07 12:47:19.649825923
2025-11-07 12:47:14.567447,2,2025-11-07 12:47:19.657518231
2025-11-07 12:47:14.567447,834,2025-11-07 12:47:19.665210538
2025-11-07 12:47:14.567447,-32256,2025-11-07 12:47:19.672902846
2025-11-07 12:47:14.567447,1,2025-11-07 12:47:19.680595154
2025-11-07 12:47:14.567447,-260,2025-11-07 12:47:19.688287462
2025-11-07 12:47:14.567447,-23553,2025-11-07 12:47:19.695979769
2025-11-07 12:47:14.567447,-2,2025-11-07 12:47:19.703672077
2025-11-07 12:47:14.567447,-147,2025-11-07 12:47:19.711364385
2025-11-07 12:47:14.567447,29439,2025-11-07 12:47:19.719056692
2025-11-07 12:47:14.567447,-1,2025-11-07 12:47:19.726749000
2025-11-07 12:47:14.567447,-188,2025-11-07 12:47:19.734441308
2025-11-07 12:47:14.567447,19711,2025-11-07 12:47:19.742133615
2025-11-07 12:47:14.567447,-1,2025-11-07 12:47:19.749825923
2025-11-07 12:47:14.567447,-193,2025-11-07 12:47:19.757518231
2025-11-07 12:47:14.567447,17151,2025-11-07 12:47:19.765210538
2025-11-07 12:47:14.567447,-1,2025-11-07 12:47:19.772902846
2025-11-07 12:47:14.567447,-171,2025-11-07 12:47:19.780595154
2025-11-07 12:47:14.567447,23807,2025-11-07 12:47:19.788287462
2025-11-07 12:47:14.567447,-1,2025-11-07 12:47:19.795979769
2025-11-07 12:47:14.567447,-161,2025-11-07 12:47:19.803672077
2025-11-07 12:47:14.567447,25087,2025-11-07 12:47:19.811364385
2025-11-07 12:47:14.567447,-1,2025-11-07 12:47:19.819056692
2025-11-07 12:47:14.567447,-154,2025-11-07 12:47:19.826749000
2025-11-07 12:47:14.567447,28927,2025-11-07 12:47:19.834441308
2025-11-07 12:47:14.567447,-1,2025-11-07 12:47:19.842133615
2025-11-07 12:47:14.567447,-135,2025-11-07 12:47:19.849825923
2025-11-07 12:47:14.567447,31999,2025-11-07 12:47:19.857518231
2025-11-07 12:47:14.567447,-1,2025-11-07 12:47:19.865210538
2025-11-07 12:47:14.567447,-142,2025-11-07 12:47:19.872902846
2025-11-07 12:47:15.106732,-137,2025-11-07 12:47:19.880595154
2025-11-07 12:47:15.106732,-31233,2025-11-07 12:47:19.888287462
2025-11-07 12:47:15.106732,-1,2025-11-07 12:47:19.895979769
2025-11-07 12:47:15.106732,-123,2025-11-07 12:47:19.903672077
2025-11-07 12:47:15.106732,-30465,2025-11-07 12:47:19.911364385
2025-11-07 12:47:15.106732,-1,2025-11-07 12:47:19.919056692
2025-11-07 12:47:15.106732,-113,2025-11-07 12:47:19.926749000
2025-11-07 12:47:15.106732,-26113,2025-11-07 12:47:19.934441308
2025-11-07 12:47:15.106732,-1,2025-11-07 12:47:19.942133615
2025-11-07 12:47:15.106732,-82,2025-11-07 12:47:19.949825923
2025-11-07 12:47:15.106732,-16385,2025-11-07 12:47:19.957518231
2025-11-07 12:47:15.106732,-1,2025-11-07 12:47:19.965210538
2025-11-07 12:47:15.106732,-60,2025-11-07 12:47:19.972902846
2025-11-07 12:47:15.106732,-18177,2025-11-07 12:47:19.980595154
2025-11-07 12:47:15.106732,-1,2025-11-07 12:47:19.988287462
2025-11-07 12:47:15.106732,-74,2025-11-07 12:47:19.995979769
2025-11-07 12:47:15.106732,-18689,2025-11-07 12:47:20.003672077
2025-11-07 12:47:15.106732,-1,2025-11-07 12:47:20.011364385
2025-11-07 12:47:15.106732,-101,2025-11-07 12:47:20.019056692
2025-11-07 12:47:15.106732,31999,2025-11-07 12:47:20.026749000
2025-11-07 12:47:15.106732,-1,2025-11-07 12:47:20.034441308
2025-11-07 12:47:15.106732,-154,2025-11-07 12:47:20.042133615
2025-11-07 12:47:15.106732,23295,2025-11-07 12:47:20.049825923
2025-11-07 12:47:15.106732,-1,2025-11-07 12:47:20.057518231
2025-11-07 12:47:15.106732,-168,2025-11-07 12:47:20.065210538
2025-11-07 12:47:15.106732,20223,2025-11-07 12:47:20.072902846
2025-11-07 12:47:15.106732,-1,2025-11-07 12:47:20.080595154
2025-11-07 12:47:15.106732,-185,2025-11-07 12:47:20.088287462
2025-11-07 12:47:15.106732,18943,2025-11-07 12:47:20.095979769
2025-11-07 12:47:15.106732,-1,2025-11-07 12:47:20.103672077
2025-11-07 12:47:15.106732,-176,2025-11-07 12:47:20.111364385
2025-11-07 12:47:15.106732,23295,2025-11-07 12:47:20.119056692
2025-11-07 12:47:15.106732,-1,2025-11-07 12:47:20.126749000
2025-11-07 12:47:15.106732,-171,2025-11-07 12:47:20.134441308
2025-11-07 12:47:15.106732,20735,2025-11-07 12:47:20.142133615
2025-11-07 12:47:15.106732,-1,2025-11-07 12:47:20.149825923
2025-11-07 12:47:15.106732,-159,2025-11-07 12:47:20.157518230
2025-11-07 12:47:15.106732,29439,2025-11-07 12:47:20.165210538
2025-11-07 12:47:15.106732,-1,2025-11-07 12:47:20.172902846
2025-11-07 12:47:15.106732,-118,2025-11-07 12:47:20.180595154
2025-11-07 12:47:15.106732,-22529,2025-11-07 12:47:20.188287462
2025-11-07 12:47:15.106732,-1,2025-11-07 12:47:20.195979769
2025-11-07 12:47:15.106732,-91,2025-11-07 12:47:20.203672077
2025-11-07 12:47:15.106732,-24833,2025-11-07 12:47:20.211364385
2025-11-07 12:47:15.106732,-1,2025-11-07 12:47:20.219056692
2025-11-07 12:47:15.106732,-98,2025-11-07 12:47:20.226749000
2025-11-07 12:47:15.106732,-26881,2025-11-07 12:47:20.234441308
2025-11-07 12:47:15.106732,-1,2025-11-07 12:47:20.242133615
2025-11-07 12:47:15.106732,-125,2025-11-07 12:47:20.249825923
2025-11-07 12:47:15.106732,31999,2025-11-07 12:47:20.257518231
2025-11-07 12:47:15.106732,-1,2025-11-07 12:47:20.265210538
2025-11-07 12:47:15.106732,-113,2025-11-07 12:47:20.272902846
2025-11-07 12:47:15.106732,-28673,2025-11-07 12:47:20.280595154
2025-11-07 12:47:15.106732,-1,2025-11-07 12:47:20.288287462
2025-11-07 12:47:15.106732,-132,2025-11-07 12:47:20.295979769
2025-11-07 12:47:15.106732,23807,2025-11-07 12:47:20.303672077
2025-11-07 12:47:15.106732,-1,2025-11-07 12:47:20.311364385
2025-11-07 12:47:15.106732,-275,2025-11-07 12:47:20.319056692
2025-11-07 12:47:15.106732,-30977,2025-11-07 12:47:20.326749000
2025-11-07 12:47:15.106732,-2,2025-11-07 12:47:20.334441308
2025-11-07 12:47:15.106732,-161,2025-11-07 12:47:20.342133615
2025-11-07 12:47:15.106732,-20481,2025-11-07 12:47:20.349825923
2025-11-07 12:47:15.106732,1,2025-11-07 12:47:20.357518231
2025-11-07 12:47:15.106732,875,2025-11-07 12:47:20.365210538
2025-11-07 12:47:15.106732,11520,2025-11-07 12:47:20.372902846
2025-11-07 12:47:15.106732,2,2025-11-07 12:47:20.380595154
2025-11-07 12:47:15.106732,-137,2025-11-07 12:47:20.388287462
2025-11-07 12:47:15.106732,-18177,2025-11-07 12:47:20.395979769
2025-11-07 12:47:15.106732,-2,2025-11-07 12:47:20.403672077
2025-11-07 12:47:15.106732,-135,2025-11-07 12:47:20.411364385
2025-11-07 12:47:15.106732,-24833,2025-11-07 12:47:20.419056692
2025-11-07 12:47:15.106732,-1,2025-11-07 12:47:20.426749000
2025-11-07 12:47:15.106732,-152,2025-11-07 12:47:20.434441308
2025-11-07 12:47:15.106732,30719,2025-11-07 12:47:20.442133615
2025-11-07 12:47:15.106732,-1,2025-11-07 12:47:20.449825923
2025-11-07 12:47:15.106732,-125,2025-11-07 12:47:20.457518231
2025-11-07 12:47:15.106732,29439,2025-11-07 12:47:20.465210538
2025-11-07 12:47:15.106732,-1,2025-11-07 12:47:20.472902846
2025-11-07 12:47:15.106732,-132,2025-11-07 12:47:20.480595154
2025-11-07 12:47:15.106732,-29185,2025-11-07 12:47:20.488287462
2025-11-07 12:47:15.106732,-1,2025-11-07 12:47:20.495979769
2025-11-07 12:47:15.106732,-113,2025-11-07 12:47:20.503672077
2025-11-07 12:47:15.106732,-25601,2025-11-07 12:47:20.511364385
2025-11-07 12:47:15.106732,-1,2025-11-07 12:47:20.519056692
2025-11-07 12:47:15.106732,-96,2025-11-07 12:47:20.526749000
2025-11-07 12:47:15.106732,-24321,2025-11-07 12:47:20.534441308
2025-11-07 12:47:15.106732,-1,2025-11-07 12:47:20.542133615
2025-11-07 12:47:15.106732,-77,2025-11-07 12:47:20.549825923
2025-11-07 12:47:15.106732,-17409,2025-11-07 12:47:20.557518231
2025-11-07 12:47:15.106732,-1,2025-11-07 12:47:20.565210538
2025-11-07 12:47:15.106732,-62,2025-11-07 12:47:20.572902846
2025-11-07 12:47:15.106732,-12033,2025-11-07 12:47:20.580595154
2025-11-07 12:47:15.106732,-1,2025-11-07 12:47:20.588287462
2025-11-07 12:47:15.106732,-41,2025-11-07 12:47:20.595979769
2025-11-07 12:47:15.106732,-8193,2025-11-07 12:47:20.603672077
2025-11-07 12:47:15.106732,-1,2025-11-07 12:47:20.611364385
2025-11-07 12:47:15.106732,-21,2025-11-07 12:47:20.619056692
2025-11-07 12:47:15.106732,-1537,2025-11-07 12:47:20.626749000
2025-11-07 12:47:15.106732,-1,2025-11-07 12:47:20.634441308
