timestamp,ecg
16:03:16.315883,14
16:03:16.315883,4864
16:03:16.315883,0
16:03:16.315883,21
16:03:16.315883,4864
16:03:16.315883,0
16:03:16.315883,76
16:03:16.315883,-12800
16:03:16.315883,0
16:03:16.315883,127
16:03:16.315883,-8192
16:03:16.315883,-3
16:03:16.315883,-1437
16:03:16.315883,10239
16:03:16.315883,-6
16:03:16.315883,-730
16:03:16.315883,20479
16:03:16.315883,-1
16:03:16.315883,-31
16:03:16.315883,30207
16:03:16.315883,0
16:03:16.315883,213
16:03:16.315883,-16640
16:03:16.315883,0
16:03:16.315883,194
16:03:16.315883,-11008
16:03:16.315883,0
16:03:16.315883,206
16:03:16.315883,-14080
16:03:16.315883,0
16:03:16.315883,201
16:03:16.315883,-17152
16:03:16.315883,0
16:03:16.315883,179
16:03:16.315883,-20224
16:03:16.315883,0
16:03:16.315883,172
16:03:16.315883,-22784
16:03:16.315883,0
16:03:16.315883,160
16:03:16.315883,-28160
16:03:16.315883,0
16:03:16.315883,139
16:03:16.315883,-29952
16:03:16.315883,0
16:03:16.315883,134
16:03:16.315883,31744
16:03:16.315883,0
16:03:16.315883,110
16:03:16.315883,24320
16:03:16.315883,0
16:03:16.315883,81
16:03:16.315883,14592
16:03:16.315883,0
16:03:16.315883,40
16:03:16.315883,5888
16:03:16.315883,0
16:03:16.315883,-2
16:03:16.315883,-8193
16:03:16.315883,-1
16:03:16.315883,-45
16:03:16.315883,-11265
16:03:16.315883,-1
16:03:16.315883,-35
16:03:16.315883,-3841
16:03:16.315883,-1
16:03:16.315883,9
16:03:16.315883,7936
16:03:16.315883,0
16:03:16.315883,50
16:03:16.315883,15872
16:03:16.315883,0
16:03:16.315883,67
16:03:16.315883,18176
16:03:16.315883,0
16:03:16.315883,71
16:03:16.315883,17152
16:03:16.315883,0
16:03:16.315883,62
16:03:16.315883,15872
16:03:16.315883,0
16:03:16.315883,64
16:03:16.315883,17664
16:03:16.315883,0
16:03:16.315883,67
16:03:16.315883,17152
16:03:16.315883,0
16:03:16.315883,64
16:03:16.315883,16384
16:03:16.315883,0
16:03:16.315883,67
16:03:16.315883,17152
16:03:16.315883,0
16:03:16.315883,59
16:03:16.315883,14080
16:03:16.315883,0
16:03:16.315883,50
16:03:16.315883,11520
16:03:16.315883,0
16:03:16.315883,45
16:03:16.315883,11008
16:03:16.315883,0
16:03:16.315883,38
16:03:16.315883,8960
16:03:16.315883,0
16:03:16.315883,33
16:03:16.315883,7936
16:03:16.315883,0
16:03:16.315883,28
16:03:16.858533,26
16:03:16.858533,5888
16:03:16.858533,0
16:03:16.858533,21
16:03:16.858533,5376
16:03:16.858533,0
16:03:16.858533,23
16:03:16.858533,6656
16:03:16.858533,0
16:03:16.858533,23
16:03:16.858533,6656
16:03:16.858533,0
16:03:16.858533,31
16:03:16.858533,8448
16:03:16.858533,0
16:03:16.858533,38
16:03:16.858533,14592
16:03:16.858533,0
16:03:16.858533,64
16:03:16.858533,15104
16:03:16.858533,0
16:03:16.858533,59
16:03:16.858533,15104
16:03:16.858533,0
16:03:16.858533,57
16:03:16.858533,14592
16:03:16.858533,0
16:03:16.858533,64
16:03:16.858533,18176
16:03:16.858533,0
16:03:16.858533,74
16:03:16.858533,19456
16:03:16.858533,0
16:03:16.858533,71
16:03:16.858533,12032
16:03:16.858533,0
16:03:16.858533,21
16:03:16.858533,3584
16:03:16.858533,0
16:03:16.858533,19
16:03:16.858533,7168
16:03:16.858533,0
16:03:16.858533,38
16:03:16.858533,9728
16:03:16.858533,0
16:03:16.858533,31
16:03:16.858533,7168
16:03:16.858533,0
16:03:16.858533,28
16:03:16.858533,5888
16:03:16.858533,0
16:03:16.858533,23
16:03:16.858533,6656
16:03:16.858533,0
16:03:16.858533,57
16:03:16.858533,-23296
16:03:16.858533,0
16:03:16.858533,239
16:03:16.858533,29440
16:03:16.858533,-1
16:03:16.858533,-1068
16:03:16.858533,-21249
16:03:16.858533,-7
16:03:16.858533,-1119
16:03:16.858533,-30977
16:03:16.858533,-2
16:03:16.858533,-110
16:03:16.858533,5631
16:03:16.858533,0
16:03:16.858533,177
16:03:16.858533,-15872
16:03:16.858533,0
16:03:16.858533,172
16:03:16.858533,-14848
16:03:16.858533,0
16:03:16.858533,203
16:03:16.858533,-17920
16:03:16.858533,0
16:03:16.858533,186
16:03:16.858533,-18432
16:03:16.858533,0
16:03:16.858533,174
16:03:16.858533,-22016
16:03:16.858533,0
16:03:16.858533,167
16:03:16.858533,-24576
16:03:16.858533,0
16:03:16.858533,155
16:03:16.858533,-27648
16:03:16.858533,0
16:03:16.858533,143
16:03:16.858533,-30720
16:03:16.858533,0
16:03:16.858533,131
16:03:16.858533,32512
16:03:16.858533,0
16:03:16.858533,122
16:03:16.858533,28672
16:03:16.858533,0
16:03:16.858533,100
16:03:16.858533,22016
16:03:16.858533,0
16:03:16.858533,69
16:03:16.858533,12800
16:03:16.858533,0
16:03:16.858533,28
16:03:16.858533,1792
16:03:16.858533,0
16:03:16.858533,-14
16:03:17.442595,-35
16:03:17.442595,-12545
16:03:17.442595,-1
16:03:17.442595,-52
16:03:17.442595,-8193
16:03:17.442595,-1
16:03:17.442595,-4
16:03:17.442595,5631
16:03:17.442595,0
16:03:17.442595,35
16:03:17.442595,13312
16:03:17.442595,0
16:03:17.442595,74
16:03:17.442595,21248
16:03:17.442595,0
16:03:17.442595,76
16:03:17.442595,18944
16:03:17.442595,0
16:03:17.442595,74
16:03:17.442595,18176
16:03:17.442595,0
16:03:17.442595,69
16:03:17.442595,18176
16:03:17.442595,0
16:03:17.442595,71
16:03:17.442595,18176
16:03:17.442595,0
16:03:17.442595,71
16:03:17.442595,18176
16:03:17.442595,0
16:03:17.442595,69
16:03:17.442595,17152
16:03:17.442595,0
16:03:17.442595,64
16:03:17.442595,16384
16:03:17.442595,0
16:03:17.442595,59
16:03:17.442595,14592
16:03:17.442595,0
16:03:17.442595,55
16:03:17.442595,12032
16:03:17.442595,0
16:03:17.442595,43
16:03:17.442595,11008
16:03:17.442595,0
16:03:17.442595,38
16:03:17.442595,8960
16:03:17.442595,0
16:03:17.442595,35
16:03:17.442595,8448
16:03:17.442595,0
16:03:17.442595,28
16:03:17.442595,7168
16:03:17.442595,0
16:03:17.442595,28
16:03:17.442595,7168
16:03:17.442595,0
16:03:17.442595,26
16:03:17.442595,5888
16:03:17.442595,0
16:03:17.442595,21
16:03:17.442595,5376
16:03:17.442595,0
16:03:17.442595,23
16:03:17.442595,5888
16:03:17.442595,0
16:03:17.442595,21
16:03:17.442595,4864
16:03:17.442595,0
16:03:17.442595,19
16:03:17.442595,4864
16:03:17.442595,0
16:03:17.442595,16
16:03:17.442595,4096
16:03:17.442595,0
16:03:17.442595,16
16:03:17.442595,4096
16:03:17.442595,0
16:03:17.442595,16
16:03:17.442595,4096
16:03:17.442595,0
16:03:17.442595,16
16:03:17.442595,4096
16:03:17.442595,0
16:03:17.442595,19
16:03:17.442595,4864
16:03:17.442595,0
16:03:17.442595,16
16:03:17.442595,4864
16:03:17.442595,0
16:03:17.442595,19
16:03:17.442595,4864
16:03:17.442595,0
16:03:17.442595,16
16:03:17.442595,5376
16:03:17.442595,0
16:03:17.442595,26
16:03:17.442595,7168
16:03:17.442595,0
16:03:17.442595,28
16:03:17.442595,6656
16:03:17.442595,0
16:03:17.442595,23
16:03:17.442595,5888
16:03:17.442595,0
16:03:17.442595,28
16:03:17.442595,8448
16:03:17.442595,0
16:03:17.442595,31
16:03:17.982661,28
16:03:17.982661,7168
16:03:17.982661,0
16:03:17.982661,26
16:03:17.982661,6656
16:03:17.982661,0
16:03:17.982661,26
16:03:17.982661,6656
16:03:17.982661,0
16:03:17.982661,23
16:03:17.982661,5376
16:03:17.982661,0
16:03:17.982661,21
16:03:17.982661,5376
16:03:17.982661,0
16:03:17.982661,28
16:03:17.982661,9728
16:03:17.982661,0
16:03:17.982661,45
16:03:17.982661,10240
16:03:17.982661,0
16:03:17.982661,38
16:03:17.982661,11008
16:03:17.982661,0
16:03:17.982661,47
16:03:17.982661,14080
16:03:17.982661,0
16:03:17.982661,50
16:03:17.982661,7168
16:03:17.982661,0
16:03:17.982661,11
16:03:17.982661,1024
16:03:17.982661,0
16:03:17.982661,4
16:03:17.982661,4864
16:03:17.982661,0
16:03:17.982661,28
16:03:17.982661,6656
16:03:17.982661,0
16:03:17.982661,19
16:03:17.982661,4096
16:03:17.982661,0
16:03:17.982661,19
16:03:17.982661,3584
16:03:17.982661,0
16:03:17.982661,9
16:03:17.982661,3584
16:03:17.982661,0
16:03:17.982661,74
16:03:17.982661,-15360
16:03:17.982661,0
16:03:17.982661,88
16:03:17.982661,25600
16:03:17.982661,-3
16:03:17.982661,-1615
16:03:17.982661,-24321
16:03:17.982661,-7
16:03:17.982661,-795
16:03:17.982661,17407
16:03:17.982661,-1
16:03:17.982661,-21
16:03:17.982661,29695
16:03:17.982661,0
16:03:17.982661,210
16:03:17.982661,-14848
16:03:17.982661,0
16:03:17.982661,198
16:03:17.982661,-9728
16:03:17.982661,0
16:03:17.982661,208
16:03:17.982661,-15360
16:03:17.982661,0
16:03:17.982661,196
16:03:17.982661,-16640
16:03:17.982661,0
16:03:17.982661,179
16:03:17.982661,-20224
16:03:17.982661,0
16:03:17.982661,174
16:03:17.982661,-22016
16:03:17.982661,0
16:03:17.982661,167
16:03:17.982661,-23296
16:03:17.982661,0
16:03:17.982661,160
16:03:17.982661,-25856
16:03:17.982661,0
16:03:17.982661,153
16:03:17.982661,-27648
16:03:17.982661,0
16:03:17.982661,141
16:03:17.982661,-31232
16:03:17.982661,0
16:03:17.982661,129
16:03:17.982661,31744
16:03:17.982661,0
16:03:17.982661,110
16:03:17.982661,23296
16:03:17.982661,0
16:03:17.982661,67
16:03:17.982661,11520
16:03:17.982661,0
16:03:17.982661,21
16:03:17.982661,-512
16:03:17.982661,-1
16:03:17.982661,-23
16:03:17.982661,-10753
16:03:17.982661,-1
16:03:17.982661,-45
16:03:18.564928,-31
16:03:18.564928,-2561
16:03:18.564928,-1
16:03:18.564928,7
16:03:18.564928,5376
16:03:18.564928,0
16:03:18.564928,28
16:03:18.564928,7936
16:03:18.564928,0
16:03:18.564928,33
16:03:18.564928,8448
16:03:18.564928,0
16:03:18.564928,43
16:03:18.564928,13312
16:03:18.564928,0
16:03:18.564928,50
16:03:18.564928,12032
16:03:18.564928,0
16:03:18.564928,55
16:03:18.564928,15104
16:03:18.564928,0
16:03:18.564928,59
16:03:18.564928,16384
16:03:18.564928,0
16:03:18.564928,64
16:03:18.564928,16384
16:03:18.564928,0
16:03:18.564928,64
16:03:18.564928,17152
16:03:18.564928,0
16:03:18.564928,69
16:03:18.564928,17152
16:03:18.564928,0
16:03:18.564928,62
16:03:18.564928,14592
16:03:18.564928,0
16:03:18.564928,52
16:03:18.564928,12032
16:03:18.564928,0
16:03:18.564928,43
16:03:18.564928,10240
16:03:18.564928,0
16:03:18.564928,35
16:03:18.564928,7936
16:03:18.564928,0
16:03:18.564928,26
16:03:18.564928,6656
16:03:18.564928,0
16:03:18.564928,28
16:03:18.564928,6656
16:03:18.564928,0
16:03:18.564928,21
16:03:18.564928,5376
16:03:18.564928,0
16:03:18.564928,21
16:03:18.564928,5376
16:03:18.564928,0
16:03:18.564928,21
16:03:18.564928,5376
16:03:18.564928,0
16:03:18.564928,19
16:03:18.564928,4864
16:03:18.564928,0
16:03:18.564928,19
16:03:18.564928,4864
16:03:18.564928,0
16:03:18.564928,16
16:03:18.564928,4096
16:03:18.564928,0
16:03:18.564928,19
16:03:18.564928,4864
16:03:18.564928,0
16:03:18.564928,16
16:03:18.564928,4096
16:03:18.564928,0
16:03:18.564928,19
16:03:18.564928,4096
16:03:18.564928,0
16:03:18.564928,14
16:03:18.564928,3584
16:03:18.564928,0
16:03:18.564928,11
16:03:18.564928,2816
16:03:18.564928,0
16:03:18.564928,16
16:03:18.564928,4864
16:03:18.564928,0
16:03:18.564928,14
16:03:18.564928,3584
16:03:18.564928,0
16:03:18.564928,16
16:03:18.564928,3584
16:03:18.564928,0
16:03:18.564928,14
16:03:18.564928,4096
16:03:18.564928,0
16:03:18.564928,14
16:03:18.564928,2816
16:03:18.564928,0
16:03:18.564928,11
16:03:18.564928,2816
16:03:18.564928,0
16:03:18.564928,9
16:03:18.564928,2304
16:03:18.564928,0
16:03:18.564928,9
16:03:18.564928,1792
16:03:18.564928,0
16:03:18.564928,7
16:03:19.109280,9
16:03:19.109280,2816
16:03:19.109280,0
16:03:19.109280,19
16:03:19.109280,5888
16:03:19.109280,0
16:03:19.109280,28
16:03:19.109280,5888
16:03:19.109280,0
16:03:19.109280,7
16:03:19.109280,-2304
16:03:19.109280,-1
16:03:19.109280,-14
16:03:19.109280,-2049
16:03:19.109280,-1
16:03:19.109280,7
16:03:19.109280,6656
16:03:19.109280,0
16:03:19.109280,35
16:03:19.109280,7936
16:03:19.109280,0
16:03:19.109280,26
16:03:19.109280,5888
16:03:19.109280,0
16:03:19.109280,21
16:03:19.109280,4864
16:03:19.109280,0
16:03:19.109280,31
16:03:19.109280,25600
16:03:19.109280,0
16:03:19.109280,220
16:03:19.109280,15872
16:03:19.109280,0
16:03:19.109280,-728
16:03:19.109280,-12545
16:03:19.109280,-7
16:03:19.109280,-1459
16:03:19.109280,-26113
16:03:19.109280,-3
16:03:19.109280,-122
16:03:19.109280,-1537
16:03:19.109280,-1
16:03:19.109280,134
16:03:19.109280,-11776
16:03:19.109280,0
16:03:19.109280,184
16:03:19.109280,-17152
16:03:19.109280,0
16:03:19.109280,210
16:03:19.109280,-14848
16:03:19.109280,0
16:03:19.109280,191
16:03:19.109280,-15872
16:03:19.109280,0
16:03:19.109280,189
16:03:19.109280,-18432
16:03:19.109280,0
16:03:19.109280,182
16:03:19.109280,-20992
16:03:19.109280,0
16:03:19.109280,165
16:03:19.109280,-24576
16:03:19.109280,0
16:03:19.109280,155
16:03:19.109280,-27136
16:03:19.109280,0
16:03:19.109280,143
16:03:19.109280,-30720
16:03:19.109280,0
16:03:19.109280,129
16:03:19.109280,31232
16:03:19.109280,0
16:03:19.109280,112
16:03:19.109280,26880
16:03:19.109280,0
16:03:19.109280,93
16:03:19.109280,18944
16:03:19.109280,0
16:03:19.109280,50
16:03:19.109280,7936
16:03:19.109280,0
16:03:19.109280,9
16:03:19.109280,-2816
16:03:19.109280,-1
16:03:19.109280,-28
16:03:19.109280,-10753
16:03:19.109280,-1
16:03:19.109280,-43
16:03:19.109280,-6401
16:03:19.109280,-1
16:03:19.109280,-2
16:03:19.109280,5631
16:03:19.109280,0
16:03:19.109280,38
16:03:19.109280,12800
16:03:19.109280,0
16:03:19.109280,57
16:03:19.109280,14592
16:03:19.109280,0
16:03:19.109280,57
16:03:19.109280,14080
16:03:19.109280,0
16:03:19.109280,55
16:03:19.109280,14080
16:03:19.109280,0
16:03:19.109280,55
16:03:19.109280,14080
16:03:19.109280,0
16:03:19.109280,55
16:03:19.643787,57
16:03:19.643787,14592
16:03:19.643787,0
16:03:19.643787,59
16:03:19.643787,15104
16:03:19.643787,0
16:03:19.643787,59
16:03:19.643787,14080
16:03:19.643787,0
16:03:19.643787,55
16:03:19.643787,14080
16:03:19.643787,0
16:03:19.643787,57
16:03:19.643787,17152
16:03:19.643787,0
16:03:19.643787,67
16:03:19.643787,14592
16:03:19.643787,0
16:03:19.643787,52
16:03:19.643787,13312
16:03:19.643787,0
16:03:19.643787,47
16:03:19.643787,11520
16:03:19.643787,0
16:03:19.643787,43
16:03:19.643787,9728
16:03:19.643787,0
16:03:19.643787,35
16:03:19.643787,8448
16:03:19.643787,0
16:03:19.643787,33
16:03:19.643787,8448
16:03:19.643787,0
16:03:19.643787,31
16:03:19.643787,7168
16:03:19.643787,0
16:03:19.643787,28
16:03:19.643787,7168
16:03:19.643787,0
16:03:19.643787,31
16:03:19.643787,7168
16:03:19.643787,0
16:03:19.643787,26
16:03:19.643787,6656
16:03:19.643787,0
16:03:19.643787,26
16:03:19.643787,6656
16:03:19.643787,0
16:03:19.643787,26
16:03:19.643787,5888
16:03:19.643787,0
16:03:19.643787,21
16:03:19.643787,5376
16:03:19.643787,0
16:03:19.643787,19
16:03:19.643787,4864
16:03:19.643787,0
16:03:19.643787,21
16:03:19.643787,5376
16:03:19.643787,0
16:03:19.643787,19
16:03:19.643787,5376
16:03:19.643787,0
16:03:19.643787,26
16:03:19.643787,6656
16:03:19.643787,0
16:03:19.643787,26
16:03:19.643787,7168
16:03:19.643787,0
16:03:19.643787,26
16:03:19.643787,5888
16:03:19.643787,0
16:03:19.643787,23
16:03:19.643787,6656
16:03:19.643787,0
16:03:19.643787,28
16:03:19.643787,7168
16:03:19.643787,0
16:03:19.643787,31
16:03:19.643787,9728
16:03:19.643787,0
16:03:19.643787,43
16:03:19.643787,12032
16:03:19.643787,0
16:03:19.643787,40
16:03:19.643787,5376
16:03:19.643787,0
16:03:19.643787,7
16:03:19.643787,0
16:03:19.643787,0
16:03:19.643787,2
16:03:19.643787,5376
16:03:19.643787,0
16:03:19.643787,35
16:03:19.643787,7168
16:03:19.643787,0
16:03:19.643787,21
16:03:19.643787,5888
16:03:19.643787,0
16:03:19.643787,23
16:03:19.643787,5376
16:03:19.643787,0
16:03:19.643787,21
16:03:19.643787,6656
16:03:19.643787,0
16:03:19.643787,79
16:03:19.643787,-15872
16:03:19.643787,0
16:03:19.643787,110
16:03:20.274161,-563
16:03:20.274161,18687
16:03:20.274161,-6
16:03:20.274161,-1517
16:03:20.274161,13055
16:03:20.274161,-3
16:03:20.274161,-150
16:03:20.274161,-5633
16:03:20.274161,-1
16:03:20.274161,117
16:03:20.274161,-7936
16:03:20.274161,0
16:03:20.274161,198
16:03:20.274161,-16640
16:03:20.274161,0
16:03:20.274161,215
16:03:20.274161,-12800
16:03:20.274161,0
16:03:20.274161,191
16:03:20.274161,-16640
16:03:20.274161,0
16:03:20.274161,184
16:03:20.274161,-20992
16:03:20.274161,0
16:03:20.274161,170
16:03:20.274161,-22784
16:03:20.274161,0
16:03:20.274161,162
16:03:20.274161,-25856
16:03:20.274161,0
16:03:20.274161,146
16:03:20.274161,-29952
16:03:20.274161,0
16:03:20.274161,134
16:03:20.274161,-32512
16:03:20.274161,0
16:03:20.274161,124
16:03:20.274161,29440
16:03:20.274161,0
16:03:20.274161,100
16:03:20.274161,22528
16:03:20.274161,0
16:03:20.274161,74
16:03:20.274161,14592
16:03:20.274161,0
16:03:20.274161,38
16:03:20.274161,4096
16:03:20.274161,0
16:03:20.274161,-2
16:03:20.274161,-5121
16:03:20.274161,-1
16:03:20.274161,-38
16:03:20.274161,-10753
16:03:20.274161,-1
16:03:20.274161,-38
16:03:20.274161,-5633
16:03:20.274161,-1
16:03:20.274161,4
16:03:20.274161,7168
16:03:20.274161,0
16:03:20.274161,45
16:03:20.274161,15104
16:03:20.274161,0
16:03:20.274161,67
16:03:20.274161,18176
16:03:20.274161,0
16:03:20.274161,71
16:03:20.274161,17152
16:03:20.274161,0
16:03:20.274161,62
16:03:20.274161,15872
16:03:20.274161,0
16:03:20.274161,62
16:03:20.274161,15104
16:03:20.274161,0
16:03:20.274161,64
16:03:20.274161,17152
16:03:20.274161,0
16:03:20.274161,67
16:03:20.274161,17152
16:03:20.274161,0
16:03:20.274161,69
16:03:20.274161,16384
16:03:20.274161,0
16:03:20.274161,57
16:03:20.274161,14080
16:03:20.274161,0
16:03:20.274161,50
16:03:20.274161,12032
16:03:20.274161,0
16:03:20.274161,45
16:03:20.274161,9728
16:03:20.274161,0
16:03:20.274161,31
16:03:20.274161,7168
16:03:20.274161,0
16:03:20.274161,31
16:03:20.274161,7936
16:03:20.274161,0
16:03:20.274161,26
16:03:20.274161,6656
16:03:20.274161,0
16:03:20.274161,26
16:03:20.274161,5888
16:03:20.274161,0
16:03:20.274161,23
16:03:20.274161,6656
16:03:20.274161,0
16:03:20.274161,23
16:03:20.772943,19
16:03:20.772943,4864
16:03:20.772943,0
16:03:20.772943,23
16:03:20.772943,5888
16:03:20.772943,0
16:03:20.772943,23
16:03:20.772943,6656
16:03:20.772943,0
16:03:20.772943,23
16:03:20.772943,5376
16:03:20.772943,0
16:03:20.772943,23
16:03:20.772943,6656
16:03:20.772943,0
16:03:20.772943,28
16:03:20.772943,8448
16:03:20.772943,0
16:03:20.772943,35
16:03:20.772943,7936
16:03:20.772943,0
16:03:20.772943,38
16:03:20.772943,13312
16:03:20.772943,0
16:03:20.772943,57
16:03:20.772943,12800
16:03:20.772943,0
16:03:20.772943,47
16:03:20.772943,12032
16:03:20.772943,0
16:03:20.772943,47
16:03:20.772943,12032
16:03:20.772943,0
16:03:20.772943,50
16:03:20.772943,12032
16:03:20.772943,0
16:03:20.772943,43
16:03:20.772943,11008
16:03:20.772943,0
16:03:20.772943,43
16:03:20.772943,11520
16:03:20.772943,0
16:03:20.772943,45
16:03:20.772943,12032
16:03:20.772943,0
16:03:20.772943,50
16:03:20.772943,12800
16:03:20.772943,0
16:03:20.772943,55
16:03:20.772943,15104
16:03:20.772943,0
16:03:20.772943,47
16:03:20.772943,7168
16:03:20.772943,0
16:03:20.772943,14
16:03:20.772943,1792
16:03:20.772943,0
16:03:20.772943,14
16:03:20.772943,8448
16:03:20.772943,0
16:03:20.772943,35
16:03:20.772943,7936
16:03:20.772943,0
16:03:20.772943,28
16:03:20.772943,7168
16:03:20.772943,0
16:03:20.772943,26
16:03:20.772943,7168
16:03:20.772943,0
16:03:20.772943,28
16:03:20.772943,12800
16:03:20.772943,0
16:03:20.772943,148
16:03:20.772943,-5632
16:03:20.772943,0
16:03:20.772943,-91
16:03:20.772943,11007
16:03:20.772943,-4
16:03:20.772943,-1574
16:03:20.772943,-25857
16:03:20.772943,-5
16:03:20.772943,-381
16:03:20.772943,-27905
16:03:20.772943,-1
16:03:20.772943,11
16:03:20.772943,-22016
16:03:20.772943,0
16:03:20.772943,191
16:03:20.772943,-23296
16:03:20.772943,0
16:03:20.772943,189
16:03:20.772943,-15360
16:03:20.772943,0
16:03:20.772943,182
16:03:20.772943,-19712
16:03:20.772943,0
16:03:20.772943,177
16:03:20.772943,-23296
16:03:20.772943,0
16:03:20.772943,160
16:03:20.772943,-24576
16:03:20.772943,0
16:03:20.772943,153
16:03:20.772943,-28160
16:03:20.772943,0
16:03:20.772943,141
16:03:20.772943,-30720
16:03:20.772943,0
16:03:20.772943,124
16:03:21.313764,119
16:03:21.313764,29952
16:03:21.313764,0
16:03:21.313764,107
16:03:21.313764,24320
16:03:21.313764,0
16:03:21.313764,86
16:03:21.313764,19456
16:03:21.313764,0
16:03:21.313764,69
16:03:21.313764,15872
16:03:21.313764,0
16:03:21.313764,43
16:03:21.313764,4864
16:03:21.313764,0
16:03:21.313764,2
16:03:21.313764,-4096
16:03:21.313764,-1
16:03:21.313764,-35
16:03:21.313764,-9985
16:03:21.313764,-1
16:03:21.313764,-26
16:03:21.313764,-769
16:03:21.313764,-1
16:03:21.313764,23
16:03:21.313764,11520
16:03:21.313764,0
16:03:21.313764,57
16:03:21.313764,17152
16:03:21.313764,0
16:03:21.313764,76
16:03:21.313764,20736
16:03:21.313764,0
16:03:21.313764,79
16:03:21.313764,20736
16:03:21.313764,0
16:03:21.313764,91
16:03:21.313764,23296
16:03:21.313764,0
16:03:21.313764,83
16:03:21.313764,20224
16:03:21.313764,0
16:03:21.313764,76
16:03:21.313764,18944
16:03:21.313764,0
16:03:21.313764,74
16:03:21.313764,17664
16:03:21.313764,0
16:03:21.313764,59
16:03:21.313764,14592
16:03:21.313764,0
16:03:21.313764,57
16:03:21.313764,12800
16:03:21.313764,0
16:03:21.313764,45
16:03:21.313764,11008
16:03:21.313764,0
16:03:21.313764,40
16:03:21.313764,9728
16:03:21.313764,0
16:03:21.313764,35
16:03:21.313764,8448
16:03:21.313764,0
16:03:21.313764,31
16:03:21.313764,7936
16:03:21.313764,0
16:03:21.313764,28
16:03:21.313764,7936
16:03:21.313764,0
16:03:21.313764,31
16:03:21.313764,7936
16:03:21.313764,0
16:03:21.313764,28
16:03:21.313764,6656
16:03:21.313764,0
16:03:21.313764,28
16:03:21.313764,7168
16:03:21.313764,0
16:03:21.313764,26
16:03:21.313764,6656
16:03:21.313764,0
16:03:21.313764,28
16:03:21.313764,5888
16:03:21.313764,0
16:03:21.313764,21
16:03:21.313764,5888
16:03:21.313764,0
16:03:21.313764,21
16:03:21.313764,5888
16:03:21.313764,0
16:03:21.313764,23
16:03:21.313764,5888
16:03:21.313764,0
16:03:21.313764,21
16:03:21.313764,4864
16:03:21.313764,0
16:03:21.313764,16
16:03:21.313764,4096
16:03:21.313764,0
16:03:21.313764,19
16:03:21.313764,4096
16:03:21.313764,0
16:03:21.313764,11
16:03:21.313764,3584
16:03:21.313764,0
16:03:21.313764,19
16:03:21.313764,4096
16:03:21.313764,0
16:03:21.313764,14
16:03:21.942608,16
16:03:21.942608,4096
16:03:21.942608,0
16:03:21.942608,16
16:03:21.942608,5888
16:03:21.942608,0
16:03:21.942608,43
16:03:21.942608,13312
16:03:21.942608,0
16:03:21.942608,52
16:03:21.942608,13312
16:03:21.942608,0
16:03:21.942608,43
16:03:21.942608,7936
16:03:21.942608,0
16:03:21.942608,16
16:03:21.942608,2304
16:03:21.942608,0
16:03:21.942608,19
16:03:21.942608,8960
16:03:21.942608,0
16:03:21.942608,45
16:03:21.942608,11008
16:03:21.942608,0
16:03:21.942608,38
16:03:21.942608,8448
16:03:21.942608,0
16:03:21.942608,28
16:03:21.942608,7168
16:03:21.942608,0
16:03:21.942608,31
16:03:21.942608,20224
16:03:21.942608,0
16:03:21.942608,208
16:03:21.942608,-10496
16:03:21.942608,0
16:03:21.942608,-347
16:03:21.942608,-4353
16:03:21.942608,-6
16:03:21.942608,-1557
16:03:21.942608,-24577
16:03:21.942608,-4
16:03:21.942608,-227
16:03:21.942608,-9985
16:03:21.942608,-1
16:03:21.942608,86
16:03:21.942608,-14080
16:03:21.942608,0
16:03:21.942608,196
16:03:21.942608,-19712
16:03:21.942608,0
16:03:21.942608,189
16:03:21.942608,-17920
16:03:21.942608,0
16:03:21.942608,177
16:03:21.942608,-23296
16:03:21.942608,0
16:03:21.942608,165
16:03:21.942608,-22784
16:03:21.942608,0
16:03:21.942608,143
16:03:21.942608,-31232
16:03:21.942608,0
16:03:21.942608,146
16:03:21.942608,-29440
16:03:21.942608,0
16:03:21.942608,136
16:03:21.942608,-31232
16:03:21.942608,0
16:03:21.942608,103
16:03:21.942608,25600
16:03:21.942608,0
16:03:21.942608,141
16:03:21.942608,-28928
16:03:21.942608,0
16:03:21.942608,112
16:03:21.942608,23296
16:03:21.942608,0
16:03:21.942608,88
16:03:21.942608,17664
16:03:21.942608,0
16:03:21.942608,33
16:03:21.942608,4864
16:03:21.942608,0
16:03:21.942608,7
16:03:21.942608,-7168
16:03:21.942608,-1
16:03:21.942608,-35
16:03:21.942608,-4609
16:03:21.942608,-1
16:03:21.942608,-43
16:03:21.942608,-17409
16:03:21.942608,-1
16:03:21.942608,-31
16:03:21.942608,4351
16:03:21.942608,0
16:03:21.942608,16
16:03:21.942608,1792
16:03:21.942608,0
16:03:21.942608,11
16:03:21.942608,3584
16:03:21.942608,0
16:03:21.942608,2
16:03:21.942608,-1792
16:03:21.942608,-1
16:03:21.942608,0
16:03:21.942608,5376
16:03:21.942608,0
16:03:21.942608,19
16:03:22.482620,-9
16:03:22.482620,-769
16:03:22.482620,-1
16:03:22.482620,14
16:03:22.482620,512
16:03:22.482620,0
16:03:22.482620,9
16:03:22.482620,7936
16:03:22.482620,0
16:03:22.482620,-2
16:03:22.482620,-5633
16:03:22.482620,-1
16:03:22.482620,-11
16:03:22.482620,-7681
16:03:22.482620,-1
16:03:22.482620,-16
16:03:22.482620,3839
16:03:22.482620,0
16:03:22.482620,-11
16:03:22.482620,-1537
16:03:22.482620,-1
16:03:22.482620,50
16:03:22.482620,11520
16:03:22.482620,0
16:03:22.482620,-28
16:03:22.482620,-13057
16:03:22.482620,-1
16:03:22.482620,-14
16:03:22.482620,-10753
16:03:22.482620,-1
16:03:22.482620,-76
16:03:22.482620,-5633
16:03:22.482620,-1
16:03:22.482620,4
16:03:22.482620,-4096
16:03:22.482620,-1
16:03:22.482620,-16
16:03:22.482620,-3329
16:03:22.482620,-1
16:03:22.482620,-11
16:03:22.482620,-3329
16:03:22.482620,-1
16:03:22.482620,-43
16:03:22.482620,-4609
16:03:22.482620,-1
16:03:22.482620,11
16:03:22.482620,-24320
16:03:22.482620,-1
16:03:22.482620,-191
16:03:22.482620,-28417
16:03:22.482620,-1
16:03:22.482620,-47
16:03:22.482620,-26113
16:03:22.482620,-1
16:03:22.482620,-172
16:03:22.482620,18687
16:03:22.482620,-1
16:03:22.482620,-182
16:03:22.482620,13055
16:03:22.482620,-1
16:03:22.482620,-220
16:03:22.482620,5887
16:03:22.482620,-1
16:03:22.482620,-268
16:03:22.482620,-10753
16:03:22.482620,-2
16:03:22.482620,-352
16:03:22.482620,28415
16:03:22.482620,-2
16:03:22.482620,-381
16:03:22.482620,-27393
16:03:22.482620,-2
16:03:22.482620,-419
16:03:22.482620,5631
16:03:22.482620,-2
16:03:22.482620,-508
16:03:22.482620,-12801
16:03:22.482620,-3
16:03:22.482620,-745
16:03:22.482620,-18433
16:03:22.482620,-4
16:03:22.482620,-721
16:03:22.482620,-22529
16:03:22.482620,-3
16:03:22.482620,-627
16:03:22.482620,27135
16:03:22.482620,-3
16:03:22.482620,-611
16:03:22.482620,-26113
16:03:22.482620,-3
16:03:22.482620,-675
16:03:22.482620,-32257
16:03:22.482620,-3
16:03:22.482620,-551
16:03:22.482620,13055
16:03:22.482620,-2
16:03:22.482620,-436
16:03:22.482620,6911
16:03:22.482620,-3
16:03:22.482620,-1497
16:03:22.482620,-12289
16:03:22.482620,-9
16:03:22.482620,-1751
16:03:22.482620,31231
16:03:22.482620,-4
16:03:22.482620,-520
16:03:22.482620,15615
16:03:22.482620,-2
16:03:22.482620,-335
16:03:23.022600,-306
16:03:23.022600,-21761
16:03:23.022600,-2
16:03:23.022600,-321
16:03:23.022600,-13825
16:03:23.022600,-2
16:03:23.022600,-323
16:03:23.022600,-12033
16:03:23.022600,-2
16:03:23.022600,-273
16:03:23.022600,3327
16:03:23.022600,-1
16:03:23.022600,-203
16:03:23.022600,24319
16:03:23.022600,-1
16:03:23.022600,-124
16:03:23.022600,-21761
16:03:23.022600,-1
16:03:23.022600,-57
16:03:23.022600,-6913
16:03:23.022600,-1
16:03:23.022600,7
16:03:23.022600,8960
16:03:23.022600,0
16:03:23.022600,62
16:03:23.022600,21248
16:03:23.022600,0
16:03:23.022600,100
16:03:23.022600,28672
16:03:23.022600,0
16:03:23.022600,117
16:03:23.022600,-29440
16:03:23.022600,0
16:03:23.022600,174
16:03:23.022600,-15872
16:03:23.022600,0
16:03:23.022600,203
16:03:23.022600,-12800
16:03:23.022600,0
16:03:23.022600,194
16:03:23.022600,-14848
16:03:23.022600,0
16:03:23.022600,242
16:03:23.022600,4352
16:03:23.022600,1
16:03:23.022600,258
16:03:23.022600,-10496
16:03:23.022600,0
16:03:23.022600,162
16:03:23.022600,23296
16:03:23.022600,0
16:03:23.022600,40
16:03:23.022600,9728
16:03:23.022600,0
16:03:23.022600,23
16:03:23.022600,-4864
16:03:23.022600,-1
16:03:23.022600,-26
16:03:23.022600,-2561
16:03:23.022600,-1
16:03:23.022600,-9
16:03:23.022600,-3329
16:03:23.022600,-1
16:03:23.022600,-9
16:03:23.022600,-1537
16:03:23.022600,-1
16:03:23.022600,-9
16:03:23.022600,-2561
16:03:23.022600,-1
16:03:23.022600,-9
16:03:23.022600,-2049
16:03:23.022600,-1
16:03:23.022600,-14
16:03:23.022600,-3329
16:03:23.022600,-1
16:03:23.022600,-16
16:03:23.022600,-3841
16:03:23.022600,-1
16:03:23.022600,-14
16:03:23.022600,-4609
16:03:23.022600,-1
16:03:23.022600,-23
16:03:23.022600,-6401
16:03:23.022600,-1
16:03:23.022600,-31
16:03:23.022600,-9985
16:03:23.022600,-1
16:03:23.022600,-35
16:03:23.022600,-8705
16:03:23.022600,-1
16:03:23.022600,-43
16:03:23.022600,-8705
16:03:23.022600,-1
16:03:23.022600,-38
16:03:23.022600,-10753
16:03:23.022600,-1
16:03:23.022600,-26
16:03:23.022600,-257
16:03:23.022600,-1
16:03:23.022600,16
16:03:23.022600,4864
16:03:23.022600,0
16:03:23.022600,-16
16:03:23.022600,-13825
16:03:23.022600,-1
16:03:23.022600,-64
16:03:23.022600,-14849
16:03:23.022600,-1
16:03:23.022600,-33
16:03:23.608726,-2
16:03:23.608726,-769
16:03:23.608726,-1
16:03:23.608726,-16
16:03:23.608726,-3841
16:03:23.608726,-1
16:03:23.608726,-31
16:03:23.608726,-11265
16:03:23.608726,-1
16:03:23.608726,-28
16:03:23.608726,-769
16:03:23.608726,-1
16:03:23.608726,19
16:03:23.608726,24320
16:03:23.608726,0
16:03:23.608726,218
16:03:23.608726,-29952
16:03:23.608726,0
16:03:23.608726,-457
16:03:23.608726,15871
16:03:23.608726,-5
16:03:23.608726,-1205
16:03:23.608726,3327
16:03:23.608726,-2
16:03:23.608726,-67
16:03:23.608726,10495
16:03:23.608726,0
16:03:23.608726,194
16:03:23.608726,1280
16:03:23.608726,1
16:03:23.608726,244
16:03:23.608726,5632
16:03:23.608726,1
16:03:23.608726,275
16:03:23.608726,-11008
16:03:23.608726,0
16:03:23.608726,182
16:03:23.608726,-14848
16:03:23.608726,0
16:03:23.608726,213
16:03:23.608726,-9216
16:03:23.608726,0
16:03:23.608726,206
16:03:23.608726,-15872
16:03:23.608726,0
16:03:23.608726,194
16:03:23.608726,-20992
16:03:23.608726,0
16:03:23.608726,177
16:03:23.608726,-14848
16:03:23.608726,0
16:03:23.608726,155
16:03:23.608726,27392
16:03:23.608726,0
16:03:23.608726,129
16:03:23.608726,29952
16:03:23.608726,0
16:03:23.608726,50
16:03:23.608726,9728
16:03:23.608726,0
16:03:23.608726,64
16:03:23.608726,13312
16:03:23.608726,0
16:03:23.608726,21
16:03:23.608726,0
16:03:23.608726,0
16:03:23.608726,-9
16:03:23.608726,-2049
16:03:23.608726,-1
16:03:23.608726,7
16:03:23.608726,12032
16:03:23.608726,0
16:03:23.608726,103
16:03:23.608726,-27136
16:03:23.608726,0
16:03:23.608726,182
16:03:23.608726,-13568
16:03:23.608726,0
16:03:23.608726,220
16:03:23.608726,-6656
16:03:23.608726,0
16:03:23.608726,232
16:03:23.608726,-7936
16:03:23.608726,0
16:03:23.608726,215
16:03:23.608726,-10496
16:03:23.608726,0
16:03:23.608726,215
16:03:23.608726,-11008
16:03:23.608726,0
16:03:23.608726,206
16:03:23.608726,-14080
16:03:23.608726,0
16:03:23.608726,184
16:03:23.608726,-25856
16:03:23.608726,0
16:03:23.608726,162
16:03:23.608726,-23296
16:03:23.608726,0
16:03:23.608726,127
16:03:23.608726,29952
16:03:23.608726,0
16:03:23.608726,134
16:03:23.608726,29440
16:03:23.608726,0
16:03:23.608726,86
16:03:23.608726,21248
16:03:23.608726,0
16:03:23.608726,86
16:03:24.148958,86
16:03:24.148958,22016
16:03:24.148958,0
16:03:24.148958,91
16:03:24.148958,25600
16:03:24.148958,0
16:03:24.148958,105
16:03:24.148958,27392
16:03:24.148958,0
16:03:24.148958,127
16:03:24.148958,-27136
16:03:24.148958,0
16:03:24.148958,146
16:03:24.148958,31232
16:03:24.148958,0
16:03:24.148958,95
16:03:24.148958,17152
16:03:24.148958,0
16:03:24.148958,47
16:03:24.148958,14080
16:03:24.148958,0
16:03:24.148958,79
16:03:24.148958,22528
16:03:24.148958,0
16:03:24.148958,81
16:03:24.148958,17152
16:03:24.148958,0
16:03:24.148958,59
16:03:24.148958,11008
16:03:24.148958,0
16:03:24.148958,26
16:03:24.148958,7936
16:03:24.148958,0
16:03:24.148958,35
16:03:24.148958,11008
16:03:24.148958,0
16:03:24.148958,98
16:03:24.148958,-20224
16:03:24.148958,0
16:03:24.148958,67
16:03:24.148958,-768
16:03:24.148958,-3
16:03:24.148958,-1270
16:03:24.148958,1535
16:03:24.148958,-5
16:03:24.148958,-594
16:03:24.148958,15103
16:03:24.148958,-1
16:03:24.148958,-124
16:03:24.148958,11775
16:03:24.148958,0
16:03:24.148958,139
16:03:24.148958,22016
16:03:24.148958,0
16:03:24.148958,88
16:03:24.148958,29952
16:03:24.148958,0
16:03:24.148958,100
16:03:24.148958,22016
16:03:24.148958,0
16:03:24.148958,93
16:03:24.148958,23296
16:03:24.148958,0
16:03:24.148958,74
16:03:24.148958,17152
16:03:24.148958,0
16:03:24.148958,62
16:03:24.148958,15104
16:03:24.148958,0
16:03:24.148958,45
16:03:24.148958,4864
16:03:24.148958,0
16:03:24.148958,-4
16:03:24.148958,-5633
16:03:24.148958,-1
16:03:24.148958,-47
16:03:24.148958,-14849
16:03:24.148958,-1
16:03:24.148958,-62
16:03:24.148958,-20481
16:03:24.148958,-1
16:03:24.148958,-105
16:03:24.148958,32767
16:03:24.148958,-1
16:03:24.148958,-165
16:03:24.148958,12543
16:03:24.148958,-1
16:03:24.148958,-244
16:03:24.148958,-257
16:03:24.148958,-2
16:03:24.148958,-261
16:03:24.148958,-2305
16:03:24.148958,-2
16:03:24.148958,-251
16:03:24.148958,9471
16:03:24.148958,-1
16:03:24.148958,-189
16:03:24.148958,21247
16:03:24.148958,-1
16:03:24.148958,-194
16:03:24.148958,9471
16:03:24.148958,-1
16:03:24.148958,-239
16:03:24.148958,-1025
16:03:24.148958,-2
16:03:24.148958,-273
16:03:24.148958,-5377
16:03:24.148958,-2
16:03:24.148958,-282
16:03:24.688002,-287
16:03:24.688002,-6401
16:03:24.688002,-2
16:03:24.688002,-266
16:03:24.688002,1535
16:03:24.688002,-1
16:03:24.688002,-246
16:03:24.688002,2815
16:03:24.688002,-1
16:03:24.688002,-246
16:03:24.688002,3839
16:03:24.688002,-1
16:03:24.688002,-225
16:03:24.688002,12543
16:03:24.688002,-1
16:03:24.688002,-196
16:03:24.688002,16127
16:03:24.688002,-1
16:03:24.688002,-186
16:03:24.688002,19967
16:03:24.688002,-1
16:03:24.688002,-172
16:03:24.688002,24319
16:03:24.688002,-1
16:03:24.688002,-155
16:03:24.688002,28415
16:03:24.688002,-1
16:03:24.688002,-124
16:03:24.688002,-25345
16:03:24.688002,-1
16:03:24.688002,-93
16:03:24.688002,-23041
16:03:24.688002,-1
16:03:24.688002,-93
16:03:24.688002,-27137
16:03:24.688002,-1
16:03:24.688002,-110
16:03:24.688002,-23041
16:03:24.688002,-1
16:03:24.688002,-71
16:03:24.688002,-14337
16:03:24.688002,-1
16:03:24.688002,-55
16:03:24.688002,-13825
16:03:24.688002,-1
16:03:24.688002,-45
16:03:24.688002,-8705
16:03:24.688002,-1
16:03:24.688002,-35
16:03:24.688002,-7681
16:03:24.688002,-1
16:03:24.688002,-26
16:03:24.688002,-6401
16:03:24.688002,-1
16:03:24.688002,35
16:03:24.688002,-26368
16:03:24.688002,0
16:03:24.688002,40
16:03:24.688002,-24064
16:03:24.688002,-3
16:03:24.688002,-1332
16:03:24.688002,10751
16:03:24.688002,-5
16:03:24.688002,-594
16:03:24.688002,-257
16:03:24.688002,-2
16:03:24.688002,-131
16:03:24.688002,14847
16:03:24.688002,0
16:03:24.688002,107
16:03:24.688002,15104
16:03:24.688002,0
16:03:24.688002,76
16:03:24.688002,23296
16:03:24.688002,0
16:03:24.688002,64
16:03:24.688002,15872
16:03:24.688002,0
16:03:24.688002,67
16:03:24.688002,14080
16:03:24.688002,0
16:03:24.688002,47
16:03:24.688002,12800
16:03:24.688002,0
16:03:24.688002,43
16:03:24.688002,8960
16:03:24.688002,0
16:03:24.688002,38
16:03:24.688002,7936
16:03:24.688002,0
16:03:24.688002,21
16:03:24.688002,7936
16:03:24.688002,0
16:03:24.688002,38
16:03:24.688002,6656
16:03:24.688002,0
16:03:24.688002,14
16:03:24.688002,2304
16:03:24.688002,0
16:03:24.688002,-7
16:03:24.688002,-6913
16:03:24.688002,-1
16:03:24.688002,-55
16:03:24.688002,-19201
16:03:24.688002,-1
16:03:24.688002,-95
16:03:24.688002,-29697
16:03:24.688002,-1
16:03:24.688002,-136
16:03:25.272456,-141
16:03:25.272456,-31489
16:03:25.272456,-1
16:03:25.272456,-95
16:03:25.272456,-16129
16:03:25.272456,-1
16:03:25.272456,-31
16:03:25.272456,255
16:03:25.272456,0
16:03:25.272456,16
16:03:25.272456,4864
16:03:25.272456,0
16:03:25.272456,19
16:03:25.272456,5888
16:03:25.272456,0
16:03:25.272456,31
16:03:25.272456,9728
16:03:25.272456,0
16:03:25.272456,43
16:03:25.272456,12800
16:03:25.272456,0
16:03:25.272456,62
16:03:25.272456,18176
16:03:25.272456,0
16:03:25.272456,79
16:03:25.272456,20736
16:03:25.272456,0
16:03:25.272456,81
16:03:25.272456,20224
16:03:25.272456,0
16:03:25.272456,74
16:03:25.272456,18176
16:03:25.272456,0
16:03:25.272456,71
16:03:25.272456,17664
16:03:25.272456,0
16:03:25.272456,64
16:03:25.272456,15104
16:03:25.272456,0
16:03:25.272456,57
16:03:25.272456,15104
16:03:25.272456,0
16:03:25.272456,62
16:03:25.272456,15104
16:03:25.272456,0
16:03:25.272456,57
16:03:25.272456,15104
16:03:25.272456,0
16:03:25.272456,62
16:03:25.272456,15104
16:03:25.272456,0
16:03:25.272456,67
16:03:25.272456,20736
16:03:25.272456,0
16:03:25.272456,95
16:03:25.272456,25600
16:03:25.272456,0
16:03:25.272456,93
16:03:25.272456,18944
16:03:25.272456,0
16:03:25.272456,52
16:03:25.272456,11520
16:03:25.272456,0
16:03:25.272456,50
16:03:25.272456,13312
16:03:25.272456,0
16:03:25.272456,64
16:03:25.272456,18944
16:03:25.272456,0
16:03:25.272456,71
16:03:25.272456,16384
16:03:25.272456,0
16:03:25.272456,62
16:03:25.272456,15872
16:03:25.272456,0
16:03:25.272456,59
16:03:25.272456,14080
16:03:25.272456,0
16:03:25.272456,57
16:03:25.272456,24320
16:03:25.272456,0
16:03:25.272456,215
16:03:25.272456,1280
16:03:25.272456,1
16:03:25.272456,-206
16:03:25.272456,28671
16:03:25.272456,-5
16:03:25.272456,-1603
16:03:25.272456,7935
16:03:25.272456,-4
16:03:25.272456,-258
16:03:25.272456,-257
16:03:25.272456,-1
16:03:25.272456,122
16:03:25.272456,-2560
16:03:25.272456,0
16:03:25.272456,251
16:03:25.272456,-5632
16:03:25.272456,0
16:03:25.272456,258
16:03:25.272456,512
16:03:25.272456,1
16:03:25.272456,246
16:03:25.272456,-1792
16:03:25.272456,0
16:03:25.272456,251
16:03:25.272456,-3584
16:03:25.272456,0
16:03:25.272456,234
16:03:25.857878,232
16:03:25.857878,-7424
16:03:25.857878,0
16:03:25.857878,225
16:03:25.857878,-8704
16:03:25.857878,0
16:03:25.857878,213
16:03:25.857878,-12800
16:03:25.857878,0
16:03:25.857878,201
16:03:25.857878,-15360
16:03:25.857878,0
16:03:25.857878,198
16:03:25.857878,-14848
16:03:25.857878,0
16:03:25.857878,182
16:03:25.857878,-24576
16:03:25.857878,0
16:03:25.857878,139
16:03:25.857878,29952
16:03:25.857878,0
16:03:25.857878,93
16:03:25.857878,17152
16:03:25.857878,0
16:03:25.857878,40
16:03:25.857878,5376
16:03:25.857878,0
16:03:25.857878,16
16:03:25.857878,6656
16:03:25.857878,0
16:03:25.857878,50
16:03:25.857878,19456
16:03:25.857878,0
16:03:25.857878,93
16:03:25.857878,26368
16:03:25.857878,0
16:03:25.857878,110
16:03:25.857878,28672
16:03:25.857878,0
16:03:25.857878,115
16:03:25.857878,29952
16:03:25.857878,0
16:03:25.857878,110
16:03:25.857878,26368
16:03:25.857878,0
16:03:25.857878,103
16:03:25.857878,26880
16:03:25.857878,0
16:03:25.857878,110
16:03:25.857878,29440
16:03:25.857878,0
16:03:25.857878,112
16:03:25.857878,28160
16:03:25.857878,0
16:03:25.857878,110
16:03:25.857878,28672
16:03:25.857878,0
16:03:25.857878,115
16:03:25.857878,28160
16:03:25.857878,0
16:03:25.857878,107
16:03:25.857878,27392
16:03:25.857878,0
16:03:25.857878,105
16:03:25.857878,26368
16:03:25.857878,0
16:03:25.857878,98
16:03:25.857878,23296
16:03:25.857878,0
16:03:25.857878,83
16:03:25.857878,20224
16:03:25.857878,0
16:03:25.857878,74
16:03:25.857878,17664
16:03:25.857878,0
16:03:25.857878,67
16:03:25.857878,16384
16:03:25.857878,0
16:03:25.857878,62
16:03:25.857878,14592
16:03:25.857878,0
16:03:25.857878,57
16:03:25.857878,14592
16:03:25.857878,0
16:03:25.857878,55
16:03:25.857878,14080
16:03:25.857878,0
16:03:25.857878,55
16:03:25.857878,14080
16:03:25.857878,0
16:03:25.857878,52
16:03:25.857878,14080
16:03:25.857878,0
16:03:25.857878,55
16:03:25.857878,12800
16:03:25.857878,0
16:03:25.857878,50
16:03:25.857878,12800
16:03:25.857878,0
16:03:25.857878,47
16:03:25.857878,12032
16:03:25.857878,0
16:03:25.857878,47
16:03:25.857878,11008
16:03:25.857878,0
16:03:25.857878,40
16:03:25.857878,10240
16:03:25.857878,0
16:03:25.857878,38
16:03:26.484137,40
16:03:26.484137,11008
16:03:26.484137,0
16:03:26.484137,38
16:03:26.484137,8448
16:03:26.484137,0
16:03:26.484137,35
16:03:26.484137,9728
16:03:26.484137,0
16:03:26.484137,35
16:03:26.484137,8448
16:03:26.484137,0
16:03:26.484137,33
16:03:26.484137,7936
16:03:26.484137,0
16:03:26.484137,33
16:03:26.484137,11520
16:03:26.484137,0
16:03:26.484137,59
16:03:26.484137,14592
16:03:26.484137,0
16:03:26.484137,47
16:03:26.484137,12032
16:03:26.484137,0
16:03:26.484137,50
16:03:26.484137,12032
16:03:26.484137,0
16:03:26.484137,47
16:03:26.484137,12800
16:03:26.484137,0
16:03:26.484137,45
16:03:26.484137,11520
16:03:26.484137,0
16:03:26.484137,52
16:03:26.484137,14080
16:03:26.484137,0
16:03:26.484137,50
16:03:26.484137,13312
16:03:26.484137,0
16:03:26.484137,50
16:03:26.484137,12032
16:03:26.484137,0
16:03:26.484137,45
16:03:26.484137,11520
16:03:26.484137,0
16:03:26.484137,45
16:03:26.484137,12032
16:03:26.484137,0
16:03:26.484137,45
16:03:26.484137,11008
16:03:26.484137,0
16:03:26.484137,40
16:03:26.484137,10240
16:03:26.484137,0
16:03:26.484137,43
16:03:26.484137,11520
16:03:26.484137,0
16:03:26.484137,45
16:03:26.484137,12032
16:03:26.484137,0
16:03:26.484137,45
16:03:26.484137,11520
16:03:26.484137,0
16:03:26.484137,45
16:03:26.484137,11008
16:03:26.484137,0
16:03:26.484137,43
16:03:26.484137,10240
16:03:26.484137,0
16:03:26.484137,40
16:03:26.484137,10240
16:03:26.484137,0
16:03:26.484137,38
16:03:26.484137,9728
16:03:26.484137,0
16:03:26.484137,38
16:03:26.484137,9728
16:03:26.484137,0
16:03:26.484137,38
16:03:26.484137,10240
16:03:26.484137,0
16:03:26.484137,38
16:03:26.484137,8960
16:03:26.484137,0
16:03:26.484137,35
16:03:26.484137,7936
16:03:26.484137,0
16:03:26.484137,31
16:03:26.484137,7936
16:03:26.484137,0
16:03:26.484137,31
16:03:26.484137,8960
16:03:26.484137,0
16:03:26.484137,38
16:03:26.484137,9728
16:03:26.484137,0
16:03:26.484137,40
16:03:26.484137,11520
16:03:26.484137,0
16:03:26.484137,40
16:03:26.484137,5888
16:03:26.484137,0
16:03:26.484137,9
16:03:26.484137,512
16:03:26.484137,0
16:03:26.484137,4
16:03:26.484137,4096
16:03:26.484137,0
16:03:26.484137,26
16:03:26.938195,45
16:03:26.938195,-31232
16:03:26.938195,0
16:03:26.938195,153
16:03:26.938195,-24576
16:03:26.938195,-2
16:03:26.938195,-1315
16:03:26.938195,9983
16:03:26.938195,-7
16:03:26.938195,-1183
16:03:26.938195,28927
16:03:26.938195,-2
16:03:26.938195,-59
16:03:26.938195,17407
16:03:26.938195,0
16:03:26.938195,186
16:03:26.938195,-9216
16:03:26.938195,0
16:03:26.938195,210
16:03:26.938195,-7936
16:03:26.938195,0
16:03:26.938195,232
16:03:26.938195,-6656
16:03:26.938195,0
16:03:26.938195,225
16:03:26.938195,-9216
16:03:26.938195,0
16:03:26.938195,218
16:03:26.938195,-10496
16:03:26.938195,0
16:03:26.938195,220
16:03:26.938195,-6656
16:03:26.938195,0
16:03:26.938195,227
16:03:26.938195,-10496
16:03:26.938195,0
16:03:26.938195,210
16:03:26.938195,-12800
16:03:26.938195,0
16:03:26.938195,198
16:03:26.938195,-14848
16:03:26.938195,0
16:03:26.938195,196
16:03:26.938195,-17920
16:03:26.938195,0
16:03:26.938195,177
16:03:26.938195,-21504
16:03:26.938195,0
16:03:26.938195,167
16:03:26.938195,-24576
16:03:26.938195,0
16:03:26.938195,143
16:03:26.938195,31744
16:03:26.938195,0
16:03:26.938195,105
16:03:26.938195,20736
16:03:26.938195,0
16:03:26.938195,47
16:03:26.938195,3584
16:03:26.938195,0
16:03:26.938195,-14
16:03:26.938195,-7681
16:03:26.938195,-1
16:03:26.938195,-31
16:03:26.938195,-3841
16:03:26.938195,-1
16:03:26.938195,2
16:03:26.938195,2304
16:03:26.938195,0
16:03:26.938195,9
16:03:26.938195,4096
16:03:26.938195,0
16:03:26.938195,21
16:03:26.938195,5888
16:03:26.938195,0
16:03:26.938195,26
16:03:26.938195,5888
16:03:26.938195,0
16:03:26.938195,23
16:03:26.938195,6656
16:03:26.938195,0
16:03:26.938195,31
16:03:26.938195,8960
16:03:26.938195,0
16:03:26.938195,35
16:03:26.938195,9728
16:03:26.938195,0
16:03:26.938195,43
16:03:26.938195,10240
16:03:26.938195,0
16:03:26.938195,43
16:03:26.938195,12032
16:03:26.938195,0
16:03:26.938195,45
16:03:26.938195,9728
16:03:26.938195,0
16:03:26.938195,38
16:03:26.938195,8960
16:03:26.938195,0
16:03:26.938195,33
16:03:26.938195,8960
16:03:26.938195,0
16:03:26.938195,33
16:03:26.938195,6656
16:03:26.938195,0
16:03:26.938195,21
16:03:26.938195,5376
16:03:26.938195,0
16:03:26.938195,21
16:03:27.522330,23
16:03:27.522330,4864
16:03:27.522330,0
16:03:27.522330,16
16:03:27.522330,4864
16:03:27.522330,0
16:03:27.522330,21
16:03:27.522330,5888
16:03:27.522330,0
16:03:27.522330,33
16:03:27.522330,11520
16:03:27.522330,0
16:03:27.522330,50
16:03:27.522330,11520
16:03:27.522330,0
16:03:27.522330,45
16:03:27.522330,11008
16:03:27.522330,0
16:03:27.522330,43
16:03:27.522330,11008
16:03:27.522330,0
16:03:27.522330,35
16:03:27.522330,7168
16:03:27.522330,0
16:03:27.522330,26
16:03:27.522330,7936
16:03:27.522330,0
16:03:27.522330,28
16:03:27.522330,5376
16:03:27.522330,0
16:03:27.522330,23
16:03:27.522330,6656
16:03:27.522330,0
16:03:27.522330,23
16:03:27.522330,5376
16:03:27.522330,0
16:03:27.522330,23
16:03:27.522330,4864
16:03:27.522330,0
16:03:27.522330,19
16:03:27.522330,5376
16:03:27.522330,0
16:03:27.522330,21
16:03:27.522330,5376
16:03:27.522330,0
16:03:27.522330,21
16:03:27.522330,5376
16:03:27.522330,0
16:03:27.522330,19
16:03:27.522330,4096
16:03:27.522330,0
16:03:27.522330,16
16:03:27.522330,4864
16:03:27.522330,0
16:03:27.522330,16
16:03:27.522330,3584
16:03:27.522330,0
16:03:27.522330,16
16:03:27.522330,3584
16:03:27.522330,0
16:03:27.522330,16
16:03:27.522330,5888
16:03:27.522330,0
16:03:27.522330,26
16:03:27.522330,5376
16:03:27.522330,0
16:03:27.522330,14
16:03:27.522330,0
16:03:27.522330,0
16:03:27.522330,-11
16:03:27.522330,-3841
16:03:27.522330,-1
16:03:27.522330,-9
16:03:27.522330,2047
16:03:27.522330,0
16:03:27.522330,14
16:03:27.522330,1024
16:03:27.522330,0
16:03:27.522330,7
16:03:27.522330,1792
16:03:27.522330,0
16:03:27.522330,0
16:03:27.522330,-512
16:03:27.522330,-1
16:03:27.522330,0
16:03:27.522330,5376
16:03:27.522330,0
16:03:27.522330,124
16:03:27.522330,-11008
16:03:27.522330,0
16:03:27.522330,-153
16:03:27.522330,-12289
16:03:27.522330,-5
16:03:27.522330,-1641
16:03:27.522330,29951
16:03:27.522330,-5
16:03:27.522330,-407
16:03:27.522330,-27905
16:03:27.522330,-1
16:03:27.522330,19
16:03:27.522330,-24064
16:03:27.522330,0
16:03:27.522330,184
16:03:27.522330,-23296
16:03:27.522330,0
16:03:27.522330,186
16:03:27.522330,-15360
16:03:27.522330,0
16:03:27.522330,191
16:03:28.062626,196
16:03:28.062626,-17920
16:03:28.062626,0
16:03:28.062626,177
16:03:28.062626,-20992
16:03:28.062626,0
16:03:28.062626,172
16:03:28.062626,-24064
16:03:28.062626,0
16:03:28.062626,158
16:03:28.062626,-25856
16:03:28.062626,0
16:03:28.062626,155
16:03:28.062626,-24064
16:03:28.062626,0
16:03:28.062626,165
16:03:28.062626,-25088
16:03:28.062626,0
16:03:28.062626,146
16:03:28.062626,-29952
16:03:28.062626,0
16:03:28.062626,129
16:03:28.062626,29952
16:03:28.062626,0
16:03:28.062626,100
16:03:28.062626,20736
16:03:28.062626,0
16:03:28.062626,57
16:03:28.062626,8448
16:03:28.062626,0
16:03:28.062626,9
16:03:28.062626,-3584
16:03:28.062626,-1
16:03:28.062626,-33
16:03:28.062626,-10753
16:03:28.062626,-1
16:03:28.062626,-38
16:03:28.062626,-4609
16:03:28.062626,-1
16:03:28.062626,2
16:03:28.062626,5888
16:03:28.062626,0
16:03:28.062626,40
16:03:28.062626,12032
16:03:28.062626,0
16:03:28.062626,52
16:03:28.062626,13312
16:03:28.062626,0
16:03:28.062626,52
16:03:28.062626,14080
16:03:28.062626,0
16:03:28.062626,55
16:03:28.062626,13312
16:03:28.062626,0
16:03:28.062626,50
16:03:28.062626,12800
16:03:28.062626,0
16:03:28.062626,50
16:03:28.062626,12800
16:03:28.062626,0
16:03:28.062626,52
16:03:28.062626,12800
16:03:28.062626,0
16:03:28.062626,45
16:03:28.062626,10240
16:03:28.062626,0
16:03:28.062626,40
16:03:28.062626,8960
16:03:28.062626,0
16:03:28.062626,26
16:03:28.062626,5376
16:03:28.062626,0
16:03:28.062626,21
16:03:28.062626,5376
16:03:28.062626,0
16:03:28.062626,16
16:03:28.062626,2816
16:03:28.062626,0
16:03:28.062626,9
16:03:28.062626,2304
16:03:28.062626,0
16:03:28.062626,9
16:03:28.062626,2816
16:03:28.062626,0
16:03:28.062626,14
16:03:28.062626,2304
16:03:28.062626,0
16:03:28.062626,7
16:03:28.062626,1792
16:03:28.062626,0
16:03:28.062626,7
16:03:28.062626,1792
16:03:28.062626,0
16:03:28.062626,7
16:03:28.062626,1792
16:03:28.062626,0
16:03:28.062626,7
16:03:28.062626,2304
16:03:28.062626,0
16:03:28.062626,9
16:03:28.062626,2304
16:03:28.062626,0
16:03:28.062626,9
16:03:28.062626,1792
16:03:28.062626,0
16:03:28.062626,7
16:03:28.062626,1792
16:03:28.062626,0
16:03:28.062626,4
16:03:28.648434,2
16:03:28.648434,512
16:03:28.648434,0
16:03:28.648434,0
16:03:28.648434,512
16:03:28.648434,0
16:03:28.648434,7
16:03:28.648434,1792
16:03:28.648434,0
16:03:28.648434,14
16:03:28.648434,7168
16:03:28.648434,0
16:03:28.648434,28
16:03:28.648434,5888
16:03:28.648434,0
16:03:28.648434,26
16:03:28.648434,7168
16:03:28.648434,0
16:03:28.648434,31
16:03:28.648434,8960
16:03:28.648434,0
16:03:28.648434,40
16:03:28.648434,11008
16:03:28.648434,0
16:03:28.648434,40
16:03:28.648434,7936
16:03:28.648434,0
16:03:28.648434,14
16:03:28.648434,512
16:03:28.648434,0
16:03:28.648434,-2
16:03:28.648434,1279
16:03:28.648434,0
16:03:28.648434,16
16:03:28.648434,5376
16:03:28.648434,0
16:03:28.648434,16
16:03:28.648434,3584
16:03:28.648434,0
16:03:28.648434,11
16:03:28.648434,2816
16:03:28.648434,0
16:03:28.648434,9
16:03:28.648434,2304
16:03:28.648434,0
16:03:28.648434,23
16:03:28.648434,28160
16:03:28.648434,0
16:03:28.648434,208
16:03:28.648434,-18944
16:03:28.648434,-1
16:03:28.648434,-961
16:03:28.648434,30207
16:03:28.648434,-7
16:03:28.648434,-1337
16:03:28.648434,2559
16:03:28.648434,-2
16:03:28.648434,-103
16:03:28.648434,2559
16:03:28.648434,0
16:03:28.648434,146
16:03:28.648434,-15872
16:03:28.648434,0
16:03:28.648434,170
16:03:28.648434,-19712
16:03:28.648434,0
16:03:28.648434,191
16:03:28.648434,-19712
16:03:28.648434,0
16:03:28.648434,174
16:03:28.648434,-20992
16:03:28.648434,0
16:03:28.648434,165
16:03:28.648434,-25088
16:03:28.648434,0
16:03:28.648434,150
16:03:28.648434,-28160
16:03:28.648434,0
16:03:28.648434,141
16:03:28.648434,-30720
16:03:28.648434,0
16:03:28.648434,131
16:03:28.648434,31744
16:03:28.648434,0
16:03:28.648434,122
16:03:28.648434,30464
16:03:28.648434,0
16:03:28.648434,117
16:03:28.648434,28672
16:03:28.648434,0
16:03:28.648434,105
16:03:28.648434,23296
16:03:28.648434,0
16:03:28.648434,74
16:03:28.648434,14592
16:03:28.648434,0
16:03:28.648434,33
16:03:28.648434,2304
16:03:28.648434,0
16:03:28.648434,-16
16:03:28.648434,-9985
16:03:28.648434,-1
16:03:28.648434,-59
16:03:28.648434,-16897
16:03:28.648434,-1
16:03:28.648434,-59
16:03:28.648434,-9985
16:03:28.648434,-1
16:03:28.648434,-11
16:03:29.189221,11
16:03:29.189221,5888
16:03:29.189221,0
16:03:29.189221,31
16:03:29.189221,9728
16:03:29.189221,0
16:03:29.189221,45
16:03:29.189221,11520
16:03:29.189221,0
16:03:29.189221,40
16:03:29.189221,9728
16:03:29.189221,0
16:03:29.189221,38
16:03:29.189221,11520
16:03:29.189221,0
16:03:29.189221,55
16:03:29.189221,14592
16:03:29.189221,0
16:03:29.189221,55
16:03:29.189221,14592
16:03:29.189221,0
16:03:29.189221,59
16:03:29.189221,15104
16:03:29.189221,0
16:03:29.189221,55
16:03:29.189221,13312
16:03:29.189221,0
16:03:29.189221,47
16:03:29.189221,11520
16:03:29.189221,0
16:03:29.189221,45
16:03:29.189221,12032
16:03:29.189221,0
16:03:29.189221,40
16:03:29.189221,8448
16:03:29.189221,0
16:03:29.189221,26
16:03:29.189221,5888
16:03:29.189221,0
16:03:29.189221,23
16:03:29.189221,6656
16:03:29.189221,0
16:03:29.189221,26
16:03:29.189221,5888
16:03:29.189221,0
16:03:29.189221,23
16:03:29.189221,5376
16:03:29.189221,0
16:03:29.189221,19
16:03:29.189221,4864
16:03:29.189221,0
16:03:29.189221,23
16:03:29.189221,5888
16:03:29.189221,0
16:03:29.189221,19
16:03:29.189221,5376
16:03:29.189221,0
16:03:29.189221,21
16:03:29.189221,4864
16:03:29.189221,0
16:03:29.189221,16
16:03:29.189221,4096
16:03:29.189221,0
16:03:29.189221,11
16:03:29.189221,2816
16:03:29.189221,0
16:03:29.189221,14
16:03:29.189221,3584
16:03:29.189221,0
16:03:29.189221,11
16:03:29.189221,2816
16:03:29.189221,0
16:03:29.189221,11
16:03:29.189221,1792
16:03:29.189221,0
16:03:29.189221,9
16:03:29.189221,4864
16:03:29.189221,0
16:03:29.189221,16
16:03:29.189221,2304
16:03:29.189221,0
16:03:29.189221,7
16:03:29.189221,1792
16:03:29.189221,0
16:03:29.189221,9
16:03:29.189221,2816
16:03:29.189221,0
16:03:29.189221,7
16:03:29.189221,512
16:03:29.189221,0
16:03:29.189221,-2
16:03:29.189221,255
16:03:29.189221,0
16:03:29.189221,2
16:03:29.189221,0
16:03:29.189221,0
16:03:29.189221,-4
16:03:29.189221,-257
16:03:29.189221,-1
16:03:29.189221,2
16:03:29.189221,512
16:03:29.189221,0
16:03:29.189221,4
16:03:29.189221,2304
16:03:29.189221,0
16:03:29.189221,11
16:03:29.189221,2816
16:03:29.189221,0
16:03:29.189221,4
16:03:29.772627,-7
16:03:29.772627,-4609
16:03:29.772627,-1
16:03:29.772627,-19
16:03:29.772627,-769
16:03:29.772627,-1
16:03:29.772627,7
16:03:29.772627,0
16:03:29.772627,0
16:03:29.772627,0
16:03:29.772627,4096
16:03:29.772627,0
16:03:29.772627,19
16:03:29.772627,2816
16:03:29.772627,0
16:03:29.772627,9
16:03:29.772627,3584
16:03:29.772627,0
16:03:29.772627,67
16:03:29.772627,-15872
16:03:29.772627,0
16:03:29.772627,153
16:03:29.772627,10240
16:03:29.772627,-2
16:03:29.772627,-1404
16:03:29.772627,-8193
16:03:29.772627,-7
16:03:29.772627,-836
16:03:29.772627,5887
16:03:29.772627,-1
16:03:29.772627,-64
16:03:29.772627,19711
16:03:29.772627,0
16:03:29.772627,182
16:03:29.772627,-22016
16:03:29.772627,0
16:03:29.772627,170
16:03:29.772627,-15360
16:03:29.772627,0
16:03:29.772627,182
16:03:29.772627,-23296
16:03:29.772627,0
16:03:29.772627,172
16:03:29.772627,-22016
16:03:29.772627,0
16:03:29.772627,160
16:03:29.772627,-25088
16:03:29.772627,0
16:03:29.772627,153
16:03:29.772627,-28160
16:03:29.772627,0
16:03:29.772627,139
16:03:29.772627,-31232
16:03:29.772627,0
16:03:29.772627,131
16:03:29.772627,32512
16:03:29.772627,0
16:03:29.772627,119
16:03:29.772627,29440
16:03:29.772627,0
16:03:29.772627,110
16:03:29.772627,25600
16:03:29.772627,0
16:03:29.772627,91
16:03:29.772627,20224
16:03:29.772627,0
16:03:29.772627,67
16:03:29.772627,12032
16:03:29.772627,0
16:03:29.772627,23
16:03:29.772627,1024
16:03:29.772627,0
16:03:29.772627,-19
16:03:29.772627,-11265
16:03:29.772627,-1
16:03:29.772627,-59
16:03:29.772627,-14849
16:03:29.772627,-1
16:03:29.772627,-47
16:03:29.772627,-5121
16:03:29.772627,-1
16:03:29.772627,2
16:03:29.772627,5376
16:03:29.772627,0
16:03:29.772627,38
16:03:29.772627,11520
16:03:29.772627,0
16:03:29.772627,47
16:03:29.772627,12800
16:03:29.772627,0
16:03:29.772627,50
16:03:29.772627,11520
16:03:29.772627,0
16:03:29.772627,47
16:03:29.772627,14592
16:03:29.772627,0
16:03:29.772627,57
16:03:29.772627,12800
16:03:29.772627,0
16:03:29.772627,55
16:03:29.772627,15872
16:03:29.772627,0
16:03:29.772627,59
16:03:29.772627,12800
16:03:29.772627,0
16:03:29.772627,43
16:03:29.772627,11008
16:03:29.772627,0
16:03:29.772627,38
16:03:30.312635,33
16:03:30.312635,8448
16:03:30.312635,0
16:03:30.312635,33
16:03:30.312635,6656
16:03:30.312635,0
16:03:30.312635,23
16:03:30.312635,5376
16:03:30.312635,0
16:03:30.312635,16
16:03:30.312635,3584
16:03:30.312635,0
16:03:30.312635,19
16:03:30.312635,5376
16:03:30.312635,0
16:03:30.312635,31
16:03:30.312635,10240
16:03:30.312635,0
16:03:30.312635,38
16:03:30.312635,7936
16:03:30.312635,0
16:03:30.312635,28
16:03:30.312635,7168
16:03:30.312635,0
16:03:30.312635,31
16:03:30.312635,8960
16:03:30.312635,0
16:03:30.312635,31
16:03:30.312635,7168
16:03:30.312635,0
16:03:30.312635,31
16:03:30.312635,7936
16:03:30.312635,0
16:03:30.312635,23
16:03:30.312635,5376
16:03:30.312635,0
16:03:30.312635,21
16:03:30.312635,5888
16:03:30.312635,0
16:03:30.312635,23
16:03:30.312635,5376
16:03:30.312635,0
16:03:30.312635,19
16:03:30.312635,5376
16:03:30.312635,0
16:03:30.312635,23
16:03:30.312635,4096
16:03:30.312635,0
16:03:30.312635,11
16:03:30.312635,3584
16:03:30.312635,0
16:03:30.312635,16
16:03:30.312635,2816
16:03:30.312635,0
16:03:30.312635,11
16:03:30.312635,4864
16:03:30.312635,0
16:03:30.312635,19
16:03:30.312635,4096
16:03:30.312635,0
16:03:30.312635,21
16:03:30.312635,5888
16:03:30.312635,0
16:03:30.312635,26
16:03:30.312635,7936
16:03:30.312635,0
16:03:30.312635,35
16:03:30.312635,7936
16:03:30.312635,0
16:03:30.312635,16
16:03:30.312635,1024
16:03:30.312635,0
16:03:30.312635,0
16:03:30.312635,512
16:03:30.312635,0
16:03:30.312635,16
16:03:30.312635,6656
16:03:30.312635,0
16:03:30.312635,23
16:03:30.312635,4096
16:03:30.312635,0
16:03:30.312635,19
16:03:30.312635,4864
16:03:30.312635,0
16:03:30.312635,14
16:03:30.312635,2816
16:03:30.312635,0
16:03:30.312635,16
16:03:30.312635,18944
16:03:30.312635,0
16:03:30.312635,198
16:03:30.312635,-25088
16:03:30.312635,0
16:03:30.312635,-455
16:03:30.312635,-18689
16:03:30.312635,-6
16:03:30.312635,-1485
16:03:30.312635,1279
16:03:30.312635,-3
16:03:30.312635,-222
16:03:30.312635,-19201
16:03:30.312635,-1
16:03:30.312635,83
16:03:30.312635,-17152
16:03:30.312635,0
16:03:30.312635,160
16:03:30.312635,-24064
16:03:30.312635,0
16:03:30.312635,186
16:03:30.854744,172
16:03:30.854744,-25088
16:03:30.854744,0
16:03:30.854744,165
16:03:30.854744,-24576
16:03:30.854744,0
16:03:30.854744,148
16:03:30.854744,-28160
16:03:30.854744,0
16:03:30.854744,146
16:03:30.854744,-27648
16:03:30.854744,0
16:03:30.854744,155
16:03:30.854744,-27648
16:03:30.854744,0
16:03:30.854744,139
16:03:30.854744,-29440
16:03:30.854744,0
16:03:30.854744,136
16:03:30.854744,32512
16:03:30.854744,0
16:03:30.854744,117
16:03:30.854744,27392
16:03:30.854744,0
16:03:30.854744,100
16:03:30.854744,22016
16:03:30.854744,0
16:03:30.854744,62
16:03:30.854744,9728
16:03:30.854744,0
16:03:30.854744,14
16:03:30.854744,-2816
16:03:30.854744,-1
16:03:30.854744,-33
16:03:30.854744,-13057
16:03:30.854744,-1
16:03:30.854744,-67
16:03:30.854744,-17409
16:03:30.854744,-1
16:03:30.854744,-50
16:03:30.854744,-5633
16:03:30.854744,-1
16:03:30.854744,2
16:03:30.854744,5888
16:03:30.854744,0
16:03:30.854744,45
16:03:30.854744,14080
16:03:30.854744,0
16:03:30.854744,52
16:03:30.854744,14080
16:03:30.854744,0
16:03:30.854744,57
16:03:30.854744,14080
16:03:30.854744,0
16:03:30.854744,55
16:03:30.854744,14592
16:03:30.854744,0
16:03:30.854744,55
16:03:30.854744,14080
16:03:30.854744,0
16:03:30.854744,52
16:03:30.854744,12800
16:03:30.854744,0
16:03:30.854744,50
16:03:30.854744,12032
16:03:30.854744,0
16:03:30.854744,43
16:03:30.854744,8960
16:03:30.854744,0
16:03:30.854744,33
16:03:30.854744,6656
16:03:30.854744,0
16:03:30.854744,21
16:03:30.854744,4864
16:03:30.854744,0
16:03:30.854744,14
16:03:30.854744,2304
16:03:30.854744,0
16:03:30.854744,7
16:03:30.854744,2816
16:03:30.854744,0
16:03:30.854744,11
16:03:30.854744,1792
16:03:30.854744,0
16:03:30.854744,4
16:03:30.854744,1024
16:03:30.854744,0
16:03:30.854744,7
16:03:30.854744,1792
16:03:30.854744,0
16:03:30.854744,4
16:03:30.854744,1024
16:03:30.854744,0
16:03:30.854744,2
16:03:30.854744,1024
16:03:30.854744,0
16:03:30.854744,4
16:03:30.854744,1024
16:03:30.854744,0
16:03:30.854744,4
16:03:30.854744,512
16:03:30.854744,0
16:03:30.854744,0
16:03:30.854744,512
16:03:30.854744,0
16:03:30.854744,2
16:03:30.854744,512
16:03:30.854744,0
16:03:30.854744,0
16:03:31.438032,0
16:03:31.438032,0
16:03:31.438032,0
16:03:31.438032,2
16:03:31.438032,1024
16:03:31.438032,0
16:03:31.438032,16
16:03:31.438032,7936
16:03:31.438032,0
16:03:31.438032,33
16:03:31.438032,5888
16:03:31.438032,0
16:03:31.438032,21
16:03:31.438032,5888
16:03:31.438032,0
16:03:31.438032,23
16:03:31.438032,5376
16:03:31.438032,0
16:03:31.438032,19
16:03:31.438032,4096
16:03:31.438032,0
16:03:31.438032,14
16:03:31.438032,3584
16:03:31.438032,0
16:03:31.438032,14
16:03:31.438032,5376
16:03:31.438032,0
16:03:31.438032,21
16:03:31.438032,5888
16:03:31.438032,0
16:03:31.438032,26
16:03:31.438032,4864
16:03:31.438032,0
16:03:31.438032,4
16:03:31.438032,-1024
16:03:31.438032,-1
16:03:31.438032,-7
16:03:31.438032,255
16:03:31.438032,0
16:03:31.438032,14
16:03:31.438032,4864
16:03:31.438032,0
16:03:31.438032,14
16:03:31.438032,2816
16:03:31.438032,0
16:03:31.438032,11
16:03:31.438032,2816
16:03:31.438032,0
16:03:31.438032,11
16:03:31.438032,3584
16:03:31.438032,0
16:03:31.438032,38
16:03:31.438032,32512
16:03:31.438032,0
16:03:31.438032,230
16:03:31.438032,-10240
16:03:31.438032,-1
16:03:31.438032,-922
16:03:31.438032,-27393
16:03:31.438032,-7
16:03:31.438032,-1322
16:03:31.438032,2559
16:03:31.438032,-2
16:03:31.438032,-103
16:03:31.438032,4351
16:03:31.438032,0
16:03:31.438032,158
16:03:31.438032,-12800
16:03:31.438032,0
16:03:31.438032,182
16:03:31.438032,-15360
16:03:31.438032,0
16:03:31.438032,206
16:03:31.438032,-16640
16:03:31.438032,0
16:03:31.438032,184
16:03:31.438032,-17920
16:03:31.438032,0
16:03:31.438032,179
16:03:31.438032,-21504
16:03:31.438032,0
16:03:31.438032,165
16:03:31.438032,-25856
16:03:31.438032,0
16:03:31.438032,153
16:03:31.438032,-25856
16:03:31.438032,0
16:03:31.438032,150
16:03:31.438032,-28928
16:03:31.438032,0
16:03:31.438032,136
16:03:31.438032,-32000
16:03:31.438032,0
16:03:31.438032,127
16:03:31.438032,31232
16:03:31.438032,0
16:03:31.438032,115
16:03:31.438032,26880
16:03:31.438032,0
16:03:31.438032,93
16:03:31.438032,18944
16:03:31.438032,0
16:03:31.438032,52
16:03:31.438032,8448
16:03:31.438032,0
16:03:31.438032,7
16:03:31.438032,-4864
16:03:31.438032,-1
16:03:31.438032,-40
16:03:32.023683,-52
16:03:32.023683,-13057
16:03:32.023683,-1
16:03:32.023683,-35
16:03:32.023683,-2049
16:03:32.023683,-1
16:03:32.023683,11
16:03:32.023683,5888
16:03:32.023683,0
16:03:32.023683,35
16:03:32.023683,13312
16:03:32.023683,0
16:03:32.023683,71
16:03:32.023683,18944
16:03:32.023683,0
16:03:32.023683,64
16:03:32.023683,15104
16:03:32.023683,0
16:03:32.023683,59
16:03:32.023683,14592
16:03:32.023683,0
16:03:32.023683,55
16:03:32.023683,15872
16:03:32.023683,0
16:03:32.023683,64
16:03:32.023683,15872
16:03:32.023683,0
16:03:32.023683,62
16:03:32.023683,16384
16:03:32.023683,0
16:03:32.023683,62
16:03:32.023683,15104
16:03:32.023683,0
16:03:32.023683,57
16:03:32.023683,14080
16:03:32.023683,0
16:03:32.023683,52
16:03:32.023683,12800
16:03:32.023683,0
16:03:32.023683,47
16:03:32.023683,11008
16:03:32.023683,0
16:03:32.023683,40
16:03:32.023683,8960
16:03:32.023683,0
16:03:32.023683,28
16:03:32.023683,7168
16:03:32.023683,0
16:03:32.023683,28
16:03:32.023683,5888
16:03:32.023683,0
16:03:32.023683,19
16:03:32.023683,4864
16:03:32.023683,0
16:03:32.023683,21
16:03:32.023683,4864
16:03:32.023683,0
16:03:32.023683,16
16:03:32.023683,4096
16:03:32.023683,0
16:03:32.023683,14
16:03:32.023683,2816
16:03:32.023683,0
16:03:32.023683,11
16:03:32.023683,3584
16:03:32.023683,0
16:03:32.023683,14
16:03:32.023683,2816
16:03:32.023683,0
16:03:32.023683,9
16:03:32.023683,2304
16:03:32.023683,0
16:03:32.023683,9
16:03:32.023683,2304
16:03:32.023683,0
16:03:32.023683,7
16:03:32.023683,1792
16:03:32.023683,0
16:03:32.023683,7
16:03:32.023683,512
16:03:32.023683,0
16:03:32.023683,2
16:03:32.023683,512
16:03:32.023683,0
16:03:32.023683,7
16:03:32.023683,1792
16:03:32.023683,0
16:03:32.023683,4
16:03:32.023683,512
16:03:32.023683,0
16:03:32.023683,4
16:03:32.023683,1024
16:03:32.023683,0
16:03:32.023683,4
16:03:32.023683,1024
16:03:32.023683,0
16:03:32.023683,4
16:03:32.023683,512
16:03:32.023683,0
16:03:32.023683,4
16:03:32.023683,512
16:03:32.023683,0
16:03:32.023683,0
16:03:32.023683,0
16:03:32.023683,0
16:03:32.023683,2
16:03:32.023683,512
16:03:32.023683,0
16:03:32.023683,7
16:03:32.563705,11
16:03:32.563705,2816
16:03:32.563705,0
16:03:32.563705,14
16:03:32.563705,5376
16:03:32.563705,0
16:03:32.563705,16
16:03:32.563705,512
16:03:32.563705,0
16:03:32.563705,-7
16:03:32.563705,-2049
16:03:32.563705,-1
16:03:32.563705,0
16:03:32.563705,3584
16:03:32.563705,0
16:03:32.563705,28
16:03:32.563705,9728
16:03:32.563705,0
16:03:32.563705,38
16:03:32.563705,7936
16:03:32.563705,0
16:03:32.563705,28
16:03:32.563705,8448
16:03:32.563705,0
16:03:32.563705,38
16:03:32.563705,11520
16:03:32.563705,0
16:03:32.563705,112
16:03:32.563705,-6656
16:03:32.563705,0
16:03:32.563705,67
16:03:32.563705,13312
16:03:32.563705,-3
16:03:32.563705,-1562
16:03:32.563705,23551
16:03:32.563705,-6
16:03:32.563705,-620
16:03:32.563705,-29697
16:03:32.563705,-1
16:03:32.563705,7
16:03:32.563705,-29440
16:03:32.563705,0
16:03:32.563705,215
16:03:32.563705,-16640
16:03:32.563705,0
16:03:32.563705,196
16:03:32.563705,-10496
16:03:32.563705,0
16:03:32.563705,198
16:03:32.563705,-17920
16:03:32.563705,0
16:03:32.563705,186
16:03:32.563705,-20224
16:03:32.563705,0
16:03:32.563705,170
16:03:32.563705,-22016
16:03:32.563705,0
16:03:32.563705,165
16:03:32.563705,-25856
16:03:32.563705,0
16:03:32.563705,150
16:03:32.563705,-28160
16:03:32.563705,0
16:03:32.563705,139
16:03:32.563705,-31232
16:03:32.563705,0
16:03:32.563705,129
16:03:32.563705,31744
16:03:32.563705,0
16:03:32.563705,119
16:03:32.563705,28160
16:03:32.563705,0
16:03:32.563705,100
16:03:32.563705,22528
16:03:32.563705,0
16:03:32.563705,74
16:03:32.563705,14080
16:03:32.563705,0
16:03:32.563705,33
16:03:32.563705,2304
16:03:32.563705,0
16:03:32.563705,-14
16:03:32.563705,-9473
16:03:32.563705,-1
16:03:32.563705,-55
16:03:32.563705,-14337
16:03:32.563705,-1
16:03:32.563705,-43
16:03:32.563705,-5121
16:03:32.563705,-1
16:03:32.563705,0
16:03:32.563705,4864
16:03:32.563705,0
16:03:32.563705,31
16:03:32.563705,10240
16:03:32.563705,0
16:03:32.563705,47
16:03:32.563705,12032
16:03:32.563705,0
16:03:32.563705,40
16:03:32.563705,10240
16:03:32.563705,0
16:03:32.563705,43
16:03:32.563705,10240
16:03:32.563705,0
16:03:32.563705,40
16:03:32.563705,10240
16:03:32.563705,0
16:03:32.563705,40
16:03:33.148889,43
16:03:33.148889,12800
16:03:33.148889,0
16:03:33.148889,52
16:03:33.148889,12032
16:03:33.148889,0
16:03:33.148889,45
16:03:33.148889,12032
16:03:33.148889,0
16:03:33.148889,47
16:03:33.148889,12800
16:03:33.148889,0
16:03:33.148889,62
16:03:33.148889,17152
16:03:33.148889,0
16:03:33.148889,62
16:03:33.148889,14080
16:03:33.148889,0
16:03:33.148889,50
16:03:33.148889,12032
16:03:33.148889,0
16:03:33.148889,43
16:03:33.148889,10240
16:03:33.148889,0
16:03:33.148889,40
16:03:33.148889,8960
16:03:33.148889,0
16:03:33.148889,31
16:03:33.148889,7936
16:03:33.148889,0
16:03:33.148889,35
16:03:33.148889,8448
16:03:33.148889,0
16:03:33.148889,26
16:03:33.148889,6656
16:03:33.148889,0
16:03:33.148889,28
16:03:33.148889,6656
16:03:33.148889,0
16:03:33.148889,21
16:03:33.148889,5376
16:03:33.148889,0
16:03:33.148889,21
16:03:33.148889,4864
16:03:33.148889,0
16:03:33.148889,16
16:03:33.148889,4864
16:03:33.148889,0
16:03:33.148889,21
16:03:33.148889,4096
16:03:33.148889,0
16:03:33.148889,14
16:03:33.148889,3584
16:03:33.148889,0
16:03:33.148889,14
16:03:33.148889,3584
16:03:33.148889,0
16:03:33.148889,14
16:03:33.148889,4864
16:03:33.148889,0
16:03:33.148889,21
16:03:33.148889,4096
16:03:33.148889,0
16:03:33.148889,14
16:03:33.148889,4864
16:03:33.148889,0
16:03:33.148889,19
16:03:33.148889,3584
16:03:33.148889,0
16:03:33.148889,11
16:03:33.148889,2816
16:03:33.148889,0
16:03:33.148889,11
16:03:33.148889,2304
16:03:33.148889,0
16:03:33.148889,11
16:03:33.148889,3584
16:03:33.148889,0
16:03:33.148889,14
16:03:33.148889,3584
16:03:33.148889,0
16:03:33.148889,14
16:03:33.148889,4096
16:03:33.148889,0
16:03:33.148889,16
16:03:33.148889,3584
16:03:33.148889,0
16:03:33.148889,14
16:03:33.148889,4096
16:03:33.148889,0
16:03:33.148889,21
16:03:33.148889,4864
16:03:33.148889,0
16:03:33.148889,19
16:03:33.148889,6656
16:03:33.148889,0
16:03:33.148889,28
16:03:33.148889,7936
16:03:33.148889,0
16:03:33.148889,40
16:03:33.148889,11520
16:03:33.148889,0
16:03:33.148889,31
16:03:33.148889,2816
16:03:33.148889,0
16:03:33.148889,2
16:03:33.148889,512
16:03:33.148889,0
16:03:33.148889,9
16:03:33.687483,28
16:03:33.687483,7936
16:03:33.687483,0
16:03:33.687483,21
16:03:33.687483,4864
16:03:33.687483,0
16:03:33.687483,19
16:03:33.687483,4864
16:03:33.687483,0
16:03:33.687483,16
16:03:33.687483,4864
16:03:33.687483,0
16:03:33.687483,52
16:03:33.687483,-24064
16:03:33.687483,0
16:03:33.687483,196
16:03:33.687483,-3584
16:03:33.687483,-2
16:03:33.687483,-1198
16:03:33.687483,-14337
16:03:33.687483,-7
16:03:33.687483,-987
16:03:33.687483,-5889
16:03:33.687483,-2
16:03:33.687483,-45
16:03:33.687483,18431
16:03:33.687483,0
16:03:33.687483,198
16:03:33.687483,-14080
16:03:33.687483,0
16:03:33.687483,186
16:03:33.687483,-10496
16:03:33.687483,0
16:03:33.687483,213
16:03:33.687483,-15872
16:03:33.687483,0
16:03:33.687483,189
16:03:33.687483,-17920
16:03:33.687483,0
16:03:33.687483,174
16:03:33.687483,-22784
16:03:33.687483,0
16:03:33.687483,167
16:03:33.687483,-23296
16:03:33.687483,0
16:03:33.687483,160
16:03:33.687483,-26368
16:03:33.687483,0
16:03:33.687483,143
16:03:33.687483,-29952
16:03:33.687483,0
16:03:33.687483,139
16:03:33.687483,-32512
16:03:33.687483,0
16:03:33.687483,122
16:03:33.687483,30464
16:03:33.687483,0
16:03:33.687483,112
16:03:33.687483,24320
16:03:33.687483,0
16:03:33.687483,81
16:03:33.687483,16384
16:03:33.687483,0
16:03:33.687483,43
16:03:33.687483,5376
16:03:33.687483,0
16:03:33.687483,2
16:03:33.687483,-4864
16:03:33.687483,-1
16:03:33.687483,-38
16:03:33.687483,-12545
16:03:33.687483,-1
16:03:33.687483,-52
16:03:33.687483,-8705
16:03:33.687483,-1
16:03:33.687483,-11
16:03:33.687483,2559
16:03:33.687483,0
16:03:33.687483,26
16:03:33.687483,9728
16:03:33.687483,0
16:03:33.687483,45
16:03:33.687483,12032
16:03:33.687483,0
16:03:33.687483,45
16:03:33.687483,11008
16:03:33.687483,0
16:03:33.687483,47
16:03:33.687483,12800
16:03:33.687483,0
16:03:33.687483,50
16:03:33.687483,13312
16:03:33.687483,0
16:03:33.687483,50
16:03:33.687483,12032
16:03:33.687483,0
16:03:33.687483,52
16:03:33.687483,14080
16:03:33.687483,0
16:03:33.687483,47
16:03:33.687483,11520
16:03:33.687483,0
16:03:33.687483,40
16:03:33.687483,8960
16:03:33.687483,0
16:03:33.687483,33
16:03:33.687483,8448
16:03:33.687483,0
16:03:33.687483,28
16:03:34.229208,23
16:03:34.229208,5376
16:03:34.229208,0
16:03:34.229208,21
16:03:34.229208,5376
16:03:34.229208,0
16:03:34.229208,19
16:03:34.229208,4096
16:03:34.229208,0
16:03:34.229208,16
16:03:34.229208,4864
16:03:34.229208,0
16:03:34.229208,19
16:03:34.229208,7936
16:03:34.229208,0
16:03:34.229208,38
16:03:34.229208,8960
16:03:34.229208,0
16:03:34.229208,31
16:03:34.229208,8960
16:03:34.229208,0
16:03:34.229208,35
16:03:34.229208,7936
16:03:34.229208,0
16:03:34.229208,31
16:03:34.229208,7936
16:03:34.229208,0
16:03:34.229208,28
16:03:34.229208,5888
16:03:34.229208,0
16:03:34.229208,23
16:03:34.229208,6656
16:03:34.229208,0
16:03:34.229208,26
16:03:34.229208,5888
16:03:34.229208,0
16:03:34.229208,21
16:03:34.229208,5376
16:03:34.229208,0
16:03:34.229208,23
16:03:34.229208,5888
16:03:34.229208,0
16:03:34.229208,23
16:03:34.229208,5376
16:03:34.229208,0
16:03:34.229208,21
16:03:34.229208,6656
16:03:34.229208,0
16:03:34.229208,23
16:03:34.229208,5888
16:03:34.229208,0
16:03:34.229208,26
16:03:34.229208,7168
16:03:34.229208,0
16:03:34.229208,26
16:03:34.229208,7168
16:03:34.229208,0
16:03:34.229208,28
16:03:34.229208,6656
16:03:34.229208,0
16:03:34.229208,28
16:03:34.229208,8448
16:03:34.229208,0
16:03:34.229208,35
16:03:34.229208,8448
16:03:34.229208,0
16:03:34.229208,28
16:03:34.229208,4864
16:03:34.229208,0
16:03:34.229208,7
16:03:34.229208,0
16:03:34.229208,0
16:03:34.229208,-2
16:03:34.229208,3071
16:03:34.229208,0
16:03:34.229208,31
16:03:34.229208,7936
16:03:34.229208,0
16:03:34.229208,21
16:03:34.229208,5888
16:03:34.229208,0
16:03:34.229208,26
16:03:34.229208,5376
16:03:34.229208,0
16:03:34.229208,23
16:03:34.229208,7936
16:03:34.229208,0
16:03:34.229208,91
16:03:34.229208,-11776
16:03:34.229208,0
16:03:34.229208,117
16:03:34.229208,-16640
16:03:34.229208,-3
16:03:34.229208,-1435
16:03:34.229208,30975
16:03:34.229208,-6
16:03:34.229208,-656
16:03:34.229208,20479
16:03:34.229208,-1
16:03:34.229208,-43
16:03:34.229208,29695
16:03:34.229208,0
16:03:34.229208,196
16:03:34.229208,-22784
16:03:34.229208,0
16:03:34.229208,174
16:03:34.229208,-15360
16:03:34.229208,0
16:03:34.229208,182
16:03:34.813394,174
16:03:34.813394,-20224
16:03:34.813394,0
16:03:34.813394,170
16:03:34.813394,-25088
16:03:34.813394,0
16:03:34.813394,155
16:03:34.813394,-25856
16:03:34.813394,0
16:03:34.813394,165
16:03:34.813394,-22016
16:03:34.813394,0
16:03:34.813394,158
16:03:34.813394,-27648
16:03:34.813394,0
16:03:34.813394,143
16:03:34.813394,-30720
16:03:34.813394,0
16:03:34.813394,131
16:03:34.813394,-32000
16:03:34.813394,0
16:03:34.813394,119
16:03:34.813394,26368
16:03:34.813394,0
16:03:34.813394,88
16:03:34.813394,18944
16:03:34.813394,0
16:03:34.813394,55
16:03:34.813394,8448
16:03:34.813394,0
16:03:34.813394,9
16:03:34.813394,-3584
16:03:34.813394,-1
16:03:34.813394,-35
16:03:34.813394,-11777
16:03:34.813394,-1
16:03:34.813394,-50
16:03:34.813394,-8193
16:03:34.813394,-1
16:03:34.813394,-9
16:03:34.813394,3839
16:03:34.813394,0
16:03:34.813394,33
16:03:34.813394,12032
16:03:34.813394,0
16:03:34.813394,57
16:03:34.813394,15872
16:03:34.813394,0
16:03:34.813394,62
16:03:34.813394,15104
16:03:34.813394,0
16:03:34.813394,62
16:03:34.813394,16384
16:03:34.813394,0
16:03:34.813394,62
16:03:34.813394,14592
16:03:34.813394,0
16:03:34.813394,59
16:03:34.813394,14592
16:03:34.813394,0
16:03:34.813394,57
16:03:34.813394,15104
16:03:34.813394,0
16:03:34.813394,55
16:03:34.813394,14080
16:03:34.813394,0
16:03:34.813394,57
16:03:34.813394,14080
16:03:34.813394,0
16:03:34.813394,50
16:03:34.813394,11520
16:03:34.813394,0
16:03:34.813394,40
16:03:34.813394,9728
16:03:34.813394,0
16:03:34.813394,33
16:03:34.813394,7936
16:03:34.813394,0
16:03:34.813394,35
16:03:34.813394,8448
16:03:34.813394,0
16:03:34.813394,28
16:03:34.813394,7168
16:03:34.813394,0
16:03:34.813394,28
16:03:34.813394,7168
16:03:34.813394,0
16:03:34.813394,28
16:03:34.813394,6656
16:03:34.813394,0
16:03:34.813394,23
16:03:34.813394,5376
16:03:34.813394,0
16:03:34.813394,23
16:03:34.813394,5888
16:03:34.813394,0
16:03:34.813394,21
16:03:34.813394,5888
16:03:34.813394,0
16:03:34.813394,21
16:03:34.813394,5376
16:03:34.813394,0
16:03:34.813394,21
16:03:34.813394,5376
16:03:34.813394,0
16:03:34.813394,21
16:03:34.813394,5888
16:03:34.813394,0
16:03:34.813394,19
16:03:35.394826,14
16:03:35.394826,3584
16:03:35.394826,0
16:03:35.394826,21
16:03:35.394826,5888
16:03:35.394826,0
16:03:35.394826,21
16:03:35.394826,5376
16:03:35.394826,0
16:03:35.394826,21
16:03:35.394826,5888
16:03:35.394826,0
16:03:35.394826,28
16:03:35.394826,11008
16:03:35.394826,0
16:03:35.394826,55
16:03:35.394826,13312
16:03:35.394826,0
16:03:35.394826,45
16:03:35.394826,12032
16:03:35.394826,0
16:03:35.394826,50
16:03:35.394826,11520
16:03:35.394826,0
16:03:35.394826,43
16:03:35.394826,11520
16:03:35.394826,0
16:03:35.394826,47
16:03:35.394826,11520
16:03:35.394826,0
16:03:35.394826,45
16:03:35.394826,12032
16:03:35.394826,0
16:03:35.394826,52
16:03:35.394826,13312
16:03:35.394826,0
16:03:35.394826,43
16:03:35.394826,6656
16:03:35.394826,0
16:03:35.394826,14
16:03:35.394826,2304
16:03:35.394826,0
16:03:35.394826,11
16:03:35.394826,6656
16:03:35.394826,0
16:03:35.394826,33
16:03:35.394826,7168
16:03:35.394826,0
16:03:35.394826,26
16:03:35.394826,6656
16:03:35.394826,0
16:03:35.394826,21
16:03:35.394826,4864
16:03:35.394826,0
16:03:35.394826,26
16:03:35.394826,11008
16:03:35.394826,0
16:03:35.394826,131
16:03:35.394826,-6656
16:03:35.394826,0
16:03:35.394826,-38
16:03:35.394826,30719
16:03:35.394826,-4
16:03:35.394826,-1615
16:03:35.394826,-3329
16:03:35.394826,-6
16:03:35.394826,-479
16:03:35.394826,-21761
16:03:35.394826,-1
16:03:35.394826,23
16:03:35.394826,-25088
16:03:35.394826,0
16:03:35.394826,208
16:03:35.394826,-18944
16:03:35.394826,0
16:03:35.394826,196
16:03:35.394826,-11008
16:03:35.394826,0
16:03:35.394826,194
16:03:35.394826,-18432
16:03:35.394826,0
16:03:35.394826,184
16:03:35.394826,-19712
16:03:35.394826,0
16:03:35.394826,170
16:03:35.394826,-23296
16:03:35.394826,0
16:03:35.394826,162
16:03:35.394826,-25088
16:03:35.394826,0
16:03:35.394826,153
16:03:35.394826,-29440
16:03:35.394826,0
16:03:35.394826,134
16:03:35.394826,-31232
16:03:35.394826,0
16:03:35.394826,139
16:03:35.394826,-32000
16:03:35.394826,0
16:03:35.394826,122
16:03:35.394826,29440
16:03:35.394826,0
16:03:35.394826,107
16:03:35.394826,24320
16:03:35.394826,0
16:03:35.394826,76
16:03:35.394826,13312
16:03:35.394826,0
16:03:35.394826,33
16:03:35.934447,16
16:03:35.934447,-1024
16:03:35.934447,-1
16:03:35.934447,-28
16:03:35.934447,-10753
16:03:35.934447,-1
16:03:35.934447,-43
16:03:35.934447,-7681
16:03:35.934447,-1
16:03:35.934447,-7
16:03:35.934447,4351
16:03:35.934447,0
16:03:35.934447,33
16:03:35.934447,11520
16:03:35.934447,0
16:03:35.934447,50
16:03:35.934447,14080
16:03:35.934447,0
16:03:35.934447,69
16:03:35.934447,21248
16:03:35.934447,0
16:03:35.934447,81
16:03:35.934447,17664
16:03:35.934447,0
16:03:35.934447,64
16:03:35.934447,16384
16:03:35.934447,0
16:03:35.934447,64
16:03:35.934447,17152
16:03:35.934447,0
16:03:35.934447,69
16:03:35.934447,17152
16:03:35.934447,0
16:03:35.934447,62
16:03:35.934447,16384
16:03:35.934447,0
16:03:35.934447,64
16:03:35.934447,15104
16:03:35.934447,0
16:03:35.934447,59
16:03:35.934447,15104
16:03:35.934447,0
16:03:35.934447,59
16:03:35.934447,15104
16:03:35.934447,0
16:03:35.934447,55
16:03:35.934447,12032
16:03:35.934447,0
16:03:35.934447,43
16:03:35.934447,10240
16:03:35.934447,0
16:03:35.934447,35
16:03:35.934447,7936
16:03:35.934447,0
16:03:35.934447,31
16:03:35.934447,8448
16:03:35.934447,0
16:03:35.934447,31
16:03:35.934447,7168
16:03:35.934447,0
16:03:35.934447,26
16:03:35.934447,7168
16:03:35.934447,0
16:03:35.934447,28
16:03:35.934447,6656
16:03:35.934447,0
16:03:35.934447,23
16:03:35.934447,5376
16:03:35.934447,0
16:03:35.934447,21
16:03:35.934447,5888
16:03:35.934447,0
16:03:35.934447,26
16:03:35.934447,5376
16:03:35.934447,0
16:03:35.934447,21
16:03:35.934447,5376
16:03:35.934447,0
16:03:35.934447,19
16:03:35.934447,5376
16:03:35.934447,0
16:03:35.934447,23
16:03:35.934447,5376
16:03:35.934447,0
16:03:35.934447,19
16:03:35.934447,5376
16:03:35.934447,0
16:03:35.934447,21
16:03:35.934447,6656
16:03:35.934447,0
16:03:35.934447,23
16:03:35.934447,5888
16:03:35.934447,0
16:03:35.934447,28
16:03:35.934447,7936
16:03:35.934447,0
16:03:35.934447,31
16:03:35.934447,9728
16:03:35.934447,0
16:03:35.934447,43
16:03:35.934447,11520
16:03:35.934447,0
16:03:35.934447,45
16:03:35.934447,9728
16:03:35.934447,0
16:03:35.934447,26
16:03:35.934447,3584
16:03:35.934447,0
16:03:35.934447,9
16:03:36.477410,19
16:03:36.477410,8960
16:03:36.477410,0
16:03:36.477410,40
16:03:36.477410,7936
16:03:36.477410,0
16:03:36.477410,28
16:03:36.477410,7168
16:03:36.477410,0
16:03:36.477410,26
16:03:36.477410,5888
16:03:36.477410,0
16:03:36.477410,28
16:03:36.477410,18176
16:03:36.477410,0
16:03:36.477410,198
16:03:36.477410,0
16:03:36.477410,1
16:03:36.477410,-177
16:03:36.477410,-16129
16:03:36.477410,-5
16:03:36.477410,-1509
16:03:36.477410,20735
16:03:36.477410,-4
16:03:36.477410,-285
16:03:36.477410,-19969
16:03:36.477410,-1
16:03:36.477410,64
16:03:36.477410,-11776
16:03:36.477410,0
16:03:36.477410,206
16:03:36.477410,-16640
16:03:36.477410,0
16:03:36.477410,222
16:03:36.477410,-9216
16:03:36.477410,0
16:03:36.477410,198
16:03:36.477410,-14080
16:03:36.477410,0
16:03:36.477410,198
16:03:36.477410,-17920
16:03:36.477410,0
16:03:36.477410,184
16:03:36.477410,-18944
16:03:36.477410,0
16:03:36.477410,172
16:03:36.477410,-24064
16:03:36.477410,0
16:03:36.477410,162
16:03:36.477410,-24064
16:03:36.477410,0
16:03:36.477410,155
16:03:36.477410,-28160
16:03:36.477410,0
16:03:36.477410,141
16:03:36.477410,-29440
16:03:36.477410,0
16:03:36.477410,134
16:03:36.477410,30464
16:03:36.477410,0
16:03:36.477410,105
16:03:36.477410,22528
16:03:36.477410,0
16:03:36.477410,67
16:03:36.477410,11008
16:03:36.477410,0
16:03:36.477410,21
16:03:36.477410,0
16:03:36.477410,0
16:03:36.477410,-26
16:03:36.477410,-11265
16:03:36.477410,-1
16:03:36.477410,-47
16:03:36.477410,-7681
16:03:36.477410,-1
16:03:36.477410,-4
16:03:36.477410,6143
16:03:36.477410,0
16:03:36.477410,40
16:03:36.477410,15104
16:03:36.477410,0
16:03:36.477410,71
16:03:36.477410,18944
16:03:36.477410,0
16:03:36.477410,76
16:03:36.477410,19456
16:03:36.477410,0
16:03:36.477410,76
16:03:36.477410,20224
16:03:36.477410,0
16:03:36.477410,79
16:03:36.477410,20224
16:03:36.477410,0
16:03:36.477410,81
16:03:36.477410,20224
16:03:36.477410,0
16:03:36.477410,71
16:03:36.477410,18176
16:03:36.477410,0
16:03:36.477410,76
16:03:36.477410,19456
16:03:36.477410,0
16:03:36.477410,71
16:03:36.477410,17152
16:03:36.477410,0
16:03:36.477410,57
16:03:36.477410,12032
16:03:36.477410,0
16:03:36.477410,47
16:03:37.064709,50
16:03:37.064709,12800
16:03:37.064709,0
16:03:37.064709,47
16:03:37.064709,12032
16:03:37.064709,0
16:03:37.064709,45
16:03:37.064709,10240
16:03:37.064709,0
16:03:37.064709,47
16:03:37.064709,15872
16:03:37.064709,0
16:03:37.064709,69
16:03:37.064709,17152
16:03:37.064709,0
16:03:37.064709,64
16:03:37.064709,16384
16:03:37.064709,0
16:03:37.064709,64
16:03:37.064709,16384
16:03:37.064709,0
16:03:37.064709,67
16:03:37.064709,16384
16:03:37.064709,0
16:03:37.064709,59
16:03:37.064709,15872
16:03:37.064709,0
16:03:37.064709,64
16:03:37.064709,15872
16:03:37.064709,0
16:03:37.064709,59
16:03:37.064709,14592
16:03:37.064709,0
16:03:37.064709,55
16:03:37.064709,14592
16:03:37.064709,0
16:03:37.064709,57
16:03:37.064709,14080
16:03:37.064709,0
16:03:37.064709,50
16:03:37.064709,12032
16:03:37.064709,0
16:03:37.064709,50
16:03:37.064709,13312
16:03:37.064709,0
16:03:37.064709,52
16:03:37.064709,12800
16:03:37.064709,0
16:03:37.064709,47
16:03:37.064709,11008
16:03:37.064709,0
16:03:37.064709,43
16:03:37.064709,12032
16:03:37.064709,0
16:03:37.064709,50
16:03:37.064709,12800
16:03:37.064709,0
16:03:37.064709,52
16:03:37.064709,14080
16:03:37.064709,0
16:03:37.064709,52
16:03:37.064709,11008
16:03:37.064709,0
16:03:37.064709,31
16:03:37.064709,5376
16:03:37.064709,0
16:03:37.064709,21
16:03:37.064709,9728
16:03:37.064709,0
16:03:37.064709,47
16:03:37.064709,11008
16:03:37.064709,0
16:03:37.064709,40
16:03:37.064709,10240
16:03:37.064709,0
16:03:37.064709,38
16:03:37.064709,8960
16:03:37.064709,0
16:03:37.064709,40
16:03:37.064709,13312
16:03:37.064709,0
16:03:37.064709,136
16:03:37.064709,-512
16:03:37.064709,0
16:03:37.064709,16
16:03:37.064709,-24064
16:03:37.064709,-4
16:03:37.064709,-1653
16:03:37.064709,-27905
16:03:37.064709,-6
16:03:37.064709,-536
16:03:37.064709,-19201
16:03:37.064709,-1
16:03:37.064709,50
16:03:37.064709,-18432
16:03:37.064709,0
16:03:37.064709,242
16:03:37.064709,-9216
16:03:37.064709,0
16:03:37.064709,234
16:03:37.064709,-1792
16:03:37.064709,0
16:03:37.064709,232
16:03:37.064709,-7936
16:03:37.064709,0
16:03:37.064709,222
16:03:37.064709,-10496
16:03:37.064709,0
16:03:37.064709,208
16:03:37.603737,208
16:03:37.603737,-13568
16:03:37.603737,0
16:03:37.603737,196
16:03:37.603737,-15872
16:03:37.603737,0
16:03:37.603737,191
16:03:37.603737,-16640
16:03:37.603737,0
16:03:37.603737,194
16:03:37.603737,-17152
16:03:37.603737,0
16:03:37.603737,182
16:03:37.603737,-18944
16:03:37.603737,0
16:03:37.603737,189
16:03:37.603737,-18432
16:03:37.603737,0
16:03:37.603737,165
16:03:37.603737,-28160
16:03:37.603737,0
16:03:37.603737,127
16:03:37.603737,25600
16:03:37.603737,0
16:03:37.603737,74
16:03:37.603737,12800
16:03:37.603737,0
16:03:37.603737,19
16:03:37.603737,-1024
16:03:37.603737,-1
16:03:37.603737,-9
16:03:37.603737,2047
16:03:37.603737,0
16:03:37.603737,23
16:03:37.603737,8960
16:03:37.603737,0
16:03:37.603737,50
16:03:37.603737,16384
16:03:37.603737,0
16:03:37.603737,69
16:03:37.603737,17152
16:03:37.603737,0
16:03:37.603737,67
16:03:37.603737,17152
16:03:37.603737,0
16:03:37.603737,62
16:03:37.603737,14080
16:03:37.603737,0
16:03:37.603737,59
16:03:37.603737,16384
16:03:37.603737,0
16:03:37.603737,59
16:03:37.603737,15104
16:03:37.603737,0
16:03:37.603737,59
16:03:37.603737,15104
16:03:37.603737,0
16:03:37.603737,57
16:03:37.603737,15104
16:03:37.603737,0
16:03:37.603737,57
16:03:37.603737,14080
16:03:37.603737,0
16:03:37.603737,55
16:03:37.603737,13312
16:03:37.603737,0
16:03:37.603737,45
16:03:37.603737,12032
16:03:37.603737,0
16:03:37.603737,50
16:03:37.603737,11008
16:03:37.603737,0
16:03:37.603737,40
16:03:37.603737,8448
16:03:37.603737,0
16:03:37.603737,28
16:03:37.603737,5888
16:03:37.603737,0
16:03:37.603737,23
16:03:37.603737,5376
16:03:37.603737,0
16:03:37.603737,23
16:03:37.603737,5376
16:03:37.603737,0
16:03:37.603737,16
16:03:37.603737,4864
16:03:37.603737,0
16:03:37.603737,26
16:03:37.603737,5888
16:03:37.603737,0
16:03:37.603737,19
16:03:37.603737,4096
16:03:37.603737,0
16:03:37.603737,19
16:03:37.603737,4864
16:03:37.603737,0
16:03:37.603737,21
16:03:37.603737,5888
16:03:37.603737,0
16:03:37.603737,21
16:03:37.603737,4864
16:03:37.603737,0
16:03:37.603737,19
16:03:37.603737,4864
16:03:37.603737,0
16:03:37.603737,19
16:03:37.603737,5376
16:03:37.603737,0
16:03:37.603737,21
16:03:38.142317,21
16:03:38.142317,5888
16:03:38.142317,0
16:03:38.142317,23
16:03:38.142317,5376
16:03:38.142317,0
16:03:38.142317,16
16:03:38.142317,4864
16:03:38.142317,0
16:03:38.142317,21
16:03:38.142317,7168
16:03:38.142317,0
16:03:38.142317,40
16:03:38.142317,10240
16:03:38.142317,0
16:03:38.142317,38
16:03:38.142317,11520
16:03:38.142317,0
16:03:38.142317,50
16:03:38.142317,11520
16:03:38.142317,0
16:03:38.142317,35
16:03:38.142317,4864
16:03:38.142317,0
16:03:38.142317,4
16:03:38.142317,0
16:03:38.142317,0
16:03:38.142317,9
16:03:38.142317,5888
16:03:38.142317,0
16:03:38.142317,28
16:03:38.142317,5376
16:03:38.142317,0
16:03:38.142317,19
16:03:38.142317,5888
16:03:38.142317,0
16:03:38.142317,23
16:03:38.142317,5376
16:03:38.142317,0
16:03:38.142317,23
16:03:38.142317,8448
16:03:38.142317,0
16:03:38.142317,100
16:03:38.142317,-9216
16:03:38.142317,0
16:03:38.142317,69
16:03:38.142317,17664
16:03:38.142317,-3
16:03:38.142317,-1533
16:03:38.142317,32767
16:03:38.142317,-6
16:03:38.142317,-594
16:03:38.142317,-29185
16:03:38.142317,-1
16:03:38.142317,4
16:03:38.142317,-28928
16:03:38.142317,0
16:03:38.142317,213
16:03:38.142317,-17920
16:03:38.142317,0
16:03:38.142317,194
16:03:38.142317,-11008
16:03:38.142317,0
16:03:38.142317,201
16:03:38.142317,-17152
16:03:38.142317,0
16:03:38.142317,189
16:03:38.142317,-18944
16:03:38.142317,0
16:03:38.142317,172
16:03:38.142317,-22784
16:03:38.142317,0
16:03:38.142317,162
16:03:38.142317,-25088
16:03:38.142317,0
16:03:38.142317,150
16:03:38.142317,-28160
16:03:38.142317,0
16:03:38.142317,141
16:03:38.142317,-31232
16:03:38.142317,0
16:03:38.142317,127
16:03:38.142317,31232
16:03:38.142317,0
16:03:38.142317,117
16:03:38.142317,28160
16:03:38.142317,0
16:03:38.142317,98
16:03:38.142317,20736
16:03:38.142317,0
16:03:38.142317,62
16:03:38.142317,9728
16:03:38.142317,0
16:03:38.142317,16
16:03:38.142317,-1024
16:03:38.142317,-1
16:03:38.142317,-19
16:03:38.142317,-8705
16:03:38.142317,-1
16:03:38.142317,-47
16:03:38.142317,-10753
16:03:38.142317,-1
16:03:38.142317,-23
16:03:38.142317,255
16:03:38.142317,0
16:03:38.142317,23
16:03:38.142317,10240
16:03:38.142317,0
16:03:38.142317,55
16:03:38.773799,64
16:03:38.773799,16384
16:03:38.773799,0
16:03:38.773799,64
16:03:38.773799,16384
16:03:38.773799,0
16:03:38.773799,67
16:03:38.773799,19456
16:03:38.773799,0
16:03:38.773799,79
16:03:38.773799,18176
16:03:38.773799,0
16:03:38.773799,69
16:03:38.773799,18176
16:03:38.773799,0
16:03:38.773799,71
16:03:38.773799,17664
16:03:38.773799,0
16:03:38.773799,69
16:03:38.773799,16384
16:03:38.773799,0
16:03:38.773799,67
16:03:38.773799,18176
16:03:38.773799,0
16:03:38.773799,67
16:03:38.773799,15104
16:03:38.773799,0
16:03:38.773799,55
16:03:38.773799,13312
16:03:38.773799,0
16:03:38.773799,47
16:03:38.773799,11008
16:03:38.773799,0
16:03:38.773799,40
16:03:38.773799,10240
16:03:38.773799,0
16:03:38.773799,33
16:03:38.773799,7168
16:03:38.773799,0
16:03:38.773799,28
16:03:38.773799,7168
16:03:38.773799,0
16:03:38.773799,26
16:03:38.773799,6656
16:03:38.773799,0
16:03:38.773799,26
16:03:38.773799,5376
16:03:38.773799,0
16:03:38.773799,19
16:03:38.773799,5376
16:03:38.773799,0
16:03:38.773799,21
16:03:38.773799,4096
16:03:38.773799,0
16:03:38.773799,14
16:03:38.773799,3584
16:03:38.773799,0
16:03:38.773799,16
16:03:38.773799,4096
16:03:38.773799,0
16:03:38.773799,16
16:03:38.773799,2816
16:03:38.773799,0
16:03:38.773799,7
16:03:38.773799,2304
16:03:38.773799,0
16:03:38.773799,11
16:03:38.773799,2304
16:03:38.773799,0
16:03:38.773799,7
16:03:38.773799,1024
16:03:38.773799,0
16:03:38.773799,4
16:03:38.773799,512
16:03:38.773799,0
16:03:38.773799,2
16:03:38.773799,512
16:03:38.773799,0
16:03:38.773799,4
16:03:38.773799,512
16:03:38.773799,0
16:03:38.773799,0
16:03:38.773799,0
16:03:38.773799,0
16:03:38.773799,2
16:03:38.773799,1024
16:03:38.773799,0
16:03:38.773799,7
16:03:38.773799,1792
16:03:38.773799,0
16:03:38.773799,4
16:03:38.773799,1024
16:03:38.773799,0
16:03:38.773799,2
16:03:38.773799,1024
16:03:38.773799,0
16:03:38.773799,7
16:03:38.773799,512
16:03:38.773799,0
16:03:38.773799,0
16:03:38.773799,512
16:03:38.773799,0
16:03:38.773799,2
16:03:38.773799,1024
16:03:38.773799,0
16:03:38.773799,7
16:03:38.773799,2816
16:03:38.773799,0
16:03:38.773799,11
16:03:39.312835,14
16:03:39.312835,2816
16:03:39.312835,0
16:03:39.312835,0
16:03:39.312835,-4096
16:03:39.312835,-1
16:03:39.312835,-26
16:03:39.312835,-5121
16:03:39.312835,-1
16:03:39.312835,-2
16:03:39.312835,2559
16:03:39.312835,0
16:03:39.312835,9
16:03:39.312835,1024
16:03:39.312835,0
16:03:39.312835,4
16:03:39.312835,0
16:03:39.312835,0
16:03:39.312835,2
16:03:39.312835,3584
16:03:39.312835,0
16:03:39.312835,35
16:03:39.312835,19456
16:03:39.312835,0
16:03:39.312835,184
16:03:39.312835,-19712
16:03:39.312835,0
16:03:39.312835,-369
16:03:39.312835,-6401
16:03:39.312835,-6
16:03:39.312835,-1572
16:03:39.312835,-28161
16:03:39.312835,-4
16:03:39.312835,-225
16:03:39.312835,-9985
16:03:39.312835,-1
16:03:39.312835,81
16:03:39.312835,-15360
16:03:39.312835,0
16:03:39.312835,191
16:03:39.312835,-19712
16:03:39.312835,0
16:03:39.312835,198
16:03:39.312835,-16640
16:03:39.312835,0
16:03:39.312835,179
16:03:39.312835,-18944
16:03:39.312835,0
16:03:39.312835,177
16:03:39.312835,-22784
16:03:39.312835,0
16:03:39.312835,162
16:03:39.312835,-24576
16:03:39.312835,0
16:03:39.312835,150
16:03:39.312835,-27648
16:03:39.312835,0
16:03:39.312835,146
16:03:39.312835,-29952
16:03:39.312835,0
16:03:39.312835,131
16:03:39.312835,32512
16:03:39.312835,0
16:03:39.312835,119
16:03:39.312835,29440
16:03:39.312835,0
16:03:39.312835,107
16:03:39.312835,24320
16:03:39.312835,0
16:03:39.312835,83
16:03:39.312835,18176
16:03:39.312835,0
16:03:39.312835,55
16:03:39.312835,8960
16:03:39.312835,0
16:03:39.312835,16
16:03:39.312835,-512
16:03:39.312835,-1
16:03:39.312835,-21
16:03:39.312835,-9473
16:03:39.312835,-1
16:03:39.312835,-45
16:03:39.312835,-8193
16:03:39.312835,-1
16:03:39.312835,-11
16:03:39.312835,3071
16:03:39.312835,0
16:03:39.312835,28
16:03:39.312835,10240
16:03:39.312835,0
16:03:39.312835,55
16:03:39.312835,16384
16:03:39.312835,0
16:03:39.312835,62
16:03:39.312835,14592
16:03:39.312835,0
16:03:39.312835,57
16:03:39.312835,14080
16:03:39.312835,0
16:03:39.312835,55
16:03:39.312835,14592
16:03:39.312835,0
16:03:39.312835,57
16:03:39.312835,14080
16:03:39.312835,0
16:03:39.312835,57
16:03:39.312835,15104
16:03:39.312835,0
16:03:39.312835,59
16:03:39.854149,57
16:03:39.854149,14080
16:03:39.854149,0
16:03:39.854149,55
16:03:39.854149,14080
16:03:39.854149,0
16:03:39.854149,50
16:03:39.854149,12032
16:03:39.854149,0
16:03:39.854149,43
16:03:39.854149,9728
16:03:39.854149,0
16:03:39.854149,40
16:03:39.854149,9728
16:03:39.854149,0
16:03:39.854149,38
16:03:39.854149,12800
16:03:39.854149,0
16:03:39.854149,57
16:03:39.854149,12032
16:03:39.854149,0
16:03:39.854149,43
16:03:39.854149,11520
16:03:39.854149,0
16:03:39.854149,43
16:03:39.854149,10240
16:03:39.854149,0
16:03:39.854149,43
16:03:39.854149,9728
16:03:39.854149,0
16:03:39.854149,35
16:03:39.854149,9728
16:03:39.854149,0
16:03:39.854149,40
16:03:39.854149,8960
16:03:39.854149,0
16:03:39.854149,33
16:03:39.854149,8960
16:03:39.854149,0
16:03:39.854149,35
16:03:39.854149,8448
16:03:39.854149,0
16:03:39.854149,31
16:03:39.854149,7168
16:03:39.854149,0
16:03:39.854149,28
16:03:39.854149,7936
16:03:39.854149,0
16:03:39.854149,33
16:03:39.854149,7168
16:03:39.854149,0
16:03:39.854149,26
16:03:39.854149,7168
16:03:39.854149,0
16:03:39.854149,28
16:03:39.854149,7168
16:03:39.854149,0
16:03:39.854149,23
16:03:39.854149,4864
16:03:39.854149,0
16:03:39.854149,26
16:03:39.854149,8448
16:03:39.854149,0
16:03:39.854149,33
16:03:39.854149,8960
16:03:39.854149,0
16:03:39.854149,33
16:03:39.854149,8960
16:03:39.854149,0
16:03:39.854149,40
16:03:39.854149,9728
16:03:39.854149,0
16:03:39.854149,38
16:03:39.854149,11008
16:03:39.854149,0
16:03:39.854149,40
16:03:39.854149,7168
16:03:39.854149,0
16:03:39.854149,16
16:03:39.854149,2304
16:03:39.854149,0
16:03:39.854149,19
16:03:39.854149,9728
16:03:39.854149,0
16:03:39.854149,40
16:03:39.854149,7936
16:03:39.854149,0
16:03:39.854149,33
16:03:39.854149,9728
16:03:39.854149,0
16:03:39.854149,38
16:03:39.854149,10240
16:03:39.854149,0
16:03:39.854149,43
16:03:39.854149,14592
16:03:39.854149,0
16:03:39.854149,141
16:03:39.854149,-1280
16:03:39.854149,0
16:03:39.854149,26
16:03:39.854149,-2048
16:03:39.854149,-4
16:03:39.854149,-1471
16:03:39.854149,25599
16:03:39.854149,-5
16:03:39.854149,-436
16:03:39.854149,-29185
16:03:39.854149,-1
16:03:39.854149,-2
16:03:40.393691,167
16:03:40.393691,-12288
16:03:40.393691,0
16:03:40.393691,177
16:03:40.393691,-14848
16:03:40.393691,0
16:03:40.393691,210
16:03:40.393691,-17920
16:03:40.393691,0
16:03:40.393691,186
16:03:40.393691,-15360
16:03:40.393691,0
16:03:40.393691,194
16:03:40.393691,-16640
16:03:40.393691,0
16:03:40.393691,189
16:03:40.393691,-18432
16:03:40.393691,0
16:03:40.393691,177
16:03:40.393691,-21504
16:03:40.393691,0
16:03:40.393691,165
16:03:40.393691,-26368
16:03:40.393691,0
16:03:40.393691,146
16:03:40.393691,-29952
16:03:40.393691,0
16:03:40.393691,134
16:03:40.393691,32512
16:03:40.393691,0
16:03:40.393691,112
16:03:40.393691,25600
16:03:40.393691,0
16:03:40.393691,81
16:03:40.393691,15872
16:03:40.393691,0
16:03:40.393691,43
16:03:40.393691,4096
16:03:40.393691,0
16:03:40.393691,-7
16:03:40.393691,-6401
16:03:40.393691,-1
16:03:40.393691,-43
16:03:40.393691,-12545
16:03:40.393691,-1
16:03:40.393691,-38
16:03:40.393691,-2561
16:03:40.393691,-1
16:03:40.393691,16
16:03:40.393691,9728
16:03:40.393691,0
16:03:40.393691,52
16:03:40.393691,18176
16:03:40.393691,0
16:03:40.393691,86
16:03:40.393691,22528
16:03:40.393691,0
16:03:40.393691,88
16:03:40.393691,22528
16:03:40.393691,0
16:03:40.393691,86
16:03:40.393691,22528
16:03:40.393691,0
16:03:40.393691,91
16:03:40.393691,22528
16:03:40.393691,0
16:03:40.393691,86
16:03:40.393691,21248
16:03:40.393691,0
16:03:40.393691,76
16:03:40.393691,18176
16:03:40.393691,0
16:03:40.393691,67
16:03:40.393691,17152
16:03:40.393691,0
16:03:40.393691,64
16:03:40.393691,15104
16:03:40.393691,0
16:03:40.393691,52
16:03:40.393691,12800
16:03:40.393691,0
16:03:40.393691,47
16:03:40.393691,11008
16:03:40.393691,0
16:03:40.393691,40
16:03:40.393691,8960
16:03:40.393691,0
16:03:40.393691,33
16:03:40.393691,8960
16:03:40.393691,0
16:03:40.393691,35
16:03:40.393691,8448
16:03:40.393691,0
16:03:40.393691,31
16:03:40.393691,8448
16:03:40.393691,0
16:03:40.393691,33
16:03:40.393691,7936
16:03:40.393691,0
16:03:40.393691,31
16:03:40.393691,7936
16:03:40.393691,0
16:03:40.393691,31
16:03:40.393691,7936
16:03:40.393691,0
16:03:40.393691,26
16:03:40.393691,6656
16:03:40.393691,0
16:03:40.393691,26
16:03:40.977183,28
16:03:40.977183,6656
16:03:40.977183,0
16:03:40.977183,23
16:03:40.977183,6656
16:03:40.977183,0
16:03:40.977183,26
16:03:40.977183,8448
16:03:40.977183,0
16:03:40.977183,47
16:03:40.977183,12800
16:03:40.977183,0
16:03:40.977183,43
16:03:40.977183,10240
16:03:40.977183,0
16:03:40.977183,40
16:03:40.977183,10240
16:03:40.977183,0
16:03:40.977183,40
16:03:40.977183,9728
16:03:40.977183,0
16:03:40.977183,35
16:03:40.977183,9728
16:03:40.977183,0
16:03:40.977183,43
16:03:40.977183,12032
16:03:40.977183,0
16:03:40.977183,47
16:03:40.977183,10240
16:03:40.977183,0
16:03:40.977183,28
16:03:40.977183,4096
16:03:40.977183,0
16:03:40.977183,7
16:03:40.977183,2304
16:03:40.977183,0
16:03:40.977183,23
16:03:40.977183,8448
16:03:40.977183,0
16:03:40.977183,33
16:03:40.977183,7936
16:03:40.977183,0
16:03:40.977183,33
16:03:40.977183,9728
16:03:40.977183,0
16:03:40.977183,38
16:03:40.977183,9728
16:03:40.977183,0
16:03:40.977183,45
16:03:40.977183,27392
16:03:40.977183,0
16:03:40.977183,237
16:03:40.977183,-28160
16:03:40.977183,0
16:03:40.977183,-560
16:03:40.977183,19967
16:03:40.977183,-6
16:03:40.977183,-1485
16:03:40.977183,14847
16:03:40.977183,-3
16:03:40.977183,-165
16:03:40.977183,-1537
16:03:40.977183,-1
16:03:40.977183,136
16:03:40.977183,-9216
16:03:40.977183,0
16:03:40.977183,203
16:03:40.977183,-12800
16:03:40.977183,0
16:03:40.977183,222
16:03:40.977183,-12288
16:03:40.977183,0
16:03:40.977183,196
16:03:40.977183,-14848
16:03:40.977183,0
16:03:40.977183,191
16:03:40.977183,-18432
16:03:40.977183,0
16:03:40.977183,182
16:03:40.977183,-20224
16:03:40.977183,0
16:03:40.977183,170
16:03:40.977183,-23296
16:03:40.977183,0
16:03:40.977183,160
16:03:40.977183,-26368
16:03:40.977183,0
16:03:40.977183,150
16:03:40.977183,-28160
16:03:40.977183,0
16:03:40.977183,141
16:03:40.977183,-32000
16:03:40.977183,0
16:03:40.977183,122
16:03:40.977183,28672
16:03:40.977183,0
16:03:40.977183,105
16:03:40.977183,22528
16:03:40.977183,0
16:03:40.977183,62
16:03:40.977183,8960
16:03:40.977183,0
16:03:40.977183,11
16:03:40.977183,-2816
16:03:40.977183,-1
16:03:40.977183,-33
16:03:40.977183,-11265
16:03:40.977183,-1
16:03:40.977183,-47
16:03:41.518926,-33
16:03:41.518926,-1537
16:03:41.518926,-1
16:03:41.518926,19
16:03:41.518926,10240
16:03:41.518926,0
16:03:41.518926,52
16:03:41.518926,14592
16:03:41.518926,0
16:03:41.518926,59
16:03:41.518926,15104
16:03:41.518926,0
16:03:41.518926,67
16:03:41.518926,21248
16:03:41.518926,0
16:03:41.518926,81
16:03:41.518926,17664
16:03:41.518926,0
16:03:41.518926,69
16:03:41.518926,18944
16:03:41.518926,0
16:03:41.518926,71
16:03:41.518926,18176
16:03:41.518926,0
16:03:41.518926,74
16:03:41.518926,18176
16:03:41.518926,0
16:03:41.518926,69
16:03:41.518926,17152
16:03:41.518926,0
16:03:41.518926,71
16:03:41.518926,18944
16:03:41.518926,0
16:03:41.518926,69
16:03:41.518926,15104
16:03:41.518926,0
16:03:41.518926,55
16:03:41.518926,14080
16:03:41.518926,0
16:03:41.518926,50
16:03:41.518926,11520
16:03:41.518926,0
16:03:41.518926,40
16:03:41.518926,10240
16:03:41.518926,0
16:03:41.518926,38
16:03:41.518926,9728
16:03:41.518926,0
16:03:41.518926,38
16:03:41.518926,8960
16:03:41.518926,0
16:03:41.518926,35
16:03:41.518926,8960
16:03:41.518926,0
16:03:41.518926,35
16:03:41.518926,8960
16:03:41.518926,0
16:03:41.518926,35
16:03:41.518926,8448
16:03:41.518926,0
16:03:41.518926,31
16:03:41.518926,7168
16:03:41.518926,0
16:03:41.518926,28
16:03:41.518926,6656
16:03:41.518926,0
16:03:41.518926,26
16:03:41.518926,6656
16:03:41.518926,0
16:03:41.518926,26
16:03:41.518926,6656
16:03:41.518926,0
16:03:41.518926,23
16:03:41.518926,5376
16:03:41.518926,0
16:03:41.518926,23
16:03:41.518926,5888
16:03:41.518926,0
16:03:41.518926,23
16:03:41.518926,4864
16:03:41.518926,0
16:03:41.518926,16
16:03:41.518926,4864
16:03:41.518926,0
16:03:41.518926,19
16:03:41.518926,4864
16:03:41.518926,0
16:03:41.518926,19
16:03:41.518926,4096
16:03:41.518926,0
16:03:41.518926,14
16:03:41.518926,3584
16:03:41.518926,0
16:03:41.518926,16
16:03:41.518926,3584
16:03:41.518926,0
16:03:41.518926,16
16:03:41.518926,4096
16:03:41.518926,0
16:03:41.518926,19
16:03:41.518926,5376
16:03:41.518926,0
16:03:41.518926,26
16:03:41.518926,8448
16:03:41.518926,0
16:03:41.518926,35
16:03:41.518926,8448
16:03:41.518926,0
16:03:41.518926,21
16:03:42.103608,9
16:03:42.103608,0
16:03:42.103608,0
16:03:42.103608,-2
16:03:42.103608,2559
16:03:42.103608,0
16:03:42.103608,26
16:03:42.103608,9728
16:03:42.103608,0
16:03:42.103608,45
16:03:42.103608,12800
16:03:42.103608,0
16:03:42.103608,43
16:03:42.103608,9728
16:03:42.103608,0
16:03:42.103608,40
16:03:42.103608,10240
16:03:42.103608,0
16:03:42.103608,67
16:03:42.103608,-21504
16:03:42.103608,0
16:03:42.103608,239
16:03:42.103608,26368
16:03:42.103608,-1
16:03:42.103608,-1088
16:03:42.103608,-25345
16:03:42.103608,-7
16:03:42.103608,-1131
16:03:42.103608,-23553
16:03:42.103608,-2
16:03:42.103608,-47
16:03:42.103608,16127
16:03:42.103608,0
16:03:42.103608,194
16:03:42.103608,-9728
16:03:42.103608,0
16:03:42.103608,198
16:03:42.103608,-9216
16:03:42.103608,0
16:03:42.103608,227
16:03:42.103608,-12288
16:03:42.103608,0
16:03:42.103608,203
16:03:42.103608,-14080
16:03:42.103608,0
16:03:42.103608,191
16:03:42.103608,-17920
16:03:42.103608,0
16:03:42.103608,184
16:03:42.103608,-20992
16:03:42.103608,0
16:03:42.103608,167
16:03:42.103608,-24064
16:03:42.103608,0
16:03:42.103608,155
16:03:42.103608,-28160
16:03:42.103608,0
16:03:42.103608,143
16:03:42.103608,-28160
16:03:42.103608,0
16:03:42.103608,139
16:03:42.103608,32512
16:03:42.103608,0
16:03:42.103608,117
16:03:42.103608,27392
16:03:42.103608,0
16:03:42.103608,95
16:03:42.103608,20224
16:03:42.103608,0
16:03:42.103608,55
16:03:42.103608,8448
16:03:42.103608,0
16:03:42.103608,14
16:03:42.103608,-2816
16:03:42.103608,-1
16:03:42.103608,-33
16:03:42.103608,-11265
16:03:42.103608,-1
16:03:42.103608,-45
16:03:42.103608,-5633
16:03:42.103608,-1
16:03:42.103608,-2
16:03:42.103608,4351
16:03:42.103608,0
16:03:42.103608,35
16:03:42.103608,12800
16:03:42.103608,0
16:03:42.103608,55
16:03:42.103608,14592
16:03:42.103608,0
16:03:42.103608,57
16:03:42.103608,14080
16:03:42.103608,0
16:03:42.103608,47
16:03:42.103608,11520
16:03:42.103608,0
16:03:42.103608,47
16:03:42.103608,12032
16:03:42.103608,0
16:03:42.103608,43
16:03:42.103608,12032
16:03:42.103608,0
16:03:42.103608,50
16:03:42.103608,12800
16:03:42.103608,0
16:03:42.103608,52
16:03:42.103608,12800
16:03:42.103608,0
16:03:42.103608,50
16:03:42.689554,52
16:03:42.689554,12800
16:03:42.689554,0
16:03:42.689554,45
16:03:42.689554,11008
16:03:42.689554,0
16:03:42.689554,40
16:03:42.689554,8960
16:03:42.689554,0
16:03:42.689554,38
16:03:42.689554,11008
16:03:42.689554,0
16:03:42.689554,45
16:03:42.689554,13312
16:03:42.689554,0
16:03:42.689554,64
16:03:42.689554,15104
16:03:42.689554,0
16:03:42.689554,52
16:03:42.689554,13312
16:03:42.689554,0
16:03:42.689554,50
16:03:42.689554,12032
16:03:42.689554,0
16:03:42.689554,50
16:03:42.689554,12800
16:03:42.689554,0
16:03:42.689554,45
16:03:42.689554,12032
16:03:42.689554,0
16:03:42.689554,50
16:03:42.689554,12032
16:03:42.689554,0
16:03:42.689554,43
16:03:42.689554,10240
16:03:42.689554,0
16:03:42.689554,35
16:03:42.689554,8960
16:03:42.689554,0
16:03:42.689554,38
16:03:42.689554,9728
16:03:42.689554,0
16:03:42.689554,35
16:03:42.689554,8960
16:03:42.689554,0
16:03:42.689554,31
16:03:42.689554,7168
16:03:42.689554,0
16:03:42.689554,28
16:03:42.689554,7936
16:03:42.689554,0
16:03:42.689554,31
16:03:42.689554,7168
16:03:42.689554,0
16:03:42.689554,26
16:03:42.689554,5888
16:03:42.689554,0
16:03:42.689554,26
16:03:42.689554,8448
16:03:42.689554,0
16:03:42.689554,33
16:03:42.689554,7936
16:03:42.689554,0
16:03:42.689554,31
16:03:42.689554,9728
16:03:42.689554,0
16:03:42.689554,38
16:03:42.689554,6656
16:03:42.689554,0
16:03:42.689554,9
16:03:42.689554,0
16:03:42.689554,0
16:03:42.689554,0
16:03:42.689554,4096
16:03:42.689554,0
16:03:42.689554,33
16:03:42.689554,6656
16:03:42.689554,0
16:03:42.689554,14
16:03:42.689554,4864
16:03:42.689554,0
16:03:42.689554,26
16:03:42.689554,5376
16:03:42.689554,0
16:03:42.689554,19
16:03:42.689554,5888
16:03:42.689554,0
16:03:42.689554,67
16:03:42.689554,-18432
16:03:42.689554,0
16:03:42.689554,201
16:03:42.689554,-11008
16:03:42.689554,-2
16:03:42.689554,-1203
16:03:42.689554,12031
16:03:42.689554,-6
16:03:42.689554,-838
16:03:42.689554,5119
16:03:42.689554,-1
16:03:42.689554,-83
16:03:42.689554,17919
16:03:42.689554,0
16:03:42.689554,208
16:03:42.689554,-17920
16:03:42.689554,0
16:03:42.689554,170
16:03:42.689554,-13568
16:03:42.689554,0
16:03:42.689554,208
16:03:43.227450,194
16:03:43.227450,-15360
16:03:43.227450,0
16:03:43.227450,191
16:03:43.227450,-19712
16:03:43.227450,0
16:03:43.227450,174
16:03:43.227450,-21504
16:03:43.227450,0
16:03:43.227450,162
16:03:43.227450,-25088
16:03:43.227450,0
16:03:43.227450,158
16:03:43.227450,-28160
16:03:43.227450,0
16:03:43.227450,139
16:03:43.227450,-29952
16:03:43.227450,0
16:03:43.227450,143
16:03:43.227450,-29440
16:03:43.227450,0
16:03:43.227450,129
16:03:43.227450,28672
16:03:43.227450,0
16:03:43.227450,93
16:03:43.227450,18176
16:03:43.227450,0
16:03:43.227450,57
16:03:43.227450,10240
16:03:43.227450,0
16:03:43.227450,14
16:03:43.227450,-4096
16:03:43.227450,-1
16:03:43.227450,-38
16:03:43.227450,-11265
16:03:43.227450,-1
16:03:43.227450,-38
16:03:43.227450,-4609
16:03:43.227450,-1
16:03:43.227450,4
16:03:43.227450,7936
16:03:43.227450,0
16:03:43.227450,57
16:03:43.227450,18944
16:03:43.227450,0
16:03:43.227450,81
16:03:43.227450,22016
16:03:43.227450,0
16:03:43.227450,86
16:03:43.227450,21248
16:03:43.227450,0
16:03:43.227450,86
16:03:43.227450,22016
16:03:43.227450,0
16:03:43.227450,81
16:03:43.227450,20736
16:03:43.227450,0
16:03:43.227450,83
16:03:43.227450,22528
16:03:43.227450,0
16:03:43.227450,83
16:03:43.227450,18944
16:03:43.227450,0
16:03:43.227450,71
16:03:43.227450,17664
16:03:43.227450,0
16:03:43.227450,64
16:03:43.227450,15104
16:03:43.227450,0
16:03:43.227450,55
16:03:43.227450,12032
16:03:43.227450,0
16:03:43.227450,43
16:03:43.227450,11008
16:03:43.227450,0
16:03:43.227450,38
16:03:43.227450,8448
16:03:43.227450,0
16:03:43.227450,31
16:03:43.227450,7936
16:03:43.227450,0
16:03:43.227450,31
16:03:43.227450,7936
16:03:43.227450,0
16:03:43.227450,33
16:03:43.227450,7168
16:03:43.227450,0
16:03:43.227450,26
16:03:43.227450,6656
16:03:43.227450,0
16:03:43.227450,28
16:03:43.227450,7168
16:03:43.227450,0
16:03:43.227450,23
16:03:43.227450,5376
16:03:43.227450,0
16:03:43.227450,26
16:03:43.227450,7168
16:03:43.227450,0
16:03:43.227450,26
16:03:43.227450,5888
16:03:43.227450,0
16:03:43.227450,26
16:03:43.227450,5888
16:03:43.227450,0
16:03:43.227450,26
16:03:43.227450,6656
16:03:43.227450,0
16:03:43.227450,26
16:03:43.766620,23
16:03:43.766620,5376
16:03:43.766620,0
16:03:43.766620,23
16:03:43.766620,5888
16:03:43.766620,0
16:03:43.766620,26
16:03:43.766620,8448
16:03:43.766620,0
16:03:43.766620,38
16:03:43.766620,8448
16:03:43.766620,0
16:03:43.766620,19
16:03:43.766620,3584
16:03:43.766620,0
16:03:43.766620,19
16:03:43.766620,5376
16:03:43.766620,0
16:03:43.766620,28
16:03:43.766620,10240
16:03:43.766620,0
16:03:43.766620,38
16:03:43.766620,6656
16:03:43.766620,0
16:03:43.766620,23
16:03:43.766620,6656
16:03:43.766620,0
16:03:43.766620,23
16:03:43.766620,4864
16:03:43.766620,0
16:03:43.766620,26
16:03:43.766620,21248
16:03:43.766620,0
16:03:43.766620,206
16:03:43.766620,-24064
16:03:43.766620,0
16:03:43.766620,-460
16:03:43.766620,-23553
16:03:43.766620,-6
16:03:43.766620,-1512
16:03:43.766620,-4353
16:03:43.766620,-4
16:03:43.766620,-222
16:03:43.766620,-15617
16:03:43.766620,-1
16:03:43.766620,93
16:03:43.766620,-14080
16:03:43.766620,0
16:03:43.766620,184
16:03:43.766620,-17920
16:03:43.766620,0
16:03:43.766620,208
16:03:43.766620,-15360
16:03:43.766620,0
16:03:43.766620,189
16:03:43.766620,-15360
16:03:43.766620,0
16:03:43.766620,186
16:03:43.766620,-20224
16:03:43.766620,0
16:03:43.766620,177
16:03:43.766620,-20992
16:03:43.766620,0
16:03:43.766620,167
16:03:43.766620,-23296
16:03:43.766620,0
16:03:43.766620,160
16:03:43.766620,-25088
16:03:43.766620,0
16:03:43.766620,153
16:03:43.766620,-27648
16:03:43.766620,0
16:03:43.766620,143
16:03:43.766620,-29952
16:03:43.766620,0
16:03:43.766620,131
16:03:43.766620,30464
16:03:43.766620,0
16:03:43.766620,105
16:03:43.766620,22528
16:03:43.766620,0
16:03:43.766620,67
16:03:43.766620,11008
16:03:43.766620,0
16:03:43.766620,16
16:03:43.766620,-1024
16:03:43.766620,-1
16:03:43.766620,-26
16:03:43.766620,-9985
16:03:43.766620,-1
16:03:43.766620,-40
16:03:43.766620,-5633
16:03:43.766620,-1
16:03:43.766620,2
16:03:43.766620,5888
16:03:43.766620,0
16:03:43.766620,40
16:03:43.766620,12800
16:03:43.766620,0
16:03:43.766620,59
16:03:43.766620,16384
16:03:43.766620,0
16:03:43.766620,62
16:03:43.766620,15104
16:03:43.766620,0
16:03:43.766620,55
16:03:43.766620,14080
16:03:43.766620,0
16:03:43.766620,59
16:03:44.304106,59
16:03:44.304106,15104
16:03:44.304106,0
16:03:44.304106,62
16:03:44.304106,15104
16:03:44.304106,0
16:03:44.304106,59
16:03:44.304106,15104
16:03:44.304106,0
16:03:44.304106,64
16:03:44.304106,18944
16:03:44.304106,0
16:03:44.304106,76
16:03:44.304106,17152
16:03:44.304106,0
16:03:44.304106,62
16:03:44.304106,14592
16:03:44.304106,0
16:03:44.304106,55
16:03:44.304106,14080
16:03:44.304106,0
16:03:44.304106,50
16:03:44.304106,11008
16:03:44.304106,0
16:03:44.304106,40
16:03:44.304106,11520
16:03:44.304106,0
16:03:44.304106,43
16:03:44.304106,9728
16:03:44.304106,0
16:03:44.304106,38
16:03:44.304106,9728
16:03:44.304106,0
16:03:44.304106,40
16:03:44.304106,10240
16:03:44.304106,0
16:03:44.304106,38
16:03:44.304106,9728
16:03:44.304106,0
16:03:44.304106,35
16:03:44.304106,8448
16:03:44.304106,0
16:03:44.304106,33
16:03:44.304106,8448
16:03:44.304106,0
16:03:44.304106,33
16:03:44.304106,8448
16:03:44.304106,0
16:03:44.304106,28
16:03:44.304106,7168
16:03:44.304106,0
16:03:44.304106,28
16:03:44.304106,6656
16:03:44.304106,0
16:03:44.304106,23
16:03:44.304106,6656
16:03:44.304106,0
16:03:44.304106,26
16:03:44.304106,5888
16:03:44.304106,0
16:03:44.304106,21
16:03:44.304106,5888
16:03:44.304106,0
16:03:44.304106,26
16:03:44.304106,5888
16:03:44.304106,0
16:03:44.304106,21
16:03:44.304106,4864
16:03:44.304106,0
16:03:44.304106,21
16:03:44.304106,5888
16:03:44.304106,0
16:03:44.304106,23
16:03:44.304106,6656
16:03:44.304106,0
16:03:44.304106,28
16:03:44.304106,6656
16:03:44.304106,0
16:03:44.304106,23
16:03:44.304106,6656
16:03:44.304106,0
16:03:44.304106,31
16:03:44.304106,8960
16:03:44.304106,0
16:03:44.304106,35
16:03:44.304106,9728
16:03:44.304106,0
16:03:44.304106,38
16:03:44.304106,7936
16:03:44.304106,0
16:03:44.304106,16
16:03:44.304106,1024
16:03:44.304106,0
16:03:44.304106,-2
16:03:44.304106,767
16:03:44.304106,0
16:03:44.304106,19
16:03:44.304106,6656
16:03:44.304106,0
16:03:44.304106,21
16:03:44.304106,4096
16:03:44.304106,0
16:03:44.304106,16
16:03:44.304106,3584
16:03:44.304106,0
16:03:44.304106,14
16:03:44.304106,4096
16:03:44.304106,0
16:03:44.304106,38
16:03:44.892676,136
16:03:44.892676,-9216
16:03:44.892676,0
16:03:44.892676,-136
16:03:44.892676,-14081
16:03:44.892676,-5
16:03:44.892676,-1704
16:03:44.892676,14591
16:03:44.892676,-5
16:03:44.892676,-390
16:03:44.892676,-11777
16:03:44.892676,-1
16:03:44.892676,62
16:03:44.892676,-13568
16:03:44.892676,0
16:03:44.892676,239
16:03:44.892676,-10496
16:03:44.892676,0
16:03:44.892676,234
16:03:44.892676,-3072
16:03:44.892676,0
16:03:44.892676,225
16:03:44.892676,-9216
16:03:44.892676,0
16:03:44.892676,222
16:03:44.892676,-11776
16:03:44.892676,0
16:03:44.892676,201
16:03:44.892676,-15360
16:03:44.892676,0
16:03:44.892676,194
16:03:44.892676,-17152
16:03:44.892676,0
16:03:44.892676,182
16:03:44.892676,-20224
16:03:44.892676,0
16:03:44.892676,170
16:03:44.892676,-23296
16:03:44.892676,0
16:03:44.892676,158
16:03:44.892676,-25088
16:03:44.892676,0
16:03:44.892676,153
16:03:44.892676,-29440
16:03:44.892676,0
16:03:44.892676,127
16:03:44.892676,29440
16:03:44.892676,0
16:03:44.892676,95
16:03:44.892676,19456
16:03:44.892676,0
16:03:44.892676,55
16:03:44.892676,7168
16:03:44.892676,0
16:03:44.892676,2
16:03:44.892676,-4864
16:03:44.892676,-1
16:03:44.892676,-38
16:03:44.892676,-9473
16:03:44.892676,-1
16:03:44.892676,-23
16:03:44.892676,255
16:03:44.892676,0
16:03:44.892676,23
16:03:44.892676,12032
16:03:44.892676,0
16:03:44.892676,57
16:03:44.892676,17152
16:03:44.892676,0
16:03:44.892676,71
16:03:44.892676,17664
16:03:44.892676,0
16:03:44.892676,62
16:03:44.892676,15104
16:03:44.892676,0
16:03:44.892676,57
16:03:44.892676,14080
16:03:44.892676,0
16:03:44.892676,55
16:03:44.892676,14080
16:03:44.892676,0
16:03:44.892676,55
16:03:44.892676,14080
16:03:44.892676,0
16:03:44.892676,57
16:03:44.892676,15104
16:03:44.892676,0
16:03:44.892676,62
16:03:44.892676,15104
16:03:44.892676,0
16:03:44.892676,57
16:03:44.892676,15104
16:03:44.892676,0
16:03:44.892676,59
16:03:44.892676,14592
16:03:44.892676,0
16:03:44.892676,57
16:03:44.892676,13312
16:03:44.892676,0
16:03:44.892676,47
16:03:44.892676,11520
16:03:44.892676,0
16:03:44.892676,45
16:03:44.892676,11008
16:03:44.892676,0
16:03:44.892676,35
16:03:44.892676,8448
16:03:44.892676,0
16:03:44.892676,33
16:03:45.477761,28
16:03:45.477761,7168
16:03:45.477761,0
16:03:45.477761,31
16:03:45.477761,7936
16:03:45.477761,0
16:03:45.477761,31
16:03:45.477761,7936
16:03:45.477761,0
16:03:45.477761,28
16:03:45.477761,9728
16:03:45.477761,0
16:03:45.477761,52
16:03:45.477761,13312
16:03:45.477761,0
16:03:45.477761,45
16:03:45.477761,11520
16:03:45.477761,0
16:03:45.477761,45
16:03:45.477761,11008
16:03:45.477761,0
16:03:45.477761,40
16:03:45.477761,10240
16:03:45.477761,0
16:03:45.477761,38
16:03:45.477761,8960
16:03:45.477761,0
16:03:45.477761,40
16:03:45.477761,10240
16:03:45.477761,0
16:03:45.477761,35
16:03:45.477761,8960
16:03:45.477761,0
16:03:45.477761,38
16:03:45.477761,8960
16:03:45.477761,0
16:03:45.477761,33
16:03:45.477761,8448
16:03:45.477761,0
16:03:45.477761,31
16:03:45.477761,7168
16:03:45.477761,0
16:03:45.477761,31
16:03:45.477761,8448
16:03:45.477761,0
16:03:45.477761,35
16:03:45.477761,9728
16:03:45.477761,0
16:03:45.477761,40
16:03:45.477761,10240
16:03:45.477761,0
16:03:45.477761,28
16:03:45.477761,5376
16:03:45.477761,0
16:03:45.477761,19
16:03:45.477761,3584
16:03:45.477761,0
16:03:45.477761,21
16:03:45.477761,8960
16:03:45.477761,0
16:03:45.477761,40
16:03:45.477761,8448
16:03:45.477761,0
16:03:45.477761,31
16:03:45.477761,8448
16:03:45.477761,0
16:03:45.477761,28
16:03:45.477761,6656
16:03:45.477761,0
16:03:45.477761,31
16:03:45.477761,11008
16:03:45.477761,0
16:03:45.477761,127
16:03:45.477761,-6656
16:03:45.477761,0
16:03:45.477761,-26
16:03:45.477761,-29953
16:03:45.477761,-4
16:03:45.477761,-1615
16:03:45.477761,-8193
16:03:45.477761,-6
16:03:45.477761,-488
16:03:45.477761,-20993
16:03:45.477761,-1
16:03:45.477761,26
16:03:45.477761,-22784
16:03:45.477761,0
16:03:45.477761,220
16:03:45.477761,-15872
16:03:45.477761,0
16:03:45.477761,208
16:03:45.477761,-8704
16:03:45.477761,0
16:03:45.477761,208
16:03:45.477761,-14080
16:03:45.477761,0
16:03:45.477761,203
16:03:45.477761,-14848
16:03:45.477761,0
16:03:45.477761,189
16:03:45.477761,-18432
16:03:45.477761,0
16:03:45.477761,186
16:03:45.477761,-18432
16:03:45.477761,0
16:03:45.477761,174
16:03:45.477761,-22784
16:03:45.477761,0
16:03:45.477761,162
16:03:46.017074,158
16:03:46.017074,-25856
16:03:46.017074,0
16:03:46.017074,148
16:03:46.017074,-30720
16:03:46.017074,0
16:03:46.017074,131
16:03:46.017074,31232
16:03:46.017074,0
16:03:46.017074,103
16:03:46.017074,22528
16:03:46.017074,0
16:03:46.017074,74
16:03:46.017074,14080
16:03:46.017074,0
16:03:46.017074,38
16:03:46.017074,6656
16:03:46.017074,0
16:03:46.017074,4
16:03:46.017074,-2816
16:03:46.017074,-1
16:03:46.017074,-7
16:03:46.017074,3071
16:03:46.017074,0
16:03:46.017074,35
16:03:46.017074,14080
16:03:46.017074,0
16:03:46.017074,67
16:03:46.017074,20224
16:03:46.017074,0
16:03:46.017074,88
16:03:46.017074,22528
16:03:46.017074,0
16:03:46.017074,88
16:03:46.017074,23296
16:03:46.017074,0
16:03:46.017074,81
16:03:46.017074,18944
16:03:46.017074,0
16:03:46.017074,76
16:03:46.017074,20736
16:03:46.017074,0
16:03:46.017074,86
16:03:46.017074,22016
16:03:46.017074,0
16:03:46.017074,83
16:03:46.017074,22016
16:03:46.017074,0
16:03:46.017074,86
16:03:46.017074,21248
16:03:46.017074,0
16:03:46.017074,81
16:03:46.017074,20224
16:03:46.017074,0
16:03:46.017074,76
16:03:46.017074,19456
16:03:46.017074,0
16:03:46.017074,74
16:03:46.017074,17664
16:03:46.017074,0
16:03:46.017074,62
16:03:46.017074,14080
16:03:46.017074,0
16:03:46.017074,47
16:03:46.017074,12800
16:03:46.017074,0
16:03:46.017074,55
16:03:46.017074,13312
16:03:46.017074,0
16:03:46.017074,43
16:03:46.017074,10240
16:03:46.017074,0
16:03:46.017074,43
16:03:46.017074,11520
16:03:46.017074,0
16:03:46.017074,45
16:03:46.017074,10240
16:03:46.017074,0
16:03:46.017074,35
16:03:46.017074,9728
16:03:46.017074,0
16:03:46.017074,40
16:03:46.017074,8960
16:03:46.017074,0
16:03:46.017074,33
16:03:46.017074,8960
16:03:46.017074,0
16:03:46.017074,35
16:03:46.017074,8960
16:03:46.017074,0
16:03:46.017074,35
16:03:46.017074,10240
16:03:46.017074,0
16:03:46.017074,40
16:03:46.017074,8960
16:03:46.017074,0
16:03:46.017074,33
16:03:46.017074,8448
16:03:46.017074,0
16:03:46.017074,31
16:03:46.017074,7168
16:03:46.017074,0
16:03:46.017074,28
16:03:46.017074,8448
16:03:46.017074,0
16:03:46.017074,35
16:03:46.017074,6656
16:03:46.017074,0
16:03:46.017074,26
16:03:46.602543,35
16:03:46.602543,11008
16:03:46.602543,0
16:03:46.602543,40
16:03:46.602543,9728
16:03:46.602543,0
16:03:46.602543,45
16:03:46.602543,8960
16:03:46.602543,0
16:03:46.602543,21
16:03:46.602543,4864
16:03:46.602543,0
16:03:46.602543,26
16:03:46.602543,8960
16:03:46.602543,0
16:03:46.602543,47
16:03:46.602543,14080
16:03:46.602543,0
16:03:46.602543,47
16:03:46.602543,11008
16:03:46.602543,0
16:03:46.602543,43
16:03:46.602543,9728
16:03:46.602543,0
16:03:46.602543,35
16:03:46.602543,9728
16:03:46.602543,0
16:03:46.602543,50
16:03:46.602543,-31232
16:03:46.602543,0
16:03:46.602543,254
16:03:46.602543,20736
16:03:46.602543,0
16:03:46.602543,-678
16:03:46.602543,25599
16:03:46.602543,-6
16:03:46.602543,-1248
16:03:46.602543,6399
16:03:46.602543,-2
16:03:46.602543,-122
16:03:46.602543,-2561
16:03:46.602543,-1
16:03:46.602543,162
16:03:46.602543,-9728
16:03:46.602543,0
16:03:46.602543,179
16:03:46.602543,-13568
16:03:46.602543,0
16:03:46.602543,227
16:03:46.602543,-12800
16:03:46.602543,0
16:03:46.602543,196
16:03:46.602543,-14080
16:03:46.602543,0
16:03:46.602543,198
16:03:46.602543,-15872
16:03:46.602543,0
16:03:46.602543,184
16:03:46.602543,-21504
16:03:46.602543,0
16:03:46.602543,167
16:03:46.602543,-24064
16:03:46.602543,0
16:03:46.602543,160
16:03:46.602543,-25856
16:03:46.602543,0
16:03:46.602543,146
16:03:46.602543,-29952
16:03:46.602543,0
16:03:46.602543,136
16:03:46.602543,32512
16:03:46.602543,0
16:03:46.602543,112
16:03:46.602543,25600
16:03:46.602543,0
16:03:46.602543,86
16:03:46.602543,16384
16:03:46.602543,0
16:03:46.602543,43
16:03:46.602543,5888
16:03:46.602543,0
16:03:46.602543,-2
16:03:46.602543,-5633
16:03:46.602543,-1
16:03:46.602543,-38
16:03:46.602543,-11265
16:03:46.602543,-1
16:03:46.602543,-38
16:03:46.602543,-2561
16:03:46.602543,-1
16:03:46.602543,19
16:03:46.602543,10240
16:03:46.602543,0
16:03:46.602543,57
16:03:46.602543,17664
16:03:46.602543,0
16:03:46.602543,76
16:03:46.602543,20224
16:03:46.602543,0
16:03:46.602543,79
16:03:46.602543,20736
16:03:46.602543,0
16:03:46.602543,81
16:03:46.602543,21248
16:03:46.602543,0
16:03:46.602543,81
16:03:46.602543,20224
16:03:46.602543,0
16:03:46.602543,76
16:03:47.142565,76
16:03:47.142565,20224
16:03:47.142565,0
16:03:47.142565,74
16:03:47.142565,16384
16:03:47.142565,0
16:03:47.142565,59
16:03:47.142565,15104
16:03:47.142565,0
16:03:47.142565,50
16:03:47.142565,11008
16:03:47.142565,0
16:03:47.142565,43
16:03:47.142565,11520
16:03:47.142565,0
16:03:47.142565,47
16:03:47.142565,14592
16:03:47.142565,0
16:03:47.142565,64
16:03:47.142565,15104
16:03:47.142565,0
16:03:47.142565,57
16:03:47.142565,15104
16:03:47.142565,0
16:03:47.142565,57
16:03:47.142565,14592
16:03:47.142565,0
16:03:47.142565,55
16:03:47.142565,12800
16:03:47.142565,0
16:03:47.142565,50
16:03:47.142565,12032
16:03:47.142565,0
16:03:47.142565,45
16:03:47.142565,11520
16:03:47.142565,0
16:03:47.142565,47
16:03:47.142565,10240
16:03:47.142565,0
16:03:47.142565,38
16:03:47.142565,9728
16:03:47.142565,0
16:03:47.142565,40
16:03:47.142565,9728
16:03:47.142565,0
16:03:47.142565,33
16:03:47.142565,7936
16:03:47.142565,0
16:03:47.142565,31
16:03:47.142565,7936
16:03:47.142565,0
16:03:47.142565,31
16:03:47.142565,7936
16:03:47.142565,0
16:03:47.142565,28
16:03:47.142565,5888
16:03:47.142565,0
16:03:47.142565,19
16:03:47.142565,5376
16:03:47.142565,0
16:03:47.142565,26
16:03:47.142565,8448
16:03:47.142565,0
16:03:47.142565,38
16:03:47.142565,8960
16:03:47.142565,0
16:03:47.142565,35
16:03:47.142565,10240
16:03:47.142565,0
16:03:47.142565,35
16:03:47.142565,5376
16:03:47.142565,0
16:03:47.142565,7
16:03:47.142565,0
16:03:47.142565,0
16:03:47.142565,7
16:03:47.142565,5376
16:03:47.142565,0
16:03:47.142565,26
16:03:47.142565,4864
16:03:47.142565,0
16:03:47.142565,11
