timestamp,ecg
17:30:24.897762,-52
17:30:24.897762,-14337
17:30:24.897762,-1
17:30:24.897762,-52
17:30:24.897762,-19201
17:30:24.897762,-1
17:30:24.897762,-92
17:30:24.897762,-19713
17:30:24.897762,-1
17:30:24.897762,-87
17:30:24.897762,-22017
17:30:24.897762,-1
17:30:24.897762,-80
17:30:24.897762,-23297
17:30:24.897762,-1
17:30:24.897762,-102
17:30:24.897762,29439
17:30:24.897762,-1
17:30:24.897762,-168
17:30:24.897762,-32513
17:30:24.897762,-1
17:30:24.897762,2
17:30:24.897762,-22528
17:30:24.897762,0
17:30:24.897762,104
17:30:24.897762,-26624
17:30:24.897762,-1
17:30:24.897762,-123
17:30:24.897762,-16641
17:30:24.897762,-1
17:30:24.897762,-99
17:30:24.897762,31743
17:30:24.897762,-1
17:30:24.897762,-114
17:30:24.897762,-25089
17:30:24.897762,-1
17:30:24.897762,-121
17:30:24.897762,-29953
17:30:24.897762,-1
17:30:24.897762,-104
17:30:24.897762,-28161
17:30:24.897762,-1
17:30:24.897762,-97
17:30:24.897762,-25089
17:30:24.897762,-1
17:30:24.897762,-106
17:30:24.897762,-23297
17:30:24.897762,-1
17:30:24.897762,-97
17:30:24.897762,-22017
17:30:24.897762,-1
17:30:24.897762,-83
17:30:24.897762,-24577
17:30:24.897762,-1
17:30:24.897762,-80
17:30:24.897762,-20993
17:30:24.897762,-1
17:30:24.897762,-87
17:30:24.897762,-19713
17:30:24.897762,-1
17:30:24.897762,-92
17:30:24.897762,-22017
17:30:24.897762,-1
17:30:24.897762,-83
17:30:24.897762,-20993
17:30:24.897762,-1
17:30:24.897762,-76
17:30:24.897762,-20993
17:30:24.897762,-1
17:30:24.897762,-80
17:30:24.897762,-24065
17:30:24.897762,-1
17:30:24.897762,-114
17:30:24.897762,-25089
17:30:24.897762,-1
17:30:24.897762,-111
17:30:24.897762,-30721
17:30:24.897762,-1
17:30:24.897762,-111
17:30:24.897762,-30721
17:30:24.897762,-1
17:30:24.897762,-116
17:30:24.897762,-29953
17:30:24.897762,-1
17:30:24.897762,-128
17:30:24.897762,-28929
17:30:24.897762,-1
17:30:24.897762,-118
17:30:24.897762,-29953
17:30:24.897762,-1
17:30:24.897762,-114
17:30:24.897762,-32513
17:30:24.897762,-1
17:30:24.897762,-118
17:30:24.897762,-29953
17:30:24.897762,-1
17:30:24.897762,-125
17:30:24.897762,-29441
17:30:24.897762,-1
17:30:24.897762,-121
17:30:24.897762,-30721
17:30:24.897762,-1
17:30:24.897762,-128
17:30:24.897762,31743
17:30:24.897762,-1
17:30:24.897762,-128
17:30:24.897762,30719
17:30:24.897762,-1
17:30:24.897762,-128
17:30:25.437467,-114
17:30:25.437467,-30721
17:30:25.437467,-1
17:30:25.437467,-111
17:30:25.437467,-29441
17:30:25.437467,-1
17:30:25.437467,-116
17:30:25.437467,-29441
17:30:25.437467,-1
17:30:25.437467,-142
17:30:25.437467,31231
17:30:25.437467,-1
17:30:25.437467,-125
17:30:25.437467,29951
17:30:25.437467,-1
17:30:25.437467,-116
17:30:25.437467,-22785
17:30:25.437467,-1
17:30:25.437467,-109
17:30:25.437467,24575
17:30:25.437467,-1
17:30:25.437467,-199
17:30:25.437467,20223
17:30:25.437467,-1
17:30:25.437467,-78
17:30:25.437467,26879
17:30:25.437467,0
17:30:25.437467,130
17:30:25.437467,-19968
17:30:25.437467,-1
17:30:25.437467,-168
17:30:25.437467,-24577
17:30:25.437467,-1
17:30:25.437467,-104
17:30:25.437467,28927
17:30:25.437467,-1
17:30:25.437467,-135
17:30:25.437467,-27649
17:30:25.437467,-1
17:30:25.437467,-118
17:30:25.437467,31743
17:30:25.437467,-1
17:30:25.437467,-109
17:30:25.437467,-29441
17:30:25.437467,-1
17:30:25.437467,-123
17:30:25.437467,-26369
17:30:25.437467,-1
17:30:25.437467,-109
17:30:25.437467,-27649
17:30:25.437467,-1
17:30:25.437467,-102
17:30:25.437467,-25857
17:30:25.437467,-1
17:30:25.437467,-87
17:30:25.437467,-21505
17:30:25.437467,-1
17:30:25.437467,-73
17:30:25.437467,-19201
17:30:25.437467,-1
17:30:25.437467,-97
17:30:25.437467,-22017
17:30:25.437467,-1
17:30:25.437467,-87
17:30:25.437467,-22785
17:30:25.437467,-1
17:30:25.437467,-80
17:30:25.437467,-23297
17:30:25.437467,-1
17:30:25.437467,-85
17:30:25.437467,-21505
17:30:25.437467,-1
17:30:25.437467,-102
17:30:25.437467,-24065
17:30:25.437467,-1
17:30:25.437467,-109
17:30:25.437467,-29953
17:30:25.437467,-1
17:30:25.437467,-114
17:30:25.437467,-32513
17:30:25.437467,-1
17:30:25.437467,-121
17:30:25.437467,-29953
17:30:25.437467,-1
17:30:25.437467,-116
17:30:25.437467,-27649
17:30:25.437467,-1
17:30:25.437467,-123
17:30:25.437467,-30721
17:30:25.437467,-1
17:30:25.437467,-121
17:30:25.437467,-31745
17:30:25.437467,-1
17:30:25.437467,-114
17:30:25.437467,-30721
17:30:25.437467,-1
17:30:25.437467,-116
17:30:25.437467,-26369
17:30:25.437467,-1
17:30:25.437467,-118
17:30:25.437467,-26881
17:30:25.437467,-1
17:30:25.437467,-104
17:30:25.437467,-28161
17:30:25.437467,-1
17:30:25.437467,-102
17:30:25.437467,-27649
17:30:25.437467,-1
17:30:25.437467,-102
17:30:26.022700,-99
17:30:26.022700,-28161
17:30:26.022700,-1
17:30:26.022700,-97
17:30:26.022700,-24577
17:30:26.022700,-1
17:30:26.022700,-95
17:30:26.022700,-20225
17:30:26.022700,-1
17:30:26.022700,-90
17:30:26.022700,-18433
17:30:26.022700,-1
17:30:26.022700,-57
17:30:26.022700,-19713
17:30:26.022700,-1
17:30:26.022700,-114
17:30:26.022700,-32513
17:30:26.022700,-1
17:30:26.022700,-104
17:30:26.022700,-26881
17:30:26.022700,-1
17:30:26.022700,-121
17:30:26.022700,-25857
17:30:26.022700,-1
17:30:26.022700,-114
17:30:26.022700,25855
17:30:26.022700,-1
17:30:26.022700,-185
17:30:26.022700,23295
17:30:26.022700,-1
17:30:26.022700,-4
17:30:26.022700,-14849
17:30:26.022700,0
17:30:26.022700,180
17:30:26.022700,-5888
17:30:26.022700,-1
17:30:26.022700,-137
17:30:26.022700,-24065
17:30:26.022700,-1
17:30:26.022700,-104
17:30:26.022700,26367
17:30:26.022700,-1
17:30:26.022700,-123
17:30:26.022700,-28161
17:30:26.022700,-1
17:30:26.022700,-116
17:30:26.022700,-25089
17:30:26.022700,-1
17:30:26.022700,-114
17:30:26.022700,-29441
17:30:26.022700,-1
17:30:26.022700,-109
17:30:26.022700,-28161
17:30:26.022700,-1
17:30:26.022700,-99
17:30:26.022700,-26369
17:30:26.022700,-1
17:30:26.022700,-99
17:30:26.022700,-24577
17:30:26.022700,-1
17:30:26.022700,-104
17:30:26.022700,-22017
17:30:26.022700,-1
17:30:26.022700,-87
17:30:26.022700,-21505
17:30:26.022700,-1
17:30:26.022700,-83
17:30:26.022700,-24577
17:30:26.022700,-1
17:30:26.022700,-85
17:30:26.022700,-19713
17:30:26.022700,-1
17:30:26.022700,-80
17:30:26.022700,-19201
17:30:26.022700,-1
17:30:26.022700,-90
17:30:26.022700,-22785
17:30:26.022700,-1
17:30:26.022700,-92
17:30:26.022700,-26881
17:30:26.022700,-1
17:30:26.022700,-95
17:30:26.022700,-25089
17:30:26.022700,-1
17:30:26.022700,-111
17:30:26.022700,-26369
17:30:26.022700,-1
17:30:26.022700,-111
17:30:26.022700,-27649
17:30:26.022700,-1
17:30:26.022700,-109
17:30:26.022700,-26881
17:30:26.022700,-1
17:30:26.022700,-97
17:30:26.022700,-26881
17:30:26.022700,-1
17:30:26.022700,-102
17:30:26.022700,-22785
17:30:26.022700,-1
17:30:26.022700,-95
17:30:26.022700,-22017
17:30:26.022700,-1
17:30:26.022700,-104
17:30:26.022700,-27649
17:30:26.022700,-1
17:30:26.022700,-95
17:30:26.022700,-26369
17:30:26.022700,-1
17:30:26.022700,-95
17:30:26.558413,-92
17:30:26.558413,-27649
17:30:26.558413,-1
17:30:26.558413,-102
17:30:26.558413,-27649
17:30:26.558413,-1
17:30:26.558413,-104
17:30:26.558413,-23297
17:30:26.558413,-1
17:30:26.558413,-99
17:30:26.558413,-24577
17:30:26.558413,-1
17:30:26.558413,-104
17:30:26.558413,-25857
17:30:26.558413,-1
17:30:26.558413,-71
17:30:26.558413,-11265
17:30:26.558413,-1
17:30:26.558413,-38
17:30:26.558413,-20225
17:30:26.558413,-1
17:30:26.558413,-99
17:30:26.558413,-20225
17:30:26.558413,-1
17:30:26.558413,-99
17:30:26.558413,-24577
17:30:26.558413,-1
17:30:26.558413,-83
17:30:26.558413,-26369
17:30:26.558413,-1
17:30:26.558413,-104
17:30:26.558413,-26881
17:30:26.558413,-1
17:30:26.558413,-123
17:30:26.558413,29951
17:30:26.558413,-1
17:30:26.558413,-166
17:30:26.558413,-19713
17:30:26.558413,-1
17:30:26.558413,142
17:30:26.558413,-1280
17:30:26.558413,0
17:30:26.558413,97
17:30:26.558413,-26624
17:30:26.558413,-1
17:30:26.558413,-111
17:30:26.558413,-20993
17:30:26.558413,-1
17:30:26.558413,-135
17:30:26.558413,-32513
17:30:26.558413,-1
17:30:26.558413,-104
17:30:26.558413,-28929
17:30:26.558413,-1
17:30:26.558413,-111
17:30:26.558413,-28929
17:30:26.558413,-1
17:30:26.558413,-99
17:30:26.558413,-24577
17:30:26.558413,-1
17:30:26.558413,-111
17:30:26.558413,-23297
17:30:26.558413,-1
17:30:26.558413,-97
17:30:26.558413,-26369
17:30:26.558413,-1
17:30:26.558413,-97
17:30:26.558413,-25089
17:30:26.558413,-1
17:30:26.558413,-85
17:30:26.558413,-22017
17:30:26.558413,-1
17:30:26.558413,-97
17:30:26.558413,-22017
17:30:26.558413,-1
17:30:26.558413,-95
17:30:26.558413,-23297
17:30:26.558413,-1
17:30:26.558413,-83
17:30:26.558413,-22017
17:30:26.558413,-1
17:30:26.558413,-80
17:30:26.558413,-22785
17:30:26.558413,-1
17:30:26.558413,-90
17:30:26.558413,-20993
17:30:26.558413,-1
17:30:26.558413,-92
17:30:26.558413,-22017
17:30:26.558413,-1
17:30:26.558413,-95
17:30:26.558413,-26369
17:30:26.558413,-1
17:30:26.558413,-95
17:30:26.558413,-25089
17:30:26.558413,-1
17:30:26.558413,-95
17:30:26.558413,-22785
17:30:26.558413,-1
17:30:26.558413,-97
17:30:26.558413,-22785
17:30:26.558413,-1
17:30:26.558413,-99
17:30:26.558413,-24065
17:30:26.558413,-1
17:30:26.558413,-80
17:30:26.558413,-23297
17:30:26.558413,-1
17:30:26.558413,-90
17:30:27.097984,-97
17:30:27.097984,-25857
17:30:27.097984,-1
17:30:27.097984,-87
17:30:27.097984,-24577
17:30:27.097984,-1
17:30:27.097984,-95
17:30:27.097984,-22017
17:30:27.097984,-1
17:30:27.097984,-97
17:30:27.097984,-22017
17:30:27.097984,-1
17:30:27.097984,-66
17:30:27.097984,-12289
17:30:27.097984,-1
17:30:27.097984,-78
17:30:27.097984,-28929
17:30:27.097984,-1
17:30:27.097984,-90
17:30:27.097984,-22785
17:30:27.097984,-1
17:30:27.097984,-102
17:30:27.097984,-19713
17:30:27.097984,-1
17:30:27.097984,-83
17:30:27.097984,-24577
17:30:27.097984,-1
17:30:27.097984,-102
17:30:27.097984,-25857
17:30:27.097984,-1
17:30:27.097984,-85
17:30:27.097984,-22017
17:30:27.097984,-1
17:30:27.097984,-83
17:30:27.097984,-17153
17:30:27.097984,-1
17:30:27.097984,-78
17:30:27.097984,-17921
17:30:27.097984,-1
17:30:27.097984,-73
17:30:27.097984,-24065
17:30:27.097984,-1
17:30:27.097984,-90
17:30:27.097984,-22017
17:30:27.097984,-1
17:30:27.097984,-85
17:30:27.097984,-21505
17:30:27.097984,-1
17:30:27.097984,-97
17:30:27.097984,-28161
17:30:27.097984,-1
17:30:27.097984,-156
17:30:27.097984,24063
17:30:27.097984,-1
17:30:27.097984,-45
17:30:27.097984,-23553
17:30:27.097984,0
17:30:27.097984,254
17:30:27.097984,16896
17:30:27.097984,0
17:30:27.097984,-111
17:30:27.097984,-21505
17:30:27.097984,-1
17:30:27.097984,-83
17:30:27.097984,-31233
17:30:27.097984,-1
17:30:27.097984,-106
17:30:27.097984,-25089
17:30:27.097984,-1
17:30:27.097984,-104
17:30:27.097984,-26881
17:30:27.097984,-1
17:30:27.097984,-99
17:30:27.097984,-23297
17:30:27.097984,-1
17:30:27.097984,-102
17:30:27.097984,-22785
17:30:27.097984,-1
17:30:27.097984,-90
17:30:27.097984,-24065
17:30:27.097984,-1
17:30:27.097984,-85
17:30:27.097984,-22017
17:30:27.097984,-1
17:30:27.097984,-83
17:30:27.097984,-19201
17:30:27.097984,-1
17:30:27.097984,-83
17:30:27.097984,-19201
17:30:27.097984,-1
17:30:27.097984,-85
17:30:27.097984,-20993
17:30:27.097984,-1
17:30:27.097984,-68
17:30:27.097984,-20993
17:30:27.097984,-1
17:30:27.097984,-80
17:30:27.097984,-17921
17:30:27.097984,-1
17:30:27.097984,-78
17:30:27.097984,-17153
17:30:27.097984,-1
17:30:27.097984,-76
17:30:27.097984,-20225
17:30:27.097984,-1
17:30:27.097984,-78
17:30:27.097984,-22785
17:30:27.097984,-1
17:30:27.097984,-83
17:30:27.640743,-85
17:30:27.640743,-24065
17:30:27.640743,-1
17:30:27.640743,-87
17:30:27.640743,-22017
17:30:27.640743,-1
17:30:27.640743,-80
17:30:27.640743,-17153
17:30:27.640743,-1
17:30:27.640743,-47
17:30:27.640743,-11777
17:30:27.640743,-1
17:30:27.640743,-78
17:30:27.640743,-16129
17:30:27.640743,-1
17:30:27.640743,-59
17:30:27.640743,-20225
17:30:27.640743,-1
17:30:27.640743,-64
17:30:27.640743,-16641
17:30:27.640743,-1
17:30:27.640743,-73
17:30:27.640743,-14849
17:30:27.640743,-1
17:30:27.640743,-68
17:30:27.640743,-17921
17:30:27.640743,-1
17:30:27.640743,-64
17:30:27.640743,-16129
17:30:27.640743,-1
17:30:27.640743,-52
17:30:27.640743,-13569
17:30:27.640743,-1
17:30:27.640743,-54
17:30:27.640743,-13569
17:30:27.640743,-1
17:30:27.640743,-66
17:30:27.640743,-14337
17:30:27.640743,-1
17:30:27.640743,-59
17:30:27.640743,-15361
17:30:27.640743,-1
17:30:27.640743,-52
17:30:27.640743,-16129
17:30:27.640743,-1
17:30:27.640743,-59
17:30:27.640743,-14849
17:30:27.640743,-1
17:30:27.640743,-73
17:30:27.640743,-16641
17:30:27.640743,-1
17:30:27.640743,-71
17:30:27.640743,-17153
17:30:27.640743,-1
17:30:27.640743,-61
17:30:27.640743,-16641
17:30:27.640743,-1
17:30:27.640743,-45
17:30:27.640743,-10497
17:30:27.640743,-1
17:30:27.640743,-49
17:30:27.640743,-9473
17:30:27.640743,-1
17:30:27.640743,-59
17:30:27.640743,-17153
17:30:27.640743,-1
17:30:27.640743,-68
17:30:27.640743,-17921
17:30:27.640743,-1
17:30:27.640743,-57
17:30:27.640743,-17921
17:30:27.640743,-1
17:30:27.640743,-80
17:30:27.640743,-24065
17:30:27.640743,-1
17:30:27.640743,-137
17:30:27.640743,-32513
17:30:27.640743,-1
17:30:27.640743,-2
17:30:27.640743,-11777
17:30:27.640743,0
17:30:27.640743,259
17:30:27.640743,10240
17:30:27.640743,0
17:30:27.640743,-99
17:30:27.640743,-14849
17:30:27.640743,-1
17:30:27.640743,-59
17:30:27.640743,-25857
17:30:27.640743,-1
17:30:27.640743,-102
17:30:27.640743,-20225
17:30:27.640743,-1
17:30:27.640743,-83
17:30:27.640743,-22785
17:30:27.640743,-1
17:30:27.640743,-68
17:30:27.640743,-19201
17:30:27.640743,-1
17:30:27.640743,-85
17:30:27.640743,-16641
17:30:27.640743,-1
17:30:27.640743,-71
17:30:27.640743,-15361
17:30:27.640743,-1
17:30:27.640743,-54
17:30:27.640743,-16641
17:30:27.640743,-1
17:30:27.640743,-57
17:30:28.271516,-49
17:30:28.271516,-8705
17:30:28.271516,-1
17:30:28.271516,-21
17:30:28.271516,-4609
17:30:28.271516,-1
17:30:28.271516,-11
17:30:28.271516,-11777
17:30:28.271516,-1
17:30:28.271516,-61
17:30:28.271516,-8705
17:30:28.271516,-1
17:30:28.271516,-42
17:30:28.271516,-9473
17:30:28.271516,-1
17:30:28.271516,-35
17:30:28.271516,-13057
17:30:28.271516,-1
17:30:28.271516,-35
17:30:28.271516,-10497
17:30:28.271516,-1
17:30:28.271516,-49
17:30:28.271516,-10497
17:30:28.271516,-1
17:30:28.271516,-61
17:30:28.271516,-14337
17:30:28.271516,-1
17:30:28.271516,-54
17:30:28.271516,-14849
17:30:28.271516,-1
17:30:28.271516,-45
17:30:28.271516,-12289
17:30:28.271516,-1
17:30:28.271516,-49
17:30:28.271516,-10497
17:30:28.271516,-1
17:30:28.271516,-47
17:30:28.271516,-9473
17:30:28.271516,-1
17:30:28.271516,-40
17:30:28.271516,-10497
17:30:28.271516,-1
17:30:28.271516,-40
17:30:28.271516,-13057
17:30:28.271516,-1
17:30:28.271516,-42
17:30:28.271516,-9985
17:30:28.271516,-1
17:30:28.271516,-40
17:30:28.271516,-6401
17:30:28.271516,-1
17:30:28.271516,-38
17:30:28.271516,-8705
17:30:28.271516,-1
17:30:28.271516,-28
17:30:28.271516,-9985
17:30:28.271516,-1
17:30:28.271516,-26
17:30:28.271516,-5633
17:30:28.271516,-1
17:30:28.271516,-33
17:30:28.271516,-6401
17:30:28.271516,-1
17:30:28.271516,-33
17:30:28.271516,-5121
17:30:28.271516,-1
17:30:28.271516,-14
17:30:28.271516,-6401
17:30:28.271516,-1
17:30:28.271516,-23
17:30:28.271516,-6913
17:30:28.271516,-1
17:30:28.271516,-26
17:30:28.271516,-5121
17:30:28.271516,-1
17:30:28.271516,-19
17:30:28.271516,255
17:30:28.271516,0
17:30:28.271516,-4
17:30:28.271516,-769
17:30:28.271516,-1
17:30:28.271516,14
17:30:28.271516,2816
17:30:28.271516,0
17:30:28.271516,19
17:30:28.271516,2304
17:30:28.271516,0
17:30:28.271516,-9
17:30:28.271516,255
17:30:28.271516,0
17:30:28.271516,-2
17:30:28.271516,1279
17:30:28.271516,0
17:30:28.271516,9
17:30:28.271516,-1792
17:30:28.271516,-1
17:30:28.271516,-21
17:30:28.271516,-15361
17:30:28.271516,-1
17:30:28.271516,-59
17:30:28.271516,17151
17:30:28.271516,0
17:30:28.271516,249
17:30:28.271516,7936
17:30:28.271516,1
17:30:28.271516,95
17:30:28.271516,-9728
17:30:28.271516,-1
17:30:28.271516,23
17:30:28.811084,30
17:30:28.811084,-4096
17:30:28.811084,-1
17:30:28.811084,-2
17:30:28.811084,3839
17:30:28.811084,0
17:30:28.811084,14
17:30:28.811084,1024
17:30:28.811084,0
17:30:28.811084,9
17:30:28.811084,4096
17:30:28.811084,0
17:30:28.811084,0
17:30:28.811084,2304
17:30:28.811084,0
17:30:28.811084,19
17:30:28.811084,6656
17:30:28.811084,0
17:30:28.811084,64
17:30:28.811084,14592
17:30:28.811084,0
17:30:28.811084,21
17:30:28.811084,5888
17:30:28.811084,0
17:30:28.811084,28
17:30:28.811084,7680
17:30:28.811084,0
17:30:28.811084,28
17:30:28.811084,7680
17:30:28.811084,0
17:30:28.811084,30
17:30:28.811084,2304
17:30:28.811084,0
17:30:28.811084,19
17:30:28.811084,7680
17:30:28.811084,0
17:30:28.811084,23
17:30:28.811084,7680
17:30:28.811084,0
17:30:28.811084,14
17:30:28.811084,1024
17:30:28.811084,0
17:30:28.811084,2
17:30:28.811084,-2304
17:30:28.811084,-1
17:30:28.811084,-7
17:30:28.811084,-4609
17:30:28.811084,-1
17:30:28.811084,-30
17:30:28.811084,-5633
17:30:28.811084,-1
17:30:28.811084,-33
17:30:28.811084,-7425
17:30:28.811084,-1
17:30:28.811084,-28
17:30:28.811084,-8705
17:30:28.811084,-1
17:30:28.811084,-23
17:30:28.811084,-8705
17:30:28.811084,-1
17:30:28.811084,-45
17:30:28.811084,-8193
17:30:28.811084,-1
17:30:28.811084,-42
17:30:28.811084,-10497
17:30:28.811084,-1
17:30:28.811084,-47
17:30:28.811084,-13057
17:30:28.811084,-1
17:30:28.811084,-49
17:30:28.811084,-14337
17:30:28.811084,-1
17:30:28.811084,-57
17:30:28.811084,-15361
17:30:28.811084,-1
17:30:28.811084,-73
17:30:28.811084,-16129
17:30:28.811084,-1
17:30:28.811084,-68
17:30:28.811084,-16641
17:30:28.811084,-1
17:30:28.811084,-64
17:30:28.811084,-19713
17:30:28.811084,-1
17:30:28.811084,-66
17:30:28.811084,-17921
17:30:28.811084,-1
17:30:28.811084,-83
17:30:28.811084,-16129
17:30:28.811084,-1
17:30:28.811084,-64
17:30:28.811084,-16129
17:30:28.811084,-1
17:30:28.811084,-71
17:30:28.811084,-19713
17:30:28.811084,-1
17:30:28.811084,-64
17:30:28.811084,-19713
17:30:28.811084,-1
17:30:28.811084,-95
17:30:28.811084,-23297
17:30:28.811084,-1
17:30:28.811084,-106
17:30:28.811084,-26369
17:30:28.811084,-1
17:30:28.811084,-109
17:30:28.811084,-30721
17:30:28.811084,-1
17:30:28.811084,-116
17:30:29.351921,-133
17:30:29.351921,25855
17:30:29.351921,-1
17:30:29.351921,-180
17:30:29.351921,29951
17:30:29.351921,-1
17:30:29.351921,11
17:30:29.351921,22272
17:30:29.351921,0
17:30:29.351921,-57
17:30:29.351921,11775
17:30:29.351921,-1
17:30:29.351921,-163
17:30:29.351921,-14849
17:30:29.351921,-1
17:30:29.351921,-99
17:30:29.351921,24063
17:30:29.351921,-1
17:30:29.351921,-137
17:30:29.351921,-32513
17:30:29.351921,-1
17:30:29.351921,-140
17:30:29.351921,31231
17:30:29.351921,-1
17:30:29.351921,-133
17:30:29.351921,-32513
17:30:29.351921,-1
17:30:29.351921,-128
17:30:29.351921,-31745
17:30:29.351921,-1
17:30:29.351921,-121
17:30:29.351921,32511
17:30:29.351921,-1
17:30:29.351921,-118
17:30:29.351921,-29953
17:30:29.351921,-1
17:30:29.351921,-137
17:30:29.351921,-31745
17:30:29.351921,-1
17:30:29.351921,-121
17:30:29.351921,-28161
17:30:29.351921,-1
17:30:29.351921,-121
17:30:29.351921,31231
17:30:29.351921,-1
17:30:29.351921,-106
17:30:29.351921,-25857
17:30:29.351921,-1
17:30:29.351921,-109
17:30:29.351921,-24577
17:30:29.351921,-1
17:30:29.351921,-109
17:30:29.351921,-27649
17:30:29.351921,-1
17:30:29.351921,-114
17:30:29.351921,31743
17:30:29.351921,-1
17:30:29.351921,-133
17:30:29.351921,26879
17:30:29.351921,-1
17:30:29.351921,-159
17:30:29.351921,26367
17:30:29.351921,-1
17:30:29.351921,-166
17:30:29.351921,25087
17:30:29.351921,-1
17:30:29.351921,-159
17:30:29.351921,25087
17:30:29.351921,-1
17:30:29.351921,-147
17:30:29.351921,25087
17:30:29.351921,-1
17:30:29.351921,-147
17:30:29.351921,30719
17:30:29.351921,-1
17:30:29.351921,-147
17:30:29.351921,29439
17:30:29.351921,-1
17:30:29.351921,-156
17:30:29.351921,26879
17:30:29.351921,-1
17:30:29.351921,-140
17:30:29.351921,25855
17:30:29.351921,-1
17:30:29.351921,-154
17:30:29.351921,25855
17:30:29.351921,-1
17:30:29.351921,-168
17:30:29.351921,24575
17:30:29.351921,-1
17:30:29.351921,-168
17:30:29.351921,24063
17:30:29.351921,-1
17:30:29.351921,-159
17:30:29.351921,24063
17:30:29.351921,-1
17:30:29.351921,-149
17:30:29.351921,25087
17:30:29.351921,-1
17:30:29.351921,-156
17:30:29.351921,27647
17:30:29.351921,-1
17:30:29.351921,-171
17:30:29.351921,23295
17:30:29.351921,-1
17:30:29.351921,-168
17:30:29.351921,19711
17:30:29.351921,-1
17:30:29.351921,-178
17:30:29.936430,-185
17:30:29.936430,19711
17:30:29.936430,-1
17:30:29.936430,-204
17:30:29.936430,1535
17:30:29.936430,-1
17:30:29.936430,-240
17:30:29.936430,28159
17:30:29.936430,-1
17:30:29.936430,33
17:30:29.936430,21760
17:30:29.936430,0
17:30:29.936430,-133
17:30:29.936430,3327
17:30:29.936430,-1
17:30:29.936430,-149
17:30:29.936430,32511
17:30:29.936430,-1
17:30:29.936430,-185
17:30:29.936430,17919
17:30:29.936430,-1
17:30:29.936430,-154
17:30:29.936430,23295
17:30:29.936430,-1
17:30:29.936430,-178
17:30:29.936430,28159
17:30:29.936430,-1
17:30:29.936430,-149
17:30:29.936430,25087
17:30:29.936430,-1
17:30:29.936430,-149
17:30:29.936430,26367
17:30:29.936430,-1
17:30:29.936430,-137
17:30:29.936430,32511
17:30:29.936430,-1
17:30:29.936430,-130
17:30:29.936430,-31233
17:30:29.936430,-1
17:30:29.936430,-133
17:30:29.936430,-29953
17:30:29.936430,-1
17:30:29.936430,-111
17:30:29.936430,-29953
17:30:29.936430,-1
17:30:29.936430,-102
17:30:29.936430,-28161
17:30:29.936430,-1
17:30:29.936430,-116
17:30:29.936430,-25089
17:30:29.936430,-1
17:30:29.936430,-104
17:30:29.936430,-22785
17:30:29.936430,-1
17:30:29.936430,-92
17:30:29.936430,-27649
17:30:29.936430,-1
17:30:29.936430,-109
17:30:29.936430,-30721
17:30:29.936430,-1
17:30:29.936430,-121
17:30:29.936430,-29953
17:30:29.936430,-1
17:30:29.936430,-128
17:30:29.936430,-31745
17:30:29.936430,-1
17:30:29.936430,-133
17:30:29.936430,-31745
17:30:29.936430,-1
17:30:29.936430,-102
17:30:29.936430,-24065
17:30:29.936430,-1
17:30:29.936430,-92
17:30:29.936430,-24577
17:30:29.936430,-1
17:30:29.936430,-95
17:30:29.936430,-21505
17:30:29.936430,-1
17:30:29.936430,-99
17:30:29.936430,-22785
17:30:29.936430,-1
17:30:29.936430,-85
17:30:29.936430,-26881
17:30:29.936430,-1
17:30:29.936430,-97
17:30:29.936430,-25857
17:30:29.936430,-1
17:30:29.936430,-106
17:30:29.936430,-24065
17:30:29.936430,-1
17:30:29.936430,-111
17:30:29.936430,-29953
17:30:29.936430,-1
17:30:29.936430,-114
17:30:29.936430,-27649
17:30:29.936430,-1
17:30:29.936430,-90
17:30:29.936430,-22017
17:30:29.936430,-1
17:30:29.936430,-78
17:30:29.936430,-19713
17:30:29.936430,-1
17:30:29.936430,-92
17:30:29.936430,-23297
17:30:29.936430,-1
17:30:29.936430,-106
17:30:29.936430,-24577
17:30:29.936430,-1
17:30:29.936430,-80
17:30:30.477545,-102
17:30:30.477545,-25089
17:30:30.477545,-1
17:30:30.477545,-99
17:30:30.477545,-30721
17:30:30.477545,-1
17:30:30.477545,-142
17:30:30.477545,20991
17:30:30.477545,-1
17:30:30.477545,-121
17:30:30.477545,15359
17:30:30.477545,0
17:30:30.477545,182
17:30:30.477545,21760
17:30:30.477545,0
17:30:30.477545,-80
17:30:30.477545,-20225
17:30:30.477545,-1
17:30:30.477545,-59
17:30:30.477545,-28161
17:30:30.477545,-1
17:30:30.477545,-106
17:30:30.477545,-21505
17:30:30.477545,-1
17:30:30.477545,-92
17:30:30.477545,-21505
17:30:30.477545,-1
17:30:30.477545,-90
17:30:30.477545,-21505
17:30:30.477545,-1
17:30:30.477545,-76
17:30:30.477545,-20993
17:30:30.477545,-1
17:30:30.477545,-73
17:30:30.477545,-20225
17:30:30.477545,-1
17:30:30.477545,-87
17:30:30.477545,-18433
17:30:30.477545,-1
17:30:30.477545,-76
17:30:30.477545,-15361
17:30:30.477545,-1
17:30:30.477545,-61
17:30:30.477545,-19713
17:30:30.477545,-1
17:30:30.477545,-64
17:30:30.477545,-16641
17:30:30.477545,-1
17:30:30.477545,-61
17:30:30.477545,-13569
17:30:30.477545,-1
17:30:30.477545,-64
17:30:30.477545,-14337
17:30:30.477545,-1
17:30:30.477545,-66
17:30:30.477545,-21505
17:30:30.477545,-1
17:30:30.477545,-73
17:30:30.477545,-18433
17:30:30.477545,-1
17:30:30.477545,-78
17:30:30.477545,-24065
17:30:30.477545,-1
17:30:30.477545,-109
17:30:30.477545,-26369
17:30:30.477545,-1
17:30:30.477545,-114
17:30:30.477545,-26881
17:30:30.477545,-1
17:30:30.477545,-95
17:30:30.477545,-27649
17:30:30.477545,-1
17:30:30.477545,-104
17:30:30.477545,-26881
17:30:30.477545,-1
17:30:30.477545,-102
17:30:30.477545,-21505
17:30:30.477545,-1
17:30:30.477545,-95
17:30:30.477545,-23297
17:30:30.477545,-1
17:30:30.477545,-92
17:30:30.477545,-25089
17:30:30.477545,-1
17:30:30.477545,-83
17:30:30.477545,-23297
17:30:30.477545,-1
17:30:30.477545,-95
17:30:30.477545,-23297
17:30:30.477545,-1
17:30:30.477545,-109
17:30:30.477545,-24577
17:30:30.477545,-1
17:30:30.477545,-87
17:30:30.477545,-22017
17:30:30.477545,-1
17:30:30.477545,-76
17:30:30.477545,-20993
17:30:30.477545,-1
17:30:30.477545,-76
17:30:30.477545,-18433
17:30:30.477545,-1
17:30:30.477545,-85
17:30:30.477545,-20225
17:30:30.477545,-1
17:30:30.477545,-95
17:30:30.477545,-23297
17:30:30.477545,-1
17:30:30.477545,-83
17:30:31.017537,-95
17:30:31.017537,-22017
17:30:31.017537,-1
17:30:31.017537,-99
17:30:31.017537,-31233
17:30:31.017537,-1
17:30:31.017537,-152
17:30:31.017537,20223
17:30:31.017537,-1
17:30:31.017537,-57
17:30:31.017537,-15617
17:30:31.017537,0
17:30:31.017537,275
17:30:31.017537,16384
17:30:31.017537,0
17:30:31.017537,-125
17:30:31.017537,-21505
17:30:31.017537,-1
17:30:31.017537,-64
17:30:31.017537,31743
17:30:31.017537,-1
17:30:31.017537,-111
17:30:31.017537,-20993
17:30:31.017537,-1
17:30:31.017537,-102
17:30:31.017537,-22785
17:30:31.017537,-1
17:30:31.017537,-73
17:30:31.017537,-14849
17:30:31.017537,-1
17:30:31.017537,-57
17:30:31.017537,-16129
17:30:31.017537,-1
17:30:31.017537,-54
17:30:31.017537,-17153
17:30:31.017537,-1
17:30:31.017537,-68
17:30:31.017537,-13057
17:30:31.017537,-1
17:30:31.017537,-68
17:30:31.017537,-14849
17:30:31.017537,-1
17:30:31.017537,-52
17:30:31.017537,-14849
17:30:31.017537,-1
17:30:31.017537,-42
17:30:31.017537,-9985
17:30:31.017537,-1
17:30:31.017537,-35
17:30:31.017537,-10497
17:30:31.017537,-1
17:30:31.017537,-57
17:30:31.017537,-10497
17:30:31.017537,-1
17:30:31.017537,-59
17:30:31.017537,-17921
17:30:31.017537,-1
17:30:31.017537,-71
17:30:31.017537,-22785
17:30:31.017537,-1
17:30:31.017537,-85
17:30:31.017537,-24065
17:30:31.017537,-1
17:30:31.017537,-114
17:30:31.017537,-27649
17:30:31.017537,-1
17:30:31.017537,-118
17:30:31.017537,-26881
17:30:31.017537,-1
17:30:31.017537,-97
17:30:31.017537,-26881
17:30:31.017537,-1
17:30:31.017537,-90
17:30:31.017537,-23297
17:30:31.017537,-1
17:30:31.017537,-95
17:30:31.017537,-21505
17:30:31.017537,-1
17:30:31.017537,-97
17:30:31.017537,-24065
17:30:31.017537,-1
17:30:31.017537,-92
17:30:31.017537,-23297
17:30:31.017537,-1
17:30:31.017537,-80
17:30:31.017537,-23297
17:30:31.017537,-1
17:30:31.017537,-92
17:30:31.017537,-21505
17:30:31.017537,-1
17:30:31.017537,-90
17:30:31.017537,-19713
17:30:31.017537,-1
17:30:31.017537,-78
17:30:31.017537,-17921
17:30:31.017537,-1
17:30:31.017537,-57
17:30:31.017537,-17921
17:30:31.017537,-1
17:30:31.017537,-71
17:30:31.017537,-20993
17:30:31.017537,-1
17:30:31.017537,-97
17:30:31.017537,-20993
17:30:31.017537,-1
17:30:31.017537,-87
17:30:31.017537,-22785
17:30:31.017537,-1
17:30:31.017537,-83
17:30:31.598143,-97
17:30:31.598143,-28161
17:30:31.598143,-1
17:30:31.598143,-149
17:30:31.598143,24063
17:30:31.598143,-1
17:30:31.598143,-47
17:30:31.598143,-22273
17:30:31.598143,0
17:30:31.598143,249
17:30:31.598143,15616
17:30:31.598143,0
17:30:31.598143,-99
17:30:31.598143,-15361
17:30:31.598143,-1
17:30:31.598143,-52
17:30:31.598143,-24577
17:30:31.598143,-1
17:30:31.598143,-95
17:30:31.598143,-20225
17:30:31.598143,-1
17:30:31.598143,-78
17:30:31.598143,-20993
17:30:31.598143,-1
17:30:31.598143,-73
17:30:31.598143,-17153
17:30:31.598143,-1
17:30:31.598143,-85
17:30:31.598143,-17921
17:30:31.598143,-1
17:30:31.598143,-64
17:30:31.598143,-18433
17:30:31.598143,-1
17:30:31.598143,-61
17:30:31.598143,-14849
17:30:31.598143,-1
17:30:31.598143,-47
17:30:31.598143,-9985
17:30:31.598143,-1
17:30:31.598143,-54
17:30:31.598143,-10497
17:30:31.598143,-1
17:30:31.598143,-45
17:30:31.598143,-13057
17:30:31.598143,-1
17:30:31.598143,-45
17:30:31.598143,-13057
17:30:31.598143,-1
17:30:31.598143,-45
17:30:31.598143,-10497
17:30:31.598143,-1
17:30:31.598143,-49
17:30:31.598143,-10497
17:30:31.598143,-1
17:30:31.598143,-49
17:30:31.598143,-13057
17:30:31.598143,-1
17:30:31.598143,-49
17:30:31.598143,-13569
17:30:31.598143,-1
17:30:31.598143,-54
17:30:31.598143,-17153
17:30:31.598143,-1
17:30:31.598143,-68
17:30:31.598143,-13569
17:30:31.598143,-1
17:30:31.598143,-61
17:30:31.598143,-13569
17:30:31.598143,-1
17:30:31.598143,-52
17:30:31.598143,-14849
17:30:31.598143,-1
17:30:31.598143,-49
17:30:31.598143,-13569
17:30:31.598143,-1
17:30:31.598143,-49
17:30:31.598143,-10497
17:30:31.598143,-1
17:30:31.598143,-57
17:30:31.598143,-12289
17:30:31.598143,-1
17:30:31.598143,-45
17:30:31.598143,-11777
17:30:31.598143,-1
17:30:31.598143,-47
17:30:31.598143,-14849
17:30:31.598143,-1
17:30:31.598143,-54
17:30:31.598143,-11777
17:30:31.598143,-1
17:30:31.598143,-45
17:30:31.598143,-7425
17:30:31.598143,-1
17:30:31.598143,-33
17:30:31.598143,-7425
17:30:31.598143,-1
17:30:31.598143,-35
17:30:31.598143,-16641
17:30:31.598143,-1
17:30:31.598143,-59
17:30:31.598143,-13057
17:30:31.598143,-1
17:30:31.598143,-57
17:30:31.598143,-12289
17:30:31.598143,-1
17:30:31.598143,-64
17:30:31.598143,-16129
17:30:31.598143,-1
17:30:31.598143,-80
17:30:32.186475,-135
17:30:32.186475,30719
17:30:32.186475,-1
17:30:32.186475,-30
17:30:32.186475,-14849
17:30:32.186475,0
17:30:32.186475,306
17:30:32.186475,29184
17:30:32.186475,0
17:30:32.186475,-71
17:30:32.186475,-10497
17:30:32.186475,-1
17:30:32.186475,0
17:30:32.186475,-16384
17:30:32.186475,-1
17:30:32.186475,-102
17:30:32.186475,-14337
17:30:32.186475,-1
17:30:32.186475,-49
17:30:32.186475,-16129
17:30:32.186475,-1
17:30:32.186475,-38
17:30:32.186475,-11777
17:30:32.186475,-1
17:30:32.186475,-52
17:30:32.186475,-7425
17:30:32.186475,-1
17:30:32.186475,-42
17:30:32.186475,-10497
17:30:32.186475,-1
17:30:32.186475,-35
17:30:32.186475,-11777
17:30:32.186475,-1
17:30:32.186475,-42
17:30:32.186475,-10497
17:30:32.186475,-1
17:30:32.186475,-35
17:30:32.186475,-7425
17:30:32.186475,-1
17:30:32.186475,-40
17:30:32.186475,-8705
17:30:32.186475,-1
17:30:32.186475,-40
17:30:32.186475,-9985
17:30:32.186475,-1
17:30:32.186475,-33
17:30:32.186475,-8705
17:30:32.186475,-1
17:30:32.186475,-28
17:30:32.186475,-9473
17:30:32.186475,-1
17:30:32.186475,-45
17:30:32.186475,-9473
17:30:32.186475,-1
17:30:32.186475,-47
17:30:32.186475,-10497
17:30:32.186475,-1
17:30:32.186475,-40
17:30:32.186475,-13569
17:30:32.186475,-1
17:30:32.186475,-42
17:30:32.186475,-11265
17:30:32.186475,-1
17:30:32.186475,-45
17:30:32.186475,-8705
17:30:32.186475,-1
17:30:32.186475,-49
17:30:32.186475,-11265
17:30:32.186475,-1
17:30:32.186475,-38
17:30:32.186475,-10497
17:30:32.186475,-1
17:30:32.186475,-38
17:30:32.186475,-10497
17:30:32.186475,-1
17:30:32.186475,-42
17:30:32.186475,-11265
17:30:32.186475,-1
17:30:32.186475,-52
17:30:32.186475,-9985
17:30:32.186475,-1
17:30:32.186475,-45
17:30:32.186475,-11777
17:30:32.186475,-1
17:30:32.186475,-40
17:30:32.186475,-14337
17:30:32.186475,-1
17:30:32.186475,-54
17:30:32.186475,-13569
17:30:32.186475,-1
17:30:32.186475,-52
17:30:32.186475,-8193
17:30:32.186475,-1
17:30:32.186475,-38
17:30:32.186475,-9473
17:30:32.186475,-1
17:30:32.186475,-35
17:30:32.186475,-10497
17:30:32.186475,-1
17:30:32.186475,-35
17:30:32.186475,-11777
17:30:32.186475,-1
17:30:32.186475,-57
17:30:32.186475,-12289
17:30:32.186475,-1
17:30:32.186475,-59
17:30:32.186475,-12289
17:30:32.186475,-1
17:30:32.186475,-49
17:30:32.726219,-64
17:30:32.726219,-22017
17:30:32.726219,-1
17:30:32.726219,-133
17:30:32.726219,-22017
17:30:32.726219,-1
17:30:32.726219,109
17:30:32.726219,13312
17:30:32.726219,1
17:30:32.726219,261
17:30:32.726219,1024
17:30:32.726219,0
17:30:32.726219,-87
17:30:32.726219,-2561
17:30:32.726219,-1
17:30:32.726219,-4
17:30:32.726219,-3841
17:30:32.726219,-1
17:30:32.726219,-23
17:30:32.726219,-13057
17:30:32.726219,-1
17:30:32.726219,-47
17:30:32.726219,-9985
17:30:32.726219,-1
17:30:32.726219,-35
17:30:32.726219,-8193
17:30:32.726219,-1
17:30:32.726219,-38
17:30:32.726219,-6913
17:30:32.726219,-1
17:30:32.726219,-33
17:30:32.726219,-8193
17:30:32.726219,-1
17:30:32.726219,-19
17:30:32.726219,-6401
17:30:32.726219,-1
17:30:32.726219,-21
17:30:32.726219,-3841
17:30:32.726219,-1
17:30:32.726219,-26
17:30:32.726219,-3841
17:30:32.726219,-1
17:30:32.726219,-19
17:30:32.726219,-5121
17:30:32.726219,-1
17:30:32.726219,-21
17:30:32.726219,-7425
17:30:32.726219,-1
17:30:32.726219,-21
17:30:32.726219,-5633
17:30:32.726219,-1
17:30:32.726219,-19
17:30:32.726219,-2049
17:30:32.726219,-1
17:30:32.726219,-21
17:30:32.726219,-2561
17:30:32.726219,-1
17:30:32.726219,-14
17:30:32.726219,-7425
17:30:32.726219,-1
17:30:32.726219,-19
17:30:32.726219,-5633
17:30:32.726219,-1
17:30:32.726219,-26
17:30:32.726219,-3329
17:30:32.726219,-1
17:30:32.726219,-19
17:30:32.726219,-2561
17:30:32.726219,-1
17:30:32.726219,-14
17:30:32.726219,-3841
17:30:32.726219,-1
17:30:32.726219,-4
17:30:32.726219,-3329
17:30:32.726219,-1
17:30:32.726219,-16
17:30:32.726219,-3329
17:30:32.726219,-1
17:30:32.726219,-16
17:30:32.726219,-769
17:30:32.726219,-1
17:30:32.726219,-16
17:30:32.726219,-3841
17:30:32.726219,-1
17:30:32.726219,-14
17:30:32.726219,-5121
17:30:32.726219,-1
17:30:32.726219,-11
17:30:32.726219,-3329
17:30:32.726219,-1
17:30:32.726219,-16
17:30:32.726219,-769
17:30:32.726219,-1
17:30:32.726219,-16
17:30:32.726219,-2049
17:30:32.726219,-1
17:30:32.726219,-7
17:30:32.726219,-5633
17:30:32.726219,-1
17:30:32.726219,-9
17:30:32.726219,-769
17:30:32.726219,-1
17:30:32.726219,-7
17:30:32.726219,-257
17:30:32.726219,-1
17:30:32.726219,-7
17:30:32.726219,-257
17:30:32.726219,-1
17:30:32.726219,-11
17:30:33.267606,-28
17:30:33.267606,-6401
17:30:33.267606,-1
17:30:33.267606,-26
17:30:33.267606,-5121
17:30:33.267606,-1
17:30:33.267606,-33
17:30:33.267606,-9985
17:30:33.267606,-1
17:30:33.267606,-28
17:30:33.267606,-11777
17:30:33.267606,-1
17:30:33.267606,-57
17:30:33.267606,-14337
17:30:33.267606,-1
17:30:33.267606,0
17:30:33.267606,-8448
17:30:33.267606,0
17:30:33.267606,327
17:30:33.267606,31488
17:30:33.267606,0
17:30:33.267606,-52
17:30:33.267606,-8705
17:30:33.267606,-1
17:30:33.267606,-14
17:30:33.267606,-14849
17:30:33.267606,-1
17:30:33.267606,-64
17:30:33.267606,-7425
17:30:33.267606,-1
17:30:33.267606,-45
17:30:33.267606,-13569
17:30:33.267606,-1
17:30:33.267606,-38
17:30:33.267606,-11265
17:30:33.267606,-1
17:30:33.267606,-35
17:30:33.267606,-6401
17:30:33.267606,-1
17:30:33.267606,-28
17:30:33.267606,-4609
17:30:33.267606,-1
17:30:33.267606,-19
17:30:33.267606,-1537
17:30:33.267606,-1
17:30:33.267606,-7
17:30:33.267606,-3841
17:30:33.267606,-1
17:30:33.267606,-4
17:30:33.267606,-3329
17:30:33.267606,-1
17:30:33.267606,-19
17:30:33.267606,-769
17:30:33.267606,-1
17:30:33.267606,-14
17:30:33.267606,-1537
17:30:33.267606,-1
17:30:33.267606,-4
17:30:33.267606,-2049
17:30:33.267606,-1
17:30:33.267606,2
17:30:33.267606,0
17:30:33.267606,0
17:30:33.267606,9
17:30:33.267606,3584
17:30:33.267606,0
17:30:33.267606,2
17:30:33.267606,1024
17:30:33.267606,0
17:30:33.267606,-7
17:30:33.267606,-769
17:30:33.267606,-1
17:30:33.267606,7
17:30:33.267606,-1792
17:30:33.267606,-1
17:30:33.267606,-2
17:30:33.267606,255
17:30:33.267606,0
17:30:33.267606,-4
17:30:33.267606,1279
17:30:33.267606,0
17:30:33.267606,-2
17:30:33.267606,255
17:30:33.267606,0
17:30:33.267606,0
17:30:33.267606,-2304
17:30:33.267606,-1
17:30:33.267606,0
17:30:33.267606,0
17:30:33.267606,0
17:30:33.267606,2
17:30:33.267606,1024
17:30:33.267606,0
17:30:33.267606,-14
17:30:33.267606,-1537
17:30:33.267606,-1
17:30:33.267606,-4
17:30:33.267606,-3329
17:30:33.267606,-1
17:30:33.267606,-4
17:30:33.267606,-2561
17:30:33.267606,-1
17:30:33.267606,-4
17:30:33.267606,-1537
17:30:33.267606,-1
17:30:33.267606,-26
17:30:33.267606,-2049
17:30:33.267606,-1
17:30:33.267606,-7
17:30:33.851741,-19
17:30:33.851741,-4609
17:30:33.851741,-1
17:30:33.851741,-23
17:30:33.851741,-3841
17:30:33.851741,-1
17:30:33.851741,-14
17:30:33.851741,3071
17:30:33.851741,0
17:30:33.851741,38
17:30:33.851741,-1024
17:30:33.851741,-1
17:30:33.851741,-16
17:30:33.851741,3071
17:30:33.851741,0
17:30:33.851741,0
17:30:33.851741,-2304
17:30:33.851741,-1
17:30:33.851741,-23
17:30:33.851741,-6401
17:30:33.851741,-1
17:30:33.851741,-19
17:30:33.851741,-8193
17:30:33.851741,-1
17:30:33.851741,-21
17:30:33.851741,-4609
17:30:33.851741,-1
17:30:33.851741,-59
17:30:33.851741,-19713
17:30:33.851741,-1
17:30:33.851741,-64
17:30:33.851741,8703
17:30:33.851741,0
17:30:33.851741,225
17:30:33.851741,11520
17:30:33.851741,1
17:30:33.851741,130
17:30:33.851741,-8960
17:30:33.851741,-1
17:30:33.851741,16
17:30:33.851741,19456
17:30:33.851741,0
17:30:33.851741,38
17:30:33.851741,12544
17:30:33.851741,0
17:30:33.851741,61
17:30:33.851741,8448
17:30:33.851741,0
17:30:33.851741,33
17:30:33.851741,8448
17:30:33.851741,0
17:30:33.851741,40
17:30:33.851741,12544
17:30:33.851741,0
17:30:33.851741,40
17:30:33.851741,14592
17:30:33.851741,0
17:30:33.851741,64
17:30:33.851741,17408
17:30:33.851741,0
17:30:33.851741,87
17:30:33.851741,22272
17:30:33.851741,0
17:30:33.851741,90
17:30:33.851741,26112
17:30:33.851741,0
17:30:33.851741,106
17:30:33.851741,30208
17:30:33.851741,0
17:30:33.851741,121
17:30:33.851741,-30976
17:30:33.851741,0
17:30:33.851741,140
17:30:33.851741,31488
17:30:33.851741,0
17:30:33.851741,135
17:30:33.851741,-29696
17:30:33.851741,0
17:30:33.851741,142
17:30:33.851741,-28672
17:30:33.851741,0
17:30:33.851741,130
17:30:33.851741,-30976
17:30:33.851741,0
17:30:33.851741,121
17:30:33.851741,25344
17:30:33.851741,0
17:30:33.851741,123
17:30:33.851741,-30464
17:30:33.851741,0
17:30:33.851741,156
17:30:33.851741,-19456
17:30:33.851741,0
17:30:33.851741,166
17:30:33.851741,-23040
17:30:33.851741,0
17:30:33.851741,166
17:30:33.851741,-26624
17:30:33.851741,0
17:30:33.851741,149
17:30:33.851741,-30976
17:30:33.851741,0
17:30:33.851741,133
17:30:33.851741,-29696
17:30:33.851741,0
17:30:33.851741,137
17:30:33.851741,-27904
17:30:33.851741,0
17:30:33.851741,142
17:30:34.390934,144
17:30:34.390934,-28672
17:30:34.390934,0
17:30:34.390934,137
17:30:34.390934,-24320
17:30:34.390934,0
17:30:34.390934,163
17:30:34.390934,-27904
17:30:34.390934,0
17:30:34.390934,159
17:30:34.390934,-24320
17:30:34.390934,0
17:30:34.390934,187
17:30:34.390934,-12800
17:30:34.390934,0
17:30:34.390934,161
17:30:34.390934,-30464
17:30:34.390934,0
17:30:34.390934,144
17:30:34.390934,-26624
17:30:34.390934,0
17:30:34.390934,159
17:30:34.390934,-26112
17:30:34.390934,0
17:30:34.390934,161
17:30:34.390934,-26112
17:30:34.390934,0
17:30:34.390934,149
17:30:34.390934,-23808
17:30:34.390934,0
17:30:34.390934,159
17:30:34.390934,-24832
17:30:34.390934,0
17:30:34.390934,156
17:30:34.390934,-29696
17:30:34.390934,0
17:30:34.390934,142
17:30:34.390934,29184
17:30:34.390934,0
17:30:34.390934,66
17:30:34.390934,14592
17:30:34.390934,0
17:30:34.390934,111
17:30:34.390934,-512
17:30:34.390934,0
17:30:34.390934,301
17:30:34.390934,32000
17:30:34.390934,0
17:30:34.390934,-14
17:30:34.390934,-1537
17:30:34.390934,-1
17:30:34.390934,-14
17:30:34.390934,-15361
17:30:34.390934,-1
17:30:34.390934,-66
17:30:34.390934,-10497
17:30:34.390934,-1
17:30:34.390934,-66
17:30:34.390934,-19201
17:30:34.390934,-1
17:30:34.390934,-61
17:30:34.390934,-19713
17:30:34.390934,-1
17:30:34.390934,-80
17:30:34.390934,-20225
17:30:34.390934,-1
17:30:34.390934,-97
17:30:34.390934,-24577
17:30:34.390934,-1
17:30:34.390934,-95
17:30:34.390934,-26881
17:30:34.390934,-1
17:30:34.390934,-114
17:30:34.390934,-28161
17:30:34.390934,-1
17:30:34.390934,-106
17:30:34.390934,-29441
17:30:34.390934,-1
17:30:34.390934,-116
17:30:34.390934,-29953
17:30:34.390934,-1
17:30:34.390934,-140
17:30:34.390934,29951
17:30:34.390934,-1
17:30:34.390934,-147
17:30:34.390934,25087
17:30:34.390934,-1
17:30:34.390934,-154
17:30:34.390934,24063
17:30:34.390934,-1
17:30:34.390934,-168
17:30:34.390934,21503
17:30:34.390934,-1
17:30:34.390934,-199
17:30:34.390934,13055
17:30:34.390934,-1
17:30:34.390934,-213
17:30:34.390934,8191
17:30:34.390934,-1
17:30:34.390934,-225
17:30:34.390934,6399
17:30:34.390934,-1
17:30:34.390934,-230
17:30:34.390934,6399
17:30:34.390934,-1
17:30:34.390934,-235
17:30:34.390934,8191
17:30:34.390934,-1
17:30:34.390934,-228
17:30:34.976632,-225
17:30:34.976632,8703
17:30:34.976632,-1
17:30:34.976632,-235
17:30:34.976632,5631
17:30:34.976632,-1
17:30:34.976632,-244
17:30:34.976632,6911
17:30:34.976632,-1
17:30:34.976632,-197
17:30:34.976632,8191
17:30:34.976632,-1
17:30:34.976632,-251
17:30:34.976632,2559
17:30:34.976632,-1
17:30:34.976632,-247
17:30:34.976632,2559
17:30:34.976632,-1
17:30:34.976632,-249
17:30:34.976632,3839
17:30:34.976632,-1
17:30:34.976632,-237
17:30:34.976632,2047
17:30:34.976632,-1
17:30:34.976632,-242
17:30:34.976632,3327
17:30:34.976632,-1
17:30:34.976632,-261
17:30:34.976632,-4609
17:30:34.976632,-2
17:30:34.976632,-285
17:30:34.976632,-3329
17:30:34.976632,-2
17:30:34.976632,-268
17:30:34.976632,-7169
17:30:34.976632,-2
17:30:34.976632,-285
17:30:34.976632,-10241
17:30:34.976632,-2
17:30:34.976632,-313
17:30:34.976632,-20993
17:30:34.976632,-2
17:30:34.976632,-346
17:30:34.976632,6911
17:30:34.976632,-1
17:30:34.976632,-59
17:30:34.976632,-14849
17:30:34.976632,-1
17:30:34.976632,-256
17:30:34.976632,-24065
17:30:34.976632,-2
17:30:34.976632,-251
17:30:34.976632,2047
17:30:34.976632,-1
17:30:34.976632,-327
17:30:34.976632,-10753
17:30:34.976632,-2
17:30:34.976632,-278
17:30:34.976632,-9473
17:30:34.976632,-2
17:30:34.976632,-289
17:30:34.976632,-6401
17:30:34.976632,-2
17:30:34.976632,-273
17:30:34.976632,-4097
17:30:34.976632,-2
17:30:34.976632,-263
17:30:34.976632,4351
17:30:34.976632,-1
17:30:34.976632,-249
17:30:34.976632,767
17:30:34.976632,-1
17:30:34.976632,-249
17:30:34.976632,3327
17:30:34.976632,-1
17:30:34.976632,-230
17:30:34.976632,5631
17:30:34.976632,-1
17:30:34.976632,-230
17:30:34.976632,8703
17:30:34.976632,-1
17:30:34.976632,-230
17:30:34.976632,11263
17:30:34.976632,-1
17:30:34.976632,-209
17:30:34.976632,9983
17:30:34.976632,-1
17:30:34.976632,-204
17:30:34.976632,13567
17:30:34.976632,-1
17:30:34.976632,-201
17:30:34.976632,13055
17:30:34.976632,-1
17:30:34.976632,-209
17:30:34.976632,13567
17:30:34.976632,-1
17:30:34.976632,-213
17:30:34.976632,13567
17:30:34.976632,-1
17:30:34.976632,-192
17:30:34.976632,13567
17:30:34.976632,-1
17:30:34.976632,-187
17:30:34.976632,19199
17:30:34.976632,-1
17:30:34.976632,-185
17:30:34.976632,20223
17:30:34.976632,-1
17:30:34.976632,-192
17:30:35.562325,-180
17:30:35.562325,24063
17:30:35.562325,-1
17:30:35.562325,-166
17:30:35.562325,24575
17:30:35.562325,-1
17:30:35.562325,-168
17:30:35.562325,25855
17:30:35.562325,-1
17:30:35.562325,-147
17:30:35.562325,26367
17:30:35.562325,-1
17:30:35.562325,-125
17:30:35.562325,-24577
17:30:35.562325,-1
17:30:35.562325,-104
17:30:35.562325,32511
17:30:35.562325,-1
17:30:35.562325,-128
17:30:35.562325,-22017
17:30:35.562325,-1
17:30:35.562325,-78
17:30:35.562325,-20225
17:30:35.562325,-1
17:30:35.562325,-64
17:30:35.562325,-16641
17:30:35.562325,-1
17:30:35.562325,-54
17:30:35.562325,-11777
17:30:35.562325,-1
17:30:35.562325,-64
17:30:35.562325,-13569
17:30:35.562325,-1
17:30:35.562325,-57
17:30:35.562325,-14337
17:30:35.562325,-1
17:30:35.562325,-38
17:30:35.562325,-9473
17:30:35.562325,-1
17:30:35.562325,-35
17:30:35.562325,-14337
17:30:35.562325,-1
17:30:35.562325,-104
17:30:35.562325,-22017
17:30:35.562325,-1
17:30:35.562325,30
17:30:35.562325,-8448
17:30:35.562325,0
17:30:35.562325,259
17:30:35.562325,12032
17:30:35.562325,0
17:30:35.562325,-73
17:30:35.562325,-8193
17:30:35.562325,-1
17:30:35.562325,-30
17:30:35.562325,-15361
17:30:35.562325,-1
17:30:35.562325,-52
17:30:35.562325,-9473
17:30:35.562325,-1
17:30:35.562325,-71
17:30:35.562325,-21505
17:30:35.562325,-1
17:30:35.562325,-64
17:30:35.562325,-16129
17:30:35.562325,-1
17:30:35.562325,-64
17:30:35.562325,-16129
17:30:35.562325,-1
17:30:35.562325,-85
17:30:35.562325,-18433
17:30:35.562325,-1
17:30:35.562325,-68
17:30:35.562325,-19201
17:30:35.562325,-1
17:30:35.562325,-80
17:30:35.562325,-26369
17:30:35.562325,-1
17:30:35.562325,-109
17:30:35.562325,-26881
17:30:35.562325,-1
17:30:35.562325,-118
17:30:35.562325,-29441
17:30:35.562325,-1
17:30:35.562325,-111
17:30:35.562325,-27649
17:30:35.562325,-1
17:30:35.562325,-125
17:30:35.562325,28927
17:30:35.562325,-1
17:30:35.562325,-114
17:30:35.562325,-26881
17:30:35.562325,-1
17:30:35.562325,-137
17:30:35.562325,27647
17:30:35.562325,-1
17:30:35.562325,-152
17:30:35.562325,27647
17:30:35.562325,-1
17:30:35.562325,-166
17:30:35.562325,22015
17:30:35.562325,-1
17:30:35.562325,-163
17:30:35.562325,17151
17:30:35.562325,-1
17:30:35.562325,-206
17:30:35.562325,16127
17:30:35.562325,-1
17:30:35.562325,-194
17:30:36.102673,-180
17:30:36.102673,17919
17:30:36.102673,-1
17:30:36.102673,-213
17:30:36.102673,13567
17:30:36.102673,-1
17:30:36.102673,-201
17:30:36.102673,13567
17:30:36.102673,-1
17:30:36.102673,-199
17:30:36.102673,14847
17:30:36.102673,-1
17:30:36.102673,-199
17:30:36.102673,15359
17:30:36.102673,-1
17:30:36.102673,-173
17:30:36.102673,25855
17:30:36.102673,-1
17:30:36.102673,-135
17:30:36.102673,-29953
17:30:36.102673,-1
17:30:36.102673,-163
17:30:36.102673,19199
17:30:36.102673,-1
17:30:36.102673,-168
17:30:36.102673,13567
17:30:36.102673,-1
17:30:36.102673,-220
17:30:36.102673,8191
17:30:36.102673,-1
17:30:36.102673,-242
17:30:36.102673,8191
17:30:36.102673,-1
17:30:36.102673,-237
17:30:36.102673,-1537
17:30:36.102673,-2
17:30:36.102673,-285
17:30:36.102673,-19201
17:30:36.102673,-2
17:30:36.102673,-358
17:30:36.102673,-17921
17:30:36.102673,-2
17:30:36.102673,-211
17:30:36.102673,-31233
17:30:36.102673,-1
17:30:36.102673,-270
17:30:36.102673,20223
17:30:36.102673,-2
17:30:36.102673,-408
17:30:36.102673,-32001
17:30:36.102673,-2
17:30:36.102673,-422
17:30:36.102673,17151
17:30:36.102673,-2
17:30:36.102673,-432
17:30:36.102673,19455
17:30:36.102673,-2
17:30:36.102673,-463
17:30:36.102673,15359
17:30:36.102673,-2
17:30:36.102673,-456
17:30:36.102673,12799
17:30:36.102673,-2
17:30:36.102673,-456
17:30:36.102673,7935
17:30:36.102673,-2
17:30:36.102673,-480
17:30:36.102673,14079
17:30:36.102673,-2
17:30:36.102673,-465
17:30:36.102673,17663
17:30:36.102673,-2
17:30:36.102673,-427
17:30:36.102673,23807
17:30:36.102673,-2
17:30:36.102673,-418
17:30:36.102673,21247
17:30:36.102673,-2
17:30:36.102673,-420
17:30:36.102673,24319
17:30:36.102673,-2
17:30:36.102673,-413
17:30:36.102673,30975
17:30:36.102673,-2
17:30:36.102673,-406
17:30:36.102673,30975
17:30:36.102673,-2
17:30:36.102673,-354
17:30:36.102673,-19201
17:30:36.102673,-2
17:30:36.102673,-297
17:30:36.102673,-8961
17:30:36.102673,-2
17:30:36.102673,-294
17:30:36.102673,-2305
17:30:36.102673,-2
17:30:36.102673,-228
17:30:36.102673,26879
17:30:36.102673,-1
17:30:36.102673,-111
17:30:36.102673,-25857
17:30:36.102673,-1
17:30:36.102673,-9
17:30:36.102673,31231
17:30:36.102673,0
17:30:36.102673,240
17:30:36.102673,23808
17:30:36.102673,1
17:30:36.102673,491
17:30:36.642308,622
17:30:36.642308,25856
17:30:36.642308,2
17:30:36.642308,582
17:30:36.642308,15360
17:30:36.642308,2
17:30:36.642308,508
17:30:36.642308,-5888
17:30:36.642308,1
17:30:36.642308,501
17:30:36.642308,3328
17:30:36.642308,2
17:30:36.642308,601
17:30:36.642308,-28928
17:30:36.642308,2
17:30:36.642308,701
17:30:36.642308,-17152
17:30:36.642308,2
17:30:36.642308,684
17:30:36.642308,-14336
17:30:36.642308,2
17:30:36.642308,684
17:30:36.642308,-27648
17:30:36.642308,2
17:30:36.642308,677
17:30:36.642308,-27136
17:30:36.642308,2
17:30:36.642308,651
17:30:36.642308,28160
17:30:36.642308,2
17:30:36.642308,591
17:30:36.642308,18432
17:30:36.642308,2
17:30:36.642308,539
17:30:36.642308,-1536
17:30:36.642308,1
17:30:36.642308,484
17:30:36.642308,-8192
17:30:36.642308,1
17:30:36.642308,620
17:30:36.642308,256
17:30:36.642308,3
17:30:36.642308,691
17:30:36.642308,-7680
17:30:36.642308,1
17:30:36.642308,403
17:30:36.642308,-18688
17:30:36.642308,1
17:30:36.642308,384
17:30:36.642308,19456
17:30:36.642308,1
17:30:36.642308,356
17:30:36.642308,18176
17:30:36.642308,1
17:30:36.642308,289
17:30:36.642308,5632
17:30:36.642308,1
17:30:36.642308,259
17:30:36.642308,0
17:30:36.642308,1
17:30:36.642308,225
17:30:36.642308,-16384
17:30:36.642308,0
17:30:36.642308,178
17:30:36.642308,-30464
17:30:36.642308,0
17:30:36.642308,128
17:30:36.642308,27904
17:30:36.642308,0
17:30:36.642308,66
17:30:36.642308,15616
17:30:36.642308,0
17:30:36.642308,59
17:30:36.642308,14592
17:30:36.642308,0
17:30:36.642308,54
17:30:36.642308,8960
17:30:36.642308,0
17:30:36.642308,38
17:30:36.642308,5888
17:30:36.642308,0
17:30:36.642308,9
17:30:36.642308,1024
17:30:36.642308,0
17:30:36.642308,-21
17:30:36.642308,-6913
17:30:36.642308,-1
17:30:36.642308,-40
17:30:36.642308,-15361
17:30:36.642308,-1
17:30:36.642308,-61
17:30:36.642308,-21505
17:30:36.642308,-1
17:30:36.642308,-99
17:30:36.642308,-25089
17:30:36.642308,-1
17:30:36.642308,-118
17:30:36.642308,-28929
17:30:36.642308,-1
17:30:36.642308,-123
17:30:36.642308,30719
17:30:36.642308,-1
17:30:36.642308,-142
17:30:36.642308,20223
17:30:36.642308,-1
17:30:36.642308,-201
17:30:36.642308,10495
17:30:36.642308,-1
17:30:36.642308,-254
17:30:37.182663,-280
17:30:37.182663,-15105
17:30:37.182663,-2
17:30:37.182663,-335
17:30:37.182663,-22785
17:30:37.182663,-2
17:30:37.182663,-373
17:30:37.182663,-27137
17:30:37.182663,-2
17:30:37.182663,-351
17:30:37.182663,-17921
17:30:37.182663,-2
17:30:37.182663,-327
17:30:37.182663,30463
17:30:37.182663,-2
17:30:37.182663,-420
17:30:37.182663,15871
17:30:37.182663,-2
17:30:37.182663,-527
17:30:37.182663,-9729
17:30:37.182663,-3
17:30:37.182663,-579
17:30:37.182663,-21249
17:30:37.182663,-3
17:30:37.182663,-601
17:30:37.182663,32767
17:30:37.182663,-3
17:30:37.182663,-655
17:30:37.182663,22527
17:30:37.182663,-3
17:30:37.182663,-731
17:30:37.182663,3583
17:30:37.182663,-3
17:30:37.182663,-753
17:30:37.182663,-31489
17:30:37.182663,-3
17:30:37.182663,-480
17:30:37.182663,-1
17:30:37.182663,-3
17:30:37.182663,-708
17:30:37.182663,-15361
17:30:37.182663,-4
17:30:37.182663,-772
17:30:37.182663,1791
17:30:37.182663,-3
17:30:37.182663,-834
17:30:37.182663,-11009
17:30:37.182663,-4
17:30:37.182663,-817
17:30:37.182663,-23809
17:30:37.182663,-4
17:30:37.182663,-843
17:30:37.182663,-24321
17:30:37.182663,-4
17:30:37.182663,-900
17:30:37.182663,30719
17:30:37.182663,-4
17:30:37.182663,-917
17:30:37.182663,29439
17:30:37.182663,-4
17:30:37.182663,-919
17:30:37.182663,30207
17:30:37.182663,-4
17:30:37.182663,-886
17:30:37.182663,28415
17:30:37.182663,-4
17:30:37.182663,-905
17:30:37.182663,31487
17:30:37.182663,-4
17:30:37.182663,-917
17:30:37.182663,32511
17:30:37.182663,-4
17:30:37.182663,-914
17:30:37.182663,30207
17:30:37.182663,-4
17:30:37.182663,-891
17:30:37.182663,30719
17:30:37.182663,-4
17:30:37.182663,-883
17:30:37.182663,-28161
17:30:37.182663,-4
17:30:37.182663,-886
17:30:37.182663,-28161
17:30:37.182663,-4
17:30:37.182663,-900
17:30:37.182663,-31745
17:30:37.182663,-4
17:30:37.182663,-891
17:30:37.182663,31999
17:30:37.182663,-4
17:30:37.182663,-883
17:30:37.182663,31999
17:30:37.182663,-4
17:30:37.182663,-895
17:30:37.182663,-30465
17:30:37.182663,-4
17:30:37.182663,-910
17:30:37.182663,-31233
17:30:37.182663,-4
17:30:37.182663,-895
17:30:37.182663,30719
17:30:37.182663,-4
17:30:37.182663,-888
17:30:37.182663,28927
17:30:37.182663,-4
17:30:37.182663,-914
17:30:37.182663,28927
17:30:37.182663,-4
17:30:37.182663,-929
17:30:37.768064,-917
17:30:37.768064,25855
17:30:37.768064,-4
17:30:37.768064,-905
17:30:37.768064,-28161
17:30:37.768064,-4
17:30:37.768064,-879
17:30:37.768064,-24321
17:30:37.768064,-4
17:30:37.768064,-893
17:30:37.768064,30207
17:30:37.768064,-4
17:30:37.768064,-895
17:30:37.768064,27135
17:30:37.768064,-4
17:30:37.768064,-907
17:30:37.768064,29439
17:30:37.768064,-4
17:30:37.768064,-931
17:30:37.768064,30207
17:30:37.768064,-4
17:30:37.768064,-914
17:30:37.768064,27135
17:30:37.768064,-4
17:30:37.768064,-936
17:30:37.768064,10751
17:30:37.768064,-4
17:30:37.768064,-919
17:30:37.768064,-1281
17:30:37.768064,-4
17:30:37.768064,-672
17:30:37.768064,-769
17:30:37.768064,-4
17:30:37.768064,-950
17:30:37.768064,30207
17:30:37.768064,-4
17:30:37.768064,-843
17:30:37.768064,31999
17:30:37.768064,-4
17:30:37.768064,-895
17:30:37.768064,-26881
17:30:37.768064,-4
17:30:37.768064,-876
17:30:37.768064,-28673
17:30:37.768064,-4
17:30:37.768064,-891
17:30:37.768064,-25601
17:30:37.768064,-4
17:30:37.768064,-869
17:30:37.768064,-24321
17:30:37.768064,-4
17:30:37.768064,-836
17:30:37.768064,-20225
17:30:37.768064,-4
17:30:37.768064,-826
17:30:37.768064,-11009
17:30:37.768064,-4
17:30:37.768064,-819
17:30:37.768064,-3841
17:30:37.768064,-4
17:30:37.768064,-781
17:30:37.768064,511
17:30:37.768064,-3
17:30:37.768064,-746
17:30:37.768064,2815
17:30:37.768064,-3
17:30:37.768064,-729
17:30:37.768064,12543
17:30:37.768064,-3
17:30:37.768064,-722
17:30:37.768064,15615
17:30:37.768064,-3
17:30:37.768064,-727
17:30:37.768064,12543
17:30:37.768064,-3
17:30:37.768064,-722
17:30:37.768064,6655
17:30:37.768064,-3
17:30:37.768064,-727
17:30:37.768064,7679
17:30:37.768064,-3
17:30:37.768064,-741
17:30:37.768064,7679
17:30:37.768064,-3
17:30:37.768064,-755
17:30:37.768064,12543
17:30:37.768064,-3
17:30:37.768064,-722
17:30:37.768064,8447
17:30:37.768064,-3
17:30:37.768064,-703
17:30:37.768064,15615
17:30:37.768064,-3
17:30:37.768064,-705
17:30:37.768064,18687
17:30:37.768064,-3
17:30:37.768064,-710
17:30:37.768064,18687
17:30:37.768064,-3
17:30:37.768064,-705
17:30:37.768064,15103
17:30:37.768064,-3
17:30:37.768064,-698
17:30:37.768064,13823
17:30:37.768064,-3
17:30:37.768064,-698
17:30:37.768064,18687
17:30:37.768064,-3
17:30:37.768064,-708
17:30:38.351495,-679
17:30:38.351495,23039
17:30:38.351495,-3
17:30:38.351495,-672
17:30:38.351495,21759
17:30:38.351495,-3
17:30:38.351495,-720
17:30:38.351495,18175
17:30:38.351495,-3
17:30:38.351495,-693
17:30:38.351495,26111
17:30:38.351495,-3
17:30:38.351495,-639
17:30:38.351495,21759
17:30:38.351495,-3
17:30:38.351495,-693
17:30:38.351495,16383
17:30:38.351495,-3
17:30:38.351495,-727
17:30:38.351495,29695
17:30:38.351495,-3
17:30:38.351495,-510
17:30:38.351495,32255
17:30:38.351495,-2
17:30:38.351495,-494
17:30:38.351495,24319
17:30:38.351495,-3
17:30:38.351495,-627
17:30:38.351495,-16385
17:30:38.351495,-3
17:30:38.351495,-629
17:30:38.351495,-28417
17:30:38.351495,-3
17:30:38.351495,-613
17:30:38.351495,-23553
17:30:38.351495,-3
17:30:38.351495,-605
17:30:38.351495,-23553
17:30:38.351495,-3
17:30:38.351495,-589
17:30:38.351495,-24321
17:30:38.351495,-3
17:30:38.351495,-605
17:30:38.351495,-21761
17:30:38.351495,-3
17:30:38.351495,-608
17:30:38.351495,-20737
17:30:38.351495,-3
17:30:38.351495,-598
17:30:38.351495,-20737
17:30:38.351495,-3
17:30:38.351495,-570
17:30:38.351495,-18177
17:30:38.351495,-3
17:30:38.351495,-563
17:30:38.351495,-11009
17:30:38.351495,-3
17:30:38.351495,-567
17:30:38.351495,-9729
17:30:38.351495,-3
17:30:38.351495,-560
17:30:38.351495,-11521
17:30:38.351495,-3
17:30:38.351495,-546
17:30:38.351495,-12033
17:30:38.351495,-3
17:30:38.351495,-548
17:30:38.351495,-15105
17:30:38.351495,-3
17:30:38.351495,-605
17:30:38.351495,-23041
17:30:38.351495,-3
17:30:38.351495,-610
17:30:38.351495,-23553
17:30:38.351495,-3
17:30:38.351495,-610
17:30:38.351495,-26113
17:30:38.351495,-3
17:30:38.351495,-591
17:30:38.351495,-23553
17:30:38.351495,-3
17:30:38.351495,-603
17:30:38.351495,-19969
17:30:38.351495,-3
17:30:38.351495,-605
17:30:38.351495,-21249
17:30:38.351495,-3
17:30:38.351495,-603
17:30:38.351495,-24321
17:30:38.351495,-3
17:30:38.351495,-601
17:30:38.351495,-27905
17:30:38.351495,-3
17:30:38.351495,-615
17:30:38.351495,-27393
17:30:38.351495,-3
17:30:38.351495,-641
17:30:38.351495,-30465
17:30:38.351495,-3
17:30:38.351495,-651
17:30:38.351495,30975
17:30:38.351495,-3
17:30:38.351495,-624
17:30:38.351495,-31489
17:30:38.351495,-3
17:30:38.351495,-634
17:30:38.351495,-29185
17:30:38.351495,-3
17:30:38.351495,-629
17:30:38.891199,-641
17:30:38.891199,24831
17:30:38.891199,-3
17:30:38.891199,-660
17:30:38.891199,30975
17:30:38.891199,-3
17:30:38.891199,-655
17:30:38.891199,30975
17:30:38.891199,-3
17:30:38.891199,-658
17:30:38.891199,29695
17:30:38.891199,-3
17:30:38.891199,-677
17:30:38.891199,7679
17:30:38.891199,-3
17:30:38.891199,-689
17:30:38.891199,-6145
17:30:38.891199,-3
17:30:38.891199,-387
17:30:38.891199,27391
17:30:38.891199,-2
17:30:38.891199,-629
17:30:38.891199,7167
17:30:38.891199,-3
17:30:38.891199,-705
17:30:38.891199,13311
17:30:38.891199,-3
17:30:38.891199,-741
17:30:38.891199,10239
17:30:38.891199,-3
17:30:38.891199,-693
17:30:38.891199,23551
17:30:38.891199,-3
17:30:38.891199,-684
17:30:38.891199,25343
17:30:38.891199,-3
17:30:38.891199,-686
17:30:38.891199,16895
17:30:38.891199,-3
17:30:38.891199,-696
17:30:38.891199,11519
17:30:38.891199,-3
17:30:38.891199,-720
17:30:38.891199,13823
17:30:38.891199,-3
17:30:38.891199,-731
17:30:38.891199,12543
17:30:38.891199,-3
17:30:38.891199,-727
17:30:38.891199,12031
17:30:38.891199,-3
17:30:38.891199,-703
17:30:38.891199,15103
17:30:38.891199,-3
17:30:38.891199,-696
17:30:38.891199,16895
17:30:38.891199,-3
17:30:38.891199,-712
17:30:38.891199,19967
17:30:38.891199,-3
17:30:38.891199,-701
17:30:38.891199,18687
17:30:38.891199,-3
17:30:38.891199,-691
17:30:38.891199,15615
17:30:38.891199,-3
17:30:38.891199,-696
17:30:38.891199,15615
17:30:38.891199,-3
17:30:38.891199,-710
17:30:38.891199,17407
17:30:38.891199,-3
17:30:38.891199,-712
17:30:38.891199,19455
17:30:38.891199,-3
17:30:38.891199,-689
17:30:38.891199,19455
17:30:38.891199,-3
17:30:38.891199,-679
17:30:38.891199,19967
17:30:38.891199,-3
17:30:38.891199,-677
17:30:38.891199,26623
17:30:38.891199,-3
17:30:38.891199,-691
17:30:38.891199,19967
17:30:38.891199,-3
17:30:38.891199,-698
17:30:38.891199,20479
17:30:38.891199,-3
17:30:38.891199,-662
17:30:38.891199,24831
17:30:38.891199,-3
17:30:38.891199,-667
17:30:38.891199,25343
17:30:38.891199,-3
17:30:38.891199,-672
17:30:38.891199,28415
17:30:38.891199,-3
17:30:38.891199,-670
17:30:38.891199,28415
17:30:38.891199,-3
17:30:38.891199,-641
17:30:38.891199,30207
17:30:38.891199,-3
17:30:38.891199,-634
17:30:38.891199,-32257
17:30:38.891199,-3
17:30:38.891199,-648
17:30:39.476380,-646
17:30:39.476380,26623
17:30:39.476380,-3
17:30:39.476380,-667
17:30:39.476380,23039
17:30:39.476380,-3
17:30:39.476380,-681
17:30:39.476380,28415
17:30:39.476380,-3
17:30:39.476380,-665
17:30:39.476380,-31489
17:30:39.476380,-3
17:30:39.476380,-610
17:30:39.476380,25343
17:30:39.476380,-3
17:30:39.476380,-710
17:30:39.476380,19967
17:30:39.476380,-3
17:30:39.476380,-560
17:30:39.476380,-20993
17:30:39.476380,-2
17:30:39.476380,-280
17:30:39.476380,15359
17:30:39.476380,-2
17:30:39.476380,-615
17:30:39.476380,-22529
17:30:39.476380,-3
17:30:39.476380,-560
17:30:39.476380,-23041
17:30:39.476380,-3
17:30:39.476380,-598
17:30:39.476380,-15873
17:30:39.476380,-3
17:30:39.476380,-591
17:30:39.476380,-17665
17:30:39.476380,-3
17:30:39.476380,-584
17:30:39.476380,-18689
17:30:39.476380,-3
17:30:39.476380,-577
17:30:39.476380,-20737
17:30:39.476380,-3
17:30:39.476380,-589
17:30:39.476380,-19969
17:30:39.476380,-3
17:30:39.476380,-601
17:30:39.476380,-17665
17:30:39.476380,-3
17:30:39.476380,-591
17:30:39.476380,-18689
17:30:39.476380,-3
17:30:39.476380,-565
17:30:39.476380,-13313
17:30:39.476380,-3
17:30:39.476380,-539
17:30:39.476380,-3585
17:30:39.476380,-3
17:30:39.476380,-525
17:30:39.476380,1279
17:30:39.476380,-2
17:30:39.476380,-520
17:30:39.476380,1791
17:30:39.476380,-2
17:30:39.476380,-487
17:30:39.476380,6143
17:30:39.476380,-2
17:30:39.476380,-487
17:30:39.476380,1791
17:30:39.476380,-2
17:30:39.476380,-503
17:30:39.476380,2559
17:30:39.476380,-2
17:30:39.476380,-529
17:30:39.476380,-2305
17:30:39.476380,-3
17:30:39.476380,-534
17:30:39.476380,-6657
17:30:39.476380,-3
17:30:39.476380,-515
17:30:39.476380,-3585
17:30:39.476380,-3
17:30:39.476380,-525
17:30:39.476380,1279
17:30:39.476380,-2
17:30:39.476380,-506
17:30:39.476380,6143
17:30:39.476380,-2
17:30:39.476380,-491
17:30:39.476380,9727
17:30:39.476380,-2
17:30:39.476380,-456
17:30:39.476380,11007
17:30:39.476380,-2
17:30:39.476380,-461
17:30:39.476380,14079
17:30:39.476380,-2
17:30:39.476380,-461
17:30:39.476380,17151
17:30:39.476380,-2
17:30:39.476380,-441
17:30:39.476380,24319
17:30:39.476380,-2
17:30:39.476380,-411
17:30:39.476380,26111
17:30:39.476380,-2
17:30:39.476380,-389
17:30:39.476380,30463
17:30:39.476380,-2
17:30:39.476380,-384
17:30:40.105928,-373
17:30:40.105928,30463
17:30:40.105928,-2
17:30:40.105928,-382
17:30:40.105928,-31489
17:30:40.105928,-2
17:30:40.105928,-384
17:30:40.105928,-27137
17:30:40.105928,-2
17:30:40.105928,-368
17:30:40.105928,-28417
17:30:40.105928,-2
17:30:40.105928,-370
17:30:40.105928,-30721
17:30:40.105928,-2
17:30:40.105928,-349
17:30:40.105928,-19201
17:30:40.105928,-2
17:30:40.105928,-346
17:30:40.105928,-30209
17:30:40.105928,-2
17:30:40.105928,-387
17:30:40.105928,-27649
17:30:40.105928,-2
17:30:40.105928,-375
17:30:40.105928,-32001
17:30:40.105928,-2
17:30:40.105928,-368
17:30:40.105928,29183
17:30:40.105928,-2
17:30:40.105928,-411
17:30:40.105928,28159
17:30:40.105928,-2
17:30:40.105928,-403
17:30:40.105928,-32513
17:30:40.105928,-2
17:30:40.105928,-396
17:30:40.105928,28671
17:30:40.105928,-2
17:30:40.105928,-403
17:30:40.105928,14591
17:30:40.105928,-2
17:30:40.105928,-470
17:30:40.105928,29183
17:30:40.105928,-2
17:30:40.105928,-201
17:30:40.105928,-7425
17:30:40.105928,-1
17:30:40.105928,-159
17:30:40.105928,-25857
17:30:40.105928,-2
17:30:40.105928,-363
17:30:40.105928,-17409
17:30:40.105928,-2
17:30:40.105928,-356
17:30:40.105928,-32001
17:30:40.105928,-2
17:30:40.105928,-351
17:30:40.105928,-19201
17:30:40.105928,-2
17:30:40.105928,-342
17:30:40.105928,-15617
17:30:40.105928,-2
17:30:40.105928,-320
17:30:40.105928,-19201
17:30:40.105928,-2
17:30:40.105928,-308
17:30:40.105928,-11265
17:30:40.105928,-2
17:30:40.105928,-287
17:30:40.105928,-7169
17:30:40.105928,-2
17:30:40.105928,-294
17:30:40.105928,-4609
17:30:40.105928,-2
17:30:40.105928,-278
17:30:40.105928,-4609
17:30:40.105928,-2
17:30:40.105928,-263
17:30:40.105928,-2817
17:30:40.105928,-2
17:30:40.105928,-254
17:30:40.105928,255
17:30:40.105928,-1
17:30:40.105928,-259
17:30:40.105928,3839
17:30:40.105928,-1
17:30:40.105928,-251
17:30:40.105928,2559
17:30:40.105928,-1
17:30:40.105928,-242
17:30:40.105928,255
17:30:40.105928,-1
17:30:40.105928,-251
17:30:40.105928,-1025
17:30:40.105928,-2
17:30:40.105928,-275
17:30:40.105928,-5377
17:30:40.105928,-2
17:30:40.105928,-292
17:30:40.105928,-7681
17:30:40.105928,-2
17:30:40.105928,-289
17:30:40.105928,-8961
17:30:40.105928,-2
17:30:40.105928,-280
17:30:40.105928,-8193
17:30:40.105928,-2
17:30:40.105928,-280
17:30:40.557021,-270
17:30:40.557021,-5889
17:30:40.557021,-2
17:30:40.557021,-268
17:30:40.557021,-4609
17:30:40.557021,-2
17:30:40.557021,-280
17:30:40.557021,-4097
17:30:40.557021,-2
17:30:40.557021,-292
17:30:40.557021,-7681
17:30:40.557021,-2
17:30:40.557021,-285
17:30:40.557021,-8193
17:30:40.557021,-2
17:30:40.557021,-275
17:30:40.557021,-8193
17:30:40.557021,-2
17:30:40.557021,-285
17:30:40.557021,-2817
17:30:40.557021,-2
17:30:40.557021,-278
17:30:40.557021,-2305
17:30:40.557021,-2
17:30:40.557021,-273
17:30:40.557021,-5889
17:30:40.557021,-2
17:30:40.557021,-278
17:30:40.557021,-7169
17:30:40.557021,-2
17:30:40.557021,-259
17:30:40.557021,-6401
17:30:40.557021,-2
17:30:40.557021,-330
17:30:40.557021,-13825
17:30:40.557021,-2
17:30:40.557021,-313
17:30:40.557021,-16129
17:30:40.557021,-2
17:30:40.557021,-311
17:30:40.557021,-16129
17:30:40.557021,-2
17:30:40.557021,-311
17:30:40.557021,-14337
17:30:40.557021,-2
17:30:40.557021,-316
17:30:40.557021,-12033
17:30:40.557021,-2
17:30:40.557021,-316
17:30:40.557021,-13825
17:30:40.557021,-2
17:30:40.557021,-306
17:30:40.557021,-13825
17:30:40.557021,-2
17:30:40.557021,-304
17:30:40.557021,-13825
17:30:40.557021,-2
17:30:40.557021,-299
17:30:40.557021,-10753
17:30:40.557021,-2
17:30:40.557021,-316
17:30:40.557021,-8961
17:30:40.557021,-2
17:30:40.557021,-297
17:30:40.557021,-12545
17:30:40.557021,-2
17:30:40.557021,-287
17:30:40.557021,-8961
17:30:40.557021,-2
17:30:40.557021,-278
17:30:40.557021,-2305
17:30:40.557021,-2
17:30:40.557021,-268
17:30:40.557021,2559
17:30:40.557021,-1
17:30:40.557021,-249
17:30:40.557021,3839
17:30:40.557021,-1
17:30:40.557021,-225
17:30:40.557021,6399
17:30:40.557021,-1
17:30:40.557021,-220
17:30:40.557021,11263
17:30:40.557021,-1
17:30:40.557021,-216
17:30:40.557021,13567
17:30:40.557021,-1
17:30:40.557021,-204
17:30:40.557021,17919
17:30:40.557021,-1
17:30:40.557021,-180
17:30:40.557021,17919
17:30:40.557021,-1
17:30:40.557021,-173
17:30:40.557021,19711
17:30:40.557021,-1
17:30:40.557021,-173
17:30:40.557021,24063
17:30:40.557021,-1
17:30:40.557021,-173
17:30:40.557021,25855
17:30:40.557021,-1
17:30:40.557021,-154
17:30:40.557021,26367
17:30:40.557021,-1
17:30:40.557021,-133
17:30:40.557021,29439
17:30:40.557021,-1
17:30:40.557021,-137
17:30:41.095997,-133
17:30:41.095997,28159
17:30:41.095997,-1
17:30:41.095997,-149
17:30:41.095997,27647
17:30:41.095997,-1
17:30:41.095997,-128
17:30:41.095997,-25857
17:30:41.095997,-1
17:30:41.095997,-118
17:30:41.095997,19199
17:30:41.095997,-1
17:30:41.095997,-228
17:30:41.095997,-26881
17:30:41.095997,-1
17:30:41.095997,156
17:30:41.095997,7936
17:30:41.095997,1
17:30:41.095997,137
17:30:41.095997,-22272
17:30:41.095997,-1
17:30:41.095997,-128
17:30:41.095997,-20993
17:30:41.095997,-1
17:30:41.095997,-130
17:30:41.095997,28927
17:30:41.095997,-1
17:30:41.095997,-114
17:30:41.095997,-32513
17:30:41.095997,-1
17:30:41.095997,-125
17:30:41.095997,-29441
17:30:41.095997,-1
17:30:41.095997,-114
17:30:41.095997,-26881
17:30:41.095997,-1
17:30:41.095997,-111
17:30:41.095997,-25857
17:30:41.095997,-1
17:30:41.095997,-95
17:30:41.095997,-24065
17:30:41.095997,-1
17:30:41.095997,-78
17:30:41.095997,-21505
17:30:41.095997,-1
17:30:41.095997,-73
17:30:41.095997,-14337
17:30:41.095997,-1
17:30:41.095997,-71
17:30:41.095997,-16129
17:30:41.095997,-1
17:30:41.095997,-61
17:30:41.095997,-16129
17:30:41.095997,-1
17:30:41.095997,-52
17:30:41.095997,-16129
17:30:41.095997,-1
17:30:41.095997,-59
17:30:41.095997,-14337
17:30:41.095997,-1
17:30:41.095997,-61
17:30:41.095997,-13569
17:30:41.095997,-1
17:30:41.095997,-71
17:30:41.095997,-18433
17:30:41.095997,-1
17:30:41.095997,-71
17:30:41.095997,-24065
17:30:41.095997,-1
17:30:41.095997,-90
17:30:41.095997,-23297
17:30:41.095997,-1
17:30:41.095997,-99
17:30:41.095997,-22017
17:30:41.095997,-1
17:30:41.095997,-97
17:30:41.095997,-22017
17:30:41.095997,-1
17:30:41.095997,-83
17:30:41.095997,-24577
17:30:41.095997,-1
17:30:41.095997,-87
17:30:41.095997,-23297
17:30:41.095997,-1
17:30:41.095997,-87
17:30:41.095997,-17921
17:30:41.095997,-1
17:30:41.095997,-80
17:30:41.095997,-18433
17:30:41.095997,-1
17:30:41.095997,-78
17:30:41.095997,-20993
17:30:41.095997,-1
17:30:41.095997,-71
17:30:41.095997,-19713
17:30:41.095997,-1
17:30:41.095997,-68
17:30:41.095997,-16641
17:30:41.095997,-1
17:30:41.095997,-87
17:30:41.095997,-19201
17:30:41.095997,-1
17:30:41.095997,-78
17:30:41.095997,-20993
17:30:41.095997,-1
17:30:41.095997,-76
17:30:41.095997,-24065
17:30:41.095997,-1
17:30:41.095997,-85
17:30:41.725955,-83
17:30:41.725955,-22017
17:30:41.725955,-1
17:30:41.725955,-52
17:30:41.725955,-8193
17:30:41.725955,-1
17:30:41.725955,-54
17:30:41.725955,-20993
17:30:41.725955,-1
17:30:41.725955,-83
17:30:41.725955,-16129
17:30:41.725955,-1
17:30:41.725955,-78
17:30:41.725955,-20225
17:30:41.725955,-1
17:30:41.725955,-76
17:30:41.725955,-25089
17:30:41.725955,-1
17:30:41.725955,-90
17:30:41.725955,-22017
17:30:41.725955,-1
17:30:41.725955,-99
17:30:41.725955,-22785
17:30:41.725955,-1
17:30:41.725955,-102
17:30:41.725955,-24577
17:30:41.725955,-1
17:30:41.725955,-87
17:30:41.725955,-24577
17:30:41.725955,-1
17:30:41.725955,-83
17:30:41.725955,-22785
17:30:41.725955,-1
17:30:41.725955,-87
17:30:41.725955,-16641
17:30:41.725955,-1
17:30:41.725955,-83
17:30:41.725955,-21505
17:30:41.725955,-1
17:30:41.725955,-78
17:30:41.725955,-24065
17:30:41.725955,-1
17:30:41.725955,-95
17:30:41.725955,-25089
17:30:41.725955,-1
17:30:41.725955,-95
17:30:41.725955,-22017
17:30:41.725955,-1
17:30:41.725955,-90
17:30:41.725955,-20993
17:30:41.725955,-1
17:30:41.725955,-90
17:30:41.725955,-20993
17:30:41.725955,-1
17:30:41.725955,-68
17:30:41.725955,-24065
17:30:41.725955,-1
17:30:41.725955,-90
17:30:41.725955,-20225
17:30:41.725955,-1
17:30:41.725955,-106
17:30:41.725955,-27649
17:30:41.725955,-1
17:30:41.725955,-97
17:30:41.725955,-18433
17:30:41.725955,-1
17:30:41.725955,-78
17:30:41.725955,31231
17:30:41.725955,-1
17:30:41.725955,-187
17:30:41.725955,10495
17:30:41.725955,-1
17:30:41.725955,-97
17:30:41.725955,-22273
17:30:41.725955,0
17:30:41.725955,268
17:30:41.725955,19456
17:30:41.725955,0
17:30:41.725955,-140
17:30:41.725955,29439
17:30:41.725955,-1
17:30:41.725955,-85
17:30:41.725955,-29953
17:30:41.725955,-1
17:30:41.725955,-111
17:30:41.725955,-26881
17:30:41.725955,-1
17:30:41.725955,-161
17:30:41.725955,21503
17:30:41.725955,-1
17:30:41.725955,-192
17:30:41.725955,5119
17:30:41.725955,-1
17:30:41.725955,-256
17:30:41.725955,-4609
17:30:41.725955,-2
17:30:41.725955,-273
17:30:41.725955,-5889
17:30:41.725955,-2
17:30:41.725955,-304
17:30:41.725955,-11265
17:30:41.725955,-2
17:30:41.725955,-306
17:30:41.725955,-13825
17:30:41.725955,-2
17:30:41.725955,-306
17:30:41.725955,-15105
17:30:41.725955,-2
17:30:41.725955,-308
17:30:42.268712,-306
17:30:42.268712,-14337
17:30:42.268712,-2
17:30:42.268712,-320
17:30:42.268712,-20993
17:30:42.268712,-2
17:30:42.268712,-351
17:30:42.268712,-28929
17:30:42.268712,-2
17:30:42.268712,-403
17:30:42.268712,22527
17:30:42.268712,-2
17:30:42.268712,-439
17:30:42.268712,18943
17:30:42.268712,-2
17:30:42.268712,-418
17:30:42.268712,31743
17:30:42.268712,-2
17:30:42.268712,-356
17:30:42.268712,-28417
17:30:42.268712,-2
17:30:42.268712,-380
17:30:42.268712,-19969
17:30:42.268712,-2
17:30:42.268712,-299
17:30:42.268712,-7169
17:30:42.268712,-2
17:30:42.268712,-259
17:30:42.268712,6399
17:30:42.268712,-1
17:30:42.268712,-218
17:30:42.268712,11263
17:30:42.268712,-1
17:30:42.268712,-187
17:30:42.268712,25087
17:30:42.268712,-1
17:30:42.268712,-152
17:30:42.268712,32511
17:30:42.268712,-1
17:30:42.268712,-99
17:30:42.268712,-16641
17:30:42.268712,-1
17:30:42.268712,-30
17:30:42.268712,-3841
17:30:42.268712,-1
17:30:42.268712,-23
17:30:42.268712,-13057
17:30:42.268712,-1
17:30:42.268712,-73
17:30:42.268712,-20993
17:30:42.268712,-1
17:30:42.268712,-111
17:30:42.268712,-31233
17:30:42.268712,-1
17:30:42.268712,-125
17:30:42.268712,26879
17:30:42.268712,-1
17:30:42.268712,-156
17:30:42.268712,25087
17:30:42.268712,-1
17:30:42.268712,-171
17:30:42.268712,22015
17:30:42.268712,-1
17:30:42.268712,-185
17:30:42.268712,18431
17:30:42.268712,-1
17:30:42.268712,-187
17:30:42.268712,14335
17:30:42.268712,-1
17:30:42.268712,-187
17:30:42.268712,19711
17:30:42.268712,-1
17:30:42.268712,-190
17:30:42.268712,19711
17:30:42.268712,-1
17:30:42.268712,-178
17:30:42.268712,19199
17:30:42.268712,-1
17:30:42.268712,-192
17:30:42.268712,12287
17:30:42.268712,-1
17:30:42.268712,-209
17:30:42.268712,13567
17:30:42.268712,-1
17:30:42.268712,-194
17:30:42.268712,16639
17:30:42.268712,-1
17:30:42.268712,-178
17:30:42.268712,29951
17:30:42.268712,-1
17:30:42.268712,-125
17:30:42.268712,-31233
17:30:42.268712,-1
17:30:42.268712,-102
17:30:42.268712,-22785
17:30:42.268712,-1
17:30:42.268712,-104
17:30:42.268712,31743
17:30:42.268712,-1
17:30:42.268712,-140
17:30:42.268712,27647
17:30:42.268712,-1
17:30:42.268712,-182
17:30:42.268712,13567
17:30:42.268712,-1
17:30:42.268712,-216
17:30:42.268712,8191
17:30:42.268712,-1
17:30:42.268712,-206
17:30:42.805959,-192
17:30:42.805959,19711
17:30:42.805959,-1
17:30:42.805959,-185
17:30:42.805959,3839
17:30:42.805959,-1
17:30:42.805959,-278
17:30:42.805959,9471
17:30:42.805959,-1
17:30:42.805959,-16
17:30:42.805959,-20993
17:30:42.805959,0
17:30:42.805959,80
17:30:42.805959,28672
17:30:42.805959,-1
17:30:42.805959,-249
17:30:42.805959,-7169
17:30:42.805959,-2
17:30:42.805959,-306
17:30:42.805959,-14337
17:30:42.805959,-2
17:30:42.805959,-294
17:30:42.805959,-2817
17:30:42.805959,-2
17:30:42.805959,-263
17:30:42.805959,3839
17:30:42.805959,-1
17:30:42.805959,-232
17:30:42.805959,3839
17:30:42.805959,-1
17:30:42.805959,-235
17:30:42.805959,5631
17:30:42.805959,-1
17:30:42.805959,-235
17:30:42.805959,8191
17:30:42.805959,-1
17:30:42.805959,-213
17:30:42.805959,18431
17:30:42.805959,-1
17:30:42.805959,-175
17:30:42.805959,20991
17:30:42.805959,-1
17:30:42.805959,-175
17:30:42.805959,17919
17:30:42.805959,-1
17:30:42.805959,-180
17:30:42.805959,21503
17:30:42.805959,-1
17:30:42.805959,-175
17:30:42.805959,23295
17:30:42.805959,-1
17:30:42.805959,-166
17:30:42.805959,24575
17:30:42.805959,-1
17:30:42.805959,-152
17:30:42.805959,26879
17:30:42.805959,-1
17:30:42.805959,-144
17:30:42.805959,25087
17:30:42.805959,-1
17:30:42.805959,-171
17:30:42.805959,22783
17:30:42.805959,-1
17:30:42.805959,-178
17:30:42.805959,20223
17:30:42.805959,-1
17:30:42.805959,-173
17:30:42.805959,20991
17:30:42.805959,-1
17:30:42.805959,-168
17:30:42.805959,20991
17:30:42.805959,-1
17:30:42.805959,-173
17:30:42.805959,24575
17:30:42.805959,-1
17:30:42.805959,-163
17:30:42.805959,23295
17:30:42.805959,-1
17:30:42.805959,-178
17:30:42.805959,20991
17:30:42.805959,-1
17:30:42.805959,-166
17:30:42.805959,22015
17:30:42.805959,-1
17:30:42.805959,-161
17:30:42.805959,25087
17:30:42.805959,-1
17:30:42.805959,-166
17:30:42.805959,26879
17:30:42.805959,-1
17:30:42.805959,-149
17:30:42.805959,28927
17:30:42.805959,-1
17:30:42.805959,-140
17:30:42.805959,28927
17:30:42.805959,-1
17:30:42.805959,-133
17:30:42.805959,32511
17:30:42.805959,-1
17:30:42.805959,-130
17:30:42.805959,-30721
17:30:42.805959,-1
17:30:42.805959,-128
17:30:42.805959,-31745
17:30:42.805959,-1
17:30:42.805959,-128
17:30:42.805959,29439
17:30:42.805959,-1
17:30:42.805959,-137
17:30:43.391680,-140
17:30:43.391680,29951
17:30:43.391680,-1
17:30:43.391680,-137
17:30:43.391680,25855
17:30:43.391680,-1
17:30:43.391680,-161
17:30:43.391680,26367
17:30:43.391680,-1
17:30:43.391680,-133
17:30:43.391680,-31233
17:30:43.391680,-1
17:30:43.391680,-161
17:30:43.391680,23295
17:30:43.391680,-1
17:30:43.391680,-144
17:30:43.391680,27647
17:30:43.391680,-1
17:30:43.391680,-147
17:30:43.391680,26367
17:30:43.391680,-1
17:30:43.391680,-171
17:30:43.391680,19199
17:30:43.391680,-1
17:30:43.391680,-199
17:30:43.391680,17151
17:30:43.391680,-1
17:30:43.391680,-192
17:30:43.391680,12287
17:30:43.391680,-1
17:30:43.391680,-213
17:30:43.391680,8703
17:30:43.391680,-1
17:30:43.391680,-251
17:30:43.391680,-8961
17:30:43.391680,-2
17:30:43.391680,-294
17:30:43.391680,22015
17:30:43.391680,-1
17:30:43.391680,35
17:30:43.391680,23040
17:30:43.391680,0
17:30:43.391680,-111
17:30:43.391680,-1025
17:30:43.391680,-2
17:30:43.391680,-213
17:30:43.391680,9471
17:30:43.391680,-1
17:30:43.391680,-282
17:30:43.391680,-1537
17:30:43.391680,-2
17:30:43.391680,-251
17:30:43.391680,-513
17:30:43.391680,-2
17:30:43.391680,-249
17:30:43.391680,1535
17:30:43.391680,-1
17:30:43.391680,-251
17:30:43.391680,-513
17:30:43.391680,-2
17:30:43.391680,-259
17:30:43.391680,4351
17:30:43.391680,-1
17:30:43.391680,-237
17:30:43.391680,3327
17:30:43.391680,-1
17:30:43.391680,-249
17:30:43.391680,2559
17:30:43.391680,-1
17:30:43.391680,-235
17:30:43.391680,5119
17:30:43.391680,-1
17:30:43.391680,-237
17:30:43.391680,4351
17:30:43.391680,-1
17:30:43.391680,-244
17:30:43.391680,6399
17:30:43.391680,-1
17:30:43.391680,-235
17:30:43.391680,6399
17:30:43.391680,-1
17:30:43.391680,-228
17:30:43.391680,2559
17:30:43.391680,-1
17:30:43.391680,-244
17:30:43.391680,5631
17:30:43.391680,-1
17:30:43.391680,-247
17:30:43.391680,767
17:30:43.391680,-1
17:30:43.391680,-259
17:30:43.391680,-1025
17:30:43.391680,-2
17:30:43.391680,-273
17:30:43.391680,-6401
17:30:43.391680,-2
17:30:43.391680,-268
17:30:43.391680,-2817
17:30:43.391680,-2
17:30:43.391680,-270
17:30:43.391680,-1025
17:30:43.391680,-2
17:30:43.391680,-268
17:30:43.391680,-4097
17:30:43.391680,-2
17:30:43.391680,-273
17:30:43.391680,-3329
17:30:43.391680,-2
17:30:43.391680,-266
17:30:43.931290,-278
17:30:43.931290,-4097
17:30:43.931290,-2
17:30:43.931290,-266
17:30:43.931290,-4609
17:30:43.931290,-2
17:30:43.931290,-268
17:30:43.931290,-4097
17:30:43.931290,-2
17:30:43.931290,-285
17:30:43.931290,-4609
17:30:43.931290,-2
17:30:43.931290,-275
17:30:43.931290,767
17:30:43.931290,-1
17:30:43.931290,-235
17:30:43.931290,-2817
17:30:43.931290,-2
17:30:43.931290,-287
17:30:43.931290,-4609
17:30:43.931290,-2
17:30:43.931290,-270
17:30:43.931290,-4609
17:30:43.931290,-2
17:30:43.931290,-270
17:30:43.931290,-513
17:30:43.931290,-2
17:30:43.931290,-266
17:30:43.931290,-513
17:30:43.931290,-2
17:30:43.931290,-244
17:30:43.931290,-1025
17:30:43.931290,-2
17:30:43.931290,-273
17:30:43.931290,-7681
17:30:43.931290,-2
17:30:43.931290,-304
17:30:43.931290,-9473
17:30:43.931290,-2
17:30:43.931290,-292
17:30:43.931290,-10241
17:30:43.931290,-2
17:30:43.931290,-297
17:30:43.931290,-13057
17:30:43.931290,-2
17:30:43.931290,-327
17:30:43.931290,-28417
17:30:43.931290,-2
17:30:43.931290,-373
17:30:43.931290,-2817
17:30:43.931290,-2
17:30:43.931290,-83
17:30:43.931290,255
17:30:43.931290,0
17:30:43.931290,-180
17:30:43.931290,-20481
17:30:43.931290,-2
17:30:43.931290,-273
17:30:43.931290,767
17:30:43.931290,-1
17:30:43.931290,-318
17:30:43.931290,-15105
17:30:43.931290,-2
17:30:43.931290,-289
17:30:43.931290,-8961
17:30:43.931290,-2
17:30:43.931290,-299
17:30:43.931290,-8193
17:30:43.931290,-2
17:30:43.931290,-278
17:30:43.931290,-6401
17:30:43.931290,-2
17:30:43.931290,-278
17:30:43.931290,-3329
17:30:43.931290,-2
17:30:43.931290,-270
17:30:43.931290,255
17:30:43.931290,-1
17:30:43.931290,-251
17:30:43.931290,767
17:30:43.931290,-1
17:30:43.931290,-251
17:30:43.931290,2559
17:30:43.931290,-1
17:30:43.931290,-232
17:30:43.931290,5631
17:30:43.931290,-1
17:30:43.931290,-228
17:30:43.931290,14335
17:30:43.931290,-1
17:30:43.931290,-197
17:30:43.931290,16639
17:30:43.931290,-1
17:30:43.931290,-180
17:30:43.931290,19199
17:30:43.931290,-1
17:30:43.931290,-182
17:30:43.931290,16127
17:30:43.931290,-1
17:30:43.931290,-206
17:30:43.931290,11263
17:30:43.931290,-1
17:30:43.931290,-230
17:30:43.931290,3839
17:30:43.931290,-1
17:30:43.931290,-254
17:30:43.931290,-2305
17:30:43.931290,-2
17:30:43.931290,-268
17:30:44.471011,-275
17:30:44.471011,-4097
17:30:44.471011,-2
17:30:44.471011,-282
17:30:44.471011,-8961
17:30:44.471011,-2
17:30:44.471011,-282
17:30:44.471011,-5377
17:30:44.471011,-2
17:30:44.471011,-254
17:30:44.471011,12287
17:30:44.471011,-1
17:30:44.471011,-213
17:30:44.471011,8191
17:30:44.471011,-1
17:30:44.471011,-206
17:30:44.471011,18431
17:30:44.471011,-1
17:30:44.471011,-187
17:30:44.471011,15359
17:30:44.471011,-1
17:30:44.471011,-192
17:30:44.471011,17151
17:30:44.471011,-1
17:30:44.471011,-192
17:30:44.471011,17151
17:30:44.471011,-1
17:30:44.471011,-194
17:30:44.471011,16639
17:30:44.471011,-1
17:30:44.471011,-190
17:30:44.471011,15359
17:30:44.471011,-1
17:30:44.471011,-199
17:30:44.471011,14335
17:30:44.471011,-1
17:30:44.471011,-194
17:30:44.471011,17151
17:30:44.471011,-1
17:30:44.471011,-197
17:30:44.471011,17919
17:30:44.471011,-1
17:30:44.471011,-187
17:30:44.471011,14847
17:30:44.471011,-1
17:30:44.471011,-201
17:30:44.471011,10495
17:30:44.471011,-1
17:30:44.471011,-228
17:30:44.471011,9983
17:30:44.471011,-1
17:30:44.471011,-220
17:30:44.471011,9471
17:30:44.471011,-1
17:30:44.471011,-218
17:30:44.471011,4351
17:30:44.471011,-1
17:30:44.471011,-282
17:30:44.471011,-13825
17:30:44.471011,-2
17:30:44.471011,-223
17:30:44.471011,2047
17:30:44.471011,0
17:30:44.471011,168
17:30:44.471011,12032
17:30:44.471011,0
17:30:44.471011,-182
17:30:44.471011,5119
17:30:44.471011,-1
17:30:44.471011,-206
17:30:44.471011,3839
17:30:44.471011,-1
17:30:44.471011,-249
17:30:44.471011,8191
17:30:44.471011,-1
17:30:44.471011,-228
17:30:44.471011,9471
17:30:44.471011,-1
17:30:44.471011,-201
17:30:44.471011,15359
17:30:44.471011,-1
17:30:44.471011,-206
17:30:44.471011,11263
17:30:44.471011,-1
17:30:44.471011,-199
17:30:44.471011,14335
17:30:44.471011,-1
17:30:44.471011,-201
17:30:44.471011,17151
17:30:44.471011,-1
17:30:44.471011,-190
17:30:44.471011,16639
17:30:44.471011,-1
17:30:44.471011,-192
17:30:44.471011,17151
17:30:44.471011,-1
17:30:44.471011,-182
17:30:44.471011,19199
17:30:44.471011,-1
17:30:44.471011,-178
17:30:44.471011,20991
17:30:44.471011,-1
17:30:44.471011,-180
17:30:44.471011,22015
17:30:44.471011,-1
17:30:44.471011,-166
17:30:44.471011,23295
17:30:44.471011,-1
17:30:44.471011,-163
17:30:45.101885,-178
17:30:45.101885,19711
17:30:45.101885,-1
17:30:45.101885,-173
17:30:45.101885,22783
17:30:45.101885,-1
17:30:45.101885,-147
17:30:45.101885,28927
17:30:45.101885,-1
17:30:45.101885,-173
17:30:45.101885,19711
17:30:45.101885,-1
17:30:45.101885,-168
17:30:45.101885,24063
17:30:45.101885,-1
17:30:45.101885,-173
17:30:45.101885,22015
17:30:45.101885,-1
17:30:45.101885,-163
17:30:45.101885,23295
17:30:45.101885,-1
17:30:45.101885,-159
17:30:45.101885,26367
17:30:45.101885,-1
17:30:45.101885,-161
17:30:45.101885,24575
17:30:45.101885,-1
17:30:45.101885,-166
17:30:45.101885,23295
17:30:45.101885,-1
17:30:45.101885,-159
17:30:45.101885,24063
17:30:45.101885,-1
17:30:45.101885,-163
17:30:45.101885,22783
17:30:45.101885,-1
17:30:45.101885,-168
17:30:45.101885,24575
17:30:45.101885,-1
17:30:45.101885,-166
17:30:45.101885,25087
17:30:45.101885,-1
17:30:45.101885,-163
17:30:45.101885,20991
17:30:45.101885,-1
17:30:45.101885,-166
17:30:45.101885,24575
17:30:45.101885,-1
17:30:45.101885,-156
17:30:45.101885,27647
17:30:45.101885,-1
17:30:45.101885,-152
17:30:45.101885,28159
17:30:45.101885,-1
17:30:45.101885,-159
17:30:45.101885,21503
17:30:45.101885,-1
17:30:45.101885,-171
17:30:45.101885,23295
17:30:45.101885,-1
17:30:45.101885,-166
17:30:45.101885,22783
17:30:45.101885,-1
17:30:45.101885,-168
17:30:45.101885,22783
17:30:45.101885,-1
17:30:45.101885,-199
17:30:45.101885,5631
17:30:45.101885,-1
17:30:45.101885,-232
17:30:45.101885,-26369
17:30:45.101885,-1
17:30:45.101885,142
17:30:45.101885,-13312
17:30:45.101885,0
17:30:45.101885,-7
17:30:45.101885,22783
17:30:45.101885,-1
17:30:45.101885,-168
17:30:45.101885,23295
17:30:45.101885,-1
17:30:45.101885,-197
17:30:45.101885,16639
17:30:45.101885,-1
17:30:45.101885,-166
17:30:45.101885,21503
17:30:45.101885,-1
17:30:45.101885,-175
17:30:45.101885,24063
17:30:45.101885,-1
17:30:45.101885,-171
17:30:45.101885,22783
17:30:45.101885,-1
17:30:45.101885,-161
17:30:45.101885,24575
17:30:45.101885,-1
17:30:45.101885,-163
17:30:45.101885,22783
17:30:45.101885,-1
17:30:45.101885,-152
17:30:45.101885,28159
17:30:45.101885,-1
17:30:45.101885,-156
17:30:45.101885,26879
17:30:45.101885,-1
17:30:45.101885,-152
17:30:45.101885,27647
17:30:45.101885,-1
17:30:45.101885,-140
17:30:45.641012,-142
17:30:45.641012,32511
17:30:45.641012,-1
17:30:45.641012,-125
17:30:45.641012,-32513
17:30:45.641012,-1
17:30:45.641012,-121
17:30:45.641012,-31233
17:30:45.641012,-1
17:30:45.641012,-125
17:30:45.641012,-31745
17:30:45.641012,-1
17:30:45.641012,-130
17:30:45.641012,31743
17:30:45.641012,-1
17:30:45.641012,-137
17:30:45.641012,29951
17:30:45.641012,-1
17:30:45.641012,-128
17:30:45.641012,-26369
17:30:45.641012,-1
17:30:45.641012,-99
17:30:45.641012,28159
17:30:45.641012,-1
17:30:45.641012,-161
17:30:45.641012,31231
17:30:45.641012,-1
17:30:45.641012,-147
17:30:45.641012,26367
17:30:45.641012,-1
17:30:45.641012,-149
17:30:45.641012,24063
17:30:45.641012,-1
17:30:45.641012,-163
17:30:45.641012,24063
17:30:45.641012,-1
17:30:45.641012,-163
17:30:45.641012,26367
17:30:45.641012,-1
17:30:45.641012,-159
17:30:45.641012,23295
17:30:45.641012,-1
17:30:45.641012,-166
17:30:45.641012,23295
17:30:45.641012,-1
17:30:45.641012,-159
17:30:45.641012,25087
17:30:45.641012,-1
17:30:45.641012,-159
17:30:45.641012,24575
17:30:45.641012,-1
17:30:45.641012,-166
17:30:45.641012,24063
17:30:45.641012,-1
17:30:45.641012,-159
17:30:45.641012,29439
17:30:45.641012,-1
17:30:45.641012,-130
17:30:45.641012,28927
17:30:45.641012,-1
17:30:45.641012,-137
17:30:45.641012,-31745
17:30:45.641012,-1
17:30:45.641012,-133
17:30:45.641012,29951
17:30:45.641012,-1
17:30:45.641012,-154
17:30:45.641012,25087
17:30:45.641012,-1
17:30:45.641012,-156
17:30:45.641012,25855
17:30:45.641012,-1
17:30:45.641012,-147
17:30:45.641012,25087
17:30:45.641012,-1
17:30:45.641012,-187
17:30:45.641012,8191
17:30:45.641012,-1
17:30:45.641012,-240
17:30:45.641012,-28929
17:30:45.641012,-1
17:30:45.641012,121
17:30:45.641012,-14592
17:30:45.641012,0
17:30:45.641012,0
17:30:45.641012,15104
17:30:45.641012,-1
17:30:45.641012,-197
17:30:45.641012,17151
17:30:45.641012,-1
17:30:45.641012,-237
17:30:45.641012,9471
17:30:45.641012,-1
17:30:45.641012,-201
17:30:45.641012,11775
17:30:45.641012,-1
17:30:45.641012,-194
17:30:45.641012,21503
17:30:45.641012,-1
17:30:45.641012,-159
17:30:45.641012,25855
17:30:45.641012,-1
17:30:45.641012,-156
17:30:45.641012,27647
17:30:45.641012,-1
17:30:45.641012,-152
17:30:45.641012,28927
17:30:45.641012,-1
17:30:45.641012,-137
17:30:46.226602,-144
17:30:46.226602,29951
17:30:46.226602,-1
17:30:46.226602,-142
17:30:46.226602,29951
17:30:46.226602,-1
17:30:46.226602,-125
17:30:46.226602,-32513
17:30:46.226602,-1
17:30:46.226602,-125
17:30:46.226602,-31233
17:30:46.226602,-1
17:30:46.226602,-128
17:30:46.226602,-30721
17:30:46.226602,-1
17:30:46.226602,-99
17:30:46.226602,-20993
17:30:46.226602,-1
17:30:46.226602,-121
17:30:46.226602,26367
17:30:46.226602,-1
17:30:46.226602,-133
17:30:46.226602,31231
17:30:46.226602,-1
17:30:46.226602,-142
17:30:46.226602,-32513
17:30:46.226602,-1
17:30:46.226602,-130
17:30:46.226602,32511
17:30:46.226602,-1
17:30:46.226602,-125
17:30:46.226602,-31745
17:30:46.226602,-1
17:30:46.226602,-118
17:30:46.226602,-30721
17:30:46.226602,-1
17:30:46.226602,-116
17:30:46.226602,-28929
17:30:46.226602,-1
17:30:46.226602,-121
17:30:46.226602,-28161
17:30:46.226602,-1
17:30:46.226602,-106
17:30:46.226602,-26881
17:30:46.226602,-1
17:30:46.226602,-87
17:30:46.226602,-22017
17:30:46.226602,-1
17:30:46.226602,-99
17:30:46.226602,-24065
17:30:46.226602,-1
17:30:46.226602,-87
17:30:46.226602,-22017
17:30:46.226602,-1
17:30:46.226602,-92
17:30:46.226602,-21505
17:30:46.226602,-1
17:30:46.226602,-87
17:30:46.226602,-24065
17:30:46.226602,-1
17:30:46.226602,-85
17:30:46.226602,-24065
17:30:46.226602,-1
17:30:46.226602,-97
17:30:46.226602,-19713
17:30:46.226602,-1
17:30:46.226602,-80
17:30:46.226602,-19713
17:30:46.226602,-1
17:30:46.226602,-78
17:30:46.226602,-20993
17:30:46.226602,-1
17:30:46.226602,-76
17:30:46.226602,-20225
17:30:46.226602,-1
17:30:46.226602,-97
17:30:46.226602,-24065
17:30:46.226602,-1
17:30:46.226602,-95
17:30:46.226602,-24577
17:30:46.226602,-1
17:30:46.226602,-99
17:30:46.226602,-25089
17:30:46.226602,-1
17:30:46.226602,-114
17:30:46.226602,25087
17:30:46.226602,-1
17:30:46.226602,-182
17:30:46.226602,-28929
17:30:46.226602,-1
17:30:46.226602,95
17:30:46.226602,1792
17:30:46.226602,1
17:30:46.226602,130
17:30:46.226602,-21248
17:30:46.226602,-1
17:30:46.226602,-102
17:30:46.226602,-19201
17:30:46.226602,-1
17:30:46.226602,-106
17:30:46.226602,-28929
17:30:46.226602,-1
17:30:46.226602,-87
17:30:46.226602,-19713
17:30:46.226602,-1
17:30:46.226602,-85
17:30:46.226602,-18433
17:30:46.226602,-1
17:30:46.226602,-57
17:30:46.721320,-57
17:30:46.721320,-12289
17:30:46.721320,-1
17:30:46.721320,-49
17:30:46.721320,-11777
17:30:46.721320,-1
17:30:46.721320,-42
17:30:46.721320,-9473
17:30:46.721320,-1
17:30:46.721320,-21
17:30:46.721320,-3841
17:30:46.721320,-1
17:30:46.721320,-16
17:30:46.721320,-2049
17:30:46.721320,-1
17:30:46.721320,-16
17:30:46.721320,-2561
17:30:46.721320,-1
17:30:46.721320,-4
17:30:46.721320,3071
17:30:46.721320,0
17:30:46.721320,40
17:30:46.721320,3584
17:30:46.721320,0
17:30:46.721320,-14
17:30:46.721320,2047
17:30:46.721320,0
17:30:46.721320,2
17:30:46.721320,-3584
17:30:46.721320,-1
17:30:46.721320,-16
17:30:46.721320,-5121
17:30:46.721320,-1
17:30:46.721320,-14
17:30:46.721320,-3329
17:30:46.721320,-1
17:30:46.721320,-21
17:30:46.721320,-4609
17:30:46.721320,-1
17:30:46.721320,-21
17:30:46.721320,-6401
17:30:46.721320,-1
17:30:46.721320,-35
17:30:46.721320,-7425
17:30:46.721320,-1
17:30:46.721320,-28
17:30:46.721320,-9985
17:30:46.721320,-1
17:30:46.721320,-35
17:30:46.721320,-8705
17:30:46.721320,-1
17:30:46.721320,-40
17:30:46.721320,-6913
17:30:46.721320,-1
17:30:46.721320,-30
17:30:46.721320,-6913
17:30:46.721320,-1
17:30:46.721320,-26
17:30:46.721320,-7425
17:30:46.721320,-1
17:30:46.721320,-21
17:30:46.721320,-5633
17:30:46.721320,-1
17:30:46.721320,-30
17:30:46.721320,-6913
17:30:46.721320,-1
17:30:46.721320,-38
17:30:46.721320,-10497
17:30:46.721320,-1
17:30:46.721320,-45
17:30:46.721320,-10497
17:30:46.721320,-1
17:30:46.721320,-28
17:30:46.721320,-8193
17:30:46.721320,-1
17:30:46.721320,-42
17:30:46.721320,-9473
17:30:46.721320,-1
17:30:46.721320,-40
17:30:46.721320,-14849
17:30:46.721320,-1
17:30:46.721320,-80
17:30:46.721320,-22017
17:30:46.721320,-1
17:30:46.721320,-97
17:30:46.721320,-29953
17:30:46.721320,-1
17:30:46.721320,-118
17:30:46.721320,-30721
17:30:46.721320,-1
17:30:46.721320,-140
17:30:46.721320,20991
17:30:46.721320,-1
17:30:46.721320,-225
17:30:46.721320,12287
17:30:46.721320,-1
17:30:46.721320,-61
17:30:46.721320,-29441
17:30:46.721320,0
17:30:46.721320,147
17:30:46.721320,-19968
17:30:46.721320,-1
17:30:46.721320,-171
17:30:46.721320,-20993
17:30:46.721320,-1
17:30:46.721320,-90
17:30:46.721320,32511
17:30:46.721320,-1
17:30:46.721320,-97
17:30:47.352772,-87
17:30:47.352772,-24065
17:30:47.352772,-1
17:30:47.352772,-78
17:30:47.352772,-16129
17:30:47.352772,-1
17:30:47.352772,-57
17:30:47.352772,-7425
17:30:47.352772,-1
17:30:47.352772,-23
17:30:47.352772,-16641
17:30:47.352772,-1
17:30:47.352772,-76
17:30:47.352772,-13057
17:30:47.352772,-1
17:30:47.352772,-52
17:30:47.352772,-11265
17:30:47.352772,-1
17:30:47.352772,-35
17:30:47.352772,-8193
17:30:47.352772,-1
17:30:47.352772,-14
17:30:47.352772,255
17:30:47.352772,0
17:30:47.352772,7
17:30:47.352772,512
17:30:47.352772,0
17:30:47.352772,-9
17:30:47.352772,255
17:30:47.352772,0
17:30:47.352772,-2
17:30:47.352772,-1537
17:30:47.352772,-1
17:30:47.352772,2
17:30:47.352772,-512
17:30:47.352772,-1
17:30:47.352772,-11
17:30:47.352772,-5121
17:30:47.352772,-1
17:30:47.352772,-33
17:30:47.352772,-9473
17:30:47.352772,-1
17:30:47.352772,-42
17:30:47.352772,-9985
17:30:47.352772,-1
17:30:47.352772,-45
17:30:47.352772,-13057
17:30:47.352772,-1
17:30:47.352772,-57
17:30:47.352772,-17153
17:30:47.352772,-1
17:30:47.352772,-78
17:30:47.352772,-22017
17:30:47.352772,-1
17:30:47.352772,-114
17:30:47.352772,-31745
17:30:47.352772,-1
17:30:47.352772,-128
17:30:47.352772,30719
17:30:47.352772,-1
17:30:47.352772,-144
17:30:47.352772,24063
17:30:47.352772,-1
17:30:47.352772,-168
17:30:47.352772,29439
17:30:47.352772,-1
17:30:47.352772,-121
17:30:47.352772,-23297
17:30:47.352772,-1
17:30:47.352772,-57
17:30:47.352772,-6913
17:30:47.352772,-1
17:30:47.352772,-2
17:30:47.352772,6143
17:30:47.352772,0
17:30:47.352772,54
17:30:47.352772,17408
17:30:47.352772,0
17:30:47.352772,83
17:30:47.352772,26112
17:30:47.352772,0
17:30:47.352772,97
17:30:47.352772,23552
17:30:47.352772,0
17:30:47.352772,92
17:30:47.352772,21760
17:30:47.352772,0
17:30:47.352772,95
17:30:47.352772,22272
17:30:47.352772,0
17:30:47.352772,68
17:30:47.352772,19456
17:30:47.352772,0
17:30:47.352772,76
17:30:47.352772,14592
17:30:47.352772,0
17:30:47.352772,14
17:30:47.352772,2304
17:30:47.352772,0
17:30:47.352772,133
17:30:47.352772,21248
17:30:47.352772,1
17:30:47.352772,392
17:30:47.352772,-15872
17:30:47.352772,0
17:30:47.352772,47
17:30:47.352772,25344
17:30:47.352772,0
17:30:47.352772,109
17:30:47.849376,59
17:30:47.849376,19456
17:30:47.849376,0
17:30:47.849376,97
17:30:47.849376,23040
17:30:47.849376,0
17:30:47.849376,87
17:30:47.849376,21248
17:30:47.849376,0
17:30:47.849376,83
17:30:47.849376,21248
17:30:47.849376,0
17:30:47.849376,95
17:30:47.849376,25344
17:30:47.849376,0
17:30:47.849376,78
17:30:47.849376,20480
17:30:47.849376,0
17:30:47.849376,92
17:30:47.849376,27136
17:30:47.849376,0
17:30:47.849376,149
17:30:47.849376,-26112
17:30:47.849376,0
17:30:47.849376,121
17:30:47.849376,31488
17:30:47.849376,0
17:30:47.849376,142
17:30:47.849376,-28672
17:30:47.849376,0
17:30:47.849376,144
17:30:47.849376,-24320
17:30:47.849376,0
17:30:47.849376,173
17:30:47.849376,-24320
17:30:47.849376,0
17:30:47.849376,161
17:30:47.849376,-23040
17:30:47.849376,0
17:30:47.849376,161
17:30:47.849376,-25600
17:30:47.849376,0
17:30:47.849376,147
17:30:47.849376,-27392
17:30:47.849376,0
17:30:47.849376,154
17:30:47.849376,-26112
17:30:47.849376,0
17:30:47.849376,154
17:30:47.849376,-29696
17:30:47.849376,0
17:30:47.849376,130
17:30:47.849376,32000
17:30:47.849376,0
17:30:47.849376,106
17:30:47.849376,25344
17:30:47.849376,0
17:30:47.849376,83
17:30:47.849376,15616
17:30:47.849376,0
17:30:47.849376,57
17:30:47.849376,8448
17:30:47.849376,0
17:30:47.849376,16
17:30:47.849376,3584
17:30:47.849376,0
17:30:47.849376,-2
17:30:47.849376,-2561
17:30:47.849376,-1
17:30:47.849376,-21
17:30:47.849376,-7425
17:30:47.849376,-1
17:30:47.849376,-28
17:30:47.849376,-6913
17:30:47.849376,-1
17:30:47.849376,-26
17:30:47.849376,-6401
17:30:47.849376,-1
17:30:47.849376,-21
17:30:47.849376,-2049
17:30:47.849376,-1
17:30:47.849376,-14
17:30:47.849376,-2049
17:30:47.849376,-1
17:30:47.849376,-2
17:30:47.849376,-3841
17:30:47.849376,-1
17:30:47.849376,-30
17:30:47.849376,-10497
17:30:47.849376,-1
17:30:47.849376,-35
17:30:47.849376,-5121
17:30:47.849376,-1
17:30:47.849376,-30
17:30:47.849376,-6913
17:30:47.849376,-1
17:30:47.849376,-28
17:30:47.849376,-13057
17:30:47.849376,-1
17:30:47.849376,-87
17:30:47.849376,-29441
17:30:47.849376,-1
17:30:47.849376,-66
17:30:47.849376,30463
17:30:47.849376,0
17:30:47.849376,280
17:30:47.849376,-18944
17:30:47.849376,0
17:30:47.849376,-40
17:30:48.431503,-68
17:30:48.431503,-3329
17:30:48.431503,-1
17:30:48.431503,-68
17:30:48.431503,-26369
17:30:48.431503,-1
17:30:48.431503,-78
17:30:48.431503,-14849
17:30:48.431503,-1
17:30:48.431503,-52
17:30:48.431503,-21505
17:30:48.431503,-1
17:30:48.431503,-106
17:30:48.431503,-22785
17:30:48.431503,-1
17:30:48.431503,-95
17:30:48.431503,-25089
17:30:48.431503,-1
17:30:48.431503,-102
17:30:48.431503,-26369
17:30:48.431503,-1
17:30:48.431503,-106
17:30:48.431503,-29441
17:30:48.431503,-1
17:30:48.431503,-114
17:30:48.431503,-26369
17:30:48.431503,-1
17:30:48.431503,-104
17:30:48.431503,-28161
17:30:48.431503,-1
17:30:48.431503,-118
17:30:48.431503,-28929
17:30:48.431503,-1
17:30:48.431503,-118
17:30:48.431503,-32513
17:30:48.431503,-1
17:30:48.431503,-130
17:30:48.431503,28927
17:30:48.431503,-1
17:30:48.431503,-149
17:30:48.431503,24063
17:30:48.431503,-1
17:30:48.431503,-216
17:30:48.431503,4351
17:30:48.431503,-1
17:30:48.431503,-259
17:30:48.431503,-6401
17:30:48.431503,-2
17:30:48.431503,-275
17:30:48.431503,-4097
17:30:48.431503,-2
17:30:48.431503,-273
17:30:48.431503,-4609
17:30:48.431503,-2
17:30:48.431503,-292
17:30:48.431503,-6401
17:30:48.431503,-2
17:30:48.431503,-251
17:30:48.431503,6399
17:30:48.431503,-1
17:30:48.431503,-230
17:30:48.431503,8191
17:30:48.431503,-1
17:30:48.431503,-201
17:30:48.431503,17151
17:30:48.431503,-1
17:30:48.431503,-187
17:30:48.431503,22783
17:30:48.431503,-1
17:30:48.431503,-161
17:30:48.431503,26367
17:30:48.431503,-1
17:30:48.431503,-154
17:30:48.431503,23295
17:30:48.431503,-1
17:30:48.431503,-159
17:30:48.431503,26367
17:30:48.431503,-1
17:30:48.431503,-166
17:30:48.431503,24575
17:30:48.431503,-1
17:30:48.431503,-159
17:30:48.431503,25855
17:30:48.431503,-1
17:30:48.431503,-161
17:30:48.431503,24063
17:30:48.431503,-1
17:30:48.431503,-168
17:30:48.431503,11775
17:30:48.431503,-1
17:30:48.431503,-223
17:30:48.431503,9983
17:30:48.431503,-1
17:30:48.431503,-242
17:30:48.431503,4351
17:30:48.431503,-1
17:30:48.431503,-244
17:30:48.431503,-513
17:30:48.431503,-2
17:30:48.431503,-263
17:30:48.431503,-15617
17:30:48.431503,-2
17:30:48.431503,-344
17:30:48.431503,-2305
17:30:48.431503,-2
17:30:48.431503,-85
17:30:48.431503,11007
17:30:48.431503,0
17:30:48.431503,-137
17:30:49.016004,-332
17:30:49.016004,-5889
17:30:49.016004,-2
17:30:49.016004,-254
17:30:49.016004,-14337
17:30:49.016004,-2
17:30:49.016004,-330
17:30:49.016004,-13057
17:30:49.016004,-2
17:30:49.016004,-299
17:30:49.016004,-14337
17:30:49.016004,-2
17:30:49.016004,-273
17:30:49.016004,2559
17:30:49.016004,-1
17:30:49.016004,-294
17:30:49.016004,-13057
17:30:49.016004,-2
17:30:49.016004,-304
17:30:49.016004,-8193
17:30:49.016004,-2
17:30:49.016004,-268
17:30:49.016004,-5377
17:30:49.016004,-2
17:30:49.016004,-261
17:30:49.016004,255
17:30:49.016004,-1
17:30:49.016004,-259
17:30:49.016004,6911
17:30:49.016004,-1
17:30:49.016004,-244
17:30:49.016004,3839
17:30:49.016004,-1
17:30:49.016004,-235
17:30:49.016004,255
17:30:49.016004,-1
17:30:49.016004,-235
17:30:49.016004,5119
17:30:49.016004,-1
17:30:49.016004,-242
17:30:49.016004,6911
17:30:49.016004,-1
17:30:49.016004,-256
17:30:49.016004,255
17:30:49.016004,-1
17:30:49.016004,-263
17:30:49.016004,-5377
17:30:49.016004,-2
17:30:49.016004,-266
17:30:49.016004,-8193
17:30:49.016004,-2
17:30:49.016004,-287
17:30:49.016004,-3329
17:30:49.016004,-2
17:30:49.016004,-280
17:30:49.016004,-1537
17:30:49.016004,-2
17:30:49.016004,-270
17:30:49.016004,-5889
17:30:49.016004,-2
17:30:49.016004,-261
17:30:49.016004,-5377
17:30:49.016004,-2
17:30:49.016004,-270
17:30:49.016004,-1537
17:30:49.016004,-2
17:30:49.016004,-270
17:30:49.016004,-513
17:30:49.016004,-2
17:30:49.016004,-273
17:30:49.016004,-2817
17:30:49.016004,-2
17:30:49.016004,-254
17:30:49.016004,-2305
17:30:49.016004,-2
17:30:49.016004,-251
17:30:49.016004,-1537
17:30:49.016004,-2
17:30:49.016004,-275
17:30:49.016004,1535
17:30:49.016004,-1
17:30:49.016004,-256
17:30:49.016004,2559
17:30:49.016004,-1
17:30:49.016004,-249
17:30:49.016004,-4097
17:30:49.016004,-2
17:30:49.016004,-261
17:30:49.016004,-4609
17:30:49.016004,-2
17:30:49.016004,-285
17:30:49.016004,-5889
17:30:49.016004,-2
17:30:49.016004,-299
17:30:49.016004,-10241
17:30:49.016004,-2
17:30:49.016004,-304
17:30:49.016004,-12545
17:30:49.016004,-2
17:30:49.016004,-306
17:30:49.016004,-25345
17:30:49.016004,-2
17:30:49.016004,-377
17:30:49.016004,-22273
17:30:49.016004,-2
17:30:49.016004,-206
17:30:49.016004,-3329
17:30:49.016004,-1
17:30:49.016004,-97
17:30:49.557853,-313
17:30:49.557853,-15617
17:30:49.557853,-2
17:30:49.557853,-266
17:30:49.557853,-10241
17:30:49.557853,-2
17:30:49.557853,-335
17:30:49.557853,-13825
17:30:49.557853,-2
17:30:49.557853,-289
17:30:49.557853,-15105
17:30:49.557853,-2
17:30:49.557853,-301
17:30:49.557853,-7681
17:30:49.557853,-2
17:30:49.557853,-299
17:30:49.557853,-1025
17:30:49.557853,-2
17:30:49.557853,-242
17:30:49.557853,255
17:30:49.557853,-1
17:30:49.557853,-270
17:30:49.557853,-3329
17:30:49.557853,-2
17:30:49.557853,-240
17:30:49.557853,4351
17:30:49.557853,-1
17:30:49.557853,-244
17:30:49.557853,7423
17:30:49.557853,-1
17:30:49.557853,-242
17:30:49.557853,5119
17:30:49.557853,-1
17:30:49.557853,-230
17:30:49.557853,3839
17:30:49.557853,-1
17:30:49.557853,-223
17:30:49.557853,5631
17:30:49.557853,-1
17:30:49.557853,-240
17:30:49.557853,8191
17:30:49.557853,-1
17:30:49.557853,-247
17:30:49.557853,1535
17:30:49.557853,-1
17:30:49.557853,-261
17:30:49.557853,-5889
17:30:49.557853,-2
17:30:49.557853,-275
17:30:49.557853,-8961
17:30:49.557853,-2
17:30:49.557853,-292
17:30:49.557853,-7169
17:30:49.557853,-2
17:30:49.557853,-299
17:30:49.557853,-8193
17:30:49.557853,-2
17:30:49.557853,-299
17:30:49.557853,-10753
17:30:49.557853,-2
17:30:49.557853,-285
17:30:49.557853,-10241
17:30:49.557853,-2
17:30:49.557853,-285
17:30:49.557853,-6401
17:30:49.557853,-2
17:30:49.557853,-294
17:30:49.557853,-5889
17:30:49.557853,-2
17:30:49.557853,-287
17:30:49.557853,-6401
17:30:49.557853,-2
17:30:49.557853,-275
17:30:49.557853,-8193
17:30:49.557853,-2
17:30:49.557853,-280
17:30:49.557853,-7169
17:30:49.557853,-2
17:30:49.557853,-278
17:30:49.557853,255
17:30:49.557853,-1
17:30:49.557853,-275
17:30:49.557853,-2817
17:30:49.557853,-2
17:30:49.557853,-263
17:30:49.557853,-4609
17:30:49.557853,-2
17:30:49.557853,-268
17:30:49.557853,-7169
17:30:49.557853,-2
17:30:49.557853,-287
17:30:49.557853,-7169
17:30:49.557853,-2
17:30:49.557853,-304
17:30:49.557853,-8193
17:30:49.557853,-2
17:30:49.557853,-289
17:30:49.557853,-9473
17:30:49.557853,-2
17:30:49.557853,-301
17:30:49.557853,-25857
17:30:49.557853,-2
17:30:49.557853,-375
17:30:49.557853,-10241
17:30:49.557853,-2
17:30:49.557853,-92
17:30:49.557853,19711
17:30:49.557853,0
17:30:49.557853,-73
17:30:50.097350,-289
17:30:50.097350,-8193
17:30:50.097350,-2
17:30:50.097350,-261
17:30:50.097350,-9473
17:30:50.097350,-2
17:30:50.097350,-308
17:30:50.097350,-7169
17:30:50.097350,-2
17:30:50.097350,-273
17:30:50.097350,-10241
17:30:50.097350,-2
17:30:50.097350,-275
17:30:50.097350,4351
17:30:50.097350,-1
17:30:50.097350,-244
17:30:50.097350,-1025
17:30:50.097350,-2
17:30:50.097350,-268
17:30:50.097350,2559
17:30:50.097350,-1
17:30:50.097350,-237
17:30:50.097350,2559
17:30:50.097350,-1
17:30:50.097350,-228
17:30:50.097350,7423
17:30:50.097350,-1
17:30:50.097350,-223
17:30:50.097350,12287
17:30:50.097350,-1
17:30:50.097350,-225
17:30:50.097350,11263
17:30:50.097350,-1
17:30:50.097350,-209
17:30:50.097350,10495
17:30:50.097350,-1
17:30:50.097350,-192
17:30:50.097350,14335
17:30:50.097350,-1
17:30:50.097350,-199
17:30:50.097350,17919
17:30:50.097350,-1
17:30:50.097350,-209
17:30:50.097350,14335
17:30:50.097350,-1
17:30:50.097350,-206
17:30:50.097350,8191
17:30:50.097350,-1
17:30:50.097350,-211
17:30:50.097350,9983
17:30:50.097350,-1
17:30:50.097350,-218
17:30:50.097350,11263
17:30:50.097350,-1
17:30:50.097350,-216
17:30:50.097350,13055
17:30:50.097350,-1
17:30:50.097350,-216
17:30:50.097350,12287
17:30:50.097350,-1
17:30:50.097350,-199
17:30:50.097350,9983
17:30:50.097350,-1
17:30:50.097350,-209
17:30:50.097350,13055
17:30:50.097350,-1
17:30:50.097350,-209
17:30:50.097350,17919
17:30:50.097350,-1
17:30:50.097350,-194
17:30:50.097350,15359
17:30:50.097350,-1
17:30:50.097350,-197
17:30:50.097350,13055
17:30:50.097350,-1
17:30:50.097350,-190
17:30:50.097350,15359
17:30:50.097350,-1
17:30:50.097350,-204
17:30:50.097350,16127
17:30:50.097350,-1
17:30:50.097350,-201
17:30:50.097350,16639
17:30:50.097350,-1
17:30:50.097350,-194
17:30:50.097350,16127
17:30:50.097350,-1
17:30:50.097350,-171
17:30:50.097350,22015
17:30:50.097350,-1
17:30:50.097350,-159
17:30:50.097350,25855
17:30:50.097350,-1
17:30:50.097350,-173
17:30:50.097350,20991
17:30:50.097350,-1
17:30:50.097350,-194
17:30:50.097350,16127
17:30:50.097350,-1
17:30:50.097350,-180
17:30:50.097350,16639
17:30:50.097350,-1
17:30:50.097350,-182
17:30:50.097350,17151
17:30:50.097350,-1
17:30:50.097350,-213
17:30:50.097350,5119
17:30:50.097350,-1
17:30:50.097350,-278
17:30:50.637394,-230
17:30:50.637394,-6401
17:30:50.637394,-1
17:30:50.637394,171
17:30:50.637394,29184
17:30:50.637394,0
17:30:50.637394,-147
17:30:50.637394,6399
17:30:50.637394,-1
17:30:50.637394,-156
17:30:50.637394,18431
17:30:50.637394,-1
17:30:50.637394,-247
17:30:50.637394,3327
17:30:50.637394,-1
17:30:50.637394,-225
17:30:50.637394,8191
17:30:50.637394,-1
17:30:50.637394,-244
17:30:50.637394,6911
17:30:50.637394,-1
17:30:50.637394,-223
17:30:50.637394,5631
17:30:50.637394,-1
17:30:50.637394,-211
17:30:50.637394,13055
17:30:50.637394,-1
17:30:50.637394,-213
17:30:50.637394,13567
17:30:50.637394,-1
17:30:50.637394,-213
17:30:50.637394,14335
17:30:50.637394,-1
17:30:50.637394,-194
17:30:50.637394,14335
17:30:50.637394,-1
17:30:50.637394,-194
17:30:50.637394,13055
17:30:50.637394,-1
17:30:50.637394,-204
17:30:50.637394,16127
17:30:50.637394,-1
17:30:50.637394,-204
17:30:50.637394,17151
17:30:50.637394,-1
17:30:50.637394,-190
17:30:50.637394,14335
17:30:50.637394,-1
17:30:50.637394,-199
17:30:50.637394,11263
17:30:50.637394,-1
17:30:50.637394,-216
17:30:50.637394,9983
17:30:50.637394,-1
17:30:50.637394,-230
17:30:50.637394,8191
17:30:50.637394,-1
17:30:50.637394,-225
17:30:50.637394,9983
17:30:50.637394,-1
17:30:50.637394,-220
17:30:50.637394,6399
17:30:50.637394,-1
17:30:50.637394,-220
17:30:50.637394,4351
17:30:50.637394,-1
17:30:50.637394,-249
17:30:50.637394,6399
17:30:50.637394,-1
17:30:50.637394,-240
17:30:50.637394,5631
17:30:50.637394,-1
17:30:50.637394,-240
17:30:50.637394,767
17:30:50.637394,-1
17:30:50.637394,-244
17:30:50.637394,2047
17:30:50.637394,-1
17:30:50.637394,-249
17:30:50.637394,3839
17:30:50.637394,-1
17:30:50.637394,-259
17:30:50.637394,-513
17:30:50.637394,-2
17:30:50.637394,-259
17:30:50.637394,-1025
17:30:50.637394,-2
17:30:50.637394,-251
17:30:50.637394,-1025
17:30:50.637394,-2
17:30:50.637394,-261
17:30:50.637394,-1537
17:30:50.637394,-2
17:30:50.637394,-273
17:30:50.637394,-1025
17:30:50.637394,-2
17:30:50.637394,-261
17:30:50.637394,-513
17:30:50.637394,-2
17:30:50.637394,-256
17:30:50.637394,-3329
17:30:50.637394,-2
17:30:50.637394,-261
17:30:50.637394,-2817
17:30:50.637394,-2
17:30:50.637394,-275
17:30:50.637394,-513
17:30:50.637394,-2
17:30:50.637394,-268
17:30:51.221935,-266
17:30:51.221935,255
17:30:51.221935,-1
17:30:51.221935,-263
17:30:51.221935,5119
17:30:51.221935,-1
17:30:51.221935,-218
17:30:51.221935,767
17:30:51.221935,-1
17:30:51.221935,-289
17:30:51.221935,-8961
17:30:51.221935,-2
17:30:51.221935,-275
17:30:51.221935,-5889
17:30:51.221935,-2
17:30:51.221935,-287
17:30:51.221935,-7169
17:30:51.221935,-2
17:30:51.221935,-308
17:30:51.221935,-20993
17:30:51.221935,-2
17:30:51.221935,-363
17:30:51.221935,-17409
17:30:51.221935,-2
17:30:51.221935,-135
17:30:51.221935,6911
17:30:51.221935,0
17:30:51.221935,-99
17:30:51.221935,-17409
17:30:51.221935,-2
17:30:51.221935,-330
17:30:51.221935,1535
17:30:51.221935,-1
17:30:51.221935,-297
17:30:51.221935,-19969
17:30:51.221935,-2
17:30:51.221935,-299
17:30:51.221935,-13057
17:30:51.221935,-2
17:30:51.221935,-318
17:30:51.221935,-8961
17:30:51.221935,-2
17:30:51.221935,-287
17:30:51.221935,-9473
17:30:51.221935,-2
17:30:51.221935,-297
17:30:51.221935,-7169
17:30:51.221935,-2
17:30:51.221935,-275
17:30:51.221935,-7169
17:30:51.221935,-2
17:30:51.221935,-282
17:30:51.221935,-6401
17:30:51.221935,-2
17:30:51.221935,-282
17:30:51.221935,-1537
17:30:51.221935,-2
17:30:51.221935,-266
17:30:51.221935,-1025
17:30:51.221935,-2
17:30:51.221935,-256
17:30:51.221935,-3329
17:30:51.221935,-2
17:30:51.221935,-263
17:30:51.221935,-1537
17:30:51.221935,-2
17:30:51.221935,-261
17:30:51.221935,2559
17:30:51.221935,-1
17:30:51.221935,-259
17:30:51.221935,-2817
17:30:51.221935,-2
17:30:51.221935,-275
17:30:51.221935,-7681
17:30:51.221935,-2
17:30:51.221935,-285
17:30:51.221935,-9473
17:30:51.221935,-2
17:30:51.221935,-308
17:30:51.221935,-13825
17:30:51.221935,-2
17:30:51.221935,-316
17:30:51.221935,-12545
17:30:51.221935,-2
17:30:51.221935,-304
17:30:51.221935,-12033
17:30:51.221935,-2
17:30:51.221935,-301
17:30:51.221935,-15617
17:30:51.221935,-2
17:30:51.221935,-313
17:30:51.221935,-12033
17:30:51.221935,-2
17:30:51.221935,-301
17:30:51.221935,-9473
17:30:51.221935,-2
17:30:51.221935,-297
17:30:51.221935,-8961
17:30:51.221935,-2
17:30:51.221935,-292
17:30:51.221935,-11265
17:30:51.221935,-2
17:30:51.221935,-292
17:30:51.221935,-8961
17:30:51.221935,-2
17:30:51.221935,-299
17:30:51.221935,-10241
17:30:51.221935,-2
17:30:51.221935,-304
17:30:51.807316,-297
17:30:51.807316,-9473
17:30:51.807316,-2
17:30:51.807316,-306
17:30:51.807316,-10753
17:30:51.807316,-2
17:30:51.807316,-299
17:30:51.807316,-9473
17:30:51.807316,-2
17:30:51.807316,-273
17:30:51.807316,255
17:30:51.807316,-1
17:30:51.807316,-259
17:30:51.807316,-8193
17:30:51.807316,-2
17:30:51.807316,-292
17:30:51.807316,-3329
17:30:51.807316,-2
17:30:51.807316,-280
17:30:51.807316,-3329
17:30:51.807316,-2
17:30:51.807316,-263
17:30:51.807316,-4097
17:30:51.807316,-2
17:30:51.807316,-263
17:30:51.807316,-2305
17:30:51.807316,-2
17:30:51.807316,-263
17:30:51.807316,-1537
17:30:51.807316,-2
17:30:51.807316,-287
17:30:51.807316,-7169
17:30:51.807316,-2
17:30:51.807316,-278
17:30:51.807316,-5377
17:30:51.807316,-2
17:30:51.807316,-263
17:30:51.807316,-3329
17:30:51.807316,-2
17:30:51.807316,-292
17:30:51.807316,-18689
17:30:51.807316,-2
17:30:51.807316,-361
17:30:51.807316,-12033
17:30:51.807316,-2
17:30:51.807316,-128
17:30:51.807316,12287
17:30:51.807316,0
17:30:51.807316,-40
17:30:51.807316,-4097
17:30:51.807316,-2
17:30:51.807316,-294
17:30:51.807316,6399
17:30:51.807316,-1
17:30:51.807316,-275
17:30:51.807316,-10753
17:30:51.807316,-2
17:30:51.807316,-275
17:30:51.807316,-1537
17:30:51.807316,-2
17:30:51.807316,-268
17:30:51.807316,-1537
17:30:51.807316,-2
17:30:51.807316,-242
17:30:51.807316,1535
17:30:51.807316,-1
17:30:51.807316,-251
17:30:51.807316,5631
17:30:51.807316,-1
17:30:51.807316,-240
17:30:51.807316,6911
17:30:51.807316,-1
17:30:51.807316,-223
17:30:51.807316,8191
17:30:51.807316,-1
17:30:51.807316,-213
17:30:51.807316,11775
17:30:51.807316,-1
17:30:51.807316,-204
17:30:51.807316,15359
17:30:51.807316,-1
17:30:51.807316,-201
17:30:51.807316,17151
17:30:51.807316,-1
17:30:51.807316,-185
17:30:51.807316,18431
17:30:51.807316,-1
17:30:51.807316,-185
17:30:51.807316,17919
17:30:51.807316,-1
17:30:51.807316,-180
17:30:51.807316,16639
17:30:51.807316,-1
17:30:51.807316,-206
17:30:51.807316,14335
17:30:51.807316,-1
17:30:51.807316,-216
17:30:51.807316,9983
17:30:51.807316,-1
17:30:51.807316,-216
17:30:51.807316,7423
17:30:51.807316,-1
17:30:51.807316,-220
17:30:51.807316,9471
17:30:51.807316,-1
17:30:51.807316,-225
17:30:51.807316,10495
17:30:51.807316,-1
17:30:51.807316,-223
17:30:52.388275,-216
17:30:52.388275,11775
17:30:52.388275,-1
17:30:52.388275,-213
17:30:52.388275,12287
17:30:52.388275,-1
17:30:52.388275,-211
17:30:52.388275,13567
17:30:52.388275,-1
17:30:52.388275,-201
17:30:52.388275,13055
17:30:52.388275,-1
17:30:52.388275,-194
17:30:52.388275,17151
17:30:52.388275,-1
17:30:52.388275,-163
17:30:52.388275,25855
17:30:52.388275,-1
17:30:52.388275,-201
17:30:52.388275,16127
17:30:52.388275,-1
17:30:52.388275,-171
17:30:52.388275,19199
17:30:52.388275,-1
17:30:52.388275,-171
17:30:52.388275,22783
17:30:52.388275,-1
17:30:52.388275,-180
17:30:52.388275,19711
17:30:52.388275,-1
17:30:52.388275,-178
17:30:52.388275,21503
17:30:52.388275,-1
17:30:52.388275,-182
17:30:52.388275,20223
17:30:52.388275,-1
17:30:52.388275,-166
17:30:52.388275,21503
17:30:52.388275,-1
17:30:52.388275,-168
17:30:52.388275,22783
17:30:52.388275,-1
17:30:52.388275,-171
17:30:52.388275,25087
17:30:52.388275,-1
17:30:52.388275,-168
17:30:52.388275,23295
17:30:52.388275,-1
17:30:52.388275,-156
17:30:52.388275,24063
17:30:52.388275,-1
17:30:52.388275,-156
17:30:52.388275,24063
17:30:52.388275,-1
17:30:52.388275,-163
17:30:52.388275,26367
17:30:52.388275,-1
17:30:52.388275,-163
17:30:52.388275,25855
17:30:52.388275,-1
17:30:52.388275,-147
17:30:52.388275,27647
17:30:52.388275,-1
17:30:52.388275,-133
17:30:52.388275,31743
17:30:52.388275,-1
17:30:52.388275,-130
17:30:52.388275,31231
17:30:52.388275,-1
17:30:52.388275,-154
17:30:52.388275,29951
17:30:52.388275,-1
17:30:52.388275,-140
17:30:52.388275,28159
17:30:52.388275,-1
17:30:52.388275,-135
17:30:52.388275,26367
17:30:52.388275,-1
17:30:52.388275,-192
17:30:52.388275,5631
17:30:52.388275,-1
17:30:52.388275,-204
17:30:52.388275,767
17:30:52.388275,0
17:30:52.388275,240
17:30:52.388275,-6656
17:30:52.388275,0
17:30:52.388275,-28
17:30:52.388275,23295
17:30:52.388275,-1
17:30:52.388275,-109
17:30:52.388275,-31233
17:30:52.388275,-1
17:30:52.388275,-171
17:30:52.388275,28927
17:30:52.388275,-1
17:30:52.388275,-144
17:30:52.388275,26879
17:30:52.388275,-1
17:30:52.388275,-147
17:30:52.388275,28927
17:30:52.388275,-1
17:30:52.388275,-128
17:30:52.388275,32511
17:30:52.388275,-1
17:30:52.388275,-130
17:30:52.388275,-30721
17:30:52.388275,-1
17:30:52.388275,-123
17:30:52.928238,-106
17:30:52.928238,-26881
17:30:52.928238,-1
17:30:52.928238,-109
17:30:52.928238,-25089
17:30:52.928238,-1
17:30:52.928238,-106
17:30:52.928238,-23297
17:30:52.928238,-1
17:30:52.928238,-80
17:30:52.928238,-21505
17:30:52.928238,-1
17:30:52.928238,-76
17:30:52.928238,-19201
17:30:52.928238,-1
17:30:52.928238,-73
17:30:52.928238,-19201
17:30:52.928238,-1
17:30:52.928238,-73
17:30:52.928238,-8705
17:30:52.928238,-1
17:30:52.928238,-47
17:30:52.928238,-25089
17:30:52.928238,-1
17:30:52.928238,-102
17:30:52.928238,-24577
17:30:52.928238,-1
17:30:52.928238,-99
17:30:52.928238,-25857
17:30:52.928238,-1
17:30:52.928238,-114
17:30:52.928238,-26881
17:30:52.928238,-1
17:30:52.928238,-111
17:30:52.928238,-27649
17:30:52.928238,-1
17:30:52.928238,-104
17:30:52.928238,-28929
17:30:52.928238,-1
17:30:52.928238,-104
17:30:52.928238,-27649
17:30:52.928238,-1
17:30:52.928238,-114
17:30:52.928238,-26369
17:30:52.928238,-1
17:30:52.928238,-109
17:30:52.928238,-25089
17:30:52.928238,-1
17:30:52.928238,-104
17:30:52.928238,-29953
17:30:52.928238,-1
17:30:52.928238,-102
17:30:52.928238,-26881
17:30:52.928238,-1
17:30:52.928238,-104
17:30:52.928238,-24577
17:30:52.928238,-1
17:30:52.928238,-111
17:30:52.928238,-26369
17:30:52.928238,-1
17:30:52.928238,-116
17:30:52.928238,-30721
17:30:52.928238,-1
17:30:52.928238,-102
17:30:52.928238,-29441
17:30:52.928238,-1
17:30:52.928238,-114
17:30:52.928238,-25857
17:30:52.928238,-1
17:30:52.928238,-106
17:30:52.928238,-25089
17:30:52.928238,-1
17:30:52.928238,-99
17:30:52.928238,-25089
17:30:52.928238,-1
17:30:52.928238,-99
17:30:52.928238,-28161
17:30:52.928238,-1
17:30:52.928238,-97
17:30:52.928238,-24577
17:30:52.928238,-1
17:30:52.928238,-99
17:30:52.928238,-22785
17:30:52.928238,-1
17:30:52.928238,-106
17:30:52.928238,-25857
17:30:52.928238,-1
17:30:52.928238,-97
17:30:52.928238,-26369
17:30:52.928238,-1
17:30:52.928238,-87
17:30:52.928238,-24577
17:30:52.928238,-1
17:30:52.928238,-104
17:30:52.928238,-24065
17:30:52.928238,-1
17:30:52.928238,-104
17:30:52.928238,-24065
17:30:52.928238,-1
17:30:52.928238,-92
17:30:52.928238,-25857
17:30:52.928238,-1
17:30:52.928238,-97
17:30:52.928238,-26369
17:30:52.928238,-1
17:30:52.928238,-92
17:30:52.928238,-22017
17:30:52.928238,-1
17:30:52.928238,-99
17:30:53.472653,-87
17:30:53.472653,-22017
17:30:53.472653,-1
17:30:53.472653,-92
17:30:53.472653,-24065
17:30:53.472653,-1
17:30:53.472653,-104
17:30:53.472653,-22017
17:30:53.472653,-1
17:30:53.472653,-92
17:30:53.472653,-26369
17:30:53.472653,-1
17:30:53.472653,-92
17:30:53.472653,-25857
17:30:53.472653,-1
17:30:53.472653,-76
17:30:53.472653,-11777
17:30:53.472653,-1
17:30:53.472653,-87
17:30:53.472653,-26881
17:30:53.472653,-1
17:30:53.472653,-95
17:30:53.472653,-22017
17:30:53.472653,-1
17:30:53.472653,-80
17:30:53.472653,-20993
17:30:53.472653,-1
17:30:53.472653,-78
17:30:53.472653,-22017
17:30:53.472653,-1
17:30:53.472653,-99
17:30:53.472653,-24065
17:30:53.472653,-1
17:30:53.472653,-106
17:30:53.472653,-25089
17:30:53.472653,-1
17:30:53.472653,-99
17:30:53.472653,-30721
17:30:53.472653,-1
17:30:53.472653,-121
17:30:53.472653,25855
17:30:53.472653,-1
17:30:53.472653,-201
17:30:53.472653,29951
17:30:53.472653,-1
17:30:53.472653,66
17:30:53.472653,13312
17:30:53.472653,1
17:30:53.472653,275
17:30:53.472653,1792
17:30:53.472653,0
17:30:53.472653,-118
17:30:53.472653,-25089
17:30:53.472653,-1
17:30:53.472653,-111
17:30:53.472653,28159
17:30:53.472653,-1
17:30:53.472653,-142
17:30:53.472653,-28161
17:30:53.472653,-1
17:30:53.472653,-125
17:30:53.472653,31231
17:30:53.472653,-1
17:30:53.472653,-121
17:30:53.472653,-31745
17:30:53.472653,-1
17:30:53.472653,-116
17:30:53.472653,-26881
17:30:53.472653,-1
17:30:53.472653,-106
17:30:53.472653,-23297
17:30:53.472653,-1
17:30:53.472653,-99
17:30:53.472653,-24065
17:30:53.472653,-1
17:30:53.472653,-90
17:30:53.472653,-24065
17:30:53.472653,-1
17:30:53.472653,-80
17:30:53.472653,-21505
17:30:53.472653,-1
17:30:53.472653,-87
17:30:53.472653,-19713
17:30:53.472653,-1
17:30:53.472653,-87
17:30:53.472653,-19201
17:30:53.472653,-1
17:30:53.472653,-73
17:30:53.472653,-22017
17:30:53.472653,-1
17:30:53.472653,-76
17:30:53.472653,-19713
17:30:53.472653,-1
17:30:53.472653,-78
17:30:53.472653,-20225
17:30:53.472653,-1
17:30:53.472653,-99
17:30:53.472653,-24065
17:30:53.472653,-1
17:30:53.472653,-104
17:30:53.472653,-26369
17:30:53.472653,-1
17:30:53.472653,-87
17:30:53.472653,-28161
17:30:53.472653,-1
17:30:53.472653,-114
17:30:53.472653,-26369
17:30:53.472653,-1
17:30:53.472653,-116
17:30:54.013076,-111
17:30:54.013076,-28929
17:30:54.013076,-1
17:30:54.013076,-109
17:30:54.013076,-28929
17:30:54.013076,-1
17:30:54.013076,-130
17:30:54.013076,-29441
17:30:54.013076,-1
17:30:54.013076,-121
17:30:54.013076,-28929
17:30:54.013076,-1
17:30:54.013076,-73
17:30:54.013076,-24577
17:30:54.013076,-1
17:30:54.013076,-130
17:30:54.013076,-31233
17:30:54.013076,-1
17:30:54.013076,-123
17:30:54.013076,-30721
17:30:54.013076,-1
17:30:54.013076,-125
17:30:54.013076,-31745
17:30:54.013076,-1
17:30:54.013076,-123
17:30:54.013076,32511
17:30:54.013076,-1
17:30:54.013076,-123
17:30:54.013076,31743
17:30:54.013076,-1
17:30:54.013076,-135
17:30:54.013076,-30721
17:30:54.013076,-1
17:30:54.013076,-137
17:30:54.013076,29951
17:30:54.013076,-1
17:30:54.013076,-137
17:30:54.013076,27647
17:30:54.013076,-1
17:30:54.013076,-137
17:30:54.013076,28927
17:30:54.013076,-1
17:30:54.013076,-142
17:30:54.013076,31231
17:30:54.013076,-1
17:30:54.013076,-149
17:30:54.013076,29951
17:30:54.013076,-1
17:30:54.013076,-144
17:30:54.013076,26879
17:30:54.013076,-1
17:30:54.013076,-137
17:30:54.013076,27647
17:30:54.013076,-1
17:30:54.013076,-152
17:30:54.013076,28927
17:30:54.013076,-1
17:30:54.013076,-156
17:30:54.013076,26367
17:30:54.013076,-1
17:30:54.013076,-159
17:30:54.013076,25855
17:30:54.013076,-1
17:30:54.013076,-152
17:30:54.013076,24575
17:30:54.013076,-1
17:30:54.013076,-159
17:30:54.013076,24575
17:30:54.013076,-1
17:30:54.013076,-154
17:30:54.013076,29439
17:30:54.013076,-1
17:30:54.013076,-161
17:30:54.013076,26367
17:30:54.013076,-1
17:30:54.013076,-149
17:30:54.013076,25087
17:30:54.013076,-1
17:30:54.013076,-135
17:30:54.013076,31231
17:30:54.013076,-1
17:30:54.013076,-144
17:30:54.013076,30719
17:30:54.013076,-1
17:30:54.013076,-152
17:30:54.013076,26367
17:30:54.013076,-1
17:30:54.013076,-161
17:30:54.013076,20991
17:30:54.013076,-1
17:30:54.013076,-168
17:30:54.013076,22783
17:30:54.013076,-1
17:30:54.013076,-173
17:30:54.013076,18431
17:30:54.013076,-1
17:30:54.013076,-204
17:30:54.013076,5631
17:30:54.013076,-1
17:30:54.013076,-273
17:30:54.013076,16639
17:30:54.013076,-1
17:30:54.013076,33
17:30:54.013076,-21248
17:30:54.013076,0
17:30:54.013076,30
17:30:54.013076,15104
17:30:54.013076,-1
17:30:54.013076,-206
17:30:54.595983,-147
17:30:54.595983,13055
17:30:54.595983,-1
17:30:54.595983,-223
17:30:54.595983,17919
17:30:54.595983,-1
17:30:54.595983,-190
17:30:54.595983,24063
17:30:54.595983,-1
17:30:54.595983,-159
17:30:54.595983,16639
17:30:54.595983,-1
17:30:54.595983,-190
17:30:54.595983,20991
17:30:54.595983,-1
17:30:54.595983,-168
17:30:54.595983,21503
17:30:54.595983,-1
17:30:54.595983,-173
17:30:54.595983,24063
17:30:54.595983,-1
17:30:54.595983,-173
17:30:54.595983,23295
17:30:54.595983,-1
17:30:54.595983,-154
17:30:54.595983,25855
17:30:54.595983,-1
17:30:54.595983,-149
17:30:54.595983,24575
17:30:54.595983,-1
17:30:54.595983,-159
17:30:54.595983,29951
17:30:54.595983,-1
17:30:54.595983,-147
17:30:54.595983,28159
17:30:54.595983,-1
17:30:54.595983,-154
17:30:54.595983,24063
17:30:54.595983,-1
17:30:54.595983,-152
17:30:54.595983,25087
17:30:54.595983,-1
17:30:54.595983,-161
17:30:54.595983,21503
17:30:54.595983,-1
17:30:54.595983,-194
17:30:54.595983,18431
17:30:54.595983,-1
17:30:54.595983,-190
17:30:54.595983,14847
17:30:54.595983,-1
17:30:54.595983,-187
17:30:54.595983,15359
17:30:54.595983,-1
