timestamp,ecg
12:37:17.954971,7
12:37:17.954971,-27904
12:37:17.954971,-1
12:37:17.954971,-74
12:37:17.954971,-12545
12:37:17.954971,-1
12:37:17.954971,-74
12:37:17.954971,-14849
12:37:17.954971,-1
12:37:17.954971,-47
12:37:17.954971,-12545
12:37:17.954971,-1
12:37:17.954971,-38
12:37:17.954971,-6401
12:37:17.954971,-1
12:37:17.954971,-7
12:37:17.954971,255
12:37:17.954971,0
12:37:17.954971,-4
12:37:17.954971,767
12:37:17.954971,0
12:37:17.954971,0
12:37:17.954971,1024
12:37:17.954971,0
12:37:17.954971,19
12:37:17.954971,5376
12:37:17.954971,0
12:37:17.954971,28
12:37:17.954971,8448
12:37:17.954971,0
12:37:17.954971,38
12:37:17.954971,12032
12:37:17.954971,0
12:37:17.954971,42
12:37:17.954971,12800
12:37:17.954971,0
12:37:17.954971,64
12:37:17.954971,16384
12:37:17.954971,0
12:37:17.954971,57
12:37:17.954971,11520
12:37:17.954971,0
12:37:17.954971,40
12:37:17.954971,11520
12:37:17.954971,0
12:37:17.954971,38
12:37:17.954971,10240
12:37:17.954971,0
12:37:17.954971,40
12:37:17.954971,8960
12:37:17.954971,0
12:37:17.954971,38
12:37:17.954971,8448
12:37:17.954971,0
12:37:17.954971,38
12:37:17.954971,8960
12:37:17.954971,0
12:37:17.954971,38
12:37:17.954971,13824
12:37:17.954971,0
12:37:17.954971,50
12:37:17.954971,10240
12:37:17.954971,0
12:37:17.954971,40
12:37:17.954971,7936
12:37:17.954971,0
12:37:17.954971,28
12:37:17.954971,6656
12:37:17.954971,0
12:37:17.954971,21
12:37:17.954971,5888
12:37:17.954971,0
12:37:17.954971,21
12:37:17.954971,2816
12:37:17.954971,0
12:37:17.954971,-9
12:37:17.954971,-3329
12:37:17.954971,-1
12:37:17.954971,7
12:37:17.954971,0
12:37:17.954971,0
12:37:17.954971,-9
12:37:17.954971,-2049
12:37:17.954971,-1
12:37:17.954971,-28
12:37:17.954971,-8705
12:37:17.954971,-1
12:37:17.954971,-47
12:37:17.954971,-13569
12:37:17.954971,-1
12:37:17.954971,-35
12:37:17.954971,-8193
12:37:17.954971,-1
12:37:17.954971,-33
12:37:17.954971,-9985
12:37:17.954971,-1
12:37:17.954971,-62
12:37:17.954971,-19201
12:37:17.954971,-1
12:37:17.954971,-81
12:37:17.954971,-14337
12:37:17.954971,-1
12:37:17.954971,-38
12:37:17.954971,-14337
12:37:17.954971,-1
12:37:17.954971,-42
12:37:17.954971,-2049
12:37:17.954971,-1
12:37:17.954971,-33
12:37:18.500912,-64
12:37:18.500912,-17921
12:37:18.500912,-1
12:37:18.500912,-69
12:37:18.500912,-13569
12:37:18.500912,-1
12:37:18.500912,-64
12:37:18.500912,-23553
12:37:18.500912,-1
12:37:18.500912,-88
12:37:18.500912,-12545
12:37:18.500912,-1
12:37:18.500912,-38
12:37:18.500912,-14337
12:37:18.500912,-1
12:37:18.500912,-69
12:37:18.500912,-21505
12:37:18.500912,-1
12:37:18.500912,-71
12:37:18.500912,-13057
12:37:18.500912,-1
12:37:18.500912,-9
12:37:18.500912,27647
12:37:18.500912,1
12:37:18.500912,955
12:37:18.500912,-21248
12:37:18.500912,3
12:37:18.500912,257
12:37:18.500912,30720
12:37:18.500912,-1
12:37:18.500912,-45
12:37:18.500912,-9985
12:37:18.500912,-1
12:37:18.500912,-164
12:37:18.500912,20735
12:37:18.500912,-1
12:37:18.500912,-169
12:37:18.500912,11007
12:37:18.500912,-1
12:37:18.500912,-214
12:37:18.500912,16383
12:37:18.500912,-1
12:37:18.500912,-193
12:37:18.500912,22015
12:37:18.500912,-1
12:37:18.500912,-157
12:37:18.500912,15103
12:37:18.500912,-1
12:37:18.500912,-207
12:37:18.500912,23807
12:37:18.500912,-1
12:37:18.500912,-164
12:37:18.500912,18175
12:37:18.500912,-1
12:37:18.500912,-169
12:37:18.500912,25599
12:37:18.500912,-1
12:37:18.500912,-152
12:37:18.500912,29183
12:37:18.500912,-1
12:37:18.500912,-145
12:37:18.500912,29951
12:37:18.500912,-1
12:37:18.500912,-121
12:37:18.500912,-28929
12:37:18.500912,-1
12:37:18.500912,-117
12:37:18.500912,-30721
12:37:18.500912,-1
12:37:18.500912,-133
12:37:18.500912,-31489
12:37:18.500912,-1
12:37:18.500912,-97
12:37:18.500912,-25345
12:37:18.500912,-1
12:37:18.500912,-126
12:37:18.500912,26879
12:37:18.500912,-1
12:37:18.500912,-157
12:37:18.500912,28671
12:37:18.500912,-1
12:37:18.500912,-133
12:37:18.500912,-30721
12:37:18.500912,-1
12:37:18.500912,-124
12:37:18.500912,30463
12:37:18.500912,-1
12:37:18.500912,-133
12:37:18.500912,32255
12:37:18.500912,-1
12:37:18.500912,-160
12:37:18.500912,19967
12:37:18.500912,-1
12:37:18.500912,-162
12:37:18.500912,23807
12:37:18.500912,-1
12:37:18.500912,-174
12:37:18.500912,23039
12:37:18.500912,-1
12:37:18.500912,-188
12:37:18.500912,12799
12:37:18.500912,-1
12:37:18.500912,-186
12:37:18.500912,21247
12:37:18.500912,-1
12:37:18.500912,-174
12:37:18.500912,19967
12:37:18.500912,-1
12:37:18.500912,-193
12:37:19.046608,-203
12:37:19.046608,13823
12:37:19.046608,-1
12:37:19.046608,-205
12:37:19.046608,12031
12:37:19.046608,-1
12:37:19.046608,-207
12:37:19.046608,15103
12:37:19.046608,-1
12:37:19.046608,-191
12:37:19.046608,13311
12:37:19.046608,-1
12:37:19.046608,-229
12:37:19.046608,7167
12:37:19.046608,-1
12:37:19.046608,-207
12:37:19.046608,16895
12:37:19.046608,-1
12:37:19.046608,-179
12:37:19.046608,23039
12:37:19.046608,-1
12:37:19.046608,-167
12:37:19.046608,19967
12:37:19.046608,-1
12:37:19.046608,-169
12:37:19.046608,26111
12:37:19.046608,-1
12:37:19.046608,-169
12:37:19.046608,20735
12:37:19.046608,-1
12:37:19.046608,-167
12:37:19.046608,24319
12:37:19.046608,-1
12:37:19.046608,-164
12:37:19.046608,23039
12:37:19.046608,-1
12:37:19.046608,-174
12:37:19.046608,16895
12:37:19.046608,-1
12:37:19.046608,-193
12:37:19.046608,22015
12:37:19.046608,-1
12:37:19.046608,-169
12:37:19.046608,17663
12:37:19.046608,-1
12:37:19.046608,-188
12:37:19.046608,17663
12:37:19.046608,-1
12:37:19.046608,-203
12:37:19.046608,-1537
12:37:19.046608,-1
12:37:19.046608,578
12:37:19.046608,-17152
12:37:19.046608,3
12:37:19.046608,518
12:37:19.046608,-28672
12:37:19.046608,-1
12:37:19.046608,-200
12:37:19.046608,-29697
12:37:19.046608,-1
12:37:19.046608,-231
12:37:19.046608,-16129
12:37:19.046608,-2
12:37:19.046608,-289
12:37:19.046608,-8705
12:37:19.046608,-2
12:37:19.046608,-317
12:37:19.046608,-12289
12:37:19.046608,-2
12:37:19.046608,-284
12:37:19.046608,-6913
12:37:19.046608,-2
12:37:19.046608,-279
12:37:19.046608,-5633
12:37:19.046608,-2
12:37:19.046608,-289
12:37:19.046608,-5633
12:37:19.046608,-2
12:37:19.046608,-269
12:37:19.046608,-9217
12:37:19.046608,-2
12:37:19.046608,-298
12:37:19.046608,-3841
12:37:19.046608,-2
12:37:19.046608,-274
12:37:19.046608,-6913
12:37:19.046608,-2
12:37:19.046608,-267
12:37:19.046608,511
12:37:19.046608,-1
12:37:19.046608,-241
12:37:19.046608,8959
12:37:19.046608,-1
12:37:19.046608,-229
12:37:19.046608,5887
12:37:19.046608,-1
12:37:19.046608,-207
12:37:19.046608,18175
12:37:19.046608,-1
12:37:19.046608,-186
12:37:19.046608,20735
12:37:19.046608,-1
12:37:19.046608,-155
12:37:19.046608,24319
12:37:19.046608,-1
12:37:19.046608,-171
12:37:19.046608,26879
12:37:19.046608,-1
12:37:19.046608,-138
12:37:19.584582,-148
12:37:19.584582,27903
12:37:19.584582,-1
12:37:19.584582,-140
12:37:19.584582,29951
12:37:19.584582,-1
12:37:19.584582,-136
12:37:19.584582,32255
12:37:19.584582,-1
12:37:19.584582,-143
12:37:19.584582,28671
12:37:19.584582,-1
12:37:19.584582,-117
12:37:19.584582,-24065
12:37:19.584582,-1
12:37:19.584582,-95
12:37:19.584582,-20993
12:37:19.584582,-1
12:37:19.584582,-69
12:37:19.584582,-16641
12:37:19.584582,-1
12:37:19.584582,-74
12:37:19.584582,-17921
12:37:19.584582,-1
12:37:19.584582,-62
12:37:19.584582,-14337
12:37:19.584582,-1
12:37:19.584582,-45
12:37:19.584582,-4609
12:37:19.584582,-1
12:37:19.584582,4
12:37:19.584582,0
12:37:19.584582,0
12:37:19.584582,-7
12:37:19.584582,3839
12:37:19.584582,0
12:37:19.584582,40
12:37:19.584582,10240
12:37:19.584582,0
12:37:19.584582,40
12:37:19.584582,14592
12:37:19.584582,0
12:37:19.584582,76
12:37:19.584582,19968
12:37:19.584582,0
12:37:19.584582,81
12:37:19.584582,26880
12:37:19.584582,0
12:37:19.584582,131
12:37:19.584582,-27136
12:37:19.584582,0
12:37:19.584582,176
12:37:19.584582,-17920
12:37:19.584582,0
12:37:19.584582,171
12:37:19.584582,-21760
12:37:19.584582,0
12:37:19.584582,181
12:37:19.584582,-22272
12:37:19.584582,0
12:37:19.584582,155
12:37:19.584582,-26624
12:37:19.584582,0
12:37:19.584582,155
12:37:19.584582,-28416
12:37:19.584582,0
12:37:19.584582,131
12:37:19.584582,30976
12:37:19.584582,0
12:37:19.584582,117
12:37:19.584582,27904
12:37:19.584582,0
12:37:19.584582,102
12:37:19.584582,24832
12:37:19.584582,0
12:37:19.584582,81
12:37:19.584582,10752
12:37:19.584582,0
12:37:19.584582,28
12:37:19.584582,7168
12:37:19.584582,1
12:37:19.584582,917
12:37:19.584582,-12288
12:37:19.584582,4
12:37:19.584582,714
12:37:19.584582,31744
12:37:19.584582,0
12:37:19.584582,57
12:37:19.584582,23808
12:37:19.584582,0
12:37:19.584582,-40
12:37:19.584582,-27649
12:37:19.584582,-1
12:37:19.584582,-76
12:37:19.584582,-20481
12:37:19.584582,-1
12:37:19.584582,-100
12:37:19.584582,-22273
12:37:19.584582,-1
12:37:19.584582,-78
12:37:19.584582,-19713
12:37:19.584582,-1
12:37:19.584582,-76
12:37:19.584582,-16129
12:37:19.584582,-1
12:37:19.584582,-59
12:37:19.584582,-16129
12:37:19.584582,-1
12:37:19.584582,-62
12:37:20.168206,-64
12:37:20.168206,-17409
12:37:20.168206,-1
12:37:20.168206,-66
12:37:20.168206,-17409
12:37:20.168206,-1
12:37:20.168206,-57
12:37:20.168206,-6913
12:37:20.168206,-1
12:37:20.168206,-26
12:37:20.168206,-8705
12:37:20.168206,-1
12:37:20.168206,-26
12:37:20.168206,-769
12:37:20.168206,-1
12:37:20.168206,14
12:37:20.168206,7936
12:37:20.168206,0
12:37:20.168206,40
12:37:20.168206,12032
12:37:20.168206,0
12:37:20.168206,57
12:37:20.168206,18176
12:37:20.168206,0
12:37:20.168206,85
12:37:20.168206,22528
12:37:20.168206,0
12:37:20.168206,85
12:37:20.168206,22528
12:37:20.168206,0
12:37:20.168206,88
12:37:20.168206,21760
12:37:20.168206,0
12:37:20.168206,85
12:37:20.168206,21760
12:37:20.168206,0
12:37:20.168206,85
12:37:20.168206,22528
12:37:20.168206,0
12:37:20.168206,88
12:37:20.168206,21760
12:37:20.168206,0
12:37:20.168206,88
12:37:20.168206,18944
12:37:20.168206,0
12:37:20.168206,45
12:37:20.168206,13824
12:37:20.168206,0
12:37:20.168206,97
12:37:20.168206,32256
12:37:20.168206,0
12:37:20.168206,128
12:37:20.168206,30976
12:37:20.168206,0
12:37:20.168206,117
12:37:20.168206,29952
12:37:20.168206,0
12:37:20.168206,114
12:37:20.168206,30976
12:37:20.168206,0
12:37:20.168206,131
12:37:20.168206,-30720
12:37:20.168206,0
12:37:20.168206,136
12:37:20.168206,-32768
12:37:20.168206,0
12:37:20.168206,119
12:37:20.168206,29952
12:37:20.168206,0
12:37:20.168206,121
12:37:20.168206,31744
12:37:20.168206,0
12:37:20.168206,131
12:37:20.168206,-27648
12:37:20.168206,0
12:37:20.168206,152
12:37:20.168206,-25856
12:37:20.168206,0
12:37:20.168206,164
12:37:20.168206,-26624
12:37:20.168206,0
12:37:20.168206,140
12:37:20.168206,-28928
12:37:20.168206,0
12:37:20.168206,150
12:37:20.168206,-25856
12:37:20.168206,0
12:37:20.168206,155
12:37:20.168206,-27648
12:37:20.168206,0
12:37:20.168206,148
12:37:20.168206,-25856
12:37:20.168206,0
12:37:20.168206,155
12:37:20.168206,-27648
12:37:20.168206,0
12:37:20.168206,148
12:37:20.168206,-27136
12:37:20.168206,0
12:37:20.168206,117
12:37:20.168206,24320
12:37:20.168206,0
12:37:20.168206,367
12:37:20.168206,-1792
12:37:20.168206,3
12:37:20.168206,1289
12:37:20.168206,-7680
12:37:20.168206,2
12:37:20.168206,176
12:37:20.798693,131
12:37:20.798693,-25344
12:37:20.798693,0
12:37:20.798693,28
12:37:20.798693,-9728
12:37:20.798693,-1
12:37:20.798693,-11
12:37:20.798693,-3329
12:37:20.798693,-1
12:37:20.798693,-23
12:37:20.798693,255
12:37:20.798693,0
12:37:20.798693,26
12:37:20.798693,8448
12:37:20.798693,0
12:37:20.798693,26
12:37:20.798693,6656
12:37:20.798693,0
12:37:20.798693,28
12:37:20.798693,7168
12:37:20.798693,0
12:37:20.798693,33
12:37:20.798693,7936
12:37:20.798693,0
12:37:20.798693,28
12:37:20.798693,10240
12:37:20.798693,0
12:37:20.798693,52
12:37:20.798693,13824
12:37:20.798693,0
12:37:20.798693,64
12:37:20.798693,17664
12:37:20.798693,0
12:37:20.798693,64
12:37:20.798693,19968
12:37:20.798693,0
12:37:20.798693,102
12:37:20.798693,28672
12:37:20.798693,0
12:37:20.798693,124
12:37:20.798693,-28416
12:37:20.798693,0
12:37:20.798693,157
12:37:20.798693,-23552
12:37:20.798693,0
12:37:20.798693,174
12:37:20.798693,-20480
12:37:20.798693,0
12:37:20.798693,183
12:37:20.798693,-16640
12:37:20.798693,0
12:37:20.798693,186
12:37:20.798693,-18688
12:37:20.798693,0
12:37:20.798693,188
12:37:20.798693,-17408
12:37:20.798693,0
12:37:20.798693,188
12:37:20.798693,-18688
12:37:20.798693,0
12:37:20.798693,167
12:37:20.798693,-24576
12:37:20.798693,0
12:37:20.798693,164
12:37:20.798693,-24064
12:37:20.798693,0
12:37:20.798693,157
12:37:20.798693,-24576
12:37:20.798693,0
12:37:20.798693,157
12:37:20.798693,-26624
12:37:20.798693,0
12:37:20.798693,157
12:37:20.798693,-24064
12:37:20.798693,0
12:37:20.798693,164
12:37:20.798693,-20992
12:37:20.798693,0
12:37:20.798693,174
12:37:20.798693,-25856
12:37:20.798693,0
12:37:20.798693,145
12:37:20.798693,-25344
12:37:20.798693,0
12:37:20.798693,171
12:37:20.798693,-22784
12:37:20.798693,0
12:37:20.798693,155
12:37:20.798693,-28928
12:37:20.798693,0
12:37:20.798693,138
12:37:20.798693,-27136
12:37:20.798693,0
12:37:20.798693,169
12:37:20.798693,-19712
12:37:20.798693,0
12:37:20.798693,176
12:37:20.798693,-22272
12:37:20.798693,0
12:37:20.798693,169
12:37:20.798693,-22784
12:37:20.798693,0
12:37:20.798693,152
12:37:20.798693,-26624
12:37:20.798693,0
12:37:20.798693,160
12:37:20.798693,-25344
12:37:20.798693,0
12:37:20.798693,155
12:37:21.336376,155
12:37:21.336376,-24576
12:37:21.336376,0
12:37:21.336376,157
12:37:21.336376,-27136
12:37:21.336376,0
12:37:21.336376,152
12:37:21.336376,-25344
12:37:21.336376,0
12:37:21.336376,143
12:37:21.336376,26112
12:37:21.336376,0
12:37:21.336376,133
12:37:21.336376,5888
12:37:21.336376,2
12:37:21.336376,1179
12:37:21.336376,-18944
12:37:21.336376,4
12:37:21.336376,513
12:37:21.336376,23808
12:37:21.336376,0
12:37:21.336376,164
12:37:21.336376,-25856
12:37:21.336376,0
12:37:21.336376,14
12:37:21.336376,0
12:37:21.336376,0
12:37:21.336376,42
12:37:21.336376,6656
12:37:21.336376,0
12:37:21.336376,9
12:37:21.336376,5376
12:37:21.336376,0
12:37:21.336376,31
12:37:21.336376,7168
12:37:21.336376,0
12:37:21.336376,31
12:37:21.336376,8448
12:37:21.336376,0
12:37:21.336376,33
12:37:21.336376,6656
12:37:21.336376,0
12:37:21.336376,26
12:37:21.336376,6656
12:37:21.336376,0
12:37:21.336376,23
12:37:21.336376,6656
12:37:21.336376,0
12:37:21.336376,38
12:37:21.336376,11520
12:37:21.336376,0
12:37:21.336376,50
12:37:21.336376,14592
12:37:21.336376,0
12:37:21.336376,69
12:37:21.336376,19456
12:37:21.336376,0
12:37:21.336376,88
12:37:21.336376,27392
12:37:21.336376,0
12:37:21.336376,114
12:37:21.336376,28672
12:37:21.336376,0
12:37:21.336376,124
12:37:21.336376,-30720
12:37:21.336376,0
12:37:21.336376,133
12:37:21.336376,-32768
12:37:21.336376,0
12:37:21.336376,128
12:37:21.336376,-30208
12:37:21.336376,0
12:37:21.336376,148
12:37:21.336376,-30208
12:37:21.336376,0
12:37:21.336376,131
12:37:21.336376,-28416
12:37:21.336376,0
12:37:21.336376,155
12:37:21.336376,-29696
12:37:21.336376,0
12:37:21.336376,128
12:37:21.336376,-31488
12:37:21.336376,0
12:37:21.336376,133
12:37:21.336376,31744
12:37:21.336376,0
12:37:21.336376,117
12:37:21.336376,29184
12:37:21.336376,0
12:37:21.336376,114
12:37:21.336376,30464
12:37:21.336376,0
12:37:21.336376,126
12:37:21.336376,-32000
12:37:21.336376,0
12:37:21.336376,131
12:37:21.336376,32256
12:37:21.336376,0
12:37:21.336376,124
12:37:21.336376,30976
12:37:21.336376,0
12:37:21.336376,126
12:37:21.336376,-30720
12:37:21.336376,0
12:37:21.336376,145
12:37:21.336376,-28416
12:37:21.336376,0
12:37:21.336376,131
12:37:21.832008,124
12:37:21.832008,-32000
12:37:21.832008,0
12:37:21.832008,131
12:37:21.832008,32256
12:37:21.832008,0
12:37:21.832008,128
12:37:21.832008,32256
12:37:21.832008,0
12:37:21.832008,119
12:37:21.832008,32256
12:37:21.832008,0
12:37:21.832008,124
12:37:21.832008,31744
12:37:21.832008,0
12:37:21.832008,145
12:37:21.832008,-25856
12:37:21.832008,0
12:37:21.832008,152
12:37:21.832008,-27648
12:37:21.832008,0
12:37:21.832008,152
12:37:21.832008,-24064
12:37:21.832008,0
12:37:21.832008,160
12:37:21.832008,-25856
12:37:21.832008,0
12:37:21.832008,150
12:37:21.832008,-28928
12:37:21.832008,0
12:37:21.832008,138
12:37:21.832008,-29696
12:37:21.832008,0
12:37:21.832008,140
12:37:21.832008,-30208
12:37:21.832008,0
12:37:21.832008,136
12:37:21.832008,-32000
12:37:21.832008,0
12:37:21.832008,121
12:37:21.832008,25600
12:37:21.832008,0
12:37:21.832008,78
12:37:21.832008,10240
12:37:21.832008,1
12:37:21.832008,950
12:37:21.832008,20736
12:37:21.832008,5
12:37:21.832008,867
12:37:21.832008,-19712
12:37:21.832008,0
12:37:21.832008,71
12:37:21.832008,-28416
12:37:21.832008,0
12:37:21.832008,21
12:37:21.832008,-16896
12:37:21.832008,-1
12:37:21.832008,-26
12:37:21.832008,-2561
12:37:21.832008,-1
12:37:21.832008,-33
12:37:21.832008,-7681
12:37:21.832008,-1
12:37:21.832008,-23
12:37:21.832008,-9985
12:37:21.832008,-1
12:37:21.832008,-47
12:37:21.832008,-6913
12:37:21.832008,-1
12:37:21.832008,-16
12:37:21.832008,-6401
12:37:21.832008,-1
12:37:21.832008,-28
12:37:21.832008,-5633
12:37:21.832008,-1
12:37:21.832008,-23
12:37:21.832008,-5633
12:37:21.832008,-1
12:37:21.832008,-19
12:37:21.832008,-4609
12:37:21.832008,-1
12:37:21.832008,-23
12:37:21.832008,-3841
12:37:21.832008,-1
12:37:21.832008,4
12:37:21.832008,2816
12:37:21.832008,0
12:37:21.832008,9
12:37:21.832008,7168
12:37:21.832008,0
12:37:21.832008,50
12:37:21.832008,10240
12:37:21.832008,0
12:37:21.832008,54
12:37:21.832008,21248
12:37:21.832008,0
12:37:21.832008,85
12:37:21.832008,23808
12:37:21.832008,0
12:37:21.832008,93
12:37:21.832008,19456
12:37:21.832008,0
12:37:21.832008,78
12:37:21.832008,23040
12:37:21.832008,0
12:37:21.832008,90
12:37:21.832008,24320
12:37:21.832008,0
12:37:21.832008,100
12:37:22.416306,97
12:37:22.416306,24832
12:37:22.416306,0
12:37:22.416306,93
12:37:22.416306,20736
12:37:22.416306,0
12:37:22.416306,81
12:37:22.416306,23040
12:37:22.416306,0
12:37:22.416306,102
12:37:22.416306,28672
12:37:22.416306,0
12:37:22.416306,114
12:37:22.416306,26880
12:37:22.416306,0
12:37:22.416306,100
12:37:22.416306,27904
12:37:22.416306,0
12:37:22.416306,114
12:37:22.416306,29184
12:37:22.416306,0
12:37:22.416306,112
12:37:22.416306,26880
12:37:22.416306,0
12:37:22.416306,97
12:37:22.416306,27392
12:37:22.416306,0
12:37:22.416306,117
12:37:22.416306,28672
12:37:22.416306,0
12:37:22.416306,107
12:37:22.416306,27904
12:37:22.416306,0
12:37:22.416306,114
12:37:22.416306,27904
12:37:22.416306,0
12:37:22.416306,95
12:37:22.416306,24320
12:37:22.416306,0
12:37:22.416306,90
12:37:22.416306,19968
12:37:22.416306,0
12:37:22.416306,83
12:37:22.416306,26112
12:37:22.416306,0
12:37:22.416306,112
12:37:22.416306,24320
12:37:22.416306,0
12:37:22.416306,66
12:37:22.416306,15872
12:37:22.416306,0
12:37:22.416306,71
12:37:22.416306,18176
12:37:22.416306,0
12:37:22.416306,78
12:37:22.416306,24832
12:37:22.416306,0
12:37:22.416306,109
12:37:22.416306,26880
12:37:22.416306,0
12:37:22.416306,100
12:37:22.416306,26880
12:37:22.416306,0
12:37:22.416306,105
12:37:22.416306,25600
12:37:22.416306,0
12:37:22.416306,90
12:37:22.416306,23040
12:37:22.416306,0
12:37:22.416306,100
12:37:22.416306,25600
12:37:22.416306,0
12:37:22.416306,81
12:37:22.416306,19456
12:37:22.416306,0
12:37:22.416306,85
12:37:22.416306,21248
12:37:22.416306,0
12:37:22.416306,76
12:37:22.416306,19968
12:37:22.416306,0
12:37:22.416306,81
12:37:22.416306,13312
12:37:22.416306,0
12:37:22.416306,88
12:37:22.416306,-9472
12:37:22.416306,1
12:37:22.416306,1146
12:37:22.416306,-2560
12:37:22.416306,4
12:37:22.416306,604
12:37:22.416306,21760
12:37:22.416306,0
12:37:22.416306,97
12:37:22.416306,26880
12:37:22.416306,0
12:37:22.416306,-40
12:37:22.416306,-22273
12:37:22.416306,-1
12:37:22.416306,-57
12:37:22.416306,-16641
12:37:22.416306,-1
12:37:22.416306,-71
12:37:22.416306,-14849
12:37:22.416306,-1
12:37:22.416306,-64
12:37:22.416306,-16129
12:37:22.416306,-1
12:37:22.416306,-54
12:37:22.957819,-57
12:37:22.957819,-16129
12:37:22.957819,-1
12:37:22.957819,-50
12:37:22.957819,-8705
12:37:22.957819,-1
12:37:22.957819,-31
12:37:22.957819,-6913
12:37:22.957819,-1
12:37:22.957819,-31
12:37:22.957819,-8193
12:37:22.957819,-1
12:37:22.957819,-28
12:37:22.957819,-2561
12:37:22.957819,-1
12:37:22.957819,7
12:37:22.957819,2816
12:37:22.957819,0
12:37:22.957819,11
12:37:22.957819,4864
12:37:22.957819,0
12:37:22.957819,38
12:37:22.957819,14592
12:37:22.957819,0
12:37:22.957819,66
12:37:22.957819,16896
12:37:22.957819,0
12:37:22.957819,71
12:37:22.957819,21248
12:37:22.957819,0
12:37:22.957819,85
12:37:22.957819,19968
12:37:22.957819,0
12:37:22.957819,78
12:37:22.957819,21760
12:37:22.957819,0
12:37:22.957819,83
12:37:22.957819,19968
12:37:22.957819,0
12:37:22.957819,76
12:37:22.957819,19968
12:37:22.957819,0
12:37:22.957819,78
12:37:22.957819,21248
12:37:22.957819,0
12:37:22.957819,81
12:37:22.957819,18176
12:37:22.957819,0
12:37:22.957819,66
12:37:22.957819,17664
12:37:22.957819,0
12:37:22.957819,69
12:37:22.957819,16384
12:37:22.957819,0
12:37:22.957819,59
12:37:22.957819,15104
12:37:22.957819,0
12:37:22.957819,64
12:37:22.957819,15104
12:37:22.957819,0
12:37:22.957819,57
12:37:22.957819,16896
12:37:22.957819,0
12:37:22.957819,64
12:37:22.957819,13824
12:37:22.957819,0
12:37:22.957819,54
12:37:22.957819,15104
12:37:22.957819,0
12:37:22.957819,57
12:37:22.957819,13824
12:37:22.957819,0
12:37:22.957819,54
12:37:22.957819,13312
12:37:22.957819,0
12:37:22.957819,52
12:37:22.957819,14592
12:37:22.957819,0
12:37:22.957819,54
12:37:22.957819,14592
12:37:22.957819,0
12:37:22.957819,59
12:37:22.957819,15104
12:37:22.957819,0
12:37:22.957819,54
12:37:22.957819,10752
12:37:22.957819,0
12:37:22.957819,35
12:37:22.957819,8448
12:37:22.957819,0
12:37:22.957819,33
12:37:22.957819,12800
12:37:22.957819,0
12:37:22.957819,71
12:37:22.957819,17664
12:37:22.957819,0
12:37:22.957819,57
12:37:22.957819,15104
12:37:22.957819,0
12:37:22.957819,57
12:37:22.957819,10752
12:37:22.957819,0
12:37:22.957819,40
12:37:22.957819,10752
12:37:22.957819,0
12:37:22.957819,42
12:37:22.957819,10752
12:37:22.957819,0
12:37:22.957819,40
12:37:23.496774,35
12:37:23.496774,8960
12:37:23.496774,0
12:37:23.496774,38
12:37:23.496774,9728
12:37:23.496774,0
12:37:23.496774,35
12:37:23.496774,8448
12:37:23.496774,0
12:37:23.496774,31
12:37:23.496774,2304
12:37:23.496774,0
12:37:23.496774,90
12:37:23.496774,19200
12:37:23.496774,2
12:37:23.496774,1234
12:37:23.496774,28160
12:37:23.496774,4
12:37:23.496774,382
12:37:23.496774,-512
12:37:23.496774,-1
12:37:23.496774,59
12:37:23.496774,1792
12:37:23.496774,0
12:37:23.496774,-133
12:37:23.496774,27903
12:37:23.496774,-1
12:37:23.496774,-121
12:37:23.496774,29183
12:37:23.496774,-1
12:37:23.496774,-148
12:37:23.496774,-32001
12:37:23.496774,-1
12:37:23.496774,-124
12:37:23.496774,-32513
12:37:23.496774,-1
12:37:23.496774,-126
12:37:23.496774,-32513
12:37:23.496774,-1
12:37:23.496774,-131
12:37:23.496774,31743
12:37:23.496774,-1
12:37:23.496774,-136
12:37:23.496774,30975
12:37:23.496774,-1
12:37:23.496774,-133
12:37:23.496774,30975
12:37:23.496774,-1
12:37:23.496774,-138
12:37:23.496774,30463
12:37:23.496774,-1
12:37:23.496774,-133
12:37:23.496774,-31489
12:37:23.496774,-1
12:37:23.496774,-117
12:37:23.496774,-27137
12:37:23.496774,-1
12:37:23.496774,-97
12:37:23.496774,-19713
12:37:23.496774,-1
12:37:23.496774,-54
12:37:23.496774,-10497
12:37:23.496774,-1
12:37:23.496774,-42
12:37:23.496774,-9473
12:37:23.496774,-1
12:37:23.496774,-33
12:37:23.496774,-8705
12:37:23.496774,-1
12:37:23.496774,-38
12:37:23.496774,-11265
12:37:23.496774,-1
12:37:23.496774,-57
12:37:23.496774,-14337
12:37:23.496774,-1
12:37:23.496774,-57
12:37:23.496774,-16129
12:37:23.496774,-1
12:37:23.496774,-66
12:37:23.496774,-15617
12:37:23.496774,-1
12:37:23.496774,-66
12:37:23.496774,-19713
12:37:23.496774,-1
12:37:23.496774,-81
12:37:23.496774,-20993
12:37:23.496774,-1
12:37:23.496774,-85
12:37:23.496774,-22273
12:37:23.496774,-1
12:37:23.496774,-93
12:37:23.496774,-25857
12:37:23.496774,-1
12:37:23.496774,-107
12:37:23.496774,-25857
12:37:23.496774,-1
12:37:23.496774,-97
12:37:23.496774,-25857
12:37:23.496774,-1
12:37:23.496774,-109
12:37:23.496774,-28417
12:37:23.496774,-1
12:37:23.496774,-117
12:37:23.496774,-30209
12:37:23.496774,-1
12:37:23.496774,-119
12:37:23.496774,-29697
12:37:23.496774,-1
12:37:23.496774,-124
12:37:24.126679,-124
12:37:24.126679,-32001
12:37:24.126679,-1
12:37:24.126679,-131
12:37:24.126679,-31489
12:37:24.126679,-1
12:37:24.126679,-107
12:37:24.126679,-28929
12:37:24.126679,-1
12:37:24.126679,-128
12:37:24.126679,-32513
12:37:24.126679,-1
12:37:24.126679,-131
12:37:24.126679,29951
12:37:24.126679,-1
12:37:24.126679,-145
12:37:24.126679,28671
12:37:24.126679,-1
12:37:24.126679,-148
12:37:24.126679,27391
12:37:24.126679,-1
12:37:24.126679,-150
12:37:24.126679,26879
12:37:24.126679,-1
12:37:24.126679,-152
12:37:24.126679,25599
12:37:24.126679,-1
12:37:24.126679,-169
12:37:24.126679,19455
12:37:24.126679,-1
12:37:24.126679,-186
12:37:24.126679,19967
12:37:24.126679,-1
12:37:24.126679,-183
12:37:24.126679,15871
12:37:24.126679,-1
12:37:24.126679,-207
12:37:24.126679,9727
12:37:24.126679,-1
12:37:24.126679,-224
12:37:24.126679,11519
12:37:24.126679,-1
12:37:24.126679,-195
12:37:24.126679,15871
12:37:24.126679,-1
12:37:24.126679,-205
12:37:24.126679,13311
12:37:24.126679,-1
12:37:24.126679,-207
12:37:24.126679,11007
12:37:24.126679,-1
12:37:24.126679,-226
12:37:24.126679,6655
12:37:24.126679,-1
12:37:24.126679,-229
12:37:24.126679,7167
12:37:24.126679,-1
12:37:24.126679,-229
12:37:24.126679,8959
12:37:24.126679,-1
12:37:24.126679,-214
12:37:24.126679,12031
12:37:24.126679,-1
12:37:24.126679,-212
12:37:24.126679,11007
12:37:24.126679,-1
12:37:24.126679,-219
12:37:24.126679,4863
12:37:24.126679,-1
12:37:24.126679,-272
12:37:24.126679,-28417
12:37:24.126679,-1
12:37:24.126679,515
12:37:24.126679,18944
12:37:24.126679,4
12:37:24.126679,788
12:37:24.126679,512
12:37:24.126679,0
12:37:24.126679,-293
12:37:24.126679,7935
12:37:24.126679,-1
12:37:24.126679,-310
12:37:24.126679,20735
12:37:24.126679,-2
12:37:24.126679,-415
12:37:24.126679,31231
12:37:24.126679,-2
12:37:24.126679,-410
12:37:24.126679,28671
12:37:24.126679,-2
12:37:24.126679,-389
12:37:24.126679,28159
12:37:24.126679,-2
12:37:24.126679,-403
12:37:24.126679,31231
12:37:24.126679,-2
12:37:24.126679,-389
12:37:24.126679,31231
12:37:24.126679,-2
12:37:24.126679,-384
12:37:24.126679,-30721
12:37:24.126679,-2
12:37:24.126679,-377
12:37:24.126679,-30721
12:37:24.126679,-2
12:37:24.126679,-372
12:37:24.126679,-28929
12:37:24.126679,-2
12:37:24.126679,-367
12:37:24.667502,-358
12:37:24.667502,-22017
12:37:24.667502,-2
12:37:24.667502,-332
12:37:24.667502,-16641
12:37:24.667502,-2
12:37:24.667502,-305
12:37:24.667502,-5121
12:37:24.667502,-2
12:37:24.667502,-248
12:37:24.667502,5375
12:37:24.667502,-1
12:37:24.667502,-226
12:37:24.667502,10239
12:37:24.667502,-1
12:37:24.667502,-217
12:37:24.667502,11007
12:37:24.667502,-1
12:37:24.667502,-203
12:37:24.667502,18175
12:37:24.667502,-1
12:37:24.667502,-174
12:37:24.667502,22527
12:37:24.667502,-1
12:37:24.667502,-169
12:37:24.667502,23039
12:37:24.667502,-1
12:37:24.667502,-157
12:37:24.667502,26879
12:37:24.667502,-1
12:37:24.667502,-157
12:37:24.667502,24831
12:37:24.667502,-1
12:37:24.667502,-155
12:37:24.667502,27391
12:37:24.667502,-1
12:37:24.667502,-155
12:37:24.667502,25599
12:37:24.667502,-1
12:37:24.667502,-148
12:37:24.667502,30975
12:37:24.667502,-1
12:37:24.667502,-133
12:37:24.667502,30975
12:37:24.667502,-1
12:37:24.667502,-131
12:37:24.667502,-30721
12:37:24.667502,-1
12:37:24.667502,-112
12:37:24.667502,-25857
12:37:24.667502,-1
12:37:24.667502,-97
12:37:24.667502,-24065
12:37:24.667502,-1
12:37:24.667502,-85
12:37:24.667502,-19713
12:37:24.667502,-1
12:37:24.667502,-78
12:37:24.667502,-19713
12:37:24.667502,-1
12:37:24.667502,-76
12:37:24.667502,-17921
12:37:24.667502,-1
12:37:24.667502,-71
12:37:24.667502,-17921
12:37:24.667502,-1
12:37:24.667502,-71
12:37:24.667502,-17409
12:37:24.667502,-1
12:37:24.667502,-69
12:37:24.667502,-17409
12:37:24.667502,-1
12:37:24.667502,-64
12:37:24.667502,-13057
12:37:24.667502,-1
12:37:24.667502,-42
12:37:24.667502,-9985
12:37:24.667502,-1
12:37:24.667502,-35
12:37:24.667502,-5633
12:37:24.667502,-1
12:37:24.667502,-21
12:37:24.667502,-3841
12:37:24.667502,-1
12:37:24.667502,-7
12:37:24.667502,-769
12:37:24.667502,-1
12:37:24.667502,2
12:37:24.667502,4096
12:37:24.667502,0
12:37:24.667502,26
12:37:24.667502,7168
12:37:24.667502,0
12:37:24.667502,35
12:37:24.667502,9728
12:37:24.667502,0
12:37:24.667502,33
12:37:24.667502,8960
12:37:24.667502,0
12:37:24.667502,45
12:37:24.667502,10752
12:37:24.667502,0
12:37:24.667502,38
12:37:24.667502,11520
12:37:24.667502,0
12:37:24.667502,47
12:37:24.667502,12032
12:37:24.667502,0
12:37:24.667502,47
12:37:25.251458,40
12:37:25.251458,10240
12:37:25.251458,0
12:37:25.251458,52
12:37:25.251458,18176
12:37:25.251458,0
12:37:25.251458,85
12:37:25.251458,23040
12:37:25.251458,0
12:37:25.251458,90
12:37:25.251458,24832
12:37:25.251458,0
12:37:25.251458,93
12:37:25.251458,19968
12:37:25.251458,0
12:37:25.251458,90
12:37:25.251458,28672
12:37:25.251458,0
12:37:25.251458,109
12:37:25.251458,26112
12:37:25.251458,0
12:37:25.251458,107
12:37:25.251458,28672
12:37:25.251458,0
12:37:25.251458,109
12:37:25.251458,27392
12:37:25.251458,0
12:37:25.251458,112
12:37:25.251458,28672
12:37:25.251458,0
12:37:25.251458,95
12:37:25.251458,15104
12:37:25.251458,0
12:37:25.251458,136
12:37:25.251458,29696
12:37:25.251458,2
12:37:25.251458,1335
12:37:25.251458,14592
12:37:25.251458,5
12:37:25.251458,570
12:37:25.251458,19456
12:37:25.251458,0
12:37:25.251458,114
12:37:25.251458,25600
12:37:25.251458,0
12:37:25.251458,-52
12:37:25.251458,-19713
12:37:25.251458,-1
12:37:25.251458,-35
12:37:25.251458,-12545
12:37:25.251458,-1
12:37:25.251458,-54
12:37:25.251458,-8193
12:37:25.251458,-1
12:37:25.251458,-35
12:37:25.251458,-8705
12:37:25.251458,-1
12:37:25.251458,-26
12:37:25.251458,-5121
12:37:25.251458,-1
12:37:25.251458,-21
12:37:25.251458,-3329
12:37:25.251458,-1
12:37:25.251458,-7
12:37:25.251458,-257
12:37:25.251458,-1
12:37:25.251458,4
12:37:25.251458,-1024
12:37:25.251458,-1
12:37:25.251458,-16
12:37:25.251458,-2049
12:37:25.251458,-1
12:37:25.251458,2
12:37:25.251458,4864
12:37:25.251458,0
12:37:25.251458,38
12:37:25.251458,13312
12:37:25.251458,0
12:37:25.251458,64
12:37:25.251458,22528
12:37:25.251458,0
12:37:25.251458,119
12:37:25.251458,-30208
12:37:25.251458,0
12:37:25.251458,150
12:37:25.251458,-24576
12:37:25.251458,0
12:37:25.251458,167
12:37:25.251458,-22272
12:37:25.251458,0
12:37:25.251458,169
12:37:25.251458,-20992
12:37:25.251458,0
12:37:25.251458,176
12:37:25.251458,-19712
12:37:25.251458,0
12:37:25.251458,179
12:37:25.251458,-20480
12:37:25.251458,0
12:37:25.251458,176
12:37:25.251458,-19200
12:37:25.251458,0
12:37:25.251458,181
12:37:25.251458,-20480
12:37:25.251458,0
12:37:25.251458,174
12:37:25.251458,-20992
12:37:25.251458,0
12:37:25.251458,176
12:37:25.835422,179
12:37:25.835422,-19712
12:37:25.835422,0
12:37:25.835422,183
12:37:25.835422,-17920
12:37:25.835422,0
12:37:25.835422,181
12:37:25.835422,-18688
12:37:25.835422,0
12:37:25.835422,188
12:37:25.835422,-17920
12:37:25.835422,0
12:37:25.835422,186
12:37:25.835422,-14848
12:37:25.835422,0
12:37:25.835422,198
12:37:25.835422,-15616
12:37:25.835422,0
12:37:25.835422,207
12:37:25.835422,-8192
12:37:25.835422,0
12:37:25.835422,234
12:37:25.835422,-6912
12:37:25.835422,0
12:37:25.835422,229
12:37:25.835422,-5632
12:37:25.835422,0
12:37:25.835422,236
12:37:25.835422,-5632
12:37:25.835422,0
12:37:25.835422,234
12:37:25.835422,-7680
12:37:25.835422,0
12:37:25.835422,224
12:37:25.835422,-7680
12:37:25.835422,0
12:37:25.835422,226
12:37:25.835422,-7680
12:37:25.835422,0
12:37:25.835422,226
12:37:25.835422,-9472
12:37:25.835422,0
12:37:25.835422,214
12:37:25.835422,-9984
12:37:25.835422,0
12:37:25.835422,217
12:37:25.835422,-9472
12:37:25.835422,0
12:37:25.835422,214
12:37:25.835422,-11264
12:37:25.835422,0
12:37:25.835422,214
12:37:25.835422,-11264
12:37:25.835422,0
12:37:25.835422,207
12:37:25.835422,-11264
12:37:25.835422,0
12:37:25.835422,214
12:37:25.835422,-11776
12:37:25.835422,0
12:37:25.835422,207
12:37:25.835422,-13056
12:37:25.835422,0
12:37:25.835422,200
12:37:25.835422,-15616
12:37:25.835422,0
12:37:25.835422,193
12:37:25.835422,-13568
12:37:25.835422,0
12:37:25.835422,222
12:37:25.835422,-6912
12:37:25.835422,0
12:37:25.835422,219
12:37:25.835422,-9984
12:37:25.835422,0
12:37:25.835422,214
12:37:25.835422,-14336
12:37:25.835422,0
12:37:25.835422,195
12:37:25.835422,-14336
12:37:25.835422,0
12:37:25.835422,200
12:37:25.835422,-14848
12:37:25.835422,0
12:37:25.835422,198
12:37:25.835422,-16128
12:37:25.835422,0
12:37:25.835422,186
12:37:25.835422,-17408
12:37:25.835422,0
12:37:25.835422,195
12:37:25.835422,-15616
12:37:25.835422,0
12:37:25.835422,179
12:37:25.835422,-27648
12:37:25.835422,0
12:37:25.835422,174
12:37:25.835422,7680
12:37:25.835422,2
12:37:25.835422,1222
12:37:25.835422,28160
12:37:25.835422,5
12:37:25.835422,754
12:37:25.835422,-9472
12:37:25.835422,0
12:37:25.835422,186
12:37:25.835422,-19200
12:37:25.835422,0
12:37:25.835422,50
12:37:26.331593,-4
12:37:26.331593,4351
12:37:26.331593,0
12:37:26.331593,7
12:37:26.331593,0
12:37:26.331593,0
12:37:26.331593,16
12:37:26.331593,5888
12:37:26.331593,0
12:37:26.331593,19
12:37:26.331593,5376
12:37:26.331593,0
12:37:26.331593,23
12:37:26.331593,5888
12:37:26.331593,0
12:37:26.331593,31
12:37:26.331593,9728
12:37:26.331593,0
12:37:26.331593,35
12:37:26.331593,7168
12:37:26.331593,0
12:37:26.331593,31
12:37:26.331593,8960
12:37:26.331593,0
12:37:26.331593,47
12:37:26.331593,15872
12:37:26.331593,0
12:37:26.331593,66
12:37:26.331593,16896
12:37:26.331593,0
12:37:26.331593,78
12:37:26.331593,23808
12:37:26.331593,0
12:37:26.331593,107
12:37:26.331593,32256
12:37:26.331593,0
12:37:26.331593,150
12:37:26.331593,-24576
12:37:26.331593,0
12:37:26.331593,157
12:37:26.331593,-22784
12:37:26.331593,0
12:37:26.331593,181
12:37:26.331593,-17920
12:37:26.331593,0
12:37:26.331593,186
12:37:26.331593,-17920
12:37:26.331593,0
12:37:26.331593,188
12:37:26.331593,-17408
12:37:26.331593,0
12:37:26.331593,191
12:37:26.331593,-16128
12:37:26.331593,0
12:37:26.331593,188
12:37:26.331593,-18688
12:37:26.331593,0
12:37:26.331593,176
12:37:26.331593,-20480
12:37:26.331593,0
12:37:26.331593,176
12:37:26.331593,-20992
12:37:26.331593,0
12:37:26.331593,167
12:37:26.331593,-23552
12:37:26.331593,0
12:37:26.331593,169
12:37:26.331593,-20992
12:37:26.331593,0
12:37:26.331593,171
12:37:26.331593,-22784
12:37:26.331593,0
12:37:26.331593,164
12:37:26.331593,-22784
12:37:26.331593,0
12:37:26.331593,171
12:37:26.331593,-22272
12:37:26.331593,0
12:37:26.331593,164
12:37:26.331593,-23552
12:37:26.331593,0
12:37:26.331593,162
12:37:26.331593,-24576
12:37:26.331593,0
12:37:26.331593,164
12:37:26.331593,-21760
12:37:26.331593,0
12:37:26.331593,167
12:37:26.331593,-23552
12:37:26.331593,0
12:37:26.331593,169
12:37:26.331593,-21760
12:37:26.331593,0
12:37:26.331593,169
12:37:26.331593,-21760
12:37:26.331593,0
12:37:26.331593,171
12:37:26.331593,-22784
12:37:26.331593,0
12:37:26.331593,164
12:37:26.331593,-22784
12:37:26.331593,0
12:37:26.331593,164
12:37:26.331593,-22272
12:37:26.331593,0
12:37:26.331593,171
12:37:26.331593,-22784
12:37:26.331593,0
12:37:26.331593,162
12:37:26.868880,160
12:37:26.868880,-24576
12:37:26.868880,0
12:37:26.868880,157
12:37:26.868880,-25856
12:37:26.868880,0
12:37:26.868880,152
12:37:26.868880,-30208
12:37:26.868880,0
12:37:26.868880,131
12:37:26.868880,-27136
12:37:26.868880,0
12:37:26.868880,183
12:37:26.868880,-14336
12:37:26.868880,0
12:37:26.868880,195
12:37:26.868880,-16640
12:37:26.868880,0
12:37:26.868880,186
12:37:26.868880,-19712
12:37:26.868880,0
12:37:26.868880,167
12:37:26.868880,-25344
12:37:26.868880,0
12:37:26.868880,164
12:37:26.868880,-22784
12:37:26.868880,0
12:37:26.868880,155
12:37:26.868880,-25856
12:37:26.868880,0
12:37:26.868880,164
12:37:26.868880,-25856
12:37:26.868880,0
12:37:26.868880,150
12:37:26.868880,-25344
12:37:26.868880,0
12:37:26.868880,150
12:37:26.868880,-32768
12:37:26.868880,0
12:37:26.868880,95
12:37:26.868880,-30208
12:37:26.868880,0
12:37:26.868880,551
12:37:26.868880,-14080
12:37:26.868880,4
12:37:26.868880,1282
12:37:26.868880,18688
12:37:26.868880,2
12:37:26.868880,121
12:37:26.868880,-28928
12:37:26.868880,0
12:37:26.868880,117
12:37:26.868880,-5888
12:37:26.868880,-1
12:37:26.868880,-54
12:37:26.868880,-6401
12:37:26.868880,-1
12:37:26.868880,-40
12:37:26.868880,-11777
12:37:26.868880,-1
12:37:26.868880,-35
12:37:26.868880,-9473
12:37:26.868880,-1
12:37:26.868880,-42
12:37:26.868880,-9985
12:37:26.868880,-1
12:37:26.868880,-40
12:37:26.868880,-9985
12:37:26.868880,-1
12:37:26.868880,-42
12:37:26.868880,-11777
12:37:26.868880,-1
12:37:26.868880,-50
12:37:26.868880,-13057
12:37:26.868880,-1
12:37:26.868880,-52
12:37:26.868880,-11777
12:37:26.868880,-1
12:37:26.868880,-45
12:37:26.868880,-9985
12:37:26.868880,-1
12:37:26.868880,-31
12:37:26.868880,-5121
12:37:26.868880,-1
12:37:26.868880,-11
12:37:26.868880,767
12:37:26.868880,0
12:37:26.868880,26
12:37:26.868880,13312
12:37:26.868880,0
12:37:26.868880,76
12:37:26.868880,22528
12:37:26.868880,0
12:37:26.868880,88
12:37:26.868880,23808
12:37:26.868880,0
12:37:26.868880,100
12:37:26.868880,26880
12:37:26.868880,0
12:37:26.868880,105
12:37:26.868880,27904
12:37:26.868880,0
12:37:26.868880,114
12:37:26.868880,30464
12:37:26.868880,0
12:37:26.868880,114
12:37:26.868880,28672
12:37:26.868880,0
12:37:26.868880,109
12:37:27.456693,107
12:37:27.456693,26112
12:37:27.456693,0
12:37:27.456693,102
12:37:27.456693,26112
12:37:27.456693,0
12:37:27.456693,105
12:37:27.456693,29184
12:37:27.456693,0
12:37:27.456693,121
12:37:27.456693,29184
12:37:27.456693,0
12:37:27.456693,109
12:37:27.456693,27904
12:37:27.456693,0
12:37:27.456693,107
12:37:27.456693,28672
12:37:27.456693,0
12:37:27.456693,117
12:37:27.456693,28672
12:37:27.456693,0
12:37:27.456693,114
12:37:27.456693,31744
12:37:27.456693,0
12:37:27.456693,124
12:37:27.456693,30464
12:37:27.456693,0
12:37:27.456693,117
12:37:27.456693,30464
12:37:27.456693,0
12:37:27.456693,119
12:37:27.456693,30464
12:37:27.456693,0
12:37:27.456693,117
12:37:27.456693,29184
12:37:27.456693,0
12:37:27.456693,112
12:37:27.456693,27904
12:37:27.456693,0
12:37:27.456693,107
12:37:27.456693,28672
12:37:27.456693,0
12:37:27.456693,112
12:37:27.456693,29184
12:37:27.456693,0
12:37:27.456693,112
12:37:27.456693,27392
12:37:27.456693,0
12:37:27.456693,107
12:37:27.456693,27392
12:37:27.456693,0
12:37:27.456693,105
12:37:27.456693,26880
12:37:27.456693,0
12:37:27.456693,102
12:37:27.456693,24320
12:37:27.456693,0
12:37:27.456693,88
12:37:27.456693,20736
12:37:27.456693,0
12:37:27.456693,76
12:37:27.456693,19968
12:37:27.456693,0
12:37:27.456693,95
12:37:27.456693,29952
12:37:27.456693,0
12:37:27.456693,121
12:37:27.456693,30464
12:37:27.456693,0
12:37:27.456693,119
12:37:27.456693,29952
12:37:27.456693,0
12:37:27.456693,105
12:37:27.456693,24320
12:37:27.456693,0
12:37:27.456693,97
12:37:27.456693,26112
12:37:27.456693,0
12:37:27.456693,100
12:37:27.456693,24320
12:37:27.456693,0
12:37:27.456693,90
12:37:27.456693,23808
12:37:27.456693,0
12:37:27.456693,93
12:37:27.456693,23808
12:37:27.456693,0
12:37:27.456693,95
12:37:27.456693,22528
12:37:27.456693,0
12:37:27.456693,54
12:37:27.456693,12800
12:37:27.456693,0
12:37:27.456693,358
12:37:27.456693,17152
12:37:27.456693,4
12:37:27.456693,1445
12:37:27.456693,22272
12:37:27.456693,3
12:37:27.456693,164
12:37:27.456693,13824
12:37:27.456693,0
12:37:27.456693,90
12:37:27.456693,-10752
12:37:27.456693,-1
12:37:27.456693,-121
12:37:27.456693,-22785
12:37:27.456693,-1
12:37:27.456693,-88
12:37:28.042080,-105
12:37:28.042080,-23553
12:37:28.042080,-1
12:37:28.042080,-81
12:37:28.042080,-20481
12:37:28.042080,-1
12:37:28.042080,-78
12:37:28.042080,-18689
12:37:28.042080,-1
12:37:28.042080,-74
12:37:28.042080,-17409
12:37:28.042080,-1
12:37:28.042080,-57
12:37:28.042080,-11777
12:37:28.042080,-1
12:37:28.042080,-54
12:37:28.042080,-14849
12:37:28.042080,-1
12:37:28.042080,-57
12:37:28.042080,-13569
12:37:28.042080,-1
12:37:28.042080,-47
12:37:28.042080,-9473
12:37:28.042080,-1
12:37:28.042080,-26
12:37:28.042080,-2561
12:37:28.042080,-1
12:37:28.042080,7
12:37:28.042080,5888
12:37:28.042080,0
12:37:28.042080,42
12:37:28.042080,15872
12:37:28.042080,0
12:37:28.042080,66
12:37:28.042080,16384
12:37:28.042080,0
12:37:28.042080,69
12:37:28.042080,18176
12:37:28.042080,0
12:37:28.042080,71
12:37:28.042080,18944
12:37:28.042080,0
12:37:28.042080,71
12:37:28.042080,16896
12:37:28.042080,0
12:37:28.042080,62
12:37:28.042080,16384
12:37:28.042080,0
12:37:28.042080,64
12:37:28.042080,14592
12:37:28.042080,0
12:37:28.042080,52
12:37:28.042080,13824
12:37:28.042080,0
12:37:28.042080,57
12:37:28.042080,14592
12:37:28.042080,0
12:37:28.042080,52
12:37:28.042080,11520
12:37:28.042080,0
12:37:28.042080,42
12:37:28.042080,9728
12:37:28.042080,0
12:37:28.042080,33
12:37:28.042080,8960
12:37:28.042080,0
12:37:28.042080,33
12:37:28.042080,7936
12:37:28.042080,0
12:37:28.042080,33
12:37:28.042080,7936
12:37:28.042080,0
12:37:28.042080,26
12:37:28.042080,7168
12:37:28.042080,0
12:37:28.042080,28
12:37:28.042080,5376
12:37:28.042080,0
12:37:28.042080,16
12:37:28.042080,5376
12:37:28.042080,0
12:37:28.042080,23
12:37:28.042080,5376
12:37:28.042080,0
12:37:28.042080,16
12:37:28.042080,2816
12:37:28.042080,0
12:37:28.042080,4
12:37:28.042080,0
12:37:28.042080,0
12:37:28.042080,-2
12:37:28.042080,-1537
12:37:28.042080,-1
12:37:28.042080,-9
12:37:28.042080,-3329
12:37:28.042080,-1
12:37:28.042080,-26
12:37:28.042080,-7681
12:37:28.042080,-1
12:37:28.042080,-31
12:37:28.042080,-8705
12:37:28.042080,-1
12:37:28.042080,-38
12:37:28.042080,-9985
12:37:28.042080,-1
12:37:28.042080,-50
12:37:28.042080,-15617
12:37:28.042080,-1
12:37:28.042080,-59
12:37:28.578183,-57
12:37:28.578183,-16129
12:37:28.578183,-1
12:37:28.578183,-71
12:37:28.578183,-20481
12:37:28.578183,-1
12:37:28.578183,-88
12:37:28.578183,-22785
12:37:28.578183,-1
12:37:28.578183,-100
12:37:28.578183,-28417
12:37:28.578183,-1
12:37:28.578183,-121
12:37:28.578183,32255
12:37:28.578183,-1
12:37:28.578183,-143
12:37:28.578183,28671
12:37:28.578183,-1
12:37:28.578183,-145
12:37:28.578183,26879
12:37:28.578183,-1
12:37:28.578183,-155
12:37:28.578183,27903
12:37:28.578183,-1
12:37:28.578183,-145
12:37:28.578183,26111
12:37:28.578183,-1
12:37:28.578183,-162
12:37:28.578183,22015
12:37:28.578183,-1
12:37:28.578183,-188
12:37:28.578183,13311
12:37:28.578183,-1
12:37:28.578183,-212
12:37:28.578183,10239
12:37:28.578183,-1
12:37:28.578183,-224
12:37:28.578183,6655
12:37:28.578183,-1
12:37:28.578183,-238
12:37:28.578183,2815
12:37:28.578183,-1
12:37:28.578183,-250
12:37:28.578183,1791
12:37:28.578183,-1
12:37:28.578183,-253
12:37:28.578183,-3073
12:37:28.578183,-2
12:37:28.578183,-305
12:37:28.578183,-20225
12:37:28.578183,-2
12:37:28.578183,-136
12:37:28.578183,6143
12:37:28.578183,2
12:37:28.578183,1065
12:37:28.578183,-30464
12:37:28.578183,2
12:37:28.578183,-145
12:37:28.578183,31743
12:37:28.578183,-2
12:37:28.578183,-324
12:37:28.578183,20735
12:37:28.578183,-2
12:37:28.578183,-551
12:37:28.578183,-3073
12:37:28.578183,-3
12:37:28.578183,-515
12:37:28.578183,-9729
12:37:28.578183,-3
12:37:28.578183,-549
12:37:28.578183,-4865
12:37:28.578183,-3
12:37:28.578183,-532
12:37:28.578183,-6657
12:37:28.578183,-3
12:37:28.578183,-544
12:37:28.578183,-8449
12:37:28.578183,-3
12:37:28.578183,-546
12:37:28.578183,-9217
12:37:28.578183,-3
12:37:28.578183,-554
12:37:28.578183,-10497
12:37:28.578183,-3
12:37:28.578183,-554
12:37:28.578183,-11521
12:37:28.578183,-3
12:37:28.578183,-561
12:37:28.578183,-11521
12:37:28.578183,-3
12:37:28.578183,-551
12:37:28.578183,-6145
12:37:28.578183,-3
12:37:28.578183,-532
12:37:28.578183,-3585
12:37:28.578183,-3
12:37:28.578183,-506
12:37:28.578183,8447
12:37:28.578183,-2
12:37:28.578183,-463
12:37:28.578183,16383
12:37:28.578183,-2
12:37:28.578183,-446
12:37:28.578183,16383
12:37:28.578183,-2
12:37:28.578183,-449
12:37:28.578183,16383
12:37:28.578183,-2
12:37:28.578183,-453
12:37:29.122592,-456
12:37:29.122592,14591
12:37:29.122592,-2
12:37:29.122592,-456
12:37:29.122592,15359
12:37:29.122592,-2
12:37:29.122592,-453
12:37:29.122592,15359
12:37:29.122592,-2
12:37:29.122592,-451
12:37:29.122592,16383
12:37:29.122592,-2
12:37:29.122592,-444
12:37:29.122592,20735
12:37:29.122592,-2
12:37:29.122592,-427
12:37:29.122592,18431
12:37:29.122592,-2
12:37:29.122592,-460
12:37:29.122592,10495
12:37:29.122592,-2
12:37:29.122592,-472
12:37:29.122592,12287
12:37:29.122592,-2
12:37:29.122592,-465
12:37:29.122592,14079
12:37:29.122592,-2
12:37:29.122592,-451
12:37:29.122592,16383
12:37:29.122592,-2
12:37:29.122592,-444
12:37:29.122592,20735
12:37:29.122592,-2
12:37:29.122592,-425
12:37:29.122592,24575
12:37:29.122592,-2
12:37:29.122592,-413
12:37:29.122592,26879
12:37:29.122592,-2
12:37:29.122592,-398
12:37:29.122592,32511
12:37:29.122592,-2
12:37:29.122592,-382
12:37:29.122592,-29953
12:37:29.122592,-2
12:37:29.122592,-365
12:37:29.122592,-25857
12:37:29.122592,-2
12:37:29.122592,-346
12:37:29.122592,-20225
12:37:29.122592,-2
12:37:29.122592,-336
12:37:29.122592,-18433
12:37:29.122592,-2
12:37:29.122592,-317
12:37:29.122592,-13057
12:37:29.122592,-2
12:37:29.122592,-305
12:37:29.122592,-10497
12:37:29.122592,-2
12:37:29.122592,-281
12:37:29.122592,-4353
12:37:29.122592,-2
12:37:29.122592,-269
12:37:29.122592,-769
12:37:29.122592,-2
12:37:29.122592,-255
12:37:29.122592,1023
12:37:29.122592,-1
12:37:29.122592,-248
12:37:29.122592,5375
12:37:29.122592,-1
12:37:29.122592,-226
12:37:29.122592,10239
12:37:29.122592,-1
12:37:29.122592,-210
12:37:29.122592,13823
12:37:29.122592,-1
12:37:29.122592,-198
12:37:29.122592,17663
12:37:29.122592,-1
12:37:29.122592,-183
12:37:29.122592,19455
12:37:29.122592,-1
12:37:29.122592,-181
12:37:29.122592,19967
12:37:29.122592,-1
12:37:29.122592,-176
12:37:29.122592,20735
12:37:29.122592,-1
12:37:29.122592,-179
12:37:29.122592,23039
12:37:29.122592,-1
12:37:29.122592,-155
12:37:29.122592,30463
12:37:29.122592,-1
12:37:29.122592,-114
12:37:29.122592,-24577
12:37:29.122592,-1
12:37:29.122592,-95
12:37:29.122592,-22273
12:37:29.122592,-1
12:37:29.122592,-83
12:37:29.122592,-21505
12:37:29.122592,-1
12:37:29.122592,-88
12:37:29.122592,-20481
12:37:29.122592,-1
12:37:29.122592,-74
12:37:29.706368,-74
12:37:29.706368,-18689
12:37:29.706368,-1
12:37:29.706368,-66
12:37:29.706368,-14849
12:37:29.706368,-1
12:37:29.706368,-57
12:37:29.706368,-11265
12:37:29.706368,-1
12:37:29.706368,-19
12:37:29.706368,-2561
12:37:29.706368,-1
12:37:29.706368,-47
12:37:29.706368,-5121
12:37:29.706368,-1
12:37:29.706368,382
12:37:29.706368,23296
12:37:29.706368,4
12:37:29.706368,1301
12:37:29.706368,28928
12:37:29.706368,2
12:37:29.706368,42
12:37:29.706368,2816
12:37:29.706368,0
12:37:29.706368,28
12:37:29.706368,-26112
12:37:29.706368,-1
12:37:29.706368,-148
12:37:29.706368,-26625
12:37:29.706368,-1
12:37:29.706368,-109
12:37:29.706368,-31489
12:37:29.706368,-1
12:37:29.706368,-102
12:37:29.706368,-22273
12:37:29.706368,-1
12:37:29.706368,-83
12:37:29.706368,-19201
12:37:29.706368,-1
12:37:29.706368,-69
12:37:29.706368,-15617
12:37:29.706368,-1
12:37:29.706368,-57
12:37:29.706368,-13057
12:37:29.706368,-1
12:37:29.706368,-52
12:37:29.706368,-11777
12:37:29.706368,-1
12:37:29.706368,-35
12:37:29.706368,-6913
12:37:29.706368,-1
12:37:29.706368,-21
12:37:29.706368,-2561
12:37:29.706368,-1
12:37:29.706368,0
12:37:29.706368,2304
12:37:29.706368,0
12:37:29.706368,11
12:37:29.706368,4096
12:37:29.706368,0
12:37:29.706368,35
12:37:29.706368,16384
12:37:29.706368,0
12:37:29.706368,85
12:37:29.706368,25600
12:37:29.706368,0
12:37:29.706368,109
12:37:29.706368,28672
12:37:29.706368,0
12:37:29.706368,119
12:37:29.706368,-32000
12:37:29.706368,0
12:37:29.706368,136
12:37:29.706368,-31488
12:37:29.706368,0
12:37:29.706368,136
12:37:29.706368,-28928
12:37:29.706368,0
12:37:29.706368,148
12:37:29.706368,-25856
12:37:29.706368,0
12:37:29.706368,157
12:37:29.706368,-25856
12:37:29.706368,0
12:37:29.706368,155
12:37:29.706368,-25856
12:37:29.706368,0
12:37:29.706368,155
12:37:29.706368,-25344
12:37:29.706368,0
12:37:29.706368,160
12:37:29.706368,-24576
12:37:29.706368,0
12:37:29.706368,167
12:37:29.706368,-22272
12:37:29.706368,0
12:37:29.706368,169
12:37:29.706368,-19200
12:37:29.706368,0
12:37:29.706368,191
12:37:29.706368,-16640
12:37:29.706368,0
12:37:29.706368,188
12:37:29.706368,-15616
12:37:29.706368,0
12:37:29.706368,207
12:37:29.706368,-10752
12:37:29.706368,0
12:37:29.706368,210
12:37:30.246387,212
12:37:30.246387,-8192
12:37:30.246387,0
12:37:30.246387,229
12:37:30.246387,-6912
12:37:30.246387,0
12:37:30.246387,231
12:37:30.246387,-5632
12:37:30.246387,0
12:37:30.246387,236
12:37:30.246387,-4608
12:37:30.246387,0
12:37:30.246387,243
12:37:30.246387,1024
12:37:30.246387,1
12:37:30.246387,267
12:37:30.246387,256
12:37:30.246387,1
12:37:30.246387,257
12:37:30.246387,1536
12:37:30.246387,1
12:37:30.246387,260
12:37:30.246387,1024
12:37:30.246387,1
12:37:30.246387,265
12:37:30.246387,1024
12:37:30.246387,1
12:37:30.246387,257
12:37:30.246387,1536
12:37:30.246387,1
12:37:30.246387,265
12:37:30.246387,3328
12:37:30.246387,1
12:37:30.246387,265
12:37:30.246387,256
12:37:30.246387,1
12:37:30.246387,255
12:37:30.246387,-256
12:37:30.246387,0
12:37:30.246387,260
12:37:30.246387,3328
12:37:30.246387,1
12:37:30.246387,279
12:37:30.246387,9472
12:37:30.246387,1
12:37:30.246387,296
12:37:30.246387,7680
12:37:30.246387,1
12:37:30.246387,289
12:37:30.246387,9472
12:37:30.246387,1
12:37:30.246387,281
12:37:30.246387,3328
12:37:30.246387,1
12:37:30.246387,272
12:37:30.246387,4608
12:37:30.246387,1
12:37:30.246387,274
12:37:30.246387,4096
12:37:30.246387,1
12:37:30.246387,269
12:37:30.246387,2816
12:37:30.246387,1
12:37:30.246387,269
12:37:30.246387,4608
12:37:30.246387,1
12:37:30.246387,269
12:37:30.246387,1024
12:37:30.246387,1
12:37:30.246387,238
12:37:30.246387,-6912
12:37:30.246387,0
12:37:30.246387,470
12:37:30.246387,26880
12:37:30.246387,4
12:37:30.246387,1516
12:37:30.246387,-1280
12:37:30.246387,3
12:37:30.246387,360
12:37:30.246387,-5120
12:37:30.246387,0
12:37:30.246387,279
12:37:30.246387,-24576
12:37:30.246387,0
12:37:30.246387,71
12:37:30.246387,23808
12:37:30.246387,0
12:37:30.246387,97
12:37:30.246387,21760
12:37:30.246387,0
12:37:30.246387,90
12:37:30.246387,24320
12:37:30.246387,0
12:37:30.246387,95
12:37:30.246387,23808
12:37:30.246387,0
12:37:30.246387,95
12:37:30.246387,24832
12:37:30.246387,0
12:37:30.246387,97
12:37:30.246387,24320
12:37:30.246387,0
12:37:30.246387,100
12:37:30.246387,26112
12:37:30.246387,0
12:37:30.246387,97
12:37:30.246387,26880
12:37:30.246387,0
12:37:30.246387,114
12:37:30.921312,119
12:37:30.921312,31744
12:37:30.921312,0
12:37:30.921312,133
12:37:30.921312,-28416
12:37:30.921312,0
12:37:30.921312,157
12:37:30.921312,-21760
12:37:30.921312,0
12:37:30.921312,200
12:37:30.921312,-7680
12:37:30.921312,0
12:37:30.921312,234
12:37:30.921312,-5120
12:37:30.921312,0
12:37:30.921312,238
12:37:30.921312,-4608
12:37:30.921312,0
12:37:30.921312,243
12:37:30.921312,-3328
12:37:30.921312,0
12:37:30.921312,243
12:37:30.921312,-2560
12:37:30.921312,0
12:37:30.921312,248
12:37:30.921312,-3328
12:37:30.921312,0
12:37:30.921312,243
12:37:30.921312,-4608
12:37:30.921312,0
12:37:30.921312,231
12:37:30.921312,-6912
12:37:30.921312,0
12:37:30.921312,229
12:37:30.921312,-8704
12:37:30.921312,0
12:37:30.921312,219
12:37:30.921312,-9472
12:37:30.921312,0
12:37:30.921312,207
12:37:30.921312,-14336
12:37:30.921312,0
12:37:30.921312,200
12:37:30.921312,-14336
12:37:30.921312,0
12:37:30.921312,203
12:37:30.921312,-13056
12:37:30.921312,0
12:37:30.921312,200
12:37:30.921312,-14848
12:37:30.921312,0
12:37:30.921312,198
12:37:30.921312,-13568
12:37:30.921312,0
12:37:30.921312,210
12:37:30.921312,-13056
12:37:30.921312,0
12:37:30.921312,200
12:37:30.921312,-13056
12:37:30.921312,0
12:37:30.921312,205
12:37:30.921312,-14336
12:37:30.921312,0
12:37:30.921312,203
12:37:30.921312,-12544
12:37:30.921312,0
12:37:30.921312,205
12:37:30.921312,-13568
12:37:30.921312,0
12:37:30.921312,203
12:37:30.921312,-13568
12:37:30.921312,0
12:37:30.921312,200
12:37:30.921312,-14848
12:37:30.921312,0
12:37:30.921312,200
12:37:30.921312,-13056
12:37:30.921312,0
12:37:30.921312,203
12:37:30.921312,-14336
12:37:30.921312,0
12:37:30.921312,200
12:37:30.921312,-14336
12:37:30.921312,0
12:37:30.921312,200
12:37:30.921312,-13056
12:37:30.921312,0
12:37:30.921312,203
12:37:30.921312,-13568
12:37:30.921312,0
12:37:30.921312,203
12:37:30.921312,-14336
12:37:30.921312,0
12:37:30.921312,203
12:37:30.921312,-13568
12:37:30.921312,0
12:37:30.921312,198
12:37:30.921312,-17408
12:37:30.921312,0
12:37:30.921312,181
12:37:30.921312,-20992
12:37:30.921312,0
12:37:30.921312,176
12:37:30.921312,-17920
12:37:30.921312,0
12:37:30.921312,203
12:37:30.921312,-9472
12:37:30.921312,0
12:37:30.921312,217
12:37:31.416363,214
12:37:31.416363,-11264
12:37:31.416363,0
12:37:31.416363,198
12:37:31.416363,-16640
12:37:31.416363,0
12:37:31.416363,195
12:37:31.416363,-13056
12:37:31.416363,0
12:37:31.416363,214
12:37:31.416363,-10752
12:37:31.416363,0
12:37:31.416363,203
12:37:31.416363,-14848
12:37:31.416363,0
12:37:31.416363,205
12:37:31.416363,-13568
12:37:31.416363,0
12:37:31.416363,198
12:37:31.416363,-14848
12:37:31.416363,0
12:37:31.416363,183
12:37:31.416363,-28928
12:37:31.416363,0
12:37:31.416363,269
12:37:31.416363,25856
12:37:31.416363,3
12:37:31.416363,1540
12:37:31.416363,30464
12:37:31.416363,5
12:37:31.416363,680
12:37:31.416363,28416
12:37:31.416363,1
12:37:31.416363,480
12:37:31.416363,-27136
12:37:31.416363,1
12:37:31.416363,200
12:37:31.416363,-2048
12:37:31.416363,0
12:37:31.416363,372
12:37:31.416363,30976
12:37:31.416363,1
12:37:31.416363,394
12:37:31.416363,-21248
12:37:31.416363,1
12:37:31.416363,437
12:37:31.416363,-18176
12:37:31.416363,1
12:37:31.416363,439
12:37:31.416363,-19200
12:37:31.416363,1
12:37:31.416363,441
12:37:31.416363,-19968
12:37:31.416363,1
12:37:31.416363,422
12:37:31.416363,-23552
12:37:31.416363,1
12:37:31.416363,425
12:37:31.416363,-21760
12:37:31.416363,1
12:37:31.416363,417
12:37:31.416363,-28416
12:37:31.416363,1
12:37:31.416363,391
12:37:31.416363,-29184
12:37:31.416363,1
12:37:31.416363,396
12:37:31.416363,32256
12:37:31.416363,1
12:37:31.416363,374
12:37:31.416363,32256
12:37:31.416363,1
12:37:31.416363,396
12:37:31.416363,-27136
12:37:31.416363,1
12:37:31.416363,394
12:37:31.416363,30208
12:37:31.416363,1
12:37:31.416363,360
12:37:31.416363,21248
12:37:31.416363,1
12:37:31.416363,317
12:37:31.416363,14336
12:37:31.416363,1
12:37:31.416363,320
12:37:31.416363,16896
12:37:31.416363,1
12:37:31.416363,324
12:37:31.416363,19968
12:37:31.416363,1
12:37:31.416363,329
12:37:31.416363,14336
12:37:31.416363,1
12:37:31.416363,303
12:37:31.416363,8448
12:37:31.416363,1
12:37:31.416363,236
12:37:31.416363,16384
12:37:31.416363,0
12:37:31.416363,-160
12:37:31.416363,13823
12:37:31.416363,-1
12:37:31.416363,-138
12:37:31.416363,22527
12:37:31.416363,-1
12:37:31.416363,-203
12:37:31.416363,23039
12:37:31.416363,-1
12:37:31.416363,-152
12:37:31.957351,-162
12:37:31.957351,29951
12:37:31.957351,-1
12:37:31.957351,-124
12:37:31.957351,-32513
12:37:31.957351,-1
12:37:31.957351,-124
12:37:31.957351,-27137
12:37:31.957351,-1
12:37:31.957351,-93
12:37:31.957351,-22273
12:37:31.957351,-1
12:37:31.957351,-81
12:37:31.957351,-17921
12:37:31.957351,-1
12:37:31.957351,-62
12:37:31.957351,-13569
12:37:31.957351,-1
12:37:31.957351,-38
12:37:31.957351,-2561
12:37:31.957351,-1
12:37:31.957351,-4
12:37:31.957351,-2049
12:37:31.957351,-1
12:37:31.957351,-4
12:37:31.957351,767
12:37:31.957351,0
12:37:31.957351,4
12:37:31.957351,4096
12:37:31.957351,0
12:37:31.957351,38
12:37:31.957351,10752
12:37:31.957351,0
12:37:31.957351,23
12:37:31.957351,6656
12:37:31.957351,0
12:37:31.957351,23
12:37:31.957351,4864
12:37:31.957351,0
12:37:31.957351,40
12:37:31.957351,13824
12:37:31.957351,0
12:37:31.957351,42
12:37:31.957351,12800
12:37:31.957351,0
12:37:31.957351,74
12:37:31.957351,21248
12:37:31.957351,0
12:37:31.957351,81
12:37:31.957351,17664
12:37:31.957351,0
12:37:31.957351,66
12:37:31.957351,22528
12:37:31.957351,0
12:37:31.957351,93
12:37:31.957351,20736
12:37:31.957351,0
12:37:31.957351,74
12:37:31.957351,18176
12:37:31.957351,0
12:37:31.957351,78
12:37:31.957351,21760
12:37:31.957351,0
12:37:31.957351,81
12:37:31.957351,20736
12:37:31.957351,0
12:37:31.957351,81
12:37:31.957351,15104
12:37:31.957351,0
12:37:31.957351,47
12:37:31.957351,21248
12:37:31.957351,0
12:37:31.957351,114
12:37:31.957351,29184
12:37:31.957351,0
12:37:31.957351,83
12:37:31.957351,15104
12:37:31.957351,0
12:37:31.957351,107
12:37:31.957351,-30720
12:37:31.957351,0
12:37:31.957351,105
12:37:31.957351,27392
12:37:31.957351,0
12:37:31.957351,107
12:37:31.957351,19968
12:37:31.957351,0
12:37:31.957351,93
12:37:31.957351,27904
12:37:31.957351,0
12:37:31.957351,102
12:37:31.957351,30976
12:37:31.957351,0
12:37:31.957351,119
12:37:31.957351,26880
12:37:31.957351,0
12:37:31.957351,124
12:37:31.957351,-30720
12:37:31.957351,0
12:37:31.957351,140
12:37:31.957351,-25856
12:37:31.957351,0
12:37:31.957351,126
12:37:31.957351,26112
12:37:31.957351,0
12:37:31.957351,114
12:37:31.957351,27904
12:37:31.957351,0
12:37:31.957351,102
12:37:32.495550,138
12:37:32.495550,-27648
12:37:32.495550,0
12:37:32.495550,100
12:37:32.495550,23808
12:37:32.495550,0
12:37:32.495550,145
12:37:32.495550,-23552
12:37:32.495550,0
12:37:32.495550,140
12:37:32.495550,-29696
12:37:32.495550,0
12:37:32.495550,150
12:37:32.495550,-32000
12:37:32.495550,0
12:37:32.495550,124
12:37:32.495550,-25856
12:37:32.495550,0
12:37:32.495550,152
12:37:32.495550,-30208
12:37:32.495550,0
12:37:32.495550,162
12:37:32.495550,-20992
12:37:32.495550,0
12:37:32.495550,152
12:37:32.495550,-28928
12:37:32.495550,0
12:37:32.495550,152
12:37:32.495550,-28416
12:37:32.495550,0
12:37:32.495550,114
12:37:32.495550,-27648
12:37:32.495550,0
12:37:32.495550,527
12:37:32.495550,11008
12:37:32.495550,5
12:37:32.495550,1679
12:37:32.495550,-1792
12:37:32.495550,3
12:37:32.495550,219
12:37:32.495550,11520
12:37:32.495550,0
12:37:32.495550,54
12:37:32.495550,-26880
12:37:32.495550,-1
12:37:32.495550,-195
12:37:32.495550,24319
12:37:32.495550,-1
12:37:32.495550,-188
12:37:32.495550,8447
12:37:32.495550,-1
12:37:32.495550,-205
12:37:32.495550,12799
12:37:32.495550,-1
12:37:32.495550,-226
12:37:32.495550,11519
12:37:32.495550,-1
12:37:32.495550,-200
12:37:32.495550,13311
12:37:32.495550,-1
12:37:32.495550,-217
12:37:32.495550,9727
12:37:32.495550,-1
12:37:32.495550,-205
12:37:32.495550,14591
12:37:32.495550,-1
12:37:32.495550,-219
12:37:32.495550,7167
12:37:32.495550,-1
12:37:32.495550,-207
12:37:32.495550,17663
12:37:32.495550,-1
12:37:32.495550,-191
12:37:32.495550,18175
12:37:32.495550,-1
12:37:32.495550,-169
12:37:32.495550,26879
12:37:32.495550,-1
12:37:32.495550,-133
12:37:32.495550,-26625
12:37:32.495550,-1
12:37:32.495550,-69
12:37:32.495550,-9985
12:37:32.495550,-1
12:37:32.495550,-35
12:37:32.495550,-7681
12:37:32.495550,-1
12:37:32.495550,-14
12:37:32.495550,255
12:37:32.495550,0
12:37:32.495550,0
12:37:32.495550,1792
12:37:32.495550,0
12:37:32.495550,26
12:37:32.495550,7936
12:37:32.495550,0
12:37:32.495550,28
12:37:32.495550,4096
12:37:32.495550,0
12:37:32.495550,-26
12:37:32.495550,-11777
12:37:32.495550,-1
12:37:32.495550,-33
12:37:32.495550,-6913
12:37:32.495550,-1
12:37:32.495550,-26
12:37:32.495550,-5121
12:37:32.495550,-1
12:37:32.495550,-33
12:37:33.036432,-45
12:37:33.036432,-12545
12:37:33.036432,-1
12:37:33.036432,-54
12:37:33.036432,-14337
12:37:33.036432,-1
12:37:33.036432,-66
12:37:33.036432,-17921
12:37:33.036432,-1
12:37:33.036432,-66
12:37:33.036432,-14849
12:37:33.036432,-1
12:37:33.036432,-42
12:37:33.036432,-11265
12:37:33.036432,-1
12:37:33.036432,-62
12:37:33.036432,-13569
12:37:33.036432,-1
12:37:33.036432,-45
12:37:33.036432,-13057
12:37:33.036432,-1
12:37:33.036432,-62
12:37:33.036432,-13569
12:37:33.036432,-1
12:37:33.036432,-19
12:37:33.036432,-4609
12:37:33.036432,-1
12:37:33.036432,-52
12:37:33.036432,-15617
12:37:33.036432,-1
12:37:33.036432,-62
12:37:33.036432,-14337
12:37:33.036432,-1
12:37:33.036432,-38
12:37:33.036432,-6401
12:37:33.036432,-1
12:37:33.036432,-38
12:37:33.036432,-13569
12:37:33.036432,-1
12:37:33.036432,-64
12:37:33.036432,-17921
12:37:33.036432,-1
12:37:33.036432,-81
12:37:33.036432,-22273
12:37:33.036432,-1
12:37:33.036432,-85
12:37:33.036432,-21505
12:37:33.036432,-1
12:37:33.036432,-102
12:37:33.036432,-30209
12:37:33.036432,-1
12:37:33.036432,-121
12:37:33.036432,-27649
12:37:33.036432,-1
12:37:33.036432,-107
12:37:33.036432,-30209
12:37:33.036432,-1
12:37:33.036432,-131
12:37:33.036432,31743
12:37:33.036432,-1
12:37:33.036432,-131
12:37:33.036432,30463
12:37:33.036432,-1
12:37:33.036432,-148
12:37:33.036432,27903
12:37:33.036432,-1
12:37:33.036432,-143
12:37:33.036432,29951
12:37:33.036432,-1
12:37:33.036432,-145
12:37:33.036432,25599
12:37:33.036432,-1
12:37:33.036432,-157
12:37:33.036432,24319
12:37:33.036432,-1
12:37:33.036432,-176
12:37:33.036432,22015
12:37:33.036432,-1
12:37:33.036432,-171
12:37:33.036432,15871
12:37:33.036432,-1
12:37:33.036432,-195
12:37:33.036432,24831
12:37:33.036432,-1
12:37:33.036432,-140
12:37:33.036432,27903
12:37:33.036432,-1
12:37:33.036432,-136
12:37:33.036432,-24065
12:37:33.036432,-1
12:37:33.036432,-90
12:37:33.036432,27903
12:37:33.036432,-1
12:37:33.036432,-200
12:37:33.036432,13823
12:37:33.036432,-1
12:37:33.036432,-195
12:37:33.036432,15103
12:37:33.036432,-1
12:37:33.036432,-195
12:37:33.036432,13311
12:37:33.036432,-1
12:37:33.036432,-222
12:37:33.036432,9727
12:37:33.036432,-1
12:37:33.036432,-229
12:37:33.036432,-1
12:37:33.036432,-2
12:37:33.036432,-298
12:37:33.620539,-317
12:37:33.620539,-9473
12:37:33.620539,-1
12:37:33.620539,711
12:37:33.620539,-29440
12:37:33.620539,4
12:37:33.620539,606
12:37:33.620539,16128
12:37:33.620539,-1
12:37:33.620539,-401
12:37:33.620539,-31233
12:37:33.620539,-2
12:37:33.620539,-527
12:37:33.620539,-24577
12:37:33.620539,-3
12:37:33.620539,-549
12:37:33.620539,-14593
12:37:33.620539,-3
12:37:33.620539,-597
12:37:33.620539,511
12:37:33.620539,-2
12:37:33.620539,-463
12:37:33.620539,-10497
12:37:33.620539,-3
12:37:33.620539,-664
12:37:33.620539,26367
12:37:33.620539,-3
12:37:33.620539,-647
12:37:33.620539,24575
12:37:33.620539,-3
12:37:33.620539,-685
12:37:33.620539,22783
12:37:33.620539,-3
12:37:33.620539,-685
12:37:33.620539,19711
12:37:33.620539,-3
12:37:33.620539,-695
12:37:33.620539,18943
12:37:33.620539,-3
12:37:33.620539,-687
12:37:33.620539,22015
12:37:33.620539,-3
12:37:33.620539,-675
12:37:33.620539,29951
12:37:33.620539,-3
12:37:33.620539,-637
12:37:33.620539,-31233
12:37:33.620539,-3
12:37:33.620539,-621
12:37:33.620539,-20737
12:37:33.620539,-3
12:37:33.620539,-589
12:37:33.620539,-22017
12:37:33.620539,-3
12:37:33.620539,-604
12:37:33.620539,-21505
12:37:33.620539,-3
12:37:33.620539,-592
12:37:33.620539,-20225
12:37:33.620539,-3
12:37:33.620539,-592
12:37:33.620539,-21505
12:37:33.620539,-3
12:37:33.620539,-604
12:37:33.620539,-21505
12:37:33.620539,-3
12:37:33.620539,-587
12:37:33.620539,-19457
12:37:33.620539,-3
12:37:33.620539,-585
12:37:33.620539,-14081
12:37:33.620539,-3
12:37:33.620539,-573
12:37:33.620539,-19457
12:37:33.620539,-3
12:37:33.620539,-589
12:37:33.620539,-17153
12:37:33.620539,-3
12:37:33.620539,-575
12:37:33.620539,-16641
12:37:33.620539,-3
12:37:33.620539,-575
12:37:33.620539,-14081
12:37:33.620539,-3
12:37:33.620539,-575
12:37:33.620539,-17153
12:37:33.620539,-3
12:37:33.620539,-563
12:37:33.620539,-9729
12:37:33.620539,-3
12:37:33.620539,-554
12:37:33.620539,-12801
12:37:33.620539,-3
12:37:33.620539,-561
12:37:33.620539,-8449
12:37:33.620539,-3
12:37:33.620539,-539
12:37:33.620539,-8449
12:37:33.620539,-3
12:37:33.620539,-542
12:37:33.620539,-4353
12:37:33.620539,-3
12:37:33.620539,-523
12:37:33.620539,-513
12:37:33.620539,-3
12:37:33.620539,-506
12:37:33.620539,1791
12:37:33.620539,-2
12:37:33.620539,-501
12:37:34.207527,-489
12:37:34.207527,8447
12:37:34.207527,-2
12:37:34.207527,-472
12:37:34.207527,12287
12:37:34.207527,-2
12:37:34.207527,-463
12:37:34.207527,14591
12:37:34.207527,-2
12:37:34.207527,-446
12:37:34.207527,17151
12:37:34.207527,-2
12:37:34.207527,-429
12:37:34.207527,28159
12:37:34.207527,-2
12:37:34.207527,-398
12:37:34.207527,28159
12:37:34.207527,-2
12:37:34.207527,-394
12:37:34.207527,32511
12:37:34.207527,-2
12:37:34.207527,-382
12:37:34.207527,-29441
12:37:34.207527,-2
12:37:34.207527,-363
12:37:34.207527,-27137
12:37:34.207527,-2
12:37:34.207527,-363
12:37:34.207527,-24577
12:37:34.207527,-2
12:37:34.207527,-348
12:37:34.207527,-22785
12:37:34.207527,-2
12:37:34.207527,-341
12:37:34.207527,-20225
12:37:34.207527,-2
12:37:34.207527,-324
12:37:34.207527,-11777
12:37:34.207527,-2
12:37:34.207527,-277
12:37:34.207527,-2561
12:37:34.207527,-2
12:37:34.207527,-272
12:37:34.207527,-6913
12:37:34.207527,-2
12:37:34.207527,-289
12:37:34.207527,-7425
12:37:34.207527,-2
12:37:34.207527,-274
12:37:34.207527,-1
12:37:34.207527,-2
12:37:34.207527,-248
12:37:34.207527,4095
12:37:34.207527,-1
12:37:34.207527,-231
12:37:34.207527,8959
12:37:34.207527,-1
12:37:34.207527,-210
12:37:34.207527,14591
12:37:34.207527,-1
12:37:34.207527,-200
12:37:34.207527,15103
12:37:34.207527,-1
12:37:34.207527,-205
12:37:34.207527,8447
12:37:34.207527,-1
12:37:34.207527,-74
12:37:34.207527,2303
12:37:34.207527,2
12:37:34.207527,1139
12:37:34.207527,32512
12:37:34.207527,3
12:37:34.207527,76
12:37:34.207527,768
12:37:34.207527,-1
12:37:34.207527,-119
12:37:34.207527,24831
12:37:34.207527,-1
12:37:34.207527,-305
12:37:34.207527,-8193
12:37:34.207527,-2
12:37:34.207527,-241
12:37:34.207527,-769
12:37:34.207527,-2
12:37:34.207527,-253
12:37:34.207527,8959
12:37:34.207527,-1
12:37:34.207527,-222
12:37:34.207527,7167
12:37:34.207527,-1
12:37:34.207527,-214
12:37:34.207527,15103
12:37:34.207527,-1
12:37:34.207527,-186
12:37:34.207527,22527
12:37:34.207527,-1
12:37:34.207527,-162
12:37:34.207527,24831
12:37:34.207527,-1
12:37:34.207527,-128
12:37:34.207527,-24577
12:37:34.207527,-1
12:37:34.207527,-95
12:37:34.207527,-22273
12:37:34.207527,-1
12:37:34.207527,-66
12:37:34.207527,-14337
12:37:34.207527,-1
12:37:34.207527,-40
12:37:34.747672,-26
12:37:34.747672,-2049
12:37:34.747672,-1
12:37:34.747672,14
12:37:34.747672,7936
12:37:34.747672,0
12:37:34.747672,40
12:37:34.747672,10240
12:37:34.747672,0
12:37:34.747672,40
12:37:34.747672,10752
12:37:34.747672,0
12:37:34.747672,45
12:37:34.747672,12032
12:37:34.747672,0
12:37:34.747672,54
12:37:34.747672,18176
12:37:34.747672,0
12:37:34.747672,88
12:37:34.747672,23808
12:37:34.747672,0
12:37:34.747672,88
12:37:34.747672,21248
12:37:34.747672,0
12:37:34.747672,93
12:37:34.747672,26112
12:37:34.747672,0
12:37:34.747672,97
12:37:34.747672,23808
12:37:34.747672,0
12:37:34.747672,100
12:37:34.747672,27904
12:37:34.747672,0
12:37:34.747672,112
12:37:34.747672,27904
12:37:34.747672,0
12:37:34.747672,112
12:37:34.747672,30464
12:37:34.747672,0
12:37:34.747672,126
12:37:34.747672,-31488
12:37:34.747672,0
12:37:34.747672,138
12:37:34.747672,-29696
12:37:34.747672,0
12:37:34.747672,150
12:37:34.747672,-25344
12:37:34.747672,0
12:37:34.747672,157
12:37:34.747672,-25344
12:37:34.747672,0
12:37:34.747672,167
12:37:34.747672,-19712
12:37:34.747672,0
12:37:34.747672,186
12:37:34.747672,-16640
12:37:34.747672,0
12:37:34.747672,193
12:37:34.747672,-17408
12:37:34.747672,0
12:37:34.747672,183
12:37:34.747672,-17920
12:37:34.747672,0
12:37:34.747672,195
12:37:34.747672,-15616
12:37:34.747672,0
12:37:34.747672,188
12:37:34.747672,-17408
12:37:34.747672,0
12:37:34.747672,191
12:37:34.747672,-17408
12:37:34.747672,0
12:37:34.747672,188
12:37:34.747672,-16640
12:37:34.747672,0
12:37:34.747672,195
12:37:34.747672,-14848
12:37:34.747672,0
12:37:34.747672,198
12:37:34.747672,-14336
12:37:34.747672,0
12:37:34.747672,195
12:37:34.747672,-19712
12:37:34.747672,0
12:37:34.747672,179
12:37:34.747672,-14848
12:37:34.747672,0
12:37:34.747672,212
12:37:34.747672,-6400
12:37:34.747672,0
12:37:34.747672,250
12:37:34.747672,-2560
12:37:34.747672,0
12:37:34.747672,241
12:37:34.747672,-2048
12:37:34.747672,0
12:37:34.747672,248
12:37:34.747672,-5120
12:37:34.747672,0
12:37:34.747672,236
12:37:34.747672,-3328
12:37:34.747672,0
12:37:34.747672,246
12:37:34.747672,-2048
12:37:34.747672,0
12:37:34.747672,248
12:37:34.747672,-2560
12:37:34.747672,0
12:37:34.747672,243
12:37:35.332547,246
12:37:35.332547,-3328
12:37:35.332547,0
12:37:35.332547,229
12:37:35.332547,-14848
12:37:35.332547,0
12:37:35.332547,279
12:37:35.332547,-4096
12:37:35.332547,2
12:37:35.332547,1356
12:37:35.332547,-6144
12:37:35.332547,4
12:37:35.332547,563
12:37:35.332547,-7680
12:37:35.332547,0
12:37:35.332547,286
12:37:35.332547,-4608
12:37:35.332547,0
12:37:35.332547,114
12:37:35.332547,24832
12:37:35.332547,0
12:37:35.332547,112
12:37:35.332547,25600
12:37:35.332547,0
12:37:35.332547,95
12:37:35.332547,28672
12:37:35.332547,0
12:37:35.332547,119
12:37:35.332547,30976
12:37:35.332547,0
12:37:35.332547,126
12:37:35.332547,31744
12:37:35.332547,0
12:37:35.332547,121
12:37:35.332547,-32768
12:37:35.332547,0
12:37:35.332547,136
12:37:35.332547,-28928
12:37:35.332547,0
12:37:35.332547,143
12:37:35.332547,-28928
12:37:35.332547,0
12:37:35.332547,148
12:37:35.332547,-27136
12:37:35.332547,0
12:37:35.332547,160
12:37:35.332547,-21760
12:37:35.332547,0
12:37:35.332547,181
12:37:35.332547,-15616
12:37:35.332547,0
12:37:35.332547,205
12:37:35.332547,-11264
12:37:35.332547,0
12:37:35.332547,222
12:37:35.332547,-6912
12:37:35.332547,0
12:37:35.332547,231
12:37:35.332547,-5632
12:37:35.332547,0
12:37:35.332547,236
12:37:35.332547,-5120
12:37:35.332547,0
12:37:35.332547,241
12:37:35.332547,-2560
12:37:35.332547,0
12:37:35.332547,250
12:37:35.332547,-2048
12:37:35.332547,0
12:37:35.332547,246
12:37:35.332547,-2048
12:37:35.332547,0
12:37:35.332547,253
12:37:35.332547,-768
12:37:35.332547,0
12:37:35.332547,248
12:37:35.332547,-2560
12:37:35.332547,0
12:37:35.332547,246
12:37:35.332547,-3840
12:37:35.332547,0
12:37:35.332547,236
12:37:35.332547,-2560
12:37:35.332547,0
12:37:35.332547,248
12:37:35.332547,-5120
12:37:35.332547,0
12:37:35.332547,236
12:37:35.332547,-3840
12:37:35.332547,0
12:37:35.332547,238
12:37:35.332547,-5120
12:37:35.332547,0
12:37:35.332547,238
12:37:35.332547,-3840
12:37:35.332547,0
12:37:35.332547,248
12:37:35.332547,-2560
12:37:35.332547,0
12:37:35.332547,243
12:37:35.332547,-2560
12:37:35.332547,0
12:37:35.332547,241
12:37:35.332547,-5120
12:37:35.332547,0
12:37:35.332547,241
12:37:35.332547,-3328
12:37:35.332547,0
12:37:35.332547,241
12:37:35.872634,243
12:37:35.872634,-3328
12:37:35.872634,0
12:37:35.872634,229
12:37:35.872634,-9984
12:37:35.872634,0
12:37:35.872634,217
12:37:35.872634,-9472
12:37:35.872634,0
12:37:35.872634,224
12:37:35.872634,-5120
12:37:35.872634,0
12:37:35.872634,246
12:37:35.872634,-1536
12:37:35.872634,0
12:37:35.872634,253
12:37:35.872634,1536
12:37:35.872634,1
12:37:35.872634,260
12:37:35.872634,-2560
12:37:35.872634,0
12:37:35.872634,243
12:37:35.872634,-2560
12:37:35.872634,0
12:37:35.872634,238
12:37:35.872634,-5120
12:37:35.872634,0
12:37:35.872634,248
12:37:35.872634,-1536
12:37:35.872634,0
12:37:35.872634,246
12:37:35.872634,-3840
12:37:35.872634,0
12:37:35.872634,241
12:37:35.872634,-6400
12:37:35.872634,0
12:37:35.872634,200
12:37:35.872634,-17920
12:37:35.872634,0
12:37:35.872634,460
12:37:35.872634,27648
12:37:35.872634,4
12:37:35.872634,1445
12:37:35.872634,-32256
12:37:35.872634,3
12:37:35.872634,296
12:37:35.872634,-9984
12:37:35.872634,0
12:37:35.872634,238
12:37:35.872634,27904
12:37:35.872634,0
12:37:35.872634,38
12:37:35.872634,15872
12:37:35.872634,0
12:37:35.872634,62
12:37:35.872634,10240
12:37:35.872634,0
12:37:35.872634,45
12:37:35.872634,13824
12:37:35.872634,0
12:37:35.872634,54
12:37:35.872634,15872
12:37:35.872634,0
12:37:35.872634,66
12:37:35.872634,14592
12:37:35.872634,0
12:37:35.872634,54
12:37:35.872634,15872
12:37:35.872634,0
12:37:35.872634,69
12:37:35.872634,16896
12:37:35.872634,0
12:37:35.872634,66
12:37:35.872634,17664
12:37:35.872634,0
12:37:35.872634,69
12:37:35.872634,20736
12:37:35.872634,0
12:37:35.872634,97
12:37:35.872634,26880
12:37:35.872634,0
12:37:35.872634,109
12:37:35.872634,32256
12:37:35.872634,0
12:37:35.872634,143
12:37:35.872634,-25344
12:37:35.872634,0
12:37:35.872634,171
12:37:35.872634,-19200
12:37:35.872634,0
12:37:35.872634,181
12:37:35.872634,-19200
12:37:35.872634,0
12:37:35.872634,191
12:37:35.872634,-14336
12:37:35.872634,0
12:37:35.872634,203
12:37:35.872634,-13056
12:37:35.872634,0
12:37:35.872634,207
12:37:35.872634,-12544
12:37:35.872634,0
12:37:35.872634,205
12:37:35.872634,-13056
12:37:35.872634,0
12:37:35.872634,207
12:37:35.872634,-11776
12:37:35.872634,0
12:37:35.872634,205
12:37:36.412850,198
12:37:36.412850,-14848
12:37:36.412850,0
12:37:36.412850,195
12:37:36.412850,-16640
12:37:36.412850,0
12:37:36.412850,188
12:37:36.412850,-17408
12:37:36.412850,0
12:37:36.412850,186
12:37:36.412850,-18688
12:37:36.412850,0
12:37:36.412850,193
12:37:36.412850,-12544
12:37:36.412850,0
12:37:36.412850,207
12:37:36.412850,-11776
12:37:36.412850,0
12:37:36.412850,222
12:37:36.412850,-9984
12:37:36.412850,0
12:37:36.412850,203
12:37:36.412850,-13056
12:37:36.412850,0
12:37:36.412850,212
12:37:36.412850,-11264
12:37:36.412850,0
12:37:36.412850,212
12:37:36.412850,-9472
12:37:36.412850,0
12:37:36.412850,224
12:37:36.412850,-10752
12:37:36.412850,0
12:37:36.412850,210
12:37:36.412850,-10752
12:37:36.412850,0
12:37:36.412850,210
12:37:36.412850,-14336
12:37:36.412850,0
12:37:36.412850,195
12:37:36.412850,-18688
12:37:36.412850,0
12:37:36.412850,176
12:37:36.412850,-18688
12:37:36.412850,0
12:37:36.412850,195
12:37:36.412850,-11776
12:37:36.412850,0
12:37:36.412850,214
12:37:36.412850,-11776
12:37:36.412850,0
12:37:36.412850,214
12:37:36.412850,-9984
12:37:36.412850,0
12:37:36.412850,195
12:37:36.412850,-17920
12:37:36.412850,0
12:37:36.412850,193
12:37:36.412850,-15616
12:37:36.412850,0
12:37:36.412850,188
12:37:36.412850,-17920
12:37:36.412850,0
12:37:36.412850,188
12:37:36.412850,-17408
12:37:36.412850,0
12:37:36.412850,188
12:37:36.412850,-18688
12:37:36.412850,0
12:37:36.412850,176
12:37:36.412850,-24576
12:37:36.412850,0
12:37:36.412850,109
12:37:36.412850,-14848
12:37:36.412850,0
12:37:36.412850,761
12:37:36.412850,-17408
12:37:36.412850,5
12:37:36.412850,1361
12:37:36.412850,13824
12:37:36.412850,2
12:37:36.412850,138
12:37:36.412850,-22272
12:37:36.412850,0
12:37:36.412850,100
12:37:36.412850,-10752
12:37:36.412850,-1
12:37:36.412850,-47
12:37:36.412850,-5121
12:37:36.412850,-1
12:37:36.412850,-35
12:37:36.412850,-8705
12:37:36.412850,-1
12:37:36.412850,-23
12:37:36.412850,-6401
12:37:36.412850,-1
12:37:36.412850,-26
12:37:36.412850,-5121
12:37:36.412850,-1
12:37:36.412850,-21
12:37:36.412850,-5121
12:37:36.412850,-1
12:37:36.412850,-23
12:37:36.412850,-5633
12:37:36.412850,-1
12:37:36.412850,-28
12:37:36.412850,-7681
12:37:36.412850,-1
12:37:36.412850,-28
12:37:36.949145,-23
12:37:36.949145,-5633
12:37:36.949145,-1
12:37:36.949145,-16
12:37:36.949145,767
12:37:36.949145,0
12:37:36.949145,19
12:37:36.949145,8960
12:37:36.949145,0
12:37:36.949145,69
12:37:36.949145,26112
12:37:36.949145,0
12:37:36.949145,112
12:37:36.949145,31744
12:37:36.949145,0
12:37:36.949145,140
12:37:36.949145,-28928
12:37:36.949145,0
12:37:36.949145,140
12:37:36.949145,-30208
12:37:36.949145,0
12:37:36.949145,131
12:37:36.949145,32256
12:37:36.949145,0
12:37:36.949145,128
12:37:36.949145,-31488
12:37:36.949145,0
12:37:36.949145,138
12:37:36.949145,-30208
12:37:36.949145,0
12:37:36.949145,136
12:37:36.949145,-30720
12:37:36.949145,0
12:37:36.949145,138
12:37:36.949145,-30208
12:37:36.949145,0
12:37:36.949145,138
12:37:36.949145,-31488
12:37:36.949145,0
12:37:36.949145,126
12:37:36.949145,-32000
12:37:36.949145,0
12:37:36.949145,131
12:37:36.949145,31744
12:37:36.949145,0
12:37:36.949145,119
12:37:36.949145,30976
12:37:36.949145,0
12:37:36.949145,124
12:37:36.949145,30464
12:37:36.949145,0
12:37:36.949145,119
12:37:36.949145,31744
12:37:36.949145,0
12:37:36.949145,128
12:37:36.949145,-32000
12:37:36.949145,0
12:37:36.949145,133
12:37:36.949145,31744
12:37:36.949145,0
12:37:36.949145,124
12:37:36.949145,-31488
12:37:36.949145,0
12:37:36.949145,128
12:37:36.949145,30976
12:37:36.949145,0
12:37:36.949145,128
12:37:36.949145,-30720
12:37:36.949145,0
12:37:36.949145,133
12:37:36.949145,-32768
12:37:36.949145,0
12:37:36.949145,121
12:37:36.949145,29952
12:37:36.949145,0
12:37:36.949145,107
12:37:36.949145,25600
12:37:36.949145,0
12:37:36.949145,112
12:37:36.949145,-31488
12:37:36.949145,0
12:37:36.949145,140
12:37:36.949145,-30208
12:37:36.949145,0
12:37:36.949145,143
12:37:36.949145,-30720
12:37:36.949145,0
12:37:36.949145,121
12:37:36.949145,30464
12:37:36.949145,0
12:37:36.949145,121
12:37:36.949145,29952
12:37:36.949145,0
12:37:36.949145,107
12:37:36.949145,26880
12:37:36.949145,0
12:37:36.949145,114
12:37:36.949145,29184
12:37:36.949145,0
12:37:36.949145,105
12:37:36.949145,26112
12:37:36.949145,0
12:37:36.949145,114
12:37:36.949145,30464
12:37:36.949145,0
12:37:36.949145,93
12:37:36.949145,10752
12:37:36.949145,0
12:37:36.949145,183
12:37:37.577673,824
12:37:37.577673,-12288
12:37:37.577673,5
12:37:37.577673,1239
12:37:37.577673,-23040
12:37:37.577673,1
12:37:37.577673,81
12:37:37.577673,-30208
12:37:37.577673,0
12:37:37.577673,40
12:37:37.577673,-24320
12:37:37.577673,-1
12:37:37.577673,-74
12:37:37.577673,-9985
12:37:37.577673,-1
12:37:37.577673,-69
12:37:37.577673,-17409
12:37:37.577673,-1
12:37:37.577673,-50
12:37:37.577673,-13569
12:37:37.577673,-1
12:37:37.577673,-50
12:37:37.577673,-9985
12:37:37.577673,-1
12:37:37.577673,-47
12:37:37.577673,-12545
12:37:37.577673,-1
12:37:37.577673,-50
12:37:37.577673,-13057
12:37:37.577673,-1
12:37:37.577673,-54
12:37:37.577673,-13057
12:37:37.577673,-1
12:37:37.577673,-52
12:37:37.577673,-13057
12:37:37.577673,-1
12:37:37.577673,-50
12:37:37.577673,-10497
12:37:37.577673,-1
12:37:37.577673,-23
12:37:37.577673,-257
12:37:37.577673,-1
12:37:37.577673,9
12:37:37.577673,5376
12:37:37.577673,0
12:37:37.577673,42
12:37:37.577673,15872
12:37:37.577673,0
12:37:37.577673,74
12:37:37.577673,21760
12:37:37.577673,0
12:37:37.577673,88
12:37:37.577673,22528
12:37:37.577673,0
12:37:37.577673,90
12:37:37.577673,23040
12:37:37.577673,0
12:37:37.577673,90
12:37:37.577673,24832
12:37:37.577673,0
12:37:37.577673,97
12:37:37.577673,23040
12:37:37.577673,0
12:37:37.577673,90
12:37:37.577673,24320
12:37:37.577673,0
12:37:37.577673,95
12:37:37.577673,24320
12:37:37.577673,0
12:37:37.577673,95
12:37:37.577673,24320
12:37:37.577673,0
12:37:37.577673,93
12:37:37.577673,23040
12:37:37.577673,0
12:37:37.577673,88
12:37:37.577673,19968
12:37:37.577673,0
12:37:37.577673,69
12:37:37.577673,18176
12:37:37.577673,0
12:37:37.577673,69
12:37:37.577673,16384
12:37:37.577673,0
12:37:37.577673,66
12:37:37.577673,18176
12:37:37.577673,0
12:37:37.577673,66
12:37:37.577673,16384
12:37:37.577673,0
12:37:37.577673,66
12:37:37.577673,18944
12:37:37.577673,0
12:37:37.577673,90
12:37:37.577673,23808
12:37:37.577673,0
12:37:37.577673,85
12:37:37.577673,21760
12:37:37.577673,0
12:37:37.577673,88
12:37:37.577673,21760
12:37:37.577673,0
12:37:37.577673,83
12:37:37.577673,21760
12:37:37.577673,0
12:37:37.577673,83
12:37:37.577673,20736
12:37:37.577673,0
12:37:37.577673,85
12:37:38.121990,85
12:37:38.121990,19968
12:37:38.121990,0
12:37:38.121990,76
12:37:38.121990,19968
12:37:38.121990,0
12:37:38.121990,76
12:37:38.121990,19456
12:37:38.121990,0
12:37:38.121990,83
12:37:38.121990,21248
12:37:38.121990,0
12:37:38.121990,78
12:37:38.121990,19456
12:37:38.121990,0
12:37:38.121990,78
12:37:38.121990,20736
12:37:38.121990,0
12:37:38.121990,95
12:37:38.121990,26880
12:37:38.121990,0
12:37:38.121990,97
12:37:38.121990,24320
12:37:38.121990,0
12:37:38.121990,100
12:37:38.121990,25600
12:37:38.121990,0
12:37:38.121990,102
12:37:38.121990,24832
12:37:38.121990,0
12:37:38.121990,78
12:37:38.121990,17664
12:37:38.121990,0
12:37:38.121990,78
12:37:38.121990,23808
12:37:38.121990,0
12:37:38.121990,105
12:37:38.121990,29184
12:37:38.121990,0
12:37:38.121990,114
12:37:38.121990,29184
12:37:38.121990,0
12:37:38.121990,112
12:37:38.121990,25600
12:37:38.121990,0
12:37:38.121990,85
12:37:38.121990,22528
12:37:38.121990,0
12:37:38.121990,97
12:37:38.121990,24832
12:37:38.121990,0
12:37:38.121990,90
12:37:38.121990,21760
12:37:38.121990,0
12:37:38.121990,88
12:37:38.121990,23808
12:37:38.121990,0
12:37:38.121990,93
12:37:38.121990,22528
12:37:38.121990,0
12:37:38.121990,85
12:37:38.121990,16384
12:37:38.121990,0
12:37:38.121990,21
12:37:38.121990,-27136
12:37:38.121990,0
12:37:38.121990,771
12:37:38.121990,-20992
12:37:38.121990,5
12:37:38.121990,1237
12:37:38.121990,-30208
12:37:38.121990,1
12:37:38.121990,14
12:37:38.121990,20736
12:37:38.121990,0
12:37:38.121990,4
12:37:38.121990,28416
12:37:38.121990,-1
12:37:38.121990,-136
12:37:38.121990,-25345
12:37:38.121990,-1
12:37:38.121990,-124
12:37:38.121990,-30721
12:37:38.121990,-1
12:37:38.121990,-95
12:37:38.121990,-25345
12:37:38.121990,-1
12:37:38.121990,-107
12:37:38.121990,-24577
12:37:38.121990,-1
12:37:38.121990,-93
12:37:38.121990,-23553
12:37:38.121990,-1
12:37:38.121990,-93
12:37:38.121990,-23553
12:37:38.121990,-1
12:37:38.121990,-88
12:37:38.121990,-21505
12:37:38.121990,-1
12:37:38.121990,-85
12:37:38.121990,-22273
12:37:38.121990,-1
12:37:38.121990,-81
12:37:38.121990,-16129
12:37:38.121990,-1
12:37:38.121990,-54
12:37:38.121990,-11777
12:37:38.121990,-1
12:37:38.121990,-33
12:37:38.659141,-11
12:37:38.659141,1279
12:37:38.659141,0
12:37:38.659141,26
12:37:38.659141,12032
12:37:38.659141,0
12:37:38.659141,57
12:37:38.659141,15872
12:37:38.659141,0
12:37:38.659141,64
12:37:38.659141,18176
12:37:38.659141,0
12:37:38.659141,71
12:37:38.659141,19968
12:37:38.659141,0
12:37:38.659141,90
12:37:38.659141,23040
12:37:38.659141,0
12:37:38.659141,88
12:37:38.659141,23040
12:37:38.659141,0
12:37:38.659141,88
12:37:38.659141,21248
12:37:38.659141,0
12:37:38.659141,88
12:37:38.659141,22528
12:37:38.659141,0
12:37:38.659141,85
12:37:38.659141,21248
12:37:38.659141,0
12:37:38.659141,78
12:37:38.659141,19968
12:37:38.659141,0
12:37:38.659141,81
12:37:38.659141,19968
12:37:38.659141,0
12:37:38.659141,71
12:37:38.659141,18176
12:37:38.659141,0
12:37:38.659141,76
12:37:38.659141,19968
12:37:38.659141,0
12:37:38.659141,76
12:37:38.659141,20736
12:37:38.659141,0
12:37:38.659141,85
12:37:38.659141,21760
12:37:38.659141,0
12:37:38.659141,78
12:37:38.659141,19968
12:37:38.659141,0
12:37:38.659141,83
12:37:38.659141,21248
12:37:38.659141,0
12:37:38.659141,78
12:37:38.659141,19968
12:37:38.659141,0
12:37:38.659141,78
12:37:38.659141,20736
12:37:38.659141,0
12:37:38.659141,74
12:37:38.659141,18176
12:37:38.659141,0
12:37:38.659141,83
12:37:38.659141,20736
12:37:38.659141,0
12:37:38.659141,69
12:37:38.659141,17664
12:37:38.659141,0
12:37:38.659141,78
12:37:38.659141,19968
12:37:38.659141,0
12:37:38.659141,76
12:37:38.659141,20736
12:37:38.659141,0
12:37:38.659141,83
12:37:38.659141,20736
12:37:38.659141,0
12:37:38.659141,74
12:37:38.659141,17664
12:37:38.659141,0
12:37:38.659141,69
12:37:38.659141,17664
12:37:38.659141,0
12:37:38.659141,62
12:37:38.659141,15104
12:37:38.659141,0
12:37:38.659141,64
12:37:38.659141,16384
12:37:38.659141,0
12:37:38.659141,54
12:37:38.659141,13824
12:37:38.659141,0
12:37:38.659141,62
12:37:38.659141,14592
12:37:38.659141,0
12:37:38.659141,54
12:37:38.659141,13312
12:37:38.659141,0
12:37:38.659141,45
12:37:38.659141,10752
12:37:38.659141,0
12:37:38.659141,42
12:37:38.659141,10240
12:37:38.659141,0
12:37:38.659141,35
12:37:38.659141,7936
12:37:38.659141,0
12:37:38.659141,28
12:37:39.291338,26
12:37:39.291338,6656
12:37:39.291338,0
12:37:39.291338,21
12:37:39.291338,1024
12:37:39.291338,0
12:37:39.291338,-4
12:37:39.291338,2559
12:37:39.291338,0
12:37:39.291338,35
12:37:39.291338,13824
12:37:39.291338,0
12:37:39.291338,52
12:37:39.291338,10752
12:37:39.291338,0
12:37:39.291338,50
12:37:39.291338,11520
12:37:39.291338,0
12:37:39.291338,23
12:37:39.291338,4096
12:37:39.291338,0
12:37:39.291338,26
12:37:39.291338,5376
12:37:39.291338,0
12:37:39.291338,11
12:37:39.291338,1024
12:37:39.291338,0
12:37:39.291338,-2
12:37:39.291338,-257
12:37:39.291338,-1
12:37:39.291338,0
12:37:39.291338,-512
12:37:39.291338,-1
12:37:39.291338,-11
12:37:39.291338,-7681
12:37:39.291338,-1
12:37:39.291338,-66
12:37:39.291338,767
12:37:39.291338,0
12:37:39.291338,477
12:37:39.291338,31744
12:37:39.291338,4
12:37:39.291338,1122
12:37:39.291338,-26112
12:37:39.291338,1
12:37:39.291338,-16
12:37:39.291338,-4609
12:37:39.291338,-1
12:37:39.291338,-76
12:37:39.291338,12031
12:37:39.291338,-1
12:37:39.291338,-238
12:37:39.291338,8959
12:37:39.291338,-1
12:37:39.291338,-236
12:37:39.291338,2815
12:37:39.291338,-1
12:37:39.291338,-236
12:37:39.291338,5887
12:37:39.291338,-1
12:37:39.291338,-231
12:37:39.291338,8447
12:37:39.291338,-1
12:37:39.291338,-222
12:37:39.291338,7935
12:37:39.291338,-1
12:37:39.291338,-224
12:37:39.291338,8959
12:37:39.291338,-1
12:37:39.291338,-226
12:37:39.291338,7167
12:37:39.291338,-1
12:37:39.291338,-224
12:37:39.291338,7935
12:37:39.291338,-1
12:37:39.291338,-231
12:37:39.291338,7935
12:37:39.291338,-1
12:37:39.291338,-214
12:37:39.291338,13311
12:37:39.291338,-1
12:37:39.291338,-200
12:37:39.291338,16895
12:37:39.291338,-1
12:37:39.291338,-171
12:37:39.291338,27903
12:37:39.291338,-1
12:37:39.291338,-131
12:37:39.291338,-30209
12:37:39.291338,-1
12:37:39.291338,-102
12:37:39.291338,-24065
12:37:39.291338,-1
12:37:39.291338,-97
12:37:39.291338,-24065
12:37:39.291338,-1
12:37:39.291338,-88
12:37:39.291338,-20993
12:37:39.291338,-1
12:37:39.291338,-78
12:37:39.291338,-19713
12:37:39.291338,-1
12:37:39.291338,-85
12:37:39.291338,-22273
12:37:39.291338,-1
12:37:39.291338,-85
12:37:39.291338,-22273
12:37:39.291338,-1
12:37:39.291338,-95
12:37:39.786315,-100
12:37:39.786315,-26625
12:37:39.786315,-1
12:37:39.786315,-105
12:37:39.786315,-27649
12:37:39.786315,-1
12:37:39.786315,-114
12:37:39.786315,-29697
12:37:39.786315,-1
12:37:39.786315,-117
12:37:39.786315,-28929
12:37:39.786315,-1
12:37:39.786315,-114
12:37:39.786315,-30209
12:37:39.786315,-1
12:37:39.786315,-119
12:37:39.786315,-28929
12:37:39.786315,-1
12:37:39.786315,-114
12:37:39.786315,-30209
12:37:39.786315,-1
12:37:39.786315,-117
12:37:39.786315,-27137
12:37:39.786315,-1
12:37:39.786315,-90
12:37:39.786315,-21505
12:37:39.786315,-1
12:37:39.786315,-95
12:37:39.786315,-25345
12:37:39.786315,-1
12:37:39.786315,-97
12:37:39.786315,-24577
12:37:39.786315,-1
12:37:39.786315,-100
12:37:39.786315,-25857
12:37:39.786315,-1
12:37:39.786315,-109
12:37:39.786315,-28417
12:37:39.786315,-1
12:37:39.786315,-109
12:37:39.786315,-26625
12:37:39.786315,-1
12:37:39.786315,-105
12:37:39.786315,-26625
12:37:39.786315,-1
12:37:39.786315,-107
12:37:39.786315,-27649
12:37:39.786315,-1
12:37:39.786315,-117
12:37:39.786315,-31489
12:37:39.786315,-1
12:37:39.786315,-119
12:37:39.786315,-28929
12:37:39.786315,-1
12:37:39.786315,-117
12:37:39.786315,-30209
12:37:39.786315,-1
12:37:39.786315,-117
12:37:39.786315,-28929
12:37:39.786315,-1
12:37:39.786315,-112
12:37:39.786315,-29697
12:37:39.786315,-1
12:37:39.786315,-128
12:37:39.786315,30975
12:37:39.786315,-1
12:37:39.786315,-136
12:37:39.786315,-30721
12:37:39.786315,-1
12:37:39.786315,-102
12:37:39.786315,-22785
12:37:39.786315,-1
12:37:39.786315,-93
12:37:39.786315,-23553
12:37:39.786315,-1
12:37:39.786315,-88
12:37:39.786315,-24065
12:37:39.786315,-1
12:37:39.786315,-112
12:37:39.786315,-28417
12:37:39.786315,-1
12:37:39.786315,-105
12:37:39.786315,-27137
12:37:39.786315,-1
12:37:39.786315,-105
12:37:39.786315,-25857
12:37:39.786315,-1
12:37:39.786315,-102
12:37:39.786315,-26625
12:37:39.786315,-1
12:37:39.786315,-100
12:37:39.786315,-24577
12:37:39.786315,-1
12:37:39.786315,-97
12:37:39.786315,-27137
12:37:39.786315,-1
12:37:39.786315,-138
12:37:39.786315,30463
12:37:39.786315,-1
12:37:39.786315,188
12:37:39.786315,-26880
12:37:39.786315,3
12:37:39.786315,1222
12:37:39.786315,28416
12:37:39.786315,2
12:37:39.786315,-4
12:37:39.786315,-23553
12:37:39.786315,-1
12:37:39.786315,-83
12:37:40.326306,-224
12:37:40.326306,-10497
12:37:40.326306,-2
12:37:40.326306,-265
12:37:40.326306,-769
12:37:40.326306,-2
12:37:40.326306,-274
12:37:40.326306,-2049
12:37:40.326306,-2
12:37:40.326306,-253
12:37:40.326306,3583
12:37:40.326306,-1
12:37:40.326306,-226
12:37:40.326306,9727
12:37:40.326306,-1
12:37:40.326306,-219
12:37:40.326306,9727
12:37:40.326306,-1
12:37:40.326306,-222
12:37:40.326306,9727
12:37:40.326306,-1
12:37:40.326306,-217
12:37:40.326306,10239
12:37:40.326306,-1
12:37:40.326306,-214
12:37:40.326306,13311
12:37:40.326306,-1
12:37:40.326306,-198
12:37:40.326306,16383
12:37:40.326306,-1
12:37:40.326306,-179
12:37:40.326306,25599
12:37:40.326306,-1
12:37:40.326306,-138
12:37:40.326306,-30721
12:37:40.326306,-1
12:37:40.326306,-93
12:37:40.326306,-15617
12:37:40.326306,-1
12:37:40.326306,-47
12:37:40.326306,-8193
12:37:40.326306,-1
12:37:40.326306,-21
12:37:40.326306,-3329
12:37:40.326306,-1
12:37:40.326306,-7
12:37:40.326306,-257
12:37:40.326306,-1
12:37:40.326306,-4
12:37:40.326306,-257
12:37:40.326306,-1
12:37:40.326306,2
12:37:40.326306,1024
12:37:40.326306,0
12:37:40.326306,4
12:37:40.326306,2304
12:37:40.326306,0
12:37:40.326306,7
12:37:40.326306,0
12:37:40.326306,0
12:37:40.326306,4
12:37:40.326306,1792
12:37:40.326306,0
12:37:40.326306,-2
12:37:40.326306,-2049
12:37:40.326306,-1
12:37:40.326306,-7
12:37:40.326306,255
12:37:40.326306,0
12:37:40.326306,0
12:37:40.326306,-1024
12:37:40.326306,-1
12:37:40.326306,-4
12:37:40.326306,767
12:37:40.326306,0
12:37:40.326306,9
12:37:40.326306,2304
12:37:40.326306,0
12:37:40.326306,9
12:37:40.326306,3584
12:37:40.326306,0
12:37:40.326306,16
12:37:40.326306,4864
12:37:40.326306,0
12:37:40.326306,19
12:37:40.326306,4864
12:37:40.326306,0
12:37:40.326306,21
12:37:40.326306,6656
12:37:40.326306,0
12:37:40.326306,31
12:37:40.326306,7168
12:37:40.326306,0
12:37:40.326306,28
12:37:40.326306,8448
12:37:40.326306,0
12:37:40.326306,35
12:37:40.326306,7936
12:37:40.326306,0
12:37:40.326306,35
12:37:40.326306,9728
12:37:40.326306,0
12:37:40.326306,35
12:37:40.326306,9728
12:37:40.326306,0
12:37:40.326306,42
12:37:40.326306,10240
12:37:40.326306,0
12:37:40.326306,38
12:37:40.911937,38
12:37:40.911937,10240
12:37:40.911937,0
12:37:40.911937,42
12:37:40.911937,10752
12:37:40.911937,0
12:37:40.911937,50
12:37:40.911937,15872
12:37:40.911937,0
12:37:40.911937,71
12:37:40.911937,16384
12:37:40.911937,0
12:37:40.911937,62
12:37:40.911937,15872
12:37:40.911937,0
12:37:40.911937,59
12:37:40.911937,14592
12:37:40.911937,0
12:37:40.911937,54
12:37:40.911937,13824
12:37:40.911937,0
12:37:40.911937,54
12:37:40.911937,13824
12:37:40.911937,0
12:37:40.911937,52
12:37:40.911937,13824
12:37:40.911937,0
12:37:40.911937,57
12:37:40.911937,13824
12:37:40.911937,0
12:37:40.911937,54
12:37:40.911937,15872
12:37:40.911937,0
12:37:40.911937,69
12:37:40.911937,16896
12:37:40.911937,0
12:37:40.911937,62
12:37:40.911937,15872
12:37:40.911937,0
12:37:40.911937,66
12:37:40.911937,17664
12:37:40.911937,0
12:37:40.911937,64
12:37:40.911937,15872
12:37:40.911937,0
12:37:40.911937,69
12:37:40.911937,17664
12:37:40.911937,0
12:37:40.911937,62
12:37:40.911937,16384
12:37:40.911937,0
12:37:40.911937,69
12:37:40.911937,16384
12:37:40.911937,0
12:37:40.911937,59
12:37:40.911937,15872
12:37:40.911937,0
12:37:40.911937,62
12:37:40.911937,16384
12:37:40.911937,0
12:37:40.911937,64
12:37:40.911937,15872
12:37:40.911937,0
12:37:40.911937,64
12:37:40.911937,16896
12:37:40.911937,0
12:37:40.911937,62
12:37:40.911937,13312
12:37:40.911937,0
12:37:40.911937,50
12:37:40.911937,13824
12:37:40.911937,0
12:37:40.911937,64
12:37:40.911937,19456
12:37:40.911937,0
12:37:40.911937,83
12:37:40.911937,22528
12:37:40.911937,0
12:37:40.911937,93
12:37:40.911937,21760
12:37:40.911937,0
12:37:40.911937,71
12:37:40.911937,16896
12:37:40.911937,0
12:37:40.911937,74
12:37:40.911937,19968
12:37:40.911937,0
12:37:40.911937,76
12:37:40.911937,18944
12:37:40.911937,0
12:37:40.911937,76
12:37:40.911937,18944
12:37:40.911937,0
12:37:40.911937,69
12:37:40.911937,18176
12:37:40.911937,0
12:37:40.911937,69
12:37:40.911937,8960
12:37:40.911937,0
12:37:40.911937,19
12:37:40.911937,13312
12:37:40.911937,1
12:37:40.911937,1062
12:37:40.911937,-5632
12:37:40.911937,5
12:37:40.911937,981
12:37:40.911937,-8704
12:37:40.911937,0
12:37:40.911937,28
12:37:41.496349,54
12:37:41.496349,-18944
12:37:41.496349,-1
12:37:41.496349,-167
12:37:41.496349,30463
12:37:41.496349,-1
12:37:41.496349,-131
12:37:41.496349,27391
12:37:41.496349,-1
12:37:41.496349,-143
12:37:41.496349,-32001
12:37:41.496349,-1
12:37:41.496349,-114
12:37:41.496349,-25345
12:37:41.496349,-1
12:37:41.496349,-102
12:37:41.496349,-26625
12:37:41.496349,-1
12:37:41.496349,-105
12:37:41.496349,-25857
12:37:41.496349,-1
12:37:41.496349,-100
12:37:41.496349,-24065
12:37:41.496349,-1
12:37:41.496349,-100
12:37:41.496349,-25857
12:37:41.496349,-1
12:37:41.496349,-100
12:37:41.496349,-24577
12:37:41.496349,-1
12:37:41.496349,-88
12:37:41.496349,-19201
12:37:41.496349,-1
12:37:41.496349,-66
12:37:41.496349,-14337
12:37:41.496349,-1
12:37:41.496349,-38
12:37:41.496349,-1537
12:37:41.496349,-1
12:37:41.496349,26
12:37:41.496349,13312
12:37:41.496349,0
12:37:41.496349,66
12:37:41.496349,18176
12:37:41.496349,0
12:37:41.496349,74
12:37:41.496349,20736
12:37:41.496349,0
12:37:41.496349,81
12:37:41.496349,19456
12:37:41.496349,0
12:37:41.496349,76
12:37:41.496349,19968
12:37:41.496349,0
12:37:41.496349,81
12:37:41.496349,19456
12:37:41.496349,0
12:37:41.496349,74
12:37:41.496349,18176
12:37:41.496349,0
12:37:41.496349,71
12:37:41.496349,18176
12:37:41.496349,0
12:37:41.496349,69
12:37:41.496349,18176
12:37:41.496349,0
12:37:41.496349,71
12:37:41.496349,17664
12:37:41.496349,0
12:37:41.496349,62
12:37:41.496349,13824
12:37:41.496349,0
12:37:41.496349,64
12:37:41.496349,17664
12:37:41.496349,0
12:37:41.496349,64
12:37:41.496349,15872
12:37:41.496349,0
12:37:41.496349,64
12:37:41.496349,16896
12:37:41.496349,0
12:37:41.496349,64
12:37:41.496349,16896
12:37:41.496349,0
12:37:41.496349,71
12:37:41.496349,17664
12:37:41.496349,0
12:37:41.496349,66
12:37:41.496349,18176
12:37:41.496349,0
12:37:41.496349,71
12:37:41.496349,17664
12:37:41.496349,0
12:37:41.496349,71
12:37:41.496349,19968
12:37:41.496349,0
12:37:41.496349,78
12:37:41.496349,19456
12:37:41.496349,0
12:37:41.496349,78
12:37:41.496349,20736
12:37:41.496349,0
12:37:41.496349,81
12:37:41.496349,19968
12:37:41.496349,0
12:37:41.496349,76
12:37:41.496349,18944
12:37:41.496349,0
12:37:41.496349,76
12:37:42.034505,76
12:37:42.034505,18176
12:37:42.034505,0
12:37:42.034505,69
12:37:42.034505,18176
12:37:42.034505,0
12:37:42.034505,69
12:37:42.034505,16896
12:37:42.034505,0
12:37:42.034505,74
12:37:42.034505,20736
12:37:42.034505,0
12:37:42.034505,76
12:37:42.034505,18944
12:37:42.034505,0
12:37:42.034505,83
12:37:42.034505,23808
12:37:42.034505,0
12:37:42.034505,100
12:37:42.034505,24832
12:37:42.034505,0
12:37:42.034505,93
12:37:42.034505,23040
12:37:42.034505,0
12:37:42.034505,93
12:37:42.034505,23808
12:37:42.034505,0
12:37:42.034505,90
12:37:42.034505,21760
12:37:42.034505,0
12:37:42.034505,83
12:37:42.034505,19968
12:37:42.034505,0
12:37:42.034505,78
12:37:42.034505,21248
12:37:42.034505,0
12:37:42.034505,83
12:37:42.034505,19456
12:37:42.034505,0
12:37:42.034505,71
12:37:42.034505,17664
12:37:42.034505,0
12:37:42.034505,71
12:37:42.034505,18176
12:37:42.034505,0
12:37:42.034505,69
12:37:42.034505,16896
12:37:42.034505,0
12:37:42.034505,69
12:37:42.034505,16384
12:37:42.034505,0
12:37:42.034505,57
12:37:42.034505,13312
12:37:42.034505,0
12:37:42.034505,50
12:37:42.034505,11520
12:37:42.034505,0
12:37:42.034505,50
12:37:42.034505,17664
12:37:42.034505,0
12:37:42.034505,85
12:37:42.034505,21248
12:37:42.034505,0
12:37:42.034505,76
12:37:42.034505,18944
12:37:42.034505,0
12:37:42.034505,64
12:37:42.034505,13312
12:37:42.034505,0
12:37:42.034505,52
12:37:42.034505,15104
12:37:42.034505,0
12:37:42.034505,57
12:37:42.034505,13312
12:37:42.034505,0
12:37:42.034505,47
12:37:42.034505,10752
12:37:42.034505,0
12:37:42.034505,45
12:37:42.034505,12800
12:37:42.034505,0
12:37:42.034505,42
12:37:42.034505,5376
12:37:42.034505,0
12:37:42.034505,-9
12:37:42.034505,-27393
12:37:42.034505,0
12:37:42.034505,776
12:37:42.034505,28672
12:37:42.034505,5
12:37:42.034505,1132
12:37:42.034505,27392
12:37:42.034505,1
12:37:42.034505,26
12:37:42.034505,10752
12:37:42.034505,0
12:37:42.034505,-42
12:37:42.034505,24831
12:37:42.034505,-1
12:37:42.034505,-162
12:37:42.034505,29183
12:37:42.034505,-1
12:37:42.034505,-160
12:37:42.034505,24831
12:37:42.034505,-1
12:37:42.034505,-140
12:37:42.034505,29951
12:37:42.034505,-1
12:37:42.034505,-140
12:37:42.577337,-131
12:37:42.577337,-32513
12:37:42.577337,-1
12:37:42.577337,-128
12:37:42.577337,-32513
12:37:42.577337,-1
12:37:42.577337,-128
12:37:42.577337,-32513
12:37:42.577337,-1
12:37:42.577337,-128
12:37:42.577337,-32513
12:37:42.577337,-1
12:37:42.577337,-121
12:37:42.577337,-25857
12:37:42.577337,-1
12:37:42.577337,-93
12:37:42.577337,-22785
12:37:42.577337,-1
12:37:42.577337,-78
12:37:42.577337,-16129
12:37:42.577337,-1
12:37:42.577337,-47
12:37:42.577337,-7681
12:37:42.577337,-1
12:37:42.577337,-9
12:37:42.577337,3839
12:37:42.577337,0
12:37:42.577337,35
12:37:42.577337,11520
12:37:42.577337,0
12:37:42.577337,50
12:37:42.577337,13312
12:37:42.577337,0
12:37:42.577337,52
12:37:42.577337,13824
12:37:42.577337,0
12:37:42.577337,57
12:37:42.577337,14592
12:37:42.577337,0
12:37:42.577337,57
12:37:42.577337,13824
12:37:42.577337,0
12:37:42.577337,50
12:37:42.577337,13824
12:37:42.577337,0
12:37:42.577337,57
12:37:42.577337,14592
12:37:42.577337,0
12:37:42.577337,59
12:37:42.577337,13824
12:37:42.577337,0
12:37:42.577337,42
12:37:42.577337,9728
12:37:42.577337,0
12:37:42.577337,42
12:37:42.577337,10752
12:37:42.577337,0
12:37:42.577337,38
12:37:42.577337,9728
12:37:42.577337,0
12:37:42.577337,35
12:37:42.577337,8448
12:37:42.577337,0
12:37:42.577337,38
12:37:42.577337,10240
12:37:42.577337,0
12:37:42.577337,38
12:37:42.577337,10752
12:37:42.577337,0
12:37:42.577337,45
12:37:42.577337,11520
12:37:42.577337,0
12:37:42.577337,47
12:37:42.577337,12032
12:37:42.577337,0
12:37:42.577337,50
12:37:42.577337,12032
12:37:42.577337,0
12:37:42.577337,42
12:37:42.577337,11520
12:37:42.577337,0
12:37:42.577337,52
12:37:42.577337,13312
12:37:42.577337,0
12:37:42.577337,50
12:37:42.577337,11520
12:37:42.577337,0
12:37:42.577337,47
12:37:42.577337,11520
12:37:42.577337,0
12:37:42.577337,45
12:37:42.577337,12032
12:37:42.577337,0
12:37:42.577337,45
12:37:42.577337,12032
12:37:42.577337,0
12:37:42.577337,52
12:37:42.577337,13824
12:37:42.577337,0
12:37:42.577337,57
12:37:42.577337,15104
12:37:42.577337,0
12:37:42.577337,59
12:37:42.577337,15104
12:37:42.577337,0
12:37:42.577337,59
12:37:42.577337,14592
12:37:42.577337,0
12:37:42.577337,54
12:37:43.158321,54
12:37:43.158321,13824
12:37:43.158321,0
12:37:43.158321,54
12:37:43.158321,12800
12:37:43.158321,0
12:37:43.158321,45
12:37:43.158321,12800
12:37:43.158321,0
12:37:43.158321,59
12:37:43.158321,14592
12:37:43.158321,0
12:37:43.158321,54
12:37:43.158321,16384
12:37:43.158321,0
12:37:43.158321,78
12:37:43.158321,22528
12:37:43.158321,0
12:37:43.158321,83
12:37:43.158321,19456
12:37:43.158321,0
12:37:43.158321,74
12:37:43.158321,16384
12:37:43.158321,0
12:37:43.158321,52
12:37:43.158321,14592
12:37:43.158321,0
12:37:43.158321,59
12:37:43.158321,14592
12:37:43.158321,0
12:37:43.158321,50
12:37:43.158321,12032
12:37:43.158321,0
12:37:43.158321,50
12:37:43.158321,12800
12:37:43.158321,0
12:37:43.158321,52
12:37:43.158321,12800
12:37:43.158321,0
12:37:43.158321,28
12:37:43.158321,-3584
12:37:43.158321,-1
12:37:43.158321,88
12:37:43.158321,-29184
12:37:43.158321,2
12:37:43.158321,1320
12:37:43.158321,-29440
12:37:43.158321,4
12:37:43.158321,398
12:37:43.158321,4864
12:37:43.158321,0
12:37:43.158321,47
12:37:43.158321,-5888
12:37:43.158321,-1
12:37:43.158321,-160
12:37:43.158321,22015
12:37:43.158321,-1
12:37:43.158321,-145
12:37:43.158321,24831
12:37:43.158321,-1
12:37:43.158321,-164
12:37:43.158321,27391
12:37:43.158321,-1
12:37:43.158321,-145
12:37:43.158321,27903
12:37:43.158321,-1
12:37:43.158321,-148
12:37:43.158321,27903
12:37:43.158321,-1
12:37:43.158321,-143
12:37:43.158321,29951
12:37:43.158321,-1
12:37:43.158321,-148
12:37:43.158321,27391
12:37:43.158321,-1
12:37:43.158321,-150
12:37:43.158321,26111
12:37:43.158321,-1
12:37:43.158321,-152
12:37:43.158321,29183
12:37:43.158321,-1
12:37:43.158321,-133
12:37:43.158321,-31489
12:37:43.158321,-1
12:37:43.158321,-119
12:37:43.158321,-25345
12:37:43.158321,-1
12:37:43.158321,-69
12:37:43.158321,-11265
12:37:43.158321,-1
12:37:43.158321,-21
12:37:43.158321,767
12:37:43.158321,0
12:37:43.158321,16
12:37:43.158321,5888
12:37:43.158321,0
12:37:43.158321,31
12:37:43.158321,8960
12:37:43.158321,0
12:37:43.158321,35
12:37:43.158321,8960
12:37:43.158321,0
12:37:43.158321,35
12:37:43.158321,7936
12:37:43.158321,0
12:37:43.158321,33
12:37:43.158321,9728
12:37:43.158321,0
12:37:43.158321,33
12:37:43.699107,31
12:37:43.699107,7936
12:37:43.699107,0
12:37:43.699107,31
12:37:43.699107,7168
12:37:43.699107,0
12:37:43.699107,31
12:37:43.699107,5888
12:37:43.699107,0
12:37:43.699107,19
12:37:43.699107,5376
12:37:43.699107,0
12:37:43.699107,26
12:37:43.699107,9728
12:37:43.699107,0
12:37:43.699107,42
12:37:43.699107,8960
12:37:43.699107,0
12:37:43.699107,33
12:37:43.699107,10240
12:37:43.699107,0
12:37:43.699107,42
12:37:43.699107,10240
12:37:43.699107,0
12:37:43.699107,45
12:37:43.699107,12032
12:37:43.699107,0
12:37:43.699107,45
12:37:43.699107,12800
12:37:43.699107,0
12:37:43.699107,52
12:37:43.699107,12032
12:37:43.699107,0
12:37:43.699107,47
12:37:43.699107,12800
12:37:43.699107,0
12:37:43.699107,47
12:37:43.699107,12032
12:37:43.699107,0
12:37:43.699107,45
12:37:43.699107,10752
12:37:43.699107,0
12:37:43.699107,40
12:37:43.699107,10752
12:37:43.699107,0
12:37:43.699107,40
12:37:43.699107,8960
12:37:43.699107,0
12:37:43.699107,38
12:37:43.699107,9728
12:37:43.699107,0
12:37:43.699107,35
12:37:43.699107,8960
12:37:43.699107,0
12:37:43.699107,38
12:37:43.699107,8960
12:37:43.699107,0
12:37:43.699107,33
12:37:43.699107,7936
12:37:43.699107,0
12:37:43.699107,33
12:37:43.699107,8960
12:37:43.699107,0
12:37:43.699107,33
12:37:43.699107,7936
12:37:43.699107,0
12:37:43.699107,26
12:37:43.699107,6656
12:37:43.699107,0
12:37:43.699107,28
12:37:43.699107,7936
12:37:43.699107,0
12:37:43.699107,26
12:37:43.699107,6656
12:37:43.699107,0
12:37:43.699107,28
12:37:43.699107,5888
12:37:43.699107,0
12:37:43.699107,16
12:37:43.699107,2304
12:37:43.699107,0
12:37:43.699107,7
12:37:43.699107,4864
12:37:43.699107,0
12:37:43.699107,35
12:37:43.699107,10752
12:37:43.699107,0
12:37:43.699107,40
12:37:43.699107,9728
12:37:43.699107,0
12:37:43.699107,31
12:37:43.699107,6656
12:37:43.699107,0
12:37:43.699107,19
12:37:43.699107,4864
12:37:43.699107,0
12:37:43.699107,21
12:37:43.699107,5376
12:37:43.699107,0
12:37:43.699107,16
12:37:43.699107,3584
12:37:43.699107,0
12:37:43.699107,19
12:37:43.699107,4864
12:37:43.699107,0
12:37:43.699107,14
12:37:43.699107,2816
12:37:43.699107,0
12:37:43.699107,0
12:37:44.287504,-42
12:37:44.287504,1279
12:37:44.287504,0
12:37:44.287504,499
12:37:44.287504,6656
12:37:44.287504,5
12:37:44.287504,1440
12:37:44.287504,-24832
12:37:44.287504,2
12:37:44.287504,52
12:37:44.287504,-512
12:37:44.287504,-1
12:37:44.287504,-23
12:37:44.287504,23039
12:37:44.287504,-1
12:37:44.287504,-207
12:37:44.287504,22527
12:37:44.287504,-1
12:37:44.287504,-174
12:37:44.287504,17663
12:37:44.287504,-1
12:37:44.287504,-179
12:37:44.287504,20735
12:37:44.287504,-1
12:37:44.287504,-171
12:37:44.287504,24319
12:37:44.287504,-1
12:37:44.287504,-164
12:37:44.287504,22015
12:37:44.287504,-1
12:37:44.287504,-167
12:37:44.287504,25599
12:37:44.287504,-1
12:37:44.287504,-162
12:37:44.287504,23039
12:37:44.287504,-1
12:37:44.287504,-164
12:37:44.287504,24319
12:37:44.287504,-1
12:37:44.287504,-164
12:37:44.287504,24831
12:37:44.287504,-1
12:37:44.287504,-150
12:37:44.287504,30975
12:37:44.287504,-1
12:37:44.287504,-121
12:37:44.287504,-25345
12:37:44.287504,-1
12:37:44.287504,-74
12:37:44.287504,-11265
12:37:44.287504,-1
12:37:44.287504,-19
12:37:44.287504,-257
12:37:44.287504,-1
12:37:44.287504,9
12:37:44.287504,4096
12:37:44.287504,0
12:37:44.287504,16
12:37:44.287504,3584
12:37:44.287504,0
12:37:44.287504,11
12:37:44.287504,2304
12:37:44.287504,0
12:37:44.287504,16
12:37:44.287504,6656
12:37:44.287504,0
12:37:44.287504,23
12:37:44.287504,3584
12:37:44.287504,0
12:37:44.287504,16
12:37:44.287504,5888
12:37:44.287504,0
12:37:44.287504,23
12:37:44.287504,5376
12:37:44.287504,0
12:37:44.287504,19
12:37:44.287504,5376
12:37:44.287504,0
12:37:44.287504,21
12:37:44.287504,4096
12:37:44.287504,0
12:37:44.287504,9
12:37:44.287504,1792
12:37:44.287504,0
12:37:44.287504,9
12:37:44.287504,2304
12:37:44.287504,0
12:37:44.287504,7
12:37:44.287504,1792
12:37:44.287504,0
12:37:44.287504,9
12:37:44.287504,2816
12:37:44.287504,0
12:37:44.287504,16
12:37:44.287504,3584
12:37:44.287504,0
12:37:44.287504,9
12:37:44.287504,2816
12:37:44.287504,0
12:37:44.287504,19
12:37:44.287504,4864
12:37:44.287504,0
12:37:44.287504,19
12:37:44.287504,5888
12:37:44.287504,0
12:37:44.287504,26
12:37:44.287504,6656
12:37:44.287504,0
12:37:44.287504,28
12:37:44.871317,28
12:37:44.871317,7168
12:37:44.871317,0
12:37:44.871317,28
12:37:44.871317,7168
12:37:44.871317,0
12:37:44.871317,21
12:37:44.871317,4096
12:37:44.871317,0
12:37:44.871317,21
12:37:44.871317,7168
12:37:44.871317,0
12:37:44.871317,33
12:37:44.871317,10240
12:37:44.871317,0
12:37:44.871317,50
12:37:44.871317,12032
12:37:44.871317,0
12:37:44.871317,42
12:37:44.871317,11520
12:37:44.871317,0
12:37:44.871317,52
12:37:44.871317,11520
12:37:44.871317,0
12:37:44.871317,40
12:37:44.871317,11520
12:37:44.871317,0
12:37:44.871317,45
12:37:44.871317,9728
12:37:44.871317,0
12:37:44.871317,38
12:37:44.871317,10240
12:37:44.871317,0
12:37:44.871317,40
12:37:44.871317,9728
12:37:44.871317,0
12:37:44.871317,35
12:37:44.871317,7936
12:37:44.871317,0
12:37:44.871317,31
12:37:44.871317,8448
12:37:44.871317,0
12:37:44.871317,33
12:37:44.871317,7168
12:37:44.871317,0
12:37:44.871317,19
12:37:44.871317,3584
12:37:44.871317,0
12:37:44.871317,11
12:37:44.871317,2304
12:37:44.871317,0
12:37:44.871317,11
12:37:44.871317,6656
12:37:44.871317,0
12:37:44.871317,47
12:37:44.871317,14592
12:37:44.871317,0
12:37:44.871317,50
12:37:44.871317,12032
12:37:44.871317,0
12:37:44.871317,40
12:37:44.871317,5888
12:37:44.871317,0
12:37:44.871317,14
12:37:44.871317,5888
12:37:44.871317,0
12:37:44.871317,26
12:37:44.871317,4864
12:37:44.871317,0
12:37:44.871317,9
12:37:44.871317,2304
12:37:44.871317,0
12:37:44.871317,7
12:37:44.871317,1024
12:37:44.871317,0
12:37:44.871317,4
12:37:44.871317,0
12:37:44.871317,0
12:37:44.871317,-31
12:37:44.871317,-16641
12:37:44.871317,-1
12:37:44.871317,107
12:37:44.871317,2048
12:37:44.871317,3
12:37:44.871317,1404
12:37:44.871317,12288
12:37:44.871317,4
12:37:44.871317,226
12:37:44.871317,-22528
12:37:44.871317,-1
12:37:44.871317,-21
12:37:44.871317,-30721
12:37:44.871317,-1
12:37:44.871317,-253
12:37:44.871317,7167
12:37:44.871317,-1
12:37:44.871317,-210
12:37:44.871317,4095
12:37:44.871317,-1
12:37:44.871317,-238
12:37:44.871317,7935
12:37:44.871317,-1
12:37:44.871317,-234
12:37:44.871317,5375
12:37:44.871317,-1
12:37:44.871317,-229
12:37:44.871317,5887
12:37:44.871317,-1
12:37:44.871317,-234
12:37:45.455592,-229
12:37:45.455592,6655
12:37:45.455592,-1
12:37:45.455592,-236
12:37:45.455592,5375
12:37:45.455592,-1
12:37:45.455592,-241
12:37:45.455592,2303
12:37:45.455592,-1
12:37:45.455592,-243
12:37:45.455592,5887
12:37:45.455592,-1
12:37:45.455592,-229
12:37:45.455592,9727
12:37:45.455592,-1
12:37:45.455592,-210
12:37:45.455592,14591
12:37:45.455592,-1
12:37:45.455592,-171
12:37:45.455592,30975
12:37:45.455592,-1
12:37:45.455592,-119
12:37:45.455592,-30721
12:37:45.455592,-1
12:37:45.455592,-124
12:37:45.455592,-32001
12:37:45.455592,-1
12:37:45.455592,-131
12:37:45.455592,30975
12:37:45.455592,-1
12:37:45.455592,-143
12:37:45.455592,26111
12:37:45.455592,-1
12:37:45.455592,-162
12:37:45.455592,24319
12:37:45.455592,-1
12:37:45.455592,-167
12:37:45.455592,20735
12:37:45.455592,-1
12:37:45.455592,-188
12:37:45.455592,16383
12:37:45.455592,-1
12:37:45.455592,-198
12:37:45.455592,14591
12:37:45.455592,-1
12:37:45.455592,-203
12:37:45.455592,12799
12:37:45.455592,-1
12:37:45.455592,-222
12:37:45.455592,5887
12:37:45.455592,-1
12:37:45.455592,-243
12:37:45.455592,1023
12:37:45.455592,-1
12:37:45.455592,-257
12:37:45.455592,-1
12:37:45.455592,-2
12:37:45.455592,-267
12:37:45.455592,-5121
12:37:45.455592,-2
12:37:45.455592,-279
12:37:45.455592,-6913
12:37:45.455592,-2
12:37:45.455592,-291
12:37:45.455592,-10497
12:37:45.455592,-2
12:37:45.455592,-303
12:37:45.455592,-12289
12:37:45.455592,-2
12:37:45.455592,-310
12:37:45.455592,-15361
12:37:45.455592,-2
12:37:45.455592,-322
12:37:45.455592,-17153
12:37:45.455592,-2
12:37:45.455592,-327
12:37:45.455592,-18433
12:37:45.455592,-2
12:37:45.455592,-334
12:37:45.455592,-21505
12:37:45.455592,-2
12:37:45.455592,-346
12:37:45.455592,-24577
12:37:45.455592,-2
12:37:45.455592,-360
12:37:45.455592,-28929
12:37:45.455592,-2
12:37:45.455592,-370
12:37:45.455592,-28929
12:37:45.455592,-2
12:37:45.455592,-374
12:37:45.455592,-31233
12:37:45.455592,-2
12:37:45.455592,-384
12:37:45.455592,31743
12:37:45.455592,-2
12:37:45.455592,-396
12:37:45.455592,29951
12:37:45.455592,-2
12:37:45.455592,-391
12:37:45.455592,29951
12:37:45.455592,-2
12:37:45.455592,-403
12:37:45.455592,25599
12:37:45.455592,-2
12:37:45.455592,-420
12:37:45.455592,23295
12:37:45.455592,-2
12:37:45.455592,-422
12:37:45.952144,-427
12:37:45.952144,20223
12:37:45.952144,-2
12:37:45.952144,-439
12:37:45.952144,18431
12:37:45.952144,-2
12:37:45.952144,-444
12:37:45.952144,15359
12:37:45.952144,-2
12:37:45.952144,-451
12:37:45.952144,21503
12:37:45.952144,-2
12:37:45.952144,-410
12:37:45.952144,26879
12:37:45.952144,-2
12:37:45.952144,-415
12:37:45.952144,22527
12:37:45.952144,-2
12:37:45.952144,-437
12:37:45.952144,17663
12:37:45.952144,-2
12:37:45.952144,-441
12:37:45.952144,21503
12:37:45.952144,-2
12:37:45.952144,-408
12:37:45.952144,30463
12:37:45.952144,-2
12:37:45.952144,-398
12:37:45.952144,28671
12:37:45.952144,-2
12:37:45.952144,-396
12:37:45.952144,30463
12:37:45.952144,-2
12:37:45.952144,-382
12:37:45.952144,-29441
12:37:45.952144,-2
12:37:45.952144,-401
12:37:45.952144,22015
12:37:45.952144,-2
12:37:45.952144,-226
12:37:45.952144,-22017
12:37:45.952144,1
12:37:45.952144,962
12:37:45.952144,22784
12:37:45.952144,2
12:37:45.952144,-131
12:37:45.952144,-27649
12:37:45.952144,-2
12:37:45.952144,-315
12:37:45.952144,25599
12:37:45.952144,-2
12:37:45.952144,-523
12:37:45.952144,511
12:37:45.952144,-2
12:37:45.952144,-492
12:37:45.952144,4351
12:37:45.952144,-2
12:37:45.952144,-487
12:37:45.952144,11007
12:37:45.952144,-2
12:37:45.952144,-463
12:37:45.952144,15871
12:37:45.952144,-2
12:37:45.952144,-439
12:37:45.952144,17663
12:37:45.952144,-2
12:37:45.952144,-439
12:37:45.952144,23295
12:37:45.952144,-2
12:37:45.952144,-420
12:37:45.952144,24575
12:37:45.952144,-2
12:37:45.952144,-403
12:37:45.952144,29439
12:37:45.952144,-2
12:37:45.952144,-398
12:37:45.952144,32511
12:37:45.952144,-2
12:37:45.952144,-372
12:37:45.952144,-25089
12:37:45.952144,-2
12:37:45.952144,-336
12:37:45.952144,-16129
12:37:45.952144,-2
12:37:45.952144,-300
12:37:45.952144,-3841
12:37:45.952144,-2
12:37:45.952144,-248
12:37:45.952144,6655
12:37:45.952144,-1
12:37:45.952144,-219
12:37:45.952144,13823
12:37:45.952144,-1
12:37:45.952144,-191
12:37:45.952144,19967
12:37:45.952144,-1
12:37:45.952144,-174
12:37:45.952144,22015
12:37:45.952144,-1
12:37:45.952144,-164
12:37:45.952144,26879
12:37:45.952144,-1
12:37:45.952144,-143
12:37:45.952144,30463
12:37:45.952144,-1
12:37:45.952144,-131
12:37:45.952144,-30721
12:37:45.952144,-1
12:37:45.952144,-124
12:37:46.532101,-119
12:37:46.532101,-26625
12:37:46.532101,-1
12:37:46.532101,-102
12:37:46.532101,-26625
12:37:46.532101,-1
12:37:46.532101,-100
12:37:46.532101,-24065
12:37:46.532101,-1
12:37:46.532101,-85
12:37:46.532101,-16641
12:37:46.532101,-1
12:37:46.532101,-59
12:37:46.532101,-15617
12:37:46.532101,-1
12:37:46.532101,-54
12:37:46.532101,-11265
12:37:46.532101,-1
12:37:46.532101,-42
12:37:46.532101,-10497
12:37:46.532101,-1
12:37:46.532101,-35
12:37:46.532101,-5121
12:37:46.532101,-1
12:37:46.532101,-9
12:37:46.532101,-2561
12:37:46.532101,-1
12:37:46.532101,-11
12:37:46.532101,-257
12:37:46.532101,-1
12:37:46.532101,2
12:37:46.532101,1024
12:37:46.532101,0
12:37:46.532101,7
12:37:46.532101,4096
12:37:46.532101,0
12:37:46.532101,21
12:37:46.532101,5376
12:37:46.532101,0
12:37:46.532101,21
12:37:46.532101,7168
12:37:46.532101,0
12:37:46.532101,35
12:37:46.532101,9728
12:37:46.532101,0
12:37:46.532101,42
12:37:46.532101,10752
12:37:46.532101,0
12:37:46.532101,45
12:37:46.532101,13312
12:37:46.532101,0
12:37:46.532101,59
12:37:46.532101,16384
12:37:46.532101,0
12:37:46.532101,62
12:37:46.532101,13824
12:37:46.532101,0
12:37:46.532101,54
12:37:46.532101,13824
12:37:46.532101,0
12:37:46.532101,52
12:37:46.532101,17664
12:37:46.532101,0
12:37:46.532101,100
12:37:46.532101,28672
12:37:46.532101,0
12:37:46.532101,107
12:37:46.532101,26112
12:37:46.532101,0
12:37:46.532101,107
12:37:46.532101,27392
12:37:46.532101,0
12:37:46.532101,102
12:37:46.532101,26880
12:37:46.532101,0
12:37:46.532101,114
12:37:46.532101,28672
12:37:46.532101,0
12:37:46.532101,109
12:37:46.532101,29184
12:37:46.532101,0
12:37:46.532101,119
12:37:46.532101,29952
12:37:46.532101,0
12:37:46.532101,117
12:37:46.532101,30464
12:37:46.532101,0
12:37:46.532101,107
12:37:46.532101,15872
12:37:46.532101,0
12:37:46.532101,112
12:37:46.532101,19712
12:37:46.532101,2
12:37:46.532101,1318
12:37:46.532101,20736
12:37:46.532101,5
12:37:46.532101,623
12:37:46.532101,-31488
12:37:46.532101,0
12:37:46.532101,138
12:37:46.532101,26112
12:37:46.532101,0
12:37:46.532101,-38
12:37:46.532101,-15617
12:37:46.532101,-1
12:37:46.532101,-21
12:37:46.532101,-7681
12:37:46.532101,-1
12:37:46.532101,-38
12:37:47.076184,-23
12:37:47.076184,-5121
12:37:47.076184,-1
12:37:47.076184,-21
12:37:47.076184,-2049
12:37:47.076184,-1
12:37:47.076184,4
12:37:47.076184,1024
12:37:47.076184,0
12:37:47.076184,-2
12:37:47.076184,1279
12:37:47.076184,0
12:37:47.076184,14
12:37:47.076184,4096
12:37:47.076184,0
12:37:47.076184,31
12:37:47.076184,10752
12:37:47.076184,0
12:37:47.076184,38
12:37:47.076184,9728
12:37:47.076184,0
12:37:47.076184,54
12:37:47.076184,18176
12:37:47.076184,0
12:37:47.076184,83
12:37:47.076184,24832
12:37:47.076184,0
12:37:47.076184,117
12:37:47.076184,-30208
12:37:47.076184,0
12:37:47.076184,155
12:37:47.076184,-22784
12:37:47.076184,0
12:37:47.076184,171
12:37:47.076184,-21760
12:37:47.076184,0
12:37:47.076184,176
12:37:47.076184,-19200
12:37:47.076184,0
12:37:47.076184,176
12:37:47.076184,-19712
12:37:47.076184,0
12:37:47.076184,183
12:37:47.076184,-19200
12:37:47.076184,0
12:37:47.076184,179
12:37:47.076184,-19712
12:37:47.076184,0
12:37:47.076184,176
12:37:47.076184,-21760
12:37:47.076184,0
12:37:47.076184,176
12:37:47.076184,-20480
12:37:47.076184,0
12:37:47.076184,169
12:37:47.076184,-22784
12:37:47.076184,0
12:37:47.076184,167
12:37:47.076184,-22784
12:37:47.076184,0
12:37:47.076184,167
12:37:47.076184,-24064
12:37:47.076184,0
12:37:47.076184,162
12:37:47.076184,-23552
12:37:47.076184,0
12:37:47.076184,164
12:37:47.076184,-23552
12:37:47.076184,0
12:37:47.076184,167
12:37:47.076184,-22272
12:37:47.076184,0
12:37:47.076184,167
12:37:47.076184,-23552
12:37:47.076184,0
12:37:47.076184,164
12:37:47.076184,-22272
12:37:47.076184,0
12:37:47.076184,174
12:37:47.076184,-20992
12:37:47.076184,0
12:37:47.076184,171
12:37:47.076184,-20480
12:37:47.076184,0
12:37:47.076184,179
12:37:47.076184,-19200
12:37:47.076184,0
12:37:47.076184,181
12:37:47.076184,-19200
12:37:47.076184,0
12:37:47.076184,179
12:37:47.076184,-20992
12:37:47.076184,0
12:37:47.076184,174
12:37:47.076184,-19200
12:37:47.076184,0
12:37:47.076184,181
12:37:47.076184,-20480
12:37:47.076184,0
12:37:47.076184,171
12:37:47.076184,-21760
12:37:47.076184,0
12:37:47.076184,174
12:37:47.076184,-20992
12:37:47.076184,0
12:37:47.076184,171
12:37:47.076184,-22272
12:37:47.076184,0
12:37:47.076184,174
12:37:47.658998,179
12:37:47.658998,-19200
12:37:47.658998,0
12:37:47.658998,174
12:37:47.658998,-23552
12:37:47.658998,0
12:37:47.658998,157
12:37:47.658998,-25856
12:37:47.658998,0
12:37:47.658998,150
12:37:47.658998,-24064
12:37:47.658998,0
12:37:47.658998,193
12:37:47.658998,-13056
12:37:47.658998,0
12:37:47.658998,200
12:37:47.658998,-14848
12:37:47.658998,0
12:37:47.658998,198
12:37:47.658998,-17408
12:37:47.658998,0
12:37:47.658998,181
12:37:47.658998,-19200
12:37:47.658998,0
12:37:47.658998,179
12:37:47.658998,-22272
12:37:47.658998,0
12:37:47.658998,171
12:37:47.658998,-20992
12:37:47.658998,0
12:37:47.658998,169
12:37:47.658998,-23552
12:37:47.658998,0
12:37:47.658998,162
12:37:47.658998,-24576
12:37:47.658998,0
12:37:47.658998,160
12:37:47.658998,-28416
12:37:47.658998,0
12:37:47.658998,102
12:37:47.658998,-20480
12:37:47.658998,0
12:37:47.658998,699
12:37:47.658998,-30208
12:37:47.658998,5
12:37:47.658998,1371
12:37:47.658998,17920
12:37:47.658998,2
12:37:47.658998,109
12:37:47.658998,-30720
12:37:47.658998,0
12:37:47.658998,93
12:37:47.658998,-13824
12:37:47.658998,-1
12:37:47.658998,-71
12:37:47.658998,-7681
12:37:47.658998,-1
12:37:47.658998,-47
12:37:47.658998,-14337
12:37:47.658998,-1
12:37:47.658998,-38
12:37:47.658998,-9985
12:37:47.658998,-1
12:37:47.658998,-47
12:37:47.658998,-8705
12:37:47.658998,-1
12:37:47.658998,-28
12:37:47.658998,-7681
12:37:47.658998,-1
12:37:47.658998,-28
12:37:47.658998,-6401
12:37:47.658998,-1
12:37:47.658998,-28
12:37:47.658998,-6401
12:37:47.658998,-1
12:37:47.658998,-26
12:37:47.658998,-7681
12:37:47.658998,-1
12:37:47.658998,-31
12:37:47.658998,-5633
12:37:47.658998,-1
12:37:47.658998,-9
12:37:47.658998,767
12:37:47.658998,0
12:37:47.658998,14
12:37:47.658998,7936
12:37:47.658998,0
12:37:47.658998,54
12:37:47.658998,18944
12:37:47.658998,0
12:37:47.658998,85
12:37:47.658998,24320
12:37:47.658998,0
12:37:47.658998,105
12:37:47.658998,27392
12:37:47.658998,0
12:37:47.658998,107
12:37:47.658998,27904
12:37:47.658998,0
12:37:47.658998,112
12:37:47.658998,29184
12:37:47.658998,0
12:37:47.658998,112
12:37:47.658998,27392
12:37:47.658998,0
12:37:47.658998,105
12:37:47.658998,26112
12:37:47.658998,0
12:37:47.658998,102
12:37:48.202546,102
12:37:48.202546,26112
12:37:48.202546,0
12:37:48.202546,102
12:37:48.202546,26112
12:37:48.202546,0
12:37:48.202546,97
12:37:48.202546,23808
12:37:48.202546,0
12:37:48.202546,95
12:37:48.202546,24320
12:37:48.202546,0
12:37:48.202546,95
12:37:48.202546,23808
12:37:48.202546,0
12:37:48.202546,100
12:37:48.202546,29952
12:37:48.202546,0
12:37:48.202546,119
12:37:48.202546,26880
12:37:48.202546,0
12:37:48.202546,109
12:37:48.202546,30464
12:37:48.202546,0
12:37:48.202546,114
12:37:48.202546,27392
12:37:48.202546,0
12:37:48.202546,109
12:37:48.202546,28672
12:37:48.202546,0
12:37:48.202546,107
12:37:48.202546,27392
12:37:48.202546,0
12:37:48.202546,112
12:37:48.202546,28672
12:37:48.202546,0
12:37:48.202546,109
12:37:48.202546,27904
12:37:48.202546,0
12:37:48.202546,109
12:37:48.202546,27392
12:37:48.202546,0
12:37:48.202546,102
12:37:48.202546,25600
12:37:48.202546,0
12:37:48.202546,102
12:37:48.202546,26880
12:37:48.202546,0
12:37:48.202546,102
12:37:48.202546,24832
12:37:48.202546,0
12:37:48.202546,97
12:37:48.202546,24832
12:37:48.202546,0
12:37:48.202546,97
12:37:48.202546,23808
12:37:48.202546,0
12:37:48.202546,90
12:37:48.202546,24832
12:37:48.202546,0
12:37:48.202546,100
12:37:48.202546,23808
12:37:48.202546,0
12:37:48.202546,88
12:37:48.202546,23040
12:37:48.202546,0
12:37:48.202546,93
12:37:48.202546,23808
12:37:48.202546,0
