timestamp,ecg,reconstructed_time
2025-11-07 12:37:17.954971,7,2025-11-07 12:37:17.954971000
2025-11-07 12:37:17.954971,-27904,2025-11-07 12:37:17.962663308
2025-11-07 12:37:17.954971,-1,2025-11-07 12:37:17.970355615
2025-11-07 12:37:17.954971,-74,2025-11-07 12:37:17.978047923
2025-11-07 12:37:17.954971,-12545,2025-11-07 12:37:17.985740231
2025-11-07 12:37:17.954971,-1,2025-11-07 12:37:17.993432538
2025-11-07 12:37:17.954971,-74,2025-11-07 12:37:18.001124846
2025-11-07 12:37:17.954971,-14849,2025-11-07 12:37:18.008817154
2025-11-07 12:37:17.954971,-1,2025-11-07 12:37:18.016509462
2025-11-07 12:37:17.954971,-47,2025-11-07 12:37:18.024201769
2025-11-07 12:37:17.954971,-12545,2025-11-07 12:37:18.031894077
2025-11-07 12:37:17.954971,-1,2025-11-07 12:37:18.039586385
2025-11-07 12:37:17.954971,-38,2025-11-07 12:37:18.047278692
2025-11-07 12:37:17.954971,-6401,2025-11-07 12:37:18.054971000
2025-11-07 12:37:17.954971,-1,2025-11-07 12:37:18.062663308
2025-11-07 12:37:17.954971,-7,2025-11-07 12:37:18.070355615
2025-11-07 12:37:17.954971,255,2025-11-07 12:37:18.078047923
2025-11-07 12:37:17.954971,0,2025-11-07 12:37:18.085740231
2025-11-07 12:37:17.954971,-4,2025-11-07 12:37:18.093432538
2025-11-07 12:37:17.954971,767,2025-11-07 12:37:18.101124846
2025-11-07 12:37:17.954971,0,2025-11-07 12:37:18.108817154
2025-11-07 12:37:17.954971,0,2025-11-07 12:37:18.116509462
2025-11-07 12:37:17.954971,1024,2025-11-07 12:37:18.124201769
2025-11-07 12:37:17.954971,0,2025-11-07 12:37:18.131894077
2025-11-07 12:37:17.954971,19,2025-11-07 12:37:18.139586385
2025-11-07 12:37:17.954971,5376,2025-11-07 12:37:18.147278692
2025-11-07 12:37:17.954971,0,2025-11-07 12:37:18.154971000
2025-11-07 12:37:17.954971,28,2025-11-07 12:37:18.162663308
2025-11-07 12:37:17.954971,8448,2025-11-07 12:37:18.170355615
2025-11-07 12:37:17.954971,0,2025-11-07 12:37:18.178047923
2025-11-07 12:37:17.954971,38,2025-11-07 12:37:18.185740231
2025-11-07 12:37:17.954971,12032,2025-11-07 12:37:18.193432538
2025-11-07 12:37:17.954971,0,2025-11-07 12:37:18.201124846
2025-11-07 12:37:17.954971,42,2025-11-07 12:37:18.208817154
2025-11-07 12:37:17.954971,12800,2025-11-07 12:37:18.216509462
2025-11-07 12:37:17.954971,0,2025-11-07 12:37:18.224201769
2025-11-07 12:37:17.954971,64,2025-11-07 12:37:18.231894077
2025-11-07 12:37:17.954971,16384,2025-11-07 12:37:18.239586385
2025-11-07 12:37:17.954971,0,2025-11-07 12:37:18.247278692
2025-11-07 12:37:17.954971,57,2025-11-07 12:37:18.254971000
2025-11-07 12:37:17.954971,11520,2025-11-07 12:37:18.262663308
2025-11-07 12:37:17.954971,0,2025-11-07 12:37:18.270355615
2025-11-07 12:37:17.954971,40,2025-11-07 12:37:18.278047923
2025-11-07 12:37:17.954971,11520,2025-11-07 12:37:18.285740231
2025-11-07 12:37:17.954971,0,2025-11-07 12:37:18.293432538
2025-11-07 12:37:17.954971,38,2025-11-07 12:37:18.301124846
2025-11-07 12:37:17.954971,10240,2025-11-07 12:37:18.308817154
2025-11-07 12:37:17.954971,0,2025-11-07 12:37:18.316509462
2025-11-07 12:37:17.954971,40,2025-11-07 12:37:18.324201769
2025-11-07 12:37:17.954971,8960,2025-11-07 12:37:18.331894077
2025-11-07 12:37:17.954971,0,2025-11-07 12:37:18.339586385
2025-11-07 12:37:17.954971,38,2025-11-07 12:37:18.347278692
2025-11-07 12:37:17.954971,8448,2025-11-07 12:37:18.354971000
2025-11-07 12:37:17.954971,0,2025-11-07 12:37:18.362663308
2025-11-07 12:37:17.954971,38,2025-11-07 12:37:18.370355615
2025-11-07 12:37:17.954971,8960,2025-11-07 12:37:18.378047923
2025-11-07 12:37:17.954971,0,2025-11-07 12:37:18.385740231
2025-11-07 12:37:17.954971,38,2025-11-07 12:37:18.393432538
2025-11-07 12:37:17.954971,13824,2025-11-07 12:37:18.401124846
2025-11-07 12:37:17.954971,0,2025-11-07 12:37:18.408817154
2025-11-07 12:37:17.954971,50,2025-11-07 12:37:18.416509462
2025-11-07 12:37:17.954971,10240,2025-11-07 12:37:18.424201769
2025-11-07 12:37:17.954971,0,2025-11-07 12:37:18.431894077
2025-11-07 12:37:17.954971,40,2025-11-07 12:37:18.439586385
2025-11-07 12:37:17.954971,7936,2025-11-07 12:37:18.447278692
2025-11-07 12:37:17.954971,0,2025-11-07 12:37:18.454971000
2025-11-07 12:37:17.954971,28,2025-11-07 12:37:18.462663308
2025-11-07 12:37:17.954971,6656,2025-11-07 12:37:18.470355615
2025-11-07 12:37:17.954971,0,2025-11-07 12:37:18.478047923
2025-11-07 12:37:17.954971,21,2025-11-07 12:37:18.485740230
2025-11-07 12:37:17.954971,5888,2025-11-07 12:37:18.493432538
2025-11-07 12:37:17.954971,0,2025-11-07 12:37:18.501124846
2025-11-07 12:37:17.954971,21,2025-11-07 12:37:18.508817154
2025-11-07 12:37:17.954971,2816,2025-11-07 12:37:18.516509462
2025-11-07 12:37:17.954971,0,2025-11-07 12:37:18.524201769
2025-11-07 12:37:17.954971,-9,2025-11-07 12:37:18.531894077
2025-11-07 12:37:17.954971,-3329,2025-11-07 12:37:18.539586385
2025-11-07 12:37:17.954971,-1,2025-11-07 12:37:18.547278692
2025-11-07 12:37:17.954971,7,2025-11-07 12:37:18.554971000
2025-11-07 12:37:17.954971,0,2025-11-07 12:37:18.562663308
2025-11-07 12:37:17.954971,0,2025-11-07 12:37:18.570355615
2025-11-07 12:37:17.954971,-9,2025-11-07 12:37:18.578047923
2025-11-07 12:37:17.954971,-2049,2025-11-07 12:37:18.585740231
2025-11-07 12:37:17.954971,-1,2025-11-07 12:37:18.593432538
2025-11-07 12:37:17.954971,-28,2025-11-07 12:37:18.601124846
2025-11-07 12:37:17.954971,-8705,2025-11-07 12:37:18.608817154
2025-11-07 12:37:17.954971,-1,2025-11-07 12:37:18.616509462
2025-11-07 12:37:17.954971,-47,2025-11-07 12:37:18.624201769
2025-11-07 12:37:17.954971,-13569,2025-11-07 12:37:18.631894077
2025-11-07 12:37:17.954971,-1,2025-11-07 12:37:18.639586385
2025-11-07 12:37:17.954971,-35,2025-11-07 12:37:18.647278692
2025-11-07 12:37:17.954971,-8193,2025-11-07 12:37:18.654971000
2025-11-07 12:37:17.954971,-1,2025-11-07 12:37:18.662663308
2025-11-07 12:37:17.954971,-33,2025-11-07 12:37:18.670355615
2025-11-07 12:37:17.954971,-9985,2025-11-07 12:37:18.678047923
2025-11-07 12:37:17.954971,-1,2025-11-07 12:37:18.685740231
2025-11-07 12:37:17.954971,-62,2025-11-07 12:37:18.693432538
2025-11-07 12:37:17.954971,-19201,2025-11-07 12:37:18.701124846
2025-11-07 12:37:17.954971,-1,2025-11-07 12:37:18.708817154
2025-11-07 12:37:17.954971,-81,2025-11-07 12:37:18.716509462
2025-11-07 12:37:17.954971,-14337,2025-11-07 12:37:18.724201769
2025-11-07 12:37:17.954971,-1,2025-11-07 12:37:18.731894077
2025-11-07 12:37:17.954971,-38,2025-11-07 12:37:18.739586385
2025-11-07 12:37:17.954971,-14337,2025-11-07 12:37:18.747278692
2025-11-07 12:37:17.954971,-1,2025-11-07 12:37:18.754971000
2025-11-07 12:37:17.954971,-42,2025-11-07 12:37:18.762663308
2025-11-07 12:37:17.954971,-2049,2025-11-07 12:37:18.770355615
2025-11-07 12:37:17.954971,-1,2025-11-07 12:37:18.778047923
2025-11-07 12:37:17.954971,-33,2025-11-07 12:37:18.785740231
2025-11-07 12:37:18.500912,-64,2025-11-07 12:37:18.793432538
2025-11-07 12:37:18.500912,-17921,2025-11-07 12:37:18.801124846
2025-11-07 12:37:18.500912,-1,2025-11-07 12:37:18.808817154
2025-11-07 12:37:18.500912,-69,2025-11-07 12:37:18.816509462
2025-11-07 12:37:18.500912,-13569,2025-11-07 12:37:18.824201769
2025-11-07 12:37:18.500912,-1,2025-11-07 12:37:18.831894077
2025-11-07 12:37:18.500912,-64,2025-11-07 12:37:18.839586385
2025-11-07 12:37:18.500912,-23553,2025-11-07 12:37:18.847278692
2025-11-07 12:37:18.500912,-1,2025-11-07 12:37:18.854971000
2025-11-07 12:37:18.500912,-88,2025-11-07 12:37:18.862663308
2025-11-07 12:37:18.500912,-12545,2025-11-07 12:37:18.870355615
2025-11-07 12:37:18.500912,-1,2025-11-07 12:37:18.878047923
2025-11-07 12:37:18.500912,-38,2025-11-07 12:37:18.885740231
2025-11-07 12:37:18.500912,-14337,2025-11-07 12:37:18.893432538
2025-11-07 12:37:18.500912,-1,2025-11-07 12:37:18.901124846
2025-11-07 12:37:18.500912,-69,2025-11-07 12:37:18.908817154
2025-11-07 12:37:18.500912,-21505,2025-11-07 12:37:18.916509462
2025-11-07 12:37:18.500912,-1,2025-11-07 12:37:18.924201769
2025-11-07 12:37:18.500912,-71,2025-11-07 12:37:18.931894077
2025-11-07 12:37:18.500912,-13057,2025-11-07 12:37:18.939586385
2025-11-07 12:37:18.500912,-1,2025-11-07 12:37:18.947278692
2025-11-07 12:37:18.500912,-9,2025-11-07 12:37:18.954971000
2025-11-07 12:37:18.500912,27647,2025-11-07 12:37:18.962663308
2025-11-07 12:37:18.500912,1,2025-11-07 12:37:18.970355615
2025-11-07 12:37:18.500912,955,2025-11-07 12:37:18.978047923
2025-11-07 12:37:18.500912,-21248,2025-11-07 12:37:18.985740231
2025-11-07 12:37:18.500912,3,2025-11-07 12:37:18.993432538
2025-11-07 12:37:18.500912,257,2025-11-07 12:37:19.001124846
2025-11-07 12:37:18.500912,30720,2025-11-07 12:37:19.008817154
2025-11-07 12:37:18.500912,-1,2025-11-07 12:37:19.016509462
2025-11-07 12:37:18.500912,-45,2025-11-07 12:37:19.024201769
2025-11-07 12:37:18.500912,-9985,2025-11-07 12:37:19.031894077
2025-11-07 12:37:18.500912,-1,2025-11-07 12:37:19.039586385
2025-11-07 12:37:18.500912,-164,2025-11-07 12:37:19.047278692
2025-11-07 12:37:18.500912,20735,2025-11-07 12:37:19.054971000
2025-11-07 12:37:18.500912,-1,2025-11-07 12:37:19.062663308
2025-11-07 12:37:18.500912,-169,2025-11-07 12:37:19.070355615
2025-11-07 12:37:18.500912,11007,2025-11-07 12:37:19.078047923
2025-11-07 12:37:18.500912,-1,2025-11-07 12:37:19.085740231
2025-11-07 12:37:18.500912,-214,2025-11-07 12:37:19.093432538
2025-11-07 12:37:18.500912,16383,2025-11-07 12:37:19.101124846
2025-11-07 12:37:18.500912,-1,2025-11-07 12:37:19.108817154
2025-11-07 12:37:18.500912,-193,2025-11-07 12:37:19.116509462
2025-11-07 12:37:18.500912,22015,2025-11-07 12:37:19.124201769
2025-11-07 12:37:18.500912,-1,2025-11-07 12:37:19.131894077
2025-11-07 12:37:18.500912,-157,2025-11-07 12:37:19.139586385
2025-11-07 12:37:18.500912,15103,2025-11-07 12:37:19.147278692
2025-11-07 12:37:18.500912,-1,2025-11-07 12:37:19.154971000
2025-11-07 12:37:18.500912,-207,2025-11-07 12:37:19.162663308
2025-11-07 12:37:18.500912,23807,2025-11-07 12:37:19.170355615
2025-11-07 12:37:18.500912,-1,2025-11-07 12:37:19.178047923
2025-11-07 12:37:18.500912,-164,2025-11-07 12:37:19.185740231
2025-11-07 12:37:18.500912,18175,2025-11-07 12:37:19.193432538
2025-11-07 12:37:18.500912,-1,2025-11-07 12:37:19.201124846
2025-11-07 12:37:18.500912,-169,2025-11-07 12:37:19.208817154
2025-11-07 12:37:18.500912,25599,2025-11-07 12:37:19.216509462
2025-11-07 12:37:18.500912,-1,2025-11-07 12:37:19.224201769
2025-11-07 12:37:18.500912,-152,2025-11-07 12:37:19.231894077
2025-11-07 12:37:18.500912,29183,2025-11-07 12:37:19.239586385
2025-11-07 12:37:18.500912,-1,2025-11-07 12:37:19.247278692
2025-11-07 12:37:18.500912,-145,2025-11-07 12:37:19.254971000
2025-11-07 12:37:18.500912,29951,2025-11-07 12:37:19.262663308
2025-11-07 12:37:18.500912,-1,2025-11-07 12:37:19.270355615
2025-11-07 12:37:18.500912,-121,2025-11-07 12:37:19.278047923
2025-11-07 12:37:18.500912,-28929,2025-11-07 12:37:19.285740231
2025-11-07 12:37:18.500912,-1,2025-11-07 12:37:19.293432538
2025-11-07 12:37:18.500912,-117,2025-11-07 12:37:19.301124846
2025-11-07 12:37:18.500912,-30721,2025-11-07 12:37:19.308817154
2025-11-07 12:37:18.500912,-1,2025-11-07 12:37:19.316509462
2025-11-07 12:37:18.500912,-133,2025-11-07 12:37:19.324201769
2025-11-07 12:37:18.500912,-31489,2025-11-07 12:37:19.331894077
2025-11-07 12:37:18.500912,-1,2025-11-07 12:37:19.339586385
2025-11-07 12:37:18.500912,-97,2025-11-07 12:37:19.347278692
2025-11-07 12:37:18.500912,-25345,2025-11-07 12:37:19.354971000
2025-11-07 12:37:18.500912,-1,2025-11-07 12:37:19.362663308
2025-11-07 12:37:18.500912,-126,2025-11-07 12:37:19.370355615
2025-11-07 12:37:18.500912,26879,2025-11-07 12:37:19.378047923
2025-11-07 12:37:18.500912,-1,2025-11-07 12:37:19.385740231
2025-11-07 12:37:18.500912,-157,2025-11-07 12:37:19.393432538
2025-11-07 12:37:18.500912,28671,2025-11-07 12:37:19.401124846
2025-11-07 12:37:18.500912,-1,2025-11-07 12:37:19.408817154
2025-11-07 12:37:18.500912,-133,2025-11-07 12:37:19.416509462
2025-11-07 12:37:18.500912,-30721,2025-11-07 12:37:19.424201769
2025-11-07 12:37:18.500912,-1,2025-11-07 12:37:19.431894077
2025-11-07 12:37:18.500912,-124,2025-11-07 12:37:19.439586385
2025-11-07 12:37:18.500912,30463,2025-11-07 12:37:19.447278692
2025-11-07 12:37:18.500912,-1,2025-11-07 12:37:19.454971000
2025-11-07 12:37:18.500912,-133,2025-11-07 12:37:19.462663308
2025-11-07 12:37:18.500912,32255,2025-11-07 12:37:19.470355615
2025-11-07 12:37:18.500912,-1,2025-11-07 12:37:19.478047923
2025-11-07 12:37:18.500912,-160,2025-11-07 12:37:19.485740230
2025-11-07 12:37:18.500912,19967,2025-11-07 12:37:19.493432538
2025-11-07 12:37:18.500912,-1,2025-11-07 12:37:19.501124846
2025-11-07 12:37:18.500912,-162,2025-11-07 12:37:19.508817154
2025-11-07 12:37:18.500912,23807,2025-11-07 12:37:19.516509462
2025-11-07 12:37:18.500912,-1,2025-11-07 12:37:19.524201769
2025-11-07 12:37:18.500912,-174,2025-11-07 12:37:19.531894077
2025-11-07 12:37:18.500912,23039,2025-11-07 12:37:19.539586385
2025-11-07 12:37:18.500912,-1,2025-11-07 12:37:19.547278692
2025-11-07 12:37:18.500912,-188,2025-11-07 12:37:19.554971000
2025-11-07 12:37:18.500912,12799,2025-11-07 12:37:19.562663308
2025-11-07 12:37:18.500912,-1,2025-11-07 12:37:19.570355615
2025-11-07 12:37:18.500912,-186,2025-11-07 12:37:19.578047923
2025-11-07 12:37:18.500912,21247,2025-11-07 12:37:19.585740231
2025-11-07 12:37:18.500912,-1,2025-11-07 12:37:19.593432538
2025-11-07 12:37:18.500912,-174,2025-11-07 12:37:19.601124846
2025-11-07 12:37:18.500912,19967,2025-11-07 12:37:19.608817154
2025-11-07 12:37:18.500912,-1,2025-11-07 12:37:19.616509462
2025-11-07 12:37:18.500912,-193,2025-11-07 12:37:19.624201769
2025-11-07 12:37:19.046608,-203,2025-11-07 12:37:19.631894077
2025-11-07 12:37:19.046608,13823,2025-11-07 12:37:19.639586385
2025-11-07 12:37:19.046608,-1,2025-11-07 12:37:19.647278692
2025-11-07 12:37:19.046608,-205,2025-11-07 12:37:19.654971000
2025-11-07 12:37:19.046608,12031,2025-11-07 12:37:19.662663308
2025-11-07 12:37:19.046608,-1,2025-11-07 12:37:19.670355615
2025-11-07 12:37:19.046608,-207,2025-11-07 12:37:19.678047923
2025-11-07 12:37:19.046608,15103,2025-11-07 12:37:19.685740231
2025-11-07 12:37:19.046608,-1,2025-11-07 12:37:19.693432538
2025-11-07 12:37:19.046608,-191,2025-11-07 12:37:19.701124846
2025-11-07 12:37:19.046608,13311,2025-11-07 12:37:19.708817154
2025-11-07 12:37:19.046608,-1,2025-11-07 12:37:19.716509462
2025-11-07 12:37:19.046608,-229,2025-11-07 12:37:19.724201769
2025-11-07 12:37:19.046608,7167,2025-11-07 12:37:19.731894077
2025-11-07 12:37:19.046608,-1,2025-11-07 12:37:19.739586385
2025-11-07 12:37:19.046608,-207,2025-11-07 12:37:19.747278692
2025-11-07 12:37:19.046608,16895,2025-11-07 12:37:19.754971000
2025-11-07 12:37:19.046608,-1,2025-11-07 12:37:19.762663308
2025-11-07 12:37:19.046608,-179,2025-11-07 12:37:19.770355615
2025-11-07 12:37:19.046608,23039,2025-11-07 12:37:19.778047923
2025-11-07 12:37:19.046608,-1,2025-11-07 12:37:19.785740231
2025-11-07 12:37:19.046608,-167,2025-11-07 12:37:19.793432538
2025-11-07 12:37:19.046608,19967,2025-11-07 12:37:19.801124846
2025-11-07 12:37:19.046608,-1,2025-11-07 12:37:19.808817154
2025-11-07 12:37:19.046608,-169,2025-11-07 12:37:19.816509462
2025-11-07 12:37:19.046608,26111,2025-11-07 12:37:19.824201769
2025-11-07 12:37:19.046608,-1,2025-11-07 12:37:19.831894077
2025-11-07 12:37:19.046608,-169,2025-11-07 12:37:19.839586385
2025-11-07 12:37:19.046608,20735,2025-11-07 12:37:19.847278692
2025-11-07 12:37:19.046608,-1,2025-11-07 12:37:19.854971000
2025-11-07 12:37:19.046608,-167,2025-11-07 12:37:19.862663308
2025-11-07 12:37:19.046608,24319,2025-11-07 12:37:19.870355615
2025-11-07 12:37:19.046608,-1,2025-11-07 12:37:19.878047923
2025-11-07 12:37:19.046608,-164,2025-11-07 12:37:19.885740231
2025-11-07 12:37:19.046608,23039,2025-11-07 12:37:19.893432538
2025-11-07 12:37:19.046608,-1,2025-11-07 12:37:19.901124846
2025-11-07 12:37:19.046608,-174,2025-11-07 12:37:19.908817154
2025-11-07 12:37:19.046608,16895,2025-11-07 12:37:19.916509462
2025-11-07 12:37:19.046608,-1,2025-11-07 12:37:19.924201769
2025-11-07 12:37:19.046608,-193,2025-11-07 12:37:19.931894077
2025-11-07 12:37:19.046608,22015,2025-11-07 12:37:19.939586385
2025-11-07 12:37:19.046608,-1,2025-11-07 12:37:19.947278692
2025-11-07 12:37:19.046608,-169,2025-11-07 12:37:19.954971000
2025-11-07 12:37:19.046608,17663,2025-11-07 12:37:19.962663308
2025-11-07 12:37:19.046608,-1,2025-11-07 12:37:19.970355615
2025-11-07 12:37:19.046608,-188,2025-11-07 12:37:19.978047923
2025-11-07 12:37:19.046608,17663,2025-11-07 12:37:19.985740231
2025-11-07 12:37:19.046608,-1,2025-11-07 12:37:19.993432538
2025-11-07 12:37:19.046608,-203,2025-11-07 12:37:20.001124846
2025-11-07 12:37:19.046608,-1537,2025-11-07 12:37:20.008817154
2025-11-07 12:37:19.046608,-1,2025-11-07 12:37:20.016509462
2025-11-07 12:37:19.046608,578,2025-11-07 12:37:20.024201769
2025-11-07 12:37:19.046608,-17152,2025-11-07 12:37:20.031894077
2025-11-07 12:37:19.046608,3,2025-11-07 12:37:20.039586385
2025-11-07 12:37:19.046608,518,2025-11-07 12:37:20.047278692
2025-11-07 12:37:19.046608,-28672,2025-11-07 12:37:20.054971000
2025-11-07 12:37:19.046608,-1,2025-11-07 12:37:20.062663308
2025-11-07 12:37:19.046608,-200,2025-11-07 12:37:20.070355615
2025-11-07 12:37:19.046608,-29697,2025-11-07 12:37:20.078047923
2025-11-07 12:37:19.046608,-1,2025-11-07 12:37:20.085740231
2025-11-07 12:37:19.046608,-231,2025-11-07 12:37:20.093432538
2025-11-07 12:37:19.046608,-16129,2025-11-07 12:37:20.101124846
2025-11-07 12:37:19.046608,-2,2025-11-07 12:37:20.108817154
2025-11-07 12:37:19.046608,-289,2025-11-07 12:37:20.116509462
2025-11-07 12:37:19.046608,-8705,2025-11-07 12:37:20.124201769
2025-11-07 12:37:19.046608,-2,2025-11-07 12:37:20.131894077
2025-11-07 12:37:19.046608,-317,2025-11-07 12:37:20.139586385
2025-11-07 12:37:19.046608,-12289,2025-11-07 12:37:20.147278692
2025-11-07 12:37:19.046608,-2,2025-11-07 12:37:20.154971000
2025-11-07 12:37:19.046608,-284,2025-11-07 12:37:20.162663308
2025-11-07 12:37:19.046608,-6913,2025-11-07 12:37:20.170355615
2025-11-07 12:37:19.046608,-2,2025-11-07 12:37:20.178047923
2025-11-07 12:37:19.046608,-279,2025-11-07 12:37:20.185740231
2025-11-07 12:37:19.046608,-5633,2025-11-07 12:37:20.193432538
2025-11-07 12:37:19.046608,-2,2025-11-07 12:37:20.201124846
2025-11-07 12:37:19.046608,-289,2025-11-07 12:37:20.208817154
2025-11-07 12:37:19.046608,-5633,2025-11-07 12:37:20.216509462
2025-11-07 12:37:19.046608,-2,2025-11-07 12:37:20.224201769
2025-11-07 12:37:19.046608,-269,2025-11-07 12:37:20.231894077
2025-11-07 12:37:19.046608,-9217,2025-11-07 12:37:20.239586385
2025-11-07 12:37:19.046608,-2,2025-11-07 12:37:20.247278692
2025-11-07 12:37:19.046608,-298,2025-11-07 12:37:20.254971000
2025-11-07 12:37:19.046608,-3841,2025-11-07 12:37:20.262663308
2025-11-07 12:37:19.046608,-2,2025-11-07 12:37:20.270355615
2025-11-07 12:37:19.046608,-274,2025-11-07 12:37:20.278047923
2025-11-07 12:37:19.046608,-6913,2025-11-07 12:37:20.285740231
2025-11-07 12:37:19.046608,-2,2025-11-07 12:37:20.293432538
2025-11-07 12:37:19.046608,-267,2025-11-07 12:37:20.301124846
2025-11-07 12:37:19.046608,511,2025-11-07 12:37:20.308817154
2025-11-07 12:37:19.046608,-1,2025-11-07 12:37:20.316509462
2025-11-07 12:37:19.046608,-241,2025-11-07 12:37:20.324201769
2025-11-07 12:37:19.046608,8959,2025-11-07 12:37:20.331894077
2025-11-07 12:37:19.046608,-1,2025-11-07 12:37:20.339586385
2025-11-07 12:37:19.046608,-229,2025-11-07 12:37:20.347278692
2025-11-07 12:37:19.046608,5887,2025-11-07 12:37:20.354971000
2025-11-07 12:37:19.046608,-1,2025-11-07 12:37:20.362663308
2025-11-07 12:37:19.046608,-207,2025-11-07 12:37:20.370355615
2025-11-07 12:37:19.046608,18175,2025-11-07 12:37:20.378047923
2025-11-07 12:37:19.046608,-1,2025-11-07 12:37:20.385740231
2025-11-07 12:37:19.046608,-186,2025-11-07 12:37:20.393432538
2025-11-07 12:37:19.046608,20735,2025-11-07 12:37:20.401124846
2025-11-07 12:37:19.046608,-1,2025-11-07 12:37:20.408817154
2025-11-07 12:37:19.046608,-155,2025-11-07 12:37:20.416509462
2025-11-07 12:37:19.046608,24319,2025-11-07 12:37:20.424201769
2025-11-07 12:37:19.046608,-1,2025-11-07 12:37:20.431894077
2025-11-07 12:37:19.046608,-171,2025-11-07 12:37:20.439586385
2025-11-07 12:37:19.046608,26879,2025-11-07 12:37:20.447278692
2025-11-07 12:37:19.046608,-1,2025-11-07 12:37:20.454971000
2025-11-07 12:37:19.046608,-138,2025-11-07 12:37:20.462663308
2025-11-07 12:37:19.584582,-148,2025-11-07 12:37:20.470355615
2025-11-07 12:37:19.584582,27903,2025-11-07 12:37:20.478047923
2025-11-07 12:37:19.584582,-1,2025-11-07 12:37:20.485740230
2025-11-07 12:37:19.584582,-140,2025-11-07 12:37:20.493432538
2025-11-07 12:37:19.584582,29951,2025-11-07 12:37:20.501124846
2025-11-07 12:37:19.584582,-1,2025-11-07 12:37:20.508817154
2025-11-07 12:37:19.584582,-136,2025-11-07 12:37:20.516509462
2025-11-07 12:37:19.584582,32255,2025-11-07 12:37:20.524201769
2025-11-07 12:37:19.584582,-1,2025-11-07 12:37:20.531894077
2025-11-07 12:37:19.584582,-143,2025-11-07 12:37:20.539586385
2025-11-07 12:37:19.584582,28671,2025-11-07 12:37:20.547278692
2025-11-07 12:37:19.584582,-1,2025-11-07 12:37:20.554971000
2025-11-07 12:37:19.584582,-117,2025-11-07 12:37:20.562663308
2025-11-07 12:37:19.584582,-24065,2025-11-07 12:37:20.570355615
2025-11-07 12:37:19.584582,-1,2025-11-07 12:37:20.578047923
2025-11-07 12:37:19.584582,-95,2025-11-07 12:37:20.585740231
2025-11-07 12:37:19.584582,-20993,2025-11-07 12:37:20.593432538
2025-11-07 12:37:19.584582,-1,2025-11-07 12:37:20.601124846
2025-11-07 12:37:19.584582,-69,2025-11-07 12:37:20.608817154
2025-11-07 12:37:19.584582,-16641,2025-11-07 12:37:20.616509462
2025-11-07 12:37:19.584582,-1,2025-11-07 12:37:20.624201769
2025-11-07 12:37:19.584582,-74,2025-11-07 12:37:20.631894077
2025-11-07 12:37:19.584582,-17921,2025-11-07 12:37:20.639586385
2025-11-07 12:37:19.584582,-1,2025-11-07 12:37:20.647278692
2025-11-07 12:37:19.584582,-62,2025-11-07 12:37:20.654971000
2025-11-07 12:37:19.584582,-14337,2025-11-07 12:37:20.662663308
2025-11-07 12:37:19.584582,-1,2025-11-07 12:37:20.670355615
2025-11-07 12:37:19.584582,-45,2025-11-07 12:37:20.678047923
2025-11-07 12:37:19.584582,-4609,2025-11-07 12:37:20.685740231
2025-11-07 12:37:19.584582,-1,2025-11-07 12:37:20.693432538
2025-11-07 12:37:19.584582,4,2025-11-07 12:37:20.701124846
2025-11-07 12:37:19.584582,0,2025-11-07 12:37:20.708817154
2025-11-07 12:37:19.584582,0,2025-11-07 12:37:20.716509462
2025-11-07 12:37:19.584582,-7,2025-11-07 12:37:20.724201769
2025-11-07 12:37:19.584582,3839,2025-11-07 12:37:20.731894077
2025-11-07 12:37:19.584582,0,2025-11-07 12:37:20.739586385
2025-11-07 12:37:19.584582,40,2025-11-07 12:37:20.747278692
2025-11-07 12:37:19.584582,10240,2025-11-07 12:37:20.754971000
2025-11-07 12:37:19.584582,0,2025-11-07 12:37:20.762663308
2025-11-07 12:37:19.584582,40,2025-11-07 12:37:20.770355615
2025-11-07 12:37:19.584582,14592,2025-11-07 12:37:20.778047923
2025-11-07 12:37:19.584582,0,2025-11-07 12:37:20.785740231
2025-11-07 12:37:19.584582,76,2025-11-07 12:37:20.793432538
2025-11-07 12:37:19.584582,19968,2025-11-07 12:37:20.801124846
2025-11-07 12:37:19.584582,0,2025-11-07 12:37:20.808817154
2025-11-07 12:37:19.584582,81,2025-11-07 12:37:20.816509462
2025-11-07 12:37:19.584582,26880,2025-11-07 12:37:20.824201769
2025-11-07 12:37:19.584582,0,2025-11-07 12:37:20.831894077
2025-11-07 12:37:19.584582,131,2025-11-07 12:37:20.839586385
2025-11-07 12:37:19.584582,-27136,2025-11-07 12:37:20.847278692
2025-11-07 12:37:19.584582,0,2025-11-07 12:37:20.854971000
2025-11-07 12:37:19.584582,176,2025-11-07 12:37:20.862663308
2025-11-07 12:37:19.584582,-17920,2025-11-07 12:37:20.870355615
2025-11-07 12:37:19.584582,0,2025-11-07 12:37:20.878047923
2025-11-07 12:37:19.584582,171,2025-11-07 12:37:20.885740231
2025-11-07 12:37:19.584582,-21760,2025-11-07 12:37:20.893432538
2025-11-07 12:37:19.584582,0,2025-11-07 12:37:20.901124846
2025-11-07 12:37:19.584582,181,2025-11-07 12:37:20.908817154
2025-11-07 12:37:19.584582,-22272,2025-11-07 12:37:20.916509462
2025-11-07 12:37:19.584582,0,2025-11-07 12:37:20.924201769
2025-11-07 12:37:19.584582,155,2025-11-07 12:37:20.931894077
2025-11-07 12:37:19.584582,-26624,2025-11-07 12:37:20.939586385
2025-11-07 12:37:19.584582,0,2025-11-07 12:37:20.947278692
2025-11-07 12:37:19.584582,155,2025-11-07 12:37:20.954971000
2025-11-07 12:37:19.584582,-28416,2025-11-07 12:37:20.962663308
2025-11-07 12:37:19.584582,0,2025-11-07 12:37:20.970355615
2025-11-07 12:37:19.584582,131,2025-11-07 12:37:20.978047923
2025-11-07 12:37:19.584582,30976,2025-11-07 12:37:20.985740231
2025-11-07 12:37:19.584582,0,2025-11-07 12:37:20.993432538
2025-11-07 12:37:19.584582,117,2025-11-07 12:37:21.001124846
2025-11-07 12:37:19.584582,27904,2025-11-07 12:37:21.008817154
2025-11-07 12:37:19.584582,0,2025-11-07 12:37:21.016509462
2025-11-07 12:37:19.584582,102,2025-11-07 12:37:21.024201769
2025-11-07 12:37:19.584582,24832,2025-11-07 12:37:21.031894077
2025-11-07 12:37:19.584582,0,2025-11-07 12:37:21.039586385
2025-11-07 12:37:19.584582,81,2025-11-07 12:37:21.047278692
2025-11-07 12:37:19.584582,10752,2025-11-07 12:37:21.054971000
2025-11-07 12:37:19.584582,0,2025-11-07 12:37:21.062663308
2025-11-07 12:37:19.584582,28,2025-11-07 12:37:21.070355615
2025-11-07 12:37:19.584582,7168,2025-11-07 12:37:21.078047923
2025-11-07 12:37:19.584582,1,2025-11-07 12:37:21.085740231
2025-11-07 12:37:19.584582,917,2025-11-07 12:37:21.093432538
2025-11-07 12:37:19.584582,-12288,2025-11-07 12:37:21.101124846
2025-11-07 12:37:19.584582,4,2025-11-07 12:37:21.108817154
2025-11-07 12:37:19.584582,714,2025-11-07 12:37:21.116509462
2025-11-07 12:37:19.584582,31744,2025-11-07 12:37:21.124201769
2025-11-07 12:37:19.584582,0,2025-11-07 12:37:21.131894077
2025-11-07 12:37:19.584582,57,2025-11-07 12:37:21.139586385
2025-11-07 12:37:19.584582,23808,2025-11-07 12:37:21.147278692
2025-11-07 12:37:19.584582,0,2025-11-07 12:37:21.154971000
2025-11-07 12:37:19.584582,-40,2025-11-07 12:37:21.162663308
2025-11-07 12:37:19.584582,-27649,2025-11-07 12:37:21.170355615
2025-11-07 12:37:19.584582,-1,2025-11-07 12:37:21.178047923
2025-11-07 12:37:19.584582,-76,2025-11-07 12:37:21.185740231
2025-11-07 12:37:19.584582,-20481,2025-11-07 12:37:21.193432538
2025-11-07 12:37:19.584582,-1,2025-11-07 12:37:21.201124846
2025-11-07 12:37:19.584582,-100,2025-11-07 12:37:21.208817154
2025-11-07 12:37:19.584582,-22273,2025-11-07 12:37:21.216509462
2025-11-07 12:37:19.584582,-1,2025-11-07 12:37:21.224201769
2025-11-07 12:37:19.584582,-78,2025-11-07 12:37:21.231894077
2025-11-07 12:37:19.584582,-19713,2025-11-07 12:37:21.239586385
2025-11-07 12:37:19.584582,-1,2025-11-07 12:37:21.247278692
2025-11-07 12:37:19.584582,-76,2025-11-07 12:37:21.254971000
2025-11-07 12:37:19.584582,-16129,2025-11-07 12:37:21.262663308
2025-11-07 12:37:19.584582,-1,2025-11-07 12:37:21.270355615
2025-11-07 12:37:19.584582,-59,2025-11-07 12:37:21.278047923
2025-11-07 12:37:19.584582,-16129,2025-11-07 12:37:21.285740231
2025-11-07 12:37:19.584582,-1,2025-11-07 12:37:21.293432538
2025-11-07 12:37:19.584582,-62,2025-11-07 12:37:21.301124846
2025-11-07 12:37:20.168206,-64,2025-11-07 12:37:21.308817154
2025-11-07 12:37:20.168206,-17409,2025-11-07 12:37:21.316509462
2025-11-07 12:37:20.168206,-1,2025-11-07 12:37:21.324201769
2025-11-07 12:37:20.168206,-66,2025-11-07 12:37:21.331894077
2025-11-07 12:37:20.168206,-17409,2025-11-07 12:37:21.339586385
2025-11-07 12:37:20.168206,-1,2025-11-07 12:37:21.347278692
2025-11-07 12:37:20.168206,-57,2025-11-07 12:37:21.354971000
2025-11-07 12:37:20.168206,-6913,2025-11-07 12:37:21.362663308
2025-11-07 12:37:20.168206,-1,2025-11-07 12:37:21.370355615
2025-11-07 12:37:20.168206,-26,2025-11-07 12:37:21.378047923
2025-11-07 12:37:20.168206,-8705,2025-11-07 12:37:21.385740231
2025-11-07 12:37:20.168206,-1,2025-11-07 12:37:21.393432538
2025-11-07 12:37:20.168206,-26,2025-11-07 12:37:21.401124846
2025-11-07 12:37:20.168206,-769,2025-11-07 12:37:21.408817154
2025-11-07 12:37:20.168206,-1,2025-11-07 12:37:21.416509462
2025-11-07 12:37:20.168206,14,2025-11-07 12:37:21.424201769
2025-11-07 12:37:20.168206,7936,2025-11-07 12:37:21.431894077
2025-11-07 12:37:20.168206,0,2025-11-07 12:37:21.439586385
2025-11-07 12:37:20.168206,40,2025-11-07 12:37:21.447278692
2025-11-07 12:37:20.168206,12032,2025-11-07 12:37:21.454971000
2025-11-07 12:37:20.168206,0,2025-11-07 12:37:21.462663308
2025-11-07 12:37:20.168206,57,2025-11-07 12:37:21.470355615
2025-11-07 12:37:20.168206,18176,2025-11-07 12:37:21.478047923
2025-11-07 12:37:20.168206,0,2025-11-07 12:37:21.485740230
2025-11-07 12:37:20.168206,85,2025-11-07 12:37:21.493432538
2025-11-07 12:37:20.168206,22528,2025-11-07 12:37:21.501124846
2025-11-07 12:37:20.168206,0,2025-11-07 12:37:21.508817154
2025-11-07 12:37:20.168206,85,2025-11-07 12:37:21.516509462
2025-11-07 12:37:20.168206,22528,2025-11-07 12:37:21.524201769
2025-11-07 12:37:20.168206,0,2025-11-07 12:37:21.531894077
2025-11-07 12:37:20.168206,88,2025-11-07 12:37:21.539586385
2025-11-07 12:37:20.168206,21760,2025-11-07 12:37:21.547278692
2025-11-07 12:37:20.168206,0,2025-11-07 12:37:21.554971000
2025-11-07 12:37:20.168206,85,2025-11-07 12:37:21.562663308
2025-11-07 12:37:20.168206,21760,2025-11-07 12:37:21.570355615
2025-11-07 12:37:20.168206,0,2025-11-07 12:37:21.578047923
2025-11-07 12:37:20.168206,85,2025-11-07 12:37:21.585740231
2025-11-07 12:37:20.168206,22528,2025-11-07 12:37:21.593432538
2025-11-07 12:37:20.168206,0,2025-11-07 12:37:21.601124846
2025-11-07 12:37:20.168206,88,2025-11-07 12:37:21.608817154
2025-11-07 12:37:20.168206,21760,2025-11-07 12:37:21.616509462
2025-11-07 12:37:20.168206,0,2025-11-07 12:37:21.624201769
2025-11-07 12:37:20.168206,88,2025-11-07 12:37:21.631894077
2025-11-07 12:37:20.168206,18944,2025-11-07 12:37:21.639586385
2025-11-07 12:37:20.168206,0,2025-11-07 12:37:21.647278692
2025-11-07 12:37:20.168206,45,2025-11-07 12:37:21.654971000
2025-11-07 12:37:20.168206,13824,2025-11-07 12:37:21.662663308
2025-11-07 12:37:20.168206,0,2025-11-07 12:37:21.670355615
2025-11-07 12:37:20.168206,97,2025-11-07 12:37:21.678047923
2025-11-07 12:37:20.168206,32256,2025-11-07 12:37:21.685740231
2025-11-07 12:37:20.168206,0,2025-11-07 12:37:21.693432538
2025-11-07 12:37:20.168206,128,2025-11-07 12:37:21.701124846
2025-11-07 12:37:20.168206,30976,2025-11-07 12:37:21.708817154
2025-11-07 12:37:20.168206,0,2025-11-07 12:37:21.716509462
2025-11-07 12:37:20.168206,117,2025-11-07 12:37:21.724201769
2025-11-07 12:37:20.168206,29952,2025-11-07 12:37:21.731894077
2025-11-07 12:37:20.168206,0,2025-11-07 12:37:21.739586385
2025-11-07 12:37:20.168206,114,2025-11-07 12:37:21.747278692
2025-11-07 12:37:20.168206,30976,2025-11-07 12:37:21.754971000
2025-11-07 12:37:20.168206,0,2025-11-07 12:37:21.762663308
2025-11-07 12:37:20.168206,131,2025-11-07 12:37:21.770355615
2025-11-07 12:37:20.168206,-30720,2025-11-07 12:37:21.778047923
2025-11-07 12:37:20.168206,0,2025-11-07 12:37:21.785740231
2025-11-07 12:37:20.168206,136,2025-11-07 12:37:21.793432538
2025-11-07 12:37:20.168206,-32768,2025-11-07 12:37:21.801124846
2025-11-07 12:37:20.168206,0,2025-11-07 12:37:21.808817154
2025-11-07 12:37:20.168206,119,2025-11-07 12:37:21.816509462
2025-11-07 12:37:20.168206,29952,2025-11-07 12:37:21.824201769
2025-11-07 12:37:20.168206,0,2025-11-07 12:37:21.831894077
2025-11-07 12:37:20.168206,121,2025-11-07 12:37:21.839586385
2025-11-07 12:37:20.168206,31744,2025-11-07 12:37:21.847278692
2025-11-07 12:37:20.168206,0,2025-11-07 12:37:21.854971000
2025-11-07 12:37:20.168206,131,2025-11-07 12:37:21.862663308
2025-11-07 12:37:20.168206,-27648,2025-11-07 12:37:21.870355615
2025-11-07 12:37:20.168206,0,2025-11-07 12:37:21.878047923
2025-11-07 12:37:20.168206,152,2025-11-07 12:37:21.885740231
2025-11-07 12:37:20.168206,-25856,2025-11-07 12:37:21.893432538
2025-11-07 12:37:20.168206,0,2025-11-07 12:37:21.901124846
2025-11-07 12:37:20.168206,164,2025-11-07 12:37:21.908817154
2025-11-07 12:37:20.168206,-26624,2025-11-07 12:37:21.916509462
2025-11-07 12:37:20.168206,0,2025-11-07 12:37:21.924201769
2025-11-07 12:37:20.168206,140,2025-11-07 12:37:21.931894077
2025-11-07 12:37:20.168206,-28928,2025-11-07 12:37:21.939586385
2025-11-07 12:37:20.168206,0,2025-11-07 12:37:21.947278692
2025-11-07 12:37:20.168206,150,2025-11-07 12:37:21.954971000
2025-11-07 12:37:20.168206,-25856,2025-11-07 12:37:21.962663308
2025-11-07 12:37:20.168206,0,2025-11-07 12:37:21.970355615
2025-11-07 12:37:20.168206,155,2025-11-07 12:37:21.978047923
2025-11-07 12:37:20.168206,-27648,2025-11-07 12:37:21.985740231
2025-11-07 12:37:20.168206,0,2025-11-07 12:37:21.993432538
2025-11-07 12:37:20.168206,148,2025-11-07 12:37:22.001124846
2025-11-07 12:37:20.168206,-25856,2025-11-07 12:37:22.008817154
2025-11-07 12:37:20.168206,0,2025-11-07 12:37:22.016509462
2025-11-07 12:37:20.168206,155,2025-11-07 12:37:22.024201769
2025-11-07 12:37:20.168206,-27648,2025-11-07 12:37:22.031894077
2025-11-07 12:37:20.168206,0,2025-11-07 12:37:22.039586385
2025-11-07 12:37:20.168206,148,2025-11-07 12:37:22.047278692
2025-11-07 12:37:20.168206,-27136,2025-11-07 12:37:22.054971000
2025-11-07 12:37:20.168206,0,2025-11-07 12:37:22.062663308
2025-11-07 12:37:20.168206,117,2025-11-07 12:37:22.070355615
2025-11-07 12:37:20.168206,24320,2025-11-07 12:37:22.078047923
2025-11-07 12:37:20.168206,0,2025-11-07 12:37:22.085740231
2025-11-07 12:37:20.168206,367,2025-11-07 12:37:22.093432538
2025-11-07 12:37:20.168206,-1792,2025-11-07 12:37:22.101124846
2025-11-07 12:37:20.168206,3,2025-11-07 12:37:22.108817154
2025-11-07 12:37:20.168206,1289,2025-11-07 12:37:22.116509462
2025-11-07 12:37:20.168206,-7680,2025-11-07 12:37:22.124201769
2025-11-07 12:37:20.168206,2,2025-11-07 12:37:22.131894077
2025-11-07 12:37:20.168206,176,2025-11-07 12:37:22.139586385
2025-11-07 12:37:20.798693,131,2025-11-07 12:37:22.147278692
2025-11-07 12:37:20.798693,-25344,2025-11-07 12:37:22.154971000
2025-11-07 12:37:20.798693,0,2025-11-07 12:37:22.162663308
2025-11-07 12:37:20.798693,28,2025-11-07 12:37:22.170355615
2025-11-07 12:37:20.798693,-9728,2025-11-07 12:37:22.178047923
2025-11-07 12:37:20.798693,-1,2025-11-07 12:37:22.185740231
2025-11-07 12:37:20.798693,-11,2025-11-07 12:37:22.193432538
2025-11-07 12:37:20.798693,-3329,2025-11-07 12:37:22.201124846
2025-11-07 12:37:20.798693,-1,2025-11-07 12:37:22.208817154
2025-11-07 12:37:20.798693,-23,2025-11-07 12:37:22.216509462
2025-11-07 12:37:20.798693,255,2025-11-07 12:37:22.224201769
2025-11-07 12:37:20.798693,0,2025-11-07 12:37:22.231894077
2025-11-07 12:37:20.798693,26,2025-11-07 12:37:22.239586385
2025-11-07 12:37:20.798693,8448,2025-11-07 12:37:22.247278692
2025-11-07 12:37:20.798693,0,2025-11-07 12:37:22.254971000
2025-11-07 12:37:20.798693,26,2025-11-07 12:37:22.262663308
2025-11-07 12:37:20.798693,6656,2025-11-07 12:37:22.270355615
2025-11-07 12:37:20.798693,0,2025-11-07 12:37:22.278047923
2025-11-07 12:37:20.798693,28,2025-11-07 12:37:22.285740231
2025-11-07 12:37:20.798693,7168,2025-11-07 12:37:22.293432538
2025-11-07 12:37:20.798693,0,2025-11-07 12:37:22.301124846
2025-11-07 12:37:20.798693,33,2025-11-07 12:37:22.308817154
2025-11-07 12:37:20.798693,7936,2025-11-07 12:37:22.316509462
2025-11-07 12:37:20.798693,0,2025-11-07 12:37:22.324201769
2025-11-07 12:37:20.798693,28,2025-11-07 12:37:22.331894077
2025-11-07 12:37:20.798693,10240,2025-11-07 12:37:22.339586385
2025-11-07 12:37:20.798693,0,2025-11-07 12:37:22.347278692
2025-11-07 12:37:20.798693,52,2025-11-07 12:37:22.354971000
2025-11-07 12:37:20.798693,13824,2025-11-07 12:37:22.362663308
2025-11-07 12:37:20.798693,0,2025-11-07 12:37:22.370355615
2025-11-07 12:37:20.798693,64,2025-11-07 12:37:22.378047923
2025-11-07 12:37:20.798693,17664,2025-11-07 12:37:22.385740231
2025-11-07 12:37:20.798693,0,2025-11-07 12:37:22.393432538
2025-11-07 12:37:20.798693,64,2025-11-07 12:37:22.401124846
2025-11-07 12:37:20.798693,19968,2025-11-07 12:37:22.408817154
2025-11-07 12:37:20.798693,0,2025-11-07 12:37:22.416509462
2025-11-07 12:37:20.798693,102,2025-11-07 12:37:22.424201769
2025-11-07 12:37:20.798693,28672,2025-11-07 12:37:22.431894077
2025-11-07 12:37:20.798693,0,2025-11-07 12:37:22.439586385
2025-11-07 12:37:20.798693,124,2025-11-07 12:37:22.447278692
2025-11-07 12:37:20.798693,-28416,2025-11-07 12:37:22.454971000
2025-11-07 12:37:20.798693,0,2025-11-07 12:37:22.462663308
2025-11-07 12:37:20.798693,157,2025-11-07 12:37:22.470355615
2025-11-07 12:37:20.798693,-23552,2025-11-07 12:37:22.478047923
2025-11-07 12:37:20.798693,0,2025-11-07 12:37:22.485740230
2025-11-07 12:37:20.798693,174,2025-11-07 12:37:22.493432538
2025-11-07 12:37:20.798693,-20480,2025-11-07 12:37:22.501124846
2025-11-07 12:37:20.798693,0,2025-11-07 12:37:22.508817154
2025-11-07 12:37:20.798693,183,2025-11-07 12:37:22.516509462
2025-11-07 12:37:20.798693,-16640,2025-11-07 12:37:22.524201769
2025-11-07 12:37:20.798693,0,2025-11-07 12:37:22.531894077
2025-11-07 12:37:20.798693,186,2025-11-07 12:37:22.539586385
2025-11-07 12:37:20.798693,-18688,2025-11-07 12:37:22.547278692
2025-11-07 12:37:20.798693,0,2025-11-07 12:37:22.554971000
2025-11-07 12:37:20.798693,188,2025-11-07 12:37:22.562663308
2025-11-07 12:37:20.798693,-17408,2025-11-07 12:37:22.570355615
2025-11-07 12:37:20.798693,0,2025-11-07 12:37:22.578047923
2025-11-07 12:37:20.798693,188,2025-11-07 12:37:22.585740231
2025-11-07 12:37:20.798693,-18688,2025-11-07 12:37:22.593432538
2025-11-07 12:37:20.798693,0,2025-11-07 12:37:22.601124846
2025-11-07 12:37:20.798693,167,2025-11-07 12:37:22.608817154
2025-11-07 12:37:20.798693,-24576,2025-11-07 12:37:22.616509462
2025-11-07 12:37:20.798693,0,2025-11-07 12:37:22.624201769
2025-11-07 12:37:20.798693,164,2025-11-07 12:37:22.631894077
2025-11-07 12:37:20.798693,-24064,2025-11-07 12:37:22.639586385
2025-11-07 12:37:20.798693,0,2025-11-07 12:37:22.647278692
2025-11-07 12:37:20.798693,157,2025-11-07 12:37:22.654971000
2025-11-07 12:37:20.798693,-24576,2025-11-07 12:37:22.662663308
2025-11-07 12:37:20.798693,0,2025-11-07 12:37:22.670355615
2025-11-07 12:37:20.798693,157,2025-11-07 12:37:22.678047923
2025-11-07 12:37:20.798693,-26624,2025-11-07 12:37:22.685740231
2025-11-07 12:37:20.798693,0,2025-11-07 12:37:22.693432538
2025-11-07 12:37:20.798693,157,2025-11-07 12:37:22.701124846
2025-11-07 12:37:20.798693,-24064,2025-11-07 12:37:22.708817154
2025-11-07 12:37:20.798693,0,2025-11-07 12:37:22.716509462
2025-11-07 12:37:20.798693,164,2025-11-07 12:37:22.724201769
2025-11-07 12:37:20.798693,-20992,2025-11-07 12:37:22.731894077
2025-11-07 12:37:20.798693,0,2025-11-07 12:37:22.739586385
2025-11-07 12:37:20.798693,174,2025-11-07 12:37:22.747278692
2025-11-07 12:37:20.798693,-25856,2025-11-07 12:37:22.754971000
2025-11-07 12:37:20.798693,0,2025-11-07 12:37:22.762663308
2025-11-07 12:37:20.798693,145,2025-11-07 12:37:22.770355615
2025-11-07 12:37:20.798693,-25344,2025-11-07 12:37:22.778047923
2025-11-07 12:37:20.798693,0,2025-11-07 12:37:22.785740231
2025-11-07 12:37:20.798693,171,2025-11-07 12:37:22.793432538
2025-11-07 12:37:20.798693,-22784,2025-11-07 12:37:22.801124846
2025-11-07 12:37:20.798693,0,2025-11-07 12:37:22.808817154
2025-11-07 12:37:20.798693,155,2025-11-07 12:37:22.816509462
2025-11-07 12:37:20.798693,-28928,2025-11-07 12:37:22.824201769
2025-11-07 12:37:20.798693,0,2025-11-07 12:37:22.831894077
2025-11-07 12:37:20.798693,138,2025-11-07 12:37:22.839586385
2025-11-07 12:37:20.798693,-27136,2025-11-07 12:37:22.847278692
2025-11-07 12:37:20.798693,0,2025-11-07 12:37:22.854971000
2025-11-07 12:37:20.798693,169,2025-11-07 12:37:22.862663308
2025-11-07 12:37:20.798693,-19712,2025-11-07 12:37:22.870355615
2025-11-07 12:37:20.798693,0,2025-11-07 12:37:22.878047923
2025-11-07 12:37:20.798693,176,2025-11-07 12:37:22.885740231
2025-11-07 12:37:20.798693,-22272,2025-11-07 12:37:22.893432538
2025-11-07 12:37:20.798693,0,2025-11-07 12:37:22.901124846
2025-11-07 12:37:20.798693,169,2025-11-07 12:37:22.908817154
2025-11-07 12:37:20.798693,-22784,2025-11-07 12:37:22.916509462
2025-11-07 12:37:20.798693,0,2025-11-07 12:37:22.924201769
2025-11-07 12:37:20.798693,152,2025-11-07 12:37:22.931894077
2025-11-07 12:37:20.798693,-26624,2025-11-07 12:37:22.939586385
2025-11-07 12:37:20.798693,0,2025-11-07 12:37:22.947278692
2025-11-07 12:37:20.798693,160,2025-11-07 12:37:22.954971000
2025-11-07 12:37:20.798693,-25344,2025-11-07 12:37:22.962663308
2025-11-07 12:37:20.798693,0,2025-11-07 12:37:22.970355615
2025-11-07 12:37:20.798693,155,2025-11-07 12:37:22.978047923
2025-11-07 12:37:21.336376,155,2025-11-07 12:37:22.985740231
2025-11-07 12:37:21.336376,-24576,2025-11-07 12:37:22.993432538
2025-11-07 12:37:21.336376,0,2025-11-07 12:37:23.001124846
2025-11-07 12:37:21.336376,157,2025-11-07 12:37:23.008817154
2025-11-07 12:37:21.336376,-27136,2025-11-07 12:37:23.016509462
2025-11-07 12:37:21.336376,0,2025-11-07 12:37:23.024201769
2025-11-07 12:37:21.336376,152,2025-11-07 12:37:23.031894077
2025-11-07 12:37:21.336376,-25344,2025-11-07 12:37:23.039586385
2025-11-07 12:37:21.336376,0,2025-11-07 12:37:23.047278692
2025-11-07 12:37:21.336376,143,2025-11-07 12:37:23.054971000
2025-11-07 12:37:21.336376,26112,2025-11-07 12:37:23.062663308
2025-11-07 12:37:21.336376,0,2025-11-07 12:37:23.070355615
2025-11-07 12:37:21.336376,133,2025-11-07 12:37:23.078047923
2025-11-07 12:37:21.336376,5888,2025-11-07 12:37:23.085740231
2025-11-07 12:37:21.336376,2,2025-11-07 12:37:23.093432538
2025-11-07 12:37:21.336376,1179,2025-11-07 12:37:23.101124846
2025-11-07 12:37:21.336376,-18944,2025-11-07 12:37:23.108817154
2025-11-07 12:37:21.336376,4,2025-11-07 12:37:23.116509462
2025-11-07 12:37:21.336376,513,2025-11-07 12:37:23.124201769
2025-11-07 12:37:21.336376,23808,2025-11-07 12:37:23.131894077
2025-11-07 12:37:21.336376,0,2025-11-07 12:37:23.139586385
2025-11-07 12:37:21.336376,164,2025-11-07 12:37:23.147278692
2025-11-07 12:37:21.336376,-25856,2025-11-07 12:37:23.154971000
2025-11-07 12:37:21.336376,0,2025-11-07 12:37:23.162663308
2025-11-07 12:37:21.336376,14,2025-11-07 12:37:23.170355615
2025-11-07 12:37:21.336376,0,2025-11-07 12:37:23.178047923
2025-11-07 12:37:21.336376,0,2025-11-07 12:37:23.185740231
2025-11-07 12:37:21.336376,42,2025-11-07 12:37:23.193432538
2025-11-07 12:37:21.336376,6656,2025-11-07 12:37:23.201124846
2025-11-07 12:37:21.336376,0,2025-11-07 12:37:23.208817154
2025-11-07 12:37:21.336376,9,2025-11-07 12:37:23.216509462
2025-11-07 12:37:21.336376,5376,2025-11-07 12:37:23.224201769
2025-11-07 12:37:21.336376,0,2025-11-07 12:37:23.231894077
2025-11-07 12:37:21.336376,31,2025-11-07 12:37:23.239586385
2025-11-07 12:37:21.336376,7168,2025-11-07 12:37:23.247278692
2025-11-07 12:37:21.336376,0,2025-11-07 12:37:23.254971000
2025-11-07 12:37:21.336376,31,2025-11-07 12:37:23.262663308
2025-11-07 12:37:21.336376,8448,2025-11-07 12:37:23.270355615
2025-11-07 12:37:21.336376,0,2025-11-07 12:37:23.278047923
2025-11-07 12:37:21.336376,33,2025-11-07 12:37:23.285740231
2025-11-07 12:37:21.336376,6656,2025-11-07 12:37:23.293432538
2025-11-07 12:37:21.336376,0,2025-11-07 12:37:23.301124846
2025-11-07 12:37:21.336376,26,2025-11-07 12:37:23.308817154
2025-11-07 12:37:21.336376,6656,2025-11-07 12:37:23.316509462
2025-11-07 12:37:21.336376,0,2025-11-07 12:37:23.324201769
2025-11-07 12:37:21.336376,23,2025-11-07 12:37:23.331894077
2025-11-07 12:37:21.336376,6656,2025-11-07 12:37:23.339586385
2025-11-07 12:37:21.336376,0,2025-11-07 12:37:23.347278692
2025-11-07 12:37:21.336376,38,2025-11-07 12:37:23.354971000
2025-11-07 12:37:21.336376,11520,2025-11-07 12:37:23.362663308
2025-11-07 12:37:21.336376,0,2025-11-07 12:37:23.370355615
2025-11-07 12:37:21.336376,50,2025-11-07 12:37:23.378047923
2025-11-07 12:37:21.336376,14592,2025-11-07 12:37:23.385740231
2025-11-07 12:37:21.336376,0,2025-11-07 12:37:23.393432538
2025-11-07 12:37:21.336376,69,2025-11-07 12:37:23.401124846
2025-11-07 12:37:21.336376,19456,2025-11-07 12:37:23.408817154
2025-11-07 12:37:21.336376,0,2025-11-07 12:37:23.416509462
2025-11-07 12:37:21.336376,88,2025-11-07 12:37:23.424201769
2025-11-07 12:37:21.336376,27392,2025-11-07 12:37:23.431894077
2025-11-07 12:37:21.336376,0,2025-11-07 12:37:23.439586385
2025-11-07 12:37:21.336376,114,2025-11-07 12:37:23.447278692
2025-11-07 12:37:21.336376,28672,2025-11-07 12:37:23.454971000
2025-11-07 12:37:21.336376,0,2025-11-07 12:37:23.462663308
2025-11-07 12:37:21.336376,124,2025-11-07 12:37:23.470355615
2025-11-07 12:37:21.336376,-30720,2025-11-07 12:37:23.478047923
2025-11-07 12:37:21.336376,0,2025-11-07 12:37:23.485740230
2025-11-07 12:37:21.336376,133,2025-11-07 12:37:23.493432538
2025-11-07 12:37:21.336376,-32768,2025-11-07 12:37:23.501124846
2025-11-07 12:37:21.336376,0,2025-11-07 12:37:23.508817154
2025-11-07 12:37:21.336376,128,2025-11-07 12:37:23.516509462
2025-11-07 12:37:21.336376,-30208,2025-11-07 12:37:23.524201769
2025-11-07 12:37:21.336376,0,2025-11-07 12:37:23.531894077
2025-11-07 12:37:21.336376,148,2025-11-07 12:37:23.539586385
2025-11-07 12:37:21.336376,-30208,2025-11-07 12:37:23.547278692
2025-11-07 12:37:21.336376,0,2025-11-07 12:37:23.554971000
2025-11-07 12:37:21.336376,131,2025-11-07 12:37:23.562663308
2025-11-07 12:37:21.336376,-28416,2025-11-07 12:37:23.570355615
2025-11-07 12:37:21.336376,0,2025-11-07 12:37:23.578047923
2025-11-07 12:37:21.336376,155,2025-11-07 12:37:23.585740231
2025-11-07 12:37:21.336376,-29696,2025-11-07 12:37:23.593432538
2025-11-07 12:37:21.336376,0,2025-11-07 12:37:23.601124846
2025-11-07 12:37:21.336376,128,2025-11-07 12:37:23.608817154
2025-11-07 12:37:21.336376,-31488,2025-11-07 12:37:23.616509462
2025-11-07 12:37:21.336376,0,2025-11-07 12:37:23.624201769
2025-11-07 12:37:21.336376,133,2025-11-07 12:37:23.631894077
2025-11-07 12:37:21.336376,31744,2025-11-07 12:37:23.639586385
2025-11-07 12:37:21.336376,0,2025-11-07 12:37:23.647278692
2025-11-07 12:37:21.336376,117,2025-11-07 12:37:23.654971000
2025-11-07 12:37:21.336376,29184,2025-11-07 12:37:23.662663308
2025-11-07 12:37:21.336376,0,2025-11-07 12:37:23.670355615
2025-11-07 12:37:21.336376,114,2025-11-07 12:37:23.678047923
2025-11-07 12:37:21.336376,30464,2025-11-07 12:37:23.685740231
2025-11-07 12:37:21.336376,0,2025-11-07 12:37:23.693432538
2025-11-07 12:37:21.336376,126,2025-11-07 12:37:23.701124846
2025-11-07 12:37:21.336376,-32000,2025-11-07 12:37:23.708817154
2025-11-07 12:37:21.336376,0,2025-11-07 12:37:23.716509462
2025-11-07 12:37:21.336376,131,2025-11-07 12:37:23.724201769
2025-11-07 12:37:21.336376,32256,2025-11-07 12:37:23.731894077
2025-11-07 12:37:21.336376,0,2025-11-07 12:37:23.739586385
2025-11-07 12:37:21.336376,124,2025-11-07 12:37:23.747278692
2025-11-07 12:37:21.336376,30976,2025-11-07 12:37:23.754971000
2025-11-07 12:37:21.336376,0,2025-11-07 12:37:23.762663308
2025-11-07 12:37:21.336376,126,2025-11-07 12:37:23.770355615
2025-11-07 12:37:21.336376,-30720,2025-11-07 12:37:23.778047923
2025-11-07 12:37:21.336376,0,2025-11-07 12:37:23.785740231
2025-11-07 12:37:21.336376,145,2025-11-07 12:37:23.793432538
2025-11-07 12:37:21.336376,-28416,2025-11-07 12:37:23.801124846
2025-11-07 12:37:21.336376,0,2025-11-07 12:37:23.808817154
2025-11-07 12:37:21.336376,131,2025-11-07 12:37:23.816509462
2025-11-07 12:37:21.832008,124,2025-11-07 12:37:23.824201769
2025-11-07 12:37:21.832008,-32000,2025-11-07 12:37:23.831894077
2025-11-07 12:37:21.832008,0,2025-11-07 12:37:23.839586385
2025-11-07 12:37:21.832008,131,2025-11-07 12:37:23.847278692
2025-11-07 12:37:21.832008,32256,2025-11-07 12:37:23.854971000
2025-11-07 12:37:21.832008,0,2025-11-07 12:37:23.862663308
2025-11-07 12:37:21.832008,128,2025-11-07 12:37:23.870355615
2025-11-07 12:37:21.832008,32256,2025-11-07 12:37:23.878047923
2025-11-07 12:37:21.832008,0,2025-11-07 12:37:23.885740231
2025-11-07 12:37:21.832008,119,2025-11-07 12:37:23.893432538
2025-11-07 12:37:21.832008,32256,2025-11-07 12:37:23.901124846
2025-11-07 12:37:21.832008,0,2025-11-07 12:37:23.908817154
2025-11-07 12:37:21.832008,124,2025-11-07 12:37:23.916509462
2025-11-07 12:37:21.832008,31744,2025-11-07 12:37:23.924201769
2025-11-07 12:37:21.832008,0,2025-11-07 12:37:23.931894077
2025-11-07 12:37:21.832008,145,2025-11-07 12:37:23.939586385
2025-11-07 12:37:21.832008,-25856,2025-11-07 12:37:23.947278692
2025-11-07 12:37:21.832008,0,2025-11-07 12:37:23.954971000
2025-11-07 12:37:21.832008,152,2025-11-07 12:37:23.962663308
2025-11-07 12:37:21.832008,-27648,2025-11-07 12:37:23.970355615
2025-11-07 12:37:21.832008,0,2025-11-07 12:37:23.978047923
2025-11-07 12:37:21.832008,152,2025-11-07 12:37:23.985740231
2025-11-07 12:37:21.832008,-24064,2025-11-07 12:37:23.993432538
2025-11-07 12:37:21.832008,0,2025-11-07 12:37:24.001124846
2025-11-07 12:37:21.832008,160,2025-11-07 12:37:24.008817154
2025-11-07 12:37:21.832008,-25856,2025-11-07 12:37:24.016509462
2025-11-07 12:37:21.832008,0,2025-11-07 12:37:24.024201769
2025-11-07 12:37:21.832008,150,2025-11-07 12:37:24.031894077
2025-11-07 12:37:21.832008,-28928,2025-11-07 12:37:24.039586385
2025-11-07 12:37:21.832008,0,2025-11-07 12:37:24.047278692
2025-11-07 12:37:21.832008,138,2025-11-07 12:37:24.054971000
2025-11-07 12:37:21.832008,-29696,2025-11-07 12:37:24.062663308
2025-11-07 12:37:21.832008,0,2025-11-07 12:37:24.070355615
2025-11-07 12:37:21.832008,140,2025-11-07 12:37:24.078047923
2025-11-07 12:37:21.832008,-30208,2025-11-07 12:37:24.085740231
2025-11-07 12:37:21.832008,0,2025-11-07 12:37:24.093432538
2025-11-07 12:37:21.832008,136,2025-11-07 12:37:24.101124846
2025-11-07 12:37:21.832008,-32000,2025-11-07 12:37:24.108817154
2025-11-07 12:37:21.832008,0,2025-11-07 12:37:24.116509462
2025-11-07 12:37:21.832008,121,2025-11-07 12:37:24.124201769
2025-11-07 12:37:21.832008,25600,2025-11-07 12:37:24.131894077
2025-11-07 12:37:21.832008,0,2025-11-07 12:37:24.139586385
2025-11-07 12:37:21.832008,78,2025-11-07 12:37:24.147278692
2025-11-07 12:37:21.832008,10240,2025-11-07 12:37:24.154971000
2025-11-07 12:37:21.832008,1,2025-11-07 12:37:24.162663308
2025-11-07 12:37:21.832008,950,2025-11-07 12:37:24.170355615
2025-11-07 12:37:21.832008,20736,2025-11-07 12:37:24.178047923
2025-11-07 12:37:21.832008,5,2025-11-07 12:37:24.185740231
2025-11-07 12:37:21.832008,867,2025-11-07 12:37:24.193432538
2025-11-07 12:37:21.832008,-19712,2025-11-07 12:37:24.201124846
2025-11-07 12:37:21.832008,0,2025-11-07 12:37:24.208817154
2025-11-07 12:37:21.832008,71,2025-11-07 12:37:24.216509462
2025-11-07 12:37:21.832008,-28416,2025-11-07 12:37:24.224201769
2025-11-07 12:37:21.832008,0,2025-11-07 12:37:24.231894077
2025-11-07 12:37:21.832008,21,2025-11-07 12:37:24.239586385
2025-11-07 12:37:21.832008,-16896,2025-11-07 12:37:24.247278692
2025-11-07 12:37:21.832008,-1,2025-11-07 12:37:24.254971000
2025-11-07 12:37:21.832008,-26,2025-11-07 12:37:24.262663308
2025-11-07 12:37:21.832008,-2561,2025-11-07 12:37:24.270355615
2025-11-07 12:37:21.832008,-1,2025-11-07 12:37:24.278047923
2025-11-07 12:37:21.832008,-33,2025-11-07 12:37:24.285740231
2025-11-07 12:37:21.832008,-7681,2025-11-07 12:37:24.293432538
2025-11-07 12:37:21.832008,-1,2025-11-07 12:37:24.301124846
2025-11-07 12:37:21.832008,-23,2025-11-07 12:37:24.308817154
2025-11-07 12:37:21.832008,-9985,2025-11-07 12:37:24.316509462
2025-11-07 12:37:21.832008,-1,2025-11-07 12:37:24.324201769
2025-11-07 12:37:21.832008,-47,2025-11-07 12:37:24.331894077
2025-11-07 12:37:21.832008,-6913,2025-11-07 12:37:24.339586385
2025-11-07 12:37:21.832008,-1,2025-11-07 12:37:24.347278692
2025-11-07 12:37:21.832008,-16,2025-11-07 12:37:24.354971000
2025-11-07 12:37:21.832008,-6401,2025-11-07 12:37:24.362663308
2025-11-07 12:37:21.832008,-1,2025-11-07 12:37:24.370355615
2025-11-07 12:37:21.832008,-28,2025-11-07 12:37:24.378047923
2025-11-07 12:37:21.832008,-5633,2025-11-07 12:37:24.385740231
2025-11-07 12:37:21.832008,-1,2025-11-07 12:37:24.393432538
2025-11-07 12:37:21.832008,-23,2025-11-07 12:37:24.401124846
2025-11-07 12:37:21.832008,-5633,2025-11-07 12:37:24.408817154
2025-11-07 12:37:21.832008,-1,2025-11-07 12:37:24.416509462
2025-11-07 12:37:21.832008,-19,2025-11-07 12:37:24.424201769
2025-11-07 12:37:21.832008,-4609,2025-11-07 12:37:24.431894077
2025-11-07 12:37:21.832008,-1,2025-11-07 12:37:24.439586385
2025-11-07 12:37:21.832008,-23,2025-11-07 12:37:24.447278692
2025-11-07 12:37:21.832008,-3841,2025-11-07 12:37:24.454971000
2025-11-07 12:37:21.832008,-1,2025-11-07 12:37:24.462663308
2025-11-07 12:37:21.832008,4,2025-11-07 12:37:24.470355615
2025-11-07 12:37:21.832008,2816,2025-11-07 12:37:24.478047923
2025-11-07 12:37:21.832008,0,2025-11-07 12:37:24.485740230
2025-11-07 12:37:21.832008,9,2025-11-07 12:37:24.493432538
2025-11-07 12:37:21.832008,7168,2025-11-07 12:37:24.501124846
2025-11-07 12:37:21.832008,0,2025-11-07 12:37:24.508817154
2025-11-07 12:37:21.832008,50,2025-11-07 12:37:24.516509462
2025-11-07 12:37:21.832008,10240,2025-11-07 12:37:24.524201769
2025-11-07 12:37:21.832008,0,2025-11-07 12:37:24.531894077
2025-11-07 12:37:21.832008,54,2025-11-07 12:37:24.539586385
2025-11-07 12:37:21.832008,21248,2025-11-07 12:37:24.547278692
2025-11-07 12:37:21.832008,0,2025-11-07 12:37:24.554971000
2025-11-07 12:37:21.832008,85,2025-11-07 12:37:24.562663308
2025-11-07 12:37:21.832008,23808,2025-11-07 12:37:24.570355615
2025-11-07 12:37:21.832008,0,2025-11-07 12:37:24.578047923
2025-11-07 12:37:21.832008,93,2025-11-07 12:37:24.585740231
2025-11-07 12:37:21.832008,19456,2025-11-07 12:37:24.593432538
2025-11-07 12:37:21.832008,0,2025-11-07 12:37:24.601124846
2025-11-07 12:37:21.832008,78,2025-11-07 12:37:24.608817154
2025-11-07 12:37:21.832008,23040,2025-11-07 12:37:24.616509462
2025-11-07 12:37:21.832008,0,2025-11-07 12:37:24.624201769
2025-11-07 12:37:21.832008,90,2025-11-07 12:37:24.631894077
2025-11-07 12:37:21.832008,24320,2025-11-07 12:37:24.639586385
2025-11-07 12:37:21.832008,0,2025-11-07 12:37:24.647278692
2025-11-07 12:37:21.832008,100,2025-11-07 12:37:24.654971000
2025-11-07 12:37:22.416306,97,2025-11-07 12:37:24.662663308
2025-11-07 12:37:22.416306,24832,2025-11-07 12:37:24.670355615
2025-11-07 12:37:22.416306,0,2025-11-07 12:37:24.678047923
2025-11-07 12:37:22.416306,93,2025-11-07 12:37:24.685740231
2025-11-07 12:37:22.416306,20736,2025-11-07 12:37:24.693432538
2025-11-07 12:37:22.416306,0,2025-11-07 12:37:24.701124846
2025-11-07 12:37:22.416306,81,2025-11-07 12:37:24.708817154
2025-11-07 12:37:22.416306,23040,2025-11-07 12:37:24.716509462
2025-11-07 12:37:22.416306,0,2025-11-07 12:37:24.724201769
2025-11-07 12:37:22.416306,102,2025-11-07 12:37:24.731894077
2025-11-07 12:37:22.416306,28672,2025-11-07 12:37:24.739586385
2025-11-07 12:37:22.416306,0,2025-11-07 12:37:24.747278692
2025-11-07 12:37:22.416306,114,2025-11-07 12:37:24.754971000
2025-11-07 12:37:22.416306,26880,2025-11-07 12:37:24.762663308
2025-11-07 12:37:22.416306,0,2025-11-07 12:37:24.770355615
2025-11-07 12:37:22.416306,100,2025-11-07 12:37:24.778047923
2025-11-07 12:37:22.416306,27904,2025-11-07 12:37:24.785740231
2025-11-07 12:37:22.416306,0,2025-11-07 12:37:24.793432538
2025-11-07 12:37:22.416306,114,2025-11-07 12:37:24.801124846
2025-11-07 12:37:22.416306,29184,2025-11-07 12:37:24.808817154
2025-11-07 12:37:22.416306,0,2025-11-07 12:37:24.816509462
2025-11-07 12:37:22.416306,112,2025-11-07 12:37:24.824201769
2025-11-07 12:37:22.416306,26880,2025-11-07 12:37:24.831894077
2025-11-07 12:37:22.416306,0,2025-11-07 12:37:24.839586385
2025-11-07 12:37:22.416306,97,2025-11-07 12:37:24.847278692
2025-11-07 12:37:22.416306,27392,2025-11-07 12:37:24.854971000
2025-11-07 12:37:22.416306,0,2025-11-07 12:37:24.862663308
2025-11-07 12:37:22.416306,117,2025-11-07 12:37:24.870355615
2025-11-07 12:37:22.416306,28672,2025-11-07 12:37:24.878047923
2025-11-07 12:37:22.416306,0,2025-11-07 12:37:24.885740231
2025-11-07 12:37:22.416306,107,2025-11-07 12:37:24.893432538
2025-11-07 12:37:22.416306,27904,2025-11-07 12:37:24.901124846
2025-11-07 12:37:22.416306,0,2025-11-07 12:37:24.908817154
2025-11-07 12:37:22.416306,114,2025-11-07 12:37:24.916509462
2025-11-07 12:37:22.416306,27904,2025-11-07 12:37:24.924201769
2025-11-07 12:37:22.416306,0,2025-11-07 12:37:24.931894077
2025-11-07 12:37:22.416306,95,2025-11-07 12:37:24.939586385
2025-11-07 12:37:22.416306,24320,2025-11-07 12:37:24.947278692
2025-11-07 12:37:22.416306,0,2025-11-07 12:37:24.954971000
2025-11-07 12:37:22.416306,90,2025-11-07 12:37:24.962663308
2025-11-07 12:37:22.416306,19968,2025-11-07 12:37:24.970355615
2025-11-07 12:37:22.416306,0,2025-11-07 12:37:24.978047923
2025-11-07 12:37:22.416306,83,2025-11-07 12:37:24.985740231
2025-11-07 12:37:22.416306,26112,2025-11-07 12:37:24.993432538
2025-11-07 12:37:22.416306,0,2025-11-07 12:37:25.001124846
2025-11-07 12:37:22.416306,112,2025-11-07 12:37:25.008817154
2025-11-07 12:37:22.416306,24320,2025-11-07 12:37:25.016509462
2025-11-07 12:37:22.416306,0,2025-11-07 12:37:25.024201769
2025-11-07 12:37:22.416306,66,2025-11-07 12:37:25.031894077
2025-11-07 12:37:22.416306,15872,2025-11-07 12:37:25.039586385
2025-11-07 12:37:22.416306,0,2025-11-07 12:37:25.047278692
2025-11-07 12:37:22.416306,71,2025-11-07 12:37:25.054971000
2025-11-07 12:37:22.416306,18176,2025-11-07 12:37:25.062663308
2025-11-07 12:37:22.416306,0,2025-11-07 12:37:25.070355615
2025-11-07 12:37:22.416306,78,2025-11-07 12:37:25.078047923
2025-11-07 12:37:22.416306,24832,2025-11-07 12:37:25.085740231
2025-11-07 12:37:22.416306,0,2025-11-07 12:37:25.093432538
2025-11-07 12:37:22.416306,109,2025-11-07 12:37:25.101124846
2025-11-07 12:37:22.416306,26880,2025-11-07 12:37:25.108817154
2025-11-07 12:37:22.416306,0,2025-11-07 12:37:25.116509462
2025-11-07 12:37:22.416306,100,2025-11-07 12:37:25.124201769
2025-11-07 12:37:22.416306,26880,2025-11-07 12:37:25.131894077
2025-11-07 12:37:22.416306,0,2025-11-07 12:37:25.139586385
2025-11-07 12:37:22.416306,105,2025-11-07 12:37:25.147278692
2025-11-07 12:37:22.416306,25600,2025-11-07 12:37:25.154971000
2025-11-07 12:37:22.416306,0,2025-11-07 12:37:25.162663308
2025-11-07 12:37:22.416306,90,2025-11-07 12:37:25.170355615
2025-11-07 12:37:22.416306,23040,2025-11-07 12:37:25.178047923
2025-11-07 12:37:22.416306,0,2025-11-07 12:37:25.185740231
2025-11-07 12:37:22.416306,100,2025-11-07 12:37:25.193432538
2025-11-07 12:37:22.416306,25600,2025-11-07 12:37:25.201124846
2025-11-07 12:37:22.416306,0,2025-11-07 12:37:25.208817154
2025-11-07 12:37:22.416306,81,2025-11-07 12:37:25.216509462
2025-11-07 12:37:22.416306,19456,2025-11-07 12:37:25.224201769
2025-11-07 12:37:22.416306,0,2025-11-07 12:37:25.231894077
2025-11-07 12:37:22.416306,85,2025-11-07 12:37:25.239586385
2025-11-07 12:37:22.416306,21248,2025-11-07 12:37:25.247278692
2025-11-07 12:37:22.416306,0,2025-11-07 12:37:25.254971000
2025-11-07 12:37:22.416306,76,2025-11-07 12:37:25.262663308
2025-11-07 12:37:22.416306,19968,2025-11-07 12:37:25.270355615
2025-11-07 12:37:22.416306,0,2025-11-07 12:37:25.278047923
2025-11-07 12:37:22.416306,81,2025-11-07 12:37:25.285740231
2025-11-07 12:37:22.416306,13312,2025-11-07 12:37:25.293432538
2025-11-07 12:37:22.416306,0,2025-11-07 12:37:25.301124846
2025-11-07 12:37:22.416306,88,2025-11-07 12:37:25.308817154
2025-11-07 12:37:22.416306,-9472,2025-11-07 12:37:25.316509462
2025-11-07 12:37:22.416306,1,2025-11-07 12:37:25.324201769
2025-11-07 12:37:22.416306,1146,2025-11-07 12:37:25.331894077
2025-11-07 12:37:22.416306,-2560,2025-11-07 12:37:25.339586385
2025-11-07 12:37:22.416306,4,2025-11-07 12:37:25.347278692
2025-11-07 12:37:22.416306,604,2025-11-07 12:37:25.354971000
2025-11-07 12:37:22.416306,21760,2025-11-07 12:37:25.362663308
2025-11-07 12:37:22.416306,0,2025-11-07 12:37:25.370355615
2025-11-07 12:37:22.416306,97,2025-11-07 12:37:25.378047923
2025-11-07 12:37:22.416306,26880,2025-11-07 12:37:25.385740231
2025-11-07 12:37:22.416306,0,2025-11-07 12:37:25.393432538
2025-11-07 12:37:22.416306,-40,2025-11-07 12:37:25.401124846
2025-11-07 12:37:22.416306,-22273,2025-11-07 12:37:25.408817154
2025-11-07 12:37:22.416306,-1,2025-11-07 12:37:25.416509462
2025-11-07 12:37:22.416306,-57,2025-11-07 12:37:25.424201769
2025-11-07 12:37:22.416306,-16641,2025-11-07 12:37:25.431894077
2025-11-07 12:37:22.416306,-1,2025-11-07 12:37:25.439586385
2025-11-07 12:37:22.416306,-71,2025-11-07 12:37:25.447278692
2025-11-07 12:37:22.416306,-14849,2025-11-07 12:37:25.454971000
2025-11-07 12:37:22.416306,-1,2025-11-07 12:37:25.462663308
2025-11-07 12:37:22.416306,-64,2025-11-07 12:37:25.470355615
2025-11-07 12:37:22.416306,-16129,2025-11-07 12:37:25.478047923
2025-11-07 12:37:22.416306,-1,2025-11-07 12:37:25.485740230
2025-11-07 12:37:22.416306,-54,2025-11-07 12:37:25.493432538
2025-11-07 12:37:22.957819,-57,2025-11-07 12:37:25.501124846
2025-11-07 12:37:22.957819,-16129,2025-11-07 12:37:25.508817154
2025-11-07 12:37:22.957819,-1,2025-11-07 12:37:25.516509462
2025-11-07 12:37:22.957819,-50,2025-11-07 12:37:25.524201769
2025-11-07 12:37:22.957819,-8705,2025-11-07 12:37:25.531894077
2025-11-07 12:37:22.957819,-1,2025-11-07 12:37:25.539586385
2025-11-07 12:37:22.957819,-31,2025-11-07 12:37:25.547278692
2025-11-07 12:37:22.957819,-6913,2025-11-07 12:37:25.554971000
2025-11-07 12:37:22.957819,-1,2025-11-07 12:37:25.562663308
2025-11-07 12:37:22.957819,-31,2025-11-07 12:37:25.570355615
2025-11-07 12:37:22.957819,-8193,2025-11-07 12:37:25.578047923
2025-11-07 12:37:22.957819,-1,2025-11-07 12:37:25.585740231
2025-11-07 12:37:22.957819,-28,2025-11-07 12:37:25.593432538
2025-11-07 12:37:22.957819,-2561,2025-11-07 12:37:25.601124846
2025-11-07 12:37:22.957819,-1,2025-11-07 12:37:25.608817154
2025-11-07 12:37:22.957819,7,2025-11-07 12:37:25.616509462
2025-11-07 12:37:22.957819,2816,2025-11-07 12:37:25.624201769
2025-11-07 12:37:22.957819,0,2025-11-07 12:37:25.631894077
2025-11-07 12:37:22.957819,11,2025-11-07 12:37:25.639586385
2025-11-07 12:37:22.957819,4864,2025-11-07 12:37:25.647278692
2025-11-07 12:37:22.957819,0,2025-11-07 12:37:25.654971000
2025-11-07 12:37:22.957819,38,2025-11-07 12:37:25.662663308
2025-11-07 12:37:22.957819,14592,2025-11-07 12:37:25.670355615
2025-11-07 12:37:22.957819,0,2025-11-07 12:37:25.678047923
2025-11-07 12:37:22.957819,66,2025-11-07 12:37:25.685740231
2025-11-07 12:37:22.957819,16896,2025-11-07 12:37:25.693432538
2025-11-07 12:37:22.957819,0,2025-11-07 12:37:25.701124846
2025-11-07 12:37:22.957819,71,2025-11-07 12:37:25.708817154
2025-11-07 12:37:22.957819,21248,2025-11-07 12:37:25.716509462
2025-11-07 12:37:22.957819,0,2025-11-07 12:37:25.724201769
2025-11-07 12:37:22.957819,85,2025-11-07 12:37:25.731894077
2025-11-07 12:37:22.957819,19968,2025-11-07 12:37:25.739586385
2025-11-07 12:37:22.957819,0,2025-11-07 12:37:25.747278692
2025-11-07 12:37:22.957819,78,2025-11-07 12:37:25.754971000
2025-11-07 12:37:22.957819,21760,2025-11-07 12:37:25.762663308
2025-11-07 12:37:22.957819,0,2025-11-07 12:37:25.770355615
2025-11-07 12:37:22.957819,83,2025-11-07 12:37:25.778047923
2025-11-07 12:37:22.957819,19968,2025-11-07 12:37:25.785740231
2025-11-07 12:37:22.957819,0,2025-11-07 12:37:25.793432538
2025-11-07 12:37:22.957819,76,2025-11-07 12:37:25.801124846
2025-11-07 12:37:22.957819,19968,2025-11-07 12:37:25.808817154
2025-11-07 12:37:22.957819,0,2025-11-07 12:37:25.816509462
2025-11-07 12:37:22.957819,78,2025-11-07 12:37:25.824201769
2025-11-07 12:37:22.957819,21248,2025-11-07 12:37:25.831894077
2025-11-07 12:37:22.957819,0,2025-11-07 12:37:25.839586385
2025-11-07 12:37:22.957819,81,2025-11-07 12:37:25.847278692
2025-11-07 12:37:22.957819,18176,2025-11-07 12:37:25.854971000
2025-11-07 12:37:22.957819,0,2025-11-07 12:37:25.862663308
2025-11-07 12:37:22.957819,66,2025-11-07 12:37:25.870355615
2025-11-07 12:37:22.957819,17664,2025-11-07 12:37:25.878047923
2025-11-07 12:37:22.957819,0,2025-11-07 12:37:25.885740231
2025-11-07 12:37:22.957819,69,2025-11-07 12:37:25.893432538
2025-11-07 12:37:22.957819,16384,2025-11-07 12:37:25.901124846
2025-11-07 12:37:22.957819,0,2025-11-07 12:37:25.908817154
2025-11-07 12:37:22.957819,59,2025-11-07 12:37:25.916509462
2025-11-07 12:37:22.957819,15104,2025-11-07 12:37:25.924201769
2025-11-07 12:37:22.957819,0,2025-11-07 12:37:25.931894077
2025-11-07 12:37:22.957819,64,2025-11-07 12:37:25.939586385
2025-11-07 12:37:22.957819,15104,2025-11-07 12:37:25.947278692
2025-11-07 12:37:22.957819,0,2025-11-07 12:37:25.954971000
2025-11-07 12:37:22.957819,57,2025-11-07 12:37:25.962663308
2025-11-07 12:37:22.957819,16896,2025-11-07 12:37:25.970355615
2025-11-07 12:37:22.957819,0,2025-11-07 12:37:25.978047923
2025-11-07 12:37:22.957819,64,2025-11-07 12:37:25.985740231
2025-11-07 12:37:22.957819,13824,2025-11-07 12:37:25.993432538
2025-11-07 12:37:22.957819,0,2025-11-07 12:37:26.001124846
2025-11-07 12:37:22.957819,54,2025-11-07 12:37:26.008817154
2025-11-07 12:37:22.957819,15104,2025-11-07 12:37:26.016509462
2025-11-07 12:37:22.957819,0,2025-11-07 12:37:26.024201769
2025-11-07 12:37:22.957819,57,2025-11-07 12:37:26.031894077
2025-11-07 12:37:22.957819,13824,2025-11-07 12:37:26.039586385
2025-11-07 12:37:22.957819,0,2025-11-07 12:37:26.047278692
2025-11-07 12:37:22.957819,54,2025-11-07 12:37:26.054971000
2025-11-07 12:37:22.957819,13312,2025-11-07 12:37:26.062663308
2025-11-07 12:37:22.957819,0,2025-11-07 12:37:26.070355615
2025-11-07 12:37:22.957819,52,2025-11-07 12:37:26.078047923
2025-11-07 12:37:22.957819,14592,2025-11-07 12:37:26.085740231
2025-11-07 12:37:22.957819,0,2025-11-07 12:37:26.093432538
2025-11-07 12:37:22.957819,54,2025-11-07 12:37:26.101124846
2025-11-07 12:37:22.957819,14592,2025-11-07 12:37:26.108817154
2025-11-07 12:37:22.957819,0,2025-11-07 12:37:26.116509462
2025-11-07 12:37:22.957819,59,2025-11-07 12:37:26.124201769
2025-11-07 12:37:22.957819,15104,2025-11-07 12:37:26.131894077
2025-11-07 12:37:22.957819,0,2025-11-07 12:37:26.139586385
2025-11-07 12:37:22.957819,54,2025-11-07 12:37:26.147278692
2025-11-07 12:37:22.957819,10752,2025-11-07 12:37:26.154971000
2025-11-07 12:37:22.957819,0,2025-11-07 12:37:26.162663308
2025-11-07 12:37:22.957819,35,2025-11-07 12:37:26.170355615
2025-11-07 12:37:22.957819,8448,2025-11-07 12:37:26.178047923
2025-11-07 12:37:22.957819,0,2025-11-07 12:37:26.185740231
2025-11-07 12:37:22.957819,33,2025-11-07 12:37:26.193432538
2025-11-07 12:37:22.957819,12800,2025-11-07 12:37:26.201124846
2025-11-07 12:37:22.957819,0,2025-11-07 12:37:26.208817154
2025-11-07 12:37:22.957819,71,2025-11-07 12:37:26.216509462
2025-11-07 12:37:22.957819,17664,2025-11-07 12:37:26.224201769
2025-11-07 12:37:22.957819,0,2025-11-07 12:37:26.231894077
2025-11-07 12:37:22.957819,57,2025-11-07 12:37:26.239586385
2025-11-07 12:37:22.957819,15104,2025-11-07 12:37:26.247278692
2025-11-07 12:37:22.957819,0,2025-11-07 12:37:26.254971000
2025-11-07 12:37:22.957819,57,2025-11-07 12:37:26.262663308
2025-11-07 12:37:22.957819,10752,2025-11-07 12:37:26.270355615
2025-11-07 12:37:22.957819,0,2025-11-07 12:37:26.278047923
2025-11-07 12:37:22.957819,40,2025-11-07 12:37:26.285740231
2025-11-07 12:37:22.957819,10752,2025-11-07 12:37:26.293432538
2025-11-07 12:37:22.957819,0,2025-11-07 12:37:26.301124846
2025-11-07 12:37:22.957819,42,2025-11-07 12:37:26.308817154
2025-11-07 12:37:22.957819,10752,2025-11-07 12:37:26.316509462
2025-11-07 12:37:22.957819,0,2025-11-07 12:37:26.324201769
2025-11-07 12:37:22.957819,40,2025-11-07 12:37:26.331894077
2025-11-07 12:37:23.496774,35,2025-11-07 12:37:26.339586385
2025-11-07 12:37:23.496774,8960,2025-11-07 12:37:26.347278692
2025-11-07 12:37:23.496774,0,2025-11-07 12:37:26.354971000
2025-11-07 12:37:23.496774,38,2025-11-07 12:37:26.362663308
2025-11-07 12:37:23.496774,9728,2025-11-07 12:37:26.370355615
2025-11-07 12:37:23.496774,0,2025-11-07 12:37:26.378047923
2025-11-07 12:37:23.496774,35,2025-11-07 12:37:26.385740231
2025-11-07 12:37:23.496774,8448,2025-11-07 12:37:26.393432538
2025-11-07 12:37:23.496774,0,2025-11-07 12:37:26.401124846
2025-11-07 12:37:23.496774,31,2025-11-07 12:37:26.408817154
2025-11-07 12:37:23.496774,2304,2025-11-07 12:37:26.416509462
2025-11-07 12:37:23.496774,0,2025-11-07 12:37:26.424201769
2025-11-07 12:37:23.496774,90,2025-11-07 12:37:26.431894077
2025-11-07 12:37:23.496774,19200,2025-11-07 12:37:26.439586385
2025-11-07 12:37:23.496774,2,2025-11-07 12:37:26.447278692
2025-11-07 12:37:23.496774,1234,2025-11-07 12:37:26.454971000
2025-11-07 12:37:23.496774,28160,2025-11-07 12:37:26.462663308
2025-11-07 12:37:23.496774,4,2025-11-07 12:37:26.470355615
2025-11-07 12:37:23.496774,382,2025-11-07 12:37:26.478047923
2025-11-07 12:37:23.496774,-512,2025-11-07 12:37:26.485740230
2025-11-07 12:37:23.496774,-1,2025-11-07 12:37:26.493432538
2025-11-07 12:37:23.496774,59,2025-11-07 12:37:26.501124846
2025-11-07 12:37:23.496774,1792,2025-11-07 12:37:26.508817154
2025-11-07 12:37:23.496774,0,2025-11-07 12:37:26.516509462
2025-11-07 12:37:23.496774,-133,2025-11-07 12:37:26.524201769
2025-11-07 12:37:23.496774,27903,2025-11-07 12:37:26.531894077
2025-11-07 12:37:23.496774,-1,2025-11-07 12:37:26.539586385
2025-11-07 12:37:23.496774,-121,2025-11-07 12:37:26.547278692
2025-11-07 12:37:23.496774,29183,2025-11-07 12:37:26.554971000
2025-11-07 12:37:23.496774,-1,2025-11-07 12:37:26.562663308
2025-11-07 12:37:23.496774,-148,2025-11-07 12:37:26.570355615
2025-11-07 12:37:23.496774,-32001,2025-11-07 12:37:26.578047923
2025-11-07 12:37:23.496774,-1,2025-11-07 12:37:26.585740231
2025-11-07 12:37:23.496774,-124,2025-11-07 12:37:26.593432538
2025-11-07 12:37:23.496774,-32513,2025-11-07 12:37:26.601124846
2025-11-07 12:37:23.496774,-1,2025-11-07 12:37:26.608817154
2025-11-07 12:37:23.496774,-126,2025-11-07 12:37:26.616509462
2025-11-07 12:37:23.496774,-32513,2025-11-07 12:37:26.624201769
2025-11-07 12:37:23.496774,-1,2025-11-07 12:37:26.631894077
2025-11-07 12:37:23.496774,-131,2025-11-07 12:37:26.639586385
2025-11-07 12:37:23.496774,31743,2025-11-07 12:37:26.647278692
2025-11-07 12:37:23.496774,-1,2025-11-07 12:37:26.654971000
2025-11-07 12:37:23.496774,-136,2025-11-07 12:37:26.662663308
2025-11-07 12:37:23.496774,30975,2025-11-07 12:37:26.670355615
2025-11-07 12:37:23.496774,-1,2025-11-07 12:37:26.678047923
2025-11-07 12:37:23.496774,-133,2025-11-07 12:37:26.685740231
2025-11-07 12:37:23.496774,30975,2025-11-07 12:37:26.693432538
2025-11-07 12:37:23.496774,-1,2025-11-07 12:37:26.701124846
2025-11-07 12:37:23.496774,-138,2025-11-07 12:37:26.708817154
2025-11-07 12:37:23.496774,30463,2025-11-07 12:37:26.716509462
2025-11-07 12:37:23.496774,-1,2025-11-07 12:37:26.724201769
2025-11-07 12:37:23.496774,-133,2025-11-07 12:37:26.731894077
2025-11-07 12:37:23.496774,-31489,2025-11-07 12:37:26.739586385
2025-11-07 12:37:23.496774,-1,2025-11-07 12:37:26.747278692
2025-11-07 12:37:23.496774,-117,2025-11-07 12:37:26.754971000
2025-11-07 12:37:23.496774,-27137,2025-11-07 12:37:26.762663308
2025-11-07 12:37:23.496774,-1,2025-11-07 12:37:26.770355615
2025-11-07 12:37:23.496774,-97,2025-11-07 12:37:26.778047923
2025-11-07 12:37:23.496774,-19713,2025-11-07 12:37:26.785740231
2025-11-07 12:37:23.496774,-1,2025-11-07 12:37:26.793432538
2025-11-07 12:37:23.496774,-54,2025-11-07 12:37:26.801124846
2025-11-07 12:37:23.496774,-10497,2025-11-07 12:37:26.808817154
2025-11-07 12:37:23.496774,-1,2025-11-07 12:37:26.816509462
2025-11-07 12:37:23.496774,-42,2025-11-07 12:37:26.824201769
2025-11-07 12:37:23.496774,-9473,2025-11-07 12:37:26.831894077
2025-11-07 12:37:23.496774,-1,2025-11-07 12:37:26.839586385
2025-11-07 12:37:23.496774,-33,2025-11-07 12:37:26.847278692
2025-11-07 12:37:23.496774,-8705,2025-11-07 12:37:26.854971000
2025-11-07 12:37:23.496774,-1,2025-11-07 12:37:26.862663308
2025-11-07 12:37:23.496774,-38,2025-11-07 12:37:26.870355615
2025-11-07 12:37:23.496774,-11265,2025-11-07 12:37:26.878047923
2025-11-07 12:37:23.496774,-1,2025-11-07 12:37:26.885740231
2025-11-07 12:37:23.496774,-57,2025-11-07 12:37:26.893432538
2025-11-07 12:37:23.496774,-14337,2025-11-07 12:37:26.901124846
2025-11-07 12:37:23.496774,-1,2025-11-07 12:37:26.908817154
2025-11-07 12:37:23.496774,-57,2025-11-07 12:37:26.916509462
2025-11-07 12:37:23.496774,-16129,2025-11-07 12:37:26.924201769
2025-11-07 12:37:23.496774,-1,2025-11-07 12:37:26.931894077
2025-11-07 12:37:23.496774,-66,2025-11-07 12:37:26.939586385
2025-11-07 12:37:23.496774,-15617,2025-11-07 12:37:26.947278692
2025-11-07 12:37:23.496774,-1,2025-11-07 12:37:26.954971000
2025-11-07 12:37:23.496774,-66,2025-11-07 12:37:26.962663308
2025-11-07 12:37:23.496774,-19713,2025-11-07 12:37:26.970355615
2025-11-07 12:37:23.496774,-1,2025-11-07 12:37:26.978047923
2025-11-07 12:37:23.496774,-81,2025-11-07 12:37:26.985740231
2025-11-07 12:37:23.496774,-20993,2025-11-07 12:37:26.993432538
2025-11-07 12:37:23.496774,-1,2025-11-07 12:37:27.001124846
2025-11-07 12:37:23.496774,-85,2025-11-07 12:37:27.008817154
2025-11-07 12:37:23.496774,-22273,2025-11-07 12:37:27.016509462
2025-11-07 12:37:23.496774,-1,2025-11-07 12:37:27.024201769
2025-11-07 12:37:23.496774,-93,2025-11-07 12:37:27.031894077
2025-11-07 12:37:23.496774,-25857,2025-11-07 12:37:27.039586385
2025-11-07 12:37:23.496774,-1,2025-11-07 12:37:27.047278692
2025-11-07 12:37:23.496774,-107,2025-11-07 12:37:27.054971000
2025-11-07 12:37:23.496774,-25857,2025-11-07 12:37:27.062663308
2025-11-07 12:37:23.496774,-1,2025-11-07 12:37:27.070355615
2025-11-07 12:37:23.496774,-97,2025-11-07 12:37:27.078047923
2025-11-07 12:37:23.496774,-25857,2025-11-07 12:37:27.085740231
2025-11-07 12:37:23.496774,-1,2025-11-07 12:37:27.093432538
2025-11-07 12:37:23.496774,-109,2025-11-07 12:37:27.101124846
2025-11-07 12:37:23.496774,-28417,2025-11-07 12:37:27.108817154
2025-11-07 12:37:23.496774,-1,2025-11-07 12:37:27.116509462
2025-11-07 12:37:23.496774,-117,2025-11-07 12:37:27.124201769
2025-11-07 12:37:23.496774,-30209,2025-11-07 12:37:27.131894077
2025-11-07 12:37:23.496774,-1,2025-11-07 12:37:27.139586385
2025-11-07 12:37:23.496774,-119,2025-11-07 12:37:27.147278692
2025-11-07 12:37:23.496774,-29697,2025-11-07 12:37:27.154971000
2025-11-07 12:37:23.496774,-1,2025-11-07 12:37:27.162663308
2025-11-07 12:37:23.496774,-124,2025-11-07 12:37:27.170355615
2025-11-07 12:37:24.126679,-124,2025-11-07 12:37:27.178047923
2025-11-07 12:37:24.126679,-32001,2025-11-07 12:37:27.185740231
2025-11-07 12:37:24.126679,-1,2025-11-07 12:37:27.193432538
2025-11-07 12:37:24.126679,-131,2025-11-07 12:37:27.201124846
2025-11-07 12:37:24.126679,-31489,2025-11-07 12:37:27.208817154
2025-11-07 12:37:24.126679,-1,2025-11-07 12:37:27.216509462
2025-11-07 12:37:24.126679,-107,2025-11-07 12:37:27.224201769
2025-11-07 12:37:24.126679,-28929,2025-11-07 12:37:27.231894077
2025-11-07 12:37:24.126679,-1,2025-11-07 12:37:27.239586385
2025-11-07 12:37:24.126679,-128,2025-11-07 12:37:27.247278692
2025-11-07 12:37:24.126679,-32513,2025-11-07 12:37:27.254971000
2025-11-07 12:37:24.126679,-1,2025-11-07 12:37:27.262663308
2025-11-07 12:37:24.126679,-131,2025-11-07 12:37:27.270355615
2025-11-07 12:37:24.126679,29951,2025-11-07 12:37:27.278047923
2025-11-07 12:37:24.126679,-1,2025-11-07 12:37:27.285740231
2025-11-07 12:37:24.126679,-145,2025-11-07 12:37:27.293432538
2025-11-07 12:37:24.126679,28671,2025-11-07 12:37:27.301124846
2025-11-07 12:37:24.126679,-1,2025-11-07 12:37:27.308817154
2025-11-07 12:37:24.126679,-148,2025-11-07 12:37:27.316509462
2025-11-07 12:37:24.126679,27391,2025-11-07 12:37:27.324201769
2025-11-07 12:37:24.126679,-1,2025-11-07 12:37:27.331894077
2025-11-07 12:37:24.126679,-150,2025-11-07 12:37:27.339586385
2025-11-07 12:37:24.126679,26879,2025-11-07 12:37:27.347278692
2025-11-07 12:37:24.126679,-1,2025-11-07 12:37:27.354971000
2025-11-07 12:37:24.126679,-152,2025-11-07 12:37:27.362663308
2025-11-07 12:37:24.126679,25599,2025-11-07 12:37:27.370355615
2025-11-07 12:37:24.126679,-1,2025-11-07 12:37:27.378047923
2025-11-07 12:37:24.126679,-169,2025-11-07 12:37:27.385740231
2025-11-07 12:37:24.126679,19455,2025-11-07 12:37:27.393432538
2025-11-07 12:37:24.126679,-1,2025-11-07 12:37:27.401124846
2025-11-07 12:37:24.126679,-186,2025-11-07 12:37:27.408817154
2025-11-07 12:37:24.126679,19967,2025-11-07 12:37:27.416509462
2025-11-07 12:37:24.126679,-1,2025-11-07 12:37:27.424201769
2025-11-07 12:37:24.126679,-183,2025-11-07 12:37:27.431894077
2025-11-07 12:37:24.126679,15871,2025-11-07 12:37:27.439586385
2025-11-07 12:37:24.126679,-1,2025-11-07 12:37:27.447278692
2025-11-07 12:37:24.126679,-207,2025-11-07 12:37:27.454971000
2025-11-07 12:37:24.126679,9727,2025-11-07 12:37:27.462663308
2025-11-07 12:37:24.126679,-1,2025-11-07 12:37:27.470355615
2025-11-07 12:37:24.126679,-224,2025-11-07 12:37:27.478047923
2025-11-07 12:37:24.126679,11519,2025-11-07 12:37:27.485740230
2025-11-07 12:37:24.126679,-1,2025-11-07 12:37:27.493432538
2025-11-07 12:37:24.126679,-195,2025-11-07 12:37:27.501124846
2025-11-07 12:37:24.126679,15871,2025-11-07 12:37:27.508817154
2025-11-07 12:37:24.126679,-1,2025-11-07 12:37:27.516509462
2025-11-07 12:37:24.126679,-205,2025-11-07 12:37:27.524201769
2025-11-07 12:37:24.126679,13311,2025-11-07 12:37:27.531894077
2025-11-07 12:37:24.126679,-1,2025-11-07 12:37:27.539586385
2025-11-07 12:37:24.126679,-207,2025-11-07 12:37:27.547278692
2025-11-07 12:37:24.126679,11007,2025-11-07 12:37:27.554971000
2025-11-07 12:37:24.126679,-1,2025-11-07 12:37:27.562663308
2025-11-07 12:37:24.126679,-226,2025-11-07 12:37:27.570355615
2025-11-07 12:37:24.126679,6655,2025-11-07 12:37:27.578047923
2025-11-07 12:37:24.126679,-1,2025-11-07 12:37:27.585740231
2025-11-07 12:37:24.126679,-229,2025-11-07 12:37:27.593432538
2025-11-07 12:37:24.126679,7167,2025-11-07 12:37:27.601124846
2025-11-07 12:37:24.126679,-1,2025-11-07 12:37:27.608817154
2025-11-07 12:37:24.126679,-229,2025-11-07 12:37:27.616509462
2025-11-07 12:37:24.126679,8959,2025-11-07 12:37:27.624201769
2025-11-07 12:37:24.126679,-1,2025-11-07 12:37:27.631894077
2025-11-07 12:37:24.126679,-214,2025-11-07 12:37:27.639586385
2025-11-07 12:37:24.126679,12031,2025-11-07 12:37:27.647278692
2025-11-07 12:37:24.126679,-1,2025-11-07 12:37:27.654971000
2025-11-07 12:37:24.126679,-212,2025-11-07 12:37:27.662663308
2025-11-07 12:37:24.126679,11007,2025-11-07 12:37:27.670355615
2025-11-07 12:37:24.126679,-1,2025-11-07 12:37:27.678047923
2025-11-07 12:37:24.126679,-219,2025-11-07 12:37:27.685740231
2025-11-07 12:37:24.126679,4863,2025-11-07 12:37:27.693432538
2025-11-07 12:37:24.126679,-1,2025-11-07 12:37:27.701124846
2025-11-07 12:37:24.126679,-272,2025-11-07 12:37:27.708817154
2025-11-07 12:37:24.126679,-28417,2025-11-07 12:37:27.716509462
2025-11-07 12:37:24.126679,-1,2025-11-07 12:37:27.724201769
2025-11-07 12:37:24.126679,515,2025-11-07 12:37:27.731894077
2025-11-07 12:37:24.126679,18944,2025-11-07 12:37:27.739586385
2025-11-07 12:37:24.126679,4,2025-11-07 12:37:27.747278692
2025-11-07 12:37:24.126679,788,2025-11-07 12:37:27.754971000
2025-11-07 12:37:24.126679,512,2025-11-07 12:37:27.762663308
2025-11-07 12:37:24.126679,0,2025-11-07 12:37:27.770355615
2025-11-07 12:37:24.126679,-293,2025-11-07 12:37:27.778047923
2025-11-07 12:37:24.126679,7935,2025-11-07 12:37:27.785740231
2025-11-07 12:37:24.126679,-1,2025-11-07 12:37:27.793432538
2025-11-07 12:37:24.126679,-310,2025-11-07 12:37:27.801124846
2025-11-07 12:37:24.126679,20735,2025-11-07 12:37:27.808817154
2025-11-07 12:37:24.126679,-2,2025-11-07 12:37:27.816509462
2025-11-07 12:37:24.126679,-415,2025-11-07 12:37:27.824201769
2025-11-07 12:37:24.126679,31231,2025-11-07 12:37:27.831894077
2025-11-07 12:37:24.126679,-2,2025-11-07 12:37:27.839586385
2025-11-07 12:37:24.126679,-410,2025-11-07 12:37:27.847278692
2025-11-07 12:37:24.126679,28671,2025-11-07 12:37:27.854971000
2025-11-07 12:37:24.126679,-2,2025-11-07 12:37:27.862663308
2025-11-07 12:37:24.126679,-389,2025-11-07 12:37:27.870355615
2025-11-07 12:37:24.126679,28159,2025-11-07 12:37:27.878047923
2025-11-07 12:37:24.126679,-2,2025-11-07 12:37:27.885740231
2025-11-07 12:37:24.126679,-403,2025-11-07 12:37:27.893432538
2025-11-07 12:37:24.126679,31231,2025-11-07 12:37:27.901124846
2025-11-07 12:37:24.126679,-2,2025-11-07 12:37:27.908817154
2025-11-07 12:37:24.126679,-389,2025-11-07 12:37:27.916509462
2025-11-07 12:37:24.126679,31231,2025-11-07 12:37:27.924201769
2025-11-07 12:37:24.126679,-2,2025-11-07 12:37:27.931894077
2025-11-07 12:37:24.126679,-384,2025-11-07 12:37:27.939586385
2025-11-07 12:37:24.126679,-30721,2025-11-07 12:37:27.947278692
2025-11-07 12:37:24.126679,-2,2025-11-07 12:37:27.954971000
2025-11-07 12:37:24.126679,-377,2025-11-07 12:37:27.962663308
2025-11-07 12:37:24.126679,-30721,2025-11-07 12:37:27.970355615
2025-11-07 12:37:24.126679,-2,2025-11-07 12:37:27.978047923
2025-11-07 12:37:24.126679,-372,2025-11-07 12:37:27.985740231
2025-11-07 12:37:24.126679,-28929,2025-11-07 12:37:27.993432538
2025-11-07 12:37:24.126679,-2,2025-11-07 12:37:28.001124846
2025-11-07 12:37:24.126679,-367,2025-11-07 12:37:28.008817154
2025-11-07 12:37:24.667502,-358,2025-11-07 12:37:28.016509462
2025-11-07 12:37:24.667502,-22017,2025-11-07 12:37:28.024201769
2025-11-07 12:37:24.667502,-2,2025-11-07 12:37:28.031894077
2025-11-07 12:37:24.667502,-332,2025-11-07 12:37:28.039586385
2025-11-07 12:37:24.667502,-16641,2025-11-07 12:37:28.047278692
2025-11-07 12:37:24.667502,-2,2025-11-07 12:37:28.054971000
2025-11-07 12:37:24.667502,-305,2025-11-07 12:37:28.062663308
2025-11-07 12:37:24.667502,-5121,2025-11-07 12:37:28.070355615
2025-11-07 12:37:24.667502,-2,2025-11-07 12:37:28.078047923
2025-11-07 12:37:24.667502,-248,2025-11-07 12:37:28.085740231
2025-11-07 12:37:24.667502,5375,2025-11-07 12:37:28.093432538
2025-11-07 12:37:24.667502,-1,2025-11-07 12:37:28.101124846
2025-11-07 12:37:24.667502,-226,2025-11-07 12:37:28.108817154
2025-11-07 12:37:24.667502,10239,2025-11-07 12:37:28.116509462
2025-11-07 12:37:24.667502,-1,2025-11-07 12:37:28.124201769
2025-11-07 12:37:24.667502,-217,2025-11-07 12:37:28.131894077
2025-11-07 12:37:24.667502,11007,2025-11-07 12:37:28.139586385
2025-11-07 12:37:24.667502,-1,2025-11-07 12:37:28.147278692
2025-11-07 12:37:24.667502,-203,2025-11-07 12:37:28.154971000
2025-11-07 12:37:24.667502,18175,2025-11-07 12:37:28.162663308
2025-11-07 12:37:24.667502,-1,2025-11-07 12:37:28.170355615
2025-11-07 12:37:24.667502,-174,2025-11-07 12:37:28.178047923
2025-11-07 12:37:24.667502,22527,2025-11-07 12:37:28.185740231
2025-11-07 12:37:24.667502,-1,2025-11-07 12:37:28.193432538
2025-11-07 12:37:24.667502,-169,2025-11-07 12:37:28.201124846
2025-11-07 12:37:24.667502,23039,2025-11-07 12:37:28.208817154
2025-11-07 12:37:24.667502,-1,2025-11-07 12:37:28.216509462
2025-11-07 12:37:24.667502,-157,2025-11-07 12:37:28.224201769
2025-11-07 12:37:24.667502,26879,2025-11-07 12:37:28.231894077
2025-11-07 12:37:24.667502,-1,2025-11-07 12:37:28.239586385
2025-11-07 12:37:24.667502,-157,2025-11-07 12:37:28.247278692
2025-11-07 12:37:24.667502,24831,2025-11-07 12:37:28.254971000
2025-11-07 12:37:24.667502,-1,2025-11-07 12:37:28.262663308
2025-11-07 12:37:24.667502,-155,2025-11-07 12:37:28.270355615
2025-11-07 12:37:24.667502,27391,2025-11-07 12:37:28.278047923
2025-11-07 12:37:24.667502,-1,2025-11-07 12:37:28.285740231
2025-11-07 12:37:24.667502,-155,2025-11-07 12:37:28.293432538
2025-11-07 12:37:24.667502,25599,2025-11-07 12:37:28.301124846
2025-11-07 12:37:24.667502,-1,2025-11-07 12:37:28.308817154
2025-11-07 12:37:24.667502,-148,2025-11-07 12:37:28.316509462
2025-11-07 12:37:24.667502,30975,2025-11-07 12:37:28.324201769
2025-11-07 12:37:24.667502,-1,2025-11-07 12:37:28.331894077
2025-11-07 12:37:24.667502,-133,2025-11-07 12:37:28.339586385
2025-11-07 12:37:24.667502,30975,2025-11-07 12:37:28.347278692
2025-11-07 12:37:24.667502,-1,2025-11-07 12:37:28.354971000
2025-11-07 12:37:24.667502,-131,2025-11-07 12:37:28.362663308
2025-11-07 12:37:24.667502,-30721,2025-11-07 12:37:28.370355615
2025-11-07 12:37:24.667502,-1,2025-11-07 12:37:28.378047923
2025-11-07 12:37:24.667502,-112,2025-11-07 12:37:28.385740231
2025-11-07 12:37:24.667502,-25857,2025-11-07 12:37:28.393432538
2025-11-07 12:37:24.667502,-1,2025-11-07 12:37:28.401124846
2025-11-07 12:37:24.667502,-97,2025-11-07 12:37:28.408817154
2025-11-07 12:37:24.667502,-24065,2025-11-07 12:37:28.416509462
2025-11-07 12:37:24.667502,-1,2025-11-07 12:37:28.424201769
2025-11-07 12:37:24.667502,-85,2025-11-07 12:37:28.431894077
2025-11-07 12:37:24.667502,-19713,2025-11-07 12:37:28.439586385
2025-11-07 12:37:24.667502,-1,2025-11-07 12:37:28.447278692
2025-11-07 12:37:24.667502,-78,2025-11-07 12:37:28.454971000
2025-11-07 12:37:24.667502,-19713,2025-11-07 12:37:28.462663308
2025-11-07 12:37:24.667502,-1,2025-11-07 12:37:28.470355615
2025-11-07 12:37:24.667502,-76,2025-11-07 12:37:28.478047923
2025-11-07 12:37:24.667502,-17921,2025-11-07 12:37:28.485740230
2025-11-07 12:37:24.667502,-1,2025-11-07 12:37:28.493432538
2025-11-07 12:37:24.667502,-71,2025-11-07 12:37:28.501124846
2025-11-07 12:37:24.667502,-17921,2025-11-07 12:37:28.508817154
2025-11-07 12:37:24.667502,-1,2025-11-07 12:37:28.516509462
2025-11-07 12:37:24.667502,-71,2025-11-07 12:37:28.524201769
2025-11-07 12:37:24.667502,-17409,2025-11-07 12:37:28.531894077
2025-11-07 12:37:24.667502,-1,2025-11-07 12:37:28.539586385
2025-11-07 12:37:24.667502,-69,2025-11-07 12:37:28.547278692
2025-11-07 12:37:24.667502,-17409,2025-11-07 12:37:28.554971000
2025-11-07 12:37:24.667502,-1,2025-11-07 12:37:28.562663308
2025-11-07 12:37:24.667502,-64,2025-11-07 12:37:28.570355615
2025-11-07 12:37:24.667502,-13057,2025-11-07 12:37:28.578047923
2025-11-07 12:37:24.667502,-1,2025-11-07 12:37:28.585740231
2025-11-07 12:37:24.667502,-42,2025-11-07 12:37:28.593432538
2025-11-07 12:37:24.667502,-9985,2025-11-07 12:37:28.601124846
2025-11-07 12:37:24.667502,-1,2025-11-07 12:37:28.608817154
2025-11-07 12:37:24.667502,-35,2025-11-07 12:37:28.616509462
2025-11-07 12:37:24.667502,-5633,2025-11-07 12:37:28.624201769
2025-11-07 12:37:24.667502,-1,2025-11-07 12:37:28.631894077
2025-11-07 12:37:24.667502,-21,2025-11-07 12:37:28.639586385
2025-11-07 12:37:24.667502,-3841,2025-11-07 12:37:28.647278692
2025-11-07 12:37:24.667502,-1,2025-11-07 12:37:28.654971000
2025-11-07 12:37:24.667502,-7,2025-11-07 12:37:28.662663308
2025-11-07 12:37:24.667502,-769,2025-11-07 12:37:28.670355615
2025-11-07 12:37:24.667502,-1,2025-11-07 12:37:28.678047923
2025-11-07 12:37:24.667502,2,2025-11-07 12:37:28.685740231
2025-11-07 12:37:24.667502,4096,2025-11-07 12:37:28.693432538
2025-11-07 12:37:24.667502,0,2025-11-07 12:37:28.701124846
2025-11-07 12:37:24.667502,26,2025-11-07 12:37:28.708817154
2025-11-07 12:37:24.667502,7168,2025-11-07 12:37:28.716509462
2025-11-07 12:37:24.667502,0,2025-11-07 12:37:28.724201769
2025-11-07 12:37:24.667502,35,2025-11-07 12:37:28.731894077
2025-11-07 12:37:24.667502,9728,2025-11-07 12:37:28.739586385
2025-11-07 12:37:24.667502,0,2025-11-07 12:37:28.747278692
2025-11-07 12:37:24.667502,33,2025-11-07 12:37:28.754971000
2025-11-07 12:37:24.667502,8960,2025-11-07 12:37:28.762663308
2025-11-07 12:37:24.667502,0,2025-11-07 12:37:28.770355615
2025-11-07 12:37:24.667502,45,2025-11-07 12:37:28.778047923
2025-11-07 12:37:24.667502,10752,2025-11-07 12:37:28.785740231
2025-11-07 12:37:24.667502,0,2025-11-07 12:37:28.793432538
2025-11-07 12:37:24.667502,38,2025-11-07 12:37:28.801124846
2025-11-07 12:37:24.667502,11520,2025-11-07 12:37:28.808817154
2025-11-07 12:37:24.667502,0,2025-11-07 12:37:28.816509462
2025-11-07 12:37:24.667502,47,2025-11-07 12:37:28.824201769
2025-11-07 12:37:24.667502,12032,2025-11-07 12:37:28.831894077
2025-11-07 12:37:24.667502,0,2025-11-07 12:37:28.839586385
2025-11-07 12:37:24.667502,47,2025-11-07 12:37:28.847278692
2025-11-07 12:37:25.251458,40,2025-11-07 12:37:28.854971000
2025-11-07 12:37:25.251458,10240,2025-11-07 12:37:28.862663308
2025-11-07 12:37:25.251458,0,2025-11-07 12:37:28.870355615
2025-11-07 12:37:25.251458,52,2025-11-07 12:37:28.878047923
2025-11-07 12:37:25.251458,18176,2025-11-07 12:37:28.885740231
2025-11-07 12:37:25.251458,0,2025-11-07 12:37:28.893432538
2025-11-07 12:37:25.251458,85,2025-11-07 12:37:28.901124846
2025-11-07 12:37:25.251458,23040,2025-11-07 12:37:28.908817154
2025-11-07 12:37:25.251458,0,2025-11-07 12:37:28.916509462
2025-11-07 12:37:25.251458,90,2025-11-07 12:37:28.924201769
2025-11-07 12:37:25.251458,24832,2025-11-07 12:37:28.931894077
2025-11-07 12:37:25.251458,0,2025-11-07 12:37:28.939586385
2025-11-07 12:37:25.251458,93,2025-11-07 12:37:28.947278692
2025-11-07 12:37:25.251458,19968,2025-11-07 12:37:28.954971000
2025-11-07 12:37:25.251458,0,2025-11-07 12:37:28.962663308
2025-11-07 12:37:25.251458,90,2025-11-07 12:37:28.970355615
2025-11-07 12:37:25.251458,28672,2025-11-07 12:37:28.978047923
2025-11-07 12:37:25.251458,0,2025-11-07 12:37:28.985740231
2025-11-07 12:37:25.251458,109,2025-11-07 12:37:28.993432538
2025-11-07 12:37:25.251458,26112,2025-11-07 12:37:29.001124846
2025-11-07 12:37:25.251458,0,2025-11-07 12:37:29.008817154
2025-11-07 12:37:25.251458,107,2025-11-07 12:37:29.016509462
2025-11-07 12:37:25.251458,28672,2025-11-07 12:37:29.024201769
2025-11-07 12:37:25.251458,0,2025-11-07 12:37:29.031894077
2025-11-07 12:37:25.251458,109,2025-11-07 12:37:29.039586385
2025-11-07 12:37:25.251458,27392,2025-11-07 12:37:29.047278692
2025-11-07 12:37:25.251458,0,2025-11-07 12:37:29.054971000
2025-11-07 12:37:25.251458,112,2025-11-07 12:37:29.062663308
2025-11-07 12:37:25.251458,28672,2025-11-07 12:37:29.070355615
2025-11-07 12:37:25.251458,0,2025-11-07 12:37:29.078047923
2025-11-07 12:37:25.251458,95,2025-11-07 12:37:29.085740231
2025-11-07 12:37:25.251458,15104,2025-11-07 12:37:29.093432538
2025-11-07 12:37:25.251458,0,2025-11-07 12:37:29.101124846
2025-11-07 12:37:25.251458,136,2025-11-07 12:37:29.108817154
2025-11-07 12:37:25.251458,29696,2025-11-07 12:37:29.116509462
2025-11-07 12:37:25.251458,2,2025-11-07 12:37:29.124201769
2025-11-07 12:37:25.251458,1335,2025-11-07 12:37:29.131894077
2025-11-07 12:37:25.251458,14592,2025-11-07 12:37:29.139586385
2025-11-07 12:37:25.251458,5,2025-11-07 12:37:29.147278692
2025-11-07 12:37:25.251458,570,2025-11-07 12:37:29.154971000
2025-11-07 12:37:25.251458,19456,2025-11-07 12:37:29.162663308
2025-11-07 12:37:25.251458,0,2025-11-07 12:37:29.170355615
2025-11-07 12:37:25.251458,114,2025-11-07 12:37:29.178047923
2025-11-07 12:37:25.251458,25600,2025-11-07 12:37:29.185740231
2025-11-07 12:37:25.251458,0,2025-11-07 12:37:29.193432538
2025-11-07 12:37:25.251458,-52,2025-11-07 12:37:29.201124846
2025-11-07 12:37:25.251458,-19713,2025-11-07 12:37:29.208817154
2025-11-07 12:37:25.251458,-1,2025-11-07 12:37:29.216509462
2025-11-07 12:37:25.251458,-35,2025-11-07 12:37:29.224201769
2025-11-07 12:37:25.251458,-12545,2025-11-07 12:37:29.231894077
2025-11-07 12:37:25.251458,-1,2025-11-07 12:37:29.239586385
2025-11-07 12:37:25.251458,-54,2025-11-07 12:37:29.247278692
2025-11-07 12:37:25.251458,-8193,2025-11-07 12:37:29.254971000
2025-11-07 12:37:25.251458,-1,2025-11-07 12:37:29.262663308
2025-11-07 12:37:25.251458,-35,2025-11-07 12:37:29.270355615
2025-11-07 12:37:25.251458,-8705,2025-11-07 12:37:29.278047923
2025-11-07 12:37:25.251458,-1,2025-11-07 12:37:29.285740231
2025-11-07 12:37:25.251458,-26,2025-11-07 12:37:29.293432538
2025-11-07 12:37:25.251458,-5121,2025-11-07 12:37:29.301124846
2025-11-07 12:37:25.251458,-1,2025-11-07 12:37:29.308817154
2025-11-07 12:37:25.251458,-21,2025-11-07 12:37:29.316509462
2025-11-07 12:37:25.251458,-3329,2025-11-07 12:37:29.324201769
2025-11-07 12:37:25.251458,-1,2025-11-07 12:37:29.331894077
2025-11-07 12:37:25.251458,-7,2025-11-07 12:37:29.339586385
2025-11-07 12:37:25.251458,-257,2025-11-07 12:37:29.347278692
2025-11-07 12:37:25.251458,-1,2025-11-07 12:37:29.354971000
2025-11-07 12:37:25.251458,4,2025-11-07 12:37:29.362663308
2025-11-07 12:37:25.251458,-1024,2025-11-07 12:37:29.370355615
2025-11-07 12:37:25.251458,-1,2025-11-07 12:37:29.378047923
2025-11-07 12:37:25.251458,-16,2025-11-07 12:37:29.385740231
2025-11-07 12:37:25.251458,-2049,2025-11-07 12:37:29.393432538
2025-11-07 12:37:25.251458,-1,2025-11-07 12:37:29.401124846
2025-11-07 12:37:25.251458,2,2025-11-07 12:37:29.408817154
2025-11-07 12:37:25.251458,4864,2025-11-07 12:37:29.416509462
2025-11-07 12:37:25.251458,0,2025-11-07 12:37:29.424201769
2025-11-07 12:37:25.251458,38,2025-11-07 12:37:29.431894077
2025-11-07 12:37:25.251458,13312,2025-11-07 12:37:29.439586385
2025-11-07 12:37:25.251458,0,2025-11-07 12:37:29.447278692
2025-11-07 12:37:25.251458,64,2025-11-07 12:37:29.454971000
2025-11-07 12:37:25.251458,22528,2025-11-07 12:37:29.462663308
2025-11-07 12:37:25.251458,0,2025-11-07 12:37:29.470355615
2025-11-07 12:37:25.251458,119,2025-11-07 12:37:29.478047923
2025-11-07 12:37:25.251458,-30208,2025-11-07 12:37:29.485740230
2025-11-07 12:37:25.251458,0,2025-11-07 12:37:29.493432538
2025-11-07 12:37:25.251458,150,2025-11-07 12:37:29.501124846
2025-11-07 12:37:25.251458,-24576,2025-11-07 12:37:29.508817154
2025-11-07 12:37:25.251458,0,2025-11-07 12:37:29.516509462
2025-11-07 12:37:25.251458,167,2025-11-07 12:37:29.524201769
2025-11-07 12:37:25.251458,-22272,2025-11-07 12:37:29.531894077
2025-11-07 12:37:25.251458,0,2025-11-07 12:37:29.539586385
2025-11-07 12:37:25.251458,169,2025-11-07 12:37:29.547278692
2025-11-07 12:37:25.251458,-20992,2025-11-07 12:37:29.554971000
2025-11-07 12:37:25.251458,0,2025-11-07 12:37:29.562663308
2025-11-07 12:37:25.251458,176,2025-11-07 12:37:29.570355615
2025-11-07 12:37:25.251458,-19712,2025-11-07 12:37:29.578047923
2025-11-07 12:37:25.251458,0,2025-11-07 12:37:29.585740231
2025-11-07 12:37:25.251458,179,2025-11-07 12:37:29.593432538
2025-11-07 12:37:25.251458,-20480,2025-11-07 12:37:29.601124846
2025-11-07 12:37:25.251458,0,2025-11-07 12:37:29.608817154
2025-11-07 12:37:25.251458,176,2025-11-07 12:37:29.616509462
2025-11-07 12:37:25.251458,-19200,2025-11-07 12:37:29.624201769
2025-11-07 12:37:25.251458,0,2025-11-07 12:37:29.631894077
2025-11-07 12:37:25.251458,181,2025-11-07 12:37:29.639586385
2025-11-07 12:37:25.251458,-20480,2025-11-07 12:37:29.647278692
2025-11-07 12:37:25.251458,0,2025-11-07 12:37:29.654971000
2025-11-07 12:37:25.251458,174,2025-11-07 12:37:29.662663308
2025-11-07 12:37:25.251458,-20992,2025-11-07 12:37:29.670355615
2025-11-07 12:37:25.251458,0,2025-11-07 12:37:29.678047923
2025-11-07 12:37:25.251458,176,2025-11-07 12:37:29.685740231
2025-11-07 12:37:25.835422,179,2025-11-07 12:37:29.693432538
2025-11-07 12:37:25.835422,-19712,2025-11-07 12:37:29.701124846
2025-11-07 12:37:25.835422,0,2025-11-07 12:37:29.708817154
2025-11-07 12:37:25.835422,183,2025-11-07 12:37:29.716509462
2025-11-07 12:37:25.835422,-17920,2025-11-07 12:37:29.724201769
2025-11-07 12:37:25.835422,0,2025-11-07 12:37:29.731894077
2025-11-07 12:37:25.835422,181,2025-11-07 12:37:29.739586385
2025-11-07 12:37:25.835422,-18688,2025-11-07 12:37:29.747278692
2025-11-07 12:37:25.835422,0,2025-11-07 12:37:29.754971000
2025-11-07 12:37:25.835422,188,2025-11-07 12:37:29.762663308
2025-11-07 12:37:25.835422,-17920,2025-11-07 12:37:29.770355615
2025-11-07 12:37:25.835422,0,2025-11-07 12:37:29.778047923
2025-11-07 12:37:25.835422,186,2025-11-07 12:37:29.785740231
2025-11-07 12:37:25.835422,-14848,2025-11-07 12:37:29.793432538
2025-11-07 12:37:25.835422,0,2025-11-07 12:37:29.801124846
2025-11-07 12:37:25.835422,198,2025-11-07 12:37:29.808817154
2025-11-07 12:37:25.835422,-15616,2025-11-07 12:37:29.816509462
2025-11-07 12:37:25.835422,0,2025-11-07 12:37:29.824201769
2025-11-07 12:37:25.835422,207,2025-11-07 12:37:29.831894077
2025-11-07 12:37:25.835422,-8192,2025-11-07 12:37:29.839586385
2025-11-07 12:37:25.835422,0,2025-11-07 12:37:29.847278692
2025-11-07 12:37:25.835422,234,2025-11-07 12:37:29.854971000
2025-11-07 12:37:25.835422,-6912,2025-11-07 12:37:29.862663308
2025-11-07 12:37:25.835422,0,2025-11-07 12:37:29.870355615
2025-11-07 12:37:25.835422,229,2025-11-07 12:37:29.878047923
2025-11-07 12:37:25.835422,-5632,2025-11-07 12:37:29.885740231
2025-11-07 12:37:25.835422,0,2025-11-07 12:37:29.893432538
2025-11-07 12:37:25.835422,236,2025-11-07 12:37:29.901124846
2025-11-07 12:37:25.835422,-5632,2025-11-07 12:37:29.908817154
2025-11-07 12:37:25.835422,0,2025-11-07 12:37:29.916509462
2025-11-07 12:37:25.835422,234,2025-11-07 12:37:29.924201769
2025-11-07 12:37:25.835422,-7680,2025-11-07 12:37:29.931894077
2025-11-07 12:37:25.835422,0,2025-11-07 12:37:29.939586385
2025-11-07 12:37:25.835422,224,2025-11-07 12:37:29.947278692
2025-11-07 12:37:25.835422,-7680,2025-11-07 12:37:29.954971000
2025-11-07 12:37:25.835422,0,2025-11-07 12:37:29.962663308
2025-11-07 12:37:25.835422,226,2025-11-07 12:37:29.970355615
2025-11-07 12:37:25.835422,-7680,2025-11-07 12:37:29.978047923
2025-11-07 12:37:25.835422,0,2025-11-07 12:37:29.985740231
2025-11-07 12:37:25.835422,226,2025-11-07 12:37:29.993432538
2025-11-07 12:37:25.835422,-9472,2025-11-07 12:37:30.001124846
2025-11-07 12:37:25.835422,0,2025-11-07 12:37:30.008817154
2025-11-07 12:37:25.835422,214,2025-11-07 12:37:30.016509462
2025-11-07 12:37:25.835422,-9984,2025-11-07 12:37:30.024201769
2025-11-07 12:37:25.835422,0,2025-11-07 12:37:30.031894077
2025-11-07 12:37:25.835422,217,2025-11-07 12:37:30.039586385
2025-11-07 12:37:25.835422,-9472,2025-11-07 12:37:30.047278692
2025-11-07 12:37:25.835422,0,2025-11-07 12:37:30.054971000
2025-11-07 12:37:25.835422,214,2025-11-07 12:37:30.062663308
2025-11-07 12:37:25.835422,-11264,2025-11-07 12:37:30.070355615
2025-11-07 12:37:25.835422,0,2025-11-07 12:37:30.078047923
2025-11-07 12:37:25.835422,214,2025-11-07 12:37:30.085740231
2025-11-07 12:37:25.835422,-11264,2025-11-07 12:37:30.093432538
2025-11-07 12:37:25.835422,0,2025-11-07 12:37:30.101124846
2025-11-07 12:37:25.835422,207,2025-11-07 12:37:30.108817154
2025-11-07 12:37:25.835422,-11264,2025-11-07 12:37:30.116509462
2025-11-07 12:37:25.835422,0,2025-11-07 12:37:30.124201769
2025-11-07 12:37:25.835422,214,2025-11-07 12:37:30.131894077
2025-11-07 12:37:25.835422,-11776,2025-11-07 12:37:30.139586385
2025-11-07 12:37:25.835422,0,2025-11-07 12:37:30.147278692
2025-11-07 12:37:25.835422,207,2025-11-07 12:37:30.154971000
2025-11-07 12:37:25.835422,-13056,2025-11-07 12:37:30.162663308
2025-11-07 12:37:25.835422,0,2025-11-07 12:37:30.170355615
2025-11-07 12:37:25.835422,200,2025-11-07 12:37:30.178047923
2025-11-07 12:37:25.835422,-15616,2025-11-07 12:37:30.185740231
2025-11-07 12:37:25.835422,0,2025-11-07 12:37:30.193432538
2025-11-07 12:37:25.835422,193,2025-11-07 12:37:30.201124846
2025-11-07 12:37:25.835422,-13568,2025-11-07 12:37:30.208817154
2025-11-07 12:37:25.835422,0,2025-11-07 12:37:30.216509462
2025-11-07 12:37:25.835422,222,2025-11-07 12:37:30.224201769
2025-11-07 12:37:25.835422,-6912,2025-11-07 12:37:30.231894077
2025-11-07 12:37:25.835422,0,2025-11-07 12:37:30.239586385
2025-11-07 12:37:25.835422,219,2025-11-07 12:37:30.247278692
2025-11-07 12:37:25.835422,-9984,2025-11-07 12:37:30.254971000
2025-11-07 12:37:25.835422,0,2025-11-07 12:37:30.262663308
2025-11-07 12:37:25.835422,214,2025-11-07 12:37:30.270355615
2025-11-07 12:37:25.835422,-14336,2025-11-07 12:37:30.278047923
2025-11-07 12:37:25.835422,0,2025-11-07 12:37:30.285740231
2025-11-07 12:37:25.835422,195,2025-11-07 12:37:30.293432538
2025-11-07 12:37:25.835422,-14336,2025-11-07 12:37:30.301124846
2025-11-07 12:37:25.835422,0,2025-11-07 12:37:30.308817154
2025-11-07 12:37:25.835422,200,2025-11-07 12:37:30.316509462
2025-11-07 12:37:25.835422,-14848,2025-11-07 12:37:30.324201769
2025-11-07 12:37:25.835422,0,2025-11-07 12:37:30.331894077
2025-11-07 12:37:25.835422,198,2025-11-07 12:37:30.339586385
2025-11-07 12:37:25.835422,-16128,2025-11-07 12:37:30.347278692
2025-11-07 12:37:25.835422,0,2025-11-07 12:37:30.354971000
2025-11-07 12:37:25.835422,186,2025-11-07 12:37:30.362663308
2025-11-07 12:37:25.835422,-17408,2025-11-07 12:37:30.370355615
2025-11-07 12:37:25.835422,0,2025-11-07 12:37:30.378047923
2025-11-07 12:37:25.835422,195,2025-11-07 12:37:30.385740231
2025-11-07 12:37:25.835422,-15616,2025-11-07 12:37:30.393432538
2025-11-07 12:37:25.835422,0,2025-11-07 12:37:30.401124846
2025-11-07 12:37:25.835422,179,2025-11-07 12:37:30.408817154
2025-11-07 12:37:25.835422,-27648,2025-11-07 12:37:30.416509462
2025-11-07 12:37:25.835422,0,2025-11-07 12:37:30.424201769
2025-11-07 12:37:25.835422,174,2025-11-07 12:37:30.431894077
2025-11-07 12:37:25.835422,7680,2025-11-07 12:37:30.439586385
2025-11-07 12:37:25.835422,2,2025-11-07 12:37:30.447278692
2025-11-07 12:37:25.835422,1222,2025-11-07 12:37:30.454971000
2025-11-07 12:37:25.835422,28160,2025-11-07 12:37:30.462663308
2025-11-07 12:37:25.835422,5,2025-11-07 12:37:30.470355615
2025-11-07 12:37:25.835422,754,2025-11-07 12:37:30.478047923
2025-11-07 12:37:25.835422,-9472,2025-11-07 12:37:30.485740230
2025-11-07 12:37:25.835422,0,2025-11-07 12:37:30.493432538
2025-11-07 12:37:25.835422,186,2025-11-07 12:37:30.501124846
2025-11-07 12:37:25.835422,-19200,2025-11-07 12:37:30.508817154
2025-11-07 12:37:25.835422,0,2025-11-07 12:37:30.516509462
2025-11-07 12:37:25.835422,50,2025-11-07 12:37:30.524201769
2025-11-07 12:37:26.331593,-4,2025-11-07 12:37:30.531894077
2025-11-07 12:37:26.331593,4351,2025-11-07 12:37:30.539586385
2025-11-07 12:37:26.331593,0,2025-11-07 12:37:30.547278692
2025-11-07 12:37:26.331593,7,2025-11-07 12:37:30.554971000
2025-11-07 12:37:26.331593,0,2025-11-07 12:37:30.562663308
2025-11-07 12:37:26.331593,0,2025-11-07 12:37:30.570355615
2025-11-07 12:37:26.331593,16,2025-11-07 12:37:30.578047923
2025-11-07 12:37:26.331593,5888,2025-11-07 12:37:30.585740231
2025-11-07 12:37:26.331593,0,2025-11-07 12:37:30.593432538
2025-11-07 12:37:26.331593,19,2025-11-07 12:37:30.601124846
2025-11-07 12:37:26.331593,5376,2025-11-07 12:37:30.608817154
2025-11-07 12:37:26.331593,0,2025-11-07 12:37:30.616509462
2025-11-07 12:37:26.331593,23,2025-11-07 12:37:30.624201769
2025-11-07 12:37:26.331593,5888,2025-11-07 12:37:30.631894077
2025-11-07 12:37:26.331593,0,2025-11-07 12:37:30.639586385
2025-11-07 12:37:26.331593,31,2025-11-07 12:37:30.647278692
2025-11-07 12:37:26.331593,9728,2025-11-07 12:37:30.654971000
2025-11-07 12:37:26.331593,0,2025-11-07 12:37:30.662663308
2025-11-07 12:37:26.331593,35,2025-11-07 12:37:30.670355615
2025-11-07 12:37:26.331593,7168,2025-11-07 12:37:30.678047923
2025-11-07 12:37:26.331593,0,2025-11-07 12:37:30.685740231
2025-11-07 12:37:26.331593,31,2025-11-07 12:37:30.693432538
2025-11-07 12:37:26.331593,8960,2025-11-07 12:37:30.701124846
2025-11-07 12:37:26.331593,0,2025-11-07 12:37:30.708817154
2025-11-07 12:37:26.331593,47,2025-11-07 12:37:30.716509462
2025-11-07 12:37:26.331593,15872,2025-11-07 12:37:30.724201769
2025-11-07 12:37:26.331593,0,2025-11-07 12:37:30.731894077
2025-11-07 12:37:26.331593,66,2025-11-07 12:37:30.739586385
2025-11-07 12:37:26.331593,16896,2025-11-07 12:37:30.747278692
2025-11-07 12:37:26.331593,0,2025-11-07 12:37:30.754971000
2025-11-07 12:37:26.331593,78,2025-11-07 12:37:30.762663308
2025-11-07 12:37:26.331593,23808,2025-11-07 12:37:30.770355615
2025-11-07 12:37:26.331593,0,2025-11-07 12:37:30.778047923
2025-11-07 12:37:26.331593,107,2025-11-07 12:37:30.785740231
2025-11-07 12:37:26.331593,32256,2025-11-07 12:37:30.793432538
2025-11-07 12:37:26.331593,0,2025-11-07 12:37:30.801124846
2025-11-07 12:37:26.331593,150,2025-11-07 12:37:30.808817154
2025-11-07 12:37:26.331593,-24576,2025-11-07 12:37:30.816509462
2025-11-07 12:37:26.331593,0,2025-11-07 12:37:30.824201769
2025-11-07 12:37:26.331593,157,2025-11-07 12:37:30.831894077
2025-11-07 12:37:26.331593,-22784,2025-11-07 12:37:30.839586385
2025-11-07 12:37:26.331593,0,2025-11-07 12:37:30.847278692
2025-11-07 12:37:26.331593,181,2025-11-07 12:37:30.854971000
2025-11-07 12:37:26.331593,-17920,2025-11-07 12:37:30.862663308
2025-11-07 12:37:26.331593,0,2025-11-07 12:37:30.870355615
2025-11-07 12:37:26.331593,186,2025-11-07 12:37:30.878047923
2025-11-07 12:37:26.331593,-17920,2025-11-07 12:37:30.885740231
2025-11-07 12:37:26.331593,0,2025-11-07 12:37:30.893432538
2025-11-07 12:37:26.331593,188,2025-11-07 12:37:30.901124846
2025-11-07 12:37:26.331593,-17408,2025-11-07 12:37:30.908817154
2025-11-07 12:37:26.331593,0,2025-11-07 12:37:30.916509462
2025-11-07 12:37:26.331593,191,2025-11-07 12:37:30.924201769
2025-11-07 12:37:26.331593,-16128,2025-11-07 12:37:30.931894077
2025-11-07 12:37:26.331593,0,2025-11-07 12:37:30.939586385
2025-11-07 12:37:26.331593,188,2025-11-07 12:37:30.947278692
2025-11-07 12:37:26.331593,-18688,2025-11-07 12:37:30.954971000
2025-11-07 12:37:26.331593,0,2025-11-07 12:37:30.962663308
2025-11-07 12:37:26.331593,176,2025-11-07 12:37:30.970355615
2025-11-07 12:37:26.331593,-20480,2025-11-07 12:37:30.978047923
2025-11-07 12:37:26.331593,0,2025-11-07 12:37:30.985740231
2025-11-07 12:37:26.331593,176,2025-11-07 12:37:30.993432538
2025-11-07 12:37:26.331593,-20992,2025-11-07 12:37:31.001124846
2025-11-07 12:37:26.331593,0,2025-11-07 12:37:31.008817154
2025-11-07 12:37:26.331593,167,2025-11-07 12:37:31.016509462
2025-11-07 12:37:26.331593,-23552,2025-11-07 12:37:31.024201769
2025-11-07 12:37:26.331593,0,2025-11-07 12:37:31.031894077
2025-11-07 12:37:26.331593,169,2025-11-07 12:37:31.039586385
2025-11-07 12:37:26.331593,-20992,2025-11-07 12:37:31.047278692
2025-11-07 12:37:26.331593,0,2025-11-07 12:37:31.054971000
2025-11-07 12:37:26.331593,171,2025-11-07 12:37:31.062663308
2025-11-07 12:37:26.331593,-22784,2025-11-07 12:37:31.070355615
2025-11-07 12:37:26.331593,0,2025-11-07 12:37:31.078047923
2025-11-07 12:37:26.331593,164,2025-11-07 12:37:31.085740231
2025-11-07 12:37:26.331593,-22784,2025-11-07 12:37:31.093432538
2025-11-07 12:37:26.331593,0,2025-11-07 12:37:31.101124846
2025-11-07 12:37:26.331593,171,2025-11-07 12:37:31.108817154
2025-11-07 12:37:26.331593,-22272,2025-11-07 12:37:31.116509462
2025-11-07 12:37:26.331593,0,2025-11-07 12:37:31.124201769
2025-11-07 12:37:26.331593,164,2025-11-07 12:37:31.131894077
2025-11-07 12:37:26.331593,-23552,2025-11-07 12:37:31.139586385
2025-11-07 12:37:26.331593,0,2025-11-07 12:37:31.147278692
2025-11-07 12:37:26.331593,162,2025-11-07 12:37:31.154971000
2025-11-07 12:37:26.331593,-24576,2025-11-07 12:37:31.162663308
2025-11-07 12:37:26.331593,0,2025-11-07 12:37:31.170355615
2025-11-07 12:37:26.331593,164,2025-11-07 12:37:31.178047923
2025-11-07 12:37:26.331593,-21760,2025-11-07 12:37:31.185740231
2025-11-07 12:37:26.331593,0,2025-11-07 12:37:31.193432538
2025-11-07 12:37:26.331593,167,2025-11-07 12:37:31.201124846
2025-11-07 12:37:26.331593,-23552,2025-11-07 12:37:31.208817154
2025-11-07 12:37:26.331593,0,2025-11-07 12:37:31.216509462
2025-11-07 12:37:26.331593,169,2025-11-07 12:37:31.224201769
2025-11-07 12:37:26.331593,-21760,2025-11-07 12:37:31.231894077
2025-11-07 12:37:26.331593,0,2025-11-07 12:37:31.239586385
2025-11-07 12:37:26.331593,169,2025-11-07 12:37:31.247278692
2025-11-07 12:37:26.331593,-21760,2025-11-07 12:37:31.254971000
2025-11-07 12:37:26.331593,0,2025-11-07 12:37:31.262663308
2025-11-07 12:37:26.331593,171,2025-11-07 12:37:31.270355615
2025-11-07 12:37:26.331593,-22784,2025-11-07 12:37:31.278047923
2025-11-07 12:37:26.331593,0,2025-11-07 12:37:31.285740231
2025-11-07 12:37:26.331593,164,2025-11-07 12:37:31.293432538
2025-11-07 12:37:26.331593,-22784,2025-11-07 12:37:31.301124846
2025-11-07 12:37:26.331593,0,2025-11-07 12:37:31.308817154
2025-11-07 12:37:26.331593,164,2025-11-07 12:37:31.316509462
2025-11-07 12:37:26.331593,-22272,2025-11-07 12:37:31.324201769
2025-11-07 12:37:26.331593,0,2025-11-07 12:37:31.331894077
2025-11-07 12:37:26.331593,171,2025-11-07 12:37:31.339586385
2025-11-07 12:37:26.331593,-22784,2025-11-07 12:37:31.347278692
2025-11-07 12:37:26.331593,0,2025-11-07 12:37:31.354971000
2025-11-07 12:37:26.331593,162,2025-11-07 12:37:31.362663308
2025-11-07 12:37:26.868880,160,2025-11-07 12:37:31.370355615
2025-11-07 12:37:26.868880,-24576,2025-11-07 12:37:31.378047923
2025-11-07 12:37:26.868880,0,2025-11-07 12:37:31.385740231
2025-11-07 12:37:26.868880,157,2025-11-07 12:37:31.393432538
2025-11-07 12:37:26.868880,-25856,2025-11-07 12:37:31.401124846
2025-11-07 12:37:26.868880,0,2025-11-07 12:37:31.408817154
2025-11-07 12:37:26.868880,152,2025-11-07 12:37:31.416509462
2025-11-07 12:37:26.868880,-30208,2025-11-07 12:37:31.424201769
2025-11-07 12:37:26.868880,0,2025-11-07 12:37:31.431894077
2025-11-07 12:37:26.868880,131,2025-11-07 12:37:31.439586385
2025-11-07 12:37:26.868880,-27136,2025-11-07 12:37:31.447278692
2025-11-07 12:37:26.868880,0,2025-11-07 12:37:31.454971000
2025-11-07 12:37:26.868880,183,2025-11-07 12:37:31.462663308
2025-11-07 12:37:26.868880,-14336,2025-11-07 12:37:31.470355615
2025-11-07 12:37:26.868880,0,2025-11-07 12:37:31.478047923
2025-11-07 12:37:26.868880,195,2025-11-07 12:37:31.485740230
2025-11-07 12:37:26.868880,-16640,2025-11-07 12:37:31.493432538
2025-11-07 12:37:26.868880,0,2025-11-07 12:37:31.501124846
2025-11-07 12:37:26.868880,186,2025-11-07 12:37:31.508817154
2025-11-07 12:37:26.868880,-19712,2025-11-07 12:37:31.516509462
2025-11-07 12:37:26.868880,0,2025-11-07 12:37:31.524201769
2025-11-07 12:37:26.868880,167,2025-11-07 12:37:31.531894077
2025-11-07 12:37:26.868880,-25344,2025-11-07 12:37:31.539586385
2025-11-07 12:37:26.868880,0,2025-11-07 12:37:31.547278692
2025-11-07 12:37:26.868880,164,2025-11-07 12:37:31.554971000
2025-11-07 12:37:26.868880,-22784,2025-11-07 12:37:31.562663308
2025-11-07 12:37:26.868880,0,2025-11-07 12:37:31.570355615
2025-11-07 12:37:26.868880,155,2025-11-07 12:37:31.578047923
2025-11-07 12:37:26.868880,-25856,2025-11-07 12:37:31.585740231
2025-11-07 12:37:26.868880,0,2025-11-07 12:37:31.593432538
2025-11-07 12:37:26.868880,164,2025-11-07 12:37:31.601124846
2025-11-07 12:37:26.868880,-25856,2025-11-07 12:37:31.608817154
2025-11-07 12:37:26.868880,0,2025-11-07 12:37:31.616509462
2025-11-07 12:37:26.868880,150,2025-11-07 12:37:31.624201769
2025-11-07 12:37:26.868880,-25344,2025-11-07 12:37:31.631894077
2025-11-07 12:37:26.868880,0,2025-11-07 12:37:31.639586385
2025-11-07 12:37:26.868880,150,2025-11-07 12:37:31.647278692
2025-11-07 12:37:26.868880,-32768,2025-11-07 12:37:31.654971000
2025-11-07 12:37:26.868880,0,2025-11-07 12:37:31.662663308
2025-11-07 12:37:26.868880,95,2025-11-07 12:37:31.670355615
2025-11-07 12:37:26.868880,-30208,2025-11-07 12:37:31.678047923
2025-11-07 12:37:26.868880,0,2025-11-07 12:37:31.685740231
2025-11-07 12:37:26.868880,551,2025-11-07 12:37:31.693432538
2025-11-07 12:37:26.868880,-14080,2025-11-07 12:37:31.701124846
2025-11-07 12:37:26.868880,4,2025-11-07 12:37:31.708817154
2025-11-07 12:37:26.868880,1282,2025-11-07 12:37:31.716509462
2025-11-07 12:37:26.868880,18688,2025-11-07 12:37:31.724201769
2025-11-07 12:37:26.868880,2,2025-11-07 12:37:31.731894077
2025-11-07 12:37:26.868880,121,2025-11-07 12:37:31.739586385
2025-11-07 12:37:26.868880,-28928,2025-11-07 12:37:31.747278692
2025-11-07 12:37:26.868880,0,2025-11-07 12:37:31.754971000
2025-11-07 12:37:26.868880,117,2025-11-07 12:37:31.762663308
2025-11-07 12:37:26.868880,-5888,2025-11-07 12:37:31.770355615
2025-11-07 12:37:26.868880,-1,2025-11-07 12:37:31.778047923
2025-11-07 12:37:26.868880,-54,2025-11-07 12:37:31.785740231
2025-11-07 12:37:26.868880,-6401,2025-11-07 12:37:31.793432538
2025-11-07 12:37:26.868880,-1,2025-11-07 12:37:31.801124846
2025-11-07 12:37:26.868880,-40,2025-11-07 12:37:31.808817154
2025-11-07 12:37:26.868880,-11777,2025-11-07 12:37:31.816509462
2025-11-07 12:37:26.868880,-1,2025-11-07 12:37:31.824201769
2025-11-07 12:37:26.868880,-35,2025-11-07 12:37:31.831894077
2025-11-07 12:37:26.868880,-9473,2025-11-07 12:37:31.839586385
2025-11-07 12:37:26.868880,-1,2025-11-07 12:37:31.847278692
2025-11-07 12:37:26.868880,-42,2025-11-07 12:37:31.854971000
2025-11-07 12:37:26.868880,-9985,2025-11-07 12:37:31.862663308
2025-11-07 12:37:26.868880,-1,2025-11-07 12:37:31.870355615
2025-11-07 12:37:26.868880,-40,2025-11-07 12:37:31.878047923
2025-11-07 12:37:26.868880,-9985,2025-11-07 12:37:31.885740231
2025-11-07 12:37:26.868880,-1,2025-11-07 12:37:31.893432538
2025-11-07 12:37:26.868880,-42,2025-11-07 12:37:31.901124846
2025-11-07 12:37:26.868880,-11777,2025-11-07 12:37:31.908817154
2025-11-07 12:37:26.868880,-1,2025-11-07 12:37:31.916509462
2025-11-07 12:37:26.868880,-50,2025-11-07 12:37:31.924201769
2025-11-07 12:37:26.868880,-13057,2025-11-07 12:37:31.931894077
2025-11-07 12:37:26.868880,-1,2025-11-07 12:37:31.939586385
2025-11-07 12:37:26.868880,-52,2025-11-07 12:37:31.947278692
2025-11-07 12:37:26.868880,-11777,2025-11-07 12:37:31.954971000
2025-11-07 12:37:26.868880,-1,2025-11-07 12:37:31.962663308
2025-11-07 12:37:26.868880,-45,2025-11-07 12:37:31.970355615
2025-11-07 12:37:26.868880,-9985,2025-11-07 12:37:31.978047923
2025-11-07 12:37:26.868880,-1,2025-11-07 12:37:31.985740231
2025-11-07 12:37:26.868880,-31,2025-11-07 12:37:31.993432538
2025-11-07 12:37:26.868880,-5121,2025-11-07 12:37:32.001124846
2025-11-07 12:37:26.868880,-1,2025-11-07 12:37:32.008817154
2025-11-07 12:37:26.868880,-11,2025-11-07 12:37:32.016509462
2025-11-07 12:37:26.868880,767,2025-11-07 12:37:32.024201769
2025-11-07 12:37:26.868880,0,2025-11-07 12:37:32.031894077
2025-11-07 12:37:26.868880,26,2025-11-07 12:37:32.039586385
2025-11-07 12:37:26.868880,13312,2025-11-07 12:37:32.047278692
2025-11-07 12:37:26.868880,0,2025-11-07 12:37:32.054971000
2025-11-07 12:37:26.868880,76,2025-11-07 12:37:32.062663308
2025-11-07 12:37:26.868880,22528,2025-11-07 12:37:32.070355615
2025-11-07 12:37:26.868880,0,2025-11-07 12:37:32.078047923
2025-11-07 12:37:26.868880,88,2025-11-07 12:37:32.085740231
2025-11-07 12:37:26.868880,23808,2025-11-07 12:37:32.093432538
2025-11-07 12:37:26.868880,0,2025-11-07 12:37:32.101124846
2025-11-07 12:37:26.868880,100,2025-11-07 12:37:32.108817154
2025-11-07 12:37:26.868880,26880,2025-11-07 12:37:32.116509462
2025-11-07 12:37:26.868880,0,2025-11-07 12:37:32.124201769
2025-11-07 12:37:26.868880,105,2025-11-07 12:37:32.131894077
2025-11-07 12:37:26.868880,27904,2025-11-07 12:37:32.139586385
2025-11-07 12:37:26.868880,0,2025-11-07 12:37:32.147278692
2025-11-07 12:37:26.868880,114,2025-11-07 12:37:32.154971000
2025-11-07 12:37:26.868880,30464,2025-11-07 12:37:32.162663308
2025-11-07 12:37:26.868880,0,2025-11-07 12:37:32.170355615
2025-11-07 12:37:26.868880,114,2025-11-07 12:37:32.178047923
2025-11-07 12:37:26.868880,28672,2025-11-07 12:37:32.185740231
2025-11-07 12:37:26.868880,0,2025-11-07 12:37:32.193432538
2025-11-07 12:37:26.868880,109,2025-11-07 12:37:32.201124846
2025-11-07 12:37:27.456693,107,2025-11-07 12:37:32.208817154
2025-11-07 12:37:27.456693,26112,2025-11-07 12:37:32.216509462
2025-11-07 12:37:27.456693,0,2025-11-07 12:37:32.224201769
2025-11-07 12:37:27.456693,102,2025-11-07 12:37:32.231894077
2025-11-07 12:37:27.456693,26112,2025-11-07 12:37:32.239586385
2025-11-07 12:37:27.456693,0,2025-11-07 12:37:32.247278692
2025-11-07 12:37:27.456693,105,2025-11-07 12:37:32.254971000
2025-11-07 12:37:27.456693,29184,2025-11-07 12:37:32.262663308
2025-11-07 12:37:27.456693,0,2025-11-07 12:37:32.270355615
2025-11-07 12:37:27.456693,121,2025-11-07 12:37:32.278047923
2025-11-07 12:37:27.456693,29184,2025-11-07 12:37:32.285740231
2025-11-07 12:37:27.456693,0,2025-11-07 12:37:32.293432538
2025-11-07 12:37:27.456693,109,2025-11-07 12:37:32.301124846
2025-11-07 12:37:27.456693,27904,2025-11-07 12:37:32.308817154
2025-11-07 12:37:27.456693,0,2025-11-07 12:37:32.316509462
2025-11-07 12:37:27.456693,107,2025-11-07 12:37:32.324201769
2025-11-07 12:37:27.456693,28672,2025-11-07 12:37:32.331894077
2025-11-07 12:37:27.456693,0,2025-11-07 12:37:32.339586385
2025-11-07 12:37:27.456693,117,2025-11-07 12:37:32.347278692
2025-11-07 12:37:27.456693,28672,2025-11-07 12:37:32.354971000
2025-11-07 12:37:27.456693,0,2025-11-07 12:37:32.362663308
2025-11-07 12:37:27.456693,114,2025-11-07 12:37:32.370355615
2025-11-07 12:37:27.456693,31744,2025-11-07 12:37:32.378047923
2025-11-07 12:37:27.456693,0,2025-11-07 12:37:32.385740231
2025-11-07 12:37:27.456693,124,2025-11-07 12:37:32.393432538
2025-11-07 12:37:27.456693,30464,2025-11-07 12:37:32.401124846
2025-11-07 12:37:27.456693,0,2025-11-07 12:37:32.408817154
2025-11-07 12:37:27.456693,117,2025-11-07 12:37:32.416509462
2025-11-07 12:37:27.456693,30464,2025-11-07 12:37:32.424201769
2025-11-07 12:37:27.456693,0,2025-11-07 12:37:32.431894077
2025-11-07 12:37:27.456693,119,2025-11-07 12:37:32.439586385
2025-11-07 12:37:27.456693,30464,2025-11-07 12:37:32.447278692
2025-11-07 12:37:27.456693,0,2025-11-07 12:37:32.454971000
2025-11-07 12:37:27.456693,117,2025-11-07 12:37:32.462663308
2025-11-07 12:37:27.456693,29184,2025-11-07 12:37:32.470355615
2025-11-07 12:37:27.456693,0,2025-11-07 12:37:32.478047923
2025-11-07 12:37:27.456693,112,2025-11-07 12:37:32.485740230
2025-11-07 12:37:27.456693,27904,2025-11-07 12:37:32.493432538
2025-11-07 12:37:27.456693,0,2025-11-07 12:37:32.501124846
2025-11-07 12:37:27.456693,107,2025-11-07 12:37:32.508817154
2025-11-07 12:37:27.456693,28672,2025-11-07 12:37:32.516509462
2025-11-07 12:37:27.456693,0,2025-11-07 12:37:32.524201769
2025-11-07 12:37:27.456693,112,2025-11-07 12:37:32.531894077
2025-11-07 12:37:27.456693,29184,2025-11-07 12:37:32.539586385
2025-11-07 12:37:27.456693,0,2025-11-07 12:37:32.547278692
2025-11-07 12:37:27.456693,112,2025-11-07 12:37:32.554971000
2025-11-07 12:37:27.456693,27392,2025-11-07 12:37:32.562663308
2025-11-07 12:37:27.456693,0,2025-11-07 12:37:32.570355615
2025-11-07 12:37:27.456693,107,2025-11-07 12:37:32.578047923
2025-11-07 12:37:27.456693,27392,2025-11-07 12:37:32.585740231
2025-11-07 12:37:27.456693,0,2025-11-07 12:37:32.593432538
2025-11-07 12:37:27.456693,105,2025-11-07 12:37:32.601124846
2025-11-07 12:37:27.456693,26880,2025-11-07 12:37:32.608817154
2025-11-07 12:37:27.456693,0,2025-11-07 12:37:32.616509462
2025-11-07 12:37:27.456693,102,2025-11-07 12:37:32.624201769
2025-11-07 12:37:27.456693,24320,2025-11-07 12:37:32.631894077
2025-11-07 12:37:27.456693,0,2025-11-07 12:37:32.639586385
2025-11-07 12:37:27.456693,88,2025-11-07 12:37:32.647278692
2025-11-07 12:37:27.456693,20736,2025-11-07 12:37:32.654971000
2025-11-07 12:37:27.456693,0,2025-11-07 12:37:32.662663308
2025-11-07 12:37:27.456693,76,2025-11-07 12:37:32.670355615
2025-11-07 12:37:27.456693,19968,2025-11-07 12:37:32.678047923
2025-11-07 12:37:27.456693,0,2025-11-07 12:37:32.685740231
2025-11-07 12:37:27.456693,95,2025-11-07 12:37:32.693432538
2025-11-07 12:37:27.456693,29952,2025-11-07 12:37:32.701124846
2025-11-07 12:37:27.456693,0,2025-11-07 12:37:32.708817154
2025-11-07 12:37:27.456693,121,2025-11-07 12:37:32.716509462
2025-11-07 12:37:27.456693,30464,2025-11-07 12:37:32.724201769
2025-11-07 12:37:27.456693,0,2025-11-07 12:37:32.731894077
2025-11-07 12:37:27.456693,119,2025-11-07 12:37:32.739586385
2025-11-07 12:37:27.456693,29952,2025-11-07 12:37:32.747278692
2025-11-07 12:37:27.456693,0,2025-11-07 12:37:32.754971000
2025-11-07 12:37:27.456693,105,2025-11-07 12:37:32.762663308
2025-11-07 12:37:27.456693,24320,2025-11-07 12:37:32.770355615
2025-11-07 12:37:27.456693,0,2025-11-07 12:37:32.778047923
2025-11-07 12:37:27.456693,97,2025-11-07 12:37:32.785740231
2025-11-07 12:37:27.456693,26112,2025-11-07 12:37:32.793432538
2025-11-07 12:37:27.456693,0,2025-11-07 12:37:32.801124846
2025-11-07 12:37:27.456693,100,2025-11-07 12:37:32.808817154
2025-11-07 12:37:27.456693,24320,2025-11-07 12:37:32.816509462
2025-11-07 12:37:27.456693,0,2025-11-07 12:37:32.824201769
2025-11-07 12:37:27.456693,90,2025-11-07 12:37:32.831894077
2025-11-07 12:37:27.456693,23808,2025-11-07 12:37:32.839586385
2025-11-07 12:37:27.456693,0,2025-11-07 12:37:32.847278692
2025-11-07 12:37:27.456693,93,2025-11-07 12:37:32.854971000
2025-11-07 12:37:27.456693,23808,2025-11-07 12:37:32.862663308
2025-11-07 12:37:27.456693,0,2025-11-07 12:37:32.870355615
2025-11-07 12:37:27.456693,95,2025-11-07 12:37:32.878047923
2025-11-07 12:37:27.456693,22528,2025-11-07 12:37:32.885740231
2025-11-07 12:37:27.456693,0,2025-11-07 12:37:32.893432538
2025-11-07 12:37:27.456693,54,2025-11-07 12:37:32.901124846
2025-11-07 12:37:27.456693,12800,2025-11-07 12:37:32.908817154
2025-11-07 12:37:27.456693,0,2025-11-07 12:37:32.916509462
2025-11-07 12:37:27.456693,358,2025-11-07 12:37:32.924201769
2025-11-07 12:37:27.456693,17152,2025-11-07 12:37:32.931894077
2025-11-07 12:37:27.456693,4,2025-11-07 12:37:32.939586385
2025-11-07 12:37:27.456693,1445,2025-11-07 12:37:32.947278692
2025-11-07 12:37:27.456693,22272,2025-11-07 12:37:32.954971000
2025-11-07 12:37:27.456693,3,2025-11-07 12:37:32.962663308
2025-11-07 12:37:27.456693,164,2025-11-07 12:37:32.970355615
2025-11-07 12:37:27.456693,13824,2025-11-07 12:37:32.978047923
2025-11-07 12:37:27.456693,0,2025-11-07 12:37:32.985740231
2025-11-07 12:37:27.456693,90,2025-11-07 12:37:32.993432538
2025-11-07 12:37:27.456693,-10752,2025-11-07 12:37:33.001124846
2025-11-07 12:37:27.456693,-1,2025-11-07 12:37:33.008817154
2025-11-07 12:37:27.456693,-121,2025-11-07 12:37:33.016509462
2025-11-07 12:37:27.456693,-22785,2025-11-07 12:37:33.024201769
2025-11-07 12:37:27.456693,-1,2025-11-07 12:37:33.031894077
