timestamp,ecg,reconstructed_time
2025-11-07 12:41:05.646929,14062,2025-11-07 12:41:05.646929000
2025-11-07 12:41:05.646929,-5632,2025-11-07 12:41:05.654621308
2025-11-07 12:41:05.646929,61,2025-11-07 12:41:05.662313615
2025-11-07 12:41:05.646929,13519,2025-11-07 12:41:05.670005923
2025-11-07 12:41:05.646929,30720,2025-11-07 12:41:05.677698231
2025-11-07 12:41:05.646929,54,2025-11-07 12:41:05.685390538
2025-11-07 12:41:05.646929,14499,2025-11-07 12:41:05.693082846
2025-11-07 12:41:05.646929,25344,2025-11-07 12:41:05.700775154
2025-11-07 12:41:05.646929,52,2025-11-07 12:41:05.708467462
2025-11-07 12:41:05.646929,13027,2025-11-07 12:41:05.716159769
2025-11-07 12:41:05.646929,-1280,2025-11-07 12:41:05.723852077
2025-11-07 12:41:05.646929,50,2025-11-07 12:41:05.731544385
2025-11-07 12:41:05.646929,12457,2025-11-07 12:41:05.739236692
2025-11-07 12:41:05.646929,-18432,2025-11-07 12:41:05.746929000
2025-11-07 12:41:05.646929,46,2025-11-07 12:41:05.754621308
2025-11-07 12:41:05.646929,11705,2025-11-07 12:41:05.762313615
2025-11-07 12:41:05.646929,-17664,2025-11-07 12:41:05.770005923
2025-11-07 12:41:05.646929,43,2025-11-07 12:41:05.777698231
2025-11-07 12:41:05.646929,10694,2025-11-07 12:41:05.785390538
2025-11-07 12:41:05.646929,-26112,2025-11-07 12:41:05.793082846
2025-11-07 12:41:05.646929,41,2025-11-07 12:41:05.800775154
2025-11-07 12:41:05.646929,10906,2025-11-07 12:41:05.808467462
2025-11-07 12:41:05.646929,-23552,2025-11-07 12:41:05.816159769
2025-11-07 12:41:05.646929,42,2025-11-07 12:41:05.823852077
2025-11-07 12:41:05.646929,10271,2025-11-07 12:41:05.831544385
2025-11-07 12:41:05.646929,21248,2025-11-07 12:41:05.839236692
2025-11-07 12:41:05.646929,36,2025-11-07 12:41:05.846929000
2025-11-07 12:41:05.646929,8756,2025-11-07 12:41:05.854621308
2025-11-07 12:41:05.646929,-16896,2025-11-07 12:41:05.862313615
2025-11-07 12:41:05.646929,33,2025-11-07 12:41:05.870005923
2025-11-07 12:41:05.646929,8413,2025-11-07 12:41:05.877698231
2025-11-07 12:41:05.646929,-30976,2025-11-07 12:41:05.885390538
2025-11-07 12:41:05.646929,31,2025-11-07 12:41:05.893082846
2025-11-07 12:41:05.646929,7808,2025-11-07 12:41:05.900775154
2025-11-07 12:41:05.646929,-26112,2025-11-07 12:41:05.908467462
2025-11-07 12:41:05.646929,29,2025-11-07 12:41:05.916159769
2025-11-07 12:41:05.646929,7320,2025-11-07 12:41:05.923852077
2025-11-07 12:41:05.646929,-24064,2025-11-07 12:41:05.931544385
2025-11-07 12:41:05.646929,27,2025-11-07 12:41:05.939236692
2025-11-07 12:41:05.646929,6881,2025-11-07 12:41:05.946929000
2025-11-07 12:41:05.646929,3840,2025-11-07 12:41:05.954621308
2025-11-07 12:41:05.646929,26,2025-11-07 12:41:05.962313615
2025-11-07 12:41:05.646929,6423,2025-11-07 12:41:05.970005923
2025-11-07 12:41:05.646929,19456,2025-11-07 12:41:05.977698231
2025-11-07 12:41:05.646929,24,2025-11-07 12:41:05.985390538
2025-11-07 12:41:05.646929,6044,2025-11-07 12:41:05.993082846
2025-11-07 12:41:05.646929,-11264,2025-11-07 12:41:06.000775154
2025-11-07 12:41:05.646929,22,2025-11-07 12:41:06.008467462
2025-11-07 12:41:05.646929,5646,2025-11-07 12:41:06.016159769
2025-11-07 12:41:05.646929,24576,2025-11-07 12:41:06.023852077
2025-11-07 12:41:05.646929,21,2025-11-07 12:41:06.031544385
2025-11-07 12:41:05.646929,5301,2025-11-07 12:41:06.039236692
2025-11-07 12:41:05.646929,3584,2025-11-07 12:41:06.046929000
2025-11-07 12:41:05.646929,20,2025-11-07 12:41:06.054621308
2025-11-07 12:41:05.646929,4980,2025-11-07 12:41:06.062313615
2025-11-07 12:41:05.646929,-5632,2025-11-07 12:41:06.070005923
2025-11-07 12:41:05.646929,18,2025-11-07 12:41:06.077698231
2025-11-07 12:41:05.646929,4719,2025-11-07 12:41:06.085390538
2025-11-07 12:41:05.646929,-7936,2025-11-07 12:41:06.093082846
2025-11-07 12:41:05.646929,17,2025-11-07 12:41:06.100775154
2025-11-07 12:41:05.646929,4425,2025-11-07 12:41:06.108467462
2025-11-07 12:41:05.646929,-12288,2025-11-07 12:41:06.116159769
2025-11-07 12:41:05.646929,16,2025-11-07 12:41:06.123852077
2025-11-07 12:41:05.646929,4198,2025-11-07 12:41:06.131544385
2025-11-07 12:41:05.646929,-9728,2025-11-07 12:41:06.139236692
2025-11-07 12:41:05.646929,15,2025-11-07 12:41:06.146929000
2025-11-07 12:41:05.646929,3889,2025-11-07 12:41:06.154621308
2025-11-07 12:41:05.646929,-24576,2025-11-07 12:41:06.162313615
2025-11-07 12:41:05.646929,14,2025-11-07 12:41:06.170005923
2025-11-07 12:41:05.646929,3607,2025-11-07 12:41:06.177698230
2025-11-07 12:41:05.646929,32512,2025-11-07 12:41:06.185390538
2025-11-07 12:41:05.646929,13,2025-11-07 12:41:06.193082846
2025-11-07 12:41:05.646929,3320,2025-11-07 12:41:06.200775154
2025-11-07 12:41:05.646929,-32512,2025-11-07 12:41:06.208467462
2025-11-07 12:41:05.646929,12,2025-11-07 12:41:06.216159769
2025-11-07 12:41:05.646929,3081,2025-11-07 12:41:06.223852077
2025-11-07 12:41:05.646929,-30976,2025-11-07 12:41:06.231544385
2025-11-07 12:41:05.646929,11,2025-11-07 12:41:06.239236692
2025-11-07 12:41:05.646929,2847,2025-11-07 12:41:06.246929000
2025-11-07 12:41:05.646929,-12544,2025-11-07 12:41:06.254621308
2025-11-07 12:41:05.646929,10,2025-11-07 12:41:06.262313615
2025-11-07 12:41:05.646929,2678,2025-11-07 12:41:06.270005923
2025-11-07 12:41:05.646929,3584,2025-11-07 12:41:06.277698231
2025-11-07 12:41:05.646929,10,2025-11-07 12:41:06.285390538
2025-11-07 12:41:05.646929,2482,2025-11-07 12:41:06.293082846
2025-11-07 12:41:05.646929,25344,2025-11-07 12:41:06.300775154
2025-11-07 12:41:05.646929,9,2025-11-07 12:41:06.308467462
2025-11-07 12:41:05.646929,2316,2025-11-07 12:41:06.316159769
2025-11-07 12:41:05.646929,-20992,2025-11-07 12:41:06.323852077
2025-11-07 12:41:05.646929,8,2025-11-07 12:41:06.331544385
2025-11-07 12:41:05.646929,2142,2025-11-07 12:41:06.339236692
2025-11-07 12:41:05.646929,6144,2025-11-07 12:41:06.346929000
2025-11-07 12:41:05.646929,8,2025-11-07 12:41:06.354621308
2025-11-07 12:41:05.646929,1997,2025-11-07 12:41:06.362313615
2025-11-07 12:41:05.646929,-31488,2025-11-07 12:41:06.370005923
2025-11-07 12:41:05.646929,7,2025-11-07 12:41:06.377698231
2025-11-07 12:41:05.646929,1853,2025-11-07 12:41:06.385390538
2025-11-07 12:41:05.646929,-512,2025-11-07 12:41:06.393082846
2025-11-07 12:41:05.646929,6,2025-11-07 12:41:06.400775154
2025-11-07 12:41:05.646929,1730,2025-11-07 12:41:06.408467462
2025-11-07 12:41:05.646929,32256,2025-11-07 12:41:06.416159769
2025-11-07 12:41:05.646929,6,2025-11-07 12:41:06.423852077
2025-11-07 12:41:05.646929,1602,2025-11-07 12:41:06.431544385
2025-11-07 12:41:05.646929,3328,2025-11-07 12:41:06.439236692
2025-11-07 12:41:05.646929,6,2025-11-07 12:41:06.446929000
2025-11-07 12:41:05.646929,1491,2025-11-07 12:41:06.454621308
2025-11-07 12:41:05.646929,-26368,2025-11-07 12:41:06.462313615
2025-11-07 12:41:05.646929,5,2025-11-07 12:41:06.470005923
2025-11-07 12:41:05.646929,1370,2025-11-07 12:41:06.477698231
2025-11-07 12:41:06.221895,1317,2025-11-07 12:41:06.485390538
2025-11-07 12:41:06.221895,-3584,2025-11-07 12:41:06.493082846
2025-11-07 12:41:06.221895,4,2025-11-07 12:41:06.500775154
2025-11-07 12:41:06.221895,1204,2025-11-07 12:41:06.508467462
2025-11-07 12:41:06.221895,32256,2025-11-07 12:41:06.516159769
2025-11-07 12:41:06.221895,4,2025-11-07 12:41:06.523852077
2025-11-07 12:41:06.221895,1107,2025-11-07 12:41:06.531544385
2025-11-07 12:41:06.221895,8960,2025-11-07 12:41:06.539236692
2025-11-07 12:41:06.221895,4,2025-11-07 12:41:06.546929000
2025-11-07 12:41:06.221895,1011,2025-11-07 12:41:06.554621308
2025-11-07 12:41:06.221895,-14080,2025-11-07 12:41:06.562313615
2025-11-07 12:41:06.221895,3,2025-11-07 12:41:06.570005923
2025-11-07 12:41:06.221895,948,2025-11-07 12:41:06.577698231
2025-11-07 12:41:06.221895,-29952,2025-11-07 12:41:06.585390538
2025-11-07 12:41:06.221895,3,2025-11-07 12:41:06.593082846
2025-11-07 12:41:06.221895,834,2025-11-07 12:41:06.600775154
2025-11-07 12:41:06.221895,5888,2025-11-07 12:41:06.608467462
2025-11-07 12:41:06.221895,3,2025-11-07 12:41:06.616159769
2025-11-07 12:41:06.221895,764,2025-11-07 12:41:06.623852077
2025-11-07 12:41:06.221895,-12032,2025-11-07 12:41:06.631544385
2025-11-07 12:41:06.221895,2,2025-11-07 12:41:06.639236692
2025-11-07 12:41:06.221895,680,2025-11-07 12:41:06.646929000
2025-11-07 12:41:06.221895,-31232,2025-11-07 12:41:06.654621308
2025-11-07 12:41:06.221895,2,2025-11-07 12:41:06.662313615
2025-11-07 12:41:06.221895,612,2025-11-07 12:41:06.670005923
2025-11-07 12:41:06.221895,15104,2025-11-07 12:41:06.677698231
2025-11-07 12:41:06.221895,2,2025-11-07 12:41:06.685390538
2025-11-07 12:41:06.221895,538,2025-11-07 12:41:06.693082846
2025-11-07 12:41:06.221895,-768,2025-11-07 12:41:06.700775154
2025-11-07 12:41:06.221895,1,2025-11-07 12:41:06.708467462
2025-11-07 12:41:06.221895,475,2025-11-07 12:41:06.716159769
2025-11-07 12:41:06.221895,-18688,2025-11-07 12:41:06.723852077
2025-11-07 12:41:06.221895,1,2025-11-07 12:41:06.731544385
2025-11-07 12:41:06.221895,407,2025-11-07 12:41:06.739236692
2025-11-07 12:41:06.221895,30720,2025-11-07 12:41:06.746929000
2025-11-07 12:41:06.221895,1,2025-11-07 12:41:06.754621308
2025-11-07 12:41:06.221895,347,2025-11-07 12:41:06.762313615
2025-11-07 12:41:06.221895,16384,2025-11-07 12:41:06.770005923
2025-11-07 12:41:06.221895,1,2025-11-07 12:41:06.777698231
2025-11-07 12:41:06.221895,304,2025-11-07 12:41:06.785390538
2025-11-07 12:41:06.221895,4096,2025-11-07 12:41:06.793082846
2025-11-07 12:41:06.221895,1,2025-11-07 12:41:06.800775154
2025-11-07 12:41:06.221895,236,2025-11-07 12:41:06.808467462
2025-11-07 12:41:06.221895,-9472,2025-11-07 12:41:06.816159769
2025-11-07 12:41:06.221895,0,2025-11-07 12:41:06.823852077
2025-11-07 12:41:06.221895,202,2025-11-07 12:41:06.831544385
2025-11-07 12:41:06.221895,-17408,2025-11-07 12:41:06.839236692
2025-11-07 12:41:06.221895,0,2025-11-07 12:41:06.846929000
2025-11-07 12:41:06.221895,176,2025-11-07 12:41:06.854621308
2025-11-07 12:41:06.221895,-26624,2025-11-07 12:41:06.862313615
2025-11-07 12:41:06.221895,0,2025-11-07 12:41:06.870005923
2025-11-07 12:41:06.221895,127,2025-11-07 12:41:06.877698231
2025-11-07 12:41:06.221895,30208,2025-11-07 12:41:06.885390538
2025-11-07 12:41:06.221895,0,2025-11-07 12:41:06.893082846
2025-11-07 12:41:06.221895,98,2025-11-07 12:41:06.900775154
2025-11-07 12:41:06.221895,14592,2025-11-07 12:41:06.908467462
2025-11-07 12:41:06.221895,0,2025-11-07 12:41:06.916159769
2025-11-07 12:41:06.221895,28,2025-11-07 12:41:06.923852077
2025-11-07 12:41:06.221895,4096,2025-11-07 12:41:06.931544385
2025-11-07 12:41:06.221895,0,2025-11-07 12:41:06.939236692
2025-11-07 12:41:06.221895,0,2025-11-07 12:41:06.946929000
2025-11-07 12:41:06.221895,-7168,2025-11-07 12:41:06.954621308
2025-11-07 12:41:06.221895,-1,2025-11-07 12:41:06.962313615
2025-11-07 12:41:06.221895,-94,2025-11-07 12:41:06.970005923
2025-11-07 12:41:06.221895,7935,2025-11-07 12:41:06.977698231
2025-11-07 12:41:06.221895,-1,2025-11-07 12:41:06.985390538
2025-11-07 12:41:06.221895,-267,2025-11-07 12:41:06.993082846
2025-11-07 12:41:06.221895,6399,2025-11-07 12:41:07.000775154
2025-11-07 12:41:06.221895,0,2025-11-07 12:41:07.008467462
2025-11-07 12:41:06.221895,567,2025-11-07 12:41:07.016159769
2025-11-07 12:41:06.221895,26368,2025-11-07 12:41:07.023852077
2025-11-07 12:41:06.221895,3,2025-11-07 12:41:07.031544385
2025-11-07 12:41:06.221895,528,2025-11-07 12:41:07.039236692
2025-11-07 12:41:06.221895,-30208,2025-11-07 12:41:07.046929000
2025-11-07 12:41:06.221895,-1,2025-11-07 12:41:07.054621308
2025-11-07 12:41:06.221895,-347,2025-11-07 12:41:07.062313615
2025-11-07 12:41:06.221895,12287,2025-11-07 12:41:07.070005923
2025-11-07 12:41:06.221895,-1,2025-11-07 12:41:07.077698231
2025-11-07 12:41:06.221895,-183,2025-11-07 12:41:07.085390538
2025-11-07 12:41:06.221895,-2561,2025-11-07 12:41:07.093082846
2025-11-07 12:41:06.221895,-2,2025-11-07 12:41:07.100775154
2025-11-07 12:41:06.221895,-282,2025-11-07 12:41:07.108467462
2025-11-07 12:41:06.221895,-3329,2025-11-07 12:41:07.116159769
2025-11-07 12:41:06.221895,-2,2025-11-07 12:41:07.123852077
2025-11-07 12:41:06.221895,-287,2025-11-07 12:41:07.131544385
2025-11-07 12:41:06.221895,-11265,2025-11-07 12:41:07.139236692
2025-11-07 12:41:06.221895,-2,2025-11-07 12:41:07.146929000
2025-11-07 12:41:06.221895,-299,2025-11-07 12:41:07.154621308
2025-11-07 12:41:06.221895,-13057,2025-11-07 12:41:07.162313615
2025-11-07 12:41:06.221895,-2,2025-11-07 12:41:07.170005923
2025-11-07 12:41:06.221895,-313,2025-11-07 12:41:07.177698230
2025-11-07 12:41:06.221895,-14337,2025-11-07 12:41:07.185390538
2025-11-07 12:41:06.221895,-2,2025-11-07 12:41:07.193082846
2025-11-07 12:41:06.221895,-318,2025-11-07 12:41:07.200775154
2025-11-07 12:41:06.221895,-16897,2025-11-07 12:41:07.208467462
2025-11-07 12:41:06.221895,-2,2025-11-07 12:41:07.216159769
2025-11-07 12:41:06.221895,-323,2025-11-07 12:41:07.223852077
2025-11-07 12:41:06.221895,-12545,2025-11-07 12:41:07.231544385
2025-11-07 12:41:06.221895,-2,2025-11-07 12:41:07.239236692
2025-11-07 12:41:06.221895,-296,2025-11-07 12:41:07.246929000
2025-11-07 12:41:06.221895,-9985,2025-11-07 12:41:07.254621308
2025-11-07 12:41:06.221895,-2,2025-11-07 12:41:07.262313615
2025-11-07 12:41:06.221895,-294,2025-11-07 12:41:07.270005923
2025-11-07 12:41:06.221895,-8193,2025-11-07 12:41:07.277698231
2025-11-07 12:41:06.221895,-2,2025-11-07 12:41:07.285390538
2025-11-07 12:41:06.221895,-279,2025-11-07 12:41:07.293082846
2025-11-07 12:41:06.221895,-3329,2025-11-07 12:41:07.300775154
2025-11-07 12:41:06.221895,-2,2025-11-07 12:41:07.308467462
2025-11-07 12:41:06.221895,-270,2025-11-07 12:41:07.316159769
2025-11-07 12:41:06.761397,-270,2025-11-07 12:41:07.323852077
2025-11-07 12:41:06.761397,-4609,2025-11-07 12:41:07.331544385
2025-11-07 12:41:06.761397,-2,2025-11-07 12:41:07.339236692
2025-11-07 12:41:06.761397,-287,2025-11-07 12:41:07.346929000
2025-11-07 12:41:06.761397,-13057,2025-11-07 12:41:07.354621308
2025-11-07 12:41:06.761397,-2,2025-11-07 12:41:07.362313615
2025-11-07 12:41:06.761397,-337,2025-11-07 12:41:07.370005923
2025-11-07 12:41:06.761397,-28673,2025-11-07 12:41:07.377698231
2025-11-07 12:41:06.761397,-2,2025-11-07 12:41:07.385390538
2025-11-07 12:41:06.761397,-398,2025-11-07 12:41:07.393082846
2025-11-07 12:41:06.761397,22015,2025-11-07 12:41:07.400775154
2025-11-07 12:41:06.761397,-2,2025-11-07 12:41:07.408467462
2025-11-07 12:41:06.761397,-451,2025-11-07 12:41:07.416159769
2025-11-07 12:41:06.761397,11519,2025-11-07 12:41:07.423852077
2025-11-07 12:41:06.761397,-2,2025-11-07 12:41:07.431544385
2025-11-07 12:41:06.761397,-482,2025-11-07 12:41:07.439236692
2025-11-07 12:41:06.761397,4095,2025-11-07 12:41:07.446929000
2025-11-07 12:41:06.761397,-2,2025-11-07 12:41:07.454621308
2025-11-07 12:41:06.761397,-509,2025-11-07 12:41:07.462313615
2025-11-07 12:41:06.761397,2303,2025-11-07 12:41:07.470005923
2025-11-07 12:41:06.761397,-2,2025-11-07 12:41:07.477698231
2025-11-07 12:41:06.761397,-506,2025-11-07 12:41:07.485390538
2025-11-07 12:41:06.761397,-1,2025-11-07 12:41:07.493082846
2025-11-07 12:41:06.761397,-3,2025-11-07 12:41:07.500775154
2025-11-07 12:41:06.761397,-509,2025-11-07 12:41:07.508467462
2025-11-07 12:41:06.761397,3071,2025-11-07 12:41:07.516159769
2025-11-07 12:41:06.761397,-2,2025-11-07 12:41:07.523852077
2025-11-07 12:41:06.761397,-499,2025-11-07 12:41:07.531544385
2025-11-07 12:41:06.761397,1023,2025-11-07 12:41:07.539236692
2025-11-07 12:41:06.761397,-2,2025-11-07 12:41:07.546929000
2025-11-07 12:41:06.761397,-526,2025-11-07 12:41:07.554621308
2025-11-07 12:41:06.761397,-4353,2025-11-07 12:41:07.562313615
2025-11-07 12:41:06.761397,-3,2025-11-07 12:41:07.570005923
2025-11-07 12:41:06.761397,-533,2025-11-07 12:41:07.577698231
2025-11-07 12:41:06.761397,-6401,2025-11-07 12:41:07.585390538
2025-11-07 12:41:06.761397,-3,2025-11-07 12:41:07.593082846
2025-11-07 12:41:06.761397,-538,2025-11-07 12:41:07.600775154
2025-11-07 12:41:06.761397,-6913,2025-11-07 12:41:07.608467462
2025-11-07 12:41:06.761397,-3,2025-11-07 12:41:07.616159769
2025-11-07 12:41:06.761397,-542,2025-11-07 12:41:07.623852077
2025-11-07 12:41:06.761397,-8193,2025-11-07 12:41:07.631544385
2025-11-07 12:41:06.761397,-3,2025-11-07 12:41:07.639236692
2025-11-07 12:41:06.761397,-545,2025-11-07 12:41:07.646929000
2025-11-07 12:41:06.761397,-7425,2025-11-07 12:41:07.654621308
2025-11-07 12:41:06.761397,-3,2025-11-07 12:41:07.662313615
2025-11-07 12:41:06.761397,-547,2025-11-07 12:41:07.670005923
2025-11-07 12:41:06.761397,-10497,2025-11-07 12:41:07.677698231
2025-11-07 12:41:06.761397,-3,2025-11-07 12:41:07.685390538
2025-11-07 12:41:06.761397,-554,2025-11-07 12:41:07.693082846
2025-11-07 12:41:06.761397,-11265,2025-11-07 12:41:07.700775154
2025-11-07 12:41:06.761397,-3,2025-11-07 12:41:07.708467462
2025-11-07 12:41:06.761397,-559,2025-11-07 12:41:07.716159769
2025-11-07 12:41:06.761397,-12545,2025-11-07 12:41:07.723852077
2025-11-07 12:41:06.761397,-3,2025-11-07 12:41:07.731544385
2025-11-07 12:41:06.761397,-564,2025-11-07 12:41:07.739236692
2025-11-07 12:41:06.761397,-13825,2025-11-07 12:41:07.746929000
2025-11-07 12:41:06.761397,-3,2025-11-07 12:41:07.754621308
2025-11-07 12:41:06.761397,-571,2025-11-07 12:41:07.762313615
2025-11-07 12:41:06.761397,-16129,2025-11-07 12:41:07.770005923
2025-11-07 12:41:06.761397,-3,2025-11-07 12:41:07.777698231
2025-11-07 12:41:06.761397,-581,2025-11-07 12:41:07.785390538
2025-11-07 12:41:06.761397,-17921,2025-11-07 12:41:07.793082846
2025-11-07 12:41:06.761397,-3,2025-11-07 12:41:07.800775154
2025-11-07 12:41:06.761397,-586,2025-11-07 12:41:07.808467462
2025-11-07 12:41:06.761397,-19969,2025-11-07 12:41:07.816159769
2025-11-07 12:41:06.761397,-3,2025-11-07 12:41:07.823852077
2025-11-07 12:41:06.761397,-588,2025-11-07 12:41:07.831544385
2025-11-07 12:41:06.761397,-19201,2025-11-07 12:41:07.839236692
2025-11-07 12:41:06.761397,-3,2025-11-07 12:41:07.846929000
2025-11-07 12:41:06.761397,-593,2025-11-07 12:41:07.854621308
2025-11-07 12:41:06.761397,-20993,2025-11-07 12:41:07.862313615
2025-11-07 12:41:06.761397,-3,2025-11-07 12:41:07.870005923
2025-11-07 12:41:06.761397,-595,2025-11-07 12:41:07.877698231
2025-11-07 12:41:06.761397,-21761,2025-11-07 12:41:07.885390538
2025-11-07 12:41:06.761397,-3,2025-11-07 12:41:07.893082846
2025-11-07 12:41:06.761397,-588,2025-11-07 12:41:07.900775154
2025-11-07 12:41:06.761397,-19969,2025-11-07 12:41:07.908467462
2025-11-07 12:41:06.761397,-3,2025-11-07 12:41:07.916159769
2025-11-07 12:41:06.761397,-608,2025-11-07 12:41:07.923852077
2025-11-07 12:41:06.761397,-26625,2025-11-07 12:41:07.931544385
2025-11-07 12:41:06.761397,-3,2025-11-07 12:41:07.939236692
2025-11-07 12:41:06.761397,-615,2025-11-07 12:41:07.946929000
2025-11-07 12:41:06.761397,-26625,2025-11-07 12:41:07.954621308
2025-11-07 12:41:06.761397,-3,2025-11-07 12:41:07.962313615
2025-11-07 12:41:06.761397,-624,2025-11-07 12:41:07.970005923
2025-11-07 12:41:06.761397,-28417,2025-11-07 12:41:07.977698231
2025-11-07 12:41:06.761397,-3,2025-11-07 12:41:07.985390538
2025-11-07 12:41:06.761397,-624,2025-11-07 12:41:07.993082846
2025-11-07 12:41:06.761397,-30465,2025-11-07 12:41:08.000775154
2025-11-07 12:41:06.761397,-3,2025-11-07 12:41:08.008467462
2025-11-07 12:41:06.761397,-634,2025-11-07 12:41:08.016159769
2025-11-07 12:41:06.761397,32767,2025-11-07 12:41:08.023852077
2025-11-07 12:41:06.761397,-3,2025-11-07 12:41:08.031544385
2025-11-07 12:41:06.761397,-646,2025-11-07 12:41:08.039236692
2025-11-07 12:41:06.761397,-32257,2025-11-07 12:41:08.046929000
2025-11-07 12:41:06.761397,-3,2025-11-07 12:41:08.054621308
2025-11-07 12:41:06.761397,-622,2025-11-07 12:41:08.062313615
2025-11-07 12:41:06.761397,-24321,2025-11-07 12:41:08.070005923
2025-11-07 12:41:06.761397,-3,2025-11-07 12:41:08.077698231
2025-11-07 12:41:06.761397,-608,2025-11-07 12:41:08.085390538
2025-11-07 12:41:06.761397,-24833,2025-11-07 12:41:08.093082846
2025-11-07 12:41:06.761397,-3,2025-11-07 12:41:08.100775154
2025-11-07 12:41:06.761397,-608,2025-11-07 12:41:08.108467462
2025-11-07 12:41:06.761397,-26625,2025-11-07 12:41:08.116159769
2025-11-07 12:41:06.761397,-3,2025-11-07 12:41:08.123852077
2025-11-07 12:41:06.761397,-632,2025-11-07 12:41:08.131544385
2025-11-07 12:41:06.761397,-31745,2025-11-07 12:41:08.139236692
2025-11-07 12:41:06.761397,-3,2025-11-07 12:41:08.146929000
2025-11-07 12:41:06.761397,-632,2025-11-07 12:41:08.154621308
2025-11-07 12:41:07.334942,-624,2025-11-07 12:41:08.162313615
2025-11-07 12:41:07.334942,-29697,2025-11-07 12:41:08.170005923
2025-11-07 12:41:07.334942,-3,2025-11-07 12:41:08.177698230
2025-11-07 12:41:07.334942,-653,2025-11-07 12:41:08.185390538
2025-11-07 12:41:07.334942,6143,2025-11-07 12:41:08.193082846
2025-11-07 12:41:07.334942,-3,2025-11-07 12:41:08.200775154
2025-11-07 12:41:07.334942,-844,2025-11-07 12:41:08.208467462
2025-11-07 12:41:07.334942,22271,2025-11-07 12:41:08.216159769
2025-11-07 12:41:07.334942,-3,2025-11-07 12:41:08.223852077
2025-11-07 12:41:07.334942,-185,2025-11-07 12:41:08.231544385
2025-11-07 12:41:07.334942,7423,2025-11-07 12:41:08.239236692
2025-11-07 12:41:07.334942,1,2025-11-07 12:41:08.246929000
2025-11-07 12:41:07.334942,190,2025-11-07 12:41:08.254621308
2025-11-07 12:41:07.334942,16384,2025-11-07 12:41:08.262313615
2025-11-07 12:41:07.334942,-2,2025-11-07 12:41:08.270005923
2025-11-07 12:41:07.334942,-871,2025-11-07 12:41:08.277698231
2025-11-07 12:41:07.334942,-769,2025-11-07 12:41:08.285390538
2025-11-07 12:41:07.334942,-4,2025-11-07 12:41:08.293082846
2025-11-07 12:41:07.334942,-637,2025-11-07 12:41:08.300775154
2025-11-07 12:41:07.334942,25343,2025-11-07 12:41:08.308467462
2025-11-07 12:41:07.334942,-3,2025-11-07 12:41:08.316159769
2025-11-07 12:41:07.334942,-690,2025-11-07 12:41:08.323852077
2025-11-07 12:41:07.334942,26623,2025-11-07 12:41:08.331544385
2025-11-07 12:41:07.334942,-3,2025-11-07 12:41:08.339236692
2025-11-07 12:41:07.334942,-665,2025-11-07 12:41:08.346929000
2025-11-07 12:41:07.334942,25343,2025-11-07 12:41:08.354621308
2025-11-07 12:41:07.334942,-3,2025-11-07 12:41:08.362313615
2025-11-07 12:41:07.334942,-658,2025-11-07 12:41:08.370005923
2025-11-07 12:41:07.334942,30207,2025-11-07 12:41:08.377698231
2025-11-07 12:41:07.334942,-3,2025-11-07 12:41:08.385390538
2025-11-07 12:41:07.334942,-651,2025-11-07 12:41:08.393082846
2025-11-07 12:41:07.334942,31999,2025-11-07 12:41:08.400775154
2025-11-07 12:41:07.334942,-3,2025-11-07 12:41:08.408467462
2025-11-07 12:41:07.334942,-639,2025-11-07 12:41:08.416159769
2025-11-07 12:41:07.334942,-30465,2025-11-07 12:41:08.423852077
2025-11-07 12:41:07.334942,-3,2025-11-07 12:41:08.431544385
2025-11-07 12:41:07.334942,-617,2025-11-07 12:41:08.439236692
2025-11-07 12:41:07.334942,-23041,2025-11-07 12:41:08.446929000
2025-11-07 12:41:07.334942,-3,2025-11-07 12:41:08.454621308
2025-11-07 12:41:07.334942,-583,2025-11-07 12:41:08.462313615
2025-11-07 12:41:07.334942,-14337,2025-11-07 12:41:08.470005923
2025-11-07 12:41:07.334942,-3,2025-11-07 12:41:08.477698231
2025-11-07 12:41:07.334942,-557,2025-11-07 12:41:08.485390538
2025-11-07 12:41:07.334942,-8193,2025-11-07 12:41:08.493082846
2025-11-07 12:41:07.334942,-3,2025-11-07 12:41:08.500775154
2025-11-07 12:41:07.334942,-533,2025-11-07 12:41:08.508467462
2025-11-07 12:41:07.334942,-1281,2025-11-07 12:41:08.516159769
2025-11-07 12:41:07.334942,-3,2025-11-07 12:41:08.523852077
2025-11-07 12:41:07.334942,-499,2025-11-07 12:41:08.531544385
2025-11-07 12:41:07.334942,7935,2025-11-07 12:41:08.539236692
2025-11-07 12:41:07.334942,-2,2025-11-07 12:41:08.546929000
2025-11-07 12:41:07.334942,-470,2025-11-07 12:41:08.554621308
2025-11-07 12:41:07.334942,10495,2025-11-07 12:41:08.562313615
2025-11-07 12:41:07.334942,-2,2025-11-07 12:41:08.570005923
2025-11-07 12:41:07.334942,-480,2025-11-07 12:41:08.577698231
2025-11-07 12:41:07.334942,6655,2025-11-07 12:41:08.585390538
2025-11-07 12:41:07.334942,-2,2025-11-07 12:41:08.593082846
2025-11-07 12:41:07.334942,-504,2025-11-07 12:41:08.600775154
2025-11-07 12:41:07.334942,-3329,2025-11-07 12:41:08.608467462
2025-11-07 12:41:07.334942,-3,2025-11-07 12:41:08.616159769
2025-11-07 12:41:07.334942,-538,2025-11-07 12:41:08.623852077
2025-11-07 12:41:07.334942,-8705,2025-11-07 12:41:08.631544385
2025-11-07 12:41:07.334942,-3,2025-11-07 12:41:08.639236692
2025-11-07 12:41:07.334942,-557,2025-11-07 12:41:08.646929000
2025-11-07 12:41:07.334942,-13825,2025-11-07 12:41:08.654621308
2025-11-07 12:41:07.334942,-3,2025-11-07 12:41:08.662313615
2025-11-07 12:41:07.334942,-564,2025-11-07 12:41:08.670005923
2025-11-07 12:41:07.334942,-13057,2025-11-07 12:41:08.677698231
2025-11-07 12:41:07.334942,-3,2025-11-07 12:41:08.685390538
2025-11-07 12:41:07.334942,-564,2025-11-07 12:41:08.693082846
2025-11-07 12:41:07.334942,-10497,2025-11-07 12:41:08.700775154
2025-11-07 12:41:07.334942,-3,2025-11-07 12:41:08.708467462
2025-11-07 12:41:07.334942,-552,2025-11-07 12:41:08.716159769
2025-11-07 12:41:07.334942,-13057,2025-11-07 12:41:08.723852077
2025-11-07 12:41:07.334942,-3,2025-11-07 12:41:08.731544385
2025-11-07 12:41:07.334942,-579,2025-11-07 12:41:08.739236692
2025-11-07 12:41:07.334942,-18689,2025-11-07 12:41:08.746929000
2025-11-07 12:41:07.334942,-3,2025-11-07 12:41:08.754621308
2025-11-07 12:41:07.334942,-586,2025-11-07 12:41:08.762313615
2025-11-07 12:41:07.334942,-16897,2025-11-07 12:41:08.770005923
2025-11-07 12:41:07.334942,-3,2025-11-07 12:41:08.777698231
2025-11-07 12:41:07.334942,-576,2025-11-07 12:41:08.785390538
2025-11-07 12:41:07.334942,-15617,2025-11-07 12:41:08.793082846
2025-11-07 12:41:07.334942,-3,2025-11-07 12:41:08.800775154
2025-11-07 12:41:07.334942,-574,2025-11-07 12:41:08.808467462
2025-11-07 12:41:07.334942,-13825,2025-11-07 12:41:08.816159769
2025-11-07 12:41:07.334942,-3,2025-11-07 12:41:08.823852077
2025-11-07 12:41:07.334942,-559,2025-11-07 12:41:08.831544385
2025-11-07 12:41:07.334942,-12545,2025-11-07 12:41:08.839236692
2025-11-07 12:41:07.334942,-3,2025-11-07 12:41:08.846929000
2025-11-07 12:41:07.334942,-562,2025-11-07 12:41:08.854621308
2025-11-07 12:41:07.334942,-10497,2025-11-07 12:41:08.862313615
2025-11-07 12:41:07.334942,-3,2025-11-07 12:41:08.870005923
2025-11-07 12:41:07.334942,-547,2025-11-07 12:41:08.877698231
2025-11-07 12:41:07.334942,-10497,2025-11-07 12:41:08.885390538
2025-11-07 12:41:07.334942,-3,2025-11-07 12:41:08.893082846
2025-11-07 12:41:07.334942,-559,2025-11-07 12:41:08.900775154
2025-11-07 12:41:07.334942,-10497,2025-11-07 12:41:08.908467462
2025-11-07 12:41:07.334942,-3,2025-11-07 12:41:08.916159769
2025-11-07 12:41:07.334942,-547,2025-11-07 12:41:08.923852077
2025-11-07 12:41:07.334942,-9473,2025-11-07 12:41:08.931544385
2025-11-07 12:41:07.334942,-3,2025-11-07 12:41:08.939236692
2025-11-07 12:41:07.334942,-552,2025-11-07 12:41:08.946929000
2025-11-07 12:41:07.334942,-11777,2025-11-07 12:41:08.954621308
2025-11-07 12:41:07.334942,-3,2025-11-07 12:41:08.962313615
2025-11-07 12:41:07.334942,-564,2025-11-07 12:41:08.970005923
2025-11-07 12:41:07.334942,-13057,2025-11-07 12:41:08.977698231
2025-11-07 12:41:07.334942,-3,2025-11-07 12:41:08.985390538
2025-11-07 12:41:07.334942,-569,2025-11-07 12:41:08.993082846
2025-11-07 12:41:07.872106,-571,2025-11-07 12:41:09.000775154
2025-11-07 12:41:07.872106,-14849,2025-11-07 12:41:09.008467462
2025-11-07 12:41:07.872106,-3,2025-11-07 12:41:09.016159769
2025-11-07 12:41:07.872106,-571,2025-11-07 12:41:09.023852077
2025-11-07 12:41:07.872106,-15617,2025-11-07 12:41:09.031544385
2025-11-07 12:41:07.872106,-3,2025-11-07 12:41:09.039236692
2025-11-07 12:41:07.872106,-576,2025-11-07 12:41:09.046929000
2025-11-07 12:41:07.872106,-14849,2025-11-07 12:41:09.054621308
2025-11-07 12:41:07.872106,-3,2025-11-07 12:41:09.062313615
2025-11-07 12:41:07.872106,-571,2025-11-07 12:41:09.070005923
2025-11-07 12:41:07.872106,-16897,2025-11-07 12:41:09.077698231
2025-11-07 12:41:07.872106,-3,2025-11-07 12:41:09.085390538
2025-11-07 12:41:07.872106,-574,2025-11-07 12:41:09.093082846
2025-11-07 12:41:07.872106,-16897,2025-11-07 12:41:09.100775154
2025-11-07 12:41:07.872106,-3,2025-11-07 12:41:09.108467462
2025-11-07 12:41:07.872106,-588,2025-11-07 12:41:09.116159769
2025-11-07 12:41:07.872106,-17921,2025-11-07 12:41:09.123852077
2025-11-07 12:41:07.872106,-3,2025-11-07 12:41:09.131544385
2025-11-07 12:41:07.872106,-583,2025-11-07 12:41:09.139236692
2025-11-07 12:41:07.872106,-19969,2025-11-07 12:41:09.146929000
2025-11-07 12:41:07.872106,-3,2025-11-07 12:41:09.154621308
2025-11-07 12:41:07.872106,-591,2025-11-07 12:41:09.162313615
2025-11-07 12:41:07.872106,-17409,2025-11-07 12:41:09.170005923
2025-11-07 12:41:07.872106,-3,2025-11-07 12:41:09.177698230
2025-11-07 12:41:07.872106,-581,2025-11-07 12:41:09.185390538
2025-11-07 12:41:07.872106,-20993,2025-11-07 12:41:09.193082846
2025-11-07 12:41:07.872106,-3,2025-11-07 12:41:09.200775154
2025-11-07 12:41:07.872106,-603,2025-11-07 12:41:09.208467462
2025-11-07 12:41:07.872106,-20993,2025-11-07 12:41:09.216159769
2025-11-07 12:41:07.872106,-3,2025-11-07 12:41:09.223852077
2025-11-07 12:41:07.872106,-581,2025-11-07 12:41:09.231544385
2025-11-07 12:41:07.872106,-14337,2025-11-07 12:41:09.239236692
2025-11-07 12:41:07.872106,-3,2025-11-07 12:41:09.246929000
2025-11-07 12:41:07.872106,-559,2025-11-07 12:41:09.254621308
2025-11-07 12:41:07.872106,-9473,2025-11-07 12:41:09.262313615
2025-11-07 12:41:07.872106,-3,2025-11-07 12:41:09.270005923
2025-11-07 12:41:07.872106,-545,2025-11-07 12:41:09.277698231
2025-11-07 12:41:07.872106,-8705,2025-11-07 12:41:09.285390538
2025-11-07 12:41:07.872106,-3,2025-11-07 12:41:09.293082846
2025-11-07 12:41:07.872106,-554,2025-11-07 12:41:09.300775154
2025-11-07 12:41:07.872106,-10497,2025-11-07 12:41:09.308467462
2025-11-07 12:41:07.872106,-3,2025-11-07 12:41:09.316159769
2025-11-07 12:41:07.872106,-547,2025-11-07 12:41:09.323852077
2025-11-07 12:41:07.872106,-6913,2025-11-07 12:41:09.331544385
2025-11-07 12:41:07.872106,-3,2025-11-07 12:41:09.339236692
2025-11-07 12:41:07.872106,-540,2025-11-07 12:41:09.346929000
2025-11-07 12:41:07.872106,-9985,2025-11-07 12:41:09.354621308
2025-11-07 12:41:07.872106,-3,2025-11-07 12:41:09.362313615
2025-11-07 12:41:07.872106,-632,2025-11-07 12:41:09.370005923
2025-11-07 12:41:07.872106,3583,2025-11-07 12:41:09.377698231
2025-11-07 12:41:07.872106,-3,2025-11-07 12:41:09.385390538
2025-11-07 12:41:07.872106,-658,2025-11-07 12:41:09.393082846
2025-11-07 12:41:07.872106,13311,2025-11-07 12:41:09.400775154
2025-11-07 12:41:07.872106,-1,2025-11-07 12:41:09.408467462
2025-11-07 12:41:07.872106,316,2025-11-07 12:41:09.416159769
2025-11-07 12:41:07.872106,20736,2025-11-07 12:41:09.423852077
2025-11-07 12:41:07.872106,1,2025-11-07 12:41:09.431544385
2025-11-07 12:41:07.872106,-263,2025-11-07 12:41:09.439236692
2025-11-07 12:41:07.872106,-1,2025-11-07 12:41:09.446929000
2025-11-07 12:41:07.872106,-4,2025-11-07 12:41:09.454621308
2025-11-07 12:41:07.872106,-723,2025-11-07 12:41:09.462313615
2025-11-07 12:41:07.872106,-11265,2025-11-07 12:41:09.470005923
2025-11-07 12:41:07.872106,-3,2025-11-07 12:41:09.477698231
2025-11-07 12:41:07.872106,-564,2025-11-07 12:41:09.485390538
2025-11-07 12:41:07.872106,-17921,2025-11-07 12:41:09.493082846
2025-11-07 12:41:07.872106,-3,2025-11-07 12:41:09.500775154
2025-11-07 12:41:07.872106,-559,2025-11-07 12:41:09.508467462
2025-11-07 12:41:07.872106,-11777,2025-11-07 12:41:09.516159769
2025-11-07 12:41:07.872106,-3,2025-11-07 12:41:09.523852077
2025-11-07 12:41:07.872106,-562,2025-11-07 12:41:09.531544385
2025-11-07 12:41:07.872106,-8193,2025-11-07 12:41:09.539236692
2025-11-07 12:41:07.872106,-3,2025-11-07 12:41:09.546929000
2025-11-07 12:41:07.872106,-540,2025-11-07 12:41:09.554621308
2025-11-07 12:41:07.872106,-6913,2025-11-07 12:41:09.562313615
2025-11-07 12:41:07.872106,-3,2025-11-07 12:41:09.570005923
2025-11-07 12:41:07.872106,-528,2025-11-07 12:41:09.577698231
2025-11-07 12:41:07.872106,-1281,2025-11-07 12:41:09.585390538
2025-11-07 12:41:07.872106,-3,2025-11-07 12:41:09.593082846
2025-11-07 12:41:07.872106,-513,2025-11-07 12:41:09.600775154
2025-11-07 12:41:07.872106,2303,2025-11-07 12:41:09.608467462
2025-11-07 12:41:07.872106,-2,2025-11-07 12:41:09.616159769
2025-11-07 12:41:07.872106,-492,2025-11-07 12:41:09.623852077
2025-11-07 12:41:07.872106,9215,2025-11-07 12:41:09.631544385
2025-11-07 12:41:07.872106,-2,2025-11-07 12:41:09.639236692
2025-11-07 12:41:07.872106,-465,2025-11-07 12:41:09.646929000
2025-11-07 12:41:07.872106,15871,2025-11-07 12:41:09.654621308
2025-11-07 12:41:07.872106,-2,2025-11-07 12:41:09.662313615
2025-11-07 12:41:07.872106,-429,2025-11-07 12:41:09.670005923
2025-11-07 12:41:07.872106,26367,2025-11-07 12:41:09.677698231
2025-11-07 12:41:07.872106,-2,2025-11-07 12:41:09.685390538
2025-11-07 12:41:07.872106,-400,2025-11-07 12:41:09.693082846
2025-11-07 12:41:07.872106,31487,2025-11-07 12:41:09.700775154
2025-11-07 12:41:07.872106,-2,2025-11-07 12:41:09.708467462
2025-11-07 12:41:07.872106,-376,2025-11-07 12:41:09.716159769
2025-11-07 12:41:07.872106,-27393,2025-11-07 12:41:09.723852077
2025-11-07 12:41:07.872106,-2,2025-11-07 12:41:09.731544385
2025-11-07 12:41:07.872106,-369,2025-11-07 12:41:09.739236692
2025-11-07 12:41:07.872106,-29953,2025-11-07 12:41:09.746929000
2025-11-07 12:41:07.872106,-2,2025-11-07 12:41:09.754621308
2025-11-07 12:41:07.872106,-383,2025-11-07 12:41:09.762313615
2025-11-07 12:41:07.872106,27647,2025-11-07 12:41:09.770005923
2025-11-07 12:41:07.872106,-2,2025-11-07 12:41:09.777698231
2025-11-07 12:41:07.872106,-429,2025-11-07 12:41:09.785390538
2025-11-07 12:41:07.872106,15359,2025-11-07 12:41:09.793082846
2025-11-07 12:41:07.872106,-2,2025-11-07 12:41:09.800775154
2025-11-07 12:41:07.872106,-465,2025-11-07 12:41:09.808467462
2025-11-07 12:41:07.872106,9727,2025-11-07 12:41:09.816159769
2025-11-07 12:41:07.872106,-2,2025-11-07 12:41:09.823852077
2025-11-07 12:41:07.872106,-484,2025-11-07 12:41:09.831544385
2025-11-07 12:41:08.410164,-487,2025-11-07 12:41:09.839236692
2025-11-07 12:41:08.410164,7935,2025-11-07 12:41:09.846929000
2025-11-07 12:41:08.410164,-2,2025-11-07 12:41:09.854621308
2025-11-07 12:41:08.410164,-475,2025-11-07 12:41:09.862313615
2025-11-07 12:41:08.410164,11519,2025-11-07 12:41:09.870005923
2025-11-07 12:41:08.410164,-2,2025-11-07 12:41:09.877698231
2025-11-07 12:41:08.410164,-458,2025-11-07 12:41:09.885390538
2025-11-07 12:41:08.410164,18943,2025-11-07 12:41:09.893082846
2025-11-07 12:41:08.410164,-2,2025-11-07 12:41:09.900775154
2025-11-07 12:41:08.410164,-427,2025-11-07 12:41:09.908467462
2025-11-07 12:41:08.410164,20991,2025-11-07 12:41:09.916159769
2025-11-07 12:41:08.410164,-2,2025-11-07 12:41:09.923852077
2025-11-07 12:41:08.410164,-434,2025-11-07 12:41:09.931544385
2025-11-07 12:41:08.410164,22015,2025-11-07 12:41:09.939236692
2025-11-07 12:41:08.410164,-2,2025-11-07 12:41:09.946929000
2025-11-07 12:41:08.410164,-422,2025-11-07 12:41:09.954621308
2025-11-07 12:41:08.410164,24575,2025-11-07 12:41:09.962313615
2025-11-07 12:41:08.410164,-2,2025-11-07 12:41:09.970005923
2025-11-07 12:41:08.410164,-412,2025-11-07 12:41:09.977698231
2025-11-07 12:41:08.410164,27135,2025-11-07 12:41:09.985390538
2025-11-07 12:41:08.410164,-2,2025-11-07 12:41:09.993082846
2025-11-07 12:41:08.410164,-405,2025-11-07 12:41:10.000775154
2025-11-07 12:41:08.410164,28927,2025-11-07 12:41:10.008467462
2025-11-07 12:41:08.410164,-2,2025-11-07 12:41:10.016159769
2025-11-07 12:41:08.410164,-390,2025-11-07 12:41:10.023852077
2025-11-07 12:41:08.410164,32511,2025-11-07 12:41:10.031544385
2025-11-07 12:41:08.410164,-2,2025-11-07 12:41:10.039236692
2025-11-07 12:41:08.410164,-381,2025-11-07 12:41:10.046929000
2025-11-07 12:41:08.410164,-30465,2025-11-07 12:41:10.054621308
2025-11-07 12:41:08.410164,-2,2025-11-07 12:41:10.062313615
2025-11-07 12:41:08.410164,-371,2025-11-07 12:41:10.070005923
2025-11-07 12:41:08.410164,-25601,2025-11-07 12:41:10.077698231
2025-11-07 12:41:08.410164,-2,2025-11-07 12:41:10.085390538
2025-11-07 12:41:08.410164,-347,2025-11-07 12:41:10.093082846
2025-11-07 12:41:08.410164,-23553,2025-11-07 12:41:10.100775154
2025-11-07 12:41:08.410164,-2,2025-11-07 12:41:10.108467462
2025-11-07 12:41:08.410164,-359,2025-11-07 12:41:10.116159769
2025-11-07 12:41:08.410164,-26113,2025-11-07 12:41:10.123852077
2025-11-07 12:41:08.410164,-2,2025-11-07 12:41:10.131544385
2025-11-07 12:41:08.410164,-352,2025-11-07 12:41:10.139236692
2025-11-07 12:41:08.410164,-24321,2025-11-07 12:41:10.146929000
2025-11-07 12:41:08.410164,-2,2025-11-07 12:41:10.154621308
2025-11-07 12:41:08.410164,-349,2025-11-07 12:41:10.162313615
2025-11-07 12:41:08.410164,-22529,2025-11-07 12:41:10.170005923
2025-11-07 12:41:08.410164,-2,2025-11-07 12:41:10.177698230
2025-11-07 12:41:08.410164,-347,2025-11-07 12:41:10.185390538
2025-11-07 12:41:08.410164,-22529,2025-11-07 12:41:10.193082846
2025-11-07 12:41:08.410164,-2,2025-11-07 12:41:10.200775154
2025-11-07 12:41:08.410164,-342,2025-11-07 12:41:10.208467462
2025-11-07 12:41:08.410164,-21761,2025-11-07 12:41:10.216159769
2025-11-07 12:41:08.410164,-2,2025-11-07 12:41:10.223852077
2025-11-07 12:41:08.410164,-340,2025-11-07 12:41:10.231544385
2025-11-07 12:41:08.410164,-20481,2025-11-07 12:41:10.239236692
2025-11-07 12:41:08.410164,-2,2025-11-07 12:41:10.246929000
2025-11-07 12:41:08.410164,-332,2025-11-07 12:41:10.254621308
2025-11-07 12:41:08.410164,-18689,2025-11-07 12:41:10.262313615
2025-11-07 12:41:08.410164,-2,2025-11-07 12:41:10.270005923
2025-11-07 12:41:08.410164,-330,2025-11-07 12:41:10.277698231
2025-11-07 12:41:08.410164,-17409,2025-11-07 12:41:10.285390538
2025-11-07 12:41:08.410164,-2,2025-11-07 12:41:10.293082846
2025-11-07 12:41:08.410164,-316,2025-11-07 12:41:10.300775154
2025-11-07 12:41:08.410164,-13057,2025-11-07 12:41:10.308467462
2025-11-07 12:41:08.410164,-2,2025-11-07 12:41:10.316159769
2025-11-07 12:41:08.410164,-311,2025-11-07 12:41:10.323852077
2025-11-07 12:41:08.410164,-16897,2025-11-07 12:41:10.331544385
2025-11-07 12:41:08.410164,-2,2025-11-07 12:41:10.339236692
2025-11-07 12:41:08.410164,-323,2025-11-07 12:41:10.346929000
2025-11-07 12:41:08.410164,-15617,2025-11-07 12:41:10.354621308
2025-11-07 12:41:08.410164,-2,2025-11-07 12:41:10.362313615
2025-11-07 12:41:08.410164,-320,2025-11-07 12:41:10.370005923
2025-11-07 12:41:08.410164,-17409,2025-11-07 12:41:10.377698231
2025-11-07 12:41:08.410164,-2,2025-11-07 12:41:10.385390538
2025-11-07 12:41:08.410164,-325,2025-11-07 12:41:10.393082846
2025-11-07 12:41:08.410164,-17409,2025-11-07 12:41:10.400775154
2025-11-07 12:41:08.410164,-2,2025-11-07 12:41:10.408467462
2025-11-07 12:41:08.410164,-316,2025-11-07 12:41:10.416159769
2025-11-07 12:41:08.410164,-9985,2025-11-07 12:41:10.423852077
2025-11-07 12:41:08.410164,-2,2025-11-07 12:41:10.431544385
2025-11-07 12:41:08.410164,-282,2025-11-07 12:41:10.439236692
2025-11-07 12:41:08.410164,-6913,2025-11-07 12:41:10.446929000
2025-11-07 12:41:08.410164,-2,2025-11-07 12:41:10.454621308
2025-11-07 12:41:08.410164,-284,2025-11-07 12:41:10.462313615
2025-11-07 12:41:08.410164,-5633,2025-11-07 12:41:10.470005923
2025-11-07 12:41:08.410164,-2,2025-11-07 12:41:10.477698231
2025-11-07 12:41:08.410164,-289,2025-11-07 12:41:10.485390538
2025-11-07 12:41:08.410164,-11265,2025-11-07 12:41:10.493082846
2025-11-07 12:41:08.410164,-2,2025-11-07 12:41:10.500775154
2025-11-07 12:41:08.410164,-299,2025-11-07 12:41:10.508467462
2025-11-07 12:41:08.410164,-9985,2025-11-07 12:41:10.516159769
2025-11-07 12:41:08.410164,-2,2025-11-07 12:41:10.523852077
2025-11-07 12:41:08.410164,-291,2025-11-07 12:41:10.531544385
2025-11-07 12:41:08.410164,-9985,2025-11-07 12:41:10.539236692
2025-11-07 12:41:08.410164,-2,2025-11-07 12:41:10.546929000
2025-11-07 12:41:08.410164,-342,2025-11-07 12:41:10.554621308
2025-11-07 12:41:08.410164,12799,2025-11-07 12:41:10.562313615
2025-11-07 12:41:08.410164,-2,2025-11-07 12:41:10.570005923
2025-11-07 12:41:08.410164,-492,2025-11-07 12:41:10.577698231
2025-11-07 12:41:08.410164,19711,2025-11-07 12:41:10.585390538
2025-11-07 12:41:08.410164,-1,2025-11-07 12:41:10.593082846
2025-11-07 12:41:08.410164,383,2025-11-07 12:41:10.600775154
2025-11-07 12:41:08.410164,-14592,2025-11-07 12:41:10.608467462
2025-11-07 12:41:08.410164,2,2025-11-07 12:41:10.616159769
2025-11-07 12:41:08.410164,393,2025-11-07 12:41:10.623852077
2025-11-07 12:41:08.410164,1536,2025-11-07 12:41:10.631544385
2025-11-07 12:41:08.410164,-1,2025-11-07 12:41:10.639236692
2025-11-07 12:41:08.410164,-482,2025-11-07 12:41:10.646929000
2025-11-07 12:41:08.410164,-18689,2025-11-07 12:41:10.654621308
2025-11-07 12:41:08.410164,-2,2025-11-07 12:41:10.662313615
2025-11-07 12:41:08.410164,-287,2025-11-07 12:41:10.670005923
2025-11-07 12:41:09.043434,-349,2025-11-07 12:41:10.677698231
2025-11-07 12:41:09.043434,-21761,2025-11-07 12:41:10.685390538
2025-11-07 12:41:09.043434,-2,2025-11-07 12:41:10.693082846
2025-11-07 12:41:09.043434,-313,2025-11-07 12:41:10.700775154
2025-11-07 12:41:09.043434,-13825,2025-11-07 12:41:10.708467462
2025-11-07 12:41:09.043434,-2,2025-11-07 12:41:10.716159769
2025-11-07 12:41:09.043434,-318,2025-11-07 12:41:10.723852077
2025-11-07 12:41:09.043434,-15105,2025-11-07 12:41:10.731544385
2025-11-07 12:41:09.043434,-2,2025-11-07 12:41:10.739236692
2025-11-07 12:41:09.043434,-306,2025-11-07 12:41:10.746929000
2025-11-07 12:41:09.043434,-9985,2025-11-07 12:41:10.754621308
2025-11-07 12:41:09.043434,-2,2025-11-07 12:41:10.762313615
2025-11-07 12:41:09.043434,-287,2025-11-07 12:41:10.770005923
2025-11-07 12:41:09.043434,-6913,2025-11-07 12:41:10.777698231
2025-11-07 12:41:09.043434,-2,2025-11-07 12:41:10.785390538
2025-11-07 12:41:09.043434,-272,2025-11-07 12:41:10.793082846
2025-11-07 12:41:09.043434,-769,2025-11-07 12:41:10.800775154
2025-11-07 12:41:09.043434,-2,2025-11-07 12:41:10.808467462
2025-11-07 12:41:09.043434,-250,2025-11-07 12:41:10.816159769
2025-11-07 12:41:09.043434,4863,2025-11-07 12:41:10.823852077
2025-11-07 12:41:09.043434,-1,2025-11-07 12:41:10.831544385
2025-11-07 12:41:09.043434,-221,2025-11-07 12:41:10.839236692
2025-11-07 12:41:09.043434,14079,2025-11-07 12:41:10.846929000
2025-11-07 12:41:09.043434,-1,2025-11-07 12:41:10.854621308
2025-11-07 12:41:09.043434,-185,2025-11-07 12:41:10.862313615
2025-11-07 12:41:09.043434,22783,2025-11-07 12:41:10.870005923
2025-11-07 12:41:09.043434,-1,2025-11-07 12:41:10.877698231
2025-11-07 12:41:09.043434,-149,2025-11-07 12:41:10.885390538
2025-11-07 12:41:09.043434,29439,2025-11-07 12:41:10.893082846
2025-11-07 12:41:09.043434,-1,2025-11-07 12:41:10.900775154
2025-11-07 12:41:09.043434,-139,2025-11-07 12:41:10.908467462
2025-11-07 12:41:09.043434,30719,2025-11-07 12:41:10.916159769
2025-11-07 12:41:09.043434,-1,2025-11-07 12:41:10.923852077
2025-11-07 12:41:09.043434,-142,2025-11-07 12:41:10.931544385
2025-11-07 12:41:09.043434,26367,2025-11-07 12:41:10.939236692
2025-11-07 12:41:09.043434,-1,2025-11-07 12:41:10.946929000
2025-11-07 12:41:09.043434,-173,2025-11-07 12:41:10.954621308
2025-11-07 12:41:09.043434,15871,2025-11-07 12:41:10.962313615
2025-11-07 12:41:09.043434,-1,2025-11-07 12:41:10.970005923
2025-11-07 12:41:09.043434,-212,2025-11-07 12:41:10.977698231
2025-11-07 12:41:09.043434,6655,2025-11-07 12:41:10.985390538
2025-11-07 12:41:09.043434,-1,2025-11-07 12:41:10.993082846
2025-11-07 12:41:09.043434,-246,2025-11-07 12:41:11.000775154
2025-11-07 12:41:09.043434,1791,2025-11-07 12:41:11.008467462
2025-11-07 12:41:09.043434,-1,2025-11-07 12:41:11.016159769
2025-11-07 12:41:09.043434,-248,2025-11-07 12:41:11.023852077
2025-11-07 12:41:09.043434,2303,2025-11-07 12:41:11.031544385
2025-11-07 12:41:09.043434,-1,2025-11-07 12:41:11.039236692
2025-11-07 12:41:09.043434,-248,2025-11-07 12:41:11.046929000
2025-11-07 12:41:09.043434,2815,2025-11-07 12:41:11.054621308
2025-11-07 12:41:09.043434,-1,2025-11-07 12:41:11.062313615
2025-11-07 12:41:09.043434,-241,2025-11-07 12:41:11.070005923
2025-11-07 12:41:09.043434,4095,2025-11-07 12:41:11.077698231
2025-11-07 12:41:09.043434,-1,2025-11-07 12:41:11.085390538
2025-11-07 12:41:09.043434,-238,2025-11-07 12:41:11.093082846
2025-11-07 12:41:09.043434,5887,2025-11-07 12:41:11.100775154
2025-11-07 12:41:09.043434,-1,2025-11-07 12:41:11.108467462
2025-11-07 12:41:09.043434,-236,2025-11-07 12:41:11.116159769
2025-11-07 12:41:09.043434,5375,2025-11-07 12:41:11.123852077
2025-11-07 12:41:09.043434,-1,2025-11-07 12:41:11.131544385
2025-11-07 12:41:09.043434,-238,2025-11-07 12:41:11.139236692
2025-11-07 12:41:09.043434,5375,2025-11-07 12:41:11.146929000
2025-11-07 12:41:09.043434,-1,2025-11-07 12:41:11.154621308
2025-11-07 12:41:09.043434,-231,2025-11-07 12:41:11.162313615
2025-11-07 12:41:09.043434,6655,2025-11-07 12:41:11.170005923
2025-11-07 12:41:09.043434,-1,2025-11-07 12:41:11.177698230
2025-11-07 12:41:09.043434,-229,2025-11-07 12:41:11.185390538
2025-11-07 12:41:09.043434,8447,2025-11-07 12:41:11.193082846
2025-11-07 12:41:09.043434,-1,2025-11-07 12:41:11.200775154
2025-11-07 12:41:09.043434,-224,2025-11-07 12:41:11.208467462
2025-11-07 12:41:09.043434,9215,2025-11-07 12:41:11.216159769
2025-11-07 12:41:09.043434,-1,2025-11-07 12:41:11.223852077
2025-11-07 12:41:09.043434,-214,2025-11-07 12:41:11.231544385
2025-11-07 12:41:09.043434,12287,2025-11-07 12:41:11.239236692
2025-11-07 12:41:09.043434,-1,2025-11-07 12:41:11.246929000
2025-11-07 12:41:09.043434,-212,2025-11-07 12:41:11.254621308
2025-11-07 12:41:09.043434,11519,2025-11-07 12:41:11.262313615
2025-11-07 12:41:09.043434,-1,2025-11-07 12:41:11.270005923
2025-11-07 12:41:09.043434,-209,2025-11-07 12:41:11.277698231
2025-11-07 12:41:09.043434,12799,2025-11-07 12:41:11.285390538
2025-11-07 12:41:09.043434,-1,2025-11-07 12:41:11.293082846
2025-11-07 12:41:09.043434,-200,2025-11-07 12:41:11.300775154
2025-11-07 12:41:09.043434,15359,2025-11-07 12:41:11.308467462
2025-11-07 12:41:09.043434,-1,2025-11-07 12:41:11.316159769
2025-11-07 12:41:09.043434,-205,2025-11-07 12:41:11.323852077
2025-11-07 12:41:09.043434,14079,2025-11-07 12:41:11.331544385
2025-11-07 12:41:09.043434,-1,2025-11-07 12:41:11.339236692
2025-11-07 12:41:09.043434,-197,2025-11-07 12:41:11.346929000
2025-11-07 12:41:09.043434,15871,2025-11-07 12:41:11.354621308
2025-11-07 12:41:09.043434,-1,2025-11-07 12:41:11.362313615
2025-11-07 12:41:09.043434,-185,2025-11-07 12:41:11.370005923
2025-11-07 12:41:09.043434,20223,2025-11-07 12:41:11.377698231
2025-11-07 12:41:09.043434,-1,2025-11-07 12:41:11.385390538
2025-11-07 12:41:09.043434,-180,2025-11-07 12:41:11.393082846
2025-11-07 12:41:09.043434,18431,2025-11-07 12:41:11.400775154
2025-11-07 12:41:09.043434,-1,2025-11-07 12:41:11.408467462
2025-11-07 12:41:09.043434,-197,2025-11-07 12:41:11.416159769
2025-11-07 12:41:09.043434,15871,2025-11-07 12:41:11.423852077
2025-11-07 12:41:09.043434,-1,2025-11-07 12:41:11.431544385
2025-11-07 12:41:09.043434,-180,2025-11-07 12:41:11.439236692
2025-11-07 12:41:09.043434,19711,2025-11-07 12:41:11.446929000
2025-11-07 12:41:09.043434,-1,2025-11-07 12:41:11.454621308
2025-11-07 12:41:09.043434,-190,2025-11-07 12:41:11.462313615
2025-11-07 12:41:09.043434,16383,2025-11-07 12:41:11.470005923
2025-11-07 12:41:09.043434,-1,2025-11-07 12:41:11.477698231
2025-11-07 12:41:09.043434,-193,2025-11-07 12:41:11.485390538
2025-11-07 12:41:09.043434,16383,2025-11-07 12:41:11.493082846
2025-11-07 12:41:09.043434,-1,2025-11-07 12:41:11.500775154
2025-11-07 12:41:09.043434,-185,2025-11-07 12:41:11.508467462
2025-11-07 12:41:09.575080,-168,2025-11-07 12:41:11.516159769
2025-11-07 12:41:09.575080,23295,2025-11-07 12:41:11.523852077
2025-11-07 12:41:09.575080,-1,2025-11-07 12:41:11.531544385
2025-11-07 12:41:09.575080,-168,2025-11-07 12:41:11.539236692
2025-11-07 12:41:09.575080,22783,2025-11-07 12:41:11.546929000
2025-11-07 12:41:09.575080,-1,2025-11-07 12:41:11.554621308
2025-11-07 12:41:09.575080,-168,2025-11-07 12:41:11.562313615
2025-11-07 12:41:09.575080,21503,2025-11-07 12:41:11.570005923
2025-11-07 12:41:09.575080,-1,2025-11-07 12:41:11.577698231
2025-11-07 12:41:09.575080,-183,2025-11-07 12:41:11.585390538
2025-11-07 12:41:09.575080,18431,2025-11-07 12:41:11.593082846
2025-11-07 12:41:09.575080,-1,2025-11-07 12:41:11.600775154
2025-11-07 12:41:09.575080,-178,2025-11-07 12:41:11.608467462
2025-11-07 12:41:09.575080,18943,2025-11-07 12:41:11.616159769
2025-11-07 12:41:09.575080,-1,2025-11-07 12:41:11.623852077
2025-11-07 12:41:09.575080,-185,2025-11-07 12:41:11.631544385
2025-11-07 12:41:09.575080,21503,2025-11-07 12:41:11.639236692
2025-11-07 12:41:09.575080,-1,2025-11-07 12:41:11.646929000
2025-11-07 12:41:09.575080,-159,2025-11-07 12:41:11.654621308
2025-11-07 12:41:09.575080,23295,2025-11-07 12:41:11.662313615
2025-11-07 12:41:09.575080,-1,2025-11-07 12:41:11.670005923
2025-11-07 12:41:09.575080,-183,2025-11-07 12:41:11.677698231
2025-11-07 12:41:09.575080,20223,2025-11-07 12:41:11.685390538
2025-11-07 12:41:09.575080,-1,2025-11-07 12:41:11.693082846
2025-11-07 12:41:09.575080,-178,2025-11-07 12:41:11.700775154
2025-11-07 12:41:09.575080,17151,2025-11-07 12:41:11.708467462
2025-11-07 12:41:09.575080,-1,2025-11-07 12:41:11.716159769
2025-11-07 12:41:09.575080,-185,2025-11-07 12:41:11.723852077
2025-11-07 12:41:09.575080,22015,2025-11-07 12:41:11.731544385
2025-11-07 12:41:09.575080,-1,2025-11-07 12:41:11.739236692
2025-11-07 12:41:09.575080,-159,2025-11-07 12:41:11.746929000
2025-11-07 12:41:09.575080,27647,2025-11-07 12:41:11.754621308
2025-11-07 12:41:09.575080,-1,2025-11-07 12:41:11.762313615
2025-11-07 12:41:09.575080,-149,2025-11-07 12:41:11.770005923
2025-11-07 12:41:09.575080,26879,2025-11-07 12:41:11.777698231
2025-11-07 12:41:09.575080,-1,2025-11-07 12:41:11.785390538
2025-11-07 12:41:09.575080,-154,2025-11-07 12:41:11.793082846
2025-11-07 12:41:09.575080,25855,2025-11-07 12:41:11.800775154
2025-11-07 12:41:09.575080,-1,2025-11-07 12:41:11.808467462
2025-11-07 12:41:09.575080,-156,2025-11-07 12:41:11.816159769
2025-11-07 12:41:09.575080,25087,2025-11-07 12:41:11.823852077
2025-11-07 12:41:09.575080,-1,2025-11-07 12:41:11.831544385
2025-11-07 12:41:09.575080,-164,2025-11-07 12:41:11.839236692
2025-11-07 12:41:09.575080,22783,2025-11-07 12:41:11.846929000
2025-11-07 12:41:09.575080,-1,2025-11-07 12:41:11.854621308
2025-11-07 12:41:09.575080,-166,2025-11-07 12:41:11.862313615
2025-11-07 12:41:09.575080,18431,2025-11-07 12:41:11.870005923
2025-11-07 12:41:09.575080,-1,2025-11-07 12:41:11.877698231
2025-11-07 12:41:09.575080,-284,2025-11-07 12:41:11.885390538
2025-11-07 12:41:09.575080,-24833,2025-11-07 12:41:11.893082846
2025-11-07 12:41:09.575080,-2,2025-11-07 12:41:11.900775154
2025-11-07 12:41:09.575080,-132,2025-11-07 12:41:11.908467462
2025-11-07 12:41:09.575080,-29697,2025-11-07 12:41:11.916159769
2025-11-07 12:41:09.575080,1,2025-11-07 12:41:11.923852077
2025-11-07 12:41:09.575080,817,2025-11-07 12:41:11.931544385
2025-11-07 12:41:09.575080,32512,2025-11-07 12:41:11.939236692
2025-11-07 12:41:09.575080,2,2025-11-07 12:41:11.946929000
2025-11-07 12:41:09.575080,-7,2025-11-07 12:41:11.954621308
2025-11-07 12:41:09.575080,-25601,2025-11-07 12:41:11.962313615
2025-11-07 12:41:09.575080,-2,2025-11-07 12:41:11.970005923
2025-11-07 12:41:09.575080,-236,2025-11-07 12:41:11.977698231
2025-11-07 12:41:09.575080,25087,2025-11-07 12:41:11.985390538
2025-11-07 12:41:09.575080,-1,2025-11-07 12:41:11.993082846
2025-11-07 12:41:09.575080,-234,2025-11-07 12:41:12.000775154
2025-11-07 12:41:09.575080,3583,2025-11-07 12:41:12.008467462
2025-11-07 12:41:09.575080,-1,2025-11-07 12:41:12.016159769
2025-11-07 12:41:09.575080,-212,2025-11-07 12:41:12.023852077
2025-11-07 12:41:09.575080,8447,2025-11-07 12:41:12.031544385
2025-11-07 12:41:09.575080,-1,2025-11-07 12:41:12.039236692
2025-11-07 12:41:09.575080,-224,2025-11-07 12:41:12.046929000
2025-11-07 12:41:09.575080,13311,2025-11-07 12:41:12.054621308
2025-11-07 12:41:09.575080,-1,2025-11-07 12:41:12.062313615
2025-11-07 12:41:09.575080,-200,2025-11-07 12:41:12.070005923
2025-11-07 12:41:09.575080,14591,2025-11-07 12:41:12.077698231
2025-11-07 12:41:09.575080,-1,2025-11-07 12:41:12.085390538
2025-11-07 12:41:09.575080,-190,2025-11-07 12:41:12.093082846
2025-11-07 12:41:09.575080,17663,2025-11-07 12:41:12.100775154
2025-11-07 12:41:09.575080,-1,2025-11-07 12:41:12.108467462
2025-11-07 12:41:09.575080,-183,2025-11-07 12:41:12.116159769
2025-11-07 12:41:09.575080,23295,2025-11-07 12:41:12.123852077
2025-11-07 12:41:09.575080,-1,2025-11-07 12:41:12.131544385
2025-11-07 12:41:09.575080,-144,2025-11-07 12:41:12.139236692
2025-11-07 12:41:09.575080,31999,2025-11-07 12:41:12.146929000
2025-11-07 12:41:09.575080,-1,2025-11-07 12:41:12.154621308
2025-11-07 12:41:09.575080,-123,2025-11-07 12:41:12.162313615
2025-11-07 12:41:09.575080,-26113,2025-11-07 12:41:12.170005923
2025-11-07 12:41:09.575080,-1,2025-11-07 12:41:12.177698230
2025-11-07 12:41:09.575080,-79,2025-11-07 12:41:12.185390538
2025-11-07 12:41:09.575080,-17409,2025-11-07 12:41:12.193082846
2025-11-07 12:41:09.575080,-1,2025-11-07 12:41:12.200775154
2025-11-07 12:41:09.575080,-67,2025-11-07 12:41:12.208467462
2025-11-07 12:41:09.575080,-13313,2025-11-07 12:41:12.216159769
2025-11-07 12:41:09.575080,-1,2025-11-07 12:41:12.223852077
2025-11-07 12:41:09.575080,-33,2025-11-07 12:41:12.231544385
2025-11-07 12:41:09.575080,-6913,2025-11-07 12:41:12.239236692
2025-11-07 12:41:09.575080,-1,2025-11-07 12:41:12.246929000
2025-11-07 12:41:09.575080,-21,2025-11-07 12:41:12.254621308
2025-11-07 12:41:09.575080,-5121,2025-11-07 12:41:12.262313615
2025-11-07 12:41:09.575080,-1,2025-11-07 12:41:12.270005923
2025-11-07 12:41:09.575080,-43,2025-11-07 12:41:12.277698231
2025-11-07 12:41:09.575080,-18177,2025-11-07 12:41:12.285390538
2025-11-07 12:41:09.575080,-1,2025-11-07 12:41:12.293082846
2025-11-07 12:41:09.575080,-94,2025-11-07 12:41:12.300775154
2025-11-07 12:41:09.575080,-27905,2025-11-07 12:41:12.308467462
2025-11-07 12:41:09.575080,-1,2025-11-07 12:41:12.316159769
2025-11-07 12:41:09.575080,-127,2025-11-07 12:41:12.323852077
2025-11-07 12:41:09.575080,26879,2025-11-07 12:41:12.331544385
2025-11-07 12:41:09.575080,-1,2025-11-07 12:41:12.339236692
2025-11-07 12:41:09.575080,-166,2025-11-07 12:41:12.346929000
2025-11-07 12:41:10.117079,-159,2025-11-07 12:41:12.354621308
2025-11-07 12:41:10.117079,26367,2025-11-07 12:41:12.362313615
2025-11-07 12:41:10.117079,-1,2025-11-07 12:41:12.370005923
2025-11-07 12:41:10.117079,-154,2025-11-07 12:41:12.377698231
2025-11-07 12:41:10.117079,28159,2025-11-07 12:41:12.385390538
2025-11-07 12:41:10.117079,-1,2025-11-07 12:41:12.393082846
2025-11-07 12:41:10.117079,-144,2025-11-07 12:41:12.400775154
2025-11-07 12:41:10.117079,28927,2025-11-07 12:41:12.408467462
2025-11-07 12:41:10.117079,-1,2025-11-07 12:41:12.416159769
2025-11-07 12:41:10.117079,-139,2025-11-07 12:41:12.423852077
2025-11-07 12:41:10.117079,30719,2025-11-07 12:41:12.431544385
2025-11-07 12:41:10.117079,-1,2025-11-07 12:41:12.439236692
2025-11-07 12:41:10.117079,-130,2025-11-07 12:41:12.446929000
2025-11-07 12:41:10.117079,-28673,2025-11-07 12:41:12.454621308
2025-11-07 12:41:10.117079,-1,2025-11-07 12:41:12.462313615
2025-11-07 12:41:10.117079,-106,2025-11-07 12:41:12.470005923
2025-11-07 12:41:10.117079,31999,2025-11-07 12:41:12.477698231
2025-11-07 12:41:10.117079,-1,2025-11-07 12:41:12.485390538
2025-11-07 12:41:10.117079,-139,2025-11-07 12:41:12.493082846
2025-11-07 12:41:10.117079,-32257,2025-11-07 12:41:12.500775154
2025-11-07 12:41:10.117079,-1,2025-11-07 12:41:12.508467462
2025-11-07 12:41:10.117079,-135,2025-11-07 12:41:12.516159769
2025-11-07 12:41:10.117079,30719,2025-11-07 12:41:12.523852077
2025-11-07 12:41:10.117079,-1,2025-11-07 12:41:12.531544385
2025-11-07 12:41:10.117079,-127,2025-11-07 12:41:12.539236692
2025-11-07 12:41:10.117079,-31233,2025-11-07 12:41:12.546929000
2025-11-07 12:41:10.117079,-1,2025-11-07 12:41:12.554621308
2025-11-07 12:41:10.117079,-127,2025-11-07 12:41:12.562313615
2025-11-07 12:41:10.117079,-31233,2025-11-07 12:41:12.570005923
2025-11-07 12:41:10.117079,-1,2025-11-07 12:41:12.577698231
2025-11-07 12:41:10.117079,-115,2025-11-07 12:41:12.585390538
2025-11-07 12:41:10.117079,-29185,2025-11-07 12:41:12.593082846
2025-11-07 12:41:10.117079,-1,2025-11-07 12:41:12.600775154
2025-11-07 12:41:10.117079,-115,2025-11-07 12:41:12.608467462
2025-11-07 12:41:10.117079,-27393,2025-11-07 12:41:12.616159769
2025-11-07 12:41:10.117079,-1,2025-11-07 12:41:12.623852077
2025-11-07 12:41:10.117079,-106,2025-11-07 12:41:12.631544385
2025-11-07 12:41:10.117079,-27905,2025-11-07 12:41:12.639236692
2025-11-07 12:41:10.117079,-1,2025-11-07 12:41:12.646929000
2025-11-07 12:41:10.117079,-113,2025-11-07 12:41:12.654621308
2025-11-07 12:41:10.117079,-27905,2025-11-07 12:41:12.662313615
2025-11-07 12:41:10.117079,-1,2025-11-07 12:41:12.670005923
2025-11-07 12:41:10.117079,-108,2025-11-07 12:41:12.677698231
2025-11-07 12:41:10.117079,-26881,2025-11-07 12:41:12.685390538
2025-11-07 12:41:10.117079,-1,2025-11-07 12:41:12.693082846
2025-11-07 12:41:10.117079,-108,2025-11-07 12:41:12.700775154
2025-11-07 12:41:10.117079,-26881,2025-11-07 12:41:12.708467462
2025-11-07 12:41:10.117079,-1,2025-11-07 12:41:12.716159769
2025-11-07 12:41:10.117079,-103,2025-11-07 12:41:12.723852077
2025-11-07 12:41:10.117079,-27393,2025-11-07 12:41:12.731544385
2025-11-07 12:41:10.117079,-1,2025-11-07 12:41:12.739236692
2025-11-07 12:41:10.117079,-110,2025-11-07 12:41:12.746929000
2025-11-07 12:41:10.117079,-26881,2025-11-07 12:41:12.754621308
2025-11-07 12:41:10.117079,-1,2025-11-07 12:41:12.762313615
2025-11-07 12:41:10.117079,-106,2025-11-07 12:41:12.770005923
2025-11-07 12:41:10.117079,-26881,2025-11-07 12:41:12.777698231
2025-11-07 12:41:10.117079,-1,2025-11-07 12:41:12.785390538
2025-11-07 12:41:10.117079,-103,2025-11-07 12:41:12.793082846
2025-11-07 12:41:10.117079,-26881,2025-11-07 12:41:12.800775154
2025-11-07 12:41:10.117079,-1,2025-11-07 12:41:12.808467462
2025-11-07 12:41:10.117079,-110,2025-11-07 12:41:12.816159769
2025-11-07 12:41:10.117079,-27393,2025-11-07 12:41:12.823852077
2025-11-07 12:41:10.117079,-1,2025-11-07 12:41:12.831544385
2025-11-07 12:41:10.117079,-106,2025-11-07 12:41:12.839236692
2025-11-07 12:41:10.117079,-27393,2025-11-07 12:41:12.846929000
2025-11-07 12:41:10.117079,-1,2025-11-07 12:41:12.854621308
2025-11-07 12:41:10.117079,-108,2025-11-07 12:41:12.862313615
2025-11-07 12:41:10.117079,-27905,2025-11-07 12:41:12.870005923
2025-11-07 12:41:10.117079,-1,2025-11-07 12:41:12.877698231
2025-11-07 12:41:10.117079,-110,2025-11-07 12:41:12.885390538
2025-11-07 12:41:10.117079,-27905,2025-11-07 12:41:12.893082846
2025-11-07 12:41:10.117079,-1,2025-11-07 12:41:12.900775154
2025-11-07 12:41:10.117079,-113,2025-11-07 12:41:12.908467462
2025-11-07 12:41:10.117079,-27393,2025-11-07 12:41:12.916159769
2025-11-07 12:41:10.117079,-1,2025-11-07 12:41:12.923852077
2025-11-07 12:41:10.117079,-94,2025-11-07 12:41:12.931544385
2025-11-07 12:41:10.117079,-23041,2025-11-07 12:41:12.939236692
2025-11-07 12:41:10.117079,-1,2025-11-07 12:41:12.946929000
2025-11-07 12:41:10.117079,-113,2025-11-07 12:41:12.954621308
2025-11-07 12:41:10.117079,30207,2025-11-07 12:41:12.962313615
2025-11-07 12:41:10.117079,-1,2025-11-07 12:41:12.970005923
2025-11-07 12:41:10.117079,-135,2025-11-07 12:41:12.977698231
2025-11-07 12:41:10.117079,-31233,2025-11-07 12:41:12.985390538
2025-11-07 12:41:10.117079,-1,2025-11-07 12:41:12.993082846
2025-11-07 12:41:10.117079,-135,2025-11-07 12:41:13.000775154
2025-11-07 12:41:10.117079,30719,2025-11-07 12:41:13.008467462
2025-11-07 12:41:10.117079,-1,2025-11-07 12:41:13.016159769
2025-11-07 12:41:10.117079,-125,2025-11-07 12:41:13.023852077
2025-11-07 12:41:10.117079,-32257,2025-11-07 12:41:13.031544385
2025-11-07 12:41:10.117079,-1,2025-11-07 12:41:13.039236692
2025-11-07 12:41:10.117079,-132,2025-11-07 12:41:13.046929000
2025-11-07 12:41:10.117079,31231,2025-11-07 12:41:13.054621308
2025-11-07 12:41:10.117079,-1,2025-11-07 12:41:13.062313615
2025-11-07 12:41:10.117079,-147,2025-11-07 12:41:13.070005923
2025-11-07 12:41:10.117079,26367,2025-11-07 12:41:13.077698231
2025-11-07 12:41:10.117079,-1,2025-11-07 12:41:13.085390538
2025-11-07 12:41:10.117079,-152,2025-11-07 12:41:13.093082846
2025-11-07 12:41:10.117079,27647,2025-11-07 12:41:13.100775154
2025-11-07 12:41:10.117079,-1,2025-11-07 12:41:13.108467462
2025-11-07 12:41:10.117079,-144,2025-11-07 12:41:13.116159769
2025-11-07 12:41:10.117079,26879,2025-11-07 12:41:13.123852077
2025-11-07 12:41:10.117079,-1,2025-11-07 12:41:13.131544385
2025-11-07 12:41:10.117079,-248,2025-11-07 12:41:13.139236692
2025-11-07 12:41:10.117079,-32257,2025-11-07 12:41:13.146929000
2025-11-07 12:41:10.117079,-2,2025-11-07 12:41:13.154621308
2025-11-07 12:41:10.117079,-294,2025-11-07 12:41:13.162313615
2025-11-07 12:41:10.117079,-27137,2025-11-07 12:41:13.170005923
2025-11-07 12:41:10.117079,0,2025-11-07 12:41:13.177698230
2025-11-07 12:41:10.117079,661,2025-11-07 12:41:13.185390538
2025-11-07 12:41:10.694237,665,2025-11-07 12:41:13.193082846
2025-11-07 12:41:10.694237,12800,2025-11-07 12:41:13.200775154
2025-11-07 12:41:10.694237,0,2025-11-07 12:41:13.208467462
2025-11-07 12:41:10.694237,-434,2025-11-07 12:41:13.216159769
2025-11-07 12:41:10.694237,-27393,2025-11-07 12:41:13.223852077
2025-11-07 12:41:10.694237,-2,2025-11-07 12:41:13.231544385
2025-11-07 12:41:10.694237,-200,2025-11-07 12:41:13.239236692
2025-11-07 12:41:10.694237,12799,2025-11-07 12:41:13.246929000
2025-11-07 12:41:10.694237,-1,2025-11-07 12:41:13.254621308
2025-11-07 12:41:10.694237,-207,2025-11-07 12:41:13.262313615
2025-11-07 12:41:10.694237,19711,2025-11-07 12:41:13.270005923
2025-11-07 12:41:10.694237,-1,2025-11-07 12:41:13.277698231
2025-11-07 12:41:10.694237,-193,2025-11-07 12:41:13.285390538
2025-11-07 12:41:10.694237,17151,2025-11-07 12:41:13.293082846
2025-11-07 12:41:10.694237,-1,2025-11-07 12:41:13.300775154
2025-11-07 12:41:10.694237,-166,2025-11-07 12:41:13.308467462
2025-11-07 12:41:10.694237,23807,2025-11-07 12:41:13.316159769
2025-11-07 12:41:10.694237,-1,2025-11-07 12:41:13.323852077
2025-11-07 12:41:10.694237,-173,2025-11-07 12:41:13.331544385
2025-11-07 12:41:10.694237,22783,2025-11-07 12:41:13.339236692
2025-11-07 12:41:10.694237,-1,2025-11-07 12:41:13.346929000
2025-11-07 12:41:10.694237,-164,2025-11-07 12:41:13.354621308
2025-11-07 12:41:10.694237,23807,2025-11-07 12:41:13.362313615
2025-11-07 12:41:10.694237,-1,2025-11-07 12:41:13.370005923
2025-11-07 12:41:10.694237,-152,2025-11-07 12:41:13.377698231
2025-11-07 12:41:10.694237,-32257,2025-11-07 12:41:13.385390538
2025-11-07 12:41:10.694237,-1,2025-11-07 12:41:13.393082846
2025-11-07 12:41:10.694237,-110,2025-11-07 12:41:13.400775154
2025-11-07 12:41:10.694237,-29953,2025-11-07 12:41:13.408467462
2025-11-07 12:41:10.694237,-1,2025-11-07 12:41:13.416159769
2025-11-07 12:41:10.694237,-108,2025-11-07 12:41:13.423852077
2025-11-07 12:41:10.694237,-18689,2025-11-07 12:41:13.431544385
2025-11-07 12:41:10.694237,-1,2025-11-07 12:41:13.439236692
2025-11-07 12:41:10.694237,-43,2025-11-07 12:41:13.446929000
2025-11-07 12:41:10.694237,-5889,2025-11-07 12:41:13.454621308
2025-11-07 12:41:10.694237,-1,2025-11-07 12:41:13.462313615
2025-11-07 12:41:10.694237,-16,2025-11-07 12:41:13.470005923
2025-11-07 12:41:10.694237,-2049,2025-11-07 12:41:13.477698231
2025-11-07 12:41:10.694237,-1,2025-11-07 12:41:13.485390538
2025-11-07 12:41:10.694237,0,2025-11-07 12:41:13.493082846
2025-11-07 12:41:10.694237,-1024,2025-11-07 12:41:13.500775154
2025-11-07 12:41:10.694237,-1,2025-11-07 12:41:13.508467462
2025-11-07 12:41:10.694237,-12,2025-11-07 12:41:13.516159769
2025-11-07 12:41:10.694237,-5889,2025-11-07 12:41:13.523852077
2025-11-07 12:41:10.694237,-1,2025-11-07 12:41:13.531544385
2025-11-07 12:41:10.694237,-48,2025-11-07 12:41:13.539236692
2025-11-07 12:41:10.694237,-19457,2025-11-07 12:41:13.546929000
2025-11-07 12:41:10.694237,-1,2025-11-07 12:41:13.554621308
2025-11-07 12:41:10.694237,-103,2025-11-07 12:41:13.562313615
2025-11-07 12:41:10.694237,-31745,2025-11-07 12:41:13.570005923
2025-11-07 12:41:10.694237,-1,2025-11-07 12:41:13.577698231
2025-11-07 12:41:10.694237,-147,2025-11-07 12:41:13.585390538
2025-11-07 12:41:10.694237,25855,2025-11-07 12:41:13.593082846
2025-11-07 12:41:10.694237,-1,2025-11-07 12:41:13.600775154
2025-11-07 12:41:10.694237,-156,2025-11-07 12:41:13.608467462
2025-11-07 12:41:10.694237,21503,2025-11-07 12:41:13.616159769
2025-11-07 12:41:10.694237,-1,2025-11-07 12:41:13.623852077
2025-11-07 12:41:10.694237,-178,2025-11-07 12:41:13.631544385
2025-11-07 12:41:10.694237,22783,2025-11-07 12:41:13.639236692
2025-11-07 12:41:10.694237,-1,2025-11-07 12:41:13.646929000
2025-11-07 12:41:10.694237,-164,2025-11-07 12:41:13.654621308
2025-11-07 12:41:10.694237,26879,2025-11-07 12:41:13.662313615
2025-11-07 12:41:10.694237,-1,2025-11-07 12:41:13.670005923
2025-11-07 12:41:10.694237,-152,2025-11-07 12:41:13.677698231
2025-11-07 12:41:10.694237,22783,2025-11-07 12:41:13.685390538
2025-11-07 12:41:10.694237,-1,2025-11-07 12:41:13.693082846
2025-11-07 12:41:10.694237,-178,2025-11-07 12:41:13.700775154
2025-11-07 12:41:10.694237,20223,2025-11-07 12:41:13.708467462
2025-11-07 12:41:10.694237,-1,2025-11-07 12:41:13.716159769
2025-11-07 12:41:10.694237,-178,2025-11-07 12:41:13.723852077
2025-11-07 12:41:10.694237,20223,2025-11-07 12:41:13.731544385
2025-11-07 12:41:10.694237,-1,2025-11-07 12:41:13.739236692
2025-11-07 12:41:10.694237,-178,2025-11-07 12:41:13.746929000
2025-11-07 12:41:10.694237,21503,2025-11-07 12:41:13.754621308
2025-11-07 12:41:10.694237,-1,2025-11-07 12:41:13.762313615
2025-11-07 12:41:10.694237,-159,2025-11-07 12:41:13.770005923
2025-11-07 12:41:10.694237,23807,2025-11-07 12:41:13.777698231
2025-11-07 12:41:10.694237,-1,2025-11-07 12:41:13.785390538
2025-11-07 12:41:10.694237,-180,2025-11-07 12:41:13.793082846
2025-11-07 12:41:10.694237,22015,2025-11-07 12:41:13.800775154
2025-11-07 12:41:10.694237,-1,2025-11-07 12:41:13.808467462
2025-11-07 12:41:10.694237,-156,2025-11-07 12:41:13.816159769
2025-11-07 12:41:10.694237,24575,2025-11-07 12:41:13.823852077
2025-11-07 12:41:10.694237,-1,2025-11-07 12:41:13.831544385
2025-11-07 12:41:10.694237,-164,2025-11-07 12:41:13.839236692
2025-11-07 12:41:10.694237,25855,2025-11-07 12:41:13.846929000
2025-11-07 12:41:10.694237,-1,2025-11-07 12:41:13.854621308
2025-11-07 12:41:10.694237,-156,2025-11-07 12:41:13.862313615
2025-11-07 12:41:10.694237,25087,2025-11-07 12:41:13.870005923
2025-11-07 12:41:10.694237,-1,2025-11-07 12:41:13.877698231
2025-11-07 12:41:10.694237,-156,2025-11-07 12:41:13.885390538
2025-11-07 12:41:10.694237,25087,2025-11-07 12:41:13.893082846
2025-11-07 12:41:10.694237,-1,2025-11-07 12:41:13.900775154
2025-11-07 12:41:10.694237,-159,2025-11-07 12:41:13.908467462
2025-11-07 12:41:10.694237,25087,2025-11-07 12:41:13.916159769
2025-11-07 12:41:10.694237,-1,2025-11-07 12:41:13.923852077
2025-11-07 12:41:10.694237,-156,2025-11-07 12:41:13.931544385
2025-11-07 12:41:10.694237,27647,2025-11-07 12:41:13.939236692
2025-11-07 12:41:10.694237,-1,2025-11-07 12:41:13.946929000
2025-11-07 12:41:10.694237,-139,2025-11-07 12:41:13.954621308
2025-11-07 12:41:10.694237,30719,2025-11-07 12:41:13.962313615
2025-11-07 12:41:10.694237,-1,2025-11-07 12:41:13.970005923
2025-11-07 12:41:10.694237,-139,2025-11-07 12:41:13.977698231
2025-11-07 12:41:10.694237,30207,2025-11-07 12:41:13.985390538
2025-11-07 12:41:10.694237,-1,2025-11-07 12:41:13.993082846
2025-11-07 12:41:10.694237,-139,2025-11-07 12:41:14.000775154
2025-11-07 12:41:10.694237,27647,2025-11-07 12:41:14.008467462
2025-11-07 12:41:10.694237,-1,2025-11-07 12:41:14.016159769
2025-11-07 12:41:10.694237,-156,2025-11-07 12:41:14.023852077
2025-11-07 12:41:11.261381,-156,2025-11-07 12:41:14.031544385
2025-11-07 12:41:11.261381,25855,2025-11-07 12:41:14.039236692
2025-11-07 12:41:11.261381,-1,2025-11-07 12:41:14.046929000
2025-11-07 12:41:11.261381,-156,2025-11-07 12:41:14.054621308
2025-11-07 12:41:11.261381,25855,2025-11-07 12:41:14.062313615
2025-11-07 12:41:11.261381,-1,2025-11-07 12:41:14.070005923
2025-11-07 12:41:11.261381,-161,2025-11-07 12:41:14.077698231
2025-11-07 12:41:11.261381,22783,2025-11-07 12:41:14.085390538
2025-11-07 12:41:11.261381,-1,2025-11-07 12:41:14.093082846
2025-11-07 12:41:11.261381,-183,2025-11-07 12:41:14.100775154
2025-11-07 12:41:11.261381,17151,2025-11-07 12:41:14.108467462
2025-11-07 12:41:11.261381,-1,2025-11-07 12:41:14.116159769
2025-11-07 12:41:11.261381,-185,2025-11-07 12:41:14.123852077
2025-11-07 12:41:11.261381,18431,2025-11-07 12:41:14.131544385
2025-11-07 12:41:11.261381,-1,2025-11-07 12:41:14.139236692
2025-11-07 12:41:11.261381,-180,2025-11-07 12:41:14.146929000
2025-11-07 12:41:11.261381,22783,2025-11-07 12:41:14.154621308
2025-11-07 12:41:11.261381,-1,2025-11-07 12:41:14.162313615
2025-11-07 12:41:11.261381,-185,2025-11-07 12:41:14.170005923
2025-11-07 12:41:11.261381,12287,2025-11-07 12:41:14.177698230
2025-11-07 12:41:11.261381,-1,2025-11-07 12:41:14.185390538
2025-11-07 12:41:11.261381,-205,2025-11-07 12:41:14.193082846
2025-11-07 12:41:11.261381,15359,2025-11-07 12:41:14.200775154
2025-11-07 12:41:11.261381,-1,2025-11-07 12:41:14.208467462
2025-11-07 12:41:11.261381,-217,2025-11-07 12:41:14.216159769
2025-11-07 12:41:11.261381,9727,2025-11-07 12:41:14.223852077
2025-11-07 12:41:11.261381,-1,2025-11-07 12:41:14.231544385
2025-11-07 12:41:11.261381,-202,2025-11-07 12:41:14.239236692
2025-11-07 12:41:11.261381,15871,2025-11-07 12:41:14.246929000
2025-11-07 12:41:11.261381,-1,2025-11-07 12:41:14.254621308
2025-11-07 12:41:11.261381,-190,2025-11-07 12:41:14.262313615
2025-11-07 12:41:11.261381,13311,2025-11-07 12:41:14.270005923
2025-11-07 12:41:11.261381,-1,2025-11-07 12:41:14.277698231
2025-11-07 12:41:11.261381,-289,2025-11-07 12:41:14.285390538
2025-11-07 12:41:11.261381,-29953,2025-11-07 12:41:14.293082846
2025-11-07 12:41:11.261381,-2,2025-11-07 12:41:14.300775154
2025-11-07 12:41:11.261381,-205,2025-11-07 12:41:14.308467462
2025-11-07 12:41:11.261381,13055,2025-11-07 12:41:14.316159769
2025-11-07 12:41:11.261381,1,2025-11-07 12:41:14.323852077
2025-11-07 12:41:11.261381,793,2025-11-07 12:41:14.331544385
2025-11-07 12:41:11.261381,-15104,2025-11-07 12:41:14.339236692
2025-11-07 12:41:11.261381,2,2025-11-07 12:41:14.346929000
2025-11-07 12:41:11.261381,84,2025-11-07 12:41:14.354621308
2025-11-07 12:41:11.261381,-20736,2025-11-07 12:41:14.362313615
2025-11-07 12:41:11.261381,-2,2025-11-07 12:41:14.370005923
2025-11-07 12:41:11.261381,-248,2025-11-07 12:41:14.377698231
2025-11-07 12:41:11.261381,-31745,2025-11-07 12:41:14.385390538
2025-11-07 12:41:11.261381,-1,2025-11-07 12:41:14.393082846
2025-11-07 12:41:11.261381,-180,2025-11-07 12:41:14.400775154
2025-11-07 12:41:11.261381,12287,2025-11-07 12:41:14.408467462
2025-11-07 12:41:11.261381,-1,2025-11-07 12:41:14.416159769
2025-11-07 12:41:11.261381,-180,2025-11-07 12:41:14.423852077
2025-11-07 12:41:11.261381,20223,2025-11-07 12:41:14.431544385
2025-11-07 12:41:11.261381,-1,2025-11-07 12:41:14.439236692
2025-11-07 12:41:11.261381,-183,2025-11-07 12:41:14.446929000
2025-11-07 12:41:11.261381,20223,2025-11-07 12:41:14.454621308
2025-11-07 12:41:11.261381,-1,2025-11-07 12:41:14.462313615
2025-11-07 12:41:11.261381,-176,2025-11-07 12:41:14.470005923
2025-11-07 12:41:11.261381,18943,2025-11-07 12:41:14.477698231
2025-11-07 12:41:11.261381,-1,2025-11-07 12:41:14.485390538
2025-11-07 12:41:11.261381,-200,2025-11-07 12:41:14.493082846
2025-11-07 12:41:11.261381,14079,2025-11-07 12:41:14.500775154
2025-11-07 12:41:11.261381,-1,2025-11-07 12:41:14.508467462
2025-11-07 12:41:11.261381,-195,2025-11-07 12:41:14.516159769
2025-11-07 12:41:11.261381,17663,2025-11-07 12:41:14.523852077
2025-11-07 12:41:11.261381,-1,2025-11-07 12:41:14.531544385
2025-11-07 12:41:11.261381,-178,2025-11-07 12:41:14.539236692
2025-11-07 12:41:11.261381,22783,2025-11-07 12:41:14.546929000
2025-11-07 12:41:11.261381,-1,2025-11-07 12:41:14.554621308
2025-11-07 12:41:11.261381,-152,2025-11-07 12:41:14.562313615
2025-11-07 12:41:11.261381,31231,2025-11-07 12:41:14.570005923
2025-11-07 12:41:11.261381,-1,2025-11-07 12:41:14.577698231
2025-11-07 12:41:11.261381,-120,2025-11-07 12:41:14.585390538
2025-11-07 12:41:11.261381,-24833,2025-11-07 12:41:14.593082846
2025-11-07 12:41:11.261381,-1,2025-11-07 12:41:14.600775154
2025-11-07 12:41:11.261381,-77,2025-11-07 12:41:14.608467462
2025-11-07 12:41:11.261381,-15617,2025-11-07 12:41:14.616159769
2025-11-07 12:41:11.261381,-1,2025-11-07 12:41:14.623852077
2025-11-07 12:41:11.261381,-53,2025-11-07 12:41:14.631544385
2025-11-07 12:41:11.261381,-12545,2025-11-07 12:41:14.639236692
2025-11-07 12:41:11.261381,-1,2025-11-07 12:41:14.646929000
2025-11-07 12:41:11.261381,-53,2025-11-07 12:41:14.654621308
2025-11-07 12:41:11.261381,-15617,2025-11-07 12:41:14.662313615
2025-11-07 12:41:11.261381,-1,2025-11-07 12:41:14.670005923
2025-11-07 12:41:11.261381,-86,2025-11-07 12:41:14.677698231
2025-11-07 12:41:11.261381,-28673,2025-11-07 12:41:14.685390538
2025-11-07 12:41:11.261381,-1,2025-11-07 12:41:14.693082846
2025-11-07 12:41:11.261381,-135,2025-11-07 12:41:14.700775154
2025-11-07 12:41:11.261381,26367,2025-11-07 12:41:14.708467462
2025-11-07 12:41:11.261381,-1,2025-11-07 12:41:14.716159769
2025-11-07 12:41:11.261381,-173,2025-11-07 12:41:14.723852077
2025-11-07 12:41:11.261381,17151,2025-11-07 12:41:14.731544385
2025-11-07 12:41:11.261381,-1,2025-11-07 12:41:14.739236692
2025-11-07 12:41:11.261381,-195,2025-11-07 12:41:14.746929000
2025-11-07 12:41:11.261381,15359,2025-11-07 12:41:14.754621308
2025-11-07 12:41:11.261381,-1,2025-11-07 12:41:14.762313615
2025-11-07 12:41:11.261381,-197,2025-11-07 12:41:14.770005923
2025-11-07 12:41:11.261381,16383,2025-11-07 12:41:14.777698231
2025-11-07 12:41:11.261381,-1,2025-11-07 12:41:14.785390538
2025-11-07 12:41:11.261381,-190,2025-11-07 12:41:14.793082846
2025-11-07 12:41:11.261381,17151,2025-11-07 12:41:14.800775154
2025-11-07 12:41:11.261381,-1,2025-11-07 12:41:14.808467462
2025-11-07 12:41:11.261381,-193,2025-11-07 12:41:14.816159769
2025-11-07 12:41:11.261381,17151,2025-11-07 12:41:14.823852077
2025-11-07 12:41:11.261381,-1,2025-11-07 12:41:14.831544385
2025-11-07 12:41:11.261381,-185,2025-11-07 12:41:14.839236692
2025-11-07 12:41:11.261381,17663,2025-11-07 12:41:14.846929000
2025-11-07 12:41:11.261381,-1,2025-11-07 12:41:14.854621308
2025-11-07 12:41:11.261381,-190,2025-11-07 12:41:14.862313615
2025-11-07 12:41:11.796077,-183,2025-11-07 12:41:14.870005923
2025-11-07 12:41:11.796077,19711,2025-11-07 12:41:14.877698231
2025-11-07 12:41:11.796077,-1,2025-11-07 12:41:14.885390538
2025-11-07 12:41:11.796077,-180,2025-11-07 12:41:14.893082846
2025-11-07 12:41:11.796077,19711,2025-11-07 12:41:14.900775154
2025-11-07 12:41:11.796077,-1,2025-11-07 12:41:14.908467462
2025-11-07 12:41:11.796077,-173,2025-11-07 12:41:14.916159769
2025-11-07 12:41:11.796077,24575,2025-11-07 12:41:14.923852077
2025-11-07 12:41:11.796077,-1,2025-11-07 12:41:14.931544385
2025-11-07 12:41:11.796077,-142,2025-11-07 12:41:14.939236692
2025-11-07 12:41:11.796077,-31233,2025-11-07 12:41:14.946929000
2025-11-07 12:41:11.796077,-1,2025-11-07 12:41:14.954621308
2025-11-07 12:41:11.796077,-113,2025-11-07 12:41:14.962313615
2025-11-07 12:41:11.796077,-26113,2025-11-07 12:41:14.970005923
2025-11-07 12:41:11.796077,-1,2025-11-07 12:41:14.977698231
2025-11-07 12:41:11.796077,-103,2025-11-07 12:41:14.985390538
2025-11-07 12:41:11.796077,-29185,2025-11-07 12:41:14.993082846
2025-11-07 12:41:11.796077,-1,2025-11-07 12:41:15.000775154
2025-11-07 12:41:11.796077,-106,2025-11-07 12:41:15.008467462
2025-11-07 12:41:11.796077,-23809,2025-11-07 12:41:15.016159769
2025-11-07 12:41:11.796077,-1,2025-11-07 12:41:15.023852077
2025-11-07 12:41:11.796077,-101,2025-11-07 12:41:15.031544385
2025-11-07 12:41:11.796077,-25601,2025-11-07 12:41:15.039236692
2025-11-07 12:41:11.796077,-1,2025-11-07 12:41:15.046929000
2025-11-07 12:41:11.796077,-94,2025-11-07 12:41:15.054621308
2025-11-07 12:41:11.796077,-24321,2025-11-07 12:41:15.062313615
2025-11-07 12:41:11.796077,-1,2025-11-07 12:41:15.070005923
2025-11-07 12:41:11.796077,-98,2025-11-07 12:41:15.077698231
2025-11-07 12:41:11.796077,-24321,2025-11-07 12:41:15.085390538
2025-11-07 12:41:11.796077,-1,2025-11-07 12:41:15.093082846
2025-11-07 12:41:11.796077,-91,2025-11-07 12:41:15.100775154
2025-11-07 12:41:11.796077,-23041,2025-11-07 12:41:15.108467462
2025-11-07 12:41:11.796077,-1,2025-11-07 12:41:15.116159769
2025-11-07 12:41:11.796077,-91,2025-11-07 12:41:15.123852077
2025-11-07 12:41:11.796077,-23041,2025-11-07 12:41:15.131544385
2025-11-07 12:41:11.796077,-1,2025-11-07 12:41:15.139236692
2025-11-07 12:41:11.796077,-89,2025-11-07 12:41:15.146929000
2025-11-07 12:41:11.796077,-22529,2025-11-07 12:41:15.154621308
2025-11-07 12:41:11.796077,-1,2025-11-07 12:41:15.162313615
2025-11-07 12:41:11.796077,-94,2025-11-07 12:41:15.170005923
2025-11-07 12:41:11.796077,-24833,2025-11-07 12:41:15.177698230
2025-11-07 12:41:11.796077,-1,2025-11-07 12:41:15.185390538
2025-11-07 12:41:11.796077,-91,2025-11-07 12:41:15.193082846
2025-11-07 12:41:11.796077,-21249,2025-11-07 12:41:15.200775154
2025-11-07 12:41:11.796077,-1,2025-11-07 12:41:15.208467462
2025-11-07 12:41:11.796077,-86,2025-11-07 12:41:15.216159769
2025-11-07 12:41:11.796077,-23809,2025-11-07 12:41:15.223852077
2025-11-07 12:41:11.796077,-1,2025-11-07 12:41:15.231544385
2025-11-07 12:41:11.796077,-98,2025-11-07 12:41:15.239236692
2025-11-07 12:41:11.796077,-26113,2025-11-07 12:41:15.246929000
2025-11-07 12:41:11.796077,-1,2025-11-07 12:41:15.254621308
2025-11-07 12:41:11.796077,-113,2025-11-07 12:41:15.262313615
2025-11-07 12:41:11.796077,-28673,2025-11-07 12:41:15.270005923
2025-11-07 12:41:11.796077,-1,2025-11-07 12:41:15.277698231
2025-11-07 12:41:11.796077,-94,2025-11-07 12:41:15.285390538
2025-11-07 12:41:11.796077,-19969,2025-11-07 12:41:15.293082846
2025-11-07 12:41:11.796077,-1,2025-11-07 12:41:15.300775154
2025-11-07 12:41:11.796077,-86,2025-11-07 12:41:15.308467462
2025-11-07 12:41:11.796077,-23809,2025-11-07 12:41:15.316159769
2025-11-07 12:41:11.796077,-1,2025-11-07 12:41:15.323852077
2025-11-07 12:41:11.796077,-91,2025-11-07 12:41:15.331544385
2025-11-07 12:41:11.796077,-23809,2025-11-07 12:41:15.339236692
2025-11-07 12:41:11.796077,-1,2025-11-07 12:41:15.346929000
2025-11-07 12:41:11.796077,-110,2025-11-07 12:41:15.354621308
2025-11-07 12:41:11.796077,-30465,2025-11-07 12:41:15.362313615
2025-11-07 12:41:11.796077,-1,2025-11-07 12:41:15.370005923
2025-11-07 12:41:11.796077,-113,2025-11-07 12:41:15.377698231
2025-11-07 12:41:11.796077,-28673,2025-11-07 12:41:15.385390538
2025-11-07 12:41:11.796077,-1,2025-11-07 12:41:15.393082846
2025-11-07 12:41:11.796077,-120,2025-11-07 12:41:15.400775154
2025-11-07 12:41:11.796077,32511,2025-11-07 12:41:15.408467462
2025-11-07 12:41:11.796077,-1,2025-11-07 12:41:15.416159769
2025-11-07 12:41:11.796077,-205,2025-11-07 12:41:15.423852077
2025-11-07 12:41:11.796077,-18689,2025-11-07 12:41:15.431544385
2025-11-07 12:41:11.796077,-2,2025-11-07 12:41:15.439236692
2025-11-07 12:41:11.796077,-275,2025-11-07 12:41:15.446929000
2025-11-07 12:41:11.796077,-29697,2025-11-07 12:41:15.454621308
2025-11-07 12:41:11.796077,0,2025-11-07 12:41:15.462313615
2025-11-07 12:41:11.796077,670,2025-11-07 12:41:15.470005923
2025-11-07 12:41:11.796077,4608,2025-11-07 12:41:15.477698231
2025-11-07 12:41:11.796077,3,2025-11-07 12:41:15.485390538
2025-11-07 12:41:11.796077,287,2025-11-07 12:41:15.493082846
2025-11-07 12:41:11.796077,-1792,2025-11-07 12:41:15.500775154
2025-11-07 12:41:11.796077,-2,2025-11-07 12:41:15.508467462
2025-11-07 12:41:11.796077,-323,2025-11-07 12:41:15.516159769
2025-11-07 12:41:11.796077,22015,2025-11-07 12:41:15.523852077
2025-11-07 12:41:11.796077,-1,2025-11-07 12:41:15.531544385
2025-11-07 12:41:11.796077,-171,2025-11-07 12:41:15.539236692
2025-11-07 12:41:11.796077,11519,2025-11-07 12:41:15.546929000
2025-11-07 12:41:11.796077,-1,2025-11-07 12:41:15.554621308
2025-11-07 12:41:11.796077,-197,2025-11-07 12:41:15.562313615
2025-11-07 12:41:11.796077,17663,2025-11-07 12:41:15.570005923
2025-11-07 12:41:11.796077,-1,2025-11-07 12:41:15.577698231
2025-11-07 12:41:11.796077,-190,2025-11-07 12:41:15.585390538
2025-11-07 12:41:11.796077,22015,2025-11-07 12:41:15.593082846
2025-11-07 12:41:11.796077,-1,2025-11-07 12:41:15.600775154
2025-11-07 12:41:11.796077,-152,2025-11-07 12:41:15.608467462
2025-11-07 12:41:11.796077,26367,2025-11-07 12:41:15.616159769
2025-11-07 12:41:11.796077,-1,2025-11-07 12:41:15.623852077
2025-11-07 12:41:11.796077,-156,2025-11-07 12:41:15.631544385
2025-11-07 12:41:11.796077,25855,2025-11-07 12:41:15.639236692
2025-11-07 12:41:11.796077,-1,2025-11-07 12:41:15.646929000
2025-11-07 12:41:11.796077,-161,2025-11-07 12:41:15.654621308
2025-11-07 12:41:11.796077,26367,2025-11-07 12:41:15.662313615
2025-11-07 12:41:11.796077,-1,2025-11-07 12:41:15.670005923
2025-11-07 12:41:11.796077,-132,2025-11-07 12:41:15.677698231
2025-11-07 12:41:11.796077,-29953,2025-11-07 12:41:15.685390538
2025-11-07 12:41:11.796077,-1,2025-11-07 12:41:15.693082846
2025-11-07 12:41:11.796077,-96,2025-11-07 12:41:15.700775154
2025-11-07 12:41:12.393812,-74,2025-11-07 12:41:15.708467462
2025-11-07 12:41:12.393812,-16385,2025-11-07 12:41:15.716159769
2025-11-07 12:41:12.393812,-1,2025-11-07 12:41:15.723852077
2025-11-07 12:41:12.393812,-53,2025-11-07 12:41:15.731544385
2025-11-07 12:41:12.393812,-10753,2025-11-07 12:41:15.739236692
2025-11-07 12:41:12.393812,-1,2025-11-07 12:41:15.746929000
2025-11-07 12:41:12.393812,-36,2025-11-07 12:41:15.754621308
2025-11-07 12:41:12.393812,-3841,2025-11-07 12:41:15.762313615
2025-11-07 12:41:12.393812,-1,2025-11-07 12:41:15.770005923
2025-11-07 12:41:12.393812,4,2025-11-07 12:41:15.777698231
2025-11-07 12:41:12.393812,0,2025-11-07 12:41:15.785390538
2025-11-07 12:41:12.393812,0,2025-11-07 12:41:15.793082846
2025-11-07 12:41:12.393812,-33,2025-11-07 12:41:15.800775154
2025-11-07 12:41:12.393812,-16385,2025-11-07 12:41:15.808467462
2025-11-07 12:41:12.393812,-1,2025-11-07 12:41:15.816159769
2025-11-07 12:41:12.393812,-103,2025-11-07 12:41:15.823852077
2025-11-07 12:41:12.393812,30207,2025-11-07 12:41:15.831544385
2025-11-07 12:41:12.393812,-1,2025-11-07 12:41:15.839236692
2025-11-07 12:41:12.393812,-154,2025-11-07 12:41:15.846929000
2025-11-07 12:41:12.393812,23807,2025-11-07 12:41:15.854621308
2025-11-07 12:41:12.393812,-1,2025-11-07 12:41:15.862313615
2025-11-07 12:41:12.393812,-183,2025-11-07 12:41:15.870005923
2025-11-07 12:41:12.393812,16383,2025-11-07 12:41:15.877698231
2025-11-07 12:41:12.393812,-1,2025-11-07 12:41:15.885390538
2025-11-07 12:41:12.393812,-197,2025-11-07 12:41:15.893082846
2025-11-07 12:41:12.393812,15359,2025-11-07 12:41:15.900775154
2025-11-07 12:41:12.393812,-1,2025-11-07 12:41:15.908467462
2025-11-07 12:41:12.393812,-200,2025-11-07 12:41:15.916159769
2025-11-07 12:41:12.393812,14591,2025-11-07 12:41:15.923852077
2025-11-07 12:41:12.393812,-1,2025-11-07 12:41:15.931544385
2025-11-07 12:41:12.393812,-195,2025-11-07 12:41:15.939236692
2025-11-07 12:41:12.393812,17663,2025-11-07 12:41:15.946929000
2025-11-07 12:41:12.393812,-1,2025-11-07 12:41:15.954621308
2025-11-07 12:41:12.393812,-183,2025-11-07 12:41:15.962313615
2025-11-07 12:41:12.393812,18943,2025-11-07 12:41:15.970005923
2025-11-07 12:41:12.393812,-1,2025-11-07 12:41:15.977698231
2025-11-07 12:41:12.393812,-190,2025-11-07 12:41:15.985390538
2025-11-07 12:41:12.393812,15359,2025-11-07 12:41:15.993082846
2025-11-07 12:41:12.393812,-1,2025-11-07 12:41:16.000775154
2025-11-07 12:41:12.393812,-197,2025-11-07 12:41:16.008467462
2025-11-07 12:41:12.393812,14591,2025-11-07 12:41:16.016159769
2025-11-07 12:41:12.393812,-1,2025-11-07 12:41:16.023852077
2025-11-07 12:41:12.393812,-193,2025-11-07 12:41:16.031544385
2025-11-07 12:41:12.393812,16383,2025-11-07 12:41:16.039236692
2025-11-07 12:41:12.393812,-1,2025-11-07 12:41:16.046929000
2025-11-07 12:41:12.393812,-202,2025-11-07 12:41:16.054621308
2025-11-07 12:41:12.393812,12799,2025-11-07 12:41:16.062313615
2025-11-07 12:41:12.393812,-1,2025-11-07 12:41:16.070005923
2025-11-07 12:41:12.393812,-197,2025-11-07 12:41:16.077698231
2025-11-07 12:41:12.393812,18431,2025-11-07 12:41:16.085390538
2025-11-07 12:41:12.393812,-1,2025-11-07 12:41:16.093082846
2025-11-07 12:41:12.393812,-183,2025-11-07 12:41:16.100775154
2025-11-07 12:41:12.393812,18431,2025-11-07 12:41:16.108467462
2025-11-07 12:41:12.393812,-1,2025-11-07 12:41:16.116159769
2025-11-07 12:41:12.393812,-185,2025-11-07 12:41:16.123852077
2025-11-07 12:41:12.393812,20223,2025-11-07 12:41:16.131544385
2025-11-07 12:41:12.393812,-1,2025-11-07 12:41:16.139236692
2025-11-07 12:41:12.393812,-164,2025-11-07 12:41:16.146929000
2025-11-07 12:41:12.393812,24575,2025-11-07 12:41:16.154621308
2025-11-07 12:41:12.393812,-1,2025-11-07 12:41:16.162313615
2025-11-07 12:41:12.393812,-173,2025-11-07 12:41:16.170005923
2025-11-07 12:41:12.393812,22015,2025-11-07 12:41:16.177698230
2025-11-07 12:41:12.393812,-1,2025-11-07 12:41:16.185390538
2025-11-07 12:41:12.393812,-164,2025-11-07 12:41:16.193082846
2025-11-07 12:41:12.393812,24575,2025-11-07 12:41:16.200775154
2025-11-07 12:41:12.393812,-1,2025-11-07 12:41:16.208467462
2025-11-07 12:41:12.393812,-159,2025-11-07 12:41:16.216159769
2025-11-07 12:41:12.393812,24575,2025-11-07 12:41:16.223852077
2025-11-07 12:41:12.393812,-1,2025-11-07 12:41:16.231544385
2025-11-07 12:41:12.393812,-154,2025-11-07 12:41:16.239236692
2025-11-07 12:41:12.393812,29439,2025-11-07 12:41:16.246929000
2025-11-07 12:41:12.393812,-1,2025-11-07 12:41:16.254621308
2025-11-07 12:41:12.393812,-125,2025-11-07 12:41:16.262313615
2025-11-07 12:41:12.393812,-28673,2025-11-07 12:41:16.270005923
2025-11-07 12:41:12.393812,-1,2025-11-07 12:41:16.277698231
2025-11-07 12:41:12.393812,-108,2025-11-07 12:41:16.285390538
2025-11-07 12:41:12.393812,-26881,2025-11-07 12:41:16.293082846
2025-11-07 12:41:12.393812,-1,2025-11-07 12:41:16.300775154
2025-11-07 12:41:12.393812,-103,2025-11-07 12:41:16.308467462
2025-11-07 12:41:12.393812,-26113,2025-11-07 12:41:16.316159769
2025-11-07 12:41:12.393812,-1,2025-11-07 12:41:16.323852077
2025-11-07 12:41:12.393812,-96,2025-11-07 12:41:16.331544385
2025-11-07 12:41:12.393812,-23809,2025-11-07 12:41:16.339236692
2025-11-07 12:41:12.393812,-1,2025-11-07 12:41:16.346929000
2025-11-07 12:41:12.393812,-101,2025-11-07 12:41:16.354621308
2025-11-07 12:41:12.393812,-26881,2025-11-07 12:41:16.362313615
2025-11-07 12:41:12.393812,-1,2025-11-07 12:41:16.370005923
2025-11-07 12:41:12.393812,-113,2025-11-07 12:41:16.377698231
2025-11-07 12:41:12.393812,-27393,2025-11-07 12:41:16.385390538
2025-11-07 12:41:12.393812,-1,2025-11-07 12:41:16.393082846
2025-11-07 12:41:12.393812,-89,2025-11-07 12:41:16.400775154
2025-11-07 12:41:12.393812,-18689,2025-11-07 12:41:16.408467462
2025-11-07 12:41:12.393812,-1,2025-11-07 12:41:16.416159769
2025-11-07 12:41:12.393812,-84,2025-11-07 12:41:16.423852077
2025-11-07 12:41:12.393812,-22529,2025-11-07 12:41:16.431544385
2025-11-07 12:41:12.393812,-1,2025-11-07 12:41:16.439236692
2025-11-07 12:41:12.393812,-86,2025-11-07 12:41:16.446929000
2025-11-07 12:41:12.393812,-25601,2025-11-07 12:41:16.454621308
2025-11-07 12:41:12.393812,-1,2025-11-07 12:41:16.462313615
2025-11-07 12:41:12.393812,-113,2025-11-07 12:41:16.470005923
2025-11-07 12:41:12.393812,-25601,2025-11-07 12:41:16.477698231
2025-11-07 12:41:12.393812,-1,2025-11-07 12:41:16.485390538
2025-11-07 12:41:12.393812,-94,2025-11-07 12:41:16.493082846
2025-11-07 12:41:12.393812,-23809,2025-11-07 12:41:16.500775154
2025-11-07 12:41:12.393812,-1,2025-11-07 12:41:16.508467462
2025-11-07 12:41:12.393812,-98,2025-11-07 12:41:16.516159769
2025-11-07 12:41:12.393812,27647,2025-11-07 12:41:16.523852077
2025-11-07 12:41:12.393812,-1,2025-11-07 12:41:16.531544385
2025-11-07 12:41:12.393812,-265,2025-11-07 12:41:16.539236692
2025-11-07 12:41:12.942728,-275,2025-11-07 12:41:16.546929000
2025-11-07 12:41:12.942728,13055,2025-11-07 12:41:16.554621308
2025-11-07 12:41:12.942728,0,2025-11-07 12:41:16.562313615
2025-11-07 12:41:12.942728,595,2025-11-07 12:41:16.570005923
2025-11-07 12:41:12.942728,17664,2025-11-07 12:41:16.577698231
2025-11-07 12:41:12.942728,3,2025-11-07 12:41:16.585390538
2025-11-07 12:41:12.942728,400,2025-11-07 12:41:16.593082846
2025-11-07 12:41:12.942728,3840,2025-11-07 12:41:16.600775154
2025-11-07 12:41:12.942728,-1,2025-11-07 12:41:16.608467462
2025-11-07 12:41:12.942728,-374,2025-11-07 12:41:16.616159769
2025-11-07 12:41:12.942728,21503,2025-11-07 12:41:16.623852077
2025-11-07 12:41:12.942728,-1,2025-11-07 12:41:16.631544385
2025-11-07 12:41:12.942728,-115,2025-11-07 12:41:16.639236692
2025-11-07 12:41:12.942728,28159,2025-11-07 12:41:16.646929000
2025-11-07 12:41:12.942728,-1,2025-11-07 12:41:16.654621308
2025-11-07 12:41:12.942728,-130,2025-11-07 12:41:16.662313615
2025-11-07 12:41:12.942728,-27393,2025-11-07 12:41:16.670005923
2025-11-07 12:41:12.942728,-1,2025-11-07 12:41:16.677698231
2025-11-07 12:41:12.942728,-110,2025-11-07 12:41:16.685390538
2025-11-07 12:41:12.942728,-29953,2025-11-07 12:41:16.693082846
2025-11-07 12:41:12.942728,-1,2025-11-07 12:41:16.700775154
2025-11-07 12:41:12.942728,-98,2025-11-07 12:41:16.708467462
2025-11-07 12:41:12.942728,-18689,2025-11-07 12:41:16.716159769
2025-11-07 12:41:12.942728,-1,2025-11-07 12:41:16.723852077
2025-11-07 12:41:12.942728,-89,2025-11-07 12:41:16.731544385
2025-11-07 12:41:12.942728,-25601,2025-11-07 12:41:16.739236692
2025-11-07 12:41:12.942728,-1,2025-11-07 12:41:16.746929000
2025-11-07 12:41:12.942728,-84,2025-11-07 12:41:16.754621308
2025-11-07 12:41:12.942728,-18177,2025-11-07 12:41:16.762313615
2025-11-07 12:41:12.942728,-1,2025-11-07 12:41:16.770005923
2025-11-07 12:41:12.942728,-72,2025-11-07 12:41:16.777698231
2025-11-07 12:41:12.942728,-16385,2025-11-07 12:41:16.785390538
2025-11-07 12:41:12.942728,-1,2025-11-07 12:41:16.793082846
2025-11-07 12:41:12.942728,-48,2025-11-07 12:41:16.800775154
2025-11-07 12:41:12.942728,-7681,2025-11-07 12:41:16.808467462
2025-11-07 12:41:12.942728,-1,2025-11-07 12:41:16.816159769
2025-11-07 12:41:12.942728,-16,2025-11-07 12:41:16.823852077
2025-11-07 12:41:12.942728,1279,2025-11-07 12:41:16.831544385
2025-11-07 12:41:12.942728,0,2025-11-07 12:41:16.839236692
2025-11-07 12:41:12.942728,24,2025-11-07 12:41:16.846929000
2025-11-07 12:41:12.942728,9728,2025-11-07 12:41:16.854621308
2025-11-07 12:41:12.942728,0,2025-11-07 12:41:16.862313615
2025-11-07 12:41:12.942728,50,2025-11-07 12:41:16.870005923
2025-11-07 12:41:12.942728,13568,2025-11-07 12:41:16.877698231
2025-11-07 12:41:12.942728,0,2025-11-07 12:41:16.885390538
2025-11-07 12:41:12.942728,53,2025-11-07 12:41:16.893082846
2025-11-07 12:41:12.942728,12288,2025-11-07 12:41:16.900775154
2025-11-07 12:41:12.942728,0,2025-11-07 12:41:16.908467462
2025-11-07 12:41:12.942728,26,2025-11-07 12:41:16.916159769
2025-11-07 12:41:12.942728,-1024,2025-11-07 12:41:16.923852077
2025-11-07 12:41:12.942728,-1,2025-11-07 12:41:16.931544385
2025-11-07 12:41:12.942728,-36,2025-11-07 12:41:16.939236692
2025-11-07 12:41:12.942728,-15105,2025-11-07 12:41:16.946929000
2025-11-07 12:41:12.942728,-1,2025-11-07 12:41:16.954621308
2025-11-07 12:41:12.942728,-79,2025-11-07 12:41:16.962313615
2025-11-07 12:41:12.942728,-24833,2025-11-07 12:41:16.970005923
2025-11-07 12:41:12.942728,-1,2025-11-07 12:41:16.977698231
2025-11-07 12:41:12.942728,-106,2025-11-07 12:41:16.985390538
2025-11-07 12:41:12.942728,-26881,2025-11-07 12:41:16.993082846
2025-11-07 12:41:12.942728,-1,2025-11-07 12:41:17.000775154
2025-11-07 12:41:12.942728,-113,2025-11-07 12:41:17.008467462
2025-11-07 12:41:12.942728,-29185,2025-11-07 12:41:17.016159769
2025-11-07 12:41:12.942728,-1,2025-11-07 12:41:17.023852077
2025-11-07 12:41:12.942728,-110,2025-11-07 12:41:17.031544385
2025-11-07 12:41:12.942728,-27393,2025-11-07 12:41:17.039236692
2025-11-07 12:41:12.942728,-1,2025-11-07 12:41:17.046929000
2025-11-07 12:41:12.942728,-110,2025-11-07 12:41:17.054621308
2025-11-07 12:41:12.942728,-29953,2025-11-07 12:41:17.062313615
2025-11-07 12:41:12.942728,-1,2025-11-07 12:41:17.070005923
2025-11-07 12:41:12.942728,-113,2025-11-07 12:41:17.077698231
2025-11-07 12:41:12.942728,-28673,2025-11-07 12:41:17.085390538
2025-11-07 12:41:12.942728,-1,2025-11-07 12:41:17.093082846
2025-11-07 12:41:12.942728,-113,2025-11-07 12:41:17.100775154
2025-11-07 12:41:12.942728,-27393,2025-11-07 12:41:17.108467462
2025-11-07 12:41:12.942728,-1,2025-11-07 12:41:17.116159769
2025-11-07 12:41:12.942728,-103,2025-11-07 12:41:17.123852077
2025-11-07 12:41:12.942728,-26113,2025-11-07 12:41:17.131544385
2025-11-07 12:41:12.942728,-1,2025-11-07 12:41:17.139236692
2025-11-07 12:41:12.942728,-98,2025-11-07 12:41:17.146929000
2025-11-07 12:41:12.942728,-24321,2025-11-07 12:41:17.154621308
2025-11-07 12:41:12.942728,-1,2025-11-07 12:41:17.162313615
2025-11-07 12:41:12.942728,-94,2025-11-07 12:41:17.170005923
2025-11-07 12:41:12.942728,-23041,2025-11-07 12:41:17.177698230
2025-11-07 12:41:12.942728,-1,2025-11-07 12:41:17.185390538
2025-11-07 12:41:12.942728,-94,2025-11-07 12:41:17.193082846
2025-11-07 12:41:12.942728,-23041,2025-11-07 12:41:17.200775154
2025-11-07 12:41:12.942728,-1,2025-11-07 12:41:17.208467462
2025-11-07 12:41:12.942728,-91,2025-11-07 12:41:17.216159769
2025-11-07 12:41:12.942728,-23041,2025-11-07 12:41:17.223852077
2025-11-07 12:41:12.942728,-1,2025-11-07 12:41:17.231544385
2025-11-07 12:41:12.942728,-94,2025-11-07 12:41:17.239236692
2025-11-07 12:41:12.942728,-23809,2025-11-07 12:41:17.246929000
2025-11-07 12:41:12.942728,-1,2025-11-07 12:41:17.254621308
2025-11-07 12:41:12.942728,-89,2025-11-07 12:41:17.262313615
2025-11-07 12:41:12.942728,-23809,2025-11-07 12:41:17.270005923
2025-11-07 12:41:12.942728,-1,2025-11-07 12:41:17.277698231
2025-11-07 12:41:12.942728,-96,2025-11-07 12:41:17.285390538
2025-11-07 12:41:12.942728,-23041,2025-11-07 12:41:17.293082846
2025-11-07 12:41:12.942728,-1,2025-11-07 12:41:17.300775154
2025-11-07 12:41:12.942728,-91,2025-11-07 12:41:17.308467462
2025-11-07 12:41:12.942728,-23041,2025-11-07 12:41:17.316159769
2025-11-07 12:41:12.942728,-1,2025-11-07 12:41:17.323852077
2025-11-07 12:41:12.942728,-89,2025-11-07 12:41:17.331544385
2025-11-07 12:41:12.942728,-22529,2025-11-07 12:41:17.339236692
2025-11-07 12:41:12.942728,-1,2025-11-07 12:41:17.346929000
2025-11-07 12:41:12.942728,-91,2025-11-07 12:41:17.354621308
2025-11-07 12:41:12.942728,-23041,2025-11-07 12:41:17.362313615
2025-11-07 12:41:12.942728,-1,2025-11-07 12:41:17.370005923
2025-11-07 12:41:12.942728,-91,2025-11-07 12:41:17.377698231
2025-11-07 12:41:13.480767,-91,2025-11-07 12:41:17.385390538
2025-11-07 12:41:13.480767,-23041,2025-11-07 12:41:17.393082846
2025-11-07 12:41:13.480767,-1,2025-11-07 12:41:17.400775154
2025-11-07 12:41:13.480767,-91,2025-11-07 12:41:17.408467462
2025-11-07 12:41:13.480767,-23041,2025-11-07 12:41:17.416159769
2025-11-07 12:41:13.480767,-1,2025-11-07 12:41:17.423852077
2025-11-07 12:41:13.480767,-89,2025-11-07 12:41:17.431544385
2025-11-07 12:41:13.480767,-23041,2025-11-07 12:41:17.439236692
2025-11-07 12:41:13.480767,-1,2025-11-07 12:41:17.446929000
2025-11-07 12:41:13.480767,-98,2025-11-07 12:41:17.454621308
2025-11-07 12:41:13.480767,-24321,2025-11-07 12:41:17.462313615
2025-11-07 12:41:13.480767,-1,2025-11-07 12:41:17.470005923
2025-11-07 12:41:13.480767,-82,2025-11-07 12:41:17.477698231
2025-11-07 12:41:13.480767,-16897,2025-11-07 12:41:17.485390538
2025-11-07 12:41:13.480767,-1,2025-11-07 12:41:17.493082846
2025-11-07 12:41:13.480767,-65,2025-11-07 12:41:17.500775154
2025-11-07 12:41:13.480767,-17409,2025-11-07 12:41:17.508467462
2025-11-07 12:41:13.480767,-1,2025-11-07 12:41:17.516159769
2025-11-07 12:41:13.480767,-67,2025-11-07 12:41:17.523852077
2025-11-07 12:41:13.480767,-16385,2025-11-07 12:41:17.531544385
2025-11-07 12:41:13.480767,-1,2025-11-07 12:41:17.539236692
2025-11-07 12:41:13.480767,-67,2025-11-07 12:41:17.546929000
2025-11-07 12:41:13.480767,-18177,2025-11-07 12:41:17.554621308
2025-11-07 12:41:13.480767,-1,2025-11-07 12:41:17.562313615
2025-11-07 12:41:13.480767,-86,2025-11-07 12:41:17.570005923
2025-11-07 12:41:13.480767,-23809,2025-11-07 12:41:17.577698231
2025-11-07 12:41:13.480767,-1,2025-11-07 12:41:17.585390538
2025-11-07 12:41:13.480767,-84,2025-11-07 12:41:17.593082846
2025-11-07 12:41:13.480767,-21249,2025-11-07 12:41:17.600775154
2025-11-07 12:41:13.480767,-1,2025-11-07 12:41:17.608467462
2025-11-07 12:41:13.480767,-91,2025-11-07 12:41:17.616159769
2025-11-07 12:41:13.480767,31999,2025-11-07 12:41:17.623852077
2025-11-07 12:41:13.480767,-1,2025-11-07 12:41:17.631544385
2025-11-07 12:41:13.480767,-253,2025-11-07 12:41:17.639236692
2025-11-07 12:41:13.480767,-13825,2025-11-07 12:41:17.646929000
2025-11-07 12:41:13.480767,-2,2025-11-07 12:41:17.654621308
2025-11-07 12:41:13.480767,-38,2025-11-07 12:41:17.662313615
2025-11-07 12:41:13.480767,3839,2025-11-07 12:41:17.670005923
2025-11-07 12:41:13.480767,2,2025-11-07 12:41:17.677698231
2025-11-07 12:41:13.480767,885,2025-11-07 12:41:17.685390538
2025-11-07 12:41:13.480767,17152,2025-11-07 12:41:17.693082846
2025-11-07 12:41:13.480767,2,2025-11-07 12:41:17.700775154
2025-11-07 12:41:13.480767,-86,2025-11-07 12:41:17.708467462
2025-11-07 12:41:13.480767,-21761,2025-11-07 12:41:17.716159769
2025-11-07 12:41:13.480767,-2,2025-11-07 12:41:17.723852077
2025-11-07 12:41:13.480767,-176,2025-11-07 12:41:17.731544385
2025-11-07 12:41:13.480767,-24833,2025-11-07 12:41:17.739236692
2025-11-07 12:41:13.480767,-1,2025-11-07 12:41:17.746929000
2025-11-07 12:41:13.480767,-149,2025-11-07 12:41:17.754621308
2025-11-07 12:41:13.480767,27647,2025-11-07 12:41:17.762313615
2025-11-07 12:41:13.480767,-1,2025-11-07 12:41:17.770005923
2025-11-07 12:41:13.480767,-137,2025-11-07 12:41:17.777698231
2025-11-07 12:41:13.480767,30207,2025-11-07 12:41:17.785390538
2025-11-07 12:41:13.480767,-1,2025-11-07 12:41:17.793082846
2025-11-07 12:41:13.480767,-123,2025-11-07 12:41:17.800775154
2025-11-07 12:41:13.480767,-27905,2025-11-07 12:41:17.808467462
2025-11-07 12:41:13.480767,-1,2025-11-07 12:41:17.816159769
2025-11-07 12:41:13.480767,-115,2025-11-07 12:41:17.823852077
2025-11-07 12:41:13.480767,-29953,2025-11-07 12:41:17.831544385
2025-11-07 12:41:13.480767,-1,2025-11-07 12:41:17.839236692
2025-11-07 12:41:13.480767,-118,2025-11-07 12:41:17.846929000
2025-11-07 12:41:13.480767,-28673,2025-11-07 12:41:17.854621308
2025-11-07 12:41:13.480767,-1,2025-11-07 12:41:17.862313615
2025-11-07 12:41:13.480767,-103,2025-11-07 12:41:17.870005923
2025-11-07 12:41:13.480767,-23809,2025-11-07 12:41:17.877698231
2025-11-07 12:41:13.480767,-1,2025-11-07 12:41:17.885390538
2025-11-07 12:41:13.480767,-86,2025-11-07 12:41:17.893082846
2025-11-07 12:41:13.480767,-18689,2025-11-07 12:41:17.900775154
2025-11-07 12:41:13.480767,-1,2025-11-07 12:41:17.908467462
2025-11-07 12:41:13.480767,-60,2025-11-07 12:41:17.916159769
2025-11-07 12:41:13.480767,-12545,2025-11-07 12:41:17.923852077
2025-11-07 12:41:13.480767,-1,2025-11-07 12:41:17.931544385
2025-11-07 12:41:13.480767,-36,2025-11-07 12:41:17.939236692
2025-11-07 12:41:13.480767,-3841,2025-11-07 12:41:17.946929000
2025-11-07 12:41:13.480767,-1,2025-11-07 12:41:17.954621308
2025-11-07 12:41:13.480767,0,2025-11-07 12:41:17.962313615
2025-11-07 12:41:13.480767,3072,2025-11-07 12:41:17.970005923
2025-11-07 12:41:13.480767,0,2025-11-07 12:41:17.977698231
2025-11-07 12:41:13.480767,16,2025-11-07 12:41:17.985390538
2025-11-07 12:41:13.480767,3584,2025-11-07 12:41:17.993082846
2025-11-07 12:41:13.480767,0,2025-11-07 12:41:18.000775154
2025-11-07 12:41:13.480767,9,2025-11-07 12:41:18.008467462
2025-11-07 12:41:13.480767,-512,2025-11-07 12:41:18.016159769
2025-11-07 12:41:13.480767,-1,2025-11-07 12:41:18.023852077
2025-11-07 12:41:13.480767,-28,2025-11-07 12:41:18.031544385
2025-11-07 12:41:13.480767,-15105,2025-11-07 12:41:18.039236692
2025-11-07 12:41:13.480767,-1,2025-11-07 12:41:18.046929000
2025-11-07 12:41:13.480767,-86,2025-11-07 12:41:18.054621308
2025-11-07 12:41:13.480767,-26113,2025-11-07 12:41:18.062313615
2025-11-07 12:41:13.480767,-1,2025-11-07 12:41:18.070005923
2025-11-07 12:41:13.480767,-125,2025-11-07 12:41:18.077698231
2025-11-07 12:41:13.480767,28927,2025-11-07 12:41:18.085390538
2025-11-07 12:41:13.480767,-1,2025-11-07 12:41:18.093082846
2025-11-07 12:41:13.480767,-152,2025-11-07 12:41:18.100775154
2025-11-07 12:41:13.480767,26367,2025-11-07 12:41:18.108467462
2025-11-07 12:41:13.480767,-1,2025-11-07 12:41:18.116159769
2025-11-07 12:41:13.480767,-152,2025-11-07 12:41:18.123852077
2025-11-07 12:41:13.480767,26367,2025-11-07 12:41:18.131544385
2025-11-07 12:41:13.480767,-1,2025-11-07 12:41:18.139236692
2025-11-07 12:41:13.480767,-156,2025-11-07 12:41:18.146929000
2025-11-07 12:41:13.480767,26367,2025-11-07 12:41:18.154621308
2025-11-07 12:41:13.480767,-1,2025-11-07 12:41:18.162313615
2025-11-07 12:41:13.480767,-152,2025-11-07 12:41:18.170005923
2025-11-07 12:41:13.480767,26879,2025-11-07 12:41:18.177698230
2025-11-07 12:41:13.480767,-1,2025-11-07 12:41:18.185390538
2025-11-07 12:41:13.480767,-152,2025-11-07 12:41:18.193082846
2025-11-07 12:41:13.480767,26879,2025-11-07 12:41:18.200775154
2025-11-07 12:41:13.480767,-1,2025-11-07 12:41:18.208467462
2025-11-07 12:41:13.480767,-147,2025-11-07 12:41:18.216159769
2025-11-07 12:41:14.043651,-142,2025-11-07 12:41:18.223852077
2025-11-07 12:41:14.043651,29439,2025-11-07 12:41:18.231544385
2025-11-07 12:41:14.043651,-1,2025-11-07 12:41:18.239236692
2025-11-07 12:41:14.043651,-144,2025-11-07 12:41:18.246929000
2025-11-07 12:41:14.043651,28159,2025-11-07 12:41:18.254621308
2025-11-07 12:41:14.043651,-1,2025-11-07 12:41:18.262313615
2025-11-07 12:41:14.043651,-142,2025-11-07 12:41:18.270005923
2025-11-07 12:41:14.043651,-32257,2025-11-07 12:41:18.277698231
2025-11-07 12:41:14.043651,-1,2025-11-07 12:41:18.285390538
2025-11-07 12:41:14.043651,-108,2025-11-07 12:41:18.293082846
2025-11-07 12:41:14.043651,-27905,2025-11-07 12:41:18.300775154
2025-11-07 12:41:14.043651,-1,2025-11-07 12:41:18.308467462
2025-11-07 12:41:14.043651,-125,2025-11-07 12:41:18.316159769
2025-11-07 12:41:14.043651,-31233,2025-11-07 12:41:18.323852077
2025-11-07 12:41:14.043651,-1,2025-11-07 12:41:18.331544385
2025-11-07 12:41:14.043651,-118,2025-11-07 12:41:18.339236692
2025-11-07 12:41:14.043651,-31233,2025-11-07 12:41:18.346929000
2025-11-07 12:41:14.043651,-1,2025-11-07 12:41:18.354621308
2025-11-07 12:41:14.043651,-115,2025-11-07 12:41:18.362313615
2025-11-07 12:41:14.043651,-26113,2025-11-07 12:41:18.370005923
2025-11-07 12:41:14.043651,-1,2025-11-07 12:41:18.377698231
2025-11-07 12:41:14.043651,-106,2025-11-07 12:41:18.385390538
2025-11-07 12:41:14.043651,-27393,2025-11-07 12:41:18.393082846
2025-11-07 12:41:14.043651,-1,2025-11-07 12:41:18.400775154
2025-11-07 12:41:14.043651,-108,2025-11-07 12:41:18.408467462
2025-11-07 12:41:14.043651,-26113,2025-11-07 12:41:18.416159769
2025-11-07 12:41:14.043651,-1,2025-11-07 12:41:18.423852077
2025-11-07 12:41:14.043651,-101,2025-11-07 12:41:18.431544385
2025-11-07 12:41:14.043651,-26113,2025-11-07 12:41:18.439236692
2025-11-07 12:41:14.043651,-1,2025-11-07 12:41:18.446929000
2025-11-07 12:41:14.043651,-101,2025-11-07 12:41:18.454621308
2025-11-07 12:41:14.043651,-24833,2025-11-07 12:41:18.462313615
2025-11-07 12:41:14.043651,-1,2025-11-07 12:41:18.470005923
2025-11-07 12:41:14.043651,-98,2025-11-07 12:41:18.477698231
2025-11-07 12:41:14.043651,-24321,2025-11-07 12:41:18.485390538
2025-11-07 12:41:14.043651,-1,2025-11-07 12:41:18.493082846
2025-11-07 12:41:14.043651,-96,2025-11-07 12:41:18.500775154
2025-11-07 12:41:14.043651,-23809,2025-11-07 12:41:18.508467462
2025-11-07 12:41:14.043651,-1,2025-11-07 12:41:18.516159769
2025-11-07 12:41:14.043651,-96,2025-11-07 12:41:18.523852077
2025-11-07 12:41:14.043651,-24833,2025-11-07 12:41:18.531544385
2025-11-07 12:41:14.043651,-1,2025-11-07 12:41:18.539236692
2025-11-07 12:41:14.043651,-96,2025-11-07 12:41:18.546929000
2025-11-07 12:41:14.043651,-23809,2025-11-07 12:41:18.554621308
2025-11-07 12:41:14.043651,-1,2025-11-07 12:41:18.562313615
2025-11-07 12:41:14.043651,-91,2025-11-07 12:41:18.570005923
2025-11-07 12:41:14.043651,-22529,2025-11-07 12:41:18.577698231
2025-11-07 12:41:14.043651,-1,2025-11-07 12:41:18.585390538
2025-11-07 12:41:14.043651,-89,2025-11-07 12:41:18.593082846
2025-11-07 12:41:14.043651,-21761,2025-11-07 12:41:18.600775154
2025-11-07 12:41:14.043651,-1,2025-11-07 12:41:18.608467462
2025-11-07 12:41:14.043651,-89,2025-11-07 12:41:18.616159769
2025-11-07 12:41:14.043651,-23041,2025-11-07 12:41:18.623852077
2025-11-07 12:41:14.043651,-1,2025-11-07 12:41:18.631544385
2025-11-07 12:41:14.043651,-86,2025-11-07 12:41:18.639236692
2025-11-07 12:41:14.043651,-21249,2025-11-07 12:41:18.646929000
2025-11-07 12:41:14.043651,-1,2025-11-07 12:41:18.654621308
2025-11-07 12:41:14.043651,-86,2025-11-07 12:41:18.662313615
2025-11-07 12:41:14.043651,-21761,2025-11-07 12:41:18.670005923
2025-11-07 12:41:14.043651,-1,2025-11-07 12:41:18.677698231
2025-11-07 12:41:14.043651,-84,2025-11-07 12:41:18.685390538
2025-11-07 12:41:14.043651,-23041,2025-11-07 12:41:18.693082846
2025-11-07 12:41:14.043651,-1,2025-11-07 12:41:18.700775154
2025-11-07 12:41:14.043651,-98,2025-11-07 12:41:18.708467462
2025-11-07 12:41:14.043651,-23041,2025-11-07 12:41:18.716159769
2025-11-07 12:41:14.043651,-1,2025-11-07 12:41:18.723852077
2025-11-07 12:41:14.043651,-74,2025-11-07 12:41:18.731544385
2025-11-07 12:41:14.043651,-15105,2025-11-07 12:41:18.739236692
2025-11-07 12:41:14.043651,-1,2025-11-07 12:41:18.746929000
2025-11-07 12:41:14.043651,-57,2025-11-07 12:41:18.754621308
2025-11-07 12:41:14.043651,-15617,2025-11-07 12:41:18.762313615
2025-11-07 12:41:14.043651,-1,2025-11-07 12:41:18.770005923
2025-11-07 12:41:14.043651,-55,2025-11-07 12:41:18.777698231
2025-11-07 12:41:14.043651,-12545,2025-11-07 12:41:18.785390538
2025-11-07 12:41:14.043651,-1,2025-11-07 12:41:18.793082846
2025-11-07 12:41:14.043651,-67,2025-11-07 12:41:18.800775154
2025-11-07 12:41:14.043651,-19969,2025-11-07 12:41:18.808467462
2025-11-07 12:41:14.043651,-1,2025-11-07 12:41:18.816159769
2025-11-07 12:41:14.043651,-74,2025-11-07 12:41:18.823852077
2025-11-07 12:41:14.043651,-17409,2025-11-07 12:41:18.831544385
2025-11-07 12:41:14.043651,-1,2025-11-07 12:41:18.839236692
2025-11-07 12:41:14.043651,-69,2025-11-07 12:41:18.846929000
2025-11-07 12:41:14.043651,-20737,2025-11-07 12:41:18.854621308
2025-11-07 12:41:14.043651,-1,2025-11-07 12:41:18.862313615
2025-11-07 12:41:14.043651,-149,2025-11-07 12:41:18.870005923
2025-11-07 12:41:14.043651,-4609,2025-11-07 12:41:18.877698231
2025-11-07 12:41:14.043651,-2,2025-11-07 12:41:18.885390538
2025-11-07 12:41:14.043651,-234,2025-11-07 12:41:18.893082846
2025-11-07 12:41:14.043651,-20993,2025-11-07 12:41:18.900775154
2025-11-07 12:41:14.043651,0,2025-11-07 12:41:18.908467462
2025-11-07 12:41:14.043651,731,2025-11-07 12:41:18.916159769
2025-11-07 12:41:14.043651,-27648,2025-11-07 12:41:18.923852077
2025-11-07 12:41:14.043651,3,2025-11-07 12:41:18.931544385
2025-11-07 12:41:14.043651,451,2025-11-07 12:41:18.939236692
2025-11-07 12:41:14.043651,27392,2025-11-07 12:41:18.946929000
2025-11-07 12:41:14.043651,-1,2025-11-07 12:41:18.954621308
2025-11-07 12:41:14.043651,-248,2025-11-07 12:41:18.962313615
2025-11-07 12:41:14.043651,-23809,2025-11-07 12:41:18.970005923
2025-11-07 12:41:14.043651,-1,2025-11-07 12:41:18.977698231
2025-11-07 12:41:14.043651,-101,2025-11-07 12:41:18.985390538
2025-11-07 12:41:14.043651,24575,2025-11-07 12:41:18.993082846
2025-11-07 12:41:14.043651,-1,2025-11-07 12:41:19.000775154
2025-11-07 12:41:14.043651,-144,2025-11-07 12:41:19.008467462
2025-11-07 12:41:14.043651,32511,2025-11-07 12:41:19.016159769
2025-11-07 12:41:14.043651,-1,2025-11-07 12:41:19.023852077
2025-11-07 12:41:14.043651,-142,2025-11-07 12:41:19.031544385
2025-11-07 12:41:14.043651,30719,2025-11-07 12:41:19.039236692
2025-11-07 12:41:14.043651,-1,2025-11-07 12:41:19.046929000
2025-11-07 12:41:14.043651,-123,2025-11-07 12:41:19.054621308
2025-11-07 12:41:14.592094,-123,2025-11-07 12:41:19.062313615
2025-11-07 12:41:14.592094,-30465,2025-11-07 12:41:19.070005923
2025-11-07 12:41:14.592094,-1,2025-11-07 12:41:19.077698231
2025-11-07 12:41:14.592094,-110,2025-11-07 12:41:19.085390538
2025-11-07 12:41:14.592094,-26881,2025-11-07 12:41:19.093082846
2025-11-07 12:41:14.592094,-1,2025-11-07 12:41:19.100775154
2025-11-07 12:41:14.592094,-98,2025-11-07 12:41:19.108467462
2025-11-07 12:41:14.592094,-21249,2025-11-07 12:41:19.116159769
2025-11-07 12:41:14.592094,-1,2025-11-07 12:41:19.123852077
2025-11-07 12:41:14.592094,-69,2025-11-07 12:41:19.131544385
2025-11-07 12:41:14.592094,-10753,2025-11-07 12:41:19.139236692
2025-11-07 12:41:14.592094,-1,2025-11-07 12:41:19.146929000
2025-11-07 12:41:14.592094,-26,2025-11-07 12:41:19.154621308
2025-11-07 12:41:14.592094,-7681,2025-11-07 12:41:19.162313615
2025-11-07 12:41:14.592094,-1,2025-11-07 12:41:19.170005923
2025-11-07 12:41:14.592094,-16,2025-11-07 12:41:19.177698230
2025-11-07 12:41:14.592094,1279,2025-11-07 12:41:19.185390538
2025-11-07 12:41:14.592094,0,2025-11-07 12:41:19.193082846
2025-11-07 12:41:14.592094,12,2025-11-07 12:41:19.200775154
2025-11-07 12:41:14.592094,4864,2025-11-07 12:41:19.208467462
2025-11-07 12:41:14.592094,0,2025-11-07 12:41:19.216159769
2025-11-07 12:41:14.592094,31,2025-11-07 12:41:19.223852077
2025-11-07 12:41:14.592094,7936,2025-11-07 12:41:19.231544385
2025-11-07 12:41:14.592094,0,2025-11-07 12:41:19.239236692
2025-11-07 12:41:14.592094,19,2025-11-07 12:41:19.246929000
2025-11-07 12:41:14.592094,1792,2025-11-07 12:41:19.254621308
2025-11-07 12:41:14.592094,0,2025-11-07 12:41:19.262313615
2025-11-07 12:41:14.592094,-14,2025-11-07 12:41:19.270005923
2025-11-07 12:41:14.592094,-10753,2025-11-07 12:41:19.277698231
2025-11-07 12:41:14.592094,-1,2025-11-07 12:41:19.285390538
2025-11-07 12:41:14.592094,-67,2025-11-07 12:41:19.293082846
2025-11-07 12:41:14.592094,-21761,2025-11-07 12:41:19.300775154
2025-11-07 12:41:14.592094,-1,2025-11-07 12:41:19.308467462
2025-11-07 12:41:14.592094,-98,2025-11-07 12:41:19.316159769
2025-11-07 12:41:14.592094,-27393,2025-11-07 12:41:19.323852077
2025-11-07 12:41:14.592094,-1,2025-11-07 12:41:19.331544385
2025-11-07 12:41:14.592094,-115,2025-11-07 12:41:19.339236692
2025-11-07 12:41:14.592094,-29185,2025-11-07 12:41:19.346929000
2025-11-07 12:41:14.592094,-1,2025-11-07 12:41:19.354621308
2025-11-07 12:41:14.592094,-113,2025-11-07 12:41:19.362313615
2025-11-07 12:41:14.592094,-28673,2025-11-07 12:41:19.370005923
2025-11-07 12:41:14.592094,-1,2025-11-07 12:41:19.377698231
2025-11-07 12:41:14.592094,-110,2025-11-07 12:41:19.385390538
2025-11-07 12:41:14.592094,-27393,2025-11-07 12:41:19.393082846
2025-11-07 12:41:14.592094,-1,2025-11-07 12:41:19.400775154
2025-11-07 12:41:14.592094,-106,2025-11-07 12:41:19.408467462
2025-11-07 12:41:14.592094,-26881,2025-11-07 12:41:19.416159769
2025-11-07 12:41:14.592094,-1,2025-11-07 12:41:19.423852077
2025-11-07 12:41:14.592094,-110,2025-11-07 12:41:19.431544385
2025-11-07 12:41:14.592094,-26113,2025-11-07 12:41:19.439236692
2025-11-07 12:41:14.592094,-1,2025-11-07 12:41:19.446929000
2025-11-07 12:41:14.592094,-98,2025-11-07 12:41:19.454621308
2025-11-07 12:41:14.592094,-26113,2025-11-07 12:41:19.462313615
2025-11-07 12:41:14.592094,-1,2025-11-07 12:41:19.470005923
2025-11-07 12:41:14.592094,-106,2025-11-07 12:41:19.477698231
2025-11-07 12:41:14.592094,-25601,2025-11-07 12:41:19.485390538
2025-11-07 12:41:14.592094,-1,2025-11-07 12:41:19.493082846
2025-11-07 12:41:14.592094,-98,2025-11-07 12:41:19.500775154
2025-11-07 12:41:14.592094,-23809,2025-11-07 12:41:19.508467462
2025-11-07 12:41:14.592094,-1,2025-11-07 12:41:19.516159769
2025-11-07 12:41:14.592094,-86,2025-11-07 12:41:19.523852077
2025-11-07 12:41:14.592094,-21761,2025-11-07 12:41:19.531544385
2025-11-07 12:41:14.592094,-1,2025-11-07 12:41:19.539236692
2025-11-07 12:41:14.592094,-94,2025-11-07 12:41:19.546929000
2025-11-07 12:41:14.592094,-24321,2025-11-07 12:41:19.554621308
2025-11-07 12:41:14.592094,-1,2025-11-07 12:41:19.562313615
2025-11-07 12:41:14.592094,-101,2025-11-07 12:41:19.570005923
2025-11-07 12:41:14.592094,-26881,2025-11-07 12:41:19.577698231
2025-11-07 12:41:14.592094,-1,2025-11-07 12:41:19.585390538
2025-11-07 12:41:14.592094,-103,2025-11-07 12:41:19.593082846
2025-11-07 12:41:14.592094,-25601,2025-11-07 12:41:19.600775154
2025-11-07 12:41:14.592094,-1,2025-11-07 12:41:19.608467462
2025-11-07 12:41:14.592094,-96,2025-11-07 12:41:19.616159769
2025-11-07 12:41:14.592094,-23809,2025-11-07 12:41:19.623852077
2025-11-07 12:41:14.592094,-1,2025-11-07 12:41:19.631544385
2025-11-07 12:41:14.592094,-96,2025-11-07 12:41:19.639236692
2025-11-07 12:41:14.592094,-25601,2025-11-07 12:41:19.646929000
2025-11-07 12:41:14.592094,-1,2025-11-07 12:41:19.654621308
2025-11-07 12:41:14.592094,-101,2025-11-07 12:41:19.662313615
2025-11-07 12:41:14.592094,-24321,2025-11-07 12:41:19.670005923
2025-11-07 12:41:14.592094,-1,2025-11-07 12:41:19.677698231
2025-11-07 12:41:14.592094,-98,2025-11-07 12:41:19.685390538
2025-11-07 12:41:14.592094,-26113,2025-11-07 12:41:19.693082846
2025-11-07 12:41:14.592094,-1,2025-11-07 12:41:19.700775154
2025-11-07 12:41:14.592094,-101,2025-11-07 12:41:19.708467462
2025-11-07 12:41:14.592094,-24321,2025-11-07 12:41:19.716159769
2025-11-07 12:41:14.592094,-1,2025-11-07 12:41:19.723852077
2025-11-07 12:41:14.592094,-96,2025-11-07 12:41:19.731544385
2025-11-07 12:41:14.592094,-25601,2025-11-07 12:41:19.739236692
2025-11-07 12:41:14.592094,-1,2025-11-07 12:41:19.746929000
2025-11-07 12:41:14.592094,-110,2025-11-07 12:41:19.754621308
2025-11-07 12:41:14.592094,-28673,2025-11-07 12:41:19.762313615
2025-11-07 12:41:14.592094,-1,2025-11-07 12:41:19.770005923
2025-11-07 12:41:14.592094,-108,2025-11-07 12:41:19.777698231
2025-11-07 12:41:14.592094,-28673,2025-11-07 12:41:19.785390538
2025-11-07 12:41:14.592094,-1,2025-11-07 12:41:19.793082846
2025-11-07 12:41:14.592094,-110,2025-11-07 12:41:19.800775154
2025-11-07 12:41:14.592094,-26881,2025-11-07 12:41:19.808467462
2025-11-07 12:41:14.592094,-1,2025-11-07 12:41:19.816159769
2025-11-07 12:41:14.592094,-108,2025-11-07 12:41:19.823852077
2025-11-07 12:41:14.592094,-27393,2025-11-07 12:41:19.831544385
2025-11-07 12:41:14.592094,-1,2025-11-07 12:41:19.839236692
2025-11-07 12:41:14.592094,-106,2025-11-07 12:41:19.846929000
2025-11-07 12:41:14.592094,-24833,2025-11-07 12:41:19.854621308
2025-11-07 12:41:14.592094,-1,2025-11-07 12:41:19.862313615
2025-11-07 12:41:14.592094,-91,2025-11-07 12:41:19.870005923
2025-11-07 12:41:14.592094,-23041,2025-11-07 12:41:19.877698231
2025-11-07 12:41:14.592094,-1,2025-11-07 12:41:19.885390538
2025-11-07 12:41:14.592094,-89,2025-11-07 12:41:19.893082846
2025-11-07 12:41:15.159158,-94,2025-11-07 12:41:19.900775154
2025-11-07 12:41:15.159158,-24833,2025-11-07 12:41:19.908467462
2025-11-07 12:41:15.159158,-1,2025-11-07 12:41:19.916159769
2025-11-07 12:41:15.159158,-96,2025-11-07 12:41:19.923852077
2025-11-07 12:41:15.159158,-21761,2025-11-07 12:41:19.931544385
2025-11-07 12:41:15.159158,-1,2025-11-07 12:41:19.939236692
2025-11-07 12:41:15.159158,-77,2025-11-07 12:41:19.946929000
2025-11-07 12:41:15.159158,-18689,2025-11-07 12:41:19.954621308
2025-11-07 12:41:15.159158,-1,2025-11-07 12:41:19.962313615
2025-11-07 12:41:15.159158,-91,2025-11-07 12:41:19.970005923
2025-11-07 12:41:15.159158,-26113,2025-11-07 12:41:19.977698231
2025-11-07 12:41:15.159158,-1,2025-11-07 12:41:19.985390538
2025-11-07 12:41:15.159158,-98,2025-11-07 12:41:19.993082846
2025-11-07 12:41:15.159158,-22529,2025-11-07 12:41:20.000775154
2025-11-07 12:41:15.159158,-1,2025-11-07 12:41:20.008467462
2025-11-07 12:41:15.159158,-82,2025-11-07 12:41:20.016159769
2025-11-07 12:41:15.159158,-16897,2025-11-07 12:41:20.023852077
2025-11-07 12:41:15.159158,-1,2025-11-07 12:41:20.031544385
2025-11-07 12:41:15.159158,-50,2025-11-07 12:41:20.039236692
2025-11-07 12:41:15.159158,-12545,2025-11-07 12:41:20.046929000
2025-11-07 12:41:15.159158,-1,2025-11-07 12:41:20.054621308
2025-11-07 12:41:15.159158,-53,2025-11-07 12:41:20.062313615
2025-11-07 12:41:15.159158,-10753,2025-11-07 12:41:20.070005923
2025-11-07 12:41:15.159158,-1,2025-11-07 12:41:20.077698231
2025-11-07 12:41:15.159158,-48,2025-11-07 12:41:20.085390538
2025-11-07 12:41:15.159158,-15617,2025-11-07 12:41:20.093082846
2025-11-07 12:41:15.159158,-1,2025-11-07 12:41:20.100775154
2025-11-07 12:41:15.159158,-67,2025-11-07 12:41:20.108467462
2025-11-07 12:41:15.159158,-16385,2025-11-07 12:41:20.116159769
2025-11-07 12:41:15.159158,-1,2025-11-07 12:41:20.123852077
2025-11-07 12:41:15.159158,-67,2025-11-07 12:41:20.131544385
2025-11-07 12:41:15.159158,-21249,2025-11-07 12:41:20.139236692
2025-11-07 12:41:15.159158,-1,2025-11-07 12:41:20.146929000
2025-11-07 12:41:15.159158,-144,2025-11-07 12:41:20.154621308
2025-11-07 12:41:15.159158,-3329,2025-11-07 12:41:20.162313615
2025-11-07 12:41:15.159158,-2,2025-11-07 12:41:20.170005923
2025-11-07 12:41:15.159158,-265,2025-11-07 12:41:20.177698230
2025-11-07 12:41:15.159158,25343,2025-11-07 12:41:20.185390538
2025-11-07 12:41:15.159158,0,2025-11-07 12:41:20.193082846
2025-11-07 12:41:15.159158,661,2025-11-07 12:41:20.200775154
2025-11-07 12:41:15.159158,-29440,2025-11-07 12:41:20.208467462
2025-11-07 12:41:15.159158,3,2025-11-07 12:41:20.216159769
2025-11-07 12:41:15.159158,492,2025-11-07 12:41:20.223852077
2025-11-07 12:41:15.159158,29184,2025-11-07 12:41:20.231544385
2025-11-07 12:41:15.159158,-1,2025-11-07 12:41:20.239236692
2025-11-07 12:41:15.159158,-282,2025-11-07 12:41:20.246929000
2025-11-07 12:41:15.159158,-27905,2025-11-07 12:41:20.254621308
2025-11-07 12:41:15.159158,-1,2025-11-07 12:41:20.262313615
2025-11-07 12:41:15.159158,-101,2025-11-07 12:41:20.270005923
2025-11-07 12:41:15.159158,25087,2025-11-07 12:41:20.277698231
2025-11-07 12:41:15.159158,-1,2025-11-07 12:41:20.285390538
2025-11-07 12:41:15.159158,-142,2025-11-07 12:41:20.293082846
2025-11-07 12:41:15.159158,-31745,2025-11-07 12:41:20.300775154
2025-11-07 12:41:15.159158,-1,2025-11-07 12:41:20.308467462
2025-11-07 12:41:15.159158,-137,2025-11-07 12:41:20.316159769
2025-11-07 12:41:15.159158,-32257,2025-11-07 12:41:20.323852077
2025-11-07 12:41:15.159158,-1,2025-11-07 12:41:20.331544385
2025-11-07 12:41:15.159158,-108,2025-11-07 12:41:20.339236692
2025-11-07 12:41:15.159158,-25601,2025-11-07 12:41:20.346929000
2025-11-07 12:41:15.159158,-1,2025-11-07 12:41:20.354621308
2025-11-07 12:41:15.159158,-98,2025-11-07 12:41:20.362313615
2025-11-07 12:41:15.159158,-24321,2025-11-07 12:41:20.370005923
2025-11-07 12:41:15.159158,-1,2025-11-07 12:41:20.377698231
2025-11-07 12:41:15.159158,-91,2025-11-07 12:41:20.385390538
2025-11-07 12:41:15.159158,-21249,2025-11-07 12:41:20.393082846
2025-11-07 12:41:15.159158,-1,2025-11-07 12:41:20.400775154
2025-11-07 12:41:15.159158,-77,2025-11-07 12:41:20.408467462
2025-11-07 12:41:15.159158,-17409,2025-11-07 12:41:20.416159769
2025-11-07 12:41:15.159158,-1,2025-11-07 12:41:20.423852077
2025-11-07 12:41:15.159158,-55,2025-11-07 12:41:20.431544385
2025-11-07 12:41:15.159158,-10753,2025-11-07 12:41:20.439236692
2025-11-07 12:41:15.159158,-1,2025-11-07 12:41:20.446929000
2025-11-07 12:41:15.159158,-28,2025-11-07 12:41:20.454621308
2025-11-07 12:41:15.159158,-3841,2025-11-07 12:41:20.462313615
2025-11-07 12:41:15.159158,-1,2025-11-07 12:41:20.470005923
2025-11-07 12:41:15.159158,0,2025-11-07 12:41:20.477698231
2025-11-07 12:41:15.159158,4864,2025-11-07 12:41:20.485390538
2025-11-07 12:41:15.159158,0,2025-11-07 12:41:20.493082846
2025-11-07 12:41:15.159158,31,2025-11-07 12:41:20.500775154
2025-11-07 12:41:15.159158,7936,2025-11-07 12:41:20.508467462
2025-11-07 12:41:15.159158,0,2025-11-07 12:41:20.516159769
2025-11-07 12:41:15.159158,33,2025-11-07 12:41:20.523852077
2025-11-07 12:41:15.159158,8448,2025-11-07 12:41:20.531544385
2025-11-07 12:41:15.159158,0,2025-11-07 12:41:20.539236692
2025-11-07 12:41:15.159158,24,2025-11-07 12:41:20.546929000
2025-11-07 12:41:15.159158,1024,2025-11-07 12:41:20.554621308
2025-11-07 12:41:15.159158,0,2025-11-07 12:41:20.562313615
2025-11-07 12:41:15.159158,-16,2025-11-07 12:41:20.570005923
2025-11-07 12:41:15.159158,-10241,2025-11-07 12:41:20.577698231
2025-11-07 12:41:15.159158,-1,2025-11-07 12:41:20.585390538
2025-11-07 12:41:15.159158,-57,2025-11-07 12:41:20.593082846
2025-11-07 12:41:15.159158,-16897,2025-11-07 12:41:20.600775154
