timestamp,ecg
20:50:32.626107,201
20:50:32.626107,-9216
20:50:32.626107,0
20:50:32.626107,338
20:50:32.626107,25344
20:50:32.626107,1
20:50:32.626107,317
20:50:32.626107,16896
20:50:32.626107,1
20:50:32.626107,319
20:50:32.626107,10752
20:50:32.626107,1
20:50:32.626107,293
20:50:32.626107,8192
20:50:32.626107,1
20:50:32.626107,286
20:50:32.626107,8192
20:50:32.626107,1
20:50:32.626107,277
20:50:32.626107,2304
20:50:32.626107,1
20:50:32.626107,265
20:50:32.626107,1024
20:50:32.626107,1
20:50:32.626107,251
20:50:32.626107,-3840
20:50:32.626107,0
20:50:32.626107,236
20:50:32.626107,-5632
20:50:32.626107,0
20:50:32.626107,229
20:50:32.626107,-9216
20:50:32.626107,0
20:50:32.626107,210
20:50:32.626107,-13568
20:50:32.626107,0
20:50:32.626107,203
20:50:32.626107,-15360
20:50:32.626107,0
20:50:32.626107,179
20:50:32.626107,-22528
20:50:32.626107,0
20:50:32.626107,156
20:50:32.626107,-31232
20:50:32.626107,0
20:50:32.626107,118
20:50:32.626107,27648
20:50:32.626107,0
20:50:32.626107,104
20:50:32.626107,25344
20:50:32.626107,0
20:50:32.626107,97
20:50:32.626107,24064
20:50:32.626107,0
20:50:32.626107,92
20:50:32.626107,23552
20:50:32.626107,0
20:50:32.626107,97
20:50:32.626107,25856
20:50:32.626107,0
20:50:32.626107,97
20:50:32.626107,20992
20:50:32.626107,0
20:50:32.626107,80
20:50:32.626107,19200
20:50:32.626107,0
20:50:32.626107,66
20:50:32.626107,15616
20:50:32.626107,0
20:50:32.626107,59
20:50:32.626107,12544
20:50:32.626107,0
20:50:32.626107,44
20:50:32.626107,12032
20:50:32.626107,0
20:50:32.626107,49
20:50:32.626107,12032
20:50:32.626107,0
20:50:32.626107,44
20:50:32.626107,12032
20:50:32.626107,0
20:50:32.626107,49
20:50:32.626107,13312
20:50:32.626107,0
20:50:32.626107,52
20:50:32.626107,14336
20:50:32.626107,0
20:50:32.626107,59
20:50:32.626107,15104
20:50:32.626107,0
20:50:32.626107,59
20:50:32.626107,15616
20:50:32.626107,0
20:50:32.626107,63
20:50:32.626107,17408
20:50:32.626107,0
20:50:32.626107,73
20:50:32.626107,19200
20:50:32.626107,0
20:50:32.626107,75
20:50:32.626107,19200
20:50:32.626107,0
20:50:32.626107,75
20:50:32.626107,19200
20:50:32.626107,0
20:50:32.626107,75
20:50:32.626107,18688
20:50:32.626107,0
20:50:32.626107,71
20:50:33.211761,73
20:50:33.211761,18688
20:50:33.211761,0
20:50:33.211761,73
20:50:33.211761,18176
20:50:33.211761,0
20:50:33.211761,68
20:50:33.211761,19200
20:50:33.211761,0
20:50:33.211761,87
20:50:33.211761,25344
20:50:33.211761,0
20:50:33.211761,101
20:50:33.211761,20992
20:50:33.211761,0
20:50:33.211761,59
20:50:33.211761,13824
20:50:33.211761,0
20:50:33.211761,54
20:50:33.211761,12544
20:50:33.211761,0
20:50:33.211761,49
20:50:33.211761,12544
20:50:33.211761,0
20:50:33.211761,44
20:50:33.211761,9472
20:50:33.211761,0
20:50:33.211761,37
20:50:33.211761,10240
20:50:33.211761,0
20:50:33.211761,37
20:50:33.211761,8960
20:50:33.211761,0
20:50:33.211761,33
20:50:33.211761,15104
20:50:33.211761,0
20:50:33.211761,134
20:50:33.211761,13824
20:50:33.211761,0
20:50:33.211761,-466
20:50:33.211761,767
20:50:33.211761,-5
20:50:33.211761,-1837
20:50:33.211761,28671
20:50:33.211761,-7
20:50:33.211761,-850
20:50:33.211761,-14081
20:50:33.211761,-1
20:50:33.211761,165
20:50:33.211761,-20224
20:50:33.211761,0
20:50:33.211761,291
20:50:33.211761,19712
20:50:33.211761,1
20:50:33.211761,291
20:50:33.211761,11264
20:50:33.211761,1
20:50:33.211761,307
20:50:33.211761,5888
20:50:33.211761,1
20:50:33.211761,265
20:50:33.211761,1536
20:50:33.211761,1
20:50:33.211761,248
20:50:33.211761,-5120
20:50:33.211761,0
20:50:33.211761,232
20:50:33.211761,-8192
20:50:33.211761,0
20:50:33.211761,217
20:50:33.211761,-9984
20:50:33.211761,0
20:50:33.211761,217
20:50:33.211761,-11008
20:50:33.211761,0
20:50:33.211761,213
20:50:33.211761,-11008
20:50:33.211761,0
20:50:33.211761,206
20:50:33.211761,-13568
20:50:33.211761,0
20:50:33.211761,203
20:50:33.211761,-15360
20:50:33.211761,0
20:50:33.211761,184
20:50:33.211761,-21504
20:50:33.211761,0
20:50:33.211761,158
20:50:33.211761,-28672
20:50:33.211761,0
20:50:33.211761,125
20:50:33.211761,27648
20:50:33.211761,0
20:50:33.211761,89
20:50:33.211761,18688
20:50:33.211761,0
20:50:33.211761,61
20:50:33.211761,15104
20:50:33.211761,0
20:50:33.211761,59
20:50:33.211761,15104
20:50:33.211761,0
20:50:33.211761,54
20:50:33.211761,13312
20:50:33.211761,0
20:50:33.211761,52
20:50:33.211761,12032
20:50:33.211761,0
20:50:33.211761,42
20:50:33.748118,40
20:50:33.748118,8448
20:50:33.748118,0
20:50:33.748118,23
20:50:33.748118,4608
20:50:33.748118,0
20:50:33.748118,14
20:50:33.748118,1792
20:50:33.748118,0
20:50:33.748118,4
20:50:33.748118,512
20:50:33.748118,0
20:50:33.748118,2
20:50:33.748118,512
20:50:33.748118,0
20:50:33.748118,7
20:50:33.748118,4608
20:50:33.748118,0
20:50:33.748118,30
20:50:33.748118,7168
20:50:33.748118,0
20:50:33.748118,30
20:50:33.748118,9472
20:50:33.748118,0
20:50:33.748118,42
20:50:33.748118,11264
20:50:33.748118,0
20:50:33.748118,47
20:50:33.748118,12032
20:50:33.748118,0
20:50:33.748118,44
20:50:33.748118,12032
20:50:33.748118,0
20:50:33.748118,49
20:50:33.748118,13312
20:50:33.748118,0
20:50:33.748118,56
20:50:33.748118,15104
20:50:33.748118,0
20:50:33.748118,56
20:50:33.748118,14336
20:50:33.748118,0
20:50:33.748118,59
20:50:33.748118,14336
20:50:33.748118,0
20:50:33.748118,56
20:50:33.748118,13824
20:50:33.748118,0
20:50:33.748118,52
20:50:33.748118,13312
20:50:33.748118,0
20:50:33.748118,54
20:50:33.748118,13312
20:50:33.748118,0
20:50:33.748118,52
20:50:33.748118,13824
20:50:33.748118,0
20:50:33.748118,61
20:50:33.748118,19968
20:50:33.748118,0
20:50:33.748118,89
20:50:33.748118,22272
20:50:33.748118,0
20:50:33.748118,66
20:50:33.748118,10752
20:50:33.748118,0
20:50:33.748118,33
20:50:33.748118,8960
20:50:33.748118,0
20:50:33.748118,30
20:50:33.748118,7680
20:50:33.748118,0
20:50:33.748118,37
20:50:33.748118,9472
20:50:33.748118,0
20:50:33.748118,30
20:50:33.748118,7168
20:50:33.748118,0
20:50:33.748118,33
20:50:33.748118,8448
20:50:33.748118,0
20:50:33.748118,33
20:50:33.748118,7680
20:50:33.748118,0
20:50:33.748118,40
20:50:33.748118,25856
20:50:33.748118,0
20:50:33.748118,78
20:50:33.748118,-22272
20:50:33.748118,-2
20:50:33.748118,-1167
20:50:33.748118,-30721
20:50:33.748118,-8
20:50:33.748118,-1986
20:50:33.748118,19455
20:50:33.748118,-5
20:50:33.748118,-215
20:50:33.748118,-12545
20:50:33.748118,0
20:50:33.748118,220
20:50:33.748118,10240
20:50:33.748118,1
20:50:33.748118,362
20:50:33.748118,19712
20:50:33.748118,1
20:50:33.748118,326
20:50:33.748118,20992
20:50:33.748118,1
20:50:33.748118,317
20:50:34.291197,298
20:50:34.291197,10240
20:50:34.291197,1
20:50:34.291197,286
20:50:34.291197,4096
20:50:34.291197,1
20:50:34.291197,265
20:50:34.291197,1536
20:50:34.291197,1
20:50:34.291197,262
20:50:34.291197,2304
20:50:34.291197,1
20:50:34.291197,274
20:50:34.291197,5888
20:50:34.291197,1
20:50:34.291197,269
20:50:34.291197,3328
20:50:34.291197,1
20:50:34.291197,269
20:50:34.291197,1536
20:50:34.291197,1
20:50:34.291197,258
20:50:34.291197,-1280
20:50:34.291197,0
20:50:34.291197,248
20:50:34.291197,-3328
20:50:34.291197,0
20:50:34.291197,232
20:50:34.291197,-9984
20:50:34.291197,0
20:50:34.291197,201
20:50:34.291197,-20736
20:50:34.291197,0
20:50:34.291197,149
20:50:34.291197,-32256
20:50:34.291197,0
20:50:34.291197,113
20:50:34.291197,24832
20:50:34.291197,0
20:50:34.291197,94
20:50:34.291197,22784
20:50:34.291197,0
20:50:34.291197,80
20:50:34.291197,19968
20:50:34.291197,0
20:50:34.291197,78
20:50:34.291197,18688
20:50:34.291197,0
20:50:34.291197,68
20:50:34.291197,16128
20:50:34.291197,0
20:50:34.291197,59
20:50:34.291197,14336
20:50:34.291197,0
20:50:34.291197,52
20:50:34.291197,12544
20:50:34.291197,0
20:50:34.291197,47
20:50:34.291197,11264
20:50:34.291197,0
20:50:34.291197,40
20:50:34.291197,8960
20:50:34.291197,0
20:50:34.291197,33
20:50:34.291197,8960
20:50:34.291197,0
20:50:34.291197,37
20:50:34.291197,8448
20:50:34.291197,0
20:50:34.291197,30
20:50:34.291197,9472
20:50:34.291197,0
20:50:34.291197,40
20:50:34.291197,10240
20:50:34.291197,0
20:50:34.291197,44
20:50:34.291197,10752
20:50:34.291197,0
20:50:34.291197,37
20:50:34.291197,11264
20:50:34.291197,0
20:50:34.291197,47
20:50:34.291197,11264
20:50:34.291197,0
20:50:34.291197,44
20:50:34.291197,12544
20:50:34.291197,0
20:50:34.291197,52
20:50:34.291197,13312
20:50:34.291197,0
20:50:34.291197,52
20:50:34.291197,13824
20:50:34.291197,0
20:50:34.291197,54
20:50:34.291197,13824
20:50:34.291197,0
20:50:34.291197,59
20:50:34.291197,16128
20:50:34.291197,0
20:50:34.291197,63
20:50:34.291197,18688
20:50:34.291197,0
20:50:34.291197,87
20:50:34.291197,26624
20:50:34.291197,0
20:50:34.291197,106
20:50:34.291197,24832
20:50:34.291197,0
20:50:34.291197,78
20:50:34.874633,66
20:50:34.874633,15616
20:50:34.874633,0
20:50:34.874633,56
20:50:34.874633,13824
20:50:34.874633,0
20:50:34.874633,61
20:50:34.874633,19200
20:50:34.874633,0
20:50:34.874633,80
20:50:34.874633,18176
20:50:34.874633,0
20:50:34.874633,73
20:50:34.874633,21760
20:50:34.874633,0
20:50:34.874633,80
20:50:34.874633,18176
20:50:34.874633,0
20:50:34.874633,80
20:50:34.874633,-30464
20:50:34.874633,0
20:50:34.874633,153
20:50:34.874633,25088
20:50:34.874633,-1
20:50:34.874633,-899
20:50:34.874633,31743
20:50:34.874633,-7
20:50:34.874633,-1880
20:50:34.874633,3839
20:50:34.874633,-5
20:50:34.874633,-307
20:50:34.874633,-16385
20:50:34.874633,0
20:50:34.874633,222
20:50:34.874633,7680
20:50:34.874633,1
20:50:34.874633,381
20:50:34.874633,26368
20:50:34.874633,1
20:50:34.874633,338
20:50:34.874633,24064
20:50:34.874633,1
20:50:34.874633,341
20:50:34.874633,17408
20:50:34.874633,1
20:50:34.874633,319
20:50:34.874633,12032
20:50:34.874633,1
20:50:34.874633,286
20:50:34.874633,6400
20:50:34.874633,1
20:50:34.874633,279
20:50:34.874633,4096
20:50:34.874633,1
20:50:34.874633,260
20:50:34.874633,-256
20:50:34.874633,0
20:50:34.874633,251
20:50:34.874633,-2048
20:50:34.874633,0
20:50:34.874633,248
20:50:34.874633,-3840
20:50:34.874633,0
20:50:34.874633,229
20:50:34.874633,-8704
20:50:34.874633,0
20:50:34.874633,217
20:50:34.874633,-11776
20:50:34.874633,0
20:50:34.874633,206
20:50:34.874633,-15360
20:50:34.874633,0
20:50:34.874633,179
20:50:34.874633,-23808
20:50:34.874633,0
20:50:34.874633,146
20:50:34.874633,-31232
20:50:34.874633,0
20:50:34.874633,123
20:50:34.874633,27648
20:50:34.874633,0
20:50:34.874633,104
20:50:34.874633,26624
20:50:34.874633,0
20:50:34.874633,106
20:50:34.874633,27136
20:50:34.874633,0
20:50:34.874633,101
20:50:34.874633,24064
20:50:34.874633,0
20:50:34.874633,94
20:50:34.874633,24832
20:50:34.874633,0
20:50:34.874633,97
20:50:34.874633,21760
20:50:34.874633,0
20:50:34.874633,73
20:50:34.874633,18176
20:50:34.874633,0
20:50:34.874633,68
20:50:34.874633,15616
20:50:34.874633,0
20:50:34.874633,59
20:50:34.874633,15104
20:50:34.874633,0
20:50:34.874633,56
20:50:34.874633,14336
20:50:34.874633,0
20:50:34.874633,52
20:50:35.461034,54
20:50:35.461034,16128
20:50:35.461034,0
20:50:35.461034,61
20:50:35.461034,14336
20:50:35.461034,0
20:50:35.461034,59
20:50:35.461034,16128
20:50:35.461034,0
20:50:35.461034,66
20:50:35.461034,17408
20:50:35.461034,0
20:50:35.461034,80
20:50:35.461034,22272
20:50:35.461034,0
20:50:35.461034,82
20:50:35.461034,19968
20:50:35.461034,0
20:50:35.461034,82
20:50:35.461034,20992
20:50:35.461034,0
20:50:35.461034,80
20:50:35.461034,22272
20:50:35.461034,0
20:50:35.461034,85
20:50:35.461034,20992
20:50:35.461034,0
20:50:35.461034,92
20:50:35.461034,27136
20:50:35.461034,0
20:50:35.461034,113
20:50:35.461034,27648
20:50:35.461034,0
20:50:35.461034,97
20:50:35.461034,20480
20:50:35.461034,0
20:50:35.461034,68
20:50:35.461034,16896
20:50:35.461034,0
20:50:35.461034,68
20:50:35.461034,16896
20:50:35.461034,0
20:50:35.461034,66
20:50:35.461034,16896
20:50:35.461034,0
20:50:35.461034,56
20:50:35.461034,12544
20:50:35.461034,0
20:50:35.461034,54
20:50:35.461034,14336
20:50:35.461034,0
20:50:35.461034,49
20:50:35.461034,12032
20:50:35.461034,0
20:50:35.461034,66
20:50:35.461034,-31744
20:50:35.461034,0
20:50:35.461034,61
20:50:35.461034,20224
20:50:35.461034,-2
20:50:35.461034,-1214
20:50:35.461034,7423
20:50:35.461034,-7
20:50:35.461034,-1617
20:50:35.461034,-8449
20:50:35.461034,-4
20:50:35.461034,-33
20:50:35.461034,-21249
20:50:35.461034,0
20:50:35.461034,175
20:50:35.461034,9472
20:50:35.461034,1
20:50:35.461034,338
20:50:35.461034,10752
20:50:35.461034,1
20:50:35.461034,307
20:50:35.461034,15616
20:50:35.461034,1
20:50:35.461034,293
20:50:35.461034,5888
20:50:35.461034,1
20:50:35.461034,277
20:50:35.461034,1536
20:50:35.461034,1
20:50:35.461034,251
20:50:35.461034,-3328
20:50:35.461034,0
20:50:35.461034,234
20:50:35.461034,-7424
20:50:35.461034,0
20:50:35.461034,222
20:50:35.461034,-9216
20:50:35.461034,0
20:50:35.461034,217
20:50:35.461034,-9984
20:50:35.461034,0
20:50:35.461034,213
20:50:35.461034,-11776
20:50:35.461034,0
20:50:35.461034,210
20:50:35.461034,-13568
20:50:35.461034,0
20:50:35.461034,194
20:50:35.461034,-17664
20:50:35.461034,0
20:50:35.461034,177
20:50:35.461034,-23808
20:50:35.461034,0
20:50:35.461034,144
20:50:35.997737,127
20:50:35.997737,28416
20:50:35.997737,0
20:50:35.997737,94
20:50:35.997737,20992
20:50:35.997737,0
20:50:35.997737,75
20:50:35.997737,18688
20:50:35.997737,0
20:50:35.997737,73
20:50:35.997737,18688
20:50:35.997737,0
20:50:35.997737,71
20:50:35.997737,17408
20:50:35.997737,0
20:50:35.997737,68
20:50:35.997737,19968
20:50:35.997737,0
20:50:35.997737,89
20:50:35.997737,21760
20:50:35.997737,0
20:50:35.997737,73
20:50:35.997737,17408
20:50:35.997737,0
20:50:35.997737,63
20:50:35.997737,14336
20:50:35.997737,0
20:50:35.997737,52
20:50:35.997737,12032
20:50:35.997737,0
20:50:35.997737,40
20:50:35.997737,8960
20:50:35.997737,0
20:50:35.997737,35
20:50:35.997737,8960
20:50:35.997737,0
20:50:35.997737,33
20:50:35.997737,8448
20:50:35.997737,0
20:50:35.997737,40
20:50:35.997737,10240
20:50:35.997737,0
20:50:35.997737,40
20:50:35.997737,10240
20:50:35.997737,0
20:50:35.997737,42
20:50:35.997737,10240
20:50:35.997737,0
20:50:35.997737,37
20:50:35.997737,10240
20:50:35.997737,0
20:50:35.997737,42
20:50:35.997737,10752
20:50:35.997737,0
20:50:35.997737,42
20:50:35.997737,11264
20:50:35.997737,0
20:50:35.997737,42
20:50:35.997737,9472
20:50:35.997737,0
20:50:35.997737,37
20:50:35.997737,10240
20:50:35.997737,0
20:50:35.997737,40
20:50:35.997737,10752
20:50:35.997737,0
20:50:35.997737,52
20:50:35.997737,16896
20:50:35.997737,0
20:50:35.997737,85
20:50:35.997737,24832
20:50:35.997737,0
20:50:35.997737,87
20:50:35.997737,15104
20:50:35.997737,0
20:50:35.997737,40
20:50:35.997737,9472
20:50:35.997737,0
20:50:35.997737,33
20:50:35.997737,5888
20:50:35.997737,0
20:50:35.997737,28
20:50:35.997737,9472
20:50:35.997737,0
20:50:35.997737,30
20:50:35.997737,5376
20:50:35.997737,0
20:50:35.997737,26
20:50:35.997737,8448
20:50:35.997737,0
20:50:35.997737,35
20:50:35.997737,8448
20:50:35.997737,0
20:50:35.997737,37
20:50:35.997737,22272
20:50:35.997737,0
20:50:35.997737,116
20:50:35.997737,20736
20:50:35.997737,-1
20:50:35.997737,-918
20:50:35.997737,12287
20:50:35.997737,-7
20:50:35.997737,-2048
20:50:35.997737,18943
20:50:35.997737,-6
20:50:35.997737,-433
20:50:35.997737,-23553
20:50:35.997737,0
20:50:35.997737,229
20:50:36.538542,279
20:50:36.538542,30208
20:50:36.538542,1
20:50:36.538542,362
20:50:36.538542,22272
20:50:36.538542,1
20:50:36.538542,355
20:50:36.538542,21760
20:50:36.538542,1
20:50:36.538542,319
20:50:36.538542,15616
20:50:36.538542,1
20:50:36.538542,314
20:50:36.538542,14848
20:50:36.538542,1
20:50:36.538542,310
20:50:36.538542,10752
20:50:36.538542,1
20:50:36.538542,293
20:50:36.538542,8960
20:50:36.538542,1
20:50:36.538542,286
20:50:36.538542,6400
20:50:36.538542,1
20:50:36.538542,279
20:50:36.538542,5888
20:50:36.538542,1
20:50:36.538542,277
20:50:36.538542,4608
20:50:36.538542,1
20:50:36.538542,267
20:50:36.538542,1536
20:50:36.538542,1
20:50:36.538542,255
20:50:36.538542,-2048
20:50:36.538542,0
20:50:36.538542,236
20:50:36.538542,-9216
20:50:36.538542,0
20:50:36.538542,198
20:50:36.538542,-20736
20:50:36.538542,0
20:50:36.538542,146
20:50:36.538542,31488
20:50:36.538542,0
20:50:36.538542,106
20:50:36.538542,24064
20:50:36.538542,0
20:50:36.538542,89
20:50:36.538542,21760
20:50:36.538542,0
20:50:36.538542,82
20:50:36.538542,20480
20:50:36.538542,0
20:50:36.538542,78
20:50:36.538542,18176
20:50:36.538542,0
20:50:36.538542,63
20:50:36.538542,15104
20:50:36.538542,0
20:50:36.538542,56
20:50:36.538542,13312
20:50:36.538542,0
20:50:36.538542,47
20:50:36.538542,10752
20:50:36.538542,0
20:50:36.538542,42
20:50:36.538542,9472
20:50:36.538542,0
20:50:36.538542,33
20:50:36.538542,8448
20:50:36.538542,0
20:50:36.538542,33
20:50:36.538542,7680
20:50:36.538542,0
20:50:36.538542,30
20:50:36.538542,7168
20:50:36.538542,0
20:50:36.538542,28
20:50:36.538542,7680
20:50:36.538542,0
20:50:36.538542,33
20:50:36.538542,7680
20:50:36.538542,0
20:50:36.538542,33
20:50:36.538542,8960
20:50:36.538542,0
20:50:36.538542,35
20:50:36.538542,8448
20:50:36.538542,0
20:50:36.538542,35
20:50:36.538542,9472
20:50:36.538542,0
20:50:36.538542,40
20:50:36.538542,8960
20:50:36.538542,0
20:50:36.538542,33
20:50:36.538542,9472
20:50:36.538542,0
20:50:36.538542,42
20:50:36.538542,11264
20:50:36.538542,0
20:50:36.538542,47
20:50:36.538542,11264
20:50:36.538542,0
20:50:36.538542,40
20:50:36.538542,9472
20:50:36.538542,0
20:50:36.538542,40
20:50:37.124327,42
20:50:37.124327,12032
20:50:37.124327,0
20:50:37.124327,54
20:50:37.124327,17408
20:50:37.124327,0
20:50:37.124327,80
20:50:37.124327,22272
20:50:37.124327,0
20:50:37.124327,89
20:50:37.124327,19968
20:50:37.124327,0
20:50:37.124327,56
20:50:37.124327,13312
20:50:37.124327,0
20:50:37.124327,49
20:50:37.124327,11264
20:50:37.124327,0
20:50:37.124327,49
20:50:37.124327,14336
20:50:37.124327,0
20:50:37.124327,54
20:50:37.124327,12544
20:50:37.124327,0
20:50:37.124327,47
20:50:37.124327,12544
20:50:37.124327,0
20:50:37.124327,52
20:50:37.124327,13312
20:50:37.124327,0
20:50:37.124327,49
20:50:37.124327,19200
20:50:37.124327,0
20:50:37.124327,134
20:50:37.124327,2304
20:50:37.124327,0
20:50:37.124327,-573
20:50:37.124327,23807
20:50:37.124327,-6
20:50:37.124327,-2003
20:50:37.124327,16639
20:50:37.124327,-7
20:50:37.124327,-757
20:50:37.124327,14079
20:50:37.124327,0
20:50:37.124327,246
20:50:37.124327,-256
20:50:37.124327,0
20:50:37.124327,357
20:50:37.124327,31232
20:50:37.124327,1
20:50:37.124327,343
20:50:37.124327,24576
20:50:37.124327,1
20:50:37.124327,352
20:50:37.124327,17920
20:50:37.124327,1
20:50:37.124327,314
20:50:37.124327,13824
20:50:37.124327,1
20:50:37.124327,298
20:50:37.124327,7680
20:50:37.124327,1
20:50:37.124327,281
20:50:37.124327,4608
20:50:37.124327,1
20:50:37.124327,269
20:50:37.124327,2816
20:50:37.124327,1
20:50:37.124327,269
20:50:37.124327,4096
20:50:37.124327,1
20:50:37.124327,265
20:50:37.124327,1024
20:50:37.124327,1
20:50:37.124327,258
20:50:37.124327,-768
20:50:37.124327,0
20:50:37.124327,246
20:50:37.124327,-3840
20:50:37.124327,0
20:50:37.124327,234
20:50:37.124327,-6912
20:50:37.124327,0
20:50:37.124327,217
20:50:37.124327,-14080
20:50:37.124327,0
20:50:37.124327,182
20:50:37.124327,-24320
20:50:37.124327,0
20:50:37.124327,144
20:50:37.124327,-32256
20:50:37.124327,0
20:50:37.124327,113
20:50:37.124327,24832
20:50:37.124327,0
20:50:37.124327,94
20:50:37.124327,24832
20:50:37.124327,0
20:50:37.124327,89
20:50:37.124327,20992
20:50:37.124327,0
20:50:37.124327,80
20:50:37.124327,20480
20:50:37.124327,0
20:50:37.124327,73
20:50:37.124327,18176
20:50:37.124327,0
20:50:37.124327,68
20:50:37.707024,61
20:50:37.707024,13312
20:50:37.707024,0
20:50:37.707024,47
20:50:37.707024,12032
20:50:37.707024,0
20:50:37.707024,44
20:50:37.707024,11264
20:50:37.707024,0
20:50:37.707024,42
20:50:37.707024,10240
20:50:37.707024,0
20:50:37.707024,40
20:50:37.707024,12544
20:50:37.707024,0
20:50:37.707024,61
20:50:37.707024,14336
20:50:37.707024,0
20:50:37.707024,49
20:50:37.707024,12544
20:50:37.707024,0
20:50:37.707024,54
20:50:37.707024,14336
20:50:37.707024,0
20:50:37.707024,61
20:50:37.707024,16128
20:50:37.707024,0
20:50:37.707024,61
20:50:37.707024,14336
20:50:37.707024,0
20:50:37.707024,61
20:50:37.707024,16896
20:50:37.707024,0
20:50:37.707024,61
20:50:37.707024,15104
20:50:37.707024,0
20:50:37.707024,59
20:50:37.707024,13824
20:50:37.707024,0
20:50:37.707024,54
20:50:37.707024,14336
20:50:37.707024,0
20:50:37.707024,59
20:50:37.707024,14336
20:50:37.707024,0
20:50:37.707024,59
20:50:37.707024,14336
20:50:37.707024,0
20:50:37.707024,52
20:50:37.707024,13824
20:50:37.707024,0
20:50:37.707024,56
20:50:37.707024,16128
20:50:37.707024,0
20:50:37.707024,73
20:50:37.707024,19968
20:50:37.707024,0
20:50:37.707024,85
20:50:37.707024,20992
20:50:37.707024,0
20:50:37.707024,66
20:50:37.707024,12032
20:50:37.707024,0
20:50:37.707024,47
20:50:37.707024,12032
20:50:37.707024,0
20:50:37.707024,37
20:50:37.707024,10752
20:50:37.707024,0
20:50:37.707024,52
20:50:37.707024,12032
20:50:37.707024,0
20:50:37.707024,42
20:50:37.707024,12032
20:50:37.707024,0
20:50:37.707024,52
20:50:37.707024,13312
20:50:37.707024,0
20:50:37.707024,52
20:50:37.707024,13312
20:50:37.707024,0
20:50:37.707024,73
20:50:37.707024,-30464
20:50:37.707024,0
20:50:37.707024,66
20:50:37.707024,22016
20:50:37.707024,-2
20:50:37.707024,-1217
20:50:37.707024,5119
20:50:37.707024,-7
20:50:37.707024,-1619
20:50:37.707024,-7937
20:50:37.707024,-4
20:50:37.707024,-21
20:50:37.707024,-16385
20:50:37.707024,0
20:50:37.707024,191
20:50:37.707024,13824
20:50:37.707024,1
20:50:37.707024,357
20:50:37.707024,15616
20:50:37.707024,1
20:50:37.707024,322
20:50:37.707024,19200
20:50:37.707024,1
20:50:37.707024,307
20:50:37.707024,10240
20:50:37.707024,1
20:50:37.707024,288
20:50:38.206040,277
20:50:38.206040,1536
20:50:38.206040,1
20:50:38.206040,260
20:50:38.206040,-256
20:50:38.206040,0
20:50:38.206040,251
20:50:38.206040,-3328
20:50:38.206040,0
20:50:38.206040,236
20:50:38.206040,-6144
20:50:38.206040,0
20:50:38.206040,229
20:50:38.206040,-8192
20:50:38.206040,0
20:50:38.206040,215
20:50:38.206040,-12288
20:50:38.206040,0
20:50:38.206040,213
20:50:38.206040,-9984
20:50:38.206040,0
20:50:38.206040,206
20:50:38.206040,-17664
20:50:38.206040,0
20:50:38.206040,179
20:50:38.206040,-22016
20:50:38.206040,0
20:50:38.206040,149
20:50:38.206040,-32256
20:50:38.206040,0
20:50:38.206040,120
20:50:38.206040,28928
20:50:38.206040,0
20:50:38.206040,111
20:50:38.206040,27648
20:50:38.206040,0
20:50:38.206040,106
20:50:38.206040,25856
20:50:38.206040,0
20:50:38.206040,101
20:50:38.206040,25856
20:50:38.206040,0
20:50:38.206040,97
20:50:38.206040,23552
20:50:38.206040,0
20:50:38.206040,92
20:50:38.206040,22272
20:50:38.206040,0
20:50:38.206040,78
20:50:38.206040,18688
20:50:38.206040,0
20:50:38.206040,68
20:50:38.206040,15616
20:50:38.206040,0
20:50:38.206040,56
20:50:38.206040,12032
20:50:38.206040,0
20:50:38.206040,42
20:50:38.206040,10240
20:50:38.206040,0
20:50:38.206040,42
20:50:38.206040,11264
20:50:38.206040,0
20:50:38.206040,40
20:50:38.206040,9472
20:50:38.206040,0
20:50:38.206040,40
20:50:38.206040,10752
20:50:38.206040,0
20:50:38.206040,40
20:50:38.206040,10240
20:50:38.206040,0
20:50:38.206040,44
20:50:38.206040,10752
20:50:38.206040,0
20:50:38.206040,37
20:50:38.206040,10240
20:50:38.206040,0
20:50:38.206040,47
20:50:38.206040,10752
20:50:38.206040,0
20:50:38.206040,40
20:50:38.206040,10240
20:50:38.206040,0
20:50:38.206040,37
20:50:38.206040,9472
20:50:38.206040,0
20:50:38.206040,40
20:50:38.206040,9472
20:50:38.206040,0
20:50:38.206040,33
20:50:38.206040,9472
20:50:38.206040,0
20:50:38.206040,49
20:50:38.206040,16896
20:50:38.206040,0
20:50:38.206040,73
20:50:38.206040,18176
20:50:38.206040,0
20:50:38.206040,56
20:50:38.206040,9472
20:50:38.206040,0
20:50:38.206040,28
20:50:38.206040,5888
20:50:38.206040,0
20:50:38.206040,18
20:50:38.206040,5376
20:50:38.206040,0
20:50:38.206040,28
20:50:38.836914,26
20:50:38.836914,2816
20:50:38.836914,0
20:50:38.836914,14
20:50:38.836914,6656
20:50:38.836914,0
20:50:38.836914,37
20:50:38.836914,11264
20:50:38.836914,0
20:50:38.836914,42
20:50:38.836914,13312
20:50:38.836914,0
20:50:38.836914,120
20:50:38.836914,25856
20:50:38.836914,0
20:50:38.836914,-322
20:50:38.836914,-23553
20:50:38.836914,-5
20:50:38.836914,-1787
20:50:38.836914,-1025
20:50:38.836914,-8
20:50:38.836914,-1049
20:50:38.836914,23551
20:50:38.836914,-1
20:50:38.836914,179
20:50:38.836914,-15872
20:50:38.836914,0
20:50:38.836914,291
20:50:38.836914,26368
20:50:38.836914,1
20:50:38.836914,326
20:50:38.836914,17920
20:50:38.836914,1
20:50:38.836914,338
20:50:38.836914,14848
20:50:38.836914,1
20:50:38.836914,300
20:50:38.836914,9472
20:50:38.836914,1
20:50:38.836914,277
20:50:38.836914,2816
20:50:38.836914,1
20:50:38.836914,262
20:50:38.836914,-768
20:50:38.836914,0
20:50:38.836914,248
20:50:38.836914,-2048
20:50:38.836914,0
20:50:38.836914,246
20:50:38.836914,-3840
20:50:38.836914,0
20:50:38.836914,243
20:50:38.836914,-3328
20:50:38.836914,0
20:50:38.836914,239
20:50:38.836914,-5632
20:50:38.836914,0
20:50:38.836914,229
20:50:38.836914,-8192
20:50:38.836914,0
20:50:38.836914,215
20:50:38.836914,-12800
20:50:38.836914,0
20:50:38.836914,194
20:50:38.836914,-20736
20:50:38.836914,0
20:50:38.836914,153
20:50:38.836914,-31232
20:50:38.836914,0
20:50:38.836914,118
20:50:38.836914,25344
20:50:38.836914,0
20:50:38.836914,87
20:50:38.836914,20992
20:50:38.836914,0
20:50:38.836914,78
20:50:38.836914,18688
20:50:38.836914,0
20:50:38.836914,73
20:50:38.836914,18688
20:50:38.836914,0
20:50:38.836914,68
20:50:38.836914,16128
20:50:38.836914,0
20:50:38.836914,63
20:50:38.836914,15104
20:50:38.836914,0
20:50:38.836914,49
20:50:38.836914,10752
20:50:38.836914,0
20:50:38.836914,37
20:50:38.836914,8960
20:50:38.836914,0
20:50:38.836914,33
20:50:38.836914,7168
20:50:38.836914,0
20:50:38.836914,21
20:50:38.836914,4608
20:50:38.836914,0
20:50:38.836914,16
20:50:38.836914,3584
20:50:38.836914,0
20:50:38.836914,14
20:50:38.836914,4096
20:50:38.836914,0
20:50:38.836914,18
20:50:38.836914,4096
20:50:38.836914,0
20:50:38.836914,16
20:50:39.372003,18
20:50:39.372003,5888
20:50:39.372003,0
20:50:39.372003,30
20:50:39.372003,6656
20:50:39.372003,0
20:50:39.372003,23
20:50:39.372003,6656
20:50:39.372003,0
20:50:39.372003,26
20:50:39.372003,5888
20:50:39.372003,0
20:50:39.372003,26
20:50:39.372003,6656
20:50:39.372003,0
20:50:39.372003,23
20:50:39.372003,6656
20:50:39.372003,0
20:50:39.372003,30
20:50:39.372003,12032
20:50:39.372003,0
20:50:39.372003,56
20:50:39.372003,13312
20:50:39.372003,0
20:50:39.372003,54
20:50:39.372003,15104
20:50:39.372003,0
20:50:39.372003,56
20:50:39.372003,13312
20:50:39.372003,0
20:50:39.372003,52
20:50:39.372003,12544
20:50:39.372003,0
20:50:39.372003,54
20:50:39.372003,13824
20:50:39.372003,0
20:50:39.372003,54
20:50:39.372003,15104
20:50:39.372003,0
20:50:39.372003,68
20:50:39.372003,20992
20:50:39.372003,0
20:50:39.372003,87
20:50:39.372003,19200
20:50:39.372003,0
20:50:39.372003,54
20:50:39.372003,10240
20:50:39.372003,0
20:50:39.372003,37
20:50:39.372003,8960
20:50:39.372003,0
20:50:39.372003,28
20:50:39.372003,7680
20:50:39.372003,0
20:50:39.372003,35
20:50:39.372003,10240
20:50:39.372003,0
20:50:39.372003,42
20:50:39.372003,9472
20:50:39.372003,0
20:50:39.372003,37
20:50:39.372003,11264
20:50:39.372003,0
20:50:39.372003,49
20:50:39.372003,12032
20:50:39.372003,0
20:50:39.372003,54
20:50:39.372003,27648
20:50:39.372003,0
20:50:39.372003,104
20:50:39.372003,-2816
20:50:39.372003,-2
20:50:39.372003,-1068
20:50:39.372003,-13825
20:50:39.372003,-8
20:50:39.372003,-1996
20:50:39.372003,-1025
20:50:39.372003,-6
20:50:39.372003,-286
20:50:39.372003,-16897
20:50:39.372003,0
20:50:39.372003,222
20:50:39.372003,8960
20:50:39.372003,1
20:50:39.372003,371
20:50:39.372003,22272
20:50:39.372003,1
20:50:39.372003,326
20:50:39.372003,21760
20:50:39.372003,1
20:50:39.372003,326
20:50:39.372003,13056
20:50:39.372003,1
20:50:39.372003,305
20:50:39.372003,9472
20:50:39.372003,1
20:50:39.372003,279
20:50:39.372003,4608
20:50:39.372003,1
20:50:39.372003,269
20:50:39.372003,1024
20:50:39.372003,1
20:50:39.372003,260
20:50:39.372003,512
20:50:39.372003,1
20:50:39.372003,253
20:50:39.372003,-1280
20:50:39.372003,0
20:50:39.372003,248
20:50:39.916747,246
20:50:39.916747,-3328
20:50:39.916747,0
20:50:39.916747,239
20:50:39.916747,-5632
20:50:39.916747,0
20:50:39.916747,229
20:50:39.916747,-8704
20:50:39.916747,0
20:50:39.916747,213
20:50:39.916747,-14080
20:50:39.916747,0
20:50:39.916747,187
20:50:39.916747,-23296
20:50:39.916747,0
20:50:39.916747,151
20:50:39.916747,-29184
20:50:39.916747,0
20:50:39.916747,123
20:50:39.916747,27648
20:50:39.916747,0
20:50:39.916747,104
20:50:39.916747,24832
20:50:39.916747,0
20:50:39.916747,92
20:50:39.916747,22272
20:50:39.916747,0
20:50:39.916747,82
20:50:39.916747,19968
20:50:39.916747,0
20:50:39.916747,73
20:50:39.916747,17408
20:50:39.916747,0
20:50:39.916747,61
20:50:39.916747,14336
20:50:39.916747,0
20:50:39.916747,54
20:50:39.916747,12544
20:50:39.916747,0
20:50:39.916747,44
20:50:39.916747,10240
20:50:39.916747,0
20:50:39.916747,40
20:50:39.916747,8960
20:50:39.916747,0
20:50:39.916747,30
20:50:39.916747,7680
20:50:39.916747,0
20:50:39.916747,30
20:50:39.916747,7168
20:50:39.916747,0
20:50:39.916747,28
20:50:39.916747,6656
20:50:39.916747,0
20:50:39.916747,23
20:50:39.916747,6656
20:50:39.916747,0
20:50:39.916747,26
20:50:39.916747,7168
20:50:39.916747,0
20:50:39.916747,26
20:50:39.916747,6656
20:50:39.916747,0
20:50:39.916747,26
20:50:39.916747,7168
20:50:39.916747,0
20:50:39.916747,30
20:50:39.916747,8448
20:50:39.916747,0
20:50:39.916747,33
20:50:39.916747,8448
20:50:39.916747,0
20:50:39.916747,30
20:50:39.916747,8448
20:50:39.916747,0
20:50:39.916747,35
20:50:39.916747,8960
20:50:39.916747,0
20:50:39.916747,35
20:50:39.916747,9472
20:50:39.916747,0
20:50:39.916747,40
20:50:39.916747,10240
20:50:39.916747,0
20:50:39.916747,40
20:50:39.916747,10240
20:50:39.916747,0
20:50:39.916747,42
20:50:39.916747,10752
20:50:39.916747,0
20:50:39.916747,42
20:50:39.916747,9472
20:50:39.916747,0
20:50:39.916747,42
20:50:39.916747,13312
20:50:39.916747,0
20:50:39.916747,59
20:50:39.916747,18176
20:50:39.916747,0
20:50:39.916747,78
20:50:39.916747,17408
20:50:39.916747,0
20:50:39.916747,52
20:50:39.916747,10240
20:50:39.916747,0
20:50:39.916747,35
20:50:39.916747,8448
20:50:39.916747,0
20:50:39.916747,35
20:50:40.501709,40
20:50:40.501709,12544
20:50:40.501709,0
20:50:40.501709,56
20:50:40.501709,13824
20:50:40.501709,0
20:50:40.501709,52
20:50:40.501709,13824
20:50:40.501709,0
20:50:40.501709,59
20:50:40.501709,17408
20:50:40.501709,0
20:50:40.501709,80
20:50:40.501709,22784
20:50:40.501709,0
20:50:40.501709,146
20:50:40.501709,-28672
20:50:40.501709,0
20:50:40.501709,-234
20:50:40.501709,-2305
20:50:40.501709,-5
20:50:40.501709,-1787
20:50:40.501709,-28417
20:50:40.501709,-8
20:50:40.501709,-1188
20:50:40.501709,9471
20:50:40.501709,-1
20:50:40.501709,220
20:50:40.501709,-4352
20:50:40.501709,0
20:50:40.501709,314
20:50:40.501709,-30464
20:50:40.501709,1
20:50:40.501709,364
20:50:40.501709,24576
20:50:40.501709,1
20:50:40.501709,364
20:50:40.501709,22784
20:50:40.501709,1
20:50:40.501709,324
20:50:40.501709,16128
20:50:40.501709,1
20:50:40.501709,305
20:50:40.501709,9472
20:50:40.501709,1
20:50:40.501709,293
20:50:40.501709,7168
20:50:40.501709,1
20:50:40.501709,269
20:50:40.501709,3328
20:50:40.501709,1
20:50:40.501709,265
20:50:40.501709,1024
20:50:40.501709,1
20:50:40.501709,262
20:50:40.501709,1024
20:50:40.501709,1
20:50:40.501709,251
20:50:40.501709,-2560
20:50:40.501709,0
20:50:40.501709,246
20:50:40.501709,-3840
20:50:40.501709,0
20:50:40.501709,234
20:50:40.501709,-7424
20:50:40.501709,0
20:50:40.501709,217
20:50:40.501709,-13568
20:50:40.501709,0
20:50:40.501709,187
20:50:40.501709,-22528
20:50:40.501709,0
20:50:40.501709,149
20:50:40.501709,-31744
20:50:40.501709,0
20:50:40.501709,116
20:50:40.501709,27136
20:50:40.501709,0
20:50:40.501709,101
20:50:40.501709,24832
20:50:40.501709,0
20:50:40.501709,94
20:50:40.501709,24064
20:50:40.501709,0
20:50:40.501709,94
20:50:40.501709,21760
20:50:40.501709,0
20:50:40.501709,78
20:50:40.501709,19200
20:50:40.501709,0
20:50:40.501709,78
20:50:40.501709,18688
20:50:40.501709,0
20:50:40.501709,63
20:50:40.501709,15616
20:50:40.501709,0
20:50:40.501709,56
20:50:40.501709,12032
20:50:40.501709,0
20:50:40.501709,44
20:50:40.501709,12544
20:50:40.501709,0
20:50:40.501709,52
20:50:40.501709,12032
20:50:40.501709,0
20:50:40.501709,44
20:50:40.501709,10752
20:50:40.501709,0
20:50:40.501709,47
20:50:41.037588,47
20:50:41.037588,10752
20:50:41.037588,0
20:50:41.037588,44
20:50:41.037588,12032
20:50:41.037588,0
20:50:41.037588,47
20:50:41.037588,12032
20:50:41.037588,0
20:50:41.037588,47
20:50:41.037588,12032
20:50:41.037588,0
20:50:41.037588,47
20:50:41.037588,12544
20:50:41.037588,0
20:50:41.037588,59
20:50:41.037588,19200
20:50:41.037588,0
20:50:41.037588,78
20:50:41.037588,18176
20:50:41.037588,0
20:50:41.037588,71
20:50:41.037588,19200
20:50:41.037588,0
20:50:41.037588,73
20:50:41.037588,18176
20:50:41.037588,0
20:50:41.037588,68
20:50:41.037588,16896
20:50:41.037588,0
20:50:41.037588,68
20:50:41.037588,17408
20:50:41.037588,0
20:50:41.037588,68
20:50:41.037588,17408
20:50:41.037588,0
20:50:41.037588,68
20:50:41.037588,18176
20:50:41.037588,0
20:50:41.037588,80
20:50:41.037588,22272
20:50:41.037588,0
20:50:41.037588,99
20:50:41.037588,27136
20:50:41.037588,0
20:50:41.037588,97
20:50:41.037588,19968
20:50:41.037588,0
20:50:41.037588,61
20:50:41.037588,15104
20:50:41.037588,0
20:50:41.037588,61
20:50:41.037588,15104
20:50:41.037588,0
20:50:41.037588,59
20:50:41.037588,16128
20:50:41.037588,0
20:50:41.037588,63
20:50:41.037588,14336
20:50:41.037588,0
20:50:41.037588,54
20:50:41.037588,14336
20:50:41.037588,0
20:50:41.037588,54
20:50:41.037588,13824
20:50:41.037588,0
20:50:41.037588,56
20:50:41.037588,17408
20:50:41.037588,0
20:50:41.037588,132
20:50:41.037588,30720
20:50:41.037588,0
20:50:41.037588,-286
20:50:41.037588,-8961
20:50:41.037588,-5
20:50:41.037588,-1705
20:50:41.037588,20223
20:50:41.037588,-7
20:50:41.037588,-992
20:50:41.037588,29439
20:50:41.037588,-1
20:50:41.037588,170
20:50:41.037588,-22528
20:50:41.037588,0
20:50:41.037588,272
20:50:41.037588,23552
20:50:41.037588,1
20:50:41.037588,312
20:50:41.037588,13056
20:50:41.037588,1
20:50:41.037588,329
20:50:41.037588,13056
20:50:41.037588,1
20:50:41.037588,286
20:50:41.037588,7168
20:50:41.037588,1
20:50:41.037588,274
20:50:41.037588,512
20:50:41.037588,1
20:50:41.037588,248
20:50:41.037588,-3840
20:50:41.037588,0
20:50:41.037588,232
20:50:41.037588,-6912
20:50:41.037588,0
20:50:41.037588,229
20:50:41.037588,-8704
20:50:41.037588,0
20:50:41.037588,215
20:50:41.580393,210
20:50:41.580393,-11776
20:50:41.580393,0
20:50:41.580393,206
20:50:41.580393,-14848
20:50:41.580393,0
20:50:41.580393,194
20:50:41.580393,-17664
20:50:41.580393,0
20:50:41.580393,175
20:50:41.580393,-22016
20:50:41.580393,0
20:50:41.580393,170
20:50:41.580393,-24320
20:50:41.580393,0
20:50:41.580393,137
20:50:41.580393,30720
20:50:41.580393,0
20:50:41.580393,111
20:50:41.580393,25856
20:50:41.580393,0
20:50:41.580393,94
20:50:41.580393,23552
20:50:41.580393,0
20:50:41.580393,92
20:50:41.580393,22784
20:50:41.580393,0
20:50:41.580393,92
20:50:41.580393,24064
20:50:41.580393,0
20:50:41.580393,89
20:50:41.580393,20480
20:50:41.580393,0
20:50:41.580393,75
20:50:41.580393,16896
20:50:41.580393,0
20:50:41.580393,56
20:50:41.580393,13824
20:50:41.580393,0
20:50:41.580393,49
20:50:41.580393,10240
20:50:41.580393,0
20:50:41.580393,30
20:50:41.580393,6656
20:50:41.580393,0
20:50:41.580393,26
20:50:41.580393,5888
20:50:41.580393,0
20:50:41.580393,21
20:50:41.580393,5376
20:50:41.580393,0
20:50:41.580393,21
20:50:41.580393,5376
20:50:41.580393,0
20:50:41.580393,23
20:50:41.580393,7168
20:50:41.580393,0
20:50:41.580393,28
20:50:41.580393,6656
20:50:41.580393,0
20:50:41.580393,26
20:50:41.580393,7168
20:50:41.580393,0
20:50:41.580393,33
20:50:41.580393,7680
20:50:41.580393,0
20:50:41.580393,30
20:50:41.580393,8960
20:50:41.580393,0
20:50:41.580393,40
20:50:41.580393,8960
20:50:41.580393,0
20:50:41.580393,35
20:50:41.580393,9472
20:50:41.580393,0
20:50:41.580393,42
20:50:41.580393,11264
20:50:41.580393,0
20:50:41.580393,44
20:50:41.580393,11264
20:50:41.580393,0
20:50:41.580393,47
20:50:41.580393,13312
20:50:41.580393,0
20:50:41.580393,52
20:50:41.580393,13312
20:50:41.580393,0
20:50:41.580393,52
20:50:41.580393,13312
20:50:41.580393,0
20:50:41.580393,52
20:50:41.580393,13312
20:50:41.580393,0
20:50:41.580393,49
20:50:41.580393,13312
20:50:41.580393,0
20:50:41.580393,52
20:50:41.580393,15104
20:50:41.580393,0
20:50:41.580393,71
20:50:41.580393,20480
20:50:41.580393,0
20:50:41.580393,80
20:50:41.580393,16896
20:50:41.580393,0
20:50:41.580393,49
20:50:41.580393,8448
20:50:41.580393,0
20:50:41.580393,30
20:50:42.165349,30
20:50:42.165349,7168
20:50:42.165349,0
20:50:42.165349,30
20:50:42.165349,9472
20:50:42.165349,0
20:50:42.165349,42
20:50:42.165349,12032
20:50:42.165349,0
20:50:42.165349,54
20:50:42.165349,13824
20:50:42.165349,0
20:50:42.165349,49
20:50:42.165349,14336
20:50:42.165349,0
20:50:42.165349,59
20:50:42.165349,18176
20:50:42.165349,0
20:50:42.165349,132
20:50:42.165349,22784
20:50:42.165349,0
20:50:42.165349,-383
20:50:42.165349,12287
20:50:42.165349,-5
20:50:42.165349,-1932
20:50:42.165349,-28929
20:50:42.165349,-8
20:50:42.165349,-1068
20:50:42.165349,-32257
20:50:42.165349,-1
20:50:42.165349,220
20:50:42.165349,-6912
20:50:42.165349,0
20:50:42.165349,319
20:50:42.165349,31232
20:50:42.165349,1
20:50:42.165349,343
20:50:42.165349,20992
20:50:42.165349,1
20:50:42.165349,348
20:50:42.165349,17920
20:50:42.165349,1
20:50:42.165349,310
20:50:42.165349,12544
20:50:42.165349,1
20:50:42.165349,291
20:50:42.165349,4608
20:50:42.165349,1
20:50:42.165349,267
20:50:42.165349,1536
20:50:42.165349,1
20:50:42.165349,260
20:50:42.165349,-256
20:50:42.165349,0
20:50:42.165349,251
20:50:42.165349,-2048
20:50:42.165349,0
20:50:42.165349,251
20:50:42.165349,-1280
20:50:42.165349,0
20:50:42.165349,248
20:50:42.165349,-2048
20:50:42.165349,0
20:50:42.165349,246
20:50:42.165349,-4352
20:50:42.165349,0
20:50:42.165349,232
20:50:42.165349,-7424
20:50:42.165349,0
20:50:42.165349,224
20:50:42.165349,-11008
20:50:42.165349,0
20:50:42.165349,187
20:50:42.165349,-24320
20:50:42.165349,0
20:50:42.165349,142
20:50:42.165349,31488
20:50:42.165349,0
20:50:42.165349,104
20:50:42.165349,23552
20:50:42.165349,0
20:50:42.165349,87
20:50:42.165349,20992
20:50:42.165349,0
20:50:42.165349,78
20:50:42.165349,19968
20:50:42.165349,0
20:50:42.165349,71
20:50:42.165349,16896
20:50:42.165349,0
20:50:42.165349,63
20:50:42.165349,15616
20:50:42.165349,0
20:50:42.165349,56
20:50:42.165349,13312
20:50:42.165349,0
20:50:42.165349,49
20:50:42.165349,10752
20:50:42.165349,0
20:50:42.165349,35
20:50:42.165349,8960
20:50:42.165349,0
20:50:42.165349,33
20:50:42.165349,7168
20:50:42.165349,0
20:50:42.165349,26
20:50:42.165349,7168
20:50:42.165349,0
20:50:42.165349,30
20:50:42.747981,28
20:50:42.747981,7680
20:50:42.747981,0
20:50:42.747981,33
20:50:42.747981,7680
20:50:42.747981,0
20:50:42.747981,28
20:50:42.747981,7680
20:50:42.747981,0
20:50:42.747981,33
20:50:42.747981,8960
20:50:42.747981,0
20:50:42.747981,49
20:50:42.747981,16128
20:50:42.747981,0
20:50:42.747981,63
20:50:42.747981,15616
20:50:42.747981,0
20:50:42.747981,61
20:50:42.747981,15616
20:50:42.747981,0
20:50:42.747981,63
20:50:42.747981,16896
20:50:42.747981,0
20:50:42.747981,63
20:50:42.747981,15616
20:50:42.747981,0
20:50:42.747981,61
20:50:42.747981,16128
20:50:42.747981,0
20:50:42.747981,61
20:50:42.747981,16128
20:50:42.747981,0
20:50:42.747981,66
20:50:42.747981,16128
20:50:42.747981,0
20:50:42.747981,61
20:50:42.747981,15616
20:50:42.747981,0
20:50:42.747981,61
20:50:42.747981,15616
20:50:42.747981,0
20:50:42.747981,61
20:50:42.747981,16128
20:50:42.747981,0
20:50:42.747981,66
20:50:42.747981,18688
20:50:42.747981,0
20:50:42.747981,85
20:50:42.747981,23552
20:50:42.747981,0
20:50:42.747981,78
20:50:42.747981,13824
20:50:42.747981,0
20:50:42.747981,42
20:50:42.747981,10752
20:50:42.747981,0
20:50:42.747981,42
20:50:42.747981,12032
20:50:42.747981,0
20:50:42.747981,52
20:50:42.747981,13824
20:50:42.747981,0
20:50:42.747981,59
20:50:42.747981,14336
20:50:42.747981,0
20:50:42.747981,52
20:50:42.747981,13824
20:50:42.747981,0
20:50:42.747981,56
20:50:42.747981,14336
20:50:42.747981,0
20:50:42.747981,52
20:50:42.747981,21760
20:50:42.747981,0
20:50:42.747981,156
20:50:42.747981,5888
20:50:42.747981,0
20:50:42.747981,-568
20:50:42.747981,29951
20:50:42.747981,-6
20:50:42.747981,-1951
20:50:42.747981,29951
20:50:42.747981,-7
20:50:42.747981,-731
20:50:42.747981,13567
20:50:42.747981,0
20:50:42.747981,227
20:50:42.747981,-4352
20:50:42.747981,0
20:50:42.747981,355
20:50:42.747981,32000
20:50:42.747981,1
20:50:42.747981,341
20:50:42.747981,23552
20:50:42.747981,1
20:50:42.747981,352
20:50:42.747981,18688
20:50:42.747981,1
20:50:42.747981,317
20:50:42.747981,14336
20:50:42.747981,1
20:50:42.747981,300
20:50:42.747981,8192
20:50:42.747981,1
20:50:42.747981,281
20:50:42.747981,4608
20:50:42.747981,1
20:50:42.747981,269
20:50:43.288661,269
20:50:43.288661,1536
20:50:43.288661,1
20:50:43.288661,253
20:50:43.288661,-1280
20:50:43.288661,0
20:50:43.288661,251
20:50:43.288661,-3328
20:50:43.288661,0
20:50:43.288661,241
20:50:43.288661,-3840
20:50:43.288661,0
20:50:43.288661,232
20:50:43.288661,-9216
20:50:43.288661,0
20:50:43.288661,213
20:50:43.288661,-11008
20:50:43.288661,0
20:50:43.288661,213
20:50:43.288661,-15360
20:50:43.288661,0
20:50:43.288661,172
20:50:43.288661,-26368
20:50:43.288661,0
20:50:43.288661,142
20:50:43.288661,-32256
20:50:43.288661,0
20:50:43.288661,127
20:50:43.288661,31488
20:50:43.288661,0
20:50:43.288661,118
20:50:43.288661,28928
20:50:43.288661,0
20:50:43.288661,108
20:50:43.288661,25856
20:50:43.288661,0
20:50:43.288661,104
20:50:43.288661,26624
20:50:43.288661,0
20:50:43.288661,97
20:50:43.288661,22272
20:50:43.288661,0
20:50:43.288661,82
20:50:43.288661,20480
20:50:43.288661,0
20:50:43.288661,73
20:50:43.288661,18176
20:50:43.288661,0
20:50:43.288661,73
20:50:43.288661,18176
20:50:43.288661,0
20:50:43.288661,66
20:50:43.288661,17408
20:50:43.288661,0
20:50:43.288661,73
20:50:43.288661,17408
20:50:43.288661,0
20:50:43.288661,63
20:50:43.288661,16128
20:50:43.288661,0
20:50:43.288661,63
20:50:43.288661,16128
20:50:43.288661,0
20:50:43.288661,71
20:50:43.288661,18176
20:50:43.288661,0
20:50:43.288661,63
20:50:43.288661,16896
20:50:43.288661,0
20:50:43.288661,75
20:50:43.288661,19968
20:50:43.288661,0
20:50:43.288661,73
20:50:43.288661,19200
20:50:43.288661,0
20:50:43.288661,78
20:50:43.288661,19200
20:50:43.288661,0
20:50:43.288661,80
20:50:43.288661,20992
20:50:43.288661,0
20:50:43.288661,80
20:50:43.288661,19968
20:50:43.288661,0
20:50:43.288661,82
20:50:43.288661,21760
20:50:43.288661,0
20:50:43.288661,85
20:50:43.288661,22272
20:50:43.288661,0
20:50:43.288661,92
20:50:43.288661,26624
20:50:43.288661,0
20:50:43.288661,106
20:50:43.288661,24064
20:50:43.288661,0
20:50:43.288661,80
20:50:43.288661,18176
20:50:43.288661,0
20:50:43.288661,63
20:50:43.288661,15104
20:50:43.288661,0
20:50:43.288661,59
20:50:43.288661,16128
20:50:43.288661,0
20:50:43.288661,66
20:50:43.288661,15616
20:50:43.288661,0
20:50:43.288661,54
20:50:43.875340,56
20:50:43.875340,14336
20:50:43.875340,0
20:50:43.875340,54
20:50:43.875340,15104
20:50:43.875340,0
20:50:43.875340,59
20:50:43.875340,22784
20:50:43.875340,0
20:50:43.875340,146
20:50:43.875340,-5376
20:50:43.875340,-1
20:50:43.875340,-613
20:50:43.875340,-19969
20:50:43.875340,-6
20:50:43.875340,-1733
20:50:43.875340,-26113
20:50:43.875340,-6
20:50:43.875340,-518
20:50:43.875340,25599
20:50:43.875340,0
20:50:43.875340,182
20:50:43.875340,-10496
20:50:43.875340,0
20:50:43.875340,341
20:50:43.875340,22784
20:50:43.875340,1
20:50:43.875340,305
20:50:43.875340,16896
20:50:43.875340,1
20:50:43.875340,322
20:50:43.875340,10240
20:50:43.875340,1
20:50:43.875340,288
20:50:43.875340,7680
20:50:43.875340,1
20:50:43.875340,274
20:50:43.875340,1536
20:50:43.875340,1
20:50:43.875340,255
20:50:43.875340,-2048
20:50:43.875340,0
20:50:43.875340,239
20:50:43.875340,-6912
20:50:43.875340,0
20:50:43.875340,224
20:50:43.875340,-8704
20:50:43.875340,0
20:50:43.875340,215
20:50:43.875340,-12288
20:50:43.875340,0
20:50:43.875340,198
20:50:43.875340,-17152
20:50:43.875340,0
20:50:43.875340,179
20:50:43.875340,-22016
20:50:43.875340,0
20:50:43.875340,161
20:50:43.875340,-26880
20:50:43.875340,0
20:50:43.875340,137
20:50:43.875340,32000
20:50:43.875340,0
20:50:43.875340,111
20:50:43.875340,25856
20:50:43.875340,0
20:50:43.875340,94
20:50:43.875340,22784
20:50:43.875340,0
20:50:43.875340,87
20:50:43.875340,24064
20:50:43.875340,0
20:50:43.875340,94
20:50:43.875340,22784
20:50:43.875340,0
20:50:43.875340,87
20:50:43.875340,22272
20:50:43.875340,0
20:50:43.875340,85
20:50:43.875340,20480
20:50:43.875340,0
20:50:43.875340,71
20:50:43.875340,16128
20:50:43.875340,0
20:50:43.875340,56
20:50:43.875340,12544
20:50:43.875340,0
20:50:43.875340,40
20:50:43.875340,8960
20:50:43.875340,0
20:50:43.875340,30
20:50:43.875340,7168
20:50:43.875340,0
20:50:43.875340,23
20:50:43.875340,4608
20:50:43.875340,0
20:50:43.875340,16
20:50:43.875340,4096
20:50:43.875340,0
20:50:43.875340,16
20:50:43.875340,4096
20:50:43.875340,0
20:50:43.875340,21
20:50:43.875340,5888
20:50:43.875340,0
20:50:43.875340,23
20:50:43.875340,6656
20:50:43.875340,0
20:50:43.875340,26
20:50:44.459708,28
20:50:44.459708,8448
20:50:44.459708,0
20:50:44.459708,33
20:50:44.459708,8448
20:50:44.459708,0
20:50:44.459708,33
20:50:44.459708,8960
20:50:44.459708,0
20:50:44.459708,37
20:50:44.459708,10240
20:50:44.459708,0
20:50:44.459708,47
20:50:44.459708,16128
20:50:44.459708,0
20:50:44.459708,80
20:50:44.459708,22784
20:50:44.459708,0
20:50:44.459708,89
20:50:44.459708,18176
20:50:44.459708,0
20:50:44.459708,56
20:50:44.459708,13824
20:50:44.459708,0
20:50:44.459708,56
20:50:44.459708,15104
20:50:44.459708,0
20:50:44.459708,66
20:50:44.459708,15616
20:50:44.459708,0
20:50:44.459708,52
20:50:44.459708,12032
20:50:44.459708,0
20:50:44.459708,49
20:50:44.459708,13312
20:50:44.459708,0
20:50:44.459708,52
20:50:44.459708,12032
20:50:44.459708,0
20:50:44.459708,61
20:50:44.459708,32000
20:50:44.459708,0
20:50:44.459708,68
20:50:44.459708,24576
20:50:44.459708,-2
20:50:44.459708,-1257
20:50:44.459708,31231
20:50:44.459708,-8
20:50:44.459708,-1868
20:50:44.459708,1791
20:50:44.459708,-4
20:50:44.459708,-108
20:50:44.459708,-12033
20:50:44.459708,0
20:50:44.459708,224
20:50:44.459708,16896
20:50:44.459708,1
20:50:44.459708,371
20:50:44.459708,20480
20:50:44.459708,1
20:50:44.459708,336
20:50:44.459708,23552
20:50:44.459708,1
20:50:44.459708,326
20:50:44.459708,13824
20:50:44.459708,1
20:50:44.459708,303
20:50:44.459708,8960
20:50:44.459708,1
20:50:44.459708,279
20:50:44.459708,5888
20:50:44.459708,1
20:50:44.459708,274
20:50:44.459708,1536
20:50:44.459708,1
20:50:44.459708,258
20:50:44.459708,512
20:50:44.459708,1
20:50:44.459708,258
20:50:44.459708,512
20:50:44.459708,1
20:50:44.459708,258
20:50:44.459708,-768
20:50:44.459708,0
20:50:44.459708,251
20:50:44.459708,-2560
20:50:44.459708,0
20:50:44.459708,239
20:50:44.459708,-6144
20:50:44.459708,0
20:50:44.459708,222
20:50:44.459708,-12288
20:50:44.459708,0
20:50:44.459708,189
20:50:44.459708,-23296
20:50:44.459708,0
20:50:44.459708,144
20:50:44.459708,31488
20:50:44.459708,0
20:50:44.459708,104
20:50:44.459708,22784
20:50:44.459708,0
20:50:44.459708,82
20:50:44.459708,20480
20:50:44.459708,0
20:50:44.459708,82
20:50:44.459708,20480
20:50:44.459708,0
20:50:44.459708,75
20:50:44.953007,71
20:50:44.953007,16896
20:50:44.953007,0
20:50:44.953007,59
20:50:44.953007,14336
20:50:44.953007,0
20:50:44.953007,54
20:50:44.953007,12544
20:50:44.953007,0
20:50:44.953007,42
20:50:44.953007,8960
20:50:44.953007,0
20:50:44.953007,35
20:50:44.953007,8960
20:50:44.953007,0
20:50:44.953007,35
20:50:44.953007,8448
20:50:44.953007,0
20:50:44.953007,28
20:50:44.953007,5888
20:50:44.953007,0
20:50:44.953007,26
20:50:44.953007,10752
20:50:44.953007,0
20:50:44.953007,54
20:50:44.953007,12544
20:50:44.953007,0
20:50:44.953007,44
20:50:44.953007,12544
20:50:44.953007,0
20:50:44.953007,49
20:50:44.953007,12032
20:50:44.953007,0
20:50:44.953007,49
20:50:44.953007,12544
20:50:44.953007,0
20:50:44.953007,44
20:50:44.953007,11264
20:50:44.953007,0
20:50:44.953007,47
20:50:44.953007,12032
20:50:44.953007,0
20:50:44.953007,47
20:50:44.953007,13312
20:50:44.953007,0
20:50:44.953007,66
20:50:44.953007,22272
20:50:44.953007,0
20:50:44.953007,97
20:50:44.953007,23552
20:50:44.953007,0
20:50:44.953007,73
20:50:44.953007,13312
20:50:44.953007,0
20:50:44.953007,44
20:50:44.953007,10752
20:50:44.953007,0
20:50:44.953007,40
20:50:44.953007,10752
20:50:44.953007,0
20:50:44.953007,47
20:50:44.953007,10240
20:50:44.953007,0
20:50:44.953007,28
20:50:44.953007,7680
20:50:44.953007,0
20:50:44.953007,35
20:50:44.953007,8960
20:50:44.953007,0
20:50:44.953007,33
20:50:44.953007,9472
20:50:44.953007,0
20:50:44.953007,66
20:50:44.953007,32512
20:50:44.953007,0
20:50:44.953007,23
20:50:44.953007,-6912
20:50:44.953007,-3
20:50:44.953007,-1409
20:50:44.953007,11775
20:50:44.953007,-8
20:50:44.953007,-1787
20:50:44.953007,-17665
20:50:44.953007,-4
20:50:44.953007,9
20:50:44.953007,-6144
20:50:44.953007,0
20:50:44.953007,243
20:50:44.953007,24576
20:50:44.953007,1
20:50:44.953007,383
20:50:44.953007,24064
20:50:44.953007,1
20:50:44.953007,355
20:50:44.953007,25856
20:50:44.953007,1
20:50:44.953007,336
20:50:44.953007,19200
20:50:44.953007,1
20:50:44.953007,322
20:50:44.953007,11264
20:50:44.953007,1
20:50:44.953007,293
20:50:44.953007,8192
20:50:44.953007,1
20:50:44.953007,281
20:50:44.953007,5376
20:50:44.953007,1
20:50:44.953007,272
20:50:45.540784,267
20:50:45.540784,2304
20:50:45.540784,1
20:50:45.540784,269
20:50:45.540784,2816
20:50:45.540784,1
20:50:45.540784,265
20:50:45.540784,1024
20:50:45.540784,1
20:50:45.540784,258
20:50:45.540784,1536
20:50:45.540784,1
20:50:45.540784,267
20:50:45.540784,512
20:50:45.540784,1
20:50:45.540784,243
20:50:45.540784,-8192
20:50:45.540784,0
20:50:45.540784,201
20:50:45.540784,-20224
20:50:45.540784,0
20:50:45.540784,158
20:50:45.540784,-28672
20:50:45.540784,0
20:50:45.540784,130
20:50:45.540784,30720
20:50:45.540784,0
20:50:45.540784,116
20:50:45.540784,28416
20:50:45.540784,0
20:50:45.540784,108
20:50:45.540784,26624
20:50:45.540784,0
20:50:45.540784,97
20:50:45.540784,24064
20:50:45.540784,0
20:50:45.540784,94
20:50:45.540784,21760
20:50:45.540784,0
20:50:45.540784,78
20:50:45.540784,19200
20:50:45.540784,0
20:50:45.540784,68
20:50:45.540784,16128
20:50:45.540784,0
20:50:45.540784,61
20:50:45.540784,14336
20:50:45.540784,0
20:50:45.540784,56
20:50:45.540784,13824
20:50:45.540784,0
20:50:45.540784,47
20:50:45.540784,10240
20:50:45.540784,0
20:50:45.540784,42
20:50:45.540784,11264
20:50:45.540784,0
20:50:45.540784,42
20:50:45.540784,9472
20:50:45.540784,0
20:50:45.540784,40
20:50:45.540784,10752
20:50:45.540784,0
20:50:45.540784,44
20:50:45.540784,12032
20:50:45.540784,0
20:50:45.540784,49
20:50:45.540784,12032
20:50:45.540784,0
20:50:45.540784,47
20:50:45.540784,13312
20:50:45.540784,0
20:50:45.540784,54
20:50:45.540784,12544
20:50:45.540784,0
20:50:45.540784,47
20:50:45.540784,13824
20:50:45.540784,0
20:50:45.540784,61
20:50:45.540784,16896
20:50:45.540784,0
20:50:45.540784,75
20:50:45.540784,21760
20:50:45.540784,0
20:50:45.540784,92
20:50:45.540784,24064
20:50:45.540784,0
20:50:45.540784,82
20:50:45.540784,16128
20:50:45.540784,0
20:50:45.540784,52
20:50:45.540784,12544
20:50:45.540784,0
20:50:45.540784,54
20:50:45.540784,13312
20:50:45.540784,0
20:50:45.540784,47
20:50:45.540784,10752
20:50:45.540784,0
20:50:45.540784,42
20:50:45.540784,11264
20:50:45.540784,0
20:50:45.540784,49
20:50:45.540784,12032
20:50:45.540784,0
20:50:45.540784,49
20:50:45.540784,13824
20:50:45.540784,0
20:50:45.540784,63
20:50:46.077940,120
20:50:46.077940,25856
20:50:46.077940,0
20:50:46.077940,-310
20:50:46.077940,-15105
20:50:46.077940,-5
20:50:46.077940,-1716
20:50:46.077940,24575
20:50:46.077940,-7
20:50:46.077940,-956
20:50:46.077940,-29953
20:50:46.077940,-1
20:50:46.077940,182
20:50:46.077940,-16640
20:50:46.077940,0
20:50:46.077940,312
20:50:46.077940,32512
20:50:46.077940,1
20:50:46.077940,341
20:50:46.077940,22272
20:50:46.077940,1
20:50:46.077940,359
20:50:46.077940,20992
20:50:46.077940,1
20:50:46.077940,326
20:50:46.077940,17920
20:50:46.077940,1
20:50:46.077940,310
20:50:46.077940,8960
20:50:46.077940,1
20:50:46.077940,286
20:50:46.077940,6400
20:50:46.077940,1
20:50:46.077940,272
20:50:46.077940,1024
20:50:46.077940,1
20:50:46.077940,253
20:50:46.077940,-2560
20:50:46.077940,0
20:50:46.077940,243
20:50:46.077940,-4352
20:50:46.077940,0
20:50:46.077940,232
20:50:46.077940,-8704
20:50:46.077940,0
20:50:46.077940,210
20:50:46.077940,-14080
20:50:46.077940,0
20:50:46.077940,191
20:50:46.077940,-18432
20:50:46.077940,0
20:50:46.077940,172
20:50:46.077940,-25600
20:50:46.077940,0
20:50:46.077940,137
20:50:46.077940,32000
20:50:46.077940,0
20:50:46.077940,118
20:50:46.077940,27648
20:50:46.077940,0
20:50:46.077940,101
20:50:46.077940,25856
20:50:46.077940,0
20:50:46.077940,101
20:50:46.077940,25856
20:50:46.077940,0
20:50:46.077940,108
20:50:46.077940,28416
20:50:46.077940,0
20:50:46.077940,108
20:50:46.077940,27136
20:50:46.077940,0
20:50:46.077940,106
20:50:46.077940,24064
20:50:46.077940,0
20:50:46.077940,82
20:50:46.077940,20992
20:50:46.077940,0
20:50:46.077940,78
20:50:46.077940,16128
20:50:46.077940,0
20:50:46.077940,56
20:50:46.077940,13312
20:50:46.077940,0
20:50:46.077940,47
20:50:46.077940,12032
20:50:46.077940,0
20:50:46.077940,42
20:50:46.077940,8960
20:50:46.077940,0
20:50:46.077940,40
20:50:46.077940,12032
20:50:46.077940,0
20:50:46.077940,44
20:50:46.077940,10752
20:50:46.077940,0
20:50:46.077940,49
20:50:46.077940,12544
20:50:46.077940,0
20:50:46.077940,44
20:50:46.077940,11264
20:50:46.077940,0
20:50:46.077940,47
20:50:46.077940,12544
20:50:46.077940,0
20:50:46.077940,52
20:50:46.077940,12032
20:50:46.077940,0
20:50:46.077940,44
20:50:46.663517,44
20:50:46.663517,11264
20:50:46.663517,0
20:50:46.663517,47
20:50:46.663517,12032
20:50:46.663517,0
20:50:46.663517,47
20:50:46.663517,14336
20:50:46.663517,0
20:50:46.663517,78
20:50:46.663517,25344
20:50:46.663517,0
20:50:46.663517,104
20:50:46.663517,21760
20:50:46.663517,0
20:50:46.663517,61
20:50:46.663517,13312
20:50:46.663517,0
20:50:46.663517,52
20:50:46.663517,13824
20:50:46.663517,0
20:50:46.663517,49
20:50:46.663517,11264
20:50:46.663517,0
20:50:46.663517,42
20:50:46.663517,8448
20:50:46.663517,0
20:50:46.663517,28
20:50:46.663517,7680
20:50:46.663517,0
20:50:46.663517,30
20:50:46.663517,7680
20:50:46.663517,0
20:50:46.663517,26
20:50:46.663517,10240
20:50:46.663517,0
20:50:46.663517,108
20:50:46.663517,25344
20:50:46.663517,0
20:50:46.663517,-296
20:50:46.663517,-12801
20:50:46.663517,-5
20:50:46.663517,-1759
20:50:46.663517,-4097
20:50:46.663517,-8
20:50:46.663517,-1094
20:50:46.663517,12543
20:50:46.663517,-1
20:50:46.663517,151
20:50:46.663517,-24320
20:50:46.663517,0
20:50:46.663517,265
20:50:46.663517,23552
20:50:46.663517,1
20:50:46.663517,312
20:50:46.663517,11264
20:50:46.663517,1
20:50:46.663517,319
20:50:46.663517,11264
20:50:46.663517,1
20:50:46.663517,284
20:50:46.663517,6400
20:50:46.663517,1
20:50:46.663517,269
20:50:46.663517,512
20:50:46.663517,1
20:50:46.663517,251
20:50:46.663517,-3840
20:50:46.663517,0
20:50:46.663517,236
20:50:46.663517,-5120
20:50:46.663517,0
20:50:46.663517,236
20:50:46.663517,-5632
20:50:46.663517,0
20:50:46.663517,234
20:50:46.663517,-4352
20:50:46.663517,0
20:50:46.663517,239
20:50:46.663517,-5120
20:50:46.663517,0
20:50:46.663517,236
20:50:46.663517,-6144
20:50:46.663517,0
20:50:46.663517,220
20:50:46.663517,-12288
20:50:46.663517,0
20:50:46.663517,198
20:50:46.663517,-18944
20:50:46.663517,0
20:50:46.663517,158
20:50:46.663517,-29952
20:50:46.663517,0
20:50:46.663517,123
20:50:46.663517,26624
20:50:46.663517,0
20:50:46.663517,89
20:50:46.663517,21760
20:50:46.663517,0
20:50:46.663517,87
20:50:46.663517,22272
20:50:46.663517,0
20:50:46.663517,87
20:50:46.663517,20480
20:50:46.663517,0
20:50:46.663517,75
20:50:46.663517,18688
20:50:46.663517,0
20:50:46.663517,71
20:50:47.205360,63
20:50:47.205360,13824
20:50:47.205360,0
20:50:47.205360,44
20:50:47.205360,10240
20:50:47.205360,0
20:50:47.205360,35
20:50:47.205360,7680
20:50:47.205360,0
20:50:47.205360,23
20:50:47.205360,4096
20:50:47.205360,0
20:50:47.205360,9
20:50:47.205360,3584
20:50:47.205360,0
20:50:47.205360,26
20:50:47.205360,9472
20:50:47.205360,0
20:50:47.205360,35
20:50:47.205360,8448
20:50:47.205360,0
20:50:47.205360,35
20:50:47.205360,8960
20:50:47.205360,0
20:50:47.205360,35
20:50:47.205360,9472
20:50:47.205360,0
20:50:47.205360,40
20:50:47.205360,10240
20:50:47.205360,0
20:50:47.205360,37
20:50:47.205360,9472
20:50:47.205360,0
20:50:47.205360,40
20:50:47.205360,10240
20:50:47.205360,0
20:50:47.205360,37
20:50:47.205360,10240
20:50:47.205360,0
20:50:47.205360,42
20:50:47.205360,10752
20:50:47.205360,0
20:50:47.205360,42
20:50:47.205360,10752
20:50:47.205360,0
20:50:47.205360,42
20:50:47.205360,10752
20:50:47.205360,0
20:50:47.205360,42
20:50:47.205360,10752
20:50:47.205360,0
20:50:47.205360,37
20:50:47.205360,9472
20:50:47.205360,0
20:50:47.205360,40
20:50:47.205360,10240
20:50:47.205360,0
20:50:47.205360,37
20:50:47.205360,8960
20:50:47.205360,0
20:50:47.205360,35
20:50:47.205360,8960
20:50:47.205360,0
20:50:47.205360,35
20:50:47.205360,10240
20:50:47.205360,0
20:50:47.205360,52
20:50:47.205360,16896
20:50:47.205360,0
20:50:47.205360,78
20:50:47.205360,19200
20:50:47.205360,0
20:50:47.205360,56
20:50:47.205360,10240
20:50:47.205360,0
20:50:47.205360,30
20:50:47.205360,7168
20:50:47.205360,0
20:50:47.205360,23
20:50:47.205360,4608
20:50:47.205360,0
20:50:47.205360,23
20:50:47.205360,5888
20:50:47.205360,0
20:50:47.205360,14
20:50:47.205360,3584
20:50:47.205360,0
20:50:47.205360,18
20:50:47.205360,4608
20:50:47.205360,0
20:50:47.205360,16
20:50:47.205360,4096
20:50:47.205360,0
20:50:47.205360,49
20:50:47.205360,28416
20:50:47.205360,0
20:50:47.205360,-37
20:50:47.205360,28415
20:50:47.205360,-3
20:50:47.205360,-1529
20:50:47.205360,-5121
20:50:47.205360,-9
20:50:47.205360,-1785
20:50:47.205360,-12801
20:50:47.205360,-4
20:50:47.205360,-2
20:50:47.205360,-12545
20:50:47.205360,0
20:50:47.205360,224
20:50:47.745249,324
20:50:47.745249,24576
20:50:47.745249,1
20:50:47.745249,324
20:50:47.745249,19712
20:50:47.745249,1
20:50:47.745249,333
20:50:47.745249,14848
20:50:47.745249,1
20:50:47.745249,310
20:50:47.745249,15616
20:50:47.745249,1
20:50:47.745249,317
20:50:47.745249,12544
20:50:47.745249,1
20:50:47.745249,298
20:50:47.745249,9472
20:50:47.745249,1
20:50:47.745249,288
20:50:47.745249,7680
20:50:47.745249,1
20:50:47.745249,284
20:50:47.745249,6400
20:50:47.745249,1
20:50:47.745249,281
20:50:47.745249,7168
20:50:47.745249,1
20:50:47.745249,281
20:50:47.745249,5376
20:50:47.745249,1
20:50:47.745249,269
20:50:47.745249,1024
20:50:47.745249,1
20:50:47.745249,255
20:50:47.745249,-2560
20:50:47.745249,0
20:50:47.745249,234
20:50:47.745249,-10496
20:50:47.745249,0
20:50:47.745249,191
20:50:47.745249,-23808
20:50:47.745249,0
20:50:47.745249,142
20:50:47.745249,32000
20:50:47.745249,0
20:50:47.745249,108
20:50:47.745249,23552
20:50:47.745249,0
20:50:47.745249,85
20:50:47.745249,20992
20:50:47.745249,0
20:50:47.745249,80
20:50:47.745249,18688
20:50:47.745249,0
20:50:47.745249,66
20:50:47.745249,16128
20:50:47.745249,0
20:50:47.745249,61
20:50:47.745249,16128
20:50:47.745249,0
20:50:47.745249,61
20:50:47.745249,14336
20:50:47.745249,0
20:50:47.745249,54
20:50:47.745249,12544
20:50:47.745249,0
20:50:47.745249,42
20:50:47.745249,10240
20:50:47.745249,0
20:50:47.745249,40
20:50:47.745249,8448
20:50:47.745249,0
20:50:47.745249,30
20:50:47.745249,8448
20:50:47.745249,0
20:50:47.745249,30
20:50:47.745249,6656
20:50:47.745249,0
20:50:47.745249,26
20:50:47.745249,6656
20:50:47.745249,0
20:50:47.745249,28
20:50:47.745249,7168
20:50:47.745249,0
20:50:47.745249,26
20:50:47.745249,5888
20:50:47.745249,0
20:50:47.745249,26
20:50:47.745249,7168
20:50:47.745249,0
20:50:47.745249,28
20:50:47.745249,6656
20:50:47.745249,0
20:50:47.745249,23
20:50:47.745249,5888
20:50:47.745249,0
20:50:47.745249,21
20:50:47.745249,6656
20:50:47.745249,0
20:50:47.745249,26
20:50:47.745249,5888
20:50:47.745249,0
20:50:47.745249,23
20:50:47.745249,5376
20:50:47.745249,0
20:50:47.745249,21
20:50:47.745249,5888
20:50:47.745249,0
20:50:47.745249,23
20:50:48.329335,23
20:50:48.329335,4608
20:50:48.329335,0
20:50:48.329335,18
20:50:48.329335,4608
20:50:48.329335,0
20:50:48.329335,28
20:50:48.329335,11264
20:50:48.329335,0
20:50:48.329335,47
20:50:48.329335,9472
20:50:48.329335,0
20:50:48.329335,40
20:50:48.329335,11264
20:50:48.329335,0
20:50:48.329335,44
20:50:48.329335,13312
20:50:48.329335,0
20:50:48.329335,63
20:50:48.329335,18176
20:50:48.329335,0
20:50:48.329335,63
20:50:48.329335,13312
20:50:48.329335,0
20:50:48.329335,35
20:50:48.329335,5888
20:50:48.329335,0
20:50:48.329335,23
20:50:48.329335,5376
20:50:48.329335,0
20:50:48.329335,21
20:50:48.329335,7168
20:50:48.329335,0
20:50:48.329335,33
20:50:48.329335,7680
20:50:48.329335,0
20:50:48.329335,23
20:50:48.329335,4608
20:50:48.329335,0
20:50:48.329335,18
20:50:48.329335,5888
20:50:48.329335,0
20:50:48.329335,30
20:50:48.329335,8448
20:50:48.329335,0
20:50:48.329335,63
20:50:48.329335,31488
20:50:48.329335,0
20:50:48.329335,-44
20:50:48.329335,22271
20:50:48.329335,-3
20:50:48.329335,-1548
20:50:48.329335,255
20:50:48.329335,-8
20:50:48.329335,-1705
20:50:48.329335,13823
20:50:48.329335,-3
20:50:48.329335,56
20:50:48.329335,-8192
20:50:48.329335,0
20:50:48.329335,251
20:50:48.329335,24576
20:50:48.329335,1
20:50:48.329335,364
20:50:48.329335,19200
20:50:48.329335,1
20:50:48.329335,341
20:50:48.329335,20992
20:50:48.329335,1
20:50:48.329335,314
20:50:48.329335,12032
20:50:48.329335,1
20:50:48.329335,296
20:50:48.329335,7168
20:50:48.329335,1
20:50:48.329335,277
20:50:48.329335,4096
20:50:48.329335,1
20:50:48.329335,265
20:50:48.329335,1024
20:50:48.329335,1
20:50:48.329335,253
20:50:48.329335,-1280
20:50:48.329335,0
20:50:48.329335,248
20:50:48.329335,-1280
20:50:48.329335,0
20:50:48.329335,251
20:50:48.329335,-2048
20:50:48.329335,0
20:50:48.329335,243
20:50:48.329335,-4352
20:50:48.329335,0
20:50:48.329335,232
20:50:48.329335,-8192
20:50:48.329335,0
20:50:48.329335,220
20:50:48.329335,-11776
20:50:48.329335,0
20:50:48.329335,191
20:50:48.329335,-22016
20:50:48.329335,0
20:50:48.329335,149
20:50:48.329335,-32256
20:50:48.329335,0
20:50:48.329335,113
20:50:48.329335,25344
20:50:48.329335,0
20:50:48.329335,92
20:50:48.915292,89
20:50:48.915292,21760
20:50:48.915292,0
20:50:48.915292,82
20:50:48.915292,20480
20:50:48.915292,0
20:50:48.915292,73
20:50:48.915292,17408
20:50:48.915292,0
20:50:48.915292,63
20:50:48.915292,16896
20:50:48.915292,0
20:50:48.915292,75
20:50:48.915292,19968
20:50:48.915292,0
20:50:48.915292,63
20:50:48.915292,14336
20:50:48.915292,0
20:50:48.915292,56
20:50:48.915292,13824
20:50:48.915292,0
20:50:48.915292,49
20:50:48.915292,11264
20:50:48.915292,0
20:50:48.915292,42
20:50:48.915292,10240
20:50:48.915292,0
20:50:48.915292,35
20:50:48.915292,8960
20:50:48.915292,0
20:50:48.915292,40
20:50:48.915292,10240
20:50:48.915292,0
20:50:48.915292,35
20:50:48.915292,9472
20:50:48.915292,0
20:50:48.915292,47
20:50:48.915292,12032
20:50:48.915292,0
20:50:48.915292,44
20:50:48.915292,12032
20:50:48.915292,0
20:50:48.915292,52
20:50:48.915292,11264
20:50:48.915292,0
20:50:48.915292,42
20:50:48.915292,13312
20:50:48.915292,0
20:50:48.915292,56
20:50:48.915292,12544
20:50:48.915292,0
20:50:48.915292,47
20:50:48.915292,12544
20:50:48.915292,0
20:50:48.915292,52
20:50:48.915292,13824
20:50:48.915292,0
20:50:48.915292,52
20:50:48.915292,13824
20:50:48.915292,0
20:50:48.915292,54
20:50:48.915292,13312
20:50:48.915292,0
20:50:48.915292,52
20:50:48.915292,13824
20:50:48.915292,0
20:50:48.915292,52
20:50:48.915292,13312
20:50:48.915292,0
20:50:48.915292,54
20:50:48.915292,13312
20:50:48.915292,0
20:50:48.915292,56
20:50:48.915292,15104
20:50:48.915292,0
20:50:48.915292,63
20:50:48.915292,19200
20:50:48.915292,0
20:50:48.915292,87
20:50:48.915292,22784
20:50:48.915292,0
20:50:48.915292,78
20:50:48.915292,15616
20:50:48.915292,0
20:50:48.915292,47
20:50:48.915292,12032
20:50:48.915292,0
20:50:48.915292,49
20:50:48.915292,12032
20:50:48.915292,0
20:50:48.915292,52
20:50:48.915292,14336
20:50:48.915292,0
20:50:48.915292,59
20:50:48.915292,15616
20:50:48.915292,0
20:50:48.915292,56
20:50:48.915292,13312
20:50:48.915292,0
20:50:48.915292,52
20:50:48.915292,14336
20:50:48.915292,0
20:50:48.915292,56
20:50:48.915292,18688
20:50:48.915292,0
20:50:48.915292,142
20:50:48.915292,23552
20:50:48.915292,0
20:50:48.915292,-378
20:50:49.502354,-1174
20:50:49.502354,4351
20:50:49.502354,-7
20:50:49.502354,-1686
20:50:49.502354,-30977
20:50:49.502354,-4
20:50:49.502354,-68
20:50:49.502354,-18177
20:50:49.502354,0
20:50:49.502354,182
20:50:49.502354,10752
20:50:49.502354,1
20:50:49.502354,357
20:50:49.502354,14336
20:50:49.502354,1
20:50:49.502354,317
20:50:49.502354,24576
20:50:49.502354,1
20:50:49.502354,338
20:50:49.502354,14336
20:50:49.502354,1
20:50:49.502354,305
20:50:49.502354,11264
20:50:49.502354,1
20:50:49.502354,288
20:50:49.502354,7168
20:50:49.502354,1
20:50:49.502354,277
20:50:49.502354,2304
20:50:49.502354,1
20:50:49.502354,258
20:50:49.502354,512
20:50:49.502354,1
20:50:49.502354,255
20:50:49.502354,-2048
20:50:49.502354,0
20:50:49.502354,236
20:50:49.502354,-6144
20:50:49.502354,0
20:50:49.502354,224
20:50:49.502354,-11776
20:50:49.502354,0
20:50:49.502354,196
20:50:49.502354,-15872
20:50:49.502354,0
20:50:49.502354,187
20:50:49.502354,-21504
20:50:49.502354,0
20:50:49.502354,161
20:50:49.502354,-27392
20:50:49.502354,0
20:50:49.502354,134
20:50:49.502354,30720
20:50:49.502354,0
20:50:49.502354,108
20:50:49.502354,26624
20:50:49.502354,0
20:50:49.502354,101
20:50:49.502354,25856
20:50:49.502354,0
20:50:49.502354,101
20:50:49.502354,25344
20:50:49.502354,0
20:50:49.502354,97
20:50:49.502354,24832
20:50:49.502354,0
20:50:49.502354,97
20:50:49.502354,23552
20:50:49.502354,0
20:50:49.502354,85
20:50:49.502354,19968
20:50:49.502354,0
20:50:49.502354,71
20:50:49.502354,16128
20:50:49.502354,0
20:50:49.502354,56
20:50:49.502354,12544
20:50:49.502354,0
20:50:49.502354,44
20:50:49.502354,10240
20:50:49.502354,0
20:50:49.502354,35
20:50:49.502354,8960
20:50:49.502354,0
20:50:49.502354,33
20:50:49.502354,7680
20:50:49.502354,0
20:50:49.502354,33
20:50:49.502354,8448
20:50:49.502354,0
20:50:49.502354,33
20:50:49.502354,8448
20:50:49.502354,0
20:50:49.502354,33
20:50:49.502354,10240
20:50:49.502354,0
20:50:49.502354,44
20:50:49.502354,10240
20:50:49.502354,0
20:50:49.502354,35
20:50:49.502354,9472
20:50:49.502354,0
20:50:49.502354,40
20:50:49.502354,10240
20:50:49.502354,0
20:50:49.502354,37
20:50:49.502354,9472
20:50:49.502354,0
20:50:49.502354,37
20:50:50.040277,35
20:50:50.040277,9472
20:50:50.040277,0
20:50:50.040277,44
20:50:50.040277,12032
20:50:50.040277,0
20:50:50.040277,47
20:50:50.040277,13824
20:50:50.040277,0
20:50:50.040277,68
20:50:50.040277,19968
20:50:50.040277,0
20:50:50.040277,80
20:50:50.040277,18688
20:50:50.040277,0
20:50:50.040277,52
20:50:50.040277,8960
20:50:50.040277,0
20:50:50.040277,37
20:50:50.040277,11264
20:50:50.040277,0
20:50:50.040277,52
20:50:50.040277,15616
20:50:50.040277,0
20:50:50.040277,59
20:50:50.040277,10752
20:50:50.040277,0
20:50:50.040277,40
20:50:50.040277,10752
20:50:50.040277,0
20:50:50.040277,37
20:50:50.040277,9472
20:50:50.040277,0
20:50:50.040277,37
20:50:50.040277,10240
20:50:50.040277,0
20:50:50.040277,92
20:50:50.040277,32000
20:50:50.040277,0
20:50:50.040277,-179
20:50:50.040277,27903
20:50:50.040277,-4
20:50:50.040277,-1664
20:50:50.040277,-16897
20:50:50.040277,-8
20:50:50.040277,-1259
20:50:50.040277,-22017
20:50:50.040277,-2
20:50:50.040277,123
20:50:50.040277,-25088
20:50:50.040277,0
20:50:50.040277,234
20:50:50.040277,19712
20:50:50.040277,1
20:50:50.040277,312
20:50:50.040277,8960
20:50:50.040277,1
20:50:50.040277,307
20:50:50.040277,9472
20:50:50.040277,1
20:50:50.040277,269
20:50:50.040277,1536
20:50:50.040277,1
20:50:50.040277,255
20:50:50.040277,-2560
20:50:50.040277,0
20:50:50.040277,239
20:50:50.040277,-6144
20:50:50.040277,0
20:50:50.040277,224
20:50:50.040277,-9984
20:50:50.040277,0
20:50:50.040277,215
20:50:50.040277,-9984
20:50:50.040277,0
20:50:50.040277,213
20:50:50.040277,-11008
20:50:50.040277,0
20:50:50.040277,213
20:50:50.040277,-12800
20:50:50.040277,0
20:50:50.040277,198
20:50:50.040277,-15872
20:50:50.040277,0
20:50:50.040277,184
20:50:50.040277,-20736
20:50:50.040277,0
20:50:50.040277,161
20:50:50.040277,-28672
20:50:50.040277,0
20:50:50.040277,125
20:50:50.040277,28416
20:50:50.040277,0
20:50:50.040277,94
20:50:50.040277,19968
20:50:50.040277,0
20:50:50.040277,66
20:50:50.040277,15104
20:50:50.040277,0
20:50:50.040277,54
20:50:50.040277,14336
20:50:50.040277,0
20:50:50.040277,56
20:50:50.040277,13824
20:50:50.040277,0
20:50:50.040277,52
20:50:50.040277,13312
20:50:50.040277,0
20:50:50.040277,52
20:50:50.581957,47
20:50:50.581957,10752
20:50:50.581957,0
20:50:50.581957,42
20:50:50.581957,9472
20:50:50.581957,0
20:50:50.581957,30
20:50:50.581957,7168
20:50:50.581957,0
20:50:50.581957,26
20:50:50.581957,4096
20:50:50.581957,0
20:50:50.581957,11
20:50:50.581957,2816
20:50:50.581957,0
20:50:50.581957,11
20:50:50.581957,4608
20:50:50.581957,0
20:50:50.581957,35
20:50:50.581957,10240
20:50:50.581957,0
20:50:50.581957,35
20:50:50.581957,8448
20:50:50.581957,0
20:50:50.581957,33
20:50:50.581957,9472
20:50:50.581957,0
20:50:50.581957,42
20:50:50.581957,10240
20:50:50.581957,0
20:50:50.581957,35
20:50:50.581957,9472
20:50:50.581957,0
20:50:50.581957,40
20:50:50.581957,9472
20:50:50.581957,0
20:50:50.581957,37
20:50:50.581957,10240
20:50:50.581957,0
20:50:50.581957,42
20:50:50.581957,10240
20:50:50.581957,0
20:50:50.581957,44
20:50:50.581957,11264
20:50:50.581957,0
20:50:50.581957,40
20:50:50.581957,10240
20:50:50.581957,0
20:50:50.581957,44
20:50:50.581957,10752
20:50:50.581957,0
20:50:50.581957,40
20:50:50.581957,10752
20:50:50.581957,0
20:50:50.581957,47
20:50:50.581957,11264
20:50:50.581957,0
20:50:50.581957,44
20:50:50.581957,11264
20:50:50.581957,0
20:50:50.581957,42
20:50:50.581957,12032
20:50:50.581957,0
20:50:50.581957,63
20:50:50.581957,19968
20:50:50.581957,0
20:50:50.581957,80
20:50:50.581957,18688
20:50:50.581957,0
20:50:50.581957,59
20:50:50.581957,10752
20:50:50.581957,0
20:50:50.581957,33
20:50:50.581957,7680
20:50:50.581957,0
20:50:50.581957,26
20:50:50.581957,5888
20:50:50.581957,0
20:50:50.581957,30
20:50:50.581957,7168
20:50:50.581957,0
20:50:50.581957,18
20:50:50.581957,4608
20:50:50.581957,0
20:50:50.581957,21
20:50:50.581957,5376
20:50:50.581957,0
20:50:50.581957,23
20:50:50.581957,6656
20:50:50.581957,0
20:50:50.581957,61
20:50:50.581957,28416
20:50:50.581957,0
20:50:50.581957,-97
20:50:50.581957,-769
20:50:50.581957,-4
20:50:50.581957,-1631
20:50:50.581957,-6401
20:50:50.581957,-9
20:50:50.581957,-1667
20:50:50.581957,27903
20:50:50.581957,-3
20:50:50.581957,82
20:50:50.581957,-6144
20:50:50.581957,0
20:50:50.581957,260
20:50:50.581957,26368
20:50:50.581957,1
20:50:50.581957,364
20:50:51.120432,333
20:50:51.120432,22272
20:50:51.120432,1
20:50:51.120432,336
20:50:51.120432,14848
20:50:51.120432,1
20:50:51.120432,305
20:50:51.120432,10752
20:50:51.120432,1
20:50:51.120432,286
20:50:51.120432,5888
20:50:51.120432,1
20:50:51.120432,281
20:50:51.120432,8960
20:50:51.120432,1
20:50:51.120432,286
20:50:51.120432,5376
20:50:51.120432,1
20:50:51.120432,279
20:50:51.120432,5888
20:50:51.120432,1
20:50:51.120432,277
20:50:51.120432,4608
20:50:51.120432,1
20:50:51.120432,269
20:50:51.120432,1536
20:50:51.120432,1
20:50:51.120432,255
20:50:51.120432,-1280
20:50:51.120432,0
20:50:51.120432,243
20:50:51.120432,-5632
20:50:51.120432,0
20:50:51.120432,217
20:50:51.120432,-14848
20:50:51.120432,0
20:50:51.120432,175
20:50:51.120432,-27392
20:50:51.120432,0
20:50:51.120432,127
20:50:51.120432,27648
20:50:51.120432,0
20:50:51.120432,97
20:50:51.120432,22784
20:50:51.120432,0
20:50:51.120432,82
20:50:51.120432,19200
20:50:51.120432,0
20:50:51.120432,73
20:50:51.120432,18176
20:50:51.120432,0
20:50:51.120432,68
20:50:51.120432,16128
20:50:51.120432,0
20:50:51.120432,56
20:50:51.120432,13312
20:50:51.120432,0
20:50:51.120432,47
20:50:51.120432,11264
20:50:51.120432,0
20:50:51.120432,40
20:50:51.120432,9472
20:50:51.120432,0
20:50:51.120432,35
20:50:51.120432,8448
20:50:51.120432,0
20:50:51.120432,30
20:50:51.120432,7168
20:50:51.120432,0
20:50:51.120432,23
20:50:51.120432,6656
20:50:51.120432,0
20:50:51.120432,26
20:50:51.120432,5888
20:50:51.120432,0
20:50:51.120432,23
20:50:51.120432,5888
20:50:51.120432,0
20:50:51.120432,26
20:50:51.120432,7168
20:50:51.120432,0
20:50:51.120432,30
20:50:51.120432,7680
20:50:51.120432,0
20:50:51.120432,33
20:50:51.120432,8448
20:50:51.120432,0
20:50:51.120432,35
20:50:51.120432,9472
20:50:51.120432,0
20:50:51.120432,42
20:50:51.120432,10752
20:50:51.120432,0
20:50:51.120432,42
20:50:51.120432,11264
20:50:51.120432,0
20:50:51.120432,44
20:50:51.120432,11264
20:50:51.120432,0
20:50:51.120432,47
20:50:51.120432,13312
20:50:51.120432,0
20:50:51.120432,56
20:50:51.120432,14336
20:50:51.120432,0
20:50:51.120432,56
20:50:51.120432,15104
20:50:51.120432,0
20:50:51.120432,56
20:50:51.660394,54
20:50:51.660394,14336
20:50:51.660394,0
20:50:51.660394,54
20:50:51.660394,13824
20:50:51.660394,0
20:50:51.660394,54
20:50:51.660394,15104
20:50:51.660394,0
20:50:51.660394,78
20:50:51.660394,24832
20:50:51.660394,0
20:50:51.660394,101
20:50:51.660394,25344
20:50:51.660394,0
20:50:51.660394,89
20:50:51.660394,18176
20:50:51.660394,0
20:50:51.660394,54
20:50:51.660394,13312
20:50:51.660394,0
20:50:51.660394,54
20:50:51.660394,14336
20:50:51.660394,0
20:50:51.660394,56
20:50:51.660394,13312
20:50:51.660394,0
20:50:51.660394,47
20:50:51.660394,12544
20:50:51.660394,0
20:50:51.660394,52
20:50:51.660394,12544
20:50:51.660394,0
20:50:51.660394,47
20:50:51.660394,12544
20:50:51.660394,0
20:50:51.660394,94
20:50:51.660394,-30464
20:50:51.660394,0
20:50:51.660394,-113
20:50:51.660394,-14081
20:50:51.660394,-4
20:50:51.660394,-1655
20:50:51.660394,11775
20:50:51.660394,-8
20:50:51.660394,-1489
20:50:51.660394,7167
20:50:51.660394,-2
20:50:51.660394,137
20:50:51.660394,-9984
20:50:51.660394,0
20:50:51.660394,262
20:50:51.660394,26368
20:50:51.660394,1
20:50:51.660394,355
20:50:51.660394,19712
20:50:51.660394,1
20:50:51.660394,345
20:50:51.660394,19712
20:50:51.660394,1
20:50:51.660394,312
20:50:51.660394,12544
20:50:51.660394,1
20:50:51.660394,298
20:50:51.660394,6400
20:50:51.660394,1
20:50:51.660394,274
20:50:51.660394,3328
20:50:51.660394,1
20:50:51.660394,265
20:50:51.660394,-256
20:50:51.660394,0
20:50:51.660394,251
20:50:51.660394,-1280
20:50:51.660394,0
20:50:51.660394,253
20:50:51.660394,-256
20:50:51.660394,0
20:50:51.660394,253
20:50:51.660394,-768
20:50:51.660394,0
20:50:51.660394,251
20:50:51.660394,-2560
20:50:51.660394,0
20:50:51.660394,239
20:50:51.660394,-6144
20:50:51.660394,0
20:50:51.660394,224
20:50:51.660394,-10496
20:50:51.660394,0
20:50:51.660394,194
20:50:51.660394,-22016
20:50:51.660394,0
20:50:51.660394,153
20:50:51.660394,-30464
20:50:51.660394,0
20:50:51.660394,118
20:50:51.660394,27136
20:50:51.660394,0
20:50:51.660394,99
20:50:51.660394,24064
20:50:51.660394,0
20:50:51.660394,92
20:50:51.660394,22272
20:50:51.660394,0
20:50:51.660394,85
20:50:51.660394,20992
20:50:51.660394,0
20:50:51.660394,80
20:50:52.289190,73
20:50:52.289190,16896
20:50:52.289190,0
20:50:52.289190,66
20:50:52.289190,18688
20:50:52.289190,0
20:50:52.289190,80
20:50:52.289190,19968
20:50:52.289190,0
20:50:52.289190,68
20:50:52.289190,15104
20:50:52.289190,0
20:50:52.289190,59
20:50:52.289190,14336
20:50:52.289190,0
20:50:52.289190,54
20:50:52.289190,13824
20:50:52.289190,0
20:50:52.289190,54
20:50:52.289190,12544
20:50:52.289190,0
20:50:52.289190,47
20:50:52.289190,12544
20:50:52.289190,0
20:50:52.289190,52
20:50:52.289190,13824
20:50:52.289190,0
20:50:52.289190,54
20:50:52.289190,13312
20:50:52.289190,0
20:50:52.289190,59
20:50:52.289190,16128
20:50:52.289190,0
20:50:52.289190,59
20:50:52.289190,15104
20:50:52.289190,0
20:50:52.289190,63
20:50:52.289190,15616
20:50:52.289190,0
20:50:52.289190,54
20:50:52.289190,13824
20:50:52.289190,0
20:50:52.289190,59
20:50:52.289190,15616
20:50:52.289190,0
20:50:52.289190,61
20:50:52.289190,16128
20:50:52.289190,0
20:50:52.289190,68
20:50:52.289190,17408
20:50:52.289190,0
20:50:52.289190,66
20:50:52.289190,16896
20:50:52.289190,0
20:50:52.289190,61
20:50:52.289190,15616
20:50:52.289190,0
20:50:52.289190,68
20:50:52.289190,16896
20:50:52.289190,0
20:50:52.289190,61
20:50:52.289190,17408
20:50:52.289190,0
20:50:52.289190,71
20:50:52.289190,18176
20:50:52.289190,0
20:50:52.289190,78
20:50:52.289190,22784
20:50:52.289190,0
20:50:52.289190,97
20:50:52.289190,24832
20:50:52.289190,0
20:50:52.289190,87
20:50:52.289190,19200
20:50:52.289190,0
20:50:52.289190,63
20:50:52.289190,15104
20:50:52.289190,0
20:50:52.289190,63
20:50:52.289190,17408
20:50:52.289190,0
20:50:52.289190,66
20:50:52.289190,15616
20:50:52.289190,0
20:50:52.289190,59
20:50:52.289190,14336
20:50:52.289190,0
20:50:52.289190,56
20:50:52.289190,15104
20:50:52.289190,0
20:50:52.289190,59
20:50:52.289190,16896
20:50:52.289190,0
20:50:52.289190,127
20:50:52.289190,-30464
20:50:52.289190,0
20:50:52.289190,-208
20:50:52.289190,19455
20:50:52.289190,-4
20:50:52.289190,-1648
20:50:52.289190,6911
20:50:52.289190,-7
20:50:52.289190,-1122
20:50:52.289190,6399
20:50:52.289190,-1
20:50:52.289190,168
20:50:52.289190,-21504
20:50:52.289190,0
20:50:52.289190,258
20:50:52.830337,355
20:50:52.830337,17920
20:50:52.830337,1
20:50:52.830337,310
20:50:52.830337,17408
20:50:52.830337,1
20:50:52.830337,310
20:50:52.830337,10240
20:50:52.830337,1
20:50:52.830337,293
20:50:52.830337,6400
20:50:52.830337,1
20:50:52.830337,269
20:50:52.830337,512
20:50:52.830337,1
20:50:52.830337,246
20:50:52.830337,-2560
20:50:52.830337,0
20:50:52.830337,255
20:50:52.830337,1536
20:50:52.830337,1
20:50:52.830337,255
20:50:52.830337,-2560
20:50:52.830337,0
20:50:52.830337,239
20:50:52.830337,-5632
20:50:52.830337,0
20:50:52.830337,224
20:50:52.830337,-10496
20:50:52.830337,0
20:50:52.830337,203
20:50:52.830337,-15360
20:50:52.830337,0
20:50:52.830337,187
20:50:52.830337,-20224
20:50:52.830337,0
20:50:52.830337,168
20:50:52.830337,-26880
20:50:52.830337,0
20:50:52.830337,130
20:50:52.830337,30208
20:50:52.830337,0
20:50:52.830337,106
20:50:52.830337,24064
20:50:52.830337,0
20:50:52.830337,92
20:50:52.830337,24064
20:50:52.830337,0
20:50:52.830337,92
20:50:52.830337,24064
20:50:52.830337,0
20:50:52.830337,97
20:50:52.830337,24832
20:50:52.830337,0
20:50:52.830337,92
20:50:52.830337,22272
20:50:52.830337,0
20:50:52.830337,89
20:50:52.830337,22784
20:50:52.830337,0
20:50:52.830337,75
20:50:52.830337,16128
20:50:52.830337,0
20:50:52.830337,63
20:50:52.830337,14336
20:50:52.830337,0
20:50:52.830337,47
20:50:52.830337,10752
20:50:52.830337,0
20:50:52.830337,35
20:50:52.830337,8448
20:50:52.830337,0
20:50:52.830337,35
20:50:52.830337,8960
20:50:52.830337,0
20:50:52.830337,33
20:50:52.830337,8960
20:50:52.830337,0
20:50:52.830337,35
20:50:52.830337,9472
20:50:52.830337,0
20:50:52.830337,40
20:50:52.830337,10240
20:50:52.830337,0
20:50:52.830337,44
20:50:52.830337,11264
20:50:52.830337,0
20:50:52.830337,40
20:50:52.830337,12032
20:50:52.830337,0
20:50:52.830337,49
20:50:52.830337,11264
20:50:52.830337,0
20:50:52.830337,40
20:50:52.830337,11264
20:50:52.830337,0
20:50:52.830337,47
20:50:52.830337,11264
20:50:52.830337,0
20:50:52.830337,44
20:50:52.830337,10752
20:50:52.830337,0
20:50:52.830337,42
20:50:52.830337,11264
20:50:52.830337,0
20:50:52.830337,44
20:50:52.830337,10752
20:50:52.830337,0
20:50:52.830337,40
20:50:53.370426,42
20:50:53.370426,12032
20:50:53.370426,0
20:50:53.370426,54
20:50:53.370426,16128
20:50:53.370426,0
20:50:53.370426,68
20:50:53.370426,18176
20:50:53.370426,0
20:50:53.370426,63
20:50:53.370426,12032
20:50:53.370426,0
20:50:53.370426,35
20:50:53.370426,10240
20:50:53.370426,0
20:50:53.370426,56
20:50:53.370426,16128
20:50:53.370426,0
20:50:53.370426,56
20:50:53.370426,13312
20:50:53.370426,0
20:50:53.370426,52
20:50:53.370426,12032
20:50:53.370426,0
20:50:53.370426,44
20:50:53.370426,12032
20:50:53.370426,0
20:50:53.370426,44
20:50:53.370426,11264
20:50:53.370426,0
20:50:53.370426,82
20:50:53.370426,-28672
20:50:53.370426,0
20:50:53.370426,-37
20:50:53.370426,20479
20:50:53.370426,-3
20:50:53.370426,-1513
20:50:53.370426,-31233
20:50:53.370426,-8
20:50:53.370426,-1515
20:50:53.370426,-19457
20:50:53.370426,-3
20:50:53.370426,68
20:50:53.370426,-18944
20:50:53.370426,0
20:50:53.370426,222
20:50:53.370426,22784
20:50:53.370426,1
20:50:53.370426,352
20:50:53.370426,15616
20:50:53.370426,1
20:50:53.370426,331
20:50:53.370426,17920
20:50:53.370426,1
20:50:53.370426,300
20:50:53.370426,9472
20:50:53.370426,1
20:50:53.370426,288
20:50:53.370426,4608
20:50:53.370426,1
20:50:53.370426,262
20:50:53.370426,-768
20:50:53.370426,0
20:50:53.370426,246
20:50:53.370426,-3328
20:50:53.370426,0
20:50:53.370426,241
20:50:53.370426,-4352
20:50:53.370426,0
20:50:53.370426,236
20:50:53.370426,-5632
20:50:53.370426,0
20:50:53.370426,234
20:50:53.370426,-5632
20:50:53.370426,0
20:50:53.370426,229
20:50:53.370426,-8704
20:50:53.370426,0
20:50:53.370426,215
20:50:53.370426,-12800
20:50:53.370426,0
20:50:53.370426,196
20:50:53.370426,-18432
20:50:53.370426,0
20:50:53.370426,170
20:50:53.370426,-27392
20:50:53.370426,0
20:50:53.370426,123
20:50:53.370426,25856
20:50:53.370426,0
20:50:53.370426,87
20:50:53.370426,19968
20:50:53.370426,0
20:50:53.370426,68
20:50:53.370426,16896
20:50:53.370426,0
20:50:53.370426,63
20:50:53.370426,15104
20:50:53.370426,0
20:50:53.370426,59
20:50:53.370426,15104
20:50:53.370426,0
20:50:53.370426,56
20:50:53.370426,13312
20:50:53.370426,0
20:50:53.370426,47
20:50:53.370426,10240
20:50:53.370426,0
20:50:53.370426,35
20:50:53.953345,30
20:50:53.953345,7168
20:50:53.953345,0
20:50:53.953345,26
20:50:53.953345,4608
20:50:53.953345,0
20:50:53.953345,14
20:50:53.953345,3584
20:50:53.953345,0
20:50:53.953345,16
20:50:53.953345,7168
20:50:53.953345,0
20:50:53.953345,37
20:50:53.953345,7680
20:50:53.953345,0
20:50:53.953345,26
20:50:53.953345,7168
20:50:53.953345,0
20:50:53.953345,30
20:50:53.953345,8448
20:50:53.953345,0
20:50:53.953345,37
20:50:53.953345,10240
20:50:53.953345,0
20:50:53.953345,37
20:50:53.953345,9472
20:50:53.953345,0
20:50:53.953345,37
20:50:53.953345,9472
20:50:53.953345,0
20:50:53.953345,35
20:50:53.953345,9472
20:50:53.953345,0
20:50:53.953345,40
20:50:53.953345,10752
20:50:53.953345,0
20:50:53.953345,47
20:50:53.953345,12032
20:50:53.953345,0
20:50:53.953345,44
20:50:53.953345,11264
20:50:53.953345,0
20:50:53.953345,47
20:50:53.953345,12544
20:50:53.953345,0
20:50:53.953345,52
20:50:53.953345,13312
20:50:53.953345,0
20:50:53.953345,49
20:50:53.953345,12544
20:50:53.953345,0
20:50:53.953345,49
20:50:53.953345,12032
20:50:53.953345,0
20:50:53.953345,47
20:50:53.953345,12032
20:50:53.953345,0
20:50:53.953345,44
20:50:53.953345,12544
20:50:53.953345,0
20:50:53.953345,63
20:50:53.953345,19200
20:50:53.953345,0
20:50:53.953345,75
20:50:53.953345,16128
20:50:53.953345,0
20:50:53.953345,42
20:50:53.953345,6656
20:50:53.953345,0
20:50:53.953345,26
20:50:53.953345,8448
20:50:53.953345,0
20:50:53.953345,37
20:50:53.953345,9472
20:50:53.953345,0
20:50:53.953345,35
20:50:53.953345,7168
20:50:53.953345,0
20:50:53.953345,23
20:50:53.953345,7168
20:50:53.953345,0
20:50:53.953345,33
20:50:53.953345,7680
20:50:53.953345,0
20:50:53.953345,30
20:50:53.953345,18176
20:50:53.953345,0
20:50:53.953345,118
20:50:53.953345,-22784
20:50:53.953345,-1
20:50:53.953345,-762
20:50:53.953345,-22273
20:50:53.953345,-7
20:50:53.953345,-2074
20:50:53.953345,-31489
20:50:53.953345,-7
20:50:53.953345,-644
20:50:53.953345,22015
20:50:53.953345,0
20:50:53.953345,220
20:50:53.953345,-2048
20:50:53.953345,0
20:50:53.953345,350
20:50:53.953345,25344
20:50:53.953345,1
20:50:53.953345,324
20:50:53.953345,20992
20:50:53.953345,1
20:50:53.953345,333
20:50:54.540319,307
20:50:54.540319,10240
20:50:54.540319,1
20:50:54.540319,291
20:50:54.540319,5888
20:50:54.540319,1
20:50:54.540319,272
20:50:54.540319,3328
20:50:54.540319,1
20:50:54.540319,262
20:50:54.540319,512
20:50:54.540319,1
20:50:54.540319,253
20:50:54.540319,512
20:50:54.540319,1
20:50:54.540319,272
20:50:54.540319,5888
20:50:54.540319,1
20:50:54.540319,269
20:50:54.540319,1536
20:50:54.540319,1
20:50:54.540319,262
20:50:54.540319,512
20:50:54.540319,1
20:50:54.540319,253
20:50:54.540319,-1280
20:50:54.540319,0
20:50:54.540319,239
20:50:54.540319,-8704
20:50:54.540319,0
20:50:54.540319,206
20:50:54.540319,-18944
20:50:54.540319,0
20:50:54.540319,158
20:50:54.540319,-31232
20:50:54.540319,0
20:50:54.540319,113
20:50:54.540319,24832
20:50:54.540319,0
20:50:54.540319,89
20:50:54.540319,21760
20:50:54.540319,0
20:50:54.540319,78
20:50:54.540319,18688
20:50:54.540319,0
20:50:54.540319,73
20:50:54.540319,17408
20:50:54.540319,0
20:50:54.540319,63
20:50:54.540319,15616
20:50:54.540319,0
20:50:54.540319,59
20:50:54.540319,13824
20:50:54.540319,0
20:50:54.540319,47
20:50:54.540319,11264
20:50:54.540319,0
20:50:54.540319,44
20:50:54.540319,11264
20:50:54.540319,0
20:50:54.540319,42
20:50:54.540319,9472
20:50:54.540319,0
20:50:54.540319,33
20:50:54.540319,8448
20:50:54.540319,0
20:50:54.540319,30
20:50:54.540319,7168
20:50:54.540319,0
20:50:54.540319,26
20:50:54.540319,5888
20:50:54.540319,0
20:50:54.540319,21
20:50:54.540319,6656
20:50:54.540319,0
20:50:54.540319,28
20:50:54.540319,7168
20:50:54.540319,0
20:50:54.540319,28
20:50:54.540319,8448
20:50:54.540319,0
20:50:54.540319,35
20:50:54.540319,7680
20:50:54.540319,0
20:50:54.540319,33
20:50:54.540319,8448
20:50:54.540319,0
20:50:54.540319,35
20:50:54.540319,8960
20:50:54.540319,0
20:50:54.540319,35
20:50:54.540319,10240
20:50:54.540319,0
20:50:54.540319,47
20:50:54.540319,12032
20:50:54.540319,0
20:50:54.540319,44
20:50:54.540319,12544
20:50:54.540319,0
20:50:54.540319,47
20:50:54.540319,11264
20:50:54.540319,0
20:50:54.540319,49
20:50:54.540319,13312
20:50:54.540319,0
20:50:54.540319,49
20:50:54.540319,13312
20:50:54.540319,0
20:50:54.540319,56
20:50:55.078554,54
20:50:55.078554,14336
20:50:55.078554,0
20:50:55.078554,59
20:50:55.078554,15616
20:50:55.078554,0
20:50:55.078554,66
20:50:55.078554,19968
20:50:55.078554,0
20:50:55.078554,82
20:50:55.078554,20480
20:50:55.078554,0
20:50:55.078554,75
20:50:55.078554,16128
20:50:55.078554,0
20:50:55.078554,49
20:50:55.078554,12544
20:50:55.078554,0
20:50:55.078554,54
20:50:55.078554,16896
20:50:55.078554,0
20:50:55.078554,80
20:50:55.078554,19200
20:50:55.078554,0
20:50:55.078554,66
20:50:55.078554,16128
20:50:55.078554,0
20:50:55.078554,61
20:50:55.078554,15104
20:50:55.078554,0
20:50:55.078554,66
20:50:55.078554,18176
20:50:55.078554,0
20:50:55.078554,101
20:50:55.078554,-24320
20:50:55.078554,0
20:50:55.078554,14
20:50:55.078554,-21504
20:50:55.078554,-3
20:50:55.078554,-1444
20:50:55.078554,28159
20:50:55.078554,-8
20:50:55.078554,-1629
20:50:55.078554,19967
20:50:55.078554,-3
20:50:55.078554,63
20:50:55.078554,-6144
20:50:55.078554,0
20:50:55.078554,248
20:50:55.078554,25344
20:50:55.078554,1
20:50:55.078554,374
20:50:55.078554,20992
20:50:55.078554,1
20:50:55.078554,345
20:50:55.078554,24576
20:50:55.078554,1
20:50:55.078554,326
20:50:55.078554,13824
20:50:55.078554,1
20:50:55.078554,307
20:50:55.078554,9472
20:50:55.078554,1
20:50:55.078554,281
20:50:55.078554,5888
20:50:55.078554,1
20:50:55.078554,272
20:50:55.078554,1024
20:50:55.078554,1
20:50:55.078554,255
20:50:55.078554,-256
20:50:55.078554,0
20:50:55.078554,251
20:50:55.078554,-2560
20:50:55.078554,0
20:50:55.078554,241
20:50:55.078554,-4352
20:50:55.078554,0
20:50:55.078554,234
20:50:55.078554,-8192
20:50:55.078554,0
20:50:55.078554,220
20:50:55.078554,-9984
20:50:55.078554,0
20:50:55.078554,208
20:50:55.078554,-15360
20:50:55.078554,0
20:50:55.078554,184
20:50:55.078554,-22016
20:50:55.078554,0
20:50:55.078554,151
20:50:55.078554,-31232
20:50:55.078554,0
20:50:55.078554,120
20:50:55.078554,27648
20:50:55.078554,0
20:50:55.078554,101
20:50:55.078554,26624
20:50:55.078554,0
20:50:55.078554,104
20:50:55.078554,24064
20:50:55.078554,0
20:50:55.078554,92
20:50:55.078554,23552
20:50:55.078554,0
20:50:55.078554,87
20:50:55.078554,20480
20:50:55.078554,0
20:50:55.078554,75
20:50:55.620462,75
20:50:55.620462,19968
20:50:55.620462,0
20:50:55.620462,73
20:50:55.620462,16128
20:50:55.620462,0
20:50:55.620462,59
20:50:55.620462,14336
20:50:55.620462,0
20:50:55.620462,49
20:50:55.620462,11264
20:50:55.620462,0
20:50:55.620462,42
20:50:55.620462,12032
20:50:55.620462,0
20:50:55.620462,56
20:50:55.620462,17408
20:50:55.620462,0
20:50:55.620462,71
20:50:55.620462,16128
20:50:55.620462,0
20:50:55.620462,63
20:50:55.620462,17408
20:50:55.620462,0
20:50:55.620462,66
20:50:55.620462,16896
20:50:55.620462,0
20:50:55.620462,73
20:50:55.620462,17408
20:50:55.620462,0
20:50:55.620462,66
20:50:55.620462,18176
20:50:55.620462,0
20:50:55.620462,75
20:50:55.620462,17408
20:50:55.620462,0
20:50:55.620462,68
20:50:55.620462,18688
20:50:55.620462,0
20:50:55.620462,73
20:50:55.620462,16896
20:50:55.620462,0
20:50:55.620462,71
20:50:55.620462,19968
20:50:55.620462,0
20:50:55.620462,75
20:50:55.620462,18688
20:50:55.620462,0
20:50:55.620462,66
20:50:55.620462,16896
20:50:55.620462,0
20:50:55.620462,71
20:50:55.620462,18176
20:50:55.620462,0
20:50:55.620462,68
20:50:55.620462,17408
20:50:55.620462,0
20:50:55.620462,68
20:50:55.620462,18176
20:50:55.620462,0
20:50:55.620462,80
20:50:55.620462,22272
20:50:55.620462,0
20:50:55.620462,87
20:50:55.620462,21760
20:50:55.620462,0
20:50:55.620462,71
20:50:55.620462,13824
20:50:55.620462,0
20:50:55.620462,52
20:50:55.620462,13312
20:50:55.620462,0
20:50:55.620462,52
20:50:55.620462,13824
20:50:55.620462,0
20:50:55.620462,52
20:50:55.620462,12032
20:50:55.620462,0
20:50:55.620462,47
20:50:55.620462,12544
20:50:55.620462,0
20:50:55.620462,52
20:50:55.620462,12544
20:50:55.620462,0
20:50:55.620462,47
20:50:55.620462,14336
20:50:55.620462,0
20:50:55.620462,113
20:50:55.620462,-29952
20:50:55.620462,0
20:50:55.620462,-158
20:50:55.620462,-26625
20:50:55.620462,-4
20:50:55.620462,-1603
20:50:55.620462,-513
20:50:55.620462,-8
20:50:55.620462,-1212
20:50:55.620462,-14593
20:50:55.620462,-2
20:50:55.620462,137
20:50:55.620462,-25088
20:50:55.620462,0
20:50:55.620462,236
20:50:55.620462,23552
20:50:55.620462,1
20:50:55.620462,324
20:50:55.620462,10752
20:50:55.620462,1
20:50:55.620462,314
20:50:56.205319,303
20:50:56.205319,6400
20:50:56.205319,1
20:50:56.205319,284
20:50:56.205319,4608
20:50:56.205319,1
20:50:56.205319,251
20:50:56.205319,-4352
20:50:56.205319,0
20:50:56.205319,239
20:50:56.205319,-3328
20:50:56.205319,0
20:50:56.205319,248
20:50:56.205319,-3328
20:50:56.205319,0
20:50:56.205319,234
20:50:56.205319,-6912
20:50:56.205319,0
20:50:56.205319,227
20:50:56.205319,-8704
20:50:56.205319,0
20:50:56.205319,213
20:50:56.205319,-13568
20:50:56.205319,0
20:50:56.205319,189
20:50:56.205319,-18944
20:50:56.205319,0
20:50:56.205319,172
20:50:56.205319,-25088
20:50:56.205319,0
20:50:56.205319,146
20:50:56.205319,-31232
20:50:56.205319,0
20:50:56.205319,118
20:50:56.205319,26624
20:50:56.205319,0
20:50:56.205319,94
20:50:56.205319,23552
20:50:56.205319,0
20:50:56.205319,87
20:50:56.205319,20992
20:50:56.205319,0
20:50:56.205319,82
20:50:56.205319,20480
20:50:56.205319,0
20:50:56.205319,78
20:50:56.205319,20480
20:50:56.205319,0
20:50:56.205319,80
20:50:56.205319,18688
20:50:56.205319,0
20:50:56.205319,66
20:50:56.205319,15616
20:50:56.205319,0
20:50:56.205319,54
20:50:56.205319,12544
20:50:56.205319,0
20:50:56.205319,44
20:50:56.205319,8960
20:50:56.205319,0
20:50:56.205319,28
20:50:56.205319,6656
20:50:56.205319,0
20:50:56.205319,23
20:50:56.205319,4608
20:50:56.205319,0
20:50:56.205319,18
20:50:56.205319,4096
20:50:56.205319,0
20:50:56.205319,14
20:50:56.205319,4096
20:50:56.205319,0
20:50:56.205319,21
20:50:56.205319,5888
20:50:56.205319,0
20:50:56.205319,26
20:50:56.205319,6656
20:50:56.205319,0
20:50:56.205319,28
20:50:56.205319,7168
20:50:56.205319,0
20:50:56.205319,33
20:50:56.205319,8960
20:50:56.205319,0
20:50:56.205319,37
20:50:56.205319,10240
20:50:56.205319,0
20:50:56.205319,42
20:50:56.205319,10240
20:50:56.205319,0
20:50:56.205319,40
20:50:56.205319,10752
20:50:56.205319,0
20:50:56.205319,47
20:50:56.205319,11264
20:50:56.205319,0
20:50:56.205319,42
20:50:56.205319,10752
20:50:56.205319,0
20:50:56.205319,42
20:50:56.205319,9472
20:50:56.205319,0
20:50:56.205319,37
20:50:56.205319,9472
20:50:56.205319,0
20:50:56.205319,37
20:50:56.205319,9472
20:50:56.205319,0
20:50:56.205319,37
20:50:56.740406,40
20:50:56.740406,10240
20:50:56.740406,0
20:50:56.740406,42
20:50:56.740406,13824
20:50:56.740406,0
20:50:56.740406,66
20:50:56.740406,18176
20:50:56.740406,0
20:50:56.740406,66
20:50:56.740406,14336
20:50:56.740406,0
20:50:56.740406,44
20:50:56.740406,7680
20:50:56.740406,0
20:50:56.740406,35
20:50:56.740406,13312
20:50:56.740406,0
20:50:56.740406,59
20:50:56.740406,14336
20:50:56.740406,0
20:50:56.740406,49
20:50:56.740406,11264
20:50:56.740406,0
20:50:56.740406,42
20:50:56.740406,12032
20:50:56.740406,0
20:50:56.740406,47
20:50:56.740406,11264
20:50:56.740406,0
20:50:56.740406,44
20:50:56.740406,12032
20:50:56.740406,0
20:50:56.740406,89
20:50:56.740406,-28672
20:50:56.740406,0
20:50:56.740406,-78
20:50:56.740406,511
20:50:56.740406,-3
20:50:56.740406,-1581
20:50:56.740406,29439
20:50:56.740406,-8
20:50:56.740406,-1477
20:50:56.740406,-3841
20:50:56.740406,-3
20:50:56.740406,94
20:50:56.740406,-18944
20:50:56.740406,0
20:50:56.740406,227
20:50:56.740406,22272
20:50:56.740406,1
20:50:56.740406,341
20:50:56.740406,13824
20:50:56.740406,1
20:50:56.740406,326
20:50:56.740406,16128
20:50:56.740406,1
20:50:56.740406,293
20:50:56.740406,8192
20:50:56.740406,1
20:50:56.740406,286
20:50:56.740406,4096
20:50:56.740406,1
20:50:56.740406,260
20:50:56.740406,-256
20:50:56.740406,0
20:50:56.740406,248
20:50:56.740406,-3840
20:50:56.740406,0
20:50:56.740406,241
20:50:56.740406,-4352
20:50:56.740406,0
20:50:56.740406,236
20:50:56.740406,-5120
20:50:56.740406,0
20:50:56.740406,234
20:50:56.740406,-5632
20:50:56.740406,0
20:50:56.740406,236
20:50:56.740406,-6912
20:50:56.740406,0
20:50:56.740406,220
20:50:56.740406,-9984
20:50:56.740406,0
20:50:56.740406,208
20:50:56.740406,-16640
20:50:56.740406,0
20:50:56.740406,172
20:50:56.740406,-26880
20:50:56.740406,0
20:50:56.740406,130
20:50:56.740406,28928
20:50:56.740406,0
20:50:56.740406,97
20:50:56.740406,21760
20:50:56.740406,0
20:50:56.740406,80
20:50:56.740406,19968
20:50:56.740406,0
20:50:56.740406,73
20:50:56.740406,19200
20:50:56.740406,0
20:50:56.740406,78
20:50:56.740406,19200
20:50:56.740406,0
20:50:56.740406,71
20:50:56.740406,16128
20:50:56.740406,0
20:50:56.740406,59
20:50:57.285388,54
20:50:57.285388,12032
20:50:57.285388,0
20:50:57.285388,40
20:50:57.285388,9472
20:50:57.285388,0
20:50:57.285388,33
20:50:57.285388,6656
20:50:57.285388,0
20:50:57.285388,21
20:50:57.285388,5888
20:50:57.285388,0
20:50:57.285388,33
20:50:57.285388,10752
20:50:57.285388,0
20:50:57.285388,40
20:50:57.285388,9472
20:50:57.285388,0
20:50:57.285388,40
20:50:57.285388,10752
20:50:57.285388,0
20:50:57.285388,42
20:50:57.285388,11264
20:50:57.285388,0
20:50:57.285388,47
20:50:57.285388,12032
20:50:57.285388,0
20:50:57.285388,44
20:50:57.285388,11264
20:50:57.285388,0
20:50:57.285388,44
20:50:57.285388,12032
20:50:57.285388,0
20:50:57.285388,49
20:50:57.285388,12032
20:50:57.285388,0
20:50:57.285388,44
20:50:57.285388,12544
20:50:57.285388,0
20:50:57.285388,52
20:50:57.285388,13312
20:50:57.285388,0
20:50:57.285388,52
20:50:57.285388,12544
20:50:57.285388,0
20:50:57.285388,47
20:50:57.285388,12032
20:50:57.285388,0
20:50:57.285388,47
20:50:57.285388,11264
20:50:57.285388,0
20:50:57.285388,44
20:50:57.285388,12032
20:50:57.285388,0
20:50:57.285388,47
20:50:57.285388,12032
20:50:57.285388,0
20:50:57.285388,44
20:50:57.285388,11264
20:50:57.285388,0
20:50:57.285388,44
20:50:57.285388,12032
20:50:57.285388,0
20:50:57.285388,52
20:50:57.285388,15616
20:50:57.285388,0
20:50:57.285388,75
20:50:57.285388,19200
20:50:57.285388,0
20:50:57.285388,61
20:50:57.285388,10752
20:50:57.285388,0
20:50:57.285388,28
20:50:57.285388,7168
20:50:57.285388,0
20:50:57.285388,26
20:50:57.285388,5888
20:50:57.285388,0
20:50:57.285388,26
20:50:57.285388,7168
20:50:57.285388,0
20:50:57.285388,30
20:50:57.285388,7168
20:50:57.285388,0
20:50:57.285388,23
20:50:57.285388,7168
20:50:57.285388,0
20:50:57.285388,35
20:50:57.285388,9472
20:50:57.285388,0
20:50:57.285388,35
20:50:57.285388,15616
20:50:57.285388,0
20:50:57.285388,125
20:50:57.285388,2304
20:50:57.285388,0
20:50:57.285388,-565
20:50:57.285388,25087
20:50:57.285388,-6
20:50:57.285388,-2038
20:50:57.285388,-11265
20:50:57.285388,-8
20:50:57.285388,-902
20:50:57.285388,-9217
20:50:57.285388,-1
20:50:57.285388,215
20:50:57.285388,-6912
20:50:57.285388,0
20:50:57.285388,329
20:50:57.915343,362
20:50:57.915343,17920
20:50:57.915343,1
20:50:57.915343,329
20:50:57.915343,19712
20:50:57.915343,1
20:50:57.915343,314
20:50:57.915343,14336
20:50:57.915343,1
20:50:57.915343,319
20:50:57.915343,12544
20:50:57.915343,1
20:50:57.915343,288
20:50:57.915343,6400
20:50:57.915343,1
20:50:57.915343,277
20:50:57.915343,3328
20:50:57.915343,1
20:50:57.915343,267
20:50:57.915343,2304
20:50:57.915343,1
20:50:57.915343,262
20:50:57.915343,1024
20:50:57.915343,1
20:50:57.915343,258
20:50:57.915343,1024
20:50:57.915343,1
20:50:57.915343,258
20:50:57.915343,-2048
20:50:57.915343,0
20:50:57.915343,239
20:50:57.915343,-5632
20:50:57.915343,0
20:50:57.915343,227
20:50:57.915343,-9984
20:50:57.915343,0
20:50:57.915343,201
20:50:57.915343,-20224
20:50:57.915343,0
20:50:57.915343,153
20:50:57.915343,-31744
20:50:57.915343,0
20:50:57.915343,116
20:50:57.915343,25856
20:50:57.915343,0
20:50:57.915343,89
20:50:57.915343,20992
20:50:57.915343,0
20:50:57.915343,78
20:50:57.915343,18688
20:50:57.915343,0
20:50:57.915343,71
20:50:57.915343,18176
20:50:57.915343,0
20:50:57.915343,73
20:50:57.915343,16896
20:50:57.915343,0
20:50:57.915343,59
20:50:57.915343,15104
20:50:57.915343,0
20:50:57.915343,56
20:50:57.915343,13312
20:50:57.915343,0
20:50:57.915343,47
20:50:57.915343,11264
20:50:57.915343,0
20:50:57.915343,40
20:50:57.915343,9472
20:50:57.915343,0
20:50:57.915343,35
20:50:57.915343,8960
20:50:57.915343,0
20:50:57.915343,35
20:50:57.915343,9472
20:50:57.915343,0
20:50:57.915343,37
20:50:57.915343,8448
20:50:57.915343,0
20:50:57.915343,33
20:50:57.915343,8448
20:50:57.915343,0
20:50:57.915343,30
20:50:57.915343,7680
20:50:57.915343,0
20:50:57.915343,37
20:50:57.915343,10752
20:50:57.915343,0
20:50:57.915343,40
20:50:57.915343,10752
20:50:57.915343,0
20:50:57.915343,44
20:50:57.915343,12544
20:50:57.915343,0
20:50:57.915343,52
20:50:57.915343,12544
20:50:57.915343,0
20:50:57.915343,47
20:50:57.915343,13824
20:50:57.915343,0
20:50:57.915343,52
20:50:57.915343,12032
20:50:57.915343,0
20:50:57.915343,52
20:50:57.915343,14336
20:50:57.915343,0
20:50:57.915343,56
20:50:57.915343,13824
20:50:57.915343,0
20:50:57.915343,52
20:50:58.407201,52
20:50:58.407201,12544
20:50:58.407201,0
20:50:58.407201,49
20:50:58.407201,13824
20:50:58.407201,0
20:50:58.407201,56
20:50:58.407201,13824
20:50:58.407201,0
20:50:58.407201,52
20:50:58.407201,15104
20:50:58.407201,0
20:50:58.407201,71
20:50:58.407201,20992
20:50:58.407201,0
20:50:58.407201,87
20:50:58.407201,20480
20:50:58.407201,0
20:50:58.407201,63
20:50:58.407201,12032
20:50:58.407201,0
20:50:58.407201,49
20:50:58.407201,16896
20:50:58.407201,0
20:50:58.407201,68
20:50:58.407201,15616
20:50:58.407201,0
20:50:58.407201,63
20:50:58.407201,17408
20:50:58.407201,0
20:50:58.407201,66
20:50:58.407201,15616
20:50:58.407201,0
20:50:58.407201,59
20:50:58.407201,14336
20:50:58.407201,0
20:50:58.407201,56
20:50:58.407201,13824
20:50:58.407201,0
20:50:58.407201,56
20:50:58.407201,27648
20:50:58.407201,0
20:50:58.407201,156
20:50:58.407201,-25856
20:50:58.407201,-1
20:50:58.407201,-819
20:50:58.407201,-22785
20:50:58.407201,-7
20:50:58.407201,-1937
20:50:58.407201,29951
20:50:58.407201,-6
20:50:58.407201,-452
20:50:58.407201,-28417
20:50:58.407201,0
20:50:58.407201,213
20:50:58.407201,1024
20:50:58.407201,1
20:50:58.407201,367
20:50:58.407201,25856
20:50:58.407201,1
20:50:58.407201,333
20:50:58.407201,24064
20:50:58.407201,1
20:50:58.407201,343
20:50:58.407201,14848
20:50:58.407201,1
20:50:58.407201,305
20:50:58.407201,11264
20:50:58.407201,1
20:50:58.407201,288
20:50:58.407201,5888
20:50:58.407201,1
20:50:58.407201,269
20:50:58.407201,1536
20:50:58.407201,1
20:50:58.407201,258
20:50:58.407201,512
20:50:58.407201,1
20:50:58.407201,253
20:50:58.407201,-2560
20:50:58.407201,0
20:50:58.407201,239
20:50:58.407201,-5632
20:50:58.407201,0
20:50:58.407201,232
20:50:58.407201,-8192
20:50:58.407201,0
20:50:58.407201,217
20:50:58.407201,-11776
20:50:58.407201,0
20:50:58.407201,203
20:50:58.407201,-15360
20:50:58.407201,0
20:50:58.407201,187
20:50:58.407201,-20736
20:50:58.407201,0
20:50:58.407201,156
20:50:58.407201,-31232
20:50:58.407201,0
20:50:58.407201,120
20:50:58.407201,28416
20:50:58.407201,0
20:50:58.407201,99
20:50:58.407201,24064
20:50:58.407201,0
20:50:58.407201,97
20:50:58.407201,23552
20:50:58.407201,0
20:50:58.407201,89
20:50:58.995273,92
20:50:58.995273,23552
20:50:58.995273,0
20:50:58.995273,85
20:50:58.995273,20992
20:50:58.995273,0
20:50:58.995273,75
20:50:58.995273,18688
20:50:58.995273,0
20:50:58.995273,82
20:50:58.995273,21760
20:50:58.995273,0
20:50:58.995273,73
20:50:58.995273,17408
20:50:58.995273,0
20:50:58.995273,68
20:50:58.995273,14336
20:50:58.995273,0
20:50:58.995273,49
20:50:58.995273,13312
20:50:58.995273,0
20:50:58.995273,54
20:50:58.995273,13824
20:50:58.995273,0
20:50:58.995273,47
20:50:58.995273,10752
20:50:58.995273,0
20:50:58.995273,47
20:50:58.995273,13312
20:50:58.995273,0
20:50:58.995273,52
20:50:58.995273,13312
20:50:58.995273,0
20:50:58.995273,59
20:50:58.995273,16896
20:50:58.995273,0
20:50:58.995273,66
20:50:58.995273,16128
20:50:58.995273,0
20:50:58.995273,66
20:50:58.995273,16896
20:50:58.995273,0
20:50:58.995273,66
20:50:58.995273,16896
20:50:58.995273,0
20:50:58.995273,68
20:50:58.995273,18176
20:50:58.995273,0
20:50:58.995273,73
20:50:58.995273,17408
20:50:58.995273,0
20:50:58.995273,66
20:50:58.995273,16896
20:50:58.995273,0
20:50:58.995273,66
20:50:58.995273,16896
20:50:58.995273,0
20:50:58.995273,71
20:50:58.995273,20480
20:50:58.995273,0
20:50:58.995273,92
20:50:58.995273,24832
20:50:58.995273,0
20:50:58.995273,94
20:50:58.995273,20480
20:50:58.995273,0
20:50:58.995273,61
20:50:58.995273,13824
20:50:58.995273,0
20:50:58.995273,52
20:50:58.995273,12032
20:50:58.995273,0
20:50:58.995273,44
20:50:58.995273,12032
20:50:58.995273,0
20:50:58.995273,44
20:50:58.995273,8448
20:50:58.995273,0
20:50:58.995273,33
20:50:58.995273,10752
20:50:58.995273,0
20:50:58.995273,42
20:50:58.995273,9472
20:50:58.995273,0
20:50:58.995273,35
20:50:58.995273,10752
20:50:58.995273,0
20:50:58.995273,104
20:50:58.995273,30208
20:50:58.995273,0
20:50:58.995273,-236
20:50:58.995273,9727
20:50:58.995273,-4
20:50:58.995273,-1683
20:50:58.995273,-1537
20:50:58.995273,-8
20:50:58.995273,-1143
20:50:58.995273,3583
20:50:58.995273,-1
20:50:58.995273,151
20:50:58.995273,-25088
20:50:58.995273,0
20:50:58.995273,248
20:50:58.995273,22272
20:50:58.995273,1
20:50:58.995273,314
20:50:58.995273,12032
20:50:58.995273,1
20:50:58.995273,317
20:50:59.579837,298
20:50:59.579837,5376
20:50:59.579837,1
20:50:59.579837,274
20:50:59.579837,2816
20:50:59.579837,1
20:50:59.579837,255
20:50:59.579837,-2560
20:50:59.579837,0
20:50:59.579837,241
20:50:59.579837,-5632
20:50:59.579837,0
20:50:59.579837,232
20:50:59.579837,-3328
20:50:59.579837,0
20:50:59.579837,248
20:50:59.579837,-5120
20:50:59.579837,0
20:50:59.579837,227
20:50:59.579837,-6144
20:50:59.579837,0
20:50:59.579837,229
20:50:59.579837,-8192
20:50:59.579837,0
20:50:59.579837,213
20:50:59.579837,-14848
20:50:59.579837,0
20:50:59.579837,184
20:50:59.579837,-20224
20:50:59.579837,0
20:50:59.579837,168
20:50:59.579837,-26368
20:50:59.579837,0
20:50:59.579837,137
20:50:59.579837,31488
20:50:59.579837,0
20:50:59.579837,113
20:50:59.579837,26624
20:50:59.579837,0
20:50:59.579837,99
20:50:59.579837,24832
20:50:59.579837,0
20:50:59.579837,92
20:50:59.579837,23552
20:50:59.579837,0
20:50:59.579837,94
20:50:59.579837,22272
20:50:59.579837,0
20:50:59.579837,85
20:50:59.579837,21760
20:50:59.579837,0
20:50:59.579837,78
20:50:59.579837,17408
20:50:59.579837,0
20:50:59.579837,63
20:50:59.579837,15616
20:50:59.579837,0
20:50:59.579837,56
20:50:59.579837,11264
20:50:59.579837,0
20:50:59.579837,37
20:50:59.579837,8448
20:50:59.579837,0
20:50:59.579837,28
20:50:59.579837,6656
20:50:59.579837,0
20:50:59.579837,26
20:50:59.579837,7680
20:50:59.579837,0
20:50:59.579837,28
20:50:59.579837,6656
20:50:59.579837,0
20:50:59.579837,30
20:50:59.579837,8960
20:50:59.579837,0
20:50:59.579837,37
20:50:59.579837,10240
20:50:59.579837,0
20:50:59.579837,42
20:50:59.579837,11264
20:50:59.579837,0
20:50:59.579837,47
20:50:59.579837,12032
20:50:59.579837,0
20:50:59.579837,52
20:50:59.579837,13824
20:50:59.579837,0
20:50:59.579837,52
20:50:59.579837,13824
20:50:59.579837,0
20:50:59.579837,54
20:50:59.579837,12544
20:50:59.579837,0
20:50:59.579837,54
20:50:59.579837,15104
20:50:59.579837,0
20:50:59.579837,56
20:50:59.579837,13824
20:50:59.579837,0
20:50:59.579837,56
20:50:59.579837,16128
20:50:59.579837,0
20:50:59.579837,78
20:50:59.579837,24064
20:50:59.579837,0
20:50:59.579837,99
20:50:59.579837,24064
20:50:59.579837,0
20:50:59.579837,75
20:51:00.120260,61
20:51:00.120260,13824
20:51:00.120260,0
20:51:00.120260,52
20:51:00.120260,11264
20:51:00.120260,0
20:51:00.120260,40
20:51:00.120260,12032
20:51:00.120260,0
20:51:00.120260,49
20:51:00.120260,12032
20:51:00.120260,0
20:51:00.120260,47
20:51:00.120260,11264
20:51:00.120260,0
20:51:00.120260,42
20:51:00.120260,12032
20:51:00.120260,0
20:51:00.120260,61
20:51:00.120260,25344
20:51:00.120260,0
20:51:00.120260,165
20:51:00.120260,12544
20:51:00.120260,0
20:51:00.120260,-516
20:51:00.120260,-21249
20:51:00.120260,-6
20:51:00.120260,-1937
20:51:00.120260,13567
20:51:00.120260,-7
20:51:00.120260,-843
20:51:00.120260,-4353
20:51:00.120260,-1
20:51:00.120260,213
20:51:00.120260,-5632
20:51:00.120260,0
20:51:00.120260,348
20:51:00.120260,32512
20:51:00.120260,1
20:51:00.120260,343
20:51:00.120260,23552
20:51:00.120260,1
20:51:00.120260,350
20:51:00.120260,17920
20:51:00.120260,1
20:51:00.120260,317
20:51:00.120260,13824
20:51:00.120260,1
20:51:00.120260,296
20:51:00.120260,7680
20:51:00.120260,1
20:51:00.120260,281
20:51:00.120260,4608
20:51:00.120260,1
20:51:00.120260,269
20:51:00.120260,3328
20:51:00.120260,1
20:51:00.120260,265
20:51:00.120260,1024
20:51:00.120260,1
20:51:00.120260,262
20:51:00.120260,1536
20:51:00.120260,1
20:51:00.120260,260
20:51:00.120260,-768
20:51:00.120260,0
20:51:00.120260,248
20:51:00.120260,-2560
20:51:00.120260,0
20:51:00.120260,239
20:51:00.120260,-7424
20:51:00.120260,0
20:51:00.120260,213
20:51:00.120260,-15872
20:51:00.120260,0
20:51:00.120260,168
20:51:00.120260,-28672
20:51:00.120260,0
20:51:00.120260,123
20:51:00.120260,26624
20:51:00.120260,0
20:51:00.120260,92
20:51:00.120260,22272
20:51:00.120260,0
20:51:00.120260,80
20:51:00.120260,18688
20:51:00.120260,0
20:51:00.120260,73
20:51:00.120260,19200
20:51:00.120260,0
20:51:00.120260,73
20:51:00.120260,17408
20:51:00.120260,0
20:51:00.120260,63
20:51:00.120260,15616
20:51:00.120260,0
20:51:00.120260,61
20:51:00.120260,14336
20:51:00.120260,0
20:51:00.120260,52
20:51:00.120260,12032
20:51:00.120260,0
20:51:00.120260,42
20:51:00.120260,8960
20:51:00.120260,0
20:51:00.120260,33
20:51:00.120260,8448
20:51:00.120260,0
20:51:00.120260,33
20:51:00.705285,33
20:51:00.705285,8448
20:51:00.705285,0
20:51:00.705285,30
20:51:00.705285,6656
20:51:00.705285,0
20:51:00.705285,28
20:51:00.705285,8448
20:51:00.705285,0
20:51:00.705285,30
20:51:00.705285,7168
20:51:00.705285,0
20:51:00.705285,33
20:51:00.705285,11264
20:51:00.705285,0
20:51:00.705285,56
20:51:00.705285,14336
20:51:00.705285,0
20:51:00.705285,49
20:51:00.705285,13312
20:51:00.705285,0
20:51:00.705285,54
20:51:00.705285,13312
20:51:00.705285,0
20:51:00.705285,49
20:51:00.705285,13312
20:51:00.705285,0
20:51:00.705285,52
20:51:00.705285,12544
20:51:00.705285,0
20:51:00.705285,49
20:51:00.705285,12544
20:51:00.705285,0
20:51:00.705285,49
20:51:00.705285,13312
20:51:00.705285,0
20:51:00.705285,49
20:51:00.705285,12544
20:51:00.705285,0
20:51:00.705285,52
20:51:00.705285,13312
20:51:00.705285,0
20:51:00.705285,54
20:51:00.705285,16128
20:51:00.705285,0
20:51:00.705285,78
20:51:00.705285,20992
20:51:00.705285,0
20:51:00.705285,87
20:51:00.705285,21760
20:51:00.705285,0
20:51:00.705285,63
20:51:00.705285,10240
20:51:00.705285,0
20:51:00.705285,40
20:51:00.705285,11264
20:51:00.705285,0
20:51:00.705285,40
20:51:00.705285,10240
20:51:00.705285,0
20:51:00.705285,47
20:51:00.705285,11264
20:51:00.705285,0
20:51:00.705285,42
20:51:00.705285,10752
20:51:00.705285,0
20:51:00.705285,42
20:51:00.705285,11264
20:51:00.705285,0
20:51:00.705285,44
20:51:00.705285,11264
20:51:00.705285,0
20:51:00.705285,71
20:51:00.705285,-31744
20:51:00.705285,0
20:51:00.705285,21
20:51:00.705285,-7680
20:51:00.705285,-3
20:51:00.705285,-1401
20:51:00.705285,16127
20:51:00.705285,-8
20:51:00.705285,-1785
20:51:00.705285,-24833
20:51:00.705285,-4
20:51:00.705285,-9
20:51:00.705285,-3585
20:51:00.705285,0
20:51:00.705285,251
20:51:00.705285,22784
20:51:00.705285,1
20:51:00.705285,386
20:51:00.705285,25344
20:51:00.705285,1
20:51:00.705285,359
20:51:00.705285,27648
20:51:00.705285,1
20:51:00.705285,343
20:51:00.705285,20480
20:51:00.705285,1
20:51:00.705285,336
20:51:00.705285,16896
20:51:00.705285,1
20:51:00.705285,310
20:51:00.705285,13824
20:51:00.705285,1
20:51:00.705285,307
20:51:00.705285,10752
20:51:00.705285,1
20:51:00.705285,296
20:51:01.199954,296
20:51:01.199954,8192
20:51:01.199954,1
20:51:01.199954,284
20:51:01.199954,7680
20:51:01.199954,1
20:51:01.199954,291
20:51:01.199954,7680
20:51:01.199954,1
20:51:01.199954,277
20:51:01.199954,3328
20:51:01.199954,1
20:51:01.199954,262
20:51:01.199954,512
20:51:01.199954,1
20:51:01.199954,248
20:51:01.199954,-5632
20:51:01.199954,0
20:51:01.199954,224
20:51:01.199954,-8704
20:51:01.199954,0
20:51:01.199954,203
20:51:01.199954,-18944
20:51:01.199954,0
20:51:01.199954,170
20:51:01.199954,-23296
20:51:01.199954,0
20:51:01.199954,153
20:51:01.199954,-26880
20:51:01.199954,0
20:51:01.199954,156
20:51:01.199954,-27392
20:51:01.199954,0
20:51:01.199954,139
20:51:01.199954,-30464
20:51:01.199954,0
20:51:01.199954,139
20:51:01.199954,-30464
20:51:01.199954,0
20:51:01.199954,130
20:51:01.199954,32000
20:51:01.199954,0
20:51:01.199954,125
20:51:01.199954,32000
20:51:01.199954,0
20:51:01.199954,120
20:51:01.199954,29696
20:51:01.199954,0
20:51:01.199954,111
20:51:01.199954,28928
20:51:01.199954,0
20:51:01.199954,113
20:51:01.199954,27648
20:51:01.199954,0
20:51:01.199954,108
20:51:01.199954,27136
20:51:01.199954,0
20:51:01.199954,104
20:51:01.199954,27648
20:51:01.199954,0
20:51:01.199954,111
20:51:01.199954,27136
20:51:01.199954,0
20:51:01.199954,111
20:51:01.199954,29696
20:51:01.199954,0
20:51:01.199954,111
20:51:01.199954,28416
20:51:01.199954,0
20:51:01.199954,118
20:51:01.199954,30208
20:51:01.199954,0
20:51:01.199954,118
20:51:01.199954,31488
20:51:01.199954,0
20:51:01.199954,123
20:51:01.199954,32000
20:51:01.199954,0
20:51:01.199954,130
20:51:01.199954,-31232
20:51:01.199954,0
20:51:01.199954,146
20:51:01.199954,-23808
20:51:01.199954,0
20:51:01.199954,163
20:51:01.199954,-25088
20:51:01.199954,0
20:51:01.199954,149
20:51:01.199954,-30464
20:51:01.199954,0
20:51:01.199954,130
20:51:01.199954,-32256
20:51:01.199954,0
20:51:01.199954,130
20:51:01.199954,32512
20:51:01.199954,0
20:51:01.199954,132
20:51:01.199954,-31232
20:51:01.199954,0
20:51:01.199954,132
20:51:01.199954,-32256
20:51:01.199954,0
20:51:01.199954,127
20:51:01.199954,32000
20:51:01.199954,0
20:51:01.199954,127
20:51:01.199954,-32256
20:51:01.199954,0
20:51:01.199954,156
20:51:01.785442,217
20:51:01.785442,25856
20:51:01.785442,0
20:51:01.785442,-449
20:51:01.785442,7935
20:51:01.785442,-5
20:51:01.785442,-1761
20:51:01.785442,6143
20:51:01.785442,-6
20:51:01.785442,-627
20:51:01.785442,28671
20:51:01.785442,0
20:51:01.785442,269
20:51:01.785442,7680
20:51:01.785442,1
20:51:01.785442,409
20:51:01.785442,-19712
20:51:01.785442,1
20:51:01.785442,395
20:51:01.785442,-27648
20:51:01.785442,1
20:51:01.785442,402
20:51:01.785442,32000
20:51:01.785442,1
20:51:01.785442,371
20:51:01.785442,27136
20:51:01.785442,1
20:51:01.785442,350
20:51:01.785442,21760
20:51:01.785442,1
20:51:01.785442,331
20:51:01.785442,16896
20:51:01.785442,1
20:51:01.785442,317
20:51:01.785442,13824
20:51:01.785442,1
20:51:01.785442,300
20:51:01.785442,8960
20:51:01.785442,1
20:51:01.785442,286
20:51:01.785442,5888
20:51:01.785442,1
20:51:01.785442,277
20:51:01.785442,2816
20:51:01.785442,1
20:51:01.785442,253
20:51:01.785442,-4352
20:51:01.785442,0
20:51:01.785442,229
20:51:01.785442,-8704
20:51:01.785442,0
20:51:01.785442,210
20:51:01.785442,-16640
20:51:01.785442,0
20:51:01.785442,175
20:51:01.785442,-23296
20:51:01.785442,0
20:51:01.785442,158
20:51:01.785442,-26880
20:51:01.785442,0
20:51:01.785442,144
20:51:01.785442,-29184
20:51:01.785442,0
20:51:01.785442,137
20:51:01.785442,-31744
20:51:01.785442,0
20:51:01.785442,134
20:51:01.785442,-31232
20:51:01.785442,0
20:51:01.785442,134
20:51:01.785442,32512
20:51:01.785442,0
20:51:01.785442,120
20:51:01.785442,29696
20:51:01.785442,0
20:51:01.785442,113
20:51:01.785442,28416
20:51:01.785442,0
20:51:01.785442,104
20:51:01.785442,24064
20:51:01.785442,0
20:51:01.785442,85
20:51:01.785442,20480
20:51:01.785442,0
20:51:01.785442,75
20:51:01.785442,18688
20:51:01.785442,0
20:51:01.785442,68
20:51:01.785442,15616
20:51:01.785442,0
20:51:01.785442,56
20:51:01.785442,15104
20:51:01.785442,0
20:51:01.785442,61
20:51:01.785442,15616
20:51:01.785442,0
20:51:01.785442,59
20:51:01.785442,15104
20:51:01.785442,0
20:51:01.785442,61
20:51:01.785442,15104
20:51:01.785442,0
20:51:01.785442,61
20:51:01.785442,16128
20:51:01.785442,0
20:51:01.785442,63
20:51:01.785442,15616
20:51:01.785442,0
20:51:01.785442,59
20:51:02.369853,66
20:51:02.369853,20992
20:51:02.369853,0
20:51:02.369853,94
20:51:02.369853,25344
20:51:02.369853,0
20:51:02.369853,94
20:51:02.369853,19968
20:51:02.369853,0
20:51:02.369853,61
20:51:02.369853,15616
20:51:02.369853,0
20:51:02.369853,73
20:51:02.369853,18176
20:51:02.369853,0
20:51:02.369853,63
20:51:02.369853,16128
20:51:02.369853,0
20:51:02.369853,61
20:51:02.369853,14336
20:51:02.369853,0
20:51:02.369853,54
20:51:02.369853,13824
20:51:02.369853,0
20:51:02.369853,52
20:51:02.369853,13312
20:51:02.369853,0
20:51:02.369853,49
20:51:02.369853,18176
20:51:02.369853,0
20:51:02.369853,142
20:51:02.369853,13824
20:51:02.369853,0
20:51:02.369853,-468
20:51:02.369853,1791
20:51:02.369853,-5
20:51:02.369853,-1847
20:51:02.369853,19711
20:51:02.369853,-7
20:51:02.369853,-883
20:51:02.369853,-14849
20:51:02.369853,-1
20:51:02.369853,187
20:51:02.369853,-15360
20:51:02.369853,0
20:51:02.369853,310
20:51:02.369853,26368
20:51:02.369853,1
20:51:02.369853,322
20:51:02.369853,17920
20:51:02.369853,1
20:51:02.369853,333
20:51:02.369853,13056
20:51:02.369853,1
20:51:02.369853,296
20:51:02.369853,9472
20:51:02.369853,1
20:51:02.369853,281
20:51:02.369853,3328
20:51:02.369853,1
20:51:02.369853,262
20:51:02.369853,-256
20:51:02.369853,0
20:51:02.369853,253
20:51:02.369853,-1280
20:51:02.369853,0
20:51:02.369853,248
20:51:02.369853,-2560
20:51:02.369853,0
20:51:02.369853,243
20:51:02.369853,-3328
20:51:02.369853,0
20:51:02.369853,239
20:51:02.369853,-5632
20:51:02.369853,0
20:51:02.369853,229
20:51:02.369853,-9216
20:51:02.369853,0
20:51:02.369853,213
20:51:02.369853,-13568
20:51:02.369853,0
20:51:02.369853,187
20:51:02.369853,-22528
20:51:02.369853,0
20:51:02.369853,144
20:51:02.369853,32000
20:51:02.369853,0
20:51:02.369853,106
20:51:02.369853,22784
20:51:02.369853,0
20:51:02.369853,80
20:51:02.369853,18688
20:51:02.369853,0
20:51:02.369853,68
20:51:02.369853,16896
20:51:02.369853,0
20:51:02.369853,66
20:51:02.369853,16128
20:51:02.369853,0
20:51:02.369853,63
20:51:02.369853,16896
20:51:02.369853,0
20:51:02.369853,59
20:51:02.369853,13312
20:51:02.369853,0
20:51:02.369853,44
20:51:02.369853,10240
20:51:02.369853,0
20:51:02.369853,35
20:51:02.910350,28
20:51:02.910350,5888
20:51:02.910350,0
20:51:02.910350,21
20:51:02.910350,4096
20:51:02.910350,0
20:51:02.910350,14
20:51:02.910350,3584
20:51:02.910350,0
20:51:02.910350,11
20:51:02.910350,2816
20:51:02.910350,0
20:51:02.910350,14
20:51:02.910350,4096
20:51:02.910350,0
20:51:02.910350,26
20:51:02.910350,10240
20:51:02.910350,0
20:51:02.910350,42
20:51:02.910350,9472
20:51:02.910350,0
20:51:02.910350,37
20:51:02.910350,10240
20:51:02.910350,0
20:51:02.910350,37
20:51:02.910350,8960
20:51:02.910350,0
20:51:02.910350,37
20:51:02.910350,10752
20:51:02.910350,0
20:51:02.910350,37
20:51:02.910350,8448
20:51:02.910350,0
20:51:02.910350,37
20:51:02.910350,10752
20:51:02.910350,0
20:51:02.910350,40
20:51:02.910350,9472
20:51:02.910350,0
20:51:02.910350,52
20:51:02.910350,18176
20:51:02.910350,0
20:51:02.910350,82
20:51:02.910350,20480
20:51:02.910350,0
20:51:02.910350,61
20:51:02.910350,10752
20:51:02.910350,0
20:51:02.910350,30
20:51:02.910350,7680
20:51:02.910350,0
20:51:02.910350,30
20:51:02.910350,8448
20:51:02.910350,0
20:51:02.910350,35
20:51:02.910350,7680
20:51:02.910350,0
20:51:02.910350,26
20:51:02.910350,5376
20:51:02.910350,0
20:51:02.910350,21
20:51:02.910350,5376
20:51:02.910350,0
20:51:02.910350,18
20:51:02.910350,5888
20:51:02.910350,0
20:51:02.910350,35
20:51:02.910350,24832
20:51:02.910350,0
20:51:02.910350,68
20:51:02.910350,-28416
20:51:02.910350,-2
20:51:02.910350,-1193
20:51:02.910350,32511
20:51:02.910350,-8
20:51:02.910350,-1996
20:51:02.910350,11007
20:51:02.910350,-5
20:51:02.910350,-253
20:51:02.910350,-17409
20:51:02.910350,0
20:51:02.910350,213
20:51:02.910350,10240
20:51:02.910350,1
20:51:02.910350,369
20:51:02.910350,21760
20:51:02.910350,1
20:51:02.910350,329
20:51:02.910350,22784
20:51:02.910350,1
20:51:02.910350,331
20:51:02.910350,14336
20:51:02.910350,1
20:51:02.910350,310
20:51:02.910350,12032
20:51:02.910350,1
20:51:02.910350,291
20:51:02.910350,7680
20:51:02.910350,1
20:51:02.910350,279
20:51:02.910350,3328
20:51:02.910350,1
20:51:02.910350,269
20:51:02.910350,3328
20:51:02.910350,1
20:51:02.910350,265
20:51:02.910350,1024
20:51:02.910350,1
20:51:02.910350,260
20:51:03.494777,258
20:51:03.494777,-256
20:51:03.494777,0
20:51:03.494777,246
20:51:03.494777,-5120
20:51:03.494777,0
20:51:03.494777,229
20:51:03.494777,-9216
20:51:03.494777,0
20:51:03.494777,208
20:51:03.494777,-13568
20:51:03.494777,0
20:51:03.494777,196
20:51:03.494777,-21504
20:51:03.494777,0
20:51:03.494777,144
20:51:03.494777,32000
20:51:03.494777,0
20:51:03.494777,111
20:51:03.494777,25344
20:51:03.494777,0
20:51:03.494777,94
20:51:03.494777,23552
20:51:03.494777,0
20:51:03.494777,85
20:51:03.494777,19968
20:51:03.494777,0
20:51:03.494777,71
20:51:03.494777,17408
20:51:03.494777,0
20:51:03.494777,66
20:51:03.494777,15104
20:51:03.494777,0
20:51:03.494777,52
20:51:03.494777,12032
20:51:03.494777,0
20:51:03.494777,44
20:51:03.494777,11264
20:51:03.494777,0
20:51:03.494777,40
20:51:03.494777,9472
20:51:03.494777,0
20:51:03.494777,37
20:51:03.494777,7680
20:51:03.494777,0
20:51:03.494777,26
20:51:03.494777,6656
20:51:03.494777,0
20:51:03.494777,23
20:51:03.494777,5376
20:51:03.494777,0
20:51:03.494777,18
20:51:03.494777,3584
20:51:03.494777,0
20:51:03.494777,11
20:51:03.494777,4096
20:51:03.494777,0
20:51:03.494777,16
20:51:03.494777,3584
20:51:03.494777,0
20:51:03.494777,11
20:51:03.494777,3584
20:51:03.494777,0
20:51:03.494777,16
20:51:03.494777,4096
20:51:03.494777,0
