timestamp,ecg,reconstructed_time
2025-11-07 13:54:08.073008,-142,2025-11-07 13:54:08.073008000
2025-11-07 13:54:08.073008,30207,2025-11-07 13:54:08.080700308
2025-11-07 13:54:08.073008,-1,2025-11-07 13:54:08.088392615
2025-11-07 13:54:08.073008,-146,2025-11-07 13:54:08.096084923
2025-11-07 13:54:08.073008,23295,2025-11-07 13:54:08.103777231
2025-11-07 13:54:08.073008,-1,2025-11-07 13:54:08.111469538
2025-11-07 13:54:08.073008,-171,2025-11-07 13:54:08.119161846
2025-11-07 13:54:08.073008,27647,2025-11-07 13:54:08.126854154
2025-11-07 13:54:08.073008,-1,2025-11-07 13:54:08.134546462
2025-11-07 13:54:08.073008,-108,2025-11-07 13:54:08.142238769
2025-11-07 13:54:08.073008,-25601,2025-11-07 13:54:08.149931077
2025-11-07 13:54:08.073008,-1,2025-11-07 13:54:08.157623385
2025-11-07 13:54:08.073008,-125,2025-11-07 13:54:08.165315692
2025-11-07 13:54:08.073008,-28673,2025-11-07 13:54:08.173008000
2025-11-07 13:54:08.073008,-1,2025-11-07 13:54:08.180700308
2025-11-07 13:54:08.073008,-93,2025-11-07 13:54:08.188392615
2025-11-07 13:54:08.073008,-26113,2025-11-07 13:54:08.196084923
2025-11-07 13:54:08.073008,-1,2025-11-07 13:54:08.203777231
2025-11-07 13:54:08.073008,-108,2025-11-07 13:54:08.211469538
2025-11-07 13:54:08.073008,-29185,2025-11-07 13:54:08.219161846
2025-11-07 13:54:08.073008,-1,2025-11-07 13:54:08.226854154
2025-11-07 13:54:08.073008,-122,2025-11-07 13:54:08.234546462
2025-11-07 13:54:08.073008,-28673,2025-11-07 13:54:08.242238769
2025-11-07 13:54:08.073008,-1,2025-11-07 13:54:08.249931077
2025-11-07 13:54:08.073008,-105,2025-11-07 13:54:08.257623385
2025-11-07 13:54:08.073008,-28673,2025-11-07 13:54:08.265315692
2025-11-07 13:54:08.073008,-1,2025-11-07 13:54:08.273008000
2025-11-07 13:54:08.073008,-127,2025-11-07 13:54:08.280700308
2025-11-07 13:54:08.073008,-30465,2025-11-07 13:54:08.288392615
2025-11-07 13:54:08.073008,-1,2025-11-07 13:54:08.296084923
2025-11-07 13:54:08.073008,-103,2025-11-07 13:54:08.303777231
2025-11-07 13:54:08.073008,-25601,2025-11-07 13:54:08.311469538
2025-11-07 13:54:08.073008,-1,2025-11-07 13:54:08.319161846
2025-11-07 13:54:08.073008,-98,2025-11-07 13:54:08.326854154
2025-11-07 13:54:08.073008,-25601,2025-11-07 13:54:08.334546462
2025-11-07 13:54:08.073008,-1,2025-11-07 13:54:08.342238769
2025-11-07 13:54:08.073008,-105,2025-11-07 13:54:08.349931077
2025-11-07 13:54:08.073008,-26113,2025-11-07 13:54:08.357623385
2025-11-07 13:54:08.073008,-1,2025-11-07 13:54:08.365315692
2025-11-07 13:54:08.073008,-101,2025-11-07 13:54:08.373008000
2025-11-07 13:54:08.073008,-24321,2025-11-07 13:54:08.380700308
2025-11-07 13:54:08.073008,-1,2025-11-07 13:54:08.388392615
2025-11-07 13:54:08.073008,-89,2025-11-07 13:54:08.396084923
2025-11-07 13:54:08.073008,-20481,2025-11-07 13:54:08.403777231
2025-11-07 13:54:08.073008,-1,2025-11-07 13:54:08.411469538
2025-11-07 13:54:08.073008,-74,2025-11-07 13:54:08.419161846
2025-11-07 13:54:08.073008,-17409,2025-11-07 13:54:08.426854154
2025-11-07 13:54:08.073008,-1,2025-11-07 13:54:08.434546462
2025-11-07 13:54:08.073008,-57,2025-11-07 13:54:08.442238769
2025-11-07 13:54:08.073008,-10753,2025-11-07 13:54:08.449931077
2025-11-07 13:54:08.073008,-1,2025-11-07 13:54:08.457623385
2025-11-07 13:54:08.073008,-57,2025-11-07 13:54:08.465315692
2025-11-07 13:54:08.073008,-20481,2025-11-07 13:54:08.473008000
2025-11-07 13:54:08.073008,-1,2025-11-07 13:54:08.480700308
2025-11-07 13:54:08.073008,-79,2025-11-07 13:54:08.488392615
2025-11-07 13:54:08.073008,-14337,2025-11-07 13:54:08.496084923
2025-11-07 13:54:08.073008,-1,2025-11-07 13:54:08.503777231
2025-11-07 13:54:08.073008,-31,2025-11-07 13:54:08.511469538
2025-11-07 13:54:08.073008,-769,2025-11-07 13:54:08.519161846
2025-11-07 13:54:08.073008,-1,2025-11-07 13:54:08.526854154
2025-11-07 13:54:08.073008,16,2025-11-07 13:54:08.534546462
2025-11-07 13:54:08.073008,3584,2025-11-07 13:54:08.542238769
2025-11-07 13:54:08.073008,0,2025-11-07 13:54:08.549931077
2025-11-07 13:54:08.073008,-16,2025-11-07 13:54:08.557623385
2025-11-07 13:54:08.073008,-4609,2025-11-07 13:54:08.565315692
2025-11-07 13:54:08.073008,-1,2025-11-07 13:54:08.573008000
2025-11-07 13:54:08.073008,16,2025-11-07 13:54:08.580700308
2025-11-07 13:54:08.073008,4864,2025-11-07 13:54:08.588392615
2025-11-07 13:54:08.073008,0,2025-11-07 13:54:08.596084923
2025-11-07 13:54:08.073008,-2,2025-11-07 13:54:08.603777230
2025-11-07 13:54:08.073008,-4609,2025-11-07 13:54:08.611469538
2025-11-07 13:54:08.073008,-1,2025-11-07 13:54:08.619161846
2025-11-07 13:54:08.073008,-52,2025-11-07 13:54:08.626854154
2025-11-07 13:54:08.073008,11775,2025-11-07 13:54:08.634546462
2025-11-07 13:54:08.073008,0,2025-11-07 13:54:08.642238769
2025-11-07 13:54:08.073008,575,2025-11-07 13:54:08.649931077
2025-11-07 13:54:08.073008,-32512,2025-11-07 13:54:08.657623385
2025-11-07 13:54:08.073008,4,2025-11-07 13:54:08.665315692
2025-11-07 13:54:08.073008,790,2025-11-07 13:54:08.673008000
2025-11-07 13:54:08.073008,-22016,2025-11-07 13:54:08.680700308
2025-11-07 13:54:08.073008,-1,2025-11-07 13:54:08.688392615
2025-11-07 13:54:08.073008,-216,2025-11-07 13:54:08.696084923
2025-11-07 13:54:08.073008,3839,2025-11-07 13:54:08.703777231
2025-11-07 13:54:08.073008,0,2025-11-07 13:54:08.711469538
2025-11-07 13:54:08.073008,-105,2025-11-07 13:54:08.719161846
2025-11-07 13:54:08.073008,16639,2025-11-07 13:54:08.726854154
2025-11-07 13:54:08.073008,-1,2025-11-07 13:54:08.734546462
2025-11-07 13:54:08.073008,-101,2025-11-07 13:54:08.742238769
2025-11-07 13:54:08.073008,-27393,2025-11-07 13:54:08.749931077
2025-11-07 13:54:08.073008,-1,2025-11-07 13:54:08.757623385
2025-11-07 13:54:08.073008,-144,2025-11-07 13:54:08.765315692
2025-11-07 13:54:08.073008,-27393,2025-11-07 13:54:08.773008000
2025-11-07 13:54:08.073008,-1,2025-11-07 13:54:08.780700308
2025-11-07 13:54:08.073008,-93,2025-11-07 13:54:08.788392615
2025-11-07 13:54:08.073008,-27905,2025-11-07 13:54:08.796084923
2025-11-07 13:54:08.073008,-1,2025-11-07 13:54:08.803777231
2025-11-07 13:54:08.073008,-101,2025-11-07 13:54:08.811469538
2025-11-07 13:54:08.073008,-22529,2025-11-07 13:54:08.819161846
2025-11-07 13:54:08.073008,-1,2025-11-07 13:54:08.826854154
2025-11-07 13:54:08.073008,-96,2025-11-07 13:54:08.834546462
2025-11-07 13:54:08.073008,-24833,2025-11-07 13:54:08.842238769
2025-11-07 13:54:08.073008,-1,2025-11-07 13:54:08.849931077
2025-11-07 13:54:08.073008,-89,2025-11-07 13:54:08.857623385
2025-11-07 13:54:08.073008,-23553,2025-11-07 13:54:08.865315692
2025-11-07 13:54:08.073008,-1,2025-11-07 13:54:08.873008000
2025-11-07 13:54:08.073008,-101,2025-11-07 13:54:08.880700308
2025-11-07 13:54:08.073008,-23041,2025-11-07 13:54:08.888392615
2025-11-07 13:54:08.073008,-1,2025-11-07 13:54:08.896084923
2025-11-07 13:54:08.073008,-93,2025-11-07 13:54:08.903777231
2025-11-07 13:54:08.660073,-103,2025-11-07 13:54:08.911469538
2025-11-07 13:54:08.660073,-27393,2025-11-07 13:54:08.919161846
2025-11-07 13:54:08.660073,-1,2025-11-07 13:54:08.926854154
2025-11-07 13:54:08.660073,-118,2025-11-07 13:54:08.934546462
2025-11-07 13:54:08.660073,-32257,2025-11-07 13:54:08.942238769
2025-11-07 13:54:08.660073,-1,2025-11-07 13:54:08.949931077
2025-11-07 13:54:08.660073,-132,2025-11-07 13:54:08.957623385
2025-11-07 13:54:08.660073,-32257,2025-11-07 13:54:08.965315692
2025-11-07 13:54:08.660073,-1,2025-11-07 13:54:08.973008000
2025-11-07 13:54:08.660073,-115,2025-11-07 13:54:08.980700308
2025-11-07 13:54:08.660073,-27905,2025-11-07 13:54:08.988392615
2025-11-07 13:54:08.660073,-1,2025-11-07 13:54:08.996084923
2025-11-07 13:54:08.660073,-115,2025-11-07 13:54:09.003777231
2025-11-07 13:54:08.660073,-31745,2025-11-07 13:54:09.011469538
2025-11-07 13:54:08.660073,-1,2025-11-07 13:54:09.019161846
2025-11-07 13:54:08.660073,-115,2025-11-07 13:54:09.026854154
2025-11-07 13:54:08.660073,-26113,2025-11-07 13:54:09.034546462
2025-11-07 13:54:08.660073,-1,2025-11-07 13:54:09.042238769
2025-11-07 13:54:08.660073,-120,2025-11-07 13:54:09.049931077
2025-11-07 13:54:08.660073,-32257,2025-11-07 13:54:09.057623385
2025-11-07 13:54:08.660073,-1,2025-11-07 13:54:09.065315692
2025-11-07 13:54:08.660073,-120,2025-11-07 13:54:09.073008000
2025-11-07 13:54:08.660073,-31745,2025-11-07 13:54:09.080700308
2025-11-07 13:54:08.660073,-1,2025-11-07 13:54:09.088392615
2025-11-07 13:54:08.660073,-130,2025-11-07 13:54:09.096084923
2025-11-07 13:54:08.660073,-32257,2025-11-07 13:54:09.103777231
2025-11-07 13:54:08.660073,-1,2025-11-07 13:54:09.111469538
2025-11-07 13:54:08.660073,-125,2025-11-07 13:54:09.119161846
2025-11-07 13:54:08.660073,-32257,2025-11-07 13:54:09.126854154
2025-11-07 13:54:08.660073,-1,2025-11-07 13:54:09.134546462
2025-11-07 13:54:08.660073,-130,2025-11-07 13:54:09.142238769
2025-11-07 13:54:08.660073,-30977,2025-11-07 13:54:09.149931077
2025-11-07 13:54:08.660073,-1,2025-11-07 13:54:09.157623385
2025-11-07 13:54:08.660073,-127,2025-11-07 13:54:09.165315692
2025-11-07 13:54:08.660073,31487,2025-11-07 13:54:09.173008000
2025-11-07 13:54:08.660073,-1,2025-11-07 13:54:09.180700308
2025-11-07 13:54:08.660073,-127,2025-11-07 13:54:09.188392615
2025-11-07 13:54:08.660073,-32257,2025-11-07 13:54:09.196084923
2025-11-07 13:54:08.660073,-1,2025-11-07 13:54:09.203777231
2025-11-07 13:54:08.660073,-130,2025-11-07 13:54:09.211469538
2025-11-07 13:54:08.660073,-30977,2025-11-07 13:54:09.219161846
2025-11-07 13:54:08.660073,-1,2025-11-07 13:54:09.226854154
2025-11-07 13:54:08.660073,-120,2025-11-07 13:54:09.234546462
2025-11-07 13:54:08.660073,-30977,2025-11-07 13:54:09.242238769
2025-11-07 13:54:08.660073,-1,2025-11-07 13:54:09.249931077
2025-11-07 13:54:08.660073,-127,2025-11-07 13:54:09.257623385
2025-11-07 13:54:08.660073,-30465,2025-11-07 13:54:09.265315692
2025-11-07 13:54:08.660073,-1,2025-11-07 13:54:09.273008000
2025-11-07 13:54:08.660073,-110,2025-11-07 13:54:09.280700308
2025-11-07 13:54:08.660073,-32257,2025-11-07 13:54:09.288392615
2025-11-07 13:54:08.660073,-1,2025-11-07 13:54:09.296084923
2025-11-07 13:54:08.660073,-149,2025-11-07 13:54:09.303777231
2025-11-07 13:54:08.660073,24063,2025-11-07 13:54:09.311469538
2025-11-07 13:54:08.660073,-1,2025-11-07 13:54:09.319161846
2025-11-07 13:54:08.660073,-154,2025-11-07 13:54:09.326854154
2025-11-07 13:54:08.660073,-31745,2025-11-07 13:54:09.334546462
2025-11-07 13:54:08.660073,-1,2025-11-07 13:54:09.342238769
2025-11-07 13:54:08.660073,-101,2025-11-07 13:54:09.349931077
2025-11-07 13:54:08.660073,-20481,2025-11-07 13:54:09.357623385
2025-11-07 13:54:08.660073,-1,2025-11-07 13:54:09.365315692
2025-11-07 13:54:08.660073,-89,2025-11-07 13:54:09.373008000
2025-11-07 13:54:08.660073,-28673,2025-11-07 13:54:09.380700308
2025-11-07 13:54:08.660073,-1,2025-11-07 13:54:09.388392615
2025-11-07 13:54:08.660073,-110,2025-11-07 13:54:09.396084923
2025-11-07 13:54:08.660073,-24833,2025-11-07 13:54:09.403777231
2025-11-07 13:54:08.660073,-1,2025-11-07 13:54:09.411469538
2025-11-07 13:54:08.660073,-101,2025-11-07 13:54:09.419161846
2025-11-07 13:54:08.660073,-25601,2025-11-07 13:54:09.426854154
2025-11-07 13:54:08.660073,-1,2025-11-07 13:54:09.434546462
2025-11-07 13:54:08.660073,-108,2025-11-07 13:54:09.442238769
2025-11-07 13:54:08.660073,29439,2025-11-07 13:54:09.449931077
2025-11-07 13:54:08.660073,-1,2025-11-07 13:54:09.457623385
2025-11-07 13:54:08.660073,-149,2025-11-07 13:54:09.465315692
2025-11-07 13:54:08.660073,-17921,2025-11-07 13:54:09.473008000
2025-11-07 13:54:08.660073,0,2025-11-07 13:54:09.480700308
2025-11-07 13:54:08.660073,872,2025-11-07 13:54:09.488392615
2025-11-07 13:54:08.660073,-19968,2025-11-07 13:54:09.496084923
2025-11-07 13:54:08.660073,3,2025-11-07 13:54:09.503777231
2025-11-07 13:54:08.660073,110,2025-11-07 13:54:09.511469538
2025-11-07 13:54:08.660073,-26880,2025-11-07 13:54:09.519161846
2025-11-07 13:54:08.660073,-2,2025-11-07 13:54:09.526854154
2025-11-07 13:54:08.660073,-132,2025-11-07 13:54:09.534546462
2025-11-07 13:54:08.660073,-27393,2025-11-07 13:54:09.542238769
2025-11-07 13:54:08.660073,-1,2025-11-07 13:54:09.549931077
2025-11-07 13:54:08.660073,-269,2025-11-07 13:54:09.557623385
2025-11-07 13:54:08.660073,12287,2025-11-07 13:54:09.565315692
2025-11-07 13:54:08.660073,-1,2025-11-07 13:54:09.573008000
2025-11-07 13:54:08.660073,-146,2025-11-07 13:54:09.580700308
2025-11-07 13:54:08.660073,15871,2025-11-07 13:54:09.588392615
2025-11-07 13:54:08.660073,-1,2025-11-07 13:54:09.596084923
2025-11-07 13:54:08.660073,-185,2025-11-07 13:54:09.603777230
2025-11-07 13:54:08.660073,27647,2025-11-07 13:54:09.611469538
2025-11-07 13:54:08.660073,-1,2025-11-07 13:54:09.619161846
2025-11-07 13:54:08.660073,-156,2025-11-07 13:54:09.626854154
2025-11-07 13:54:08.660073,27135,2025-11-07 13:54:09.634546462
2025-11-07 13:54:08.660073,-1,2025-11-07 13:54:09.642238769
2025-11-07 13:54:08.660073,-130,2025-11-07 13:54:09.649931077
2025-11-07 13:54:08.660073,-29953,2025-11-07 13:54:09.657623385
2025-11-07 13:54:08.660073,-1,2025-11-07 13:54:09.665315692
2025-11-07 13:54:08.660073,-118,2025-11-07 13:54:09.673008000
2025-11-07 13:54:08.660073,-29953,2025-11-07 13:54:09.680700308
2025-11-07 13:54:08.660073,-1,2025-11-07 13:54:09.688392615
2025-11-07 13:54:08.660073,-108,2025-11-07 13:54:09.696084923
2025-11-07 13:54:08.660073,-27393,2025-11-07 13:54:09.703777231
2025-11-07 13:54:08.660073,-1,2025-11-07 13:54:09.711469538
2025-11-07 13:54:08.660073,-115,2025-11-07 13:54:09.719161846
2025-11-07 13:54:08.660073,-28673,2025-11-07 13:54:09.726854154
2025-11-07 13:54:08.660073,-1,2025-11-07 13:54:09.734546462
2025-11-07 13:54:08.660073,-115,2025-11-07 13:54:09.742238769
2025-11-07 13:54:09.200581,-118,2025-11-07 13:54:09.749931077
2025-11-07 13:54:09.200581,-32257,2025-11-07 13:54:09.757623385
2025-11-07 13:54:09.200581,-1,2025-11-07 13:54:09.765315692
2025-11-07 13:54:09.200581,-132,2025-11-07 13:54:09.773008000
2025-11-07 13:54:09.200581,-32257,2025-11-07 13:54:09.780700308
2025-11-07 13:54:09.200581,-1,2025-11-07 13:54:09.788392615
2025-11-07 13:54:09.200581,-120,2025-11-07 13:54:09.796084923
2025-11-07 13:54:09.200581,-27905,2025-11-07 13:54:09.803777231
2025-11-07 13:54:09.200581,-1,2025-11-07 13:54:09.811469538
2025-11-07 13:54:09.200581,-103,2025-11-07 13:54:09.819161846
2025-11-07 13:54:09.200581,-26625,2025-11-07 13:54:09.826854154
2025-11-07 13:54:09.200581,-1,2025-11-07 13:54:09.834546462
2025-11-07 13:54:09.200581,-105,2025-11-07 13:54:09.842238769
2025-11-07 13:54:09.200581,-28673,2025-11-07 13:54:09.849931077
2025-11-07 13:54:09.200581,-1,2025-11-07 13:54:09.857623385
2025-11-07 13:54:09.200581,-120,2025-11-07 13:54:09.865315692
2025-11-07 13:54:09.200581,-26625,2025-11-07 13:54:09.873008000
2025-11-07 13:54:09.200581,-1,2025-11-07 13:54:09.880700308
2025-11-07 13:54:09.200581,-98,2025-11-07 13:54:09.888392615
2025-11-07 13:54:09.200581,-25601,2025-11-07 13:54:09.896084923
2025-11-07 13:54:09.200581,-1,2025-11-07 13:54:09.903777231
2025-11-07 13:54:09.200581,-103,2025-11-07 13:54:09.911469538
2025-11-07 13:54:09.200581,-24833,2025-11-07 13:54:09.919161846
2025-11-07 13:54:09.200581,-1,2025-11-07 13:54:09.926854154
2025-11-07 13:54:09.200581,-96,2025-11-07 13:54:09.934546462
2025-11-07 13:54:09.200581,-25601,2025-11-07 13:54:09.942238769
2025-11-07 13:54:09.200581,-1,2025-11-07 13:54:09.949931077
2025-11-07 13:54:09.200581,-101,2025-11-07 13:54:09.957623385
2025-11-07 13:54:09.200581,-24321,2025-11-07 13:54:09.965315692
2025-11-07 13:54:09.200581,-1,2025-11-07 13:54:09.973008000
2025-11-07 13:54:09.200581,-105,2025-11-07 13:54:09.980700308
2025-11-07 13:54:09.200581,-26625,2025-11-07 13:54:09.988392615
2025-11-07 13:54:09.200581,-1,2025-11-07 13:54:09.996084923
2025-11-07 13:54:09.200581,-101,2025-11-07 13:54:10.003777231
2025-11-07 13:54:09.200581,-26113,2025-11-07 13:54:10.011469538
2025-11-07 13:54:09.200581,-1,2025-11-07 13:54:10.019161846
2025-11-07 13:54:09.200581,-103,2025-11-07 13:54:10.026854154
2025-11-07 13:54:09.200581,-26625,2025-11-07 13:54:10.034546462
2025-11-07 13:54:09.200581,-1,2025-11-07 13:54:10.042238769
2025-11-07 13:54:09.200581,-103,2025-11-07 13:54:10.049931077
2025-11-07 13:54:09.200581,-27393,2025-11-07 13:54:10.057623385
2025-11-07 13:54:09.200581,-1,2025-11-07 13:54:10.065315692
2025-11-07 13:54:09.200581,-110,2025-11-07 13:54:10.073008000
2025-11-07 13:54:09.200581,-26113,2025-11-07 13:54:10.080700308
2025-11-07 13:54:09.200581,-1,2025-11-07 13:54:10.088392615
2025-11-07 13:54:09.200581,-101,2025-11-07 13:54:10.096084923
2025-11-07 13:54:09.200581,-26625,2025-11-07 13:54:10.103777231
2025-11-07 13:54:09.200581,-1,2025-11-07 13:54:10.111469538
2025-11-07 13:54:09.200581,-130,2025-11-07 13:54:10.119161846
2025-11-07 13:54:09.200581,26367,2025-11-07 13:54:10.126854154
2025-11-07 13:54:09.200581,-1,2025-11-07 13:54:10.134546462
2025-11-07 13:54:09.200581,-137,2025-11-07 13:54:10.142238769
2025-11-07 13:54:09.200581,-27905,2025-11-07 13:54:10.149931077
2025-11-07 13:54:09.200581,-1,2025-11-07 13:54:10.157623385
2025-11-07 13:54:09.200581,-96,2025-11-07 13:54:10.165315692
2025-11-07 13:54:09.200581,-18689,2025-11-07 13:54:10.173008000
2025-11-07 13:54:09.200581,-1,2025-11-07 13:54:10.180700308
2025-11-07 13:54:09.200581,-77,2025-11-07 13:54:10.188392615
2025-11-07 13:54:09.200581,-26625,2025-11-07 13:54:10.196084923
2025-11-07 13:54:09.200581,-1,2025-11-07 13:54:10.203777231
2025-11-07 13:54:09.200581,-108,2025-11-07 13:54:10.211469538
2025-11-07 13:54:09.200581,-21249,2025-11-07 13:54:10.219161846
2025-11-07 13:54:09.200581,-1,2025-11-07 13:54:10.226854154
2025-11-07 13:54:09.200581,-74,2025-11-07 13:54:10.234546462
2025-11-07 13:54:09.200581,-21249,2025-11-07 13:54:10.242238769
2025-11-07 13:54:09.200581,-1,2025-11-07 13:54:10.249931077
2025-11-07 13:54:09.200581,-86,2025-11-07 13:54:10.257623385
2025-11-07 13:54:09.200581,-27905,2025-11-07 13:54:10.265315692
2025-11-07 13:54:09.200581,-1,2025-11-07 13:54:10.273008000
2025-11-07 13:54:09.200581,-156,2025-11-07 13:54:10.280700308
2025-11-07 13:54:09.200581,9983,2025-11-07 13:54:10.288392615
2025-11-07 13:54:09.200581,0,2025-11-07 13:54:10.296084923
2025-11-07 13:54:09.200581,672,2025-11-07 13:54:10.303777231
2025-11-07 13:54:09.200581,-3840,2025-11-07 13:54:10.311469538
2025-11-07 13:54:09.200581,3,2025-11-07 13:54:10.319161846
2025-11-07 13:54:09.200581,339,2025-11-07 13:54:10.326854154
2025-11-07 13:54:09.200581,-15104,2025-11-07 13:54:10.334546462
2025-11-07 13:54:09.200581,-2,2025-11-07 13:54:10.342238769
2025-11-07 13:54:09.200581,-161,2025-11-07 13:54:10.349931077
2025-11-07 13:54:09.200581,-11265,2025-11-07 13:54:10.357623385
2025-11-07 13:54:09.200581,-1,2025-11-07 13:54:10.365315692
2025-11-07 13:54:09.200581,-226,2025-11-07 13:54:10.373008000
2025-11-07 13:54:09.200581,14847,2025-11-07 13:54:10.380700308
2025-11-07 13:54:09.200581,-1,2025-11-07 13:54:10.388392615
2025-11-07 13:54:09.200581,-120,2025-11-07 13:54:10.396084923
2025-11-07 13:54:09.200581,22783,2025-11-07 13:54:10.403777231
2025-11-07 13:54:09.200581,-1,2025-11-07 13:54:10.411469538
2025-11-07 13:54:09.200581,-168,2025-11-07 13:54:10.419161846
2025-11-07 13:54:09.200581,31487,2025-11-07 13:54:10.426854154
2025-11-07 13:54:09.200581,-1,2025-11-07 13:54:10.434546462
2025-11-07 13:54:09.200581,-139,2025-11-07 13:54:10.442238769
2025-11-07 13:54:09.200581,31999,2025-11-07 13:54:10.449931077
2025-11-07 13:54:09.200581,-1,2025-11-07 13:54:10.457623385
2025-11-07 13:54:09.200581,-110,2025-11-07 13:54:10.465315692
2025-11-07 13:54:09.200581,-30465,2025-11-07 13:54:10.473008000
2025-11-07 13:54:09.200581,-1,2025-11-07 13:54:10.480700308
2025-11-07 13:54:09.200581,-130,2025-11-07 13:54:10.488392615
2025-11-07 13:54:09.200581,-27905,2025-11-07 13:54:10.496084923
2025-11-07 13:54:09.200581,-1,2025-11-07 13:54:10.503777231
2025-11-07 13:54:09.200581,-105,2025-11-07 13:54:10.511469538
2025-11-07 13:54:09.200581,-28673,2025-11-07 13:54:10.519161846
2025-11-07 13:54:09.200581,-1,2025-11-07 13:54:10.526854154
2025-11-07 13:54:09.200581,-110,2025-11-07 13:54:10.534546462
2025-11-07 13:54:09.200581,-27393,2025-11-07 13:54:10.542238769
2025-11-07 13:54:09.200581,-1,2025-11-07 13:54:10.549931077
2025-11-07 13:54:09.200581,-113,2025-11-07 13:54:10.557623385
2025-11-07 13:54:09.200581,-30465,2025-11-07 13:54:10.565315692
2025-11-07 13:54:09.200581,-1,2025-11-07 13:54:10.573008000
2025-11-07 13:54:09.200581,-125,2025-11-07 13:54:10.580700308
2025-11-07 13:54:09.782502,-122,2025-11-07 13:54:10.588392615
2025-11-07 13:54:09.782502,32511,2025-11-07 13:54:10.596084923
2025-11-07 13:54:09.782502,-1,2025-11-07 13:54:10.603777230
2025-11-07 13:54:09.782502,-120,2025-11-07 13:54:10.611469538
2025-11-07 13:54:09.782502,-22529,2025-11-07 13:54:10.619161846
2025-11-07 13:54:09.782502,-1,2025-11-07 13:54:10.626854154
2025-11-07 13:54:09.782502,-98,2025-11-07 13:54:10.634546462
2025-11-07 13:54:09.782502,32511,2025-11-07 13:54:10.642238769
2025-11-07 13:54:09.782502,-1,2025-11-07 13:54:10.649931077
2025-11-07 13:54:09.782502,-137,2025-11-07 13:54:10.657623385
2025-11-07 13:54:09.782502,28927,2025-11-07 13:54:10.665315692
2025-11-07 13:54:09.782502,-1,2025-11-07 13:54:10.673008000
2025-11-07 13:54:09.782502,-146,2025-11-07 13:54:10.680700308
2025-11-07 13:54:09.782502,28927,2025-11-07 13:54:10.688392615
2025-11-07 13:54:09.782502,-1,2025-11-07 13:54:10.696084923
2025-11-07 13:54:09.782502,-154,2025-11-07 13:54:10.703777231
2025-11-07 13:54:09.782502,22783,2025-11-07 13:54:10.711469538
2025-11-07 13:54:09.782502,-1,2025-11-07 13:54:10.719161846
2025-11-07 13:54:09.782502,-154,2025-11-07 13:54:10.726854154
2025-11-07 13:54:09.782502,-32257,2025-11-07 13:54:10.734546462
2025-11-07 13:54:09.782502,-1,2025-11-07 13:54:10.742238769
2025-11-07 13:54:09.782502,-142,2025-11-07 13:54:10.749931077
2025-11-07 13:54:09.782502,23295,2025-11-07 13:54:10.757623385
2025-11-07 13:54:09.782502,-1,2025-11-07 13:54:10.765315692
2025-11-07 13:54:09.782502,-149,2025-11-07 13:54:10.773008000
2025-11-07 13:54:09.782502,28927,2025-11-07 13:54:10.780700308
2025-11-07 13:54:09.782502,-1,2025-11-07 13:54:10.788392615
2025-11-07 13:54:09.782502,-144,2025-11-07 13:54:10.796084923
2025-11-07 13:54:09.782502,30719,2025-11-07 13:54:10.803777231
2025-11-07 13:54:09.782502,-1,2025-11-07 13:54:10.811469538
2025-11-07 13:54:09.782502,-137,2025-11-07 13:54:10.819161846
2025-11-07 13:54:09.782502,32511,2025-11-07 13:54:10.826854154
2025-11-07 13:54:09.782502,-1,2025-11-07 13:54:10.834546462
2025-11-07 13:54:09.782502,-127,2025-11-07 13:54:10.842238769
2025-11-07 13:54:09.782502,31999,2025-11-07 13:54:10.849931077
2025-11-07 13:54:09.782502,-1,2025-11-07 13:54:10.857623385
2025-11-07 13:54:09.782502,-132,2025-11-07 13:54:10.865315692
2025-11-07 13:54:09.782502,29439,2025-11-07 13:54:10.873008000
2025-11-07 13:54:09.782502,-1,2025-11-07 13:54:10.880700308
2025-11-07 13:54:09.782502,-144,2025-11-07 13:54:10.888392615
2025-11-07 13:54:09.782502,28927,2025-11-07 13:54:10.896084923
2025-11-07 13:54:09.782502,-1,2025-11-07 13:54:10.903777231
2025-11-07 13:54:09.782502,-166,2025-11-07 13:54:10.911469538
2025-11-07 13:54:09.782502,21503,2025-11-07 13:54:10.919161846
2025-11-07 13:54:09.782502,-1,2025-11-07 13:54:10.926854154
2025-11-07 13:54:09.782502,-156,2025-11-07 13:54:10.934546462
2025-11-07 13:54:09.782502,25343,2025-11-07 13:54:10.942238769
2025-11-07 13:54:09.782502,-1,2025-11-07 13:54:10.949931077
2025-11-07 13:54:09.782502,-158,2025-11-07 13:54:10.957623385
2025-11-07 13:54:09.782502,-29185,2025-11-07 13:54:10.965315692
2025-11-07 13:54:09.782502,-1,2025-11-07 13:54:10.973008000
2025-11-07 13:54:09.782502,-93,2025-11-07 13:54:10.980700308
2025-11-07 13:54:09.782502,31487,2025-11-07 13:54:10.988392615
2025-11-07 13:54:09.782502,-1,2025-11-07 13:54:10.996084923
2025-11-07 13:54:09.782502,-151,2025-11-07 13:54:11.003777231
2025-11-07 13:54:09.782502,-32257,2025-11-07 13:54:11.011469538
2025-11-07 13:54:09.782502,-1,2025-11-07 13:54:11.019161846
2025-11-07 13:54:09.782502,-122,2025-11-07 13:54:11.026854154
2025-11-07 13:54:09.782502,-31745,2025-11-07 13:54:11.034546462
2025-11-07 13:54:09.782502,-1,2025-11-07 13:54:11.042238769
2025-11-07 13:54:09.782502,-132,2025-11-07 13:54:11.049931077
2025-11-07 13:54:09.782502,22015,2025-11-07 13:54:11.057623385
2025-11-07 13:54:09.782502,-1,2025-11-07 13:54:11.065315692
2025-11-07 13:54:09.782502,-209,2025-11-07 13:54:11.073008000
2025-11-07 13:54:09.782502,-26625,2025-11-07 13:54:11.080700308
2025-11-07 13:54:09.782502,-1,2025-11-07 13:54:11.088392615
2025-11-07 13:54:09.782502,366,2025-11-07 13:54:11.096084923
2025-11-07 13:54:09.782502,11008,2025-11-07 13:54:11.103777231
2025-11-07 13:54:09.782502,3,2025-11-07 13:54:11.111469538
2025-11-07 13:54:09.782502,428,2025-11-07 13:54:11.119161846
2025-11-07 13:54:09.782502,6400,2025-11-07 13:54:11.126854154
2025-11-07 13:54:09.782502,-1,2025-11-07 13:54:11.134546462
2025-11-07 13:54:09.782502,-224,2025-11-07 13:54:11.142238769
2025-11-07 13:54:09.782502,-19457,2025-11-07 13:54:11.149931077
2025-11-07 13:54:09.782502,-1,2025-11-07 13:54:11.157623385
2025-11-07 13:54:09.782502,-216,2025-11-07 13:54:11.165315692
2025-11-07 13:54:09.782502,5375,2025-11-07 13:54:11.173008000
2025-11-07 13:54:09.782502,-1,2025-11-07 13:54:11.180700308
2025-11-07 13:54:09.782502,-156,2025-11-07 13:54:11.188392615
2025-11-07 13:54:09.782502,20223,2025-11-07 13:54:11.196084923
2025-11-07 13:54:09.782502,-1,2025-11-07 13:54:11.203777231
2025-11-07 13:54:09.782502,-187,2025-11-07 13:54:11.211469538
2025-11-07 13:54:09.782502,27135,2025-11-07 13:54:11.219161846
2025-11-07 13:54:09.782502,-1,2025-11-07 13:54:11.226854154
2025-11-07 13:54:09.782502,-149,2025-11-07 13:54:11.234546462
2025-11-07 13:54:09.782502,27647,2025-11-07 13:54:11.242238769
2025-11-07 13:54:09.782502,-1,2025-11-07 13:54:11.249931077
2025-11-07 13:54:09.782502,-127,2025-11-07 13:54:11.257623385
2025-11-07 13:54:09.782502,-29953,2025-11-07 13:54:11.265315692
2025-11-07 13:54:09.782502,-1,2025-11-07 13:54:11.273008000
2025-11-07 13:54:09.782502,-120,2025-11-07 13:54:11.280700308
2025-11-07 13:54:09.782502,-27905,2025-11-07 13:54:11.288392615
2025-11-07 13:54:09.782502,-1,2025-11-07 13:54:11.296084923
2025-11-07 13:54:09.782502,-93,2025-11-07 13:54:11.303777231
2025-11-07 13:54:09.782502,-22529,2025-11-07 13:54:11.311469538
2025-11-07 13:54:09.782502,-1,2025-11-07 13:54:11.319161846
2025-11-07 13:54:09.782502,-84,2025-11-07 13:54:11.326854154
2025-11-07 13:54:09.782502,-18689,2025-11-07 13:54:11.334546462
2025-11-07 13:54:09.782502,-1,2025-11-07 13:54:11.342238769
2025-11-07 13:54:09.782502,-74,2025-11-07 13:54:11.349931077
2025-11-07 13:54:09.782502,-20481,2025-11-07 13:54:11.357623385
2025-11-07 13:54:09.782502,-1,2025-11-07 13:54:11.365315692
2025-11-07 13:54:09.782502,-86,2025-11-07 13:54:11.373008000
2025-11-07 13:54:09.782502,-19969,2025-11-07 13:54:11.380700308
2025-11-07 13:54:09.782502,-1,2025-11-07 13:54:11.388392615
2025-11-07 13:54:09.782502,-77,2025-11-07 13:54:11.396084923
2025-11-07 13:54:09.782502,-19969,2025-11-07 13:54:11.403777231
2025-11-07 13:54:09.782502,-1,2025-11-07 13:54:11.411469538
2025-11-07 13:54:09.782502,-79,2025-11-07 13:54:11.419161846
2025-11-07 13:54:10.322995,-91,2025-11-07 13:54:11.426854154
2025-11-07 13:54:10.322995,-27393,2025-11-07 13:54:11.434546462
2025-11-07 13:54:10.322995,-1,2025-11-07 13:54:11.442238769
2025-11-07 13:54:10.322995,-108,2025-11-07 13:54:11.449931077
2025-11-07 13:54:10.322995,-29953,2025-11-07 13:54:11.457623385
2025-11-07 13:54:10.322995,-1,2025-11-07 13:54:11.465315692
2025-11-07 13:54:10.322995,-144,2025-11-07 13:54:11.473008000
2025-11-07 13:54:10.322995,25343,2025-11-07 13:54:11.480700308
2025-11-07 13:54:10.322995,-1,2025-11-07 13:54:11.488392615
2025-11-07 13:54:10.322995,-151,2025-11-07 13:54:11.496084923
2025-11-07 13:54:10.322995,25855,2025-11-07 13:54:11.503777231
2025-11-07 13:54:10.322995,-1,2025-11-07 13:54:11.511469538
2025-11-07 13:54:10.322995,-161,2025-11-07 13:54:11.519161846
2025-11-07 13:54:10.322995,25855,2025-11-07 13:54:11.526854154
2025-11-07 13:54:10.322995,-1,2025-11-07 13:54:11.534546462
2025-11-07 13:54:10.322995,-158,2025-11-07 13:54:11.542238769
2025-11-07 13:54:10.322995,24575,2025-11-07 13:54:11.549931077
2025-11-07 13:54:10.322995,-1,2025-11-07 13:54:11.557623385
2025-11-07 13:54:10.322995,-149,2025-11-07 13:54:11.565315692
2025-11-07 13:54:10.322995,31487,2025-11-07 13:54:11.573008000
2025-11-07 13:54:10.322995,-1,2025-11-07 13:54:11.580700308
2025-11-07 13:54:10.322995,-127,2025-11-07 13:54:11.588392615
2025-11-07 13:54:10.322995,-32257,2025-11-07 13:54:11.596084923
2025-11-07 13:54:10.322995,-1,2025-11-07 13:54:11.603777230
2025-11-07 13:54:10.322995,-132,2025-11-07 13:54:11.611469538
2025-11-07 13:54:10.322995,32511,2025-11-07 13:54:11.619161846
2025-11-07 13:54:10.322995,-1,2025-11-07 13:54:11.626854154
2025-11-07 13:54:10.322995,-125,2025-11-07 13:54:11.634546462
2025-11-07 13:54:10.322995,-30465,2025-11-07 13:54:11.642238769
2025-11-07 13:54:10.322995,-1,2025-11-07 13:54:11.649931077
2025-11-07 13:54:10.322995,-127,2025-11-07 13:54:11.657623385
2025-11-07 13:54:10.322995,29439,2025-11-07 13:54:11.665315692
2025-11-07 13:54:10.322995,-1,2025-11-07 13:54:11.673008000
2025-11-07 13:54:10.322995,-139,2025-11-07 13:54:11.680700308
2025-11-07 13:54:10.322995,30719,2025-11-07 13:54:11.688392615
2025-11-07 13:54:10.322995,-1,2025-11-07 13:54:11.696084923
2025-11-07 13:54:10.322995,-146,2025-11-07 13:54:11.703777231
2025-11-07 13:54:10.322995,25855,2025-11-07 13:54:11.711469538
2025-11-07 13:54:10.322995,-1,2025-11-07 13:54:11.719161846
2025-11-07 13:54:10.322995,-156,2025-11-07 13:54:11.726854154
2025-11-07 13:54:10.322995,28927,2025-11-07 13:54:11.734546462
2025-11-07 13:54:10.322995,-1,2025-11-07 13:54:11.742238769
2025-11-07 13:54:10.322995,-118,2025-11-07 13:54:11.749931077
2025-11-07 13:54:10.322995,-22529,2025-11-07 13:54:11.757623385
2025-11-07 13:54:10.322995,-1,2025-11-07 13:54:11.765315692
2025-11-07 13:54:10.322995,-93,2025-11-07 13:54:11.773008000
2025-11-07 13:54:10.322995,-32257,2025-11-07 13:54:11.780700308
2025-11-07 13:54:10.322995,-1,2025-11-07 13:54:11.788392615
2025-11-07 13:54:10.322995,-122,2025-11-07 13:54:11.796084923
2025-11-07 13:54:10.322995,-24321,2025-11-07 13:54:11.803777231
2025-11-07 13:54:10.322995,-1,2025-11-07 13:54:11.811469538
2025-11-07 13:54:10.322995,-98,2025-11-07 13:54:11.819161846
2025-11-07 13:54:10.322995,-28673,2025-11-07 13:54:11.826854154
2025-11-07 13:54:10.322995,-1,2025-11-07 13:54:11.834546462
2025-11-07 13:54:10.322995,-120,2025-11-07 13:54:11.842238769
2025-11-07 13:54:10.322995,27647,2025-11-07 13:54:11.849931077
2025-11-07 13:54:10.322995,-1,2025-11-07 13:54:11.857623385
2025-11-07 13:54:10.322995,-149,2025-11-07 13:54:11.865315692
2025-11-07 13:54:10.322995,-13569,2025-11-07 13:54:11.873008000
2025-11-07 13:54:10.322995,0,2025-11-07 13:54:11.880700308
2025-11-07 13:54:10.322995,840,2025-11-07 13:54:11.888392615
2025-11-07 13:54:10.322995,10496,2025-11-07 13:54:11.896084923
2025-11-07 13:54:10.322995,3,2025-11-07 13:54:11.903777231
2025-11-07 13:54:10.322995,4,2025-11-07 13:54:11.911469538
2025-11-07 13:54:10.322995,-17664,2025-11-07 13:54:11.919161846
2025-11-07 13:54:10.322995,-2,2025-11-07 13:54:11.926854154
2025-11-07 13:54:10.322995,-101,2025-11-07 13:54:11.934546462
2025-11-07 13:54:10.322995,31999,2025-11-07 13:54:11.942238769
2025-11-07 13:54:10.322995,-1,2025-11-07 13:54:11.949931077
2025-11-07 13:54:10.322995,-252,2025-11-07 13:54:11.957623385
2025-11-07 13:54:10.322995,20223,2025-11-07 13:54:11.965315692
2025-11-07 13:54:10.322995,-1,2025-11-07 13:54:11.973008000
2025-11-07 13:54:10.322995,-146,2025-11-07 13:54:11.980700308
2025-11-07 13:54:10.322995,16639,2025-11-07 13:54:11.988392615
2025-11-07 13:54:10.322995,-1,2025-11-07 13:54:11.996084923
2025-11-07 13:54:10.322995,-185,2025-11-07 13:54:12.003777231
2025-11-07 13:54:10.322995,24063,2025-11-07 13:54:12.011469538
2025-11-07 13:54:10.322995,-1,2025-11-07 13:54:12.019161846
2025-11-07 13:54:10.322995,-158,2025-11-07 13:54:12.026854154
2025-11-07 13:54:10.322995,30207,2025-11-07 13:54:12.034546462
2025-11-07 13:54:10.322995,-1,2025-11-07 13:54:12.042238769
2025-11-07 13:54:10.322995,-134,2025-11-07 13:54:12.049931077
2025-11-07 13:54:10.322995,29439,2025-11-07 13:54:12.057623385
2025-11-07 13:54:10.322995,-1,2025-11-07 13:54:12.065315692
2025-11-07 13:54:10.322995,-134,2025-11-07 13:54:12.073008000
2025-11-07 13:54:10.322995,32511,2025-11-07 13:54:12.080700308
2025-11-07 13:54:10.322995,-1,2025-11-07 13:54:12.088392615
2025-11-07 13:54:10.322995,-122,2025-11-07 13:54:12.096084923
2025-11-07 13:54:10.322995,-30977,2025-11-07 13:54:12.103777231
2025-11-07 13:54:10.322995,-1,2025-11-07 13:54:12.111469538
2025-11-07 13:54:10.322995,-127,2025-11-07 13:54:12.119161846
2025-11-07 13:54:10.322995,-31745,2025-11-07 13:54:12.126854154
2025-11-07 13:54:10.322995,-1,2025-11-07 13:54:12.134546462
2025-11-07 13:54:10.322995,-125,2025-11-07 13:54:12.142238769
2025-11-07 13:54:10.322995,-32257,2025-11-07 13:54:12.149931077
2025-11-07 13:54:10.322995,-1,2025-11-07 13:54:12.157623385
2025-11-07 13:54:10.322995,-122,2025-11-07 13:54:12.165315692
2025-11-07 13:54:10.322995,32511,2025-11-07 13:54:12.173008000
2025-11-07 13:54:10.322995,-1,2025-11-07 13:54:12.180700308
2025-11-07 13:54:10.322995,-137,2025-11-07 13:54:12.188392615
2025-11-07 13:54:10.322995,31999,2025-11-07 13:54:12.196084923
2025-11-07 13:54:10.322995,-1,2025-11-07 13:54:12.203777231
2025-11-07 13:54:10.322995,-122,2025-11-07 13:54:12.211469538
2025-11-07 13:54:10.322995,-29953,2025-11-07 13:54:12.219161846
2025-11-07 13:54:10.322995,-1,2025-11-07 13:54:12.226854154
2025-11-07 13:54:10.322995,-120,2025-11-07 13:54:12.234546462
2025-11-07 13:54:10.322995,-31745,2025-11-07 13:54:12.242238769
2025-11-07 13:54:10.322995,-1,2025-11-07 13:54:12.249931077
2025-11-07 13:54:10.322995,-125,2025-11-07 13:54:12.257623385
2025-11-07 13:54:10.865060,-134,2025-11-07 13:54:12.265315692
2025-11-07 13:54:10.865060,30207,2025-11-07 13:54:12.273008000
2025-11-07 13:54:10.865060,-1,2025-11-07 13:54:12.280700308
2025-11-07 13:54:10.865060,-127,2025-11-07 13:54:12.288392615
2025-11-07 13:54:10.865060,-30465,2025-11-07 13:54:12.296084923
2025-11-07 13:54:10.865060,-1,2025-11-07 13:54:12.303777231
2025-11-07 13:54:10.865060,-127,2025-11-07 13:54:12.311469538
2025-11-07 13:54:10.865060,-32257,2025-11-07 13:54:12.319161846
2025-11-07 13:54:10.865060,-1,2025-11-07 13:54:12.326854154
2025-11-07 13:54:10.865060,-127,2025-11-07 13:54:12.334546462
2025-11-07 13:54:10.865060,31487,2025-11-07 13:54:12.342238769
2025-11-07 13:54:10.865060,-1,2025-11-07 13:54:12.349931077
2025-11-07 13:54:10.865060,-122,2025-11-07 13:54:12.357623385
2025-11-07 13:54:10.865060,-24321,2025-11-07 13:54:12.365315692
2025-11-07 13:54:10.865060,-1,2025-11-07 13:54:12.373008000
2025-11-07 13:54:10.865060,-89,2025-11-07 13:54:12.380700308
2025-11-07 13:54:10.865060,-23553,2025-11-07 13:54:12.388392615
2025-11-07 13:54:10.865060,-1,2025-11-07 13:54:12.396084923
2025-11-07 13:54:10.865060,-89,2025-11-07 13:54:12.403777231
2025-11-07 13:54:10.865060,-22529,2025-11-07 13:54:12.411469538
2025-11-07 13:54:10.865060,-1,2025-11-07 13:54:12.419161846
2025-11-07 13:54:10.865060,-96,2025-11-07 13:54:12.426854154
2025-11-07 13:54:10.865060,-26113,2025-11-07 13:54:12.434546462
2025-11-07 13:54:10.865060,-1,2025-11-07 13:54:12.442238769
2025-11-07 13:54:10.865060,-110,2025-11-07 13:54:12.449931077
2025-11-07 13:54:10.865060,-30977,2025-11-07 13:54:12.457623385
2025-11-07 13:54:10.865060,-1,2025-11-07 13:54:12.465315692
2025-11-07 13:54:10.865060,-125,2025-11-07 13:54:12.473008000
2025-11-07 13:54:10.865060,-30465,2025-11-07 13:54:12.480700308
2025-11-07 13:54:10.865060,-1,2025-11-07 13:54:12.488392615
2025-11-07 13:54:10.865060,-118,2025-11-07 13:54:12.496084923
2025-11-07 13:54:10.865060,-19457,2025-11-07 13:54:12.503777231
2025-11-07 13:54:10.865060,-1,2025-11-07 13:54:12.511469538
2025-11-07 13:54:10.865060,-40,2025-11-07 13:54:12.519161846
2025-11-07 13:54:10.865060,-15105,2025-11-07 13:54:12.526854154
2025-11-07 13:54:10.865060,-1,2025-11-07 13:54:12.534546462
2025-11-07 13:54:10.865060,-79,2025-11-07 13:54:12.542238769
2025-11-07 13:54:10.865060,-16385,2025-11-07 13:54:12.549931077
2025-11-07 13:54:10.865060,-1,2025-11-07 13:54:12.557623385
2025-11-07 13:54:10.865060,-60,2025-11-07 13:54:12.565315692
2025-11-07 13:54:10.865060,-16385,2025-11-07 13:54:12.573008000
2025-11-07 13:54:10.865060,-1,2025-11-07 13:54:12.580700308
2025-11-07 13:54:10.865060,-67,2025-11-07 13:54:12.588392615
2025-11-07 13:54:10.865060,-19969,2025-11-07 13:54:12.596084923
2025-11-07 13:54:10.865060,-1,2025-11-07 13:54:12.603777230
2025-11-07 13:54:10.865060,-113,2025-11-07 13:54:12.611469538
2025-11-07 13:54:10.865060,29439,2025-11-07 13:54:12.619161846
2025-11-07 13:54:10.865060,-1,2025-11-07 13:54:12.626854154
2025-11-07 13:54:10.865060,74,2025-11-07 13:54:12.634546462
2025-11-07 13:54:10.865060,-19200,2025-11-07 13:54:12.642238769
2025-11-07 13:54:10.865060,2,2025-11-07 13:54:12.649931077
2025-11-07 13:54:10.865060,958,2025-11-07 13:54:12.657623385
2025-11-07 13:54:10.865060,7168,2025-11-07 13:54:12.665315692
2025-11-07 13:54:10.865060,1,2025-11-07 13:54:12.673008000
2025-11-07 13:54:10.865060,-301,2025-11-07 13:54:12.680700308
2025-11-07 13:54:10.865060,30207,2025-11-07 13:54:12.688392615
2025-11-07 13:54:10.865060,-1,2025-11-07 13:54:12.696084923
2025-11-07 13:54:10.865060,-38,2025-11-07 13:54:12.703777231
2025-11-07 13:54:10.865060,13567,2025-11-07 13:54:12.711469538
2025-11-07 13:54:10.865060,-1,2025-11-07 13:54:12.719161846
2025-11-07 13:54:10.865060,-199,2025-11-07 13:54:12.726854154
2025-11-07 13:54:10.865060,31487,2025-11-07 13:54:12.734546462
2025-11-07 13:54:10.865060,-1,2025-11-07 13:54:12.742238769
2025-11-07 13:54:10.865060,-168,2025-11-07 13:54:12.749931077
2025-11-07 13:54:10.865060,24575,2025-11-07 13:54:12.757623385
2025-11-07 13:54:10.865060,-1,2025-11-07 13:54:12.765315692
2025-11-07 13:54:10.865060,-118,2025-11-07 13:54:12.773008000
2025-11-07 13:54:10.865060,-30977,2025-11-07 13:54:12.780700308
2025-11-07 13:54:10.865060,-1,2025-11-07 13:54:12.788392615
2025-11-07 13:54:10.865060,-134,2025-11-07 13:54:12.796084923
2025-11-07 13:54:10.865060,31487,2025-11-07 13:54:12.803777231
2025-11-07 13:54:10.865060,-1,2025-11-07 13:54:12.811469538
2025-11-07 13:54:10.865060,-134,2025-11-07 13:54:12.819161846
2025-11-07 13:54:10.865060,32511,2025-11-07 13:54:12.826854154
2025-11-07 13:54:10.865060,-1,2025-11-07 13:54:12.834546462
2025-11-07 13:54:10.865060,-127,2025-11-07 13:54:12.842238769
2025-11-07 13:54:10.865060,-30977,2025-11-07 13:54:12.849931077
2025-11-07 13:54:10.865060,-1,2025-11-07 13:54:12.857623385
2025-11-07 13:54:10.865060,-110,2025-11-07 13:54:12.865315692
2025-11-07 13:54:10.865060,-29185,2025-11-07 13:54:12.873008000
2025-11-07 13:54:10.865060,-1,2025-11-07 13:54:12.880700308
2025-11-07 13:54:10.865060,-130,2025-11-07 13:54:12.888392615
2025-11-07 13:54:10.865060,-32257,2025-11-07 13:54:12.896084923
2025-11-07 13:54:10.865060,-1,2025-11-07 13:54:12.903777231
2025-11-07 13:54:10.865060,-134,2025-11-07 13:54:12.911469538
2025-11-07 13:54:10.865060,25343,2025-11-07 13:54:12.919161846
2025-11-07 13:54:10.865060,-1,2025-11-07 13:54:12.926854154
2025-11-07 13:54:10.865060,-163,2025-11-07 13:54:12.934546462
2025-11-07 13:54:10.865060,31487,2025-11-07 13:54:12.942238769
2025-11-07 13:54:10.865060,-1,2025-11-07 13:54:12.949931077
2025-11-07 13:54:10.865060,-118,2025-11-07 13:54:12.957623385
2025-11-07 13:54:10.865060,-30977,2025-11-07 13:54:12.965315692
2025-11-07 13:54:10.865060,-1,2025-11-07 13:54:12.973008000
2025-11-07 13:54:10.865060,-127,2025-11-07 13:54:12.980700308
2025-11-07 13:54:10.865060,31487,2025-11-07 13:54:12.988392615
2025-11-07 13:54:10.865060,-1,2025-11-07 13:54:12.996084923
2025-11-07 13:54:10.865060,-132,2025-11-07 13:54:13.003777231
2025-11-07 13:54:10.865060,-29953,2025-11-07 13:54:13.011469538
2025-11-07 13:54:10.865060,-1,2025-11-07 13:54:13.019161846
2025-11-07 13:54:10.865060,-127,2025-11-07 13:54:13.026854154
2025-11-07 13:54:10.865060,29439,2025-11-07 13:54:13.034546462
2025-11-07 13:54:10.865060,-1,2025-11-07 13:54:13.042238769
2025-11-07 13:54:10.865060,-144,2025-11-07 13:54:13.049931077
2025-11-07 13:54:10.865060,28927,2025-11-07 13:54:13.057623385
2025-11-07 13:54:10.865060,-1,2025-11-07 13:54:13.065315692
2025-11-07 13:54:10.865060,-127,2025-11-07 13:54:13.073008000
2025-11-07 13:54:10.865060,-31745,2025-11-07 13:54:13.080700308
2025-11-07 13:54:10.865060,-1,2025-11-07 13:54:13.088392615
2025-11-07 13:54:10.865060,-144,2025-11-07 13:54:13.096084923
2025-11-07 13:54:11.449863,-134,2025-11-07 13:54:13.103777231
2025-11-07 13:54:11.449863,-26625,2025-11-07 13:54:13.111469538
2025-11-07 13:54:11.449863,-1,2025-11-07 13:54:13.119161846
2025-11-07 13:54:11.449863,-118,2025-11-07 13:54:13.126854154
2025-11-07 13:54:11.449863,30719,2025-11-07 13:54:13.134546462
2025-11-07 13:54:11.449863,-1,2025-11-07 13:54:13.142238769
2025-11-07 13:54:11.449863,-130,2025-11-07 13:54:13.149931077
2025-11-07 13:54:11.449863,-30465,2025-11-07 13:54:13.157623385
2025-11-07 13:54:11.449863,-1,2025-11-07 13:54:13.165315692
2025-11-07 13:54:11.449863,-110,2025-11-07 13:54:13.173008000
2025-11-07 13:54:11.449863,-26625,2025-11-07 13:54:13.180700308
2025-11-07 13:54:11.449863,-1,2025-11-07 13:54:13.188392615
2025-11-07 13:54:11.449863,-122,2025-11-07 13:54:13.196084923
2025-11-07 13:54:11.449863,28927,2025-11-07 13:54:13.203777231
2025-11-07 13:54:11.449863,-1,2025-11-07 13:54:13.211469538
2025-11-07 13:54:11.449863,-144,2025-11-07 13:54:13.219161846
2025-11-07 13:54:11.449863,32511,2025-11-07 13:54:13.226854154
2025-11-07 13:54:11.449863,-1,2025-11-07 13:54:13.234546462
2025-11-07 13:54:11.449863,-113,2025-11-07 13:54:13.242238769
2025-11-07 13:54:11.449863,-24321,2025-11-07 13:54:13.249931077
2025-11-07 13:54:11.449863,-1,2025-11-07 13:54:13.257623385
2025-11-07 13:54:11.449863,-77,2025-11-07 13:54:13.265315692
2025-11-07 13:54:11.449863,-19969,2025-11-07 13:54:13.273008000
2025-11-07 13:54:11.449863,-1,2025-11-07 13:54:13.280700308
2025-11-07 13:54:11.449863,-103,2025-11-07 13:54:13.288392615
2025-11-07 13:54:11.449863,-26625,2025-11-07 13:54:13.296084923
2025-11-07 13:54:11.449863,-1,2025-11-07 13:54:13.303777231
2025-11-07 13:54:11.449863,-81,2025-11-07 13:54:13.311469538
2025-11-07 13:54:11.449863,-19969,2025-11-07 13:54:13.319161846
2025-11-07 13:54:11.449863,-1,2025-11-07 13:54:13.326854154
2025-11-07 13:54:11.449863,-93,2025-11-07 13:54:13.334546462
2025-11-07 13:54:11.449863,-23041,2025-11-07 13:54:13.342238769
2025-11-07 13:54:11.449863,-1,2025-11-07 13:54:13.349931077
2025-11-07 13:54:11.449863,-122,2025-11-07 13:54:13.357623385
2025-11-07 13:54:11.449863,18431,2025-11-07 13:54:13.365315692
2025-11-07 13:54:11.449863,-1,2025-11-07 13:54:13.373008000
2025-11-07 13:54:11.449863,40,2025-11-07 13:54:13.380700308
2025-11-07 13:54:11.449863,-17408,2025-11-07 13:54:13.388392615
2025-11-07 13:54:11.449863,2,2025-11-07 13:54:13.396084923
2025-11-07 13:54:11.449863,958,2025-11-07 13:54:13.403777231
2025-11-07 13:54:11.449863,-256,2025-11-07 13:54:13.411469538
2025-11-07 13:54:11.449863,0,2025-11-07 13:54:13.419161846
2025-11-07 13:54:11.449863,-303,2025-11-07 13:54:13.426854154
2025-11-07 13:54:11.449863,32511,2025-11-07 13:54:13.434546462
2025-11-07 13:54:11.449863,-1,2025-11-07 13:54:13.442238769
2025-11-07 13:54:11.449863,-57,2025-11-07 13:54:13.449931077
2025-11-07 13:54:11.449863,14079,2025-11-07 13:54:13.457623385
2025-11-07 13:54:11.449863,-1,2025-11-07 13:54:13.465315692
2025-11-07 13:54:11.449863,-158,2025-11-07 13:54:13.473008000
2025-11-07 13:54:11.449863,-27905,2025-11-07 13:54:13.480700308
2025-11-07 13:54:11.449863,-1,2025-11-07 13:54:13.488392615
2025-11-07 13:54:11.449863,-154,2025-11-07 13:54:13.496084923
2025-11-07 13:54:11.449863,29439,2025-11-07 13:54:13.503777231
2025-11-07 13:54:11.449863,-1,2025-11-07 13:54:13.511469538
2025-11-07 13:54:11.449863,-98,2025-11-07 13:54:13.519161846
2025-11-07 13:54:11.449863,-26113,2025-11-07 13:54:13.526854154
2025-11-07 13:54:11.449863,-1,2025-11-07 13:54:13.534546462
2025-11-07 13:54:11.449863,-118,2025-11-07 13:54:13.542238769
2025-11-07 13:54:11.449863,-25601,2025-11-07 13:54:13.549931077
2025-11-07 13:54:11.449863,-1,2025-11-07 13:54:13.557623385
2025-11-07 13:54:11.449863,-84,2025-11-07 13:54:13.565315692
2025-11-07 13:54:11.449863,-22529,2025-11-07 13:54:13.573008000
2025-11-07 13:54:11.449863,-1,2025-11-07 13:54:13.580700308
2025-11-07 13:54:11.449863,-93,2025-11-07 13:54:13.588392615
2025-11-07 13:54:11.449863,-21761,2025-11-07 13:54:13.596084923
2025-11-07 13:54:11.449863,-1,2025-11-07 13:54:13.603777230
2025-11-07 13:54:11.449863,-77,2025-11-07 13:54:13.611469538
2025-11-07 13:54:11.449863,-20481,2025-11-07 13:54:13.619161846
2025-11-07 13:54:11.449863,-1,2025-11-07 13:54:13.626854154
2025-11-07 13:54:11.449863,-96,2025-11-07 13:54:13.634546462
2025-11-07 13:54:11.449863,-21761,2025-11-07 13:54:13.642238769
2025-11-07 13:54:11.449863,-1,2025-11-07 13:54:13.649931077
2025-11-07 13:54:11.449863,-81,2025-11-07 13:54:13.657623385
2025-11-07 13:54:11.449863,-24833,2025-11-07 13:54:13.665315692
2025-11-07 13:54:11.449863,-1,2025-11-07 13:54:13.673008000
2025-11-07 13:54:11.449863,-86,2025-11-07 13:54:13.680700308
2025-11-07 13:54:11.449863,-18689,2025-11-07 13:54:13.688392615
2025-11-07 13:54:11.449863,-1,2025-11-07 13:54:13.696084923
2025-11-07 13:54:11.449863,-86,2025-11-07 13:54:13.703777231
2025-11-07 13:54:11.449863,-25601,2025-11-07 13:54:13.711469538
2025-11-07 13:54:11.449863,-1,2025-11-07 13:54:13.719161846
2025-11-07 13:54:11.449863,-96,2025-11-07 13:54:13.726854154
2025-11-07 13:54:11.449863,-22529,2025-11-07 13:54:13.734546462
2025-11-07 13:54:11.449863,-1,2025-11-07 13:54:13.742238769
2025-11-07 13:54:11.449863,-93,2025-11-07 13:54:13.749931077
2025-11-07 13:54:11.449863,-26625,2025-11-07 13:54:13.757623385
2025-11-07 13:54:11.449863,-1,2025-11-07 13:54:13.765315692
2025-11-07 13:54:11.449863,-115,2025-11-07 13:54:13.773008000
2025-11-07 13:54:11.449863,-30977,2025-11-07 13:54:13.780700308
2025-11-07 13:54:11.449863,-1,2025-11-07 13:54:13.788392615
2025-11-07 13:54:11.449863,-113,2025-11-07 13:54:13.796084923
2025-11-07 13:54:11.449863,-23553,2025-11-07 13:54:13.803777231
2025-11-07 13:54:11.449863,-1,2025-11-07 13:54:13.811469538
2025-11-07 13:54:11.449863,-105,2025-11-07 13:54:13.819161846
2025-11-07 13:54:11.449863,-31745,2025-11-07 13:54:13.826854154
2025-11-07 13:54:11.449863,-1,2025-11-07 13:54:13.834546462
2025-11-07 13:54:11.449863,-110,2025-11-07 13:54:13.842238769
2025-11-07 13:54:11.449863,-21761,2025-11-07 13:54:13.849931077
2025-11-07 13:54:11.449863,-1,2025-11-07 13:54:13.857623385
2025-11-07 13:54:11.449863,-89,2025-11-07 13:54:13.865315692
2025-11-07 13:54:11.449863,-26113,2025-11-07 13:54:13.873008000
2025-11-07 13:54:11.449863,-1,2025-11-07 13:54:13.880700308
2025-11-07 13:54:11.449863,-101,2025-11-07 13:54:13.888392615
2025-11-07 13:54:11.449863,-26625,2025-11-07 13:54:13.896084923
2025-11-07 13:54:11.449863,-1,2025-11-07 13:54:13.903777231
2025-11-07 13:54:11.449863,-118,2025-11-07 13:54:13.911469538
2025-11-07 13:54:11.449863,-27905,2025-11-07 13:54:13.919161846
2025-11-07 13:54:11.449863,-1,2025-11-07 13:54:13.926854154
2025-11-07 13:54:11.449863,-98,2025-11-07 13:54:13.934546462
2025-11-07 13:54:12.034918,-108,2025-11-07 13:54:13.942238769
2025-11-07 13:54:12.034918,30207,2025-11-07 13:54:13.949931077
2025-11-07 13:54:12.034918,-1,2025-11-07 13:54:13.957623385
2025-11-07 13:54:12.034918,-161,2025-11-07 13:54:13.965315692
2025-11-07 13:54:12.034918,28927,2025-11-07 13:54:13.973008000
2025-11-07 13:54:12.034918,-1,2025-11-07 13:54:13.980700308
2025-11-07 13:54:12.034918,-125,2025-11-07 13:54:13.988392615
2025-11-07 13:54:12.034918,-26113,2025-11-07 13:54:13.996084923
2025-11-07 13:54:12.034918,-1,2025-11-07 13:54:14.003777231
2025-11-07 13:54:12.034918,-69,2025-11-07 13:54:14.011469538
2025-11-07 13:54:12.034918,-20481,2025-11-07 13:54:14.019161846
2025-11-07 13:54:12.034918,-1,2025-11-07 13:54:14.026854154
2025-11-07 13:54:12.034918,-125,2025-11-07 13:54:14.034546462
2025-11-07 13:54:12.034918,-26625,2025-11-07 13:54:14.042238769
2025-11-07 13:54:12.034918,-1,2025-11-07 13:54:14.049931077
2025-11-07 13:54:12.034918,-60,2025-11-07 13:54:14.057623385
2025-11-07 13:54:12.034918,-15617,2025-11-07 13:54:14.065315692
2025-11-07 13:54:12.034918,-1,2025-11-07 13:54:14.073008000
2025-11-07 13:54:12.034918,-86,2025-11-07 13:54:14.080700308
2025-11-07 13:54:12.034918,-27393,2025-11-07 13:54:14.088392615
2025-11-07 13:54:12.034918,-1,2025-11-07 13:54:14.096084923
2025-11-07 13:54:12.034918,-151,2025-11-07 13:54:14.103777231
2025-11-07 13:54:12.034918,24575,2025-11-07 13:54:14.111469538
2025-11-07 13:54:12.034918,-1,2025-11-07 13:54:14.119161846
2025-11-07 13:54:12.034918,151,2025-11-07 13:54:14.126854154
2025-11-07 13:54:12.034918,512,2025-11-07 13:54:14.134546462
2025-11-07 13:54:12.034918,3,2025-11-07 13:54:14.142238769
2025-11-07 13:54:12.034918,819,2025-11-07 13:54:14.149931077
2025-11-07 13:54:12.034918,18944,2025-11-07 13:54:14.157623385
2025-11-07 13:54:12.034918,0,2025-11-07 13:54:14.165315692
2025-11-07 13:54:12.034918,-303,2025-11-07 13:54:14.173008000
2025-11-07 13:54:12.034918,-21761,2025-11-07 13:54:14.180700308
2025-11-07 13:54:12.034918,-1,2025-11-07 13:54:14.188392615
2025-11-07 13:54:12.034918,-89,2025-11-07 13:54:14.196084923
2025-11-07 13:54:12.034918,3071,2025-11-07 13:54:14.203777231
2025-11-07 13:54:12.034918,-1,2025-11-07 13:54:14.211469538
2025-11-07 13:54:12.034918,-190,2025-11-07 13:54:14.219161846
2025-11-07 13:54:12.034918,32511,2025-11-07 13:54:14.226854154
2025-11-07 13:54:12.034918,-1,2025-11-07 13:54:14.234546462
2025-11-07 13:54:12.034918,-166,2025-11-07 13:54:14.242238769
2025-11-07 13:54:12.034918,22015,2025-11-07 13:54:14.249931077
2025-11-07 13:54:12.034918,-1,2025-11-07 13:54:14.257623385
2025-11-07 13:54:12.034918,-142,2025-11-07 13:54:14.265315692
2025-11-07 13:54:12.034918,32511,2025-11-07 13:54:14.273008000
2025-11-07 13:54:12.034918,-1,2025-11-07 13:54:14.280700308
2025-11-07 13:54:12.034918,-137,2025-11-07 13:54:14.288392615
2025-11-07 13:54:12.034918,30207,2025-11-07 13:54:14.296084923
2025-11-07 13:54:12.034918,-1,2025-11-07 13:54:14.303777231
2025-11-07 13:54:12.034918,-125,2025-11-07 13:54:14.311469538
2025-11-07 13:54:12.034918,-30977,2025-11-07 13:54:14.319161846
2025-11-07 13:54:12.034918,-1,2025-11-07 13:54:14.326854154
2025-11-07 13:54:12.034918,-132,2025-11-07 13:54:14.334546462
2025-11-07 13:54:12.034918,31487,2025-11-07 13:54:14.342238769
2025-11-07 13:54:12.034918,-1,2025-11-07 13:54:14.349931077
2025-11-07 13:54:12.034918,-142,2025-11-07 13:54:14.357623385
2025-11-07 13:54:12.034918,31487,2025-11-07 13:54:14.365315692
2025-11-07 13:54:12.034918,-1,2025-11-07 13:54:14.373008000
2025-11-07 13:54:12.034918,-115,2025-11-07 13:54:14.380700308
2025-11-07 13:54:12.034918,-32257,2025-11-07 13:54:14.388392615
2025-11-07 13:54:12.034918,-1,2025-11-07 13:54:14.396084923
2025-11-07 13:54:12.034918,-151,2025-11-07 13:54:14.403777231
2025-11-07 13:54:12.034918,27135,2025-11-07 13:54:14.411469538
2025-11-07 13:54:12.034918,-1,2025-11-07 13:54:14.419161846
2025-11-07 13:54:12.034918,-137,2025-11-07 13:54:14.426854154
2025-11-07 13:54:12.034918,31487,2025-11-07 13:54:14.434546462
2025-11-07 13:54:12.034918,-1,2025-11-07 13:54:14.442238769
2025-11-07 13:54:12.034918,-158,2025-11-07 13:54:14.449931077
2025-11-07 13:54:12.034918,18943,2025-11-07 13:54:14.457623385
2025-11-07 13:54:12.034918,-1,2025-11-07 13:54:14.465315692
2025-11-07 13:54:12.034918,-180,2025-11-07 13:54:14.473008000
2025-11-07 13:54:12.034918,25343,2025-11-07 13:54:14.480700308
2025-11-07 13:54:12.034918,-1,2025-11-07 13:54:14.488392615
2025-11-07 13:54:12.034918,-146,2025-11-07 13:54:14.496084923
2025-11-07 13:54:12.034918,23295,2025-11-07 13:54:14.503777231
2025-11-07 13:54:12.034918,-1,2025-11-07 13:54:14.511469538
2025-11-07 13:54:12.034918,-192,2025-11-07 13:54:14.519161846
2025-11-07 13:54:12.034918,15359,2025-11-07 13:54:14.526854154
2025-11-07 13:54:12.034918,-1,2025-11-07 13:54:14.534546462
2025-11-07 13:54:12.034918,-183,2025-11-07 13:54:14.542238769
2025-11-07 13:54:12.034918,21503,2025-11-07 13:54:14.549931077
2025-11-07 13:54:12.034918,-1,2025-11-07 13:54:14.557623385
2025-11-07 13:54:12.034918,-178,2025-11-07 13:54:14.565315692
2025-11-07 13:54:12.034918,17919,2025-11-07 13:54:14.573008000
2025-11-07 13:54:12.034918,-1,2025-11-07 13:54:14.580700308
2025-11-07 13:54:12.034918,-190,2025-11-07 13:54:14.588392615
2025-11-07 13:54:12.034918,17919,2025-11-07 13:54:14.596084923
2025-11-07 13:54:12.034918,-1,2025-11-07 13:54:14.603777230
2025-11-07 13:54:12.034918,-192,2025-11-07 13:54:14.611469538
2025-11-07 13:54:12.034918,15359,2025-11-07 13:54:14.619161846
2025-11-07 13:54:12.034918,-1,2025-11-07 13:54:14.626854154
2025-11-07 13:54:12.034918,-207,2025-11-07 13:54:14.634546462
2025-11-07 13:54:12.034918,11775,2025-11-07 13:54:14.642238769
2025-11-07 13:54:12.034918,-1,2025-11-07 13:54:14.649931077
2025-11-07 13:54:12.034918,-211,2025-11-07 13:54:14.657623385
2025-11-07 13:54:12.034918,14847,2025-11-07 13:54:14.665315692
2025-11-07 13:54:12.034918,-1,2025-11-07 13:54:14.673008000
2025-11-07 13:54:12.034918,-195,2025-11-07 13:54:14.680700308
2025-11-07 13:54:12.034918,11775,2025-11-07 13:54:14.688392615
2025-11-07 13:54:12.034918,-1,2025-11-07 13:54:14.696084923
2025-11-07 13:54:12.034918,-224,2025-11-07 13:54:14.703777231
2025-11-07 13:54:12.034918,9215,2025-11-07 13:54:14.711469538
2025-11-07 13:54:12.034918,-1,2025-11-07 13:54:14.719161846
2025-11-07 13:54:12.034918,-219,2025-11-07 13:54:14.726854154
2025-11-07 13:54:12.034918,12287,2025-11-07 13:54:14.734546462
2025-11-07 13:54:12.034918,-1,2025-11-07 13:54:14.742238769
2025-11-07 13:54:12.034918,-190,2025-11-07 13:54:14.749931077
2025-11-07 13:54:12.034918,19711,2025-11-07 13:54:14.757623385
2025-11-07 13:54:12.034918,-1,2025-11-07 13:54:14.765315692
2025-11-07 13:54:12.034918,-180,2025-11-07 13:54:14.773008000
2025-11-07 13:54:12.574879,-178,2025-11-07 13:54:14.780700308
2025-11-07 13:54:12.574879,20991,2025-11-07 13:54:14.788392615
2025-11-07 13:54:12.574879,-1,2025-11-07 13:54:14.796084923
2025-11-07 13:54:12.574879,-190,2025-11-07 13:54:14.803777231
2025-11-07 13:54:12.574879,15359,2025-11-07 13:54:14.811469538
2025-11-07 13:54:12.574879,-1,2025-11-07 13:54:14.819161846
2025-11-07 13:54:12.574879,-166,2025-11-07 13:54:14.826854154
2025-11-07 13:54:12.574879,24063,2025-11-07 13:54:14.834546462
2025-11-07 13:54:12.574879,-1,2025-11-07 13:54:14.842238769
2025-11-07 13:54:12.574879,-267,2025-11-07 13:54:14.849931077
2025-11-07 13:54:12.574879,511,2025-11-07 13:54:14.857623385
2025-11-07 13:54:12.574879,-1,2025-11-07 13:54:14.865315692
2025-11-07 13:54:12.574879,209,2025-11-07 13:54:14.873008000
2025-11-07 13:54:12.574879,-11008,2025-11-07 13:54:14.880700308
2025-11-07 13:54:12.574879,2,2025-11-07 13:54:14.888392615
2025-11-07 13:54:12.574879,423,2025-11-07 13:54:14.896084923
2025-11-07 13:54:12.574879,4608,2025-11-07 13:54:14.903777231
2025-11-07 13:54:12.574879,-1,2025-11-07 13:54:14.911469538
2025-11-07 13:54:12.574879,-262,2025-11-07 13:54:14.919161846
2025-11-07 13:54:12.574879,-24833,2025-11-07 13:54:14.926854154
2025-11-07 13:54:12.574879,-1,2025-11-07 13:54:14.934546462
2025-11-07 13:54:12.574879,-228,2025-11-07 13:54:14.942238769
2025-11-07 13:54:12.574879,-5121,2025-11-07 13:54:14.949931077
2025-11-07 13:54:12.574879,-2,2025-11-07 13:54:14.957623385
2025-11-07 13:54:12.574879,-219,2025-11-07 13:54:14.965315692
2025-11-07 13:54:12.574879,6655,2025-11-07 13:54:14.973008000
2025-11-07 13:54:12.574879,-1,2025-11-07 13:54:14.980700308
2025-11-07 13:54:12.574879,-233,2025-11-07 13:54:14.988392615
2025-11-07 13:54:12.574879,11775,2025-11-07 13:54:14.996084923
2025-11-07 13:54:12.574879,-1,2025-11-07 13:54:15.003777231
2025-11-07 13:54:12.574879,-211,2025-11-07 13:54:15.011469538
2025-11-07 13:54:12.574879,14079,2025-11-07 13:54:15.019161846
2025-11-07 13:54:12.574879,-1,2025-11-07 13:54:15.026854154
2025-11-07 13:54:12.574879,-187,2025-11-07 13:54:15.034546462
2025-11-07 13:54:12.574879,17151,2025-11-07 13:54:15.042238769
2025-11-07 13:54:12.574879,-1,2025-11-07 13:54:15.049931077
2025-11-07 13:54:12.574879,-190,2025-11-07 13:54:15.057623385
2025-11-07 13:54:12.574879,20223,2025-11-07 13:54:15.065315692
2025-11-07 13:54:12.574879,-1,2025-11-07 13:54:15.073008000
2025-11-07 13:54:12.574879,-161,2025-11-07 13:54:15.080700308
2025-11-07 13:54:12.574879,27135,2025-11-07 13:54:15.088392615
2025-11-07 13:54:12.574879,-1,2025-11-07 13:54:15.096084923
2025-11-07 13:54:12.574879,-149,2025-11-07 13:54:15.103777231
2025-11-07 13:54:12.574879,29439,2025-11-07 13:54:15.111469538
2025-11-07 13:54:12.574879,-1,2025-11-07 13:54:15.119161846
2025-11-07 13:54:12.574879,-134,2025-11-07 13:54:15.126854154
2025-11-07 13:54:12.574879,30719,2025-11-07 13:54:15.134546462
2025-11-07 13:54:12.574879,-1,2025-11-07 13:54:15.142238769
2025-11-07 13:54:12.574879,-137,2025-11-07 13:54:15.149931077
2025-11-07 13:54:12.574879,31999,2025-11-07 13:54:15.157623385
2025-11-07 13:54:12.574879,-1,2025-11-07 13:54:15.165315692
2025-11-07 13:54:12.574879,-149,2025-11-07 13:54:15.173008000
2025-11-07 13:54:12.574879,26367,2025-11-07 13:54:15.180700308
2025-11-07 13:54:12.574879,-1,2025-11-07 13:54:15.188392615
2025-11-07 13:54:12.574879,-125,2025-11-07 13:54:15.196084923
2025-11-07 13:54:12.574879,-31745,2025-11-07 13:54:15.203777231
2025-11-07 13:54:12.574879,-1,2025-11-07 13:54:15.211469538
2025-11-07 13:54:12.574879,-151,2025-11-07 13:54:15.219161846
2025-11-07 13:54:12.574879,25855,2025-11-07 13:54:15.226854154
2025-11-07 13:54:12.574879,-1,2025-11-07 13:54:15.234546462
2025-11-07 13:54:12.574879,-163,2025-11-07 13:54:15.242238769
2025-11-07 13:54:12.574879,20223,2025-11-07 13:54:15.249931077
2025-11-07 13:54:12.574879,-1,2025-11-07 13:54:15.257623385
2025-11-07 13:54:12.574879,-175,2025-11-07 13:54:15.265315692
2025-11-07 13:54:12.574879,22015,2025-11-07 13:54:15.273008000
2025-11-07 13:54:12.574879,-1,2025-11-07 13:54:15.280700308
2025-11-07 13:54:12.574879,-173,2025-11-07 13:54:15.288392615
2025-11-07 13:54:12.574879,20991,2025-11-07 13:54:15.296084923
2025-11-07 13:54:12.574879,-1,2025-11-07 13:54:15.303777231
2025-11-07 13:54:12.574879,-197,2025-11-07 13:54:15.311469538
2025-11-07 13:54:12.574879,15359,2025-11-07 13:54:15.319161846
2025-11-07 13:54:12.574879,-1,2025-11-07 13:54:15.326854154
2025-11-07 13:54:12.574879,-156,2025-11-07 13:54:15.334546462
2025-11-07 13:54:12.574879,27647,2025-11-07 13:54:15.342238769
2025-11-07 13:54:12.574879,-1,2025-11-07 13:54:15.349931077
2025-11-07 13:54:12.574879,-166,2025-11-07 13:54:15.357623385
2025-11-07 13:54:12.574879,28415,2025-11-07 13:54:15.365315692
2025-11-07 13:54:12.574879,-1,2025-11-07 13:54:15.373008000
2025-11-07 13:54:12.574879,-151,2025-11-07 13:54:15.380700308
2025-11-07 13:54:12.574879,17919,2025-11-07 13:54:15.388392615
2025-11-07 13:54:12.574879,-1,2025-11-07 13:54:15.396084923
2025-11-07 13:54:12.574879,-156,2025-11-07 13:54:15.403777231
2025-11-07 13:54:12.574879,-27393,2025-11-07 13:54:15.411469538
2025-11-07 13:54:12.574879,-1,2025-11-07 13:54:15.419161846
2025-11-07 13:54:12.574879,-127,2025-11-07 13:54:15.426854154
2025-11-07 13:54:12.574879,27647,2025-11-07 13:54:15.434546462
2025-11-07 13:54:12.574879,-1,2025-11-07 13:54:15.442238769
2025-11-07 13:54:12.574879,-154,2025-11-07 13:54:15.449931077
2025-11-07 13:54:12.574879,20223,2025-11-07 13:54:15.457623385
2025-11-07 13:54:12.574879,-1,2025-11-07 13:54:15.465315692
2025-11-07 13:54:12.574879,-178,2025-11-07 13:54:15.473008000
2025-11-07 13:54:12.574879,25343,2025-11-07 13:54:15.480700308
2025-11-07 13:54:12.574879,-1,2025-11-07 13:54:15.488392615
2025-11-07 13:54:12.574879,-149,2025-11-07 13:54:15.496084923
2025-11-07 13:54:12.574879,-31745,2025-11-07 13:54:15.503777231
2025-11-07 13:54:12.574879,-1,2025-11-07 13:54:15.511469538
2025-11-07 13:54:12.574879,-110,2025-11-07 13:54:15.519161846
2025-11-07 13:54:12.574879,32511,2025-11-07 13:54:15.526854154
2025-11-07 13:54:12.574879,-1,2025-11-07 13:54:15.534546462
2025-11-07 13:54:12.574879,-122,2025-11-07 13:54:15.542238769
2025-11-07 13:54:12.574879,-22529,2025-11-07 13:54:15.549931077
2025-11-07 13:54:12.574879,-1,2025-11-07 13:54:15.557623385
2025-11-07 13:54:12.574879,-101,2025-11-07 13:54:15.565315692
2025-11-07 13:54:12.574879,-30465,2025-11-07 13:54:15.573008000
2025-11-07 13:54:12.574879,-1,2025-11-07 13:54:15.580700308
2025-11-07 13:54:12.574879,-115,2025-11-07 13:54:15.588392615
2025-11-07 13:54:12.574879,28927,2025-11-07 13:54:15.596084923
2025-11-07 13:54:12.574879,-1,2025-11-07 13:54:15.603777230
2025-11-07 13:54:12.574879,-199,2025-11-07 13:54:15.611469538
2025-11-07 13:54:13.114865,7,2025-11-07 13:54:15.619161846
2025-11-07 13:54:13.114865,-25344,2025-11-07 13:54:15.626854154
2025-11-07 13:54:13.114865,2,2025-11-07 13:54:15.634546462
2025-11-07 13:54:13.114865,997,2025-11-07 13:54:15.642238769
2025-11-07 13:54:13.114865,11520,2025-11-07 13:54:15.649931077
2025-11-07 13:54:13.114865,1,2025-11-07 13:54:15.657623385
2025-11-07 13:54:13.114865,-334,2025-11-07 13:54:15.665315692
2025-11-07 13:54:13.114865,25343,2025-11-07 13:54:15.673008000
2025-11-07 13:54:13.114865,-1,2025-11-07 13:54:15.680700308
2025-11-07 13:54:13.114865,-45,2025-11-07 13:54:15.688392615
2025-11-07 13:54:13.114865,7423,2025-11-07 13:54:15.696084923
2025-11-07 13:54:13.114865,-1,2025-11-07 13:54:15.703777231
2025-11-07 13:54:13.114865,-211,2025-11-07 13:54:15.711469538
2025-11-07 13:54:13.114865,-32257,2025-11-07 13:54:15.719161846
2025-11-07 13:54:13.114865,-1,2025-11-07 13:54:15.726854154
2025-11-07 13:54:13.114865,-154,2025-11-07 13:54:15.734546462
2025-11-07 13:54:13.114865,25343,2025-11-07 13:54:15.742238769
2025-11-07 13:54:13.114865,-1,2025-11-07 13:54:15.749931077
2025-11-07 13:54:13.114865,-134,2025-11-07 13:54:15.757623385
2025-11-07 13:54:13.114865,30207,2025-11-07 13:54:15.765315692
2025-11-07 13:54:13.114865,-1,2025-11-07 13:54:15.773008000
2025-11-07 13:54:13.114865,-137,2025-11-07 13:54:15.780700308
2025-11-07 13:54:13.114865,-31745,2025-11-07 13:54:15.788392615
2025-11-07 13:54:13.114865,-1,2025-11-07 13:54:15.796084923
2025-11-07 13:54:13.114865,-125,2025-11-07 13:54:15.803777231
2025-11-07 13:54:13.114865,-30977,2025-11-07 13:54:15.811469538
2025-11-07 13:54:13.114865,-1,2025-11-07 13:54:15.819161846
2025-11-07 13:54:13.114865,-110,2025-11-07 13:54:15.826854154
2025-11-07 13:54:13.114865,-27905,2025-11-07 13:54:15.834546462
2025-11-07 13:54:13.114865,-1,2025-11-07 13:54:15.842238769
2025-11-07 13:54:13.114865,-120,2025-11-07 13:54:15.849931077
2025-11-07 13:54:13.114865,-27905,2025-11-07 13:54:15.857623385
2025-11-07 13:54:13.114865,-1,2025-11-07 13:54:15.865315692
2025-11-07 13:54:13.114865,-98,2025-11-07 13:54:15.873008000
2025-11-07 13:54:13.114865,-29953,2025-11-07 13:54:15.880700308
2025-11-07 13:54:13.114865,-1,2025-11-07 13:54:15.888392615
2025-11-07 13:54:13.114865,-118,2025-11-07 13:54:15.896084923
2025-11-07 13:54:13.114865,-24321,2025-11-07 13:54:15.903777231
2025-11-07 13:54:13.114865,-1,2025-11-07 13:54:15.911469538
2025-11-07 13:54:13.114865,-105,2025-11-07 13:54:15.919161846
2025-11-07 13:54:13.114865,-29953,2025-11-07 13:54:15.926854154
2025-11-07 13:54:13.114865,-1,2025-11-07 13:54:15.934546462
2025-11-07 13:54:13.114865,-98,2025-11-07 13:54:15.942238769
2025-11-07 13:54:13.114865,-23041,2025-11-07 13:54:15.949931077
2025-11-07 13:54:13.114865,-1,2025-11-07 13:54:15.957623385
2025-11-07 13:54:13.114865,-108,2025-11-07 13:54:15.965315692
2025-11-07 13:54:13.114865,-29953,2025-11-07 13:54:15.973008000
2025-11-07 13:54:13.114865,-1,2025-11-07 13:54:15.980700308
2025-11-07 13:54:13.114865,-113,2025-11-07 13:54:15.988392615
2025-11-07 13:54:13.114865,-24321,2025-11-07 13:54:15.996084923
2025-11-07 13:54:13.114865,-1,2025-11-07 13:54:16.003777231
2025-11-07 13:54:13.114865,-93,2025-11-07 13:54:16.011469538
2025-11-07 13:54:13.114865,-24833,2025-11-07 13:54:16.019161846
2025-11-07 13:54:13.114865,-1,2025-11-07 13:54:16.026854154
2025-11-07 13:54:13.114865,-93,2025-11-07 13:54:16.034546462
2025-11-07 13:54:13.114865,-24833,2025-11-07 13:54:16.042238769
2025-11-07 13:54:13.114865,-1,2025-11-07 13:54:16.049931077
2025-11-07 13:54:13.114865,-96,2025-11-07 13:54:16.057623385
2025-11-07 13:54:13.114865,-20481,2025-11-07 13:54:16.065315692
2025-11-07 13:54:13.114865,-1,2025-11-07 13:54:16.073008000
2025-11-07 13:54:13.114865,-101,2025-11-07 13:54:16.080700308
2025-11-07 13:54:13.114865,-25601,2025-11-07 13:54:16.088392615
2025-11-07 13:54:13.114865,-1,2025-11-07 13:54:16.096084923
2025-11-07 13:54:13.114865,-67,2025-11-07 13:54:16.103777231
2025-11-07 13:54:13.114865,-16385,2025-11-07 13:54:16.111469538
2025-11-07 13:54:13.114865,-1,2025-11-07 13:54:16.119161846
2025-11-07 13:54:13.114865,-79,2025-11-07 13:54:16.126854154
2025-11-07 13:54:13.114865,-19969,2025-11-07 13:54:16.134546462
2025-11-07 13:54:13.114865,-1,2025-11-07 13:54:16.142238769
2025-11-07 13:54:13.114865,-86,2025-11-07 13:54:16.149931077
2025-11-07 13:54:13.114865,-23041,2025-11-07 13:54:16.157623385
2025-11-07 13:54:13.114865,-1,2025-11-07 13:54:16.165315692
2025-11-07 13:54:13.114865,-84,2025-11-07 13:54:16.173008000
2025-11-07 13:54:13.114865,-19969,2025-11-07 13:54:16.180700308
2025-11-07 13:54:13.114865,-1,2025-11-07 13:54:16.188392615
2025-11-07 13:54:13.114865,-77,2025-11-07 13:54:16.196084923
2025-11-07 13:54:13.114865,-19457,2025-11-07 13:54:16.203777231
2025-11-07 13:54:13.114865,-1,2025-11-07 13:54:16.211469538
2025-11-07 13:54:13.114865,-72,2025-11-07 13:54:16.219161846
2025-11-07 13:54:13.114865,-23041,2025-11-07 13:54:16.226854154
2025-11-07 13:54:13.114865,-1,2025-11-07 13:54:16.234546462
2025-11-07 13:54:13.114865,-120,2025-11-07 13:54:16.242238769
2025-11-07 13:54:13.114865,-24833,2025-11-07 13:54:16.249931077
2025-11-07 13:54:13.114865,-1,2025-11-07 13:54:16.257623385
2025-11-07 13:54:13.114865,-57,2025-11-07 13:54:16.265315692
2025-11-07 13:54:13.114865,-8193,2025-11-07 13:54:16.273008000
2025-11-07 13:54:13.114865,-1,2025-11-07 13:54:16.280700308
2025-11-07 13:54:13.114865,-38,2025-11-07 13:54:16.288392615
2025-11-07 13:54:13.114865,-16385,2025-11-07 13:54:16.296084923
2025-11-07 13:54:13.114865,-1,2025-11-07 13:54:16.303777231
2025-11-07 13:54:13.114865,-67,2025-11-07 13:54:16.311469538
2025-11-07 13:54:13.114865,-11265,2025-11-07 13:54:16.319161846
2025-11-07 13:54:13.114865,-1,2025-11-07 13:54:16.326854154
2025-11-07 13:54:13.114865,-40,2025-11-07 13:54:16.334546462
2025-11-07 13:54:13.114865,-10753,2025-11-07 13:54:16.342238769
2025-11-07 13:54:13.114865,-1,2025-11-07 13:54:16.349931077
2025-11-07 13:54:13.114865,-45,2025-11-07 13:54:16.357623385
2025-11-07 13:54:13.114865,-24833,2025-11-07 13:54:16.365315692
2025-11-07 13:54:13.114865,-1,2025-11-07 13:54:16.373008000
2025-11-07 13:54:13.114865,-139,2025-11-07 13:54:16.380700308
2025-11-07 13:54:13.114865,-28929,2025-11-07 13:54:16.388392615
2025-11-07 13:54:13.114865,0,2025-11-07 13:54:16.396084923
2025-11-07 13:54:13.114865,850,2025-11-07 13:54:16.403777231
2025-11-07 13:54:13.114865,15872,2025-11-07 13:54:16.411469538
2025-11-07 13:54:13.114865,4,2025-11-07 13:54:16.419161846
2025-11-07 13:54:13.114865,310,2025-11-07 13:54:16.426854154
2025-11-07 13:54:13.114865,-8448,2025-11-07 13:54:16.434546462
2025-11-07 13:54:13.114865,-2,2025-11-07 13:54:16.442238769
2025-11-07 13:54:13.114865,-108,2025-11-07 13:54:16.449931077
2025-11-07 13:54:13.655458,-33,2025-11-07 13:54:16.457623385
2025-11-07 13:54:13.655458,15359,2025-11-07 13:54:16.465315692
2025-11-07 13:54:13.655458,-1,2025-11-07 13:54:16.473008000
2025-11-07 13:54:13.655458,-166,2025-11-07 13:54:16.480700308
2025-11-07 13:54:13.655458,-25601,2025-11-07 13:54:16.488392615
2025-11-07 13:54:13.655458,-1,2025-11-07 13:54:16.496084923
2025-11-07 13:54:13.655458,-142,2025-11-07 13:54:16.503777231
2025-11-07 13:54:13.655458,28927,2025-11-07 13:54:16.511469538
2025-11-07 13:54:13.655458,-1,2025-11-07 13:54:16.519161846
2025-11-07 13:54:13.655458,-115,2025-11-07 13:54:16.526854154
2025-11-07 13:54:13.655458,-27393,2025-11-07 13:54:16.534546462
2025-11-07 13:54:13.655458,-1,2025-11-07 13:54:16.542238769
2025-11-07 13:54:13.655458,-93,2025-11-07 13:54:16.549931077
2025-11-07 13:54:13.655458,-21249,2025-11-07 13:54:16.557623385
2025-11-07 13:54:13.655458,-1,2025-11-07 13:54:16.565315692
2025-11-07 13:54:13.655458,-96,2025-11-07 13:54:16.573008000
2025-11-07 13:54:13.655458,-24321,2025-11-07 13:54:16.580700308
2025-11-07 13:54:13.655458,-1,2025-11-07 13:54:16.588392615
2025-11-07 13:54:13.655458,-79,2025-11-07 13:54:16.596084923
2025-11-07 13:54:13.655458,-20481,2025-11-07 13:54:16.603777230
2025-11-07 13:54:13.655458,-1,2025-11-07 13:54:16.611469538
2025-11-07 13:54:13.655458,-86,2025-11-07 13:54:16.619161846
2025-11-07 13:54:13.655458,-20481,2025-11-07 13:54:16.626854154
2025-11-07 13:54:13.655458,-1,2025-11-07 13:54:16.634546462
2025-11-07 13:54:13.655458,-93,2025-11-07 13:54:16.642238769
2025-11-07 13:54:13.655458,-25601,2025-11-07 13:54:16.649931077
2025-11-07 13:54:13.655458,-1,2025-11-07 13:54:16.657623385
2025-11-07 13:54:13.655458,-77,2025-11-07 13:54:16.665315692
2025-11-07 13:54:13.655458,-17409,2025-11-07 13:54:16.673008000
2025-11-07 13:54:13.655458,-1,2025-11-07 13:54:16.680700308
2025-11-07 13:54:13.655458,-98,2025-11-07 13:54:16.688392615
2025-11-07 13:54:13.655458,-27393,2025-11-07 13:54:16.696084923
2025-11-07 13:54:13.655458,-1,2025-11-07 13:54:16.703777231
2025-11-07 13:54:13.655458,-98,2025-11-07 13:54:16.711469538
2025-11-07 13:54:13.655458,-24321,2025-11-07 13:54:16.719161846
2025-11-07 13:54:13.655458,-1,2025-11-07 13:54:16.726854154
2025-11-07 13:54:13.655458,-98,2025-11-07 13:54:16.734546462
2025-11-07 13:54:13.655458,-23041,2025-11-07 13:54:16.742238769
2025-11-07 13:54:13.655458,-1,2025-11-07 13:54:16.749931077
2025-11-07 13:54:13.655458,-89,2025-11-07 13:54:16.757623385
2025-11-07 13:54:13.655458,-23041,2025-11-07 13:54:16.765315692
2025-11-07 13:54:13.655458,-1,2025-11-07 13:54:16.773008000
2025-11-07 13:54:13.655458,-81,2025-11-07 13:54:16.780700308
2025-11-07 13:54:13.655458,-19457,2025-11-07 13:54:16.788392615
2025-11-07 13:54:13.655458,-1,2025-11-07 13:54:16.796084923
2025-11-07 13:54:13.655458,-79,2025-11-07 13:54:16.803777231
2025-11-07 13:54:13.655458,-19457,2025-11-07 13:54:16.811469538
2025-11-07 13:54:13.655458,-1,2025-11-07 13:54:16.819161846
2025-11-07 13:54:13.655458,-74,2025-11-07 13:54:16.826854154
2025-11-07 13:54:13.655458,-21249,2025-11-07 13:54:16.834546462
2025-11-07 13:54:13.655458,-1,2025-11-07 13:54:16.842238769
2025-11-07 13:54:13.655458,-81,2025-11-07 13:54:16.849931077
2025-11-07 13:54:13.655458,-18689,2025-11-07 13:54:16.857623385
2025-11-07 13:54:13.655458,-1,2025-11-07 13:54:16.865315692
2025-11-07 13:54:13.655458,-84,2025-11-07 13:54:16.873008000
2025-11-07 13:54:13.655458,-19969,2025-11-07 13:54:16.880700308
2025-11-07 13:54:13.655458,-1,2025-11-07 13:54:16.888392615
2025-11-07 13:54:13.655458,-62,2025-11-07 13:54:16.896084923
2025-11-07 13:54:13.655458,-17409,2025-11-07 13:54:16.903777231
2025-11-07 13:54:13.655458,-1,2025-11-07 13:54:16.911469538
2025-11-07 13:54:13.655458,-69,2025-11-07 13:54:16.919161846
2025-11-07 13:54:13.655458,-15617,2025-11-07 13:54:16.926854154
2025-11-07 13:54:13.655458,-1,2025-11-07 13:54:16.934546462
2025-11-07 13:54:13.655458,-69,2025-11-07 13:54:16.942238769
2025-11-07 13:54:13.655458,-19969,2025-11-07 13:54:16.949931077
2025-11-07 13:54:13.655458,-1,2025-11-07 13:54:16.957623385
2025-11-07 13:54:13.655458,-69,2025-11-07 13:54:16.965315692
2025-11-07 13:54:13.655458,-14337,2025-11-07 13:54:16.973008000
2025-11-07 13:54:13.655458,-1,2025-11-07 13:54:16.980700308
2025-11-07 13:54:13.655458,-67,2025-11-07 13:54:16.988392615
2025-11-07 13:54:13.655458,-23041,2025-11-07 13:54:16.996084923
2025-11-07 13:54:13.655458,-1,2025-11-07 13:54:17.003777231
2025-11-07 13:54:13.655458,-86,2025-11-07 13:54:17.011469538
2025-11-07 13:54:13.655458,-15105,2025-11-07 13:54:17.019161846
2025-11-07 13:54:13.655458,-1,2025-11-07 13:54:17.026854154
2025-11-07 13:54:13.655458,-69,2025-11-07 13:54:17.034546462
2025-11-07 13:54:13.655458,-24833,2025-11-07 13:54:17.042238769
2025-11-07 13:54:13.655458,-1,2025-11-07 13:54:17.049931077
2025-11-07 13:54:13.655458,-108,2025-11-07 13:54:17.057623385
2025-11-07 13:54:13.655458,-24321,2025-11-07 13:54:17.065315692
2025-11-07 13:54:13.655458,-1,2025-11-07 13:54:17.073008000
2025-11-07 13:54:13.655458,-79,2025-11-07 13:54:17.080700308
2025-11-07 13:54:13.655458,-14337,2025-11-07 13:54:17.088392615
2025-11-07 13:54:13.655458,-1,2025-11-07 13:54:17.096084923
2025-11-07 13:54:13.655458,-38,2025-11-07 13:54:17.103777231
2025-11-07 13:54:13.655458,-12033,2025-11-07 13:54:17.111469538
2025-11-07 13:54:13.655458,-1,2025-11-07 13:54:17.119161846
2025-11-07 13:54:13.655458,-84,2025-11-07 13:54:17.126854154
2025-11-07 13:54:13.655458,-21761,2025-11-07 13:54:17.134546462
2025-11-07 13:54:13.655458,-1,2025-11-07 13:54:17.142238769
2025-11-07 13:54:13.655458,-62,2025-11-07 13:54:17.149931077
2025-11-07 13:54:13.655458,-14337,2025-11-07 13:54:17.157623385
2025-11-07 13:54:13.655458,-1,2025-11-07 13:54:17.165315692
2025-11-07 13:54:13.655458,-60,2025-11-07 13:54:17.173008000
2025-11-07 13:54:13.655458,-14337,2025-11-07 13:54:17.180700308
2025-11-07 13:54:13.655458,-1,2025-11-07 13:54:17.188392615
2025-11-07 13:54:13.655458,-93,2025-11-07 13:54:17.196084923
2025-11-07 13:54:13.655458,-30465,2025-11-07 13:54:17.203777231
2025-11-07 13:54:13.655458,-1,2025-11-07 13:54:17.211469538
2025-11-07 13:54:13.655458,192,2025-11-07 13:54:17.219161846
2025-11-07 13:54:13.655458,-27392,2025-11-07 13:54:17.226854154
2025-11-07 13:54:13.655458,3,2025-11-07 13:54:17.234546462
2025-11-07 13:54:13.655458,1074,2025-11-07 13:54:17.242238769
2025-11-07 13:54:13.655458,-7680,2025-11-07 13:54:17.249931077
2025-11-07 13:54:13.655458,0,2025-11-07 13:54:17.257623385
2025-11-07 13:54:13.655458,-308,2025-11-07 13:54:17.265315692
2025-11-07 13:54:13.655458,-21761,2025-11-07 13:54:17.273008000
2025-11-07 13:54:13.655458,-1,2025-11-07 13:54:17.280700308
2025-11-07 13:54:13.655458,-55,2025-11-07 13:54:17.288392615
2025-11-07 13:54:14.240939,-226,2025-11-07 13:54:17.296084923
2025-11-07 13:54:14.240939,18943,2025-11-07 13:54:17.303777231
2025-11-07 13:54:14.240939,-1,2025-11-07 13:54:17.311469538
2025-11-07 13:54:14.240939,-130,2025-11-07 13:54:17.319161846
2025-11-07 13:54:14.240939,27135,2025-11-07 13:54:17.326854154
2025-11-07 13:54:14.240939,-1,2025-11-07 13:54:17.334546462
2025-11-07 13:54:14.240939,-122,2025-11-07 13:54:17.342238769
2025-11-07 13:54:14.240939,-23553,2025-11-07 13:54:17.349931077
2025-11-07 13:54:14.240939,-1,2025-11-07 13:54:17.357623385
2025-11-07 13:54:14.240939,-105,2025-11-07 13:54:17.365315692
2025-11-07 13:54:14.240939,-26625,2025-11-07 13:54:17.373008000
2025-11-07 13:54:14.240939,-1,2025-11-07 13:54:17.380700308
2025-11-07 13:54:14.240939,-91,2025-11-07 13:54:17.388392615
2025-11-07 13:54:14.240939,-22529,2025-11-07 13:54:17.396084923
2025-11-07 13:54:14.240939,-1,2025-11-07 13:54:17.403777231
2025-11-07 13:54:14.240939,-86,2025-11-07 13:54:17.411469538
2025-11-07 13:54:14.240939,-21761,2025-11-07 13:54:17.419161846
2025-11-07 13:54:14.240939,-1,2025-11-07 13:54:17.426854154
2025-11-07 13:54:14.240939,-81,2025-11-07 13:54:17.434546462
2025-11-07 13:54:14.240939,-18177,2025-11-07 13:54:17.442238769
2025-11-07 13:54:14.240939,-1,2025-11-07 13:54:17.449931077
2025-11-07 13:54:14.240939,-74,2025-11-07 13:54:17.457623385
2025-11-07 13:54:14.240939,-20481,2025-11-07 13:54:17.465315692
2025-11-07 13:54:14.240939,-1,2025-11-07 13:54:17.473008000
2025-11-07 13:54:14.240939,-72,2025-11-07 13:54:17.480700308
2025-11-07 13:54:14.240939,-18177,2025-11-07 13:54:17.488392615
2025-11-07 13:54:14.240939,-1,2025-11-07 13:54:17.496084923
2025-11-07 13:54:14.240939,-98,2025-11-07 13:54:17.503777231
2025-11-07 13:54:14.240939,-28673,2025-11-07 13:54:17.511469538
2025-11-07 13:54:14.240939,-1,2025-11-07 13:54:17.519161846
2025-11-07 13:54:14.240939,-91,2025-11-07 13:54:17.526854154
2025-11-07 13:54:14.240939,-20481,2025-11-07 13:54:17.534546462
2025-11-07 13:54:14.240939,-1,2025-11-07 13:54:17.542238769
2025-11-07 13:54:14.240939,-96,2025-11-07 13:54:17.549931077
2025-11-07 13:54:14.240939,-24321,2025-11-07 13:54:17.557623385
2025-11-07 13:54:14.240939,-1,2025-11-07 13:54:17.565315692
2025-11-07 13:54:14.240939,-79,2025-11-07 13:54:17.573008000
2025-11-07 13:54:14.240939,-19969,2025-11-07 13:54:17.580700308
2025-11-07 13:54:14.240939,-1,2025-11-07 13:54:17.588392615
2025-11-07 13:54:14.240939,-93,2025-11-07 13:54:17.596084923
2025-11-07 13:54:14.240939,-23041,2025-11-07 13:54:17.603777230
2025-11-07 13:54:14.240939,-1,2025-11-07 13:54:17.611469538
2025-11-07 13:54:14.240939,-86,2025-11-07 13:54:17.619161846
2025-11-07 13:54:14.240939,-25601,2025-11-07 13:54:17.626854154
2025-11-07 13:54:14.240939,-1,2025-11-07 13:54:17.634546462
2025-11-07 13:54:14.240939,-98,2025-11-07 13:54:17.642238769
2025-11-07 13:54:14.240939,-20481,2025-11-07 13:54:17.649931077
2025-11-07 13:54:14.240939,-1,2025-11-07 13:54:17.657623385
2025-11-07 13:54:14.240939,-91,2025-11-07 13:54:17.665315692
2025-11-07 13:54:14.240939,-24321,2025-11-07 13:54:17.673008000
2025-11-07 13:54:14.240939,-1,2025-11-07 13:54:17.680700308
2025-11-07 13:54:14.240939,-77,2025-11-07 13:54:17.688392615
2025-11-07 13:54:14.240939,-20481,2025-11-07 13:54:17.696084923
2025-11-07 13:54:14.240939,-1,2025-11-07 13:54:17.703777231
2025-11-07 13:54:14.240939,-93,2025-11-07 13:54:17.711469538
2025-11-07 13:54:14.240939,-21761,2025-11-07 13:54:17.719161846
2025-11-07 13:54:14.240939,-1,2025-11-07 13:54:17.726854154
2025-11-07 13:54:14.240939,-89,2025-11-07 13:54:17.734546462
2025-11-07 13:54:14.240939,-26113,2025-11-07 13:54:17.742238769
2025-11-07 13:54:14.240939,-1,2025-11-07 13:54:17.749931077
2025-11-07 13:54:14.240939,-93,2025-11-07 13:54:17.757623385
2025-11-07 13:54:14.240939,-20481,2025-11-07 13:54:17.765315692
2025-11-07 13:54:14.240939,-1,2025-11-07 13:54:17.773008000
2025-11-07 13:54:14.240939,-84,2025-11-07 13:54:17.780700308
2025-11-07 13:54:14.240939,-22529,2025-11-07 13:54:17.788392615
2025-11-07 13:54:14.240939,-1,2025-11-07 13:54:17.796084923
2025-11-07 13:54:14.240939,-89,2025-11-07 13:54:17.803777231
2025-11-07 13:54:14.240939,-20481,2025-11-07 13:54:17.811469538
2025-11-07 13:54:14.240939,-1,2025-11-07 13:54:17.819161846
2025-11-07 13:54:14.240939,-79,2025-11-07 13:54:17.826854154
2025-11-07 13:54:14.240939,-21249,2025-11-07 13:54:17.834546462
2025-11-07 13:54:14.240939,-1,2025-11-07 13:54:17.842238769
2025-11-07 13:54:14.240939,-84,2025-11-07 13:54:17.849931077
2025-11-07 13:54:14.240939,-20481,2025-11-07 13:54:17.857623385
2025-11-07 13:54:14.240939,-1,2025-11-07 13:54:17.865315692
2025-11-07 13:54:14.240939,-86,2025-11-07 13:54:17.873008000
2025-11-07 13:54:14.240939,-22529,2025-11-07 13:54:17.880700308
2025-11-07 13:54:14.240939,-1,2025-11-07 13:54:17.888392615
2025-11-07 13:54:14.240939,-86,2025-11-07 13:54:17.896084923
2025-11-07 13:54:14.240939,-18177,2025-11-07 13:54:17.903777231
2025-11-07 13:54:14.240939,-1,2025-11-07 13:54:17.911469538
2025-11-07 13:54:14.240939,-67,2025-11-07 13:54:17.919161846
2025-11-07 13:54:14.240939,-23041,2025-11-07 13:54:17.926854154
2025-11-07 13:54:14.240939,-1,2025-11-07 13:54:17.934546462
2025-11-07 13:54:14.240939,-122,2025-11-07 13:54:17.942238769
2025-11-07 13:54:14.240939,32511,2025-11-07 13:54:17.949931077
2025-11-07 13:54:14.240939,-1,2025-11-07 13:54:17.957623385
2025-11-07 13:54:14.240939,-113,2025-11-07 13:54:17.965315692
2025-11-07 13:54:14.240939,-26113,2025-11-07 13:54:17.973008000
2025-11-07 13:54:14.240939,-1,2025-11-07 13:54:17.980700308
2025-11-07 13:54:14.240939,-93,2025-11-07 13:54:17.988392615
2025-11-07 13:54:14.240939,-15105,2025-11-07 13:54:17.996084923
2025-11-07 13:54:14.240939,-1,2025-11-07 13:54:18.003777231
2025-11-07 13:54:14.240939,-57,2025-11-07 13:54:18.011469538
2025-11-07 13:54:14.240939,-21249,2025-11-07 13:54:18.019161846
2025-11-07 13:54:14.240939,-1,2025-11-07 13:54:18.026854154
2025-11-07 13:54:14.240939,-79,2025-11-07 13:54:18.034546462
2025-11-07 13:54:14.240939,-17409,2025-11-07 13:54:18.042238769
2025-11-07 13:54:14.240939,-1,2025-11-07 13:54:18.049931077
2025-11-07 13:54:14.240939,-79,2025-11-07 13:54:18.057623385
2025-11-07 13:54:14.240939,-21249,2025-11-07 13:54:18.065315692
2025-11-07 13:54:14.240939,-1,2025-11-07 13:54:18.073008000
2025-11-07 13:54:14.240939,-101,2025-11-07 13:54:18.080700308
2025-11-07 13:54:14.240939,25855,2025-11-07 13:54:18.088392615
2025-11-07 13:54:14.240939,-1,2025-11-07 13:54:18.096084923
2025-11-07 13:54:14.240939,-79,2025-11-07 13:54:18.103777231
2025-11-07 13:54:14.240939,-12033,2025-11-07 13:54:18.111469538
2025-11-07 13:54:14.240939,1,2025-11-07 13:54:18.119161846
2025-11-07 13:54:14.240939,1096,2025-11-07 13:54:18.126854154
2025-11-07 13:54:14.870421,753,2025-11-07 13:54:18.134546462
2025-11-07 13:54:14.870421,29184,2025-11-07 13:54:18.142238769
2025-11-07 13:54:14.870421,-1,2025-11-07 13:54:18.149931077
2025-11-07 13:54:14.870421,-281,2025-11-07 13:54:18.157623385
2025-11-07 13:54:14.870421,-13825,2025-11-07 13:54:18.165315692
2025-11-07 13:54:14.870421,-1,2025-11-07 13:54:18.173008000
2025-11-07 13:54:14.870421,-178,2025-11-07 13:54:18.180700308
2025-11-07 13:54:14.870421,-1,2025-11-07 13:54:18.188392615
2025-11-07 13:54:14.870421,-2,2025-11-07 13:54:18.196084923
2025-11-07 13:54:14.870421,-156,2025-11-07 13:54:18.203777231
2025-11-07 13:54:14.870421,30207,2025-11-07 13:54:18.211469538
2025-11-07 13:54:14.870421,-1,2025-11-07 13:54:18.219161846
2025-11-07 13:54:14.870421,-178,2025-11-07 13:54:18.226854154
2025-11-07 13:54:14.870421,22783,2025-11-07 13:54:18.234546462
2025-11-07 13:54:14.870421,-1,2025-11-07 13:54:18.242238769
2025-11-07 13:54:14.870421,-142,2025-11-07 13:54:18.249931077
2025-11-07 13:54:14.870421,30207,2025-11-07 13:54:18.257623385
2025-11-07 13:54:14.870421,-1,2025-11-07 13:54:18.265315692
2025-11-07 13:54:14.870421,-139,2025-11-07 13:54:18.273008000
2025-11-07 13:54:14.870421,31999,2025-11-07 13:54:18.280700308
2025-11-07 13:54:14.870421,-1,2025-11-07 13:54:18.288392615
2025-11-07 13:54:14.870421,-134,2025-11-07 13:54:18.296084923
2025-11-07 13:54:14.870421,30719,2025-11-07 13:54:18.303777231
2025-11-07 13:54:14.870421,-1,2025-11-07 13:54:18.311469538
2025-11-07 13:54:14.870421,-132,2025-11-07 13:54:18.319161846
2025-11-07 13:54:14.870421,30719,2025-11-07 13:54:18.326854154
2025-11-07 13:54:14.870421,-1,2025-11-07 13:54:18.334546462
2025-11-07 13:54:14.870421,-134,2025-11-07 13:54:18.342238769
2025-11-07 13:54:14.870421,-29953,2025-11-07 13:54:18.349931077
2025-11-07 13:54:14.870421,-1,2025-11-07 13:54:18.357623385
2025-11-07 13:54:14.870421,-122,2025-11-07 13:54:18.365315692
2025-11-07 13:54:14.870421,32511,2025-11-07 13:54:18.373008000
2025-11-07 13:54:14.870421,-1,2025-11-07 13:54:18.380700308
2025-11-07 13:54:14.870421,-122,2025-11-07 13:54:18.388392615
2025-11-07 13:54:14.870421,-32257,2025-11-07 13:54:18.396084923
2025-11-07 13:54:14.870421,-1,2025-11-07 13:54:18.403777231
2025-11-07 13:54:14.870421,-137,2025-11-07 13:54:18.411469538
2025-11-07 13:54:14.870421,30719,2025-11-07 13:54:18.419161846
2025-11-07 13:54:14.870421,-1,2025-11-07 13:54:18.426854154
2025-11-07 13:54:14.870421,-130,2025-11-07 13:54:18.434546462
2025-11-07 13:54:14.870421,-32257,2025-11-07 13:54:18.442238769
2025-11-07 13:54:14.870421,-1,2025-11-07 13:54:18.449931077
2025-11-07 13:54:14.870421,-122,2025-11-07 13:54:18.457623385
2025-11-07 13:54:14.870421,-27905,2025-11-07 13:54:18.465315692
2025-11-07 13:54:14.870421,-1,2025-11-07 13:54:18.473008000
2025-11-07 13:54:14.870421,-110,2025-11-07 13:54:18.480700308
2025-11-07 13:54:14.870421,-29953,2025-11-07 13:54:18.488392615
2025-11-07 13:54:14.870421,-1,2025-11-07 13:54:18.496084923
2025-11-07 13:54:14.870421,-130,2025-11-07 13:54:18.503777231
2025-11-07 13:54:14.870421,29439,2025-11-07 13:54:18.511469538
2025-11-07 13:54:14.870421,-1,2025-11-07 13:54:18.519161846
2025-11-07 13:54:14.870421,-137,2025-11-07 13:54:18.526854154
2025-11-07 13:54:14.870421,32511,2025-11-07 13:54:18.534546462
2025-11-07 13:54:14.870421,-1,2025-11-07 13:54:18.542238769
2025-11-07 13:54:14.870421,-134,2025-11-07 13:54:18.549931077
2025-11-07 13:54:14.870421,27647,2025-11-07 13:54:18.557623385
2025-11-07 13:54:14.870421,-1,2025-11-07 13:54:18.565315692
2025-11-07 13:54:14.870421,-156,2025-11-07 13:54:18.573008000
2025-11-07 13:54:14.870421,28927,2025-11-07 13:54:18.580700308
2025-11-07 13:54:14.870421,-1,2025-11-07 13:54:18.588392615
2025-11-07 13:54:14.870421,-130,2025-11-07 13:54:18.596084923
2025-11-07 13:54:14.870421,-31745,2025-11-07 13:54:18.603777230
2025-11-07 13:54:14.870421,-1,2025-11-07 13:54:18.611469538
2025-11-07 13:54:14.870421,-139,2025-11-07 13:54:18.619161846
2025-11-07 13:54:14.870421,27647,2025-11-07 13:54:18.626854154
2025-11-07 13:54:14.870421,-1,2025-11-07 13:54:18.634546462
2025-11-07 13:54:14.870421,-142,2025-11-07 13:54:18.642238769
2025-11-07 13:54:14.870421,30207,2025-11-07 13:54:18.649931077
2025-11-07 13:54:14.870421,-1,2025-11-07 13:54:18.657623385
2025-11-07 13:54:14.870421,-146,2025-11-07 13:54:18.665315692
2025-11-07 13:54:14.870421,30207,2025-11-07 13:54:18.673008000
2025-11-07 13:54:14.870421,-1,2025-11-07 13:54:18.680700308
2025-11-07 13:54:14.870421,-122,2025-11-07 13:54:18.688392615
2025-11-07 13:54:14.870421,-29185,2025-11-07 13:54:18.696084923
2025-11-07 13:54:14.870421,-1,2025-11-07 13:54:18.703777231
2025-11-07 13:54:14.870421,-120,2025-11-07 13:54:18.711469538
2025-11-07 13:54:14.870421,-32257,2025-11-07 13:54:18.719161846
2025-11-07 13:54:14.870421,-1,2025-11-07 13:54:18.726854154
2025-11-07 13:54:14.870421,-134,2025-11-07 13:54:18.734546462
2025-11-07 13:54:14.870421,28927,2025-11-07 13:54:18.742238769
2025-11-07 13:54:14.870421,-1,2025-11-07 13:54:18.749931077
2025-11-07 13:54:14.870421,-151,2025-11-07 13:54:18.757623385
2025-11-07 13:54:14.870421,31999,2025-11-07 13:54:18.765315692
2025-11-07 13:54:14.870421,-1,2025-11-07 13:54:18.773008000
2025-11-07 13:54:14.870421,-103,2025-11-07 13:54:18.780700308
2025-11-07 13:54:14.870421,-29185,2025-11-07 13:54:18.788392615
2025-11-07 13:54:14.870421,-1,2025-11-07 13:54:18.796084923
2025-11-07 13:54:14.870421,-132,2025-11-07 13:54:18.803777231
2025-11-07 13:54:14.870421,-31745,2025-11-07 13:54:18.811469538
2025-11-07 13:54:14.870421,-1,2025-11-07 13:54:18.819161846
2025-11-07 13:54:14.870421,-130,2025-11-07 13:54:18.826854154
2025-11-07 13:54:14.870421,28927,2025-11-07 13:54:18.834546462
2025-11-07 13:54:14.870421,-1,2025-11-07 13:54:18.842238769
2025-11-07 13:54:14.870421,-156,2025-11-07 13:54:18.849931077
2025-11-07 13:54:14.870421,25855,2025-11-07 13:54:18.857623385
2025-11-07 13:54:14.870421,-1,2025-11-07 13:54:18.865315692
2025-11-07 13:54:14.870421,-144,2025-11-07 13:54:18.873008000
2025-11-07 13:54:14.870421,28927,2025-11-07 13:54:18.880700308
2025-11-07 13:54:14.870421,-1,2025-11-07 13:54:18.888392615
2025-11-07 13:54:14.870421,-132,2025-11-07 13:54:18.896084923
2025-11-07 13:54:14.870421,-24321,2025-11-07 13:54:18.903777231
2025-11-07 13:54:14.870421,-1,2025-11-07 13:54:18.911469538
2025-11-07 13:54:14.870421,-96,2025-11-07 13:54:18.919161846
2025-11-07 13:54:14.870421,31999,2025-11-07 13:54:18.926854154
2025-11-07 13:54:14.870421,-1,2025-11-07 13:54:18.934546462
2025-11-07 13:54:14.870421,-132,2025-11-07 13:54:18.942238769
2025-11-07 13:54:14.870421,-26113,2025-11-07 13:54:18.949931077
2025-11-07 13:54:14.870421,-1,2025-11-07 13:54:18.957623385
2025-11-07 13:54:14.870421,-113,2025-11-07 13:54:18.965315692
2025-11-07 13:54:15.361890,-146,2025-11-07 13:54:18.973008000
2025-11-07 13:54:15.361890,24063,2025-11-07 13:54:18.980700308
2025-11-07 13:54:15.361890,-1,2025-11-07 13:54:18.988392615
2025-11-07 13:54:15.361890,-197,2025-11-07 13:54:18.996084923
2025-11-07 13:54:15.361890,-16385,2025-11-07 13:54:19.003777231
2025-11-07 13:54:15.361890,-1,2025-11-07 13:54:19.011469538
2025-11-07 13:54:15.361890,539,2025-11-07 13:54:19.019161846
2025-11-07 13:54:15.361890,-13056,2025-11-07 13:54:19.026854154
2025-11-07 13:54:15.361890,3,2025-11-07 13:54:19.034546462
2025-11-07 13:54:15.361890,387,2025-11-07 13:54:19.042238769
2025-11-07 13:54:15.361890,-16384,2025-11-07 13:54:19.049931077
2025-11-07 13:54:15.361890,-2,2025-11-07 13:54:19.057623385
2025-11-07 13:54:15.361890,-214,2025-11-07 13:54:19.065315692
2025-11-07 13:54:15.361890,-14337,2025-11-07 13:54:19.073008000
2025-11-07 13:54:15.361890,-1,2025-11-07 13:54:19.080700308
2025-11-07 13:54:15.361890,-248,2025-11-07 13:54:19.088392615
2025-11-07 13:54:15.361890,-3073,2025-11-07 13:54:19.096084923
2025-11-07 13:54:15.361890,-2,2025-11-07 13:54:19.103777231
2025-11-07 13:54:15.361890,-173,2025-11-07 13:54:19.111469538
2025-11-07 13:54:15.361890,14079,2025-11-07 13:54:19.119161846
2025-11-07 13:54:15.361890,-1,2025-11-07 13:54:19.126854154
2025-11-07 13:54:15.361890,-207,2025-11-07 13:54:19.134546462
2025-11-07 13:54:15.361890,22783,2025-11-07 13:54:19.142238769
2025-11-07 13:54:15.361890,-1,2025-11-07 13:54:19.149931077
2025-11-07 13:54:15.361890,-168,2025-11-07 13:54:19.157623385
2025-11-07 13:54:15.361890,27135,2025-11-07 13:54:19.165315692
2025-11-07 13:54:15.361890,-1,2025-11-07 13:54:19.173008000
2025-11-07 13:54:15.361890,-137,2025-11-07 13:54:19.180700308
2025-11-07 13:54:15.361890,25343,2025-11-07 13:54:19.188392615
2025-11-07 13:54:15.361890,-1,2025-11-07 13:54:19.196084923
2025-11-07 13:54:15.361890,-163,2025-11-07 13:54:19.203777231
2025-11-07 13:54:15.361890,24063,2025-11-07 13:54:19.211469538
2025-11-07 13:54:15.361890,-1,2025-11-07 13:54:19.219161846
2025-11-07 13:54:15.361890,-161,2025-11-07 13:54:19.226854154
2025-11-07 13:54:15.361890,-30465,2025-11-07 13:54:19.234546462
2025-11-07 13:54:15.361890,-1,2025-11-07 13:54:19.242238769
2025-11-07 13:54:15.361890,-108,2025-11-07 13:54:19.249931077
2025-11-07 13:54:15.361890,31487,2025-11-07 13:54:19.257623385
2025-11-07 13:54:15.361890,-1,2025-11-07 13:54:19.265315692
2025-11-07 13:54:15.361890,-139,2025-11-07 13:54:19.273008000
2025-11-07 13:54:15.361890,31487,2025-11-07 13:54:19.280700308
2025-11-07 13:54:15.361890,-1,2025-11-07 13:54:19.288392615
2025-11-07 13:54:15.361890,-137,2025-11-07 13:54:19.296084923
2025-11-07 13:54:15.361890,-31745,2025-11-07 13:54:19.303777231
2025-11-07 13:54:15.361890,-1,2025-11-07 13:54:19.311469538
2025-11-07 13:54:15.361890,-115,2025-11-07 13:54:19.319161846
2025-11-07 13:54:15.361890,-31745,2025-11-07 13:54:19.326854154
2025-11-07 13:54:15.361890,-1,2025-11-07 13:54:19.334546462
2025-11-07 13:54:15.361890,-137,2025-11-07 13:54:19.342238769
2025-11-07 13:54:15.361890,32511,2025-11-07 13:54:19.349931077
2025-11-07 13:54:15.361890,-1,2025-11-07 13:54:19.357623385
2025-11-07 13:54:15.361890,-118,2025-11-07 13:54:19.365315692
2025-11-07 13:54:15.361890,-30977,2025-11-07 13:54:19.373008000
2025-11-07 13:54:15.361890,-1,2025-11-07 13:54:19.380700308
2025-11-07 13:54:15.361890,-137,2025-11-07 13:54:19.388392615
2025-11-07 13:54:15.361890,28927,2025-11-07 13:54:19.396084923
2025-11-07 13:54:15.361890,-1,2025-11-07 13:54:19.403777231
2025-11-07 13:54:15.361890,-154,2025-11-07 13:54:19.411469538
2025-11-07 13:54:15.361890,25855,2025-11-07 13:54:19.419161846
2025-11-07 13:54:15.361890,-1,2025-11-07 13:54:19.426854154
2025-11-07 13:54:15.361890,-146,2025-11-07 13:54:19.434546462
2025-11-07 13:54:15.361890,28927,2025-11-07 13:54:19.442238769
2025-11-07 13:54:15.361890,-1,2025-11-07 13:54:19.449931077
2025-11-07 13:54:15.361890,-149,2025-11-07 13:54:19.457623385
2025-11-07 13:54:15.361890,30207,2025-11-07 13:54:19.465315692
2025-11-07 13:54:15.361890,-1,2025-11-07 13:54:19.473008000
2025-11-07 13:54:15.361890,-108,2025-11-07 13:54:19.480700308
2025-11-07 13:54:15.361890,-26113,2025-11-07 13:54:19.488392615
2025-11-07 13:54:15.361890,-1,2025-11-07 13:54:19.496084923
2025-11-07 13:54:15.361890,-127,2025-11-07 13:54:19.503777231
2025-11-07 13:54:15.361890,31999,2025-11-07 13:54:19.511469538
2025-11-07 13:54:15.361890,-1,2025-11-07 13:54:19.519161846
2025-11-07 13:54:15.361890,-118,2025-11-07 13:54:19.526854154
2025-11-07 13:54:15.361890,-25601,2025-11-07 13:54:19.534546462
2025-11-07 13:54:15.361890,-1,2025-11-07 13:54:19.542238769
2025-11-07 13:54:15.361890,-93,2025-11-07 13:54:19.549931077
2025-11-07 13:54:15.361890,-25601,2025-11-07 13:54:19.557623385
2025-11-07 13:54:15.361890,-1,2025-11-07 13:54:19.565315692
2025-11-07 13:54:15.361890,-86,2025-11-07 13:54:19.573008000
2025-11-07 13:54:15.361890,-20481,2025-11-07 13:54:19.580700308
2025-11-07 13:54:15.361890,-1,2025-11-07 13:54:19.588392615
2025-11-07 13:54:15.361890,-93,2025-11-07 13:54:19.596084923
2025-11-07 13:54:15.361890,-24321,2025-11-07 13:54:19.603777230
2025-11-07 13:54:15.361890,-1,2025-11-07 13:54:19.611469538
2025-11-07 13:54:15.361890,-91,2025-11-07 13:54:19.619161846
2025-11-07 13:54:15.361890,-23553,2025-11-07 13:54:19.626854154
2025-11-07 13:54:15.361890,-1,2025-11-07 13:54:19.634546462
2025-11-07 13:54:15.361890,-84,2025-11-07 13:54:19.642238769
2025-11-07 13:54:15.361890,-19457,2025-11-07 13:54:19.649931077
2025-11-07 13:54:15.361890,-1,2025-11-07 13:54:19.657623385
2025-11-07 13:54:15.361890,-79,2025-11-07 13:54:19.665315692
2025-11-07 13:54:15.361890,-16385,2025-11-07 13:54:19.673008000
2025-11-07 13:54:15.361890,-1,2025-11-07 13:54:19.680700308
2025-11-07 13:54:15.361890,-57,2025-11-07 13:54:19.688392615
2025-11-07 13:54:15.361890,-24833,2025-11-07 13:54:19.696084923
2025-11-07 13:54:15.361890,-1,2025-11-07 13:54:19.703777231
2025-11-07 13:54:15.361890,-134,2025-11-07 13:54:19.711469538
2025-11-07 13:54:15.361890,-24321,2025-11-07 13:54:19.719161846
2025-11-07 13:54:15.361890,-1,2025-11-07 13:54:19.726854154
2025-11-07 13:54:15.361890,-77,2025-11-07 13:54:19.734546462
2025-11-07 13:54:15.361890,-28673,2025-11-07 13:54:19.742238769
2025-11-07 13:54:15.361890,-1,2025-11-07 13:54:19.749931077
2025-11-07 13:54:15.361890,-110,2025-11-07 13:54:19.757623385
2025-11-07 13:54:15.361890,-21761,2025-11-07 13:54:19.765315692
2025-11-07 13:54:15.361890,-1,2025-11-07 13:54:19.773008000
2025-11-07 13:54:15.361890,-89,2025-11-07 13:54:19.780700308
2025-11-07 13:54:15.361890,-23041,2025-11-07 13:54:19.788392615
2025-11-07 13:54:15.361890,-1,2025-11-07 13:54:19.796084923
2025-11-07 13:54:15.361890,-65,2025-11-07 13:54:19.803777231
2025-11-07 13:54:15.949253,-65,2025-11-07 13:54:19.811469538
2025-11-07 13:54:15.949253,-21249,2025-11-07 13:54:19.819161846
2025-11-07 13:54:15.949253,-1,2025-11-07 13:54:19.826854154
2025-11-07 13:54:15.949253,-67,2025-11-07 13:54:19.834546462
2025-11-07 13:54:15.949253,-20481,2025-11-07 13:54:19.842238769
2025-11-07 13:54:15.949253,-1,2025-11-07 13:54:19.849931077
2025-11-07 13:54:15.949253,-127,2025-11-07 13:54:19.857623385
2025-11-07 13:54:15.949253,30719,2025-11-07 13:54:19.865315692
2025-11-07 13:54:15.949253,-1,2025-11-07 13:54:19.873008000
2025-11-07 13:54:15.949253,-36,2025-11-07 13:54:19.880700308
2025-11-07 13:54:15.949253,-8193,2025-11-07 13:54:19.888392615
2025-11-07 13:54:15.949253,1,2025-11-07 13:54:19.896084923
2025-11-07 13:54:15.949253,1064,2025-11-07 13:54:19.903777231
2025-11-07 13:54:15.949253,-31488,2025-11-07 13:54:19.911469538
2025-11-07 13:54:15.949253,2,2025-11-07 13:54:19.919161846
2025-11-07 13:54:15.949253,-233,2025-11-07 13:54:19.926854154
2025-11-07 13:54:15.949253,-769,2025-11-07 13:54:19.934546462
2025-11-07 13:54:15.949253,-2,2025-11-07 13:54:19.942238769
2025-11-07 13:54:15.949253,-9,2025-11-07 13:54:19.949931077
2025-11-07 13:54:15.949253,20991,2025-11-07 13:54:19.957623385
2025-11-07 13:54:15.949253,-1,2025-11-07 13:54:19.965315692
2025-11-07 13:54:15.949253,-245,2025-11-07 13:54:19.973008000
2025-11-07 13:54:15.949253,-24321,2025-11-07 13:54:19.980700308
2025-11-07 13:54:15.949253,-1,2025-11-07 13:54:19.988392615
2025-11-07 13:54:15.949253,-103,2025-11-07 13:54:19.996084923
2025-11-07 13:54:15.949253,20991,2025-11-07 13:54:20.003777231
2025-11-07 13:54:15.949253,-1,2025-11-07 13:54:20.011469538
2025-11-07 13:54:15.949253,-118,2025-11-07 13:54:20.019161846
2025-11-07 13:54:15.949253,-25601,2025-11-07 13:54:20.026854154
2025-11-07 13:54:15.949253,-1,2025-11-07 13:54:20.034546462
2025-11-07 13:54:15.949253,-171,2025-11-07 13:54:20.042238769
2025-11-07 13:54:15.949253,29439,2025-11-07 13:54:20.049931077
2025-11-07 13:54:15.949253,-1,2025-11-07 13:54:20.057623385
2025-11-07 13:54:15.949253,-45,2025-11-07 13:54:20.065315692
2025-11-07 13:54:15.949253,-15617,2025-11-07 13:54:20.073008000
2025-11-07 13:54:15.949253,-1,2025-11-07 13:54:20.080700308
2025-11-07 13:54:15.949253,-108,2025-11-07 13:54:20.088392615
2025-11-07 13:54:15.949253,-15617,2025-11-07 13:54:20.096084923
2025-11-07 13:54:15.949253,-1,2025-11-07 13:54:20.103777231
2025-11-07 13:54:15.949253,-31,2025-11-07 13:54:20.111469538
2025-11-07 13:54:15.949253,-11265,2025-11-07 13:54:20.119161846
2025-11-07 13:54:15.949253,-1,2025-11-07 13:54:20.126854154
2025-11-07 13:54:15.949253,-24,2025-11-07 13:54:20.134546462
2025-11-07 13:54:15.949253,5119,2025-11-07 13:54:20.142238769
2025-11-07 13:54:15.949253,0,2025-11-07 13:54:20.149931077
2025-11-07 13:54:15.949253,40,2025-11-07 13:54:20.157623385
2025-11-07 13:54:15.949253,12800,2025-11-07 13:54:20.165315692
2025-11-07 13:54:15.949253,0,2025-11-07 13:54:20.173008000
2025-11-07 13:54:15.949253,79,2025-11-07 13:54:20.180700308
2025-11-07 13:54:15.949253,22016,2025-11-07 13:54:20.188392615
2025-11-07 13:54:15.949253,0,2025-11-07 13:54:20.196084923
2025-11-07 13:54:15.949253,91,2025-11-07 13:54:20.203777231
2025-11-07 13:54:15.949253,32000,2025-11-07 13:54:20.211469538
2025-11-07 13:54:15.949253,0,2025-11-07 13:54:20.219161846
2025-11-07 13:54:15.949253,156,2025-11-07 13:54:20.226854154
2025-11-07 13:54:15.949253,-19456,2025-11-07 13:54:20.234546462
2025-11-07 13:54:15.949253,0,2025-11-07 13:54:20.242238769
2025-11-07 13:54:15.949253,178,2025-11-07 13:54:20.249931077
2025-11-07 13:54:15.949253,-24320,2025-11-07 13:54:20.257623385
2025-11-07 13:54:15.949253,0,2025-11-07 13:54:20.265315692
2025-11-07 13:54:15.949253,207,2025-11-07 13:54:20.273008000
2025-11-07 13:54:15.949253,1536,2025-11-07 13:54:20.280700308
2025-11-07 13:54:15.949253,1,2025-11-07 13:54:20.288392615
2025-11-07 13:54:15.949253,255,2025-11-07 13:54:20.296084923
2025-11-07 13:54:15.949253,7168,2025-11-07 13:54:20.303777231
2025-11-07 13:54:15.949253,1,2025-11-07 13:54:20.311469538
2025-11-07 13:54:15.949253,390,2025-11-07 13:54:20.319161846
2025-11-07 13:54:15.949253,-13312,2025-11-07 13:54:20.326854154
2025-11-07 13:54:15.949253,1,2025-11-07 13:54:20.334546462
2025-11-07 13:54:15.949253,474,2025-11-07 13:54:20.342238769
2025-11-07 13:54:15.949253,-1024,2025-11-07 13:54:20.349931077
2025-11-07 13:54:15.949253,1,2025-11-07 13:54:20.357623385
2025-11-07 13:54:15.949253,566,2025-11-07 13:54:20.365315692
2025-11-07 13:54:15.949253,27392,2025-11-07 13:54:20.373008000
2025-11-07 13:54:15.949253,2,2025-11-07 13:54:20.380700308
2025-11-07 13:54:15.949253,684,2025-11-07 13:54:20.388392615
2025-11-07 13:54:15.949253,-2560,2025-11-07 13:54:20.396084923
2025-11-07 13:54:15.949253,2,2025-11-07 13:54:20.403777231
2025-11-07 13:54:15.949253,799,2025-11-07 13:54:20.411469538
2025-11-07 13:54:15.949253,11776,2025-11-07 13:54:20.419161846
2025-11-07 13:54:15.949253,3,2025-11-07 13:54:20.426854154
2025-11-07 13:54:15.949253,869,2025-11-07 13:54:20.434546462
2025-11-07 13:54:15.949253,-13056,2025-11-07 13:54:20.442238769
2025-11-07 13:54:15.949253,3,2025-11-07 13:54:20.449931077
2025-11-07 13:54:15.949253,1026,2025-11-07 13:54:20.457623385
2025-11-07 13:54:15.949253,5376,2025-11-07 13:54:20.465315692
2025-11-07 13:54:15.949253,4,2025-11-07 13:54:20.473008000
2025-11-07 13:54:15.949253,1083,2025-11-07 13:54:20.480700308
2025-11-07 13:54:15.949253,20224,2025-11-07 13:54:20.488392615
2025-11-07 13:54:15.949253,4,2025-11-07 13:54:20.496084923
2025-11-07 13:54:15.949253,1108,2025-11-07 13:54:20.503777231
2025-11-07 13:54:15.949253,25600,2025-11-07 13:54:20.511469538
2025-11-07 13:54:15.949253,4,2025-11-07 13:54:20.519161846
2025-11-07 13:54:15.949253,1129,2025-11-07 13:54:20.526854154
2025-11-07 13:54:15.949253,-31744,2025-11-07 13:54:20.534546462
2025-11-07 13:54:15.949253,4,2025-11-07 13:54:20.542238769
2025-11-07 13:54:15.949253,1194,2025-11-07 13:54:20.549931077
2025-11-07 13:54:15.949253,-18944,2025-11-07 13:54:20.557623385
2025-11-07 13:54:15.949253,4,2025-11-07 13:54:20.565315692
2025-11-07 13:54:15.949253,1228,2025-11-07 13:54:20.573008000
2025-11-07 13:54:15.949253,-15872,2025-11-07 13:54:20.580700308
2025-11-07 13:54:15.949253,4,2025-11-07 13:54:20.588392615
2025-11-07 13:54:15.949253,1156,2025-11-07 13:54:20.596084923
2025-11-07 13:54:15.949253,29440,2025-11-07 13:54:20.603777230
2025-11-07 13:54:15.949253,4,2025-11-07 13:54:20.611469538
2025-11-07 13:54:15.949253,1182,2025-11-07 13:54:20.619161846
2025-11-07 13:54:15.949253,-17664,2025-11-07 13:54:20.626854154
2025-11-07 13:54:15.949253,4,2025-11-07 13:54:20.634546462
2025-11-07 13:54:15.949253,1206,2025-11-07 13:54:20.642238769
2025-11-07 13:54:16.489341,1177,2025-11-07 13:54:20.649931077
2025-11-07 13:54:16.489341,27648,2025-11-07 13:54:20.657623385
2025-11-07 13:54:16.489341,4,2025-11-07 13:54:20.665315692
2025-11-07 13:54:16.489341,1098,2025-11-07 13:54:20.673008000
2025-11-07 13:54:16.489341,13312,2025-11-07 13:54:20.680700308
2025-11-07 13:54:16.489341,4,2025-11-07 13:54:20.688392615
2025-11-07 13:54:16.489341,1050,2025-11-07 13:54:20.696084923
2025-11-07 13:54:16.489341,-1536,2025-11-07 13:54:20.703777231
2025-11-07 13:54:16.489341,3,2025-11-07 13:54:20.711469538
2025-11-07 13:54:16.489341,987,2025-11-07 13:54:20.719161846
2025-11-07 13:54:16.489341,-17408,2025-11-07 13:54:20.726854154
2025-11-07 13:54:16.489341,3,2025-11-07 13:54:20.734546462
2025-11-07 13:54:16.489341,908,2025-11-07 13:54:20.742238769
2025-11-07 13:54:16.489341,3584,2025-11-07 13:54:20.749931077
2025-11-07 13:54:16.489341,4,2025-11-07 13:54:20.757623385
2025-11-07 13:54:16.489341,1640,2025-11-07 13:54:20.765315692
2025-11-07 13:54:16.489341,15872,2025-11-07 13:54:20.773008000
2025-11-07 13:54:16.489341,8,2025-11-07 13:54:20.780700308
2025-11-07 13:54:16.489341,1517,2025-11-07 13:54:20.788392615
2025-11-07 13:54:16.489341,-24064,2025-11-07 13:54:20.796084923
2025-11-07 13:54:16.489341,2,2025-11-07 13:54:20.803777231
2025-11-07 13:54:16.489341,698,2025-11-07 13:54:20.811469538
2025-11-07 13:54:16.489341,26624,2025-11-07 13:54:20.819161846
2025-11-07 13:54:16.489341,3,2025-11-07 13:54:20.826854154
2025-11-07 13:54:16.489341,672,2025-11-07 13:54:20.834546462
2025-11-07 13:54:16.489341,31488,2025-11-07 13:54:20.842238769
2025-11-07 13:54:16.489341,2,2025-11-07 13:54:20.849931077
2025-11-07 13:54:16.489341,727,2025-11-07 13:54:20.857623385
2025-11-07 13:54:16.489341,-29696,2025-11-07 13:54:20.865315692
2025-11-07 13:54:16.489341,2,2025-11-07 13:54:20.873008000
2025-11-07 13:54:16.489341,609,2025-11-07 13:54:20.880700308
2025-11-07 13:54:16.489341,-25856,2025-11-07 13:54:20.888392615
2025-11-07 13:54:16.489341,2,2025-11-07 13:54:20.896084923
2025-11-07 13:54:16.489341,652,2025-11-07 13:54:20.903777231
2025-11-07 13:54:16.489341,26624,2025-11-07 13:54:20.911469538
2025-11-07 13:54:16.489341,2,2025-11-07 13:54:20.919161846
2025-11-07 13:54:16.489341,631,2025-11-07 13:54:20.926854154
2025-11-07 13:54:16.489341,25344,2025-11-07 13:54:20.934546462
2025-11-07 13:54:16.489341,2,2025-11-07 13:54:20.942238769
2025-11-07 13:54:16.489341,575,2025-11-07 13:54:20.949931077
2025-11-07 13:54:16.489341,23040,2025-11-07 13:54:20.957623385
2025-11-07 13:54:16.489341,2,2025-11-07 13:54:20.965315692
2025-11-07 13:54:16.489341,597,2025-11-07 13:54:20.973008000
2025-11-07 13:54:16.489341,9472,2025-11-07 13:54:20.980700308
2025-11-07 13:54:16.489341,2,2025-11-07 13:54:20.988392615
2025-11-07 13:54:16.489341,561,2025-11-07 13:54:20.996084923
2025-11-07 13:54:16.489341,21760,2025-11-07 13:54:21.003777231
2025-11-07 13:54:16.489341,2,2025-11-07 13:54:21.011469538
2025-11-07 13:54:16.489341,573,2025-11-07 13:54:21.019161846
2025-11-07 13:54:16.489341,5120,2025-11-07 13:54:21.026854154
2025-11-07 13:54:16.489341,2,2025-11-07 13:54:21.034546462
2025-11-07 13:54:16.489341,527,2025-11-07 13:54:21.042238769
2025-11-07 13:54:16.489341,10752,2025-11-07 13:54:21.049931077
2025-11-07 13:54:16.489341,2,2025-11-07 13:54:21.057623385
2025-11-07 13:54:16.489341,549,2025-11-07 13:54:21.065315692
2025-11-07 13:54:16.489341,-512,2025-11-07 13:54:21.073008000
2025-11-07 13:54:16.489341,1,2025-11-07 13:54:21.080700308
2025-11-07 13:54:16.489341,491,2025-11-07 13:54:21.088392615
2025-11-07 13:54:16.489341,-3584,2025-11-07 13:54:21.096084923
2025-11-07 13:54:16.489341,1,2025-11-07 13:54:21.103777231
2025-11-07 13:54:16.489341,510,2025-11-07 13:54:21.111469538
2025-11-07 13:54:16.489341,-4096,2025-11-07 13:54:21.119161846
2025-11-07 13:54:16.489341,1,2025-11-07 13:54:21.126854154
2025-11-07 13:54:16.489341,460,2025-11-07 13:54:21.134546462
2025-11-07 13:54:16.489341,-16384,2025-11-07 13:54:21.142238769
2025-11-07 13:54:16.489341,1,2025-11-07 13:54:21.149931077
2025-11-07 13:54:16.489341,460,2025-11-07 13:54:21.157623385
2025-11-07 13:54:16.489341,-18944,2025-11-07 13:54:21.165315692
2025-11-07 13:54:16.489341,1,2025-11-07 13:54:21.173008000
2025-11-07 13:54:16.489341,404,2025-11-07 13:54:21.180700308
2025-11-07 13:54:16.489341,-21504,2025-11-07 13:54:21.188392615
2025-11-07 13:54:16.489341,1,2025-11-07 13:54:21.196084923
2025-11-07 13:54:16.489341,448,2025-11-07 13:54:21.203777231
2025-11-07 13:54:16.489341,-25088,2025-11-07 13:54:21.211469538
2025-11-07 13:54:16.489341,1,2025-11-07 13:54:21.219161846
2025-11-07 13:54:16.489341,390,2025-11-07 13:54:21.226854154
2025-11-07 13:54:16.489341,-28160,2025-11-07 13:54:21.234546462
2025-11-07 13:54:16.489341,1,2025-11-07 13:54:21.242238769
2025-11-07 13:54:16.489341,399,2025-11-07 13:54:21.249931077
2025-11-07 13:54:16.489341,24320,2025-11-07 13:54:21.257623385
2025-11-07 13:54:16.489341,1,2025-11-07 13:54:21.265315692
2025-11-07 13:54:16.489341,330,2025-11-07 13:54:21.273008000
2025-11-07 13:54:16.489341,30464,2025-11-07 13:54:21.280700308
2025-11-07 13:54:16.489341,1,2025-11-07 13:54:21.288392615
2025-11-07 13:54:16.489341,380,2025-11-07 13:54:21.296084923
2025-11-07 13:54:16.489341,13312,2025-11-07 13:54:21.303777231
2025-11-07 13:54:16.489341,1,2025-11-07 13:54:21.311469538
2025-11-07 13:54:16.489341,308,2025-11-07 13:54:21.319161846
2025-11-07 13:54:16.489341,30464,2025-11-07 13:54:21.326854154
2025-11-07 13:54:16.489341,1,2025-11-07 13:54:21.334546462
2025-11-07 13:54:16.489341,339,2025-11-07 13:54:21.342238769
2025-11-07 13:54:16.489341,5376,2025-11-07 13:54:21.349931077
2025-11-07 13:54:16.489341,1,2025-11-07 13:54:21.357623385
2025-11-07 13:54:16.489341,293,2025-11-07 13:54:21.365315692
2025-11-07 13:54:16.489341,11520,2025-11-07 13:54:21.373008000
2025-11-07 13:54:16.489341,1,2025-11-07 13:54:21.380700308
2025-11-07 13:54:16.489341,274,2025-11-07 13:54:21.388392615
2025-11-07 13:54:16.489341,1024,2025-11-07 13:54:21.396084923
2025-11-07 13:54:16.489341,1,2025-11-07 13:54:21.403777231
2025-11-07 13:54:16.489341,264,2025-11-07 13:54:21.411469538
2025-11-07 13:54:16.489341,6400,2025-11-07 13:54:21.419161846
2025-11-07 13:54:16.489341,1,2025-11-07 13:54:21.426854154
2025-11-07 13:54:16.489341,305,2025-11-07 13:54:21.434546462
2025-11-07 13:54:16.489341,5888,2025-11-07 13:54:21.442238769
2025-11-07 13:54:16.489341,1,2025-11-07 13:54:21.449931077
2025-11-07 13:54:16.489341,228,2025-11-07 13:54:21.457623385
2025-11-07 13:54:16.489341,-7680,2025-11-07 13:54:21.465315692
2025-11-07 13:54:16.489341,0,2025-11-07 13:54:21.473008000
2025-11-07 13:54:16.489341,233,2025-11-07 13:54:21.480700308
2025-11-07 13:54:17.029954,209,2025-11-07 13:54:21.488392615
2025-11-07 13:54:17.029954,-18176,2025-11-07 13:54:21.496084923
2025-11-07 13:54:17.029954,0,2025-11-07 13:54:21.503777231
2025-11-07 13:54:17.029954,195,2025-11-07 13:54:21.511469538
2025-11-07 13:54:17.029954,-5888,2025-11-07 13:54:21.519161846
2025-11-07 13:54:17.029954,0,2025-11-07 13:54:21.526854154
2025-11-07 13:54:17.029954,245,2025-11-07 13:54:21.534546462
2025-11-07 13:54:17.029954,-11520,2025-11-07 13:54:21.542238769
2025-11-07 13:54:17.029954,0,2025-11-07 13:54:21.549931077
2025-11-07 13:54:17.029954,204,2025-11-07 13:54:21.557623385
2025-11-07 13:54:17.029954,-13824,2025-11-07 13:54:21.565315692
2025-11-07 13:54:17.029954,0,2025-11-07 13:54:21.573008000
2025-11-07 13:54:17.029954,173,2025-11-07 13:54:21.580700308
2025-11-07 13:54:17.029954,-17664,2025-11-07 13:54:21.588392615
2025-11-07 13:54:17.029954,0,2025-11-07 13:54:21.596084923
2025-11-07 13:54:17.029954,202,2025-11-07 13:54:21.603777230
2025-11-07 13:54:17.029954,-26112,2025-11-07 13:54:21.611469538
2025-11-07 13:54:17.029954,0,2025-11-07 13:54:21.619161846
2025-11-07 13:54:17.029954,86,2025-11-07 13:54:21.626854154
2025-11-07 13:54:17.029954,32000,2025-11-07 13:54:21.634546462
2025-11-07 13:54:17.029954,0,2025-11-07 13:54:21.642238769
2025-11-07 13:54:17.029954,587,2025-11-07 13:54:21.649931077
2025-11-07 13:54:17.029954,256,2025-11-07 13:54:21.657623385
2025-11-07 13:54:17.029954,5,2025-11-07 13:54:21.665315692
2025-11-07 13:54:17.029954,1129,2025-11-07 13:54:21.673008000
2025-11-07 13:54:17.029954,-18688,2025-11-07 13:54:21.680700308
2025-11-07 13:54:17.029954,0,2025-11-07 13:54:21.688392615
2025-11-07 13:54:17.029954,-154,2025-11-07 13:54:21.696084923
2025-11-07 13:54:17.029954,26623,2025-11-07 13:54:21.703777231
2025-11-07 13:54:17.029954,0,2025-11-07 13:54:21.711469538
2025-11-07 13:54:17.029954,40,2025-11-07 13:54:21.719161846
2025-11-07 13:54:17.029954,-26880,2025-11-07 13:54:21.726854154
2025-11-07 13:54:17.029954,-1,2025-11-07 13:54:21.734546462
2025-11-07 13:54:17.029954,-16,2025-11-07 13:54:21.742238769
2025-11-07 13:54:17.029954,1279,2025-11-07 13:54:21.749931077
2025-11-07 13:54:17.029954,0,2025-11-07 13:54:21.757623385
2025-11-07 13:54:17.029954,-60,2025-11-07 13:54:21.765315692
2025-11-07 13:54:17.029954,-9473,2025-11-07 13:54:21.773008000
2025-11-07 13:54:17.029954,-1,2025-11-07 13:54:21.780700308
2025-11-07 13:54:17.029954,-7,2025-11-07 13:54:21.788392615
2025-11-07 13:54:17.029954,-4609,2025-11-07 13:54:21.796084923
2025-11-07 13:54:17.029954,-1,2025-11-07 13:54:21.803777231
2025-11-07 13:54:17.029954,-24,2025-11-07 13:54:21.811469538
2025-11-07 13:54:17.029954,-8193,2025-11-07 13:54:21.819161846
2025-11-07 13:54:17.029954,-1,2025-11-07 13:54:21.826854154
2025-11-07 13:54:17.029954,-48,2025-11-07 13:54:21.834546462
2025-11-07 13:54:17.029954,-9985,2025-11-07 13:54:21.842238769
2025-11-07 13:54:17.029954,-1,2025-11-07 13:54:21.849931077
2025-11-07 13:54:17.029954,-38,2025-11-07 13:54:21.857623385
2025-11-07 13:54:17.029954,-9985,2025-11-07 13:54:21.865315692
2025-11-07 13:54:17.029954,-1,2025-11-07 13:54:21.873008000
2025-11-07 13:54:17.029954,-33,2025-11-07 13:54:21.880700308
2025-11-07 13:54:17.029954,-14337,2025-11-07 13:54:21.888392615
2025-11-07 13:54:17.029954,-1,2025-11-07 13:54:21.896084923
2025-11-07 13:54:17.029954,-72,2025-11-07 13:54:21.903777231
2025-11-07 13:54:17.029954,-11265,2025-11-07 13:54:21.911469538
2025-11-07 13:54:17.029954,-1,2025-11-07 13:54:21.919161846
2025-11-07 13:54:17.029954,-60,2025-11-07 13:54:21.926854154
2025-11-07 13:54:17.029954,-24833,2025-11-07 13:54:21.934546462
2025-11-07 13:54:17.029954,-1,2025-11-07 13:54:21.942238769
2025-11-07 13:54:17.029954,-110,2025-11-07 13:54:21.949931077
2025-11-07 13:54:17.029954,-30465,2025-11-07 13:54:21.957623385
2025-11-07 13:54:17.029954,-1,2025-11-07 13:54:21.965315692
2025-11-07 13:54:17.029954,-127,2025-11-07 13:54:21.973008000
2025-11-07 13:54:17.029954,-29185,2025-11-07 13:54:21.980700308
2025-11-07 13:54:17.029954,-1,2025-11-07 13:54:21.988392615
2025-11-07 13:54:17.029954,-127,2025-11-07 13:54:21.996084923
2025-11-07 13:54:17.029954,24063,2025-11-07 13:54:22.003777231
2025-11-07 13:54:17.029954,-1,2025-11-07 13:54:22.011469538
2025-11-07 13:54:17.029954,-163,2025-11-07 13:54:22.019161846
2025-11-07 13:54:17.029954,30207,2025-11-07 13:54:22.026854154
2025-11-07 13:54:17.029954,-1,2025-11-07 13:54:22.034546462
2025-11-07 13:54:17.029954,-156,2025-11-07 13:54:22.042238769
2025-11-07 13:54:17.029954,20223,2025-11-07 13:54:22.049931077
2025-11-07 13:54:17.029954,-1,2025-11-07 13:54:22.057623385
2025-11-07 13:54:17.029954,-171,2025-11-07 13:54:22.065315692
2025-11-07 13:54:17.029954,15359,2025-11-07 13:54:22.073008000
2025-11-07 13:54:17.029954,-1,2025-11-07 13:54:22.080700308
2025-11-07 13:54:17.029954,-221,2025-11-07 13:54:22.088392615
2025-11-07 13:54:17.029954,15359,2025-11-07 13:54:22.096084923
2025-11-07 13:54:17.029954,-1,2025-11-07 13:54:22.103777231
2025-11-07 13:54:17.029954,-204,2025-11-07 13:54:22.111469538
2025-11-07 13:54:17.029954,4863,2025-11-07 13:54:22.119161846
2025-11-07 13:54:17.029954,-1,2025-11-07 13:54:22.126854154
2025-11-07 13:54:17.029954,-248,2025-11-07 13:54:22.134546462
2025-11-07 13:54:17.029954,5375,2025-11-07 13:54:22.142238769
2025-11-07 13:54:17.029954,-1,2025-11-07 13:54:22.149931077
2025-11-07 13:54:17.029954,-224,2025-11-07 13:54:22.157623385
2025-11-07 13:54:17.029954,-2561,2025-11-07 13:54:22.165315692
2025-11-07 13:54:17.029954,-2,2025-11-07 13:54:22.173008000
2025-11-07 13:54:17.029954,-346,2025-11-07 13:54:22.180700308
2025-11-07 13:54:17.029954,-14849,2025-11-07 13:54:22.188392615
2025-11-07 13:54:17.029954,-2,2025-11-07 13:54:22.196084923
2025-11-07 13:54:17.029954,-216,2025-11-07 13:54:22.203777231
2025-11-07 13:54:17.029954,-5121,2025-11-07 13:54:22.211469538
2025-11-07 13:54:17.029954,-2,2025-11-07 13:54:22.219161846
2025-11-07 13:54:17.029954,-380,2025-11-07 13:54:22.226854154
2025-11-07 13:54:17.029954,-21761,2025-11-07 13:54:22.234546462
2025-11-07 13:54:17.029954,-2,2025-11-07 13:54:22.242238769
2025-11-07 13:54:17.029954,-298,2025-11-07 13:54:22.249931077
2025-11-07 13:54:17.029954,-22273,2025-11-07 13:54:22.257623385
2025-11-07 13:54:17.029954,-2,2025-11-07 13:54:22.265315692
2025-11-07 13:54:17.029954,-363,2025-11-07 13:54:22.273008000
2025-11-07 13:54:17.029954,-17409,2025-11-07 13:54:22.280700308
2025-11-07 13:54:17.029954,-2,2025-11-07 13:54:22.288392615
2025-11-07 13:54:17.029954,-322,2025-11-07 13:54:22.296084923
2025-11-07 13:54:17.029954,-23553,2025-11-07 13:54:22.303777231
2025-11-07 13:54:17.029954,-2,2025-11-07 13:54:22.311469538
2025-11-07 13:54:17.029954,-344,2025-11-07 13:54:22.319161846
2025-11-07 13:54:17.570809,-317,2025-11-07 13:54:22.326854154
2025-11-07 13:54:17.570809,-10497,2025-11-07 13:54:22.334546462
2025-11-07 13:54:17.570809,-2,2025-11-07 13:54:22.342238769
2025-11-07 13:54:17.570809,-310,2025-11-07 13:54:22.349931077
2025-11-07 13:54:17.570809,-16641,2025-11-07 13:54:22.357623385
2025-11-07 13:54:17.570809,-2,2025-11-07 13:54:22.365315692
2025-11-07 13:54:17.570809,-317,2025-11-07 13:54:22.373008000
2025-11-07 13:54:17.570809,-22273,2025-11-07 13:54:22.380700308
2025-11-07 13:54:17.570809,-2,2025-11-07 13:54:22.388392615
2025-11-07 13:54:17.570809,-354,2025-11-07 13:54:22.396084923
2025-11-07 13:54:17.570809,-6145,2025-11-07 13:54:22.403777231
2025-11-07 13:54:17.570809,-2,2025-11-07 13:54:22.411469538
2025-11-07 13:54:17.570809,-214,2025-11-07 13:54:22.419161846
2025-11-07 13:54:17.570809,6655,2025-11-07 13:54:22.426854154
2025-11-07 13:54:17.570809,-1,2025-11-07 13:54:22.434546462
2025-11-07 13:54:17.570809,-260,2025-11-07 13:54:22.442238769
2025-11-07 13:54:17.570809,3583,2025-11-07 13:54:22.449931077
2025-11-07 13:54:17.570809,-1,2025-11-07 13:54:22.457623385
2025-11-07 13:54:17.570809,-228,2025-11-07 13:54:22.465315692
2025-11-07 13:54:17.570809,3071,2025-11-07 13:54:22.473008000
2025-11-07 13:54:17.570809,-1,2025-11-07 13:54:22.480700308
2025-11-07 13:54:17.570809,-255,2025-11-07 13:54:22.488392615
2025-11-07 13:54:17.570809,1791,2025-11-07 13:54:22.496084923
2025-11-07 13:54:17.570809,-1,2025-11-07 13:54:22.503777231
2025-11-07 13:54:17.570809,-281,2025-11-07 13:54:22.511469538
2025-11-07 13:54:17.570809,-6913,2025-11-07 13:54:22.519161846
2025-11-07 13:54:17.570809,-2,2025-11-07 13:54:22.526854154
2025-11-07 13:54:17.570809,-16,2025-11-07 13:54:22.534546462
2025-11-07 13:54:17.570809,24575,2025-11-07 13:54:22.542238769
2025-11-07 13:54:17.570809,2,2025-11-07 13:54:22.549931077
2025-11-07 13:54:17.570809,852,2025-11-07 13:54:22.557623385
2025-11-07 13:54:17.570809,-29184,2025-11-07 13:54:22.565315692
2025-11-07 13:54:17.570809,0,2025-11-07 13:54:22.573008000
2025-11-07 13:54:17.570809,-486,2025-11-07 13:54:22.580700308
2025-11-07 13:54:17.570809,-12289,2025-11-07 13:54:22.588392615
2025-11-07 13:54:17.570809,-2,2025-11-07 13:54:22.596084923
2025-11-07 13:54:17.570809,-166,2025-11-07 13:54:22.603777230
2025-11-07 13:54:17.570809,-21761,2025-11-07 13:54:22.611469538
2025-11-07 13:54:17.570809,-2,2025-11-07 13:54:22.619161846
2025-11-07 13:54:17.570809,-349,2025-11-07 13:54:22.626854154
2025-11-07 13:54:17.570809,-769,2025-11-07 13:54:22.634546462
2025-11-07 13:54:17.570809,-2,2025-11-07 13:54:22.642238769
2025-11-07 13:54:17.570809,-281,2025-11-07 13:54:22.649931077
2025-11-07 13:54:17.570809,-13569,2025-11-07 13:54:22.657623385
2025-11-07 13:54:17.570809,-2,2025-11-07 13:54:22.665315692
2025-11-07 13:54:17.570809,-289,2025-11-07 13:54:22.673008000
2025-11-07 13:54:17.570809,-7425,2025-11-07 13:54:22.680700308
2025-11-07 13:54:17.570809,-2,2025-11-07 13:54:22.688392615
2025-11-07 13:54:17.570809,-308,2025-11-07 13:54:22.696084923
2025-11-07 13:54:17.570809,-7425,2025-11-07 13:54:22.703777231
2025-11-07 13:54:17.570809,-2,2025-11-07 13:54:22.711469538
2025-11-07 13:54:17.570809,-238,2025-11-07 13:54:22.719161846
2025-11-07 13:54:17.570809,9215,2025-11-07 13:54:22.726854154
2025-11-07 13:54:17.570809,-1,2025-11-07 13:54:22.734546462
2025-11-07 13:54:17.570809,-236,2025-11-07 13:54:22.742238769
2025-11-07 13:54:17.570809,4351,2025-11-07 13:54:22.749931077
2025-11-07 13:54:17.570809,-1,2025-11-07 13:54:22.757623385
2025-11-07 13:54:17.570809,-228,2025-11-07 13:54:22.765315692
2025-11-07 13:54:17.570809,8447,2025-11-07 13:54:22.773008000
2025-11-07 13:54:17.570809,-1,2025-11-07 13:54:22.780700308
2025-11-07 13:54:17.570809,-221,2025-11-07 13:54:22.788392615
2025-11-07 13:54:17.570809,7423,2025-11-07 13:54:22.796084923
2025-11-07 13:54:17.570809,-1,2025-11-07 13:54:22.803777231
2025-11-07 13:54:17.570809,-243,2025-11-07 13:54:22.811469538
2025-11-07 13:54:17.570809,-769,2025-11-07 13:54:22.819161846
2025-11-07 13:54:17.570809,-2,2025-11-07 13:54:22.826854154
2025-11-07 13:54:17.570809,-238,2025-11-07 13:54:22.834546462
2025-11-07 13:54:17.570809,21503,2025-11-07 13:54:22.842238769
2025-11-07 13:54:17.570809,-1,2025-11-07 13:54:22.849931077
2025-11-07 13:54:17.570809,-192,2025-11-07 13:54:22.857623385
2025-11-07 13:54:17.570809,1791,2025-11-07 13:54:22.865315692
2025-11-07 13:54:17.570809,-1,2025-11-07 13:54:22.873008000
2025-11-07 13:54:17.570809,-228,2025-11-07 13:54:22.880700308
2025-11-07 13:54:17.570809,8447,2025-11-07 13:54:22.888392615
2025-11-07 13:54:17.570809,-1,2025-11-07 13:54:22.896084923
2025-11-07 13:54:17.570809,-260,2025-11-07 13:54:22.903777231
2025-11-07 13:54:17.570809,511,2025-11-07 13:54:22.911469538
2025-11-07 13:54:17.570809,-1,2025-11-07 13:54:22.919161846
2025-11-07 13:54:17.570809,-252,2025-11-07 13:54:22.926854154
2025-11-07 13:54:17.570809,1791,2025-11-07 13:54:22.934546462
2025-11-07 13:54:17.570809,-1,2025-11-07 13:54:22.942238769
2025-11-07 13:54:17.570809,-224,2025-11-07 13:54:22.949931077
2025-11-07 13:54:17.570809,5375,2025-11-07 13:54:22.957623385
2025-11-07 13:54:17.570809,-1,2025-11-07 13:54:22.965315692
2025-11-07 13:54:17.570809,-279,2025-11-07 13:54:22.973008000
2025-11-07 13:54:17.570809,-10497,2025-11-07 13:54:22.980700308
2025-11-07 13:54:17.570809,-2,2025-11-07 13:54:22.988392615
2025-11-07 13:54:17.570809,-291,2025-11-07 13:54:22.996084923
2025-11-07 13:54:17.570809,-5633,2025-11-07 13:54:23.003777231
2025-11-07 13:54:17.570809,-2,2025-11-07 13:54:23.011469538
2025-11-07 13:54:17.570809,-291,2025-11-07 13:54:23.019161846
2025-11-07 13:54:17.570809,-8193,2025-11-07 13:54:23.026854154
2025-11-07 13:54:17.570809,-2,2025-11-07 13:54:23.034546462
