timestamp,ecg
21:26:55.144615,-16
21:26:55.144615,-4353
21:26:55.144615,-1
21:26:55.144615,-44
21:26:55.144615,-9985
21:26:55.144615,-1
21:26:55.144615,7
21:26:55.144615,5888
21:26:55.144615,0
21:26:55.144615,26
21:26:55.144615,8960
21:26:55.144615,0
21:26:55.144615,26
21:26:55.144615,2816
21:26:55.144615,0
21:26:55.144615,7
21:26:55.144615,2304
21:26:55.144615,0
21:26:55.144615,21
21:26:55.144615,4608
21:26:55.144615,0
21:26:55.144615,9
21:26:55.144615,-1024
21:26:55.144615,-1
21:26:55.144615,-78
21:26:55.144615,15615
21:26:55.144615,-1
21:26:55.144615,-85
21:26:55.144615,5375
21:26:55.144615,2
21:26:55.144615,1335
21:26:55.144615,20224
21:26:55.144615,5
21:26:55.144615,502
21:26:55.144615,-19968
21:26:55.144615,-1
21:26:55.144615,-59
21:26:55.144615,-19713
21:26:55.144615,-1
21:26:55.144615,-187
21:26:55.144615,24063
21:26:55.144615,-1
21:26:55.144615,-125
21:26:55.144615,26623
21:26:55.144615,-1
21:26:55.144615,-168
21:26:55.144615,28927
21:26:55.144615,-1
21:26:55.144615,-125
21:26:55.144615,31999
21:26:55.144615,-1
21:26:55.144615,-142
21:26:55.144615,30719
21:26:55.144615,-1
21:26:55.144615,-137
21:26:55.144615,25855
21:26:55.144615,-1
21:26:55.144615,-161
21:26:55.144615,27647
21:26:55.144615,-1
21:26:55.144615,-161
21:26:55.144615,20991
21:26:55.144615,-1
21:26:55.144615,-172
21:26:55.144615,22271
21:26:55.144615,-1
21:26:55.144615,-158
21:26:55.144615,31487
21:26:55.144615,-1
21:26:55.144615,-125
21:26:55.144615,-29953
21:26:55.144615,-1
21:26:55.144615,-97
21:26:55.144615,-20225
21:26:55.144615,-1
21:26:55.144615,-73
21:26:55.144615,-14081
21:26:55.144615,-1
21:26:55.144615,-49
21:26:55.144615,-10497
21:26:55.144615,-1
21:26:55.144615,-28
21:26:55.144615,-8193
21:26:55.144615,-1
21:26:55.144615,-37
21:26:55.144615,-4353
21:26:55.144615,-1
21:26:55.144615,-7
21:26:55.144615,-6913
21:26:55.144615,-1
21:26:55.144615,-44
21:26:55.144615,-8193
21:26:55.144615,-1
21:26:55.144615,-21
21:26:55.144615,-6913
21:26:55.144615,-1
21:26:55.144615,-23
21:26:55.144615,-5121
21:26:55.144615,-1
21:26:55.144615,-35
21:26:55.144615,-9217
21:26:55.144615,-1
21:26:55.144615,-23
21:26:55.144615,-4353
21:26:55.144615,-1
21:26:55.144615,-18
21:26:55.144615,-3329
21:26:55.144615,-1
21:26:55.144615,-16
21:26:55.744969,-14
21:26:55.744969,-1537
21:26:55.744969,-1
21:26:55.744969,-16
21:26:55.744969,-5633
21:26:55.744969,-1
21:26:55.744969,-7
21:26:55.744969,2047
21:26:55.744969,0
21:26:55.744969,-4
21:26:55.744969,-3841
21:26:55.744969,-1
21:26:55.744969,-9
21:26:55.744969,255
21:26:55.744969,0
21:26:55.744969,2
21:26:55.744969,2816
21:26:55.744969,0
21:26:55.744969,26
21:26:55.744969,4608
21:26:55.744969,0
21:26:55.744969,-2
21:26:55.744969,2047
21:26:55.744969,0
21:26:55.744969,14
21:26:55.744969,1024
21:26:55.744969,0
21:26:55.744969,9
21:26:55.744969,3584
21:26:55.744969,0
21:26:55.744969,2
21:26:55.744969,-3584
21:26:55.744969,-1
21:26:55.744969,-23
21:26:55.744969,-5121
21:26:55.744969,-1
21:26:55.744969,14
21:26:55.744969,12032
21:26:55.744969,0
21:26:55.744969,33
21:26:55.744969,2304
21:26:55.744969,0
21:26:55.744969,9
21:26:55.744969,2304
21:26:55.744969,0
21:26:55.744969,7
21:26:55.744969,2816
21:26:55.744969,0
21:26:55.744969,4
21:26:55.744969,-3584
21:26:55.744969,-1
21:26:55.744969,-11
21:26:55.744969,-9985
21:26:55.744969,-1
21:26:55.744969,-153
21:26:55.744969,20479
21:26:55.744969,-1
21:26:55.744969,182
21:26:55.744969,28160
21:26:55.744969,3
21:26:55.744969,1269
21:26:55.744969,3328
21:26:55.744969,3
21:26:55.744969,61
21:26:55.744969,-20480
21:26:55.744969,-1
21:26:55.744969,-40
21:26:55.744969,25855
21:26:55.744969,-1
21:26:55.744969,-175
21:26:55.744969,-28673
21:26:55.744969,-1
21:26:55.744969,-120
21:26:55.744969,29439
21:26:55.744969,-1
21:26:55.744969,-146
21:26:55.744969,28415
21:26:55.744969,-1
21:26:55.744969,-125
21:26:55.744969,-29953
21:26:55.744969,-1
21:26:55.744969,-137
21:26:55.744969,31999
21:26:55.744969,-1
21:26:55.744969,-111
21:26:55.744969,-27393
21:26:55.744969,-1
21:26:55.744969,-123
21:26:55.744969,30207
21:26:55.744969,-1
21:26:55.744969,-132
21:26:55.744969,-28673
21:26:55.744969,-1
21:26:55.744969,-113
21:26:55.744969,-28161
21:26:55.744969,-1
21:26:55.744969,-101
21:26:55.744969,-23297
21:26:55.744969,-1
21:26:55.744969,-73
21:26:55.744969,-14849
21:26:55.744969,-1
21:26:55.744969,-66
21:26:55.744969,-13569
21:26:55.744969,-1
21:26:55.744969,-33
21:26:55.744969,-12289
21:26:55.744969,-1
21:26:55.744969,-75
21:26:56.244946,-52
21:26:56.244946,-7425
21:26:56.244946,-1
21:26:56.244946,-33
21:26:56.244946,-5633
21:26:56.244946,-1
21:26:56.244946,-23
21:26:56.244946,-9217
21:26:56.244946,-1
21:26:56.244946,-33
21:26:56.244946,-6913
21:26:56.244946,-1
21:26:56.244946,-35
21:26:56.244946,-8193
21:26:56.244946,-1
21:26:56.244946,-26
21:26:56.244946,-6401
21:26:56.244946,-1
21:26:56.244946,-26
21:26:56.244946,-3329
21:26:56.244946,-1
21:26:56.244946,4
21:26:56.244946,2304
21:26:56.244946,0
21:26:56.244946,-4
21:26:56.244946,-257
21:26:56.244946,-1
21:26:56.244946,28
21:26:56.244946,8448
21:26:56.244946,0
21:26:56.244946,4
21:26:56.244946,1792
21:26:56.244946,0
21:26:56.244946,40
21:26:56.244946,7168
21:26:56.244946,0
21:26:56.244946,2
21:26:56.244946,4096
21:26:56.244946,0
21:26:56.244946,18
21:26:56.244946,3584
21:26:56.244946,0
21:26:56.244946,33
21:26:56.244946,10752
21:26:56.244946,0
21:26:56.244946,33
21:26:56.244946,4608
21:26:56.244946,0
21:26:56.244946,21
21:26:56.244946,7680
21:26:56.244946,0
21:26:56.244946,30
21:26:56.244946,2816
21:26:56.244946,0
21:26:56.244946,0
21:26:56.244946,3584
21:26:56.244946,0
21:26:56.244946,30
21:26:56.244946,2816
21:26:56.244946,0
21:26:56.244946,-14
21:26:56.244946,-769
21:26:56.244946,-1
21:26:56.244946,0
21:26:56.244946,-8960
21:26:56.244946,-1
21:26:56.244946,-54
21:26:56.244946,-769
21:26:56.244946,-1
21:26:56.244946,47
21:26:56.244946,7168
21:26:56.244946,0
21:26:56.244946,-7
21:26:56.244946,-2049
21:26:56.244946,-1
21:26:56.244946,2
21:26:56.244946,1792
21:26:56.244946,0
21:26:56.244946,2
21:26:56.244946,-2816
21:26:56.244946,-1
21:26:56.244946,-14
21:26:56.244946,-1537
21:26:56.244946,-1
21:26:56.244946,-61
21:26:56.244946,17407
21:26:56.244946,-1
21:26:56.244946,-168
21:26:56.244946,-513
21:26:56.244946,0
21:26:56.244946,959
21:26:56.244946,-1536
21:26:56.244946,4
21:26:56.244946,719
21:26:56.244946,7168
21:26:56.244946,0
21:26:56.244946,-85
21:26:56.244946,-15361
21:26:56.244946,-1
21:26:56.244946,-149
21:26:56.244946,28415
21:26:56.244946,-1
21:26:56.244946,-125
21:26:56.244946,25855
21:26:56.244946,-1
21:26:56.244946,-144
21:26:56.244946,-29441
21:26:56.244946,-1
21:26:56.244946,-127
21:26:56.845885,-139
21:26:56.845885,-30465
21:26:56.845885,-1
21:26:56.845885,-106
21:26:56.845885,-31233
21:26:56.845885,-1
21:26:56.845885,-137
21:26:56.845885,-32257
21:26:56.845885,-1
21:26:56.845885,-120
21:26:56.845885,-29441
21:26:56.845885,-1
21:26:56.845885,-97
21:26:56.845885,-21505
21:26:56.845885,-1
21:26:56.845885,-97
21:26:56.845885,-26369
21:26:56.845885,-1
21:26:56.845885,-94
21:26:56.845885,-19713
21:26:56.845885,-1
21:26:56.845885,-63
21:26:56.845885,-15873
21:26:56.845885,-1
21:26:56.845885,-59
21:26:56.845885,-10497
21:26:56.845885,-1
21:26:56.845885,-37
21:26:56.845885,-7425
21:26:56.845885,-1
21:26:56.845885,-21
21:26:56.845885,-3329
21:26:56.845885,-1
21:26:56.845885,-14
21:26:56.845885,-6401
21:26:56.845885,-1
21:26:56.845885,-26
21:26:56.845885,-769
21:26:56.845885,-1
21:26:56.845885,-11
21:26:56.845885,-7425
21:26:56.845885,-1
21:26:56.845885,-16
21:26:56.845885,-2561
21:26:56.845885,-1
21:26:56.845885,-28
21:26:56.845885,-7425
21:26:56.845885,-1
21:26:56.845885,-16
21:26:56.845885,-4353
21:26:56.845885,-1
21:26:56.845885,-23
21:26:56.845885,-1537
21:26:56.845885,-1
21:26:56.845885,4
21:26:56.845885,-2816
21:26:56.845885,-1
21:26:56.845885,-28
21:26:56.845885,-6913
21:26:56.845885,-1
21:26:56.845885,-44
21:26:56.845885,-18433
21:26:56.845885,-1
21:26:56.845885,-52
21:26:56.845885,255
21:26:56.845885,0
21:26:56.845885,0
21:26:56.845885,-2816
21:26:56.845885,-1
21:26:56.845885,2
21:26:56.845885,-512
21:26:56.845885,-1
21:26:56.845885,-23
21:26:56.845885,-3841
21:26:56.845885,-1
21:26:56.845885,0
21:26:56.845885,-1792
21:26:56.845885,-1
21:26:56.845885,-14
21:26:56.845885,255
21:26:56.845885,0
21:26:56.845885,-2
21:26:56.845885,-5121
21:26:56.845885,-1
21:26:56.845885,-30
21:26:56.845885,-6401
21:26:56.845885,-1
21:26:56.845885,-33
21:26:56.845885,-9985
21:26:56.845885,-1
21:26:56.845885,-21
21:26:56.845885,3071
21:26:56.845885,0
21:26:56.845885,23
21:26:56.845885,2304
21:26:56.845885,0
21:26:56.845885,-11
21:26:56.845885,-5633
21:26:56.845885,-1
21:26:56.845885,-21
21:26:56.845885,-2561
21:26:56.845885,-1
21:26:56.845885,0
21:26:56.845885,1024
21:26:56.845885,0
21:26:56.845885,-11
21:26:56.845885,-8193
21:26:56.845885,-1
21:26:56.845885,-106
21:26:57.344236,-198
21:26:57.344236,-16641
21:26:57.344236,-1
21:26:57.344236,464
21:26:57.344236,13568
21:26:57.344236,4
21:26:57.344236,1060
21:26:57.344236,29440
21:26:57.344236,1
21:26:57.344236,-78
21:26:57.344236,-14081
21:26:57.344236,-1
21:26:57.344236,-75
21:26:57.344236,27135
21:26:57.344236,-1
21:26:57.344236,-132
21:26:57.344236,-32257
21:26:57.344236,-1
21:26:57.344236,-139
21:26:57.344236,-28161
21:26:57.344236,-1
21:26:57.344236,-101
21:26:57.344236,-28673
21:26:57.344236,-1
21:26:57.344236,-94
21:26:57.344236,-18945
21:26:57.344236,-1
21:26:57.344236,-94
21:26:57.344236,-28161
21:26:57.344236,-1
21:26:57.344236,-106
21:26:57.344236,-22529
21:26:57.344236,-1
21:26:57.344236,-78
21:26:57.344236,-18945
21:26:57.344236,-1
21:26:57.344236,-75
21:26:57.344236,-20737
21:26:57.344236,-1
21:26:57.344236,-97
21:26:57.344236,-27393
21:26:57.344236,-1
21:26:57.344236,-130
21:26:57.344236,-25089
21:26:57.344236,-1
21:26:57.344236,-35
21:26:57.344236,-7425
21:26:57.344236,-1
21:26:57.344236,-42
21:26:57.344236,-6913
21:26:57.344236,-1
21:26:57.344236,-26
21:26:57.344236,-10497
21:26:57.344236,-1
21:26:57.344236,-54
21:26:57.344236,-8193
21:26:57.344236,-1
21:26:57.344236,-30
21:26:57.344236,-14849
21:26:57.344236,-1
21:26:57.344236,-49
21:26:57.344236,-6913
21:26:57.344236,-1
21:26:57.344236,-37
21:26:57.344236,-10497
21:26:57.344236,-1
21:26:57.344236,-35
21:26:57.344236,-5633
21:26:57.344236,-1
21:26:57.344236,-4
21:26:57.344236,-257
21:26:57.344236,-1
21:26:57.344236,-23
21:26:57.344236,-8193
21:26:57.344236,-1
21:26:57.344236,-30
21:26:57.344236,-2049
21:26:57.344236,-1
21:26:57.344236,2
21:26:57.344236,1024
21:26:57.344236,0
21:26:57.344236,0
21:26:57.344236,-6656
21:26:57.344236,-1
21:26:57.344236,-33
21:26:57.344236,-2049
21:26:57.344236,-1
21:26:57.344236,-9
21:26:57.344236,-4353
21:26:57.344236,-1
21:26:57.344236,-16
21:26:57.344236,-4353
21:26:57.344236,-1
21:26:57.344236,-14
21:26:57.344236,-2561
21:26:57.344236,-1
21:26:57.344236,-23
21:26:57.344236,-7425
21:26:57.344236,-1
21:26:57.344236,-40
21:26:57.344236,-14849
21:26:57.344236,-1
21:26:57.344236,-44
21:26:57.344236,-257
21:26:57.344236,-1
21:26:57.344236,23
21:26:57.344236,5376
21:26:57.344236,0
21:26:57.344236,-7
21:26:57.895026,-28
21:26:57.895026,-3841
21:26:57.895026,-1
21:26:57.895026,0
21:26:57.895026,1024
21:26:57.895026,0
21:26:57.895026,4
21:26:57.895026,-1024
21:26:57.895026,-1
21:26:57.895026,-11
21:26:57.895026,-3329
21:26:57.895026,-1
21:26:57.895026,-85
21:26:57.895026,16127
21:26:57.895026,-1
21:26:57.895026,-49
21:26:57.895026,-12033
21:26:57.895026,1
21:26:57.895026,973
21:26:57.895026,-23296
21:26:57.895026,3
21:26:57.895026,341
21:26:57.895026,-12544
21:26:57.895026,-1
21:26:57.895026,-11
21:26:57.895026,-13057
21:26:57.895026,-1
21:26:57.895026,-161
21:26:57.895026,-31233
21:26:57.895026,-1
21:26:57.895026,-92
21:26:57.895026,-31745
21:26:57.895026,-1
21:26:57.895026,-123
21:26:57.895026,-23809
21:26:57.895026,-1
21:26:57.895026,-87
21:26:57.895026,-23297
21:26:57.895026,-1
21:26:57.895026,-97
21:26:57.895026,-24577
21:26:57.895026,-1
21:26:57.895026,-92
21:26:57.895026,-23297
21:26:57.895026,-1
21:26:57.895026,-94
21:26:57.895026,-22529
21:26:57.895026,-1
21:26:57.895026,-85
21:26:57.895026,-19713
21:26:57.895026,-1
21:26:57.895026,-80
21:26:57.895026,-18945
21:26:57.895026,-1
21:26:57.895026,-44
21:26:57.895026,-6401
21:26:57.895026,-1
21:26:57.895026,-28
21:26:57.895026,-2561
21:26:57.895026,-1
21:26:57.895026,-7
21:26:57.895026,-9217
21:26:57.895026,-1
21:26:57.895026,-52
21:26:57.895026,-9985
21:26:57.895026,-1
21:26:57.895026,-35
21:26:57.895026,-11009
21:26:57.895026,-1
21:26:57.895026,-47
21:26:57.895026,-9985
21:26:57.895026,-1
21:26:57.895026,-49
21:26:57.895026,-14849
21:26:57.895026,-1
21:26:57.895026,-44
21:26:57.895026,-7425
21:26:57.895026,-1
21:26:57.895026,-35
21:26:57.895026,-10497
21:26:57.895026,-1
21:26:57.895026,-40
21:26:57.895026,-11777
21:26:57.895026,-1
21:26:57.895026,-42
21:26:57.895026,-3841
21:26:57.895026,-1
21:26:57.895026,-18
21:26:57.895026,-8705
21:26:57.895026,-1
21:26:57.895026,-26
21:26:57.895026,-5121
21:26:57.895026,-1
21:26:57.895026,-30
21:26:57.895026,-6913
21:26:57.895026,-1
21:26:57.895026,-18
21:26:57.895026,-257
21:26:57.895026,-1
21:26:57.895026,11
21:26:57.895026,0
21:26:57.895026,0
21:26:57.895026,-14
21:26:57.895026,-7425
21:26:57.895026,-1
21:26:57.895026,-54
21:26:57.895026,-14081
21:26:57.895026,-1
21:26:57.895026,-30
21:26:58.494547,-7
21:26:58.494547,3839
21:26:58.494547,0
21:26:58.494547,26
21:26:58.494547,5376
21:26:58.494547,0
21:26:58.494547,18
21:26:58.494547,2304
21:26:58.494547,0
21:26:58.494547,-2
21:26:58.494547,2047
21:26:58.494547,0
21:26:58.494547,11
21:26:58.494547,1792
21:26:58.494547,0
21:26:58.494547,9
21:26:58.494547,-4096
21:26:58.494547,-1
21:26:58.494547,-120
21:26:58.494547,9471
21:26:58.494547,-1
21:26:58.494547,-18
21:26:58.494547,22527
21:26:58.494547,2
21:26:58.494547,1160
21:26:58.494547,-13056
21:26:58.494547,3
21:26:58.494547,253
21:26:58.494547,-18688
21:26:58.494547,-1
21:26:58.494547,-23
21:26:58.494547,-25601
21:26:58.494547,-1
21:26:58.494547,-165
21:26:58.494547,-30465
21:26:58.494547,-1
21:26:58.494547,-127
21:26:58.494547,25343
21:26:58.494547,-1
21:26:58.494547,-146
21:26:58.494547,32511
21:26:58.494547,-1
21:26:58.494547,-125
21:26:58.494547,-29953
21:26:58.494547,-1
21:26:58.494547,-118
21:26:58.494547,-29953
21:26:58.494547,-1
21:26:58.494547,-116
21:26:58.494547,-29953
21:26:58.494547,-1
21:26:58.494547,-130
21:26:58.494547,31487
21:26:58.494547,-1
21:26:58.494547,-139
21:26:58.494547,28927
21:26:58.494547,-1
21:26:58.494547,-134
21:26:58.494547,-28673
21:26:58.494547,-1
21:26:58.494547,-97
21:26:58.494547,-23297
21:26:58.494547,-1
21:26:58.494547,-92
21:26:58.494547,-20737
21:26:58.494547,-1
21:26:58.494547,-63
21:26:58.494547,-15361
21:26:58.494547,-1
21:26:58.494547,-71
21:26:58.494547,-17921
21:26:58.494547,-1
21:26:58.494547,-63
21:26:58.494547,-14081
21:26:58.494547,-1
21:26:58.494547,-40
21:26:58.494547,-6401
21:26:58.494547,-1
21:26:58.494547,-16
21:26:58.494547,-5121
21:26:58.494547,-1
21:26:58.494547,-35
21:26:58.494547,-8705
21:26:58.494547,-1
21:26:58.494547,-30
21:26:58.494547,-8705
21:26:58.494547,-1
21:26:58.494547,-30
21:26:58.494547,-5633
21:26:58.494547,-1
21:26:58.494547,-23
21:26:58.494547,-5121
21:26:58.494547,-1
21:26:58.494547,-14
21:26:58.494547,-5121
21:26:58.494547,-1
21:26:58.494547,-16
21:26:58.494547,-257
21:26:58.494547,-1
21:26:58.494547,-9
21:26:58.494547,-3841
21:26:58.494547,-1
21:26:58.494547,2
21:26:58.494547,4096
21:26:58.494547,0
21:26:58.494547,-2
21:26:58.494547,-5121
21:26:58.494547,-1
21:26:58.494547,-23
21:26:59.044727,-26
21:26:59.044727,-9985
21:26:59.044727,-1
21:26:59.044727,-35
21:26:59.044727,2559
21:26:59.044727,0
21:26:59.044727,44
21:26:59.044727,7168
21:26:59.044727,0
21:26:59.044727,-4
21:26:59.044727,-1537
21:26:59.044727,-1
21:26:59.044727,7
21:26:59.044727,4608
21:26:59.044727,0
21:26:59.044727,23
21:26:59.044727,5376
21:26:59.044727,0
21:26:59.044727,21
21:26:59.044727,5376
21:26:59.044727,0
21:26:59.044727,-4
21:26:59.044727,-26881
21:26:59.044727,-1
21:26:59.044727,-198
21:26:59.044727,2047
21:26:59.044727,0
21:26:59.044727,672
21:26:59.044727,14848
21:26:59.044727,5
21:26:59.044727,1155
21:26:59.044727,16128
21:26:59.044727,1
21:26:59.044727,-99
21:26:59.044727,-14081
21:26:59.044727,-1
21:26:59.044727,-108
21:26:59.044727,20991
21:26:59.044727,-1
21:26:59.044727,-132
21:26:59.044727,32511
21:26:59.044727,-1
21:26:59.044727,-153
21:26:59.044727,30719
21:26:59.044727,-1
21:26:59.044727,-127
21:26:59.044727,31487
21:26:59.044727,-1
21:26:59.044727,-132
21:26:59.044727,31999
21:26:59.044727,-1
21:26:59.044727,-137
21:26:59.044727,30719
21:26:59.044727,-1
21:26:59.044727,-137
21:26:59.044727,28927
21:26:59.044727,-1
21:26:59.044727,-149
21:26:59.044727,26623
21:26:59.044727,-1
21:26:59.044727,-158
21:26:59.044727,25855
21:26:59.044727,-1
21:26:59.044727,-153
21:26:59.044727,27135
21:26:59.044727,-1
21:26:59.044727,-139
21:26:59.044727,-29953
21:26:59.044727,-1
21:26:59.044727,-99
21:26:59.044727,-20737
21:26:59.044727,-1
21:26:59.044727,-73
21:26:59.044727,-15361
21:26:59.044727,-1
21:26:59.044727,-47
21:26:59.044727,-9217
21:26:59.044727,-1
21:26:59.044727,-33
21:26:59.044727,-7425
21:26:59.044727,-1
21:26:59.044727,-21
21:26:59.044727,-3329
21:26:59.044727,-1
21:26:59.044727,-11
21:26:59.044727,-3841
21:26:59.044727,-1
21:26:59.044727,-21
21:26:59.044727,-5633
21:26:59.044727,-1
21:26:59.044727,-26
21:26:59.044727,-6401
21:26:59.044727,-1
21:26:59.044727,-23
21:26:59.044727,-6913
21:26:59.044727,-1
21:26:59.044727,-33
21:26:59.044727,-8193
21:26:59.044727,-1
21:26:59.044727,-30
21:26:59.044727,-6913
21:26:59.044727,-1
21:26:59.044727,-23
21:26:59.044727,-3841
21:26:59.044727,-1
21:26:59.044727,-14
21:26:59.044727,-3841
21:26:59.044727,-1
21:26:59.044727,-18
21:26:59.594686,-23
21:26:59.594686,-7425
21:26:59.594686,-1
21:26:59.594686,-40
21:26:59.594686,-13057
21:26:59.594686,-1
21:26:59.594686,-49
21:26:59.594686,-3329
21:26:59.594686,-1
21:26:59.594686,28
21:26:59.594686,8960
21:26:59.594686,0
21:26:59.594686,16
21:26:59.594686,512
21:26:59.594686,0
21:26:59.594686,0
21:26:59.594686,1024
21:26:59.594686,0
21:26:59.594686,7
21:26:59.594686,1024
21:26:59.594686,0
21:26:59.594686,7
21:26:59.594686,1024
21:26:59.594686,0
21:26:59.594686,-14
21:26:59.594686,-23809
21:26:59.594686,-1
21:26:59.594686,-198
21:26:59.594686,-18433
21:26:59.594686,-1
21:26:59.594686,473
21:26:59.594686,22784
21:26:59.594686,4
21:26:59.594686,1103
21:26:59.594686,-25088
21:26:59.594686,1
21:26:59.594686,-63
21:26:59.594686,-18433
21:26:59.594686,-1
21:26:59.594686,-99
21:26:59.594686,20479
21:26:59.594686,-1
21:26:59.594686,-151
21:26:59.594686,31487
21:26:59.594686,-1
21:26:59.594686,-158
21:26:59.594686,27647
21:26:59.594686,-1
21:26:59.594686,-130
21:26:59.594686,30207
21:26:59.594686,-1
21:26:59.594686,-144
21:26:59.594686,30719
21:26:59.594686,-1
21:26:59.594686,-134
21:26:59.594686,31999
21:26:59.594686,-1
21:26:59.594686,-125
21:26:59.594686,-31233
21:26:59.594686,-1
21:26:59.594686,-130
21:26:59.594686,31487
21:26:59.594686,-1
21:26:59.594686,-127
21:26:59.594686,-31233
21:26:59.594686,-1
21:26:59.594686,-130
21:26:59.594686,-29953
21:26:59.594686,-1
21:26:59.594686,-94
21:26:59.594686,-23297
21:26:59.594686,-1
21:26:59.594686,-94
21:26:59.594686,-20737
21:26:59.594686,-1
21:26:59.594686,-73
21:26:59.594686,-18433
21:26:59.594686,-1
21:26:59.594686,-66
21:26:59.594686,-12289
21:26:59.594686,-1
21:26:59.594686,-44
21:26:59.594686,-11777
21:26:59.594686,-1
21:26:59.594686,-33
21:26:59.594686,-5633
21:26:59.594686,-1
21:26:59.594686,-35
21:26:59.594686,-9985
21:26:59.594686,-1
21:26:59.594686,-28
21:26:59.594686,-3841
21:26:59.594686,-1
21:26:59.594686,-28
21:26:59.594686,-9217
21:26:59.594686,-1
21:26:59.594686,-26
21:26:59.594686,-5121
21:26:59.594686,-1
21:26:59.594686,-30
21:26:59.594686,-7425
21:26:59.594686,-1
21:26:59.594686,-30
21:26:59.594686,-6401
21:26:59.594686,-1
21:26:59.594686,-14
21:26:59.594686,-3329
21:26:59.594686,-1
21:26:59.594686,-18
21:27:00.145004,-16
21:27:00.145004,-3329
21:27:00.145004,-1
21:27:00.145004,-23
21:27:00.145004,-10497
21:27:00.145004,-1
21:27:00.145004,-54
21:27:00.145004,-13569
21:27:00.145004,-1
21:27:00.145004,-37
21:27:00.145004,1279
21:27:00.145004,0
21:27:00.145004,42
21:27:00.145004,8960
21:27:00.145004,0
21:27:00.145004,2
21:27:00.145004,-1792
21:27:00.145004,-1
21:27:00.145004,0
21:27:00.145004,-512
21:27:00.145004,-1
21:27:00.145004,-9
21:27:00.145004,-2049
21:27:00.145004,-1
21:27:00.145004,-9
21:27:00.145004,-3329
21:27:00.145004,-1
21:27:00.145004,-28
21:27:00.145004,-26881
21:27:00.145004,-1
21:27:00.145004,-213
21:27:00.145004,-18433
21:27:00.145004,-1
21:27:00.145004,483
21:27:00.145004,15872
21:27:00.145004,4
21:27:00.145004,1027
21:27:00.145004,24064
21:27:00.145004,1
21:27:00.145004,-56
21:27:00.145004,-10497
21:27:00.145004,-1
21:27:00.145004,-87
21:27:00.145004,24575
21:27:00.145004,-1
21:27:00.145004,-127
21:27:00.145004,-28161
21:27:00.145004,-1
21:27:00.145004,-125
21:27:00.145004,-29953
21:27:00.145004,-1
21:27:00.145004,-108
21:27:00.145004,-26881
21:27:00.145004,-1
21:27:00.145004,-101
21:27:00.145004,-24577
21:27:00.145004,-1
21:27:00.145004,-94
21:27:00.145004,-24577
21:27:00.145004,-1
21:27:00.145004,-108
21:27:00.145004,-27393
21:27:00.145004,-1
21:27:00.145004,-104
21:27:00.145004,-26881
21:27:00.145004,-1
21:27:00.145004,-113
21:27:00.145004,-27393
21:27:00.145004,-1
21:27:00.145004,-99
21:27:00.145004,-23297
21:27:00.145004,-1
21:27:00.145004,-85
21:27:00.145004,-18433
21:27:00.145004,-1
21:27:00.145004,-63
21:27:00.145004,-15361
21:27:00.145004,-1
21:27:00.145004,-59
21:27:00.145004,-14849
21:27:00.145004,-1
21:27:00.145004,-52
21:27:00.145004,-9985
21:27:00.145004,-1
21:27:00.145004,-37
21:27:00.145004,-8705
21:27:00.145004,-1
21:27:00.145004,-30
21:27:00.145004,-7425
21:27:00.145004,-1
21:27:00.145004,-23
21:27:00.145004,-3841
21:27:00.145004,-1
21:27:00.145004,-18
21:27:00.145004,-5633
21:27:00.145004,-1
21:27:00.145004,-21
21:27:00.145004,-3841
21:27:00.145004,-1
21:27:00.145004,-18
21:27:00.145004,-5633
21:27:00.145004,-1
21:27:00.145004,-14
21:27:00.145004,-1537
21:27:00.145004,-1
21:27:00.145004,-9
21:27:00.145004,-1537
21:27:00.145004,-1
21:27:00.145004,0
21:27:00.894534,-4
21:27:00.894534,-2049
21:27:00.894534,-1
21:27:00.894534,-9
21:27:00.894534,-3329
21:27:00.894534,-1
21:27:00.894534,-21
21:27:00.894534,-5121
21:27:00.894534,-1
21:27:00.894534,-2
21:27:00.894534,7935
21:27:00.894534,0
21:27:00.894534,52
21:27:00.894534,9472
21:27:00.894534,0
21:27:00.894534,11
21:27:00.894534,1792
21:27:00.894534,0
21:27:00.894534,16
21:27:00.894534,4096
21:27:00.894534,0
21:27:00.894534,14
21:27:00.894534,4096
21:27:00.894534,0
21:27:00.894534,16
21:27:00.894534,2304
21:27:00.894534,0
21:27:00.894534,-33
21:27:00.894534,29439
21:27:00.894534,-1
21:27:00.894534,-194
21:27:00.894534,19455
21:27:00.894534,0
21:27:00.894534,672
21:27:00.894534,19712
21:27:00.894534,4
21:27:00.894534,807
21:27:00.894534,-24320
21:27:00.894534,0
21:27:00.894534,-49
21:27:00.894534,-2561
21:27:00.894534,-1
21:27:00.894534,-99
21:27:00.894534,30207
21:27:00.894534,-1
21:27:00.894534,-99
21:27:00.894534,-27393
21:27:00.894534,-1
21:27:00.894534,-125
21:27:00.894534,-26369
21:27:00.894534,-1
21:27:00.894534,-97
21:27:00.894534,-28673
21:27:00.894534,-1
21:27:00.894534,-118
21:27:00.894534,-26881
21:27:00.894534,-1
21:27:00.894534,-99
21:27:00.894534,-23809
21:27:00.894534,-1
21:27:00.894534,-94
21:27:00.894534,-24577
21:27:00.894534,-1
21:27:00.894534,-92
21:27:00.894534,-22529
21:27:00.894534,-1
21:27:00.894534,-94
21:27:00.894534,-23809
21:27:00.894534,-1
21:27:00.894534,-80
21:27:00.894534,-16641
21:27:00.894534,-1
21:27:00.894534,-63
21:27:00.894534,-15361
21:27:00.894534,-1
21:27:00.894534,-49
21:27:00.894534,-11009
21:27:00.894534,-1
21:27:00.894534,-37
21:27:00.894534,-5633
21:27:00.894534,-1
21:27:00.894534,-28
21:27:00.894534,-11009
21:27:00.894534,-1
21:27:00.894534,-28
21:27:00.894534,-2049
21:27:00.894534,-1
21:27:00.894534,-14
21:27:00.894534,-3841
21:27:00.894534,-1
21:27:00.894534,-9
21:27:00.894534,-2049
21:27:00.894534,-1
21:27:00.894534,-33
21:27:00.894534,-9985
21:27:00.894534,-1
21:27:00.894534,-18
21:27:00.894534,-6401
21:27:00.894534,-1
21:27:00.894534,-37
21:27:00.894534,-4353
21:27:00.894534,-1
21:27:00.894534,2
21:27:00.894534,-1792
21:27:00.894534,-1
21:27:00.894534,-21
21:27:00.894534,-769
21:27:00.894534,-1
21:27:00.894534,11
21:27:01.294790,9
21:27:01.294790,-512
21:27:01.294790,-1
21:27:01.294790,-23
21:27:01.294790,-11009
21:27:01.294790,-1
21:27:01.294790,-42
21:27:01.294790,-8193
21:27:01.294790,-1
21:27:01.294790,-11
21:27:01.294790,5631
21:27:01.294790,0
21:27:01.294790,26
21:27:01.294790,1024
21:27:01.294790,0
21:27:01.294790,9
21:27:01.294790,6656
21:27:01.294790,0
21:27:01.294790,16
21:27:01.294790,2304
21:27:01.294790,0
21:27:01.294790,11
21:27:01.294790,2816
21:27:01.294790,0
21:27:01.294790,0
21:27:01.294790,-11264
21:27:01.294790,-1
21:27:01.294790,-156
21:27:01.294790,12543
21:27:01.294790,-1
21:27:01.294790,85
21:27:01.294790,-9472
21:27:01.294790,2
21:27:01.294790,1184
21:27:01.294790,19712
21:27:01.294790,3
21:27:01.294790,158
21:27:01.294790,-15616
21:27:01.294790,-1
21:27:01.294790,-35
21:27:01.294790,31999
21:27:01.294790,-1
21:27:01.294790,-165
21:27:01.294790,-29441
21:27:01.294790,-1
21:27:01.294790,-113
21:27:01.294790,-31745
21:27:01.294790,-1
21:27:01.294790,-113
21:27:01.294790,-28673
21:27:01.294790,-1
21:27:01.294790,-125
21:27:01.294790,32511
21:27:01.294790,-1
21:27:01.294790,-132
21:27:01.294790,30207
21:27:01.294790,-1
21:27:01.294790,-132
21:27:01.294790,-29441
21:27:01.294790,-1
21:27:01.294790,-123
21:27:01.294790,30719
21:27:01.294790,-1
21:27:01.294790,-130
21:27:01.294790,-31745
21:27:01.294790,-1
21:27:01.294790,-132
21:27:01.294790,-32257
21:27:01.294790,-1
21:27:01.294790,-113
21:27:01.294790,-26369
21:27:01.294790,-1
21:27:01.294790,-94
21:27:01.294790,-20225
21:27:01.294790,-1
21:27:01.294790,-68
21:27:01.294790,-14849
21:27:01.294790,-1
21:27:01.294790,-47
21:27:01.294790,-9985
21:27:01.294790,-1
21:27:01.294790,-28
21:27:01.294790,-3329
21:27:01.294790,-1
21:27:01.294790,-11
21:27:01.294790,-2561
21:27:01.294790,-1
21:27:01.294790,-16
21:27:01.294790,-6913
21:27:01.294790,-1
21:27:01.294790,-35
21:27:01.294790,-9217
21:27:01.294790,-1
21:27:01.294790,-47
21:27:01.294790,-13057
21:27:01.294790,-1
21:27:01.294790,-37
21:27:01.294790,-8705
21:27:01.294790,-1
21:27:01.294790,-52
21:27:01.294790,-12289
21:27:01.294790,-1
21:27:01.294790,-40
21:27:01.294790,-13057
21:27:01.294790,-1
21:27:01.294790,-89
21:27:01.294790,-29953
21:27:01.294790,-1
21:27:01.294790,-123
21:27:01.994063,-125
21:27:01.994063,31999
21:27:01.994063,-1
21:27:01.994063,-127
21:27:01.994063,-26369
21:27:01.994063,-1
21:27:01.994063,-61
21:27:01.994063,-6913
21:27:01.994063,-1
21:27:01.994063,-35
21:27:01.994063,-11009
21:27:01.994063,-1
21:27:01.994063,-11
21:27:01.994063,11519
21:27:01.994063,0
21:27:01.994063,80
21:27:01.994063,20992
21:27:01.994063,0
21:27:01.994063,89
21:27:01.994063,23552
21:27:01.994063,0
21:27:01.994063,61
21:27:01.994063,-7680
21:27:01.994063,-1
21:27:01.994063,-203
21:27:01.994063,7679
21:27:01.994063,-1
21:27:01.994063,201
21:27:01.994063,-17920
21:27:01.994063,3
21:27:01.994063,1409
21:27:01.994063,-8192
21:27:01.994063,3
21:27:01.994063,224
21:27:01.994063,-8960
21:27:01.994063,-1
21:27:01.994063,-4
21:27:01.994063,-20737
21:27:01.994063,-1
21:27:01.994063,-125
21:27:01.994063,-23297
21:27:01.994063,-1
21:27:01.994063,-101
21:27:01.994063,-28673
21:27:01.994063,-1
21:27:01.994063,-101
21:27:01.994063,-25089
21:27:01.994063,-1
21:27:01.994063,-104
21:27:01.994063,-25601
21:27:01.994063,-1
21:27:01.994063,-104
21:27:01.994063,-26881
21:27:01.994063,-1
21:27:01.994063,-108
21:27:01.994063,-29441
21:27:01.994063,-1
21:27:01.994063,-125
21:27:01.994063,32511
21:27:01.994063,-1
21:27:01.994063,-137
21:27:01.994063,28927
21:27:01.994063,-1
21:27:01.994063,-139
21:27:01.994063,31999
21:27:01.994063,-1
21:27:01.994063,-123
21:27:01.994063,-26881
21:27:01.994063,-1
21:27:01.994063,-92
21:27:01.994063,-19713
21:27:01.994063,-1
21:27:01.994063,-66
21:27:01.994063,-14081
21:27:01.994063,-1
21:27:01.994063,-40
21:27:01.994063,-7425
21:27:01.994063,-1
21:27:01.994063,-33
21:27:01.994063,-5121
21:27:01.994063,-1
21:27:01.994063,2
21:27:01.994063,1024
21:27:01.994063,0
21:27:01.994063,-2
21:27:01.994063,255
21:27:01.994063,0
21:27:01.994063,2
21:27:01.994063,0
21:27:01.994063,0
21:27:01.994063,-2
21:27:01.994063,-769
21:27:01.994063,-1
21:27:01.994063,-9
21:27:01.994063,-1537
21:27:01.994063,-1
21:27:01.994063,0
21:27:01.994063,1792
21:27:01.994063,0
21:27:01.994063,9
21:27:01.994063,2304
21:27:01.994063,0
21:27:01.994063,11
21:27:01.994063,3584
21:27:01.994063,0
21:27:01.994063,14
21:27:01.994063,2816
21:27:01.994063,0
21:27:01.994063,2
21:27:02.490702,-9
21:27:02.490702,-2049
21:27:02.490702,-1
21:27:02.490702,-9
21:27:02.490702,-3841
21:27:02.490702,-1
21:27:02.490702,-7
21:27:02.490702,7423
21:27:02.490702,0
21:27:02.490702,52
21:27:02.490702,10240
21:27:02.490702,0
21:27:02.490702,18
21:27:02.490702,2816
21:27:02.490702,0
21:27:02.490702,21
21:27:02.490702,7168
21:27:02.490702,0
21:27:02.490702,28
21:27:02.490702,6656
21:27:02.490702,0
21:27:02.490702,26
21:27:02.490702,5888
21:27:02.490702,0
21:27:02.490702,-18
21:27:02.490702,30719
21:27:02.490702,-1
21:27:02.490702,-179
21:27:02.490702,-19457
21:27:02.490702,0
21:27:02.490702,956
21:27:02.490702,-25344
21:27:02.490702,5
21:27:02.490702,959
21:27:02.490702,-24320
21:27:02.490702,0
21:27:02.490702,-87
21:27:02.490702,-15873
21:27:02.490702,-1
21:27:02.490702,-139
21:27:02.490702,24575
21:27:02.490702,-1
21:27:02.490702,-123
21:27:02.490702,-32257
21:27:02.490702,-1
21:27:02.490702,-137
21:27:02.490702,-31745
21:27:02.490702,-1
21:27:02.490702,-123
21:27:02.490702,-32257
21:27:02.490702,-1
21:27:02.490702,-127
21:27:02.490702,31999
21:27:02.490702,-1
21:27:02.490702,-137
21:27:02.490702,30719
21:27:02.490702,-1
21:27:02.490702,-134
21:27:02.490702,29439
21:27:02.490702,-1
21:27:02.490702,-149
21:27:02.490702,25855
21:27:02.490702,-1
21:27:02.490702,-158
21:27:02.490702,25855
21:27:02.490702,-1
21:27:02.490702,-149
21:27:02.490702,30719
21:27:02.490702,-1
21:27:02.490702,-125
21:27:02.490702,-29441
21:27:02.490702,-1
21:27:02.490702,-108
21:27:02.490702,-24577
21:27:02.490702,-1
21:27:02.490702,-82
21:27:02.490702,-17153
21:27:02.490702,-1
21:27:02.490702,-49
21:27:02.490702,-9985
21:27:02.490702,-1
21:27:02.490702,-35
21:27:02.490702,-6913
21:27:02.490702,-1
21:27:02.490702,-21
21:27:02.490702,-4353
21:27:02.490702,-1
21:27:02.490702,-18
21:27:02.490702,-4353
21:27:02.490702,-1
21:27:02.490702,-21
21:27:02.490702,-5121
21:27:02.490702,-1
21:27:02.490702,-18
21:27:02.490702,-4353
21:27:02.490702,-1
21:27:02.490702,-18
21:27:02.490702,-5121
21:27:02.490702,-1
21:27:02.490702,-18
21:27:02.490702,-3329
21:27:02.490702,-1
21:27:02.490702,-4
21:27:02.490702,-769
21:27:02.490702,-1
21:27:02.490702,-9
21:27:02.490702,-769
21:27:02.490702,-1
21:27:02.490702,-2
21:27:02.994649,-2
21:27:02.994649,-1537
21:27:02.994649,-1
21:27:02.994649,-9
21:27:02.994649,-257
21:27:02.994649,-1
21:27:02.994649,2
21:27:02.994649,-2304
21:27:02.994649,-1
21:27:02.994649,-14
21:27:02.994649,-3329
21:27:02.994649,-1
21:27:02.994649,-28
21:27:02.994649,-9985
21:27:02.994649,-1
21:27:02.994649,-23
21:27:02.994649,4351
21:27:02.994649,0
21:27:02.994649,37
21:27:02.994649,5888
21:27:02.994649,0
21:27:02.994649,0
21:27:02.994649,-512
21:27:02.994649,-1
21:27:02.994649,9
21:27:02.994649,1024
21:27:02.994649,0
21:27:02.994649,-4
21:27:02.994649,1279
21:27:02.994649,0
21:27:02.994649,7
21:27:02.994649,-2304
21:27:02.994649,-1
21:27:02.994649,-75
21:27:02.994649,17919
21:27:02.994649,-1
21:27:02.994649,-134
21:27:02.994649,19455
21:27:02.994649,1
21:27:02.994649,1025
21:27:02.994649,-16128
21:27:02.994649,4
21:27:02.994649,594
21:27:02.994649,-4096
21:27:02.994649,-1
21:27:02.994649,-78
21:27:02.994649,-16641
21:27:02.994649,-1
21:27:02.994649,-153
21:27:02.994649,27647
21:27:02.994649,-1
21:27:02.994649,-123
21:27:02.994649,28415
21:27:02.994649,-1
21:27:02.994649,-144
21:27:02.994649,-31233
21:27:02.994649,-1
21:27:02.994649,-125
21:27:02.994649,-32257
21:27:02.994649,-1
21:27:02.994649,-125
21:27:02.994649,-31745
21:27:02.994649,-1
21:27:02.994649,-120
21:27:02.994649,-30465
21:27:02.994649,-1
21:27:02.994649,-127
21:27:02.994649,31999
21:27:02.994649,-1
21:27:02.994649,-127
21:27:02.994649,-32257
21:27:02.994649,-1
21:27:02.994649,-127
21:27:02.994649,-29953
21:27:02.994649,-1
21:27:02.994649,-106
21:27:02.994649,-25601
21:27:02.994649,-1
21:27:02.994649,-92
21:27:02.994649,-20737
21:27:02.994649,-1
21:27:02.994649,-73
21:27:02.994649,-17153
21:27:02.994649,-1
21:27:02.994649,-66
21:27:02.994649,-13569
21:27:02.994649,-1
21:27:02.994649,-42
21:27:02.994649,-9985
21:27:02.994649,-1
21:27:02.994649,-33
21:27:02.994649,-5121
21:27:02.994649,-1
21:27:02.994649,-21
21:27:02.994649,-5121
21:27:02.994649,-1
21:27:02.994649,-9
21:27:02.994649,-2561
21:27:02.994649,-1
21:27:02.994649,-18
21:27:02.994649,-2561
21:27:02.994649,-1
21:27:02.994649,-4
21:27:02.994649,-1537
21:27:02.994649,-1
21:27:02.994649,-9
21:27:02.994649,-2049
21:27:02.994649,-1
21:27:02.994649,-4
21:27:03.544809,-2
21:27:03.544809,-257
21:27:03.544809,-1
21:27:03.544809,2
21:27:03.544809,512
21:27:03.544809,0
21:27:03.544809,-4
21:27:03.544809,-769
21:27:03.544809,-1
21:27:03.544809,9
21:27:03.544809,2304
21:27:03.544809,0
21:27:03.544809,2
21:27:03.544809,1024
21:27:03.544809,0
21:27:03.544809,16
21:27:03.544809,6656
21:27:03.544809,0
21:27:03.544809,18
21:27:03.544809,1024
21:27:03.544809,0
21:27:03.544809,0
21:27:03.544809,-1792
21:27:03.544809,-1
21:27:03.544809,-16
21:27:03.544809,2559
21:27:03.544809,0
21:27:03.544809,61
21:27:03.544809,16128
21:27:03.544809,0
21:27:03.544809,21
21:27:03.544809,2816
21:27:03.544809,0
21:27:03.544809,28
21:27:03.544809,4608
21:27:03.544809,0
21:27:03.544809,9
21:27:03.544809,4096
21:27:03.544809,0
21:27:03.544809,14
21:27:03.544809,2304
21:27:03.544809,0
21:27:03.544809,-11
21:27:03.544809,-29441
21:27:03.544809,-1
21:27:03.544809,-203
21:27:03.544809,6143
21:27:03.544809,0
21:27:03.544809,632
21:27:03.544809,31232
21:27:03.544809,4
21:27:03.544809,930
21:27:03.544809,-6912
21:27:03.544809,0
21:27:03.544809,-68
21:27:03.544809,-3841
21:27:03.544809,-1
21:27:03.544809,-92
21:27:03.544809,25855
21:27:03.544809,-1
21:27:03.544809,-108
21:27:03.544809,-26881
21:27:03.544809,-1
21:27:03.544809,-130
21:27:03.544809,-28161
21:27:03.544809,-1
21:27:03.544809,-99
21:27:03.544809,-27393
21:27:03.544809,-1
21:27:03.544809,-108
21:27:03.544809,-27393
21:27:03.544809,-1
21:27:03.544809,-108
21:27:03.544809,-25601
21:27:03.544809,-1
21:27:03.544809,-97
21:27:03.544809,-26369
21:27:03.544809,-1
21:27:03.544809,-113
21:27:03.544809,-28161
21:27:03.544809,-1
21:27:03.544809,-106
21:27:03.544809,-25601
21:27:03.544809,-1
21:27:03.544809,-85
21:27:03.544809,-18433
21:27:03.544809,-1
21:27:03.544809,-68
21:27:03.544809,-14849
21:27:03.544809,-1
21:27:03.544809,-49
21:27:03.544809,-11009
21:27:03.544809,-1
21:27:03.544809,-42
21:27:03.544809,-11009
21:27:03.544809,-1
21:27:03.544809,-44
21:27:03.544809,-10497
21:27:03.544809,-1
21:27:03.544809,-42
21:27:03.544809,-8705
21:27:03.544809,-1
21:27:03.544809,-23
21:27:03.544809,-5121
21:27:03.544809,-1
21:27:03.544809,-18
21:27:03.544809,-3841
21:27:03.544809,-1
21:27:03.544809,-16
21:27:04.094771,-18
21:27:04.094771,-3841
21:27:04.094771,-1
21:27:04.094771,-16
21:27:04.094771,-5121
21:27:04.094771,-1
21:27:04.094771,-21
21:27:04.094771,-2561
21:27:04.094771,-1
21:27:04.094771,-4
21:27:04.094771,-257
21:27:04.094771,-1
21:27:04.094771,-2
21:27:04.094771,2559
21:27:04.094771,0
21:27:04.094771,23
21:27:04.094771,5376
21:27:04.094771,0
21:27:04.094771,14
21:27:04.094771,3584
21:27:04.094771,0
21:27:04.094771,11
21:27:04.094771,1792
21:27:04.094771,0
21:27:04.094771,4
21:27:04.094771,-1024
21:27:04.094771,-1
21:27:04.094771,-18
21:27:04.094771,-8193
21:27:04.094771,-1
21:27:04.094771,-30
21:27:04.094771,767
21:27:04.094771,0
21:27:04.094771,40
21:27:04.094771,8448
21:27:04.094771,0
21:27:04.094771,0
21:27:04.094771,-2304
21:27:04.094771,-1
21:27:04.094771,-4
21:27:04.094771,-257
21:27:04.094771,-1
21:27:04.094771,-2
21:27:04.094771,-257
21:27:04.094771,-1
21:27:04.094771,-4
21:27:04.094771,-3329
21:27:04.094771,-1
21:27:04.094771,-52
21:27:04.094771,25343
21:27:04.094771,-1
21:27:04.094771,-220
21:27:04.094771,14591
21:27:04.094771,0
21:27:04.094771,729
21:27:04.094771,-12032
21:27:04.094771,4
21:27:04.094771,902
21:27:04.094771,-24320
21:27:04.094771,0
21:27:04.094771,-85
21:27:04.094771,-9217
21:27:04.094771,-1
21:27:04.094771,-127
21:27:04.094771,21759
21:27:04.094771,-1
21:27:04.094771,-130
21:27:04.094771,30719
21:27:04.094771,-1
21:27:04.094771,-151
21:27:04.094771,31999
21:27:04.094771,-1
21:27:04.094771,-127
21:27:04.094771,32511
21:27:04.094771,-1
21:27:04.094771,-125
21:27:04.094771,-30465
21:27:04.094771,-1
21:27:04.094771,-125
21:27:04.094771,32511
21:27:04.094771,-1
21:27:04.094771,-132
21:27:04.094771,32511
21:27:04.094771,-1
21:27:04.094771,-132
21:27:04.094771,30719
21:27:04.094771,-1
21:27:04.094771,-137
21:27:04.094771,31487
21:27:04.094771,-1
21:27:04.094771,-130
21:27:04.094771,-28673
21:27:04.094771,-1
21:27:04.094771,-94
21:27:04.094771,-21505
21:27:04.094771,-1
21:27:04.094771,-78
21:27:04.094771,-17921
21:27:04.094771,-1
21:27:04.094771,-68
21:27:04.094771,-16641
21:27:04.094771,-1
21:27:04.094771,-56
21:27:04.094771,-11009
21:27:04.094771,-1
21:27:04.094771,-42
21:27:04.094771,-9985
21:27:04.094771,-1
21:27:04.094771,-35
21:27:04.644529,-30
21:27:04.644529,-8193
21:27:04.644529,-1
21:27:04.644529,-35
21:27:04.644529,-8193
21:27:04.644529,-1
21:27:04.644529,-33
21:27:04.644529,-9217
21:27:04.644529,-1
21:27:04.644529,-37
21:27:04.644529,-6913
21:27:04.644529,-1
21:27:04.644529,-18
21:27:04.644529,-3329
21:27:04.644529,-1
21:27:04.644529,-11
21:27:04.644529,-2049
21:27:04.644529,-1
21:27:04.644529,-9
21:27:04.644529,-2049
21:27:04.644529,-1
21:27:04.644529,-7
21:27:04.644529,-769
21:27:04.644529,-1
21:27:04.644529,-2
21:27:04.644529,-257
21:27:04.644529,-1
21:27:04.644529,-7
21:27:04.644529,-2049
21:27:04.644529,-1
21:27:04.644529,-9
21:27:04.644529,-769
21:27:04.644529,-1
21:27:04.644529,0
21:27:04.644529,-512
21:27:04.644529,-1
21:27:04.644529,-9
21:27:04.644529,-1537
21:27:04.644529,-1
21:27:04.644529,-4
21:27:04.644529,-3841
21:27:04.644529,-1
21:27:04.644529,-33
21:27:04.644529,-10497
21:27:04.644529,-1
21:27:04.644529,-49
21:27:04.644529,-10497
21:27:04.644529,-1
21:27:04.644529,-4
21:27:04.644529,7423
21:27:04.644529,0
21:27:04.644529,21
21:27:04.644529,-1024
21:27:04.644529,-1
21:27:04.644529,-14
21:27:04.644529,-2561
21:27:04.644529,-1
21:27:04.644529,-7
21:27:04.644529,255
21:27:04.644529,0
21:27:04.644529,0
21:27:04.644529,-1024
21:27:04.644529,-1
21:27:04.644529,-11
21:27:04.644529,-16641
21:27:04.644529,-1
21:27:04.644529,-184
21:27:04.644529,25855
21:27:04.644529,-1
21:27:04.644529,303
21:27:04.644529,9984
21:27:04.644529,4
21:27:04.644529,1335
21:27:04.644529,-19712
21:27:04.644529,2
21:27:04.644529,-7
21:27:04.644529,-26881
21:27:04.644529,-1
21:27:04.644529,-78
21:27:04.644529,23551
21:27:04.644529,-1
21:27:04.644529,-172
21:27:04.644529,30207
21:27:04.644529,-1
21:27:04.644529,-158
21:27:04.644529,24575
21:27:04.644529,-1
21:27:04.644529,-142
21:27:04.644529,29439
21:27:04.644529,-1
21:27:04.644529,-146
21:27:04.644529,29439
21:27:04.644529,-1
21:27:04.644529,-144
21:27:04.644529,28927
21:27:04.644529,-1
21:27:04.644529,-142
21:27:04.644529,28415
21:27:04.644529,-1
21:27:04.644529,-151
21:27:04.644529,27135
21:27:04.644529,-1
21:27:04.644529,-151
21:27:04.644529,27647
21:27:04.644529,-1
21:27:04.644529,-142
21:27:04.644529,29439
21:27:04.644529,-1
21:27:04.644529,-139
21:27:05.244941,-120
21:27:05.244941,-25089
21:27:05.244941,-1
21:27:05.244941,-92
21:27:05.244941,-21505
21:27:05.244941,-1
21:27:05.244941,-75
21:27:05.244941,-16641
21:27:05.244941,-1
21:27:05.244941,-52
21:27:05.244941,-8193
21:27:05.244941,-1
21:27:05.244941,-28
21:27:05.244941,-8193
21:27:05.244941,-1
21:27:05.244941,-23
21:27:05.244941,-3841
21:27:05.244941,-1
21:27:05.244941,-14
21:27:05.244941,-2561
21:27:05.244941,-1
21:27:05.244941,-9
21:27:05.244941,-2561
21:27:05.244941,-1
21:27:05.244941,-16
21:27:05.244941,-3329
21:27:05.244941,-1
21:27:05.244941,-14
21:27:05.244941,-2561
21:27:05.244941,-1
21:27:05.244941,-14
21:27:05.244941,-3841
21:27:05.244941,-1
21:27:05.244941,-16
21:27:05.244941,-2561
21:27:05.244941,-1
21:27:05.244941,-11
21:27:05.244941,-2049
21:27:05.244941,-1
21:27:05.244941,-9
21:27:05.244941,-2049
21:27:05.244941,-1
21:27:05.244941,-9
21:27:05.244941,-1537
21:27:05.244941,-1
21:27:05.244941,-4
21:27:05.244941,-257
21:27:05.244941,-1
21:27:05.244941,2
21:27:05.244941,1024
21:27:05.244941,0
21:27:05.244941,-2
21:27:05.244941,-2049
21:27:05.244941,-1
21:27:05.244941,-4
21:27:05.244941,-257
21:27:05.244941,-1
21:27:05.244941,-4
21:27:05.244941,-1537
21:27:05.244941,-1
21:27:05.244941,-2
21:27:05.244941,255
21:27:05.244941,0
21:27:05.244941,-4
21:27:05.244941,-2049
21:27:05.244941,-1
21:27:05.244941,-9
21:27:05.244941,-3329
21:27:05.244941,-1
21:27:05.244941,-26
21:27:05.244941,-9985
21:27:05.244941,-1
21:27:05.244941,-37
21:27:05.244941,-2049
21:27:05.244941,-1
21:27:05.244941,23
21:27:05.244941,7680
21:27:05.244941,0
21:27:05.244941,14
21:27:05.244941,-1024
21:27:05.244941,-1
21:27:05.244941,-4
21:27:05.244941,767
21:27:05.244941,0
21:27:05.244941,2
21:27:05.244941,0
21:27:05.244941,0
21:27:05.244941,-2
21:27:05.244941,-1537
21:27:05.244941,-1
21:27:05.244941,-30
21:27:05.244941,-30465
21:27:05.244941,-1
21:27:05.244941,-201
21:27:05.244941,2047
21:27:05.244941,0
21:27:05.244941,648
21:27:05.244941,-8192
21:27:05.244941,4
21:27:05.244941,1034
21:27:05.244941,1024
21:27:05.244941,1
21:27:05.244941,-92
21:27:05.244941,-12289
21:27:05.244941,-1
21:27:05.244941,-108
21:27:05.244941,21759
21:27:05.244941,-1
21:27:05.244941,-134
21:27:05.794979,-130
21:27:05.794979,27647
21:27:05.794979,-1
21:27:05.794979,-137
21:27:05.794979,-30465
21:27:05.794979,-1
21:27:05.794979,-123
21:27:05.794979,-31233
21:27:05.794979,-1
21:27:05.794979,-120
21:27:05.794979,-30465
21:27:05.794979,-1
21:27:05.794979,-116
21:27:05.794979,-29953
21:27:05.794979,-1
21:27:05.794979,-127
21:27:05.794979,-31233
21:27:05.794979,-1
21:27:05.794979,-106
21:27:05.794979,-26369
21:27:05.794979,-1
21:27:05.794979,-113
21:27:05.794979,-26881
21:27:05.794979,-1
21:27:05.794979,-94
21:27:05.794979,-20737
21:27:05.794979,-1
21:27:05.794979,-73
21:27:05.794979,-15873
21:27:05.794979,-1
21:27:05.794979,-59
21:27:05.794979,-13569
21:27:05.794979,-1
21:27:05.794979,-47
21:27:05.794979,-11009
21:27:05.794979,-1
21:27:05.794979,-37
21:27:05.794979,-5121
21:27:05.794979,-1
21:27:05.794979,-18
21:27:05.794979,-4353
21:27:05.794979,-1
21:27:05.794979,-16
21:27:05.794979,-3841
21:27:05.794979,-1
21:27:05.794979,-16
21:27:05.794979,-2561
21:27:05.794979,-1
21:27:05.794979,-11
21:27:05.794979,-4353
21:27:05.794979,-1
21:27:05.794979,-21
21:27:05.794979,-2561
21:27:05.794979,-1
21:27:05.794979,0
21:27:05.794979,-1024
21:27:05.794979,-1
21:27:05.794979,-14
21:27:05.794979,-2049
21:27:05.794979,-1
21:27:05.794979,-4
21:27:05.794979,-1537
21:27:05.794979,-1
21:27:05.794979,-9
21:27:05.794979,-769
21:27:05.794979,-1
21:27:05.794979,0
21:27:05.794979,512
21:27:05.794979,0
21:27:05.794979,0
21:27:05.794979,-512
21:27:05.794979,-1
21:27:05.794979,2
21:27:05.794979,512
21:27:05.794979,0
21:27:05.794979,2
21:27:05.794979,1792
21:27:05.794979,0
21:27:05.794979,7
21:27:05.794979,1792
21:27:05.794979,0
21:27:05.794979,7
21:27:05.794979,2304
21:27:05.794979,0
21:27:05.794979,9
21:27:05.794979,2304
21:27:05.794979,0
21:27:05.794979,7
21:27:05.794979,1792
21:27:05.794979,0
21:27:05.794979,4
21:27:05.794979,512
21:27:05.794979,0
21:27:05.794979,4
21:27:05.794979,3584
21:27:05.794979,0
21:27:05.794979,9
21:27:05.794979,0
21:27:05.794979,0
21:27:05.794979,4
21:27:05.794979,3584
21:27:05.794979,0
21:27:05.794979,9
21:27:05.794979,-1792
21:27:05.794979,-1
21:27:05.794979,-16
21:27:05.794979,-2049
21:27:05.794979,-1
21:27:05.794979,16
21:27:06.345817,44
21:27:06.345817,13312
21:27:06.345817,0
21:27:06.345817,30
21:27:06.345817,2304
21:27:06.345817,0
21:27:06.345817,14
21:27:06.345817,5376
21:27:06.345817,0
21:27:06.345817,18
21:27:06.345817,4608
21:27:06.345817,0
21:27:06.345817,16
21:27:06.345817,2816
21:27:06.345817,0
21:27:06.345817,-30
21:27:06.345817,29439
21:27:06.345817,-1
21:27:06.345817,-144
21:27:06.345817,-3585
21:27:06.345817,0
21:27:06.345817,895
21:27:06.345817,-27648
21:27:06.345817,4
21:27:06.345817,674
21:27:06.345817,14336
21:27:06.345817,0
21:27:06.345817,-33
21:27:06.345817,-2049
21:27:06.345817,-1
21:27:06.345817,-123
21:27:06.345817,32511
21:27:06.345817,-1
21:27:06.345817,-87
21:27:06.345817,-28673
21:27:06.345817,-1
21:27:06.345817,-123
21:27:06.345817,-25601
21:27:06.345817,-1
21:27:06.345817,-101
21:27:06.345817,-26881
21:27:06.345817,-1
21:27:06.345817,-99
21:27:06.345817,-25089
21:27:06.345817,-1
21:27:06.345817,-99
21:27:06.345817,-23809
21:27:06.345817,-1
21:27:06.345817,-97
21:27:06.345817,-25089
21:27:06.345817,-1
21:27:06.345817,-99
21:27:06.345817,-26369
21:27:06.345817,-1
21:27:06.345817,-104
21:27:06.345817,-25089
21:27:06.345817,-1
21:27:06.345817,-94
21:27:06.345817,-21505
21:27:06.345817,-1
21:27:06.345817,-71
21:27:06.345817,-15873
21:27:06.345817,-1
21:27:06.345817,-56
21:27:06.345817,-12289
21:27:06.345817,-1
21:27:06.345817,-49
21:27:06.345817,-13057
21:27:06.345817,-1
21:27:06.345817,-49
21:27:06.345817,-10497
21:27:06.345817,-1
21:27:06.345817,-35
21:27:06.345817,-8705
21:27:06.345817,-1
21:27:06.345817,-35
21:27:06.345817,-7425
21:27:06.345817,-1
21:27:06.345817,-26
21:27:06.345817,-7425
21:27:06.345817,-1
21:27:06.345817,-33
21:27:06.345817,-7425
21:27:06.345817,-1
21:27:06.345817,-30
21:27:06.345817,-8193
21:27:06.345817,-1
21:27:06.345817,-28
21:27:06.345817,-5121
21:27:06.345817,-1
21:27:06.345817,-26
21:27:06.345817,-5121
21:27:06.345817,-1
21:27:06.345817,-11
21:27:06.345817,-4353
21:27:06.345817,-1
21:27:06.345817,-16
21:27:06.345817,-1537
21:27:06.345817,-1
21:27:06.345817,-9
21:27:06.345817,-3329
21:27:06.345817,-1
21:27:06.345817,-9
21:27:06.345817,-2049
21:27:06.345817,-1
21:27:06.345817,-11
21:27:06.345817,-2049
21:27:06.345817,-1
21:27:06.345817,-7
21:27:06.895697,-7
21:27:06.895697,-1537
21:27:06.895697,-1
21:27:06.895697,-4
21:27:06.895697,-1537
21:27:06.895697,-1
21:27:06.895697,-4
21:27:06.895697,-257
21:27:06.895697,-1
21:27:06.895697,-4
21:27:06.895697,-1537
21:27:06.895697,-1
21:27:06.895697,-7
21:27:06.895697,2047
21:27:06.895697,0
21:27:06.895697,11
21:27:06.895697,2304
21:27:06.895697,0
21:27:06.895697,14
21:27:06.895697,4096
21:27:06.895697,0
21:27:06.895697,2
21:27:06.895697,-2816
21:27:06.895697,-1
21:27:06.895697,-16
21:27:06.895697,-6401
21:27:06.895697,-1
21:27:06.895697,-18
21:27:06.895697,4863
21:27:06.895697,0
21:27:06.895697,44
21:27:06.895697,9472
21:27:06.895697,0
21:27:06.895697,18
21:27:06.895697,2304
21:27:06.895697,0
21:27:06.895697,7
21:27:06.895697,3584
21:27:06.895697,0
21:27:06.895697,14
21:27:06.895697,1792
21:27:06.895697,0
21:27:06.895697,2
21:27:06.895697,-1792
21:27:06.895697,-1
21:27:06.895697,-75
21:27:06.895697,13823
21:27:06.895697,-1
21:27:06.895697,-144
21:27:06.895697,28671
21:27:06.895697,1
21:27:06.895697,1117
21:27:06.895697,5632
21:27:06.895697,5
21:27:06.895697,606
21:27:06.895697,-8448
21:27:06.895697,-1
21:27:06.895697,-85
21:27:06.895697,-22017
21:27:06.895697,-1
21:27:06.895697,-189
21:27:06.895697,21759
21:27:06.895697,-1
21:27:06.895697,-149
21:27:06.895697,19967
21:27:06.895697,-1
21:27:06.895697,-168
21:27:06.895697,29439
21:27:06.895697,-1
21:27:06.895697,-153
21:27:06.895697,26623
21:27:06.895697,-1
21:27:06.895697,-142
21:27:06.895697,29439
21:27:06.895697,-1
21:27:06.895697,-144
21:27:06.895697,28415
21:27:06.895697,-1
21:27:06.895697,-151
21:27:06.895697,27135
21:27:06.895697,-1
21:27:06.895697,-156
21:27:06.895697,23551
21:27:06.895697,-1
21:27:06.895697,-163
21:27:06.895697,24575
21:27:06.895697,-1
21:27:06.895697,-163
21:27:06.895697,27135
21:27:06.895697,-1
21:27:06.895697,-132
21:27:06.895697,-31233
21:27:06.895697,-1
21:27:06.895697,-113
21:27:06.895697,-25601
21:27:06.895697,-1
21:27:06.895697,-92
21:27:06.895697,-20737
21:27:06.895697,-1
21:27:06.895697,-66
21:27:06.895697,-13569
21:27:06.895697,-1
21:27:06.895697,-44
21:27:06.895697,-9217
21:27:06.895697,-1
21:27:06.895697,-33
21:27:06.895697,-6913
21:27:06.895697,-1
21:27:06.895697,-26
21:27:07.495194,-26
21:27:07.495194,-6401
21:27:07.495194,-1
21:27:07.495194,-23
21:27:07.495194,-5633
21:27:07.495194,-1
21:27:07.495194,-26
21:27:07.495194,-5633
21:27:07.495194,-1
21:27:07.495194,-21
21:27:07.495194,-3329
21:27:07.495194,-1
21:27:07.495194,-2
21:27:07.495194,1279
21:27:07.495194,0
21:27:07.495194,2
21:27:07.495194,1024
21:27:07.495194,0
21:27:07.495194,7
21:27:07.495194,1024
21:27:07.495194,0
21:27:07.495194,9
21:27:07.495194,2304
21:27:07.495194,0
21:27:07.495194,9
21:27:07.495194,2304
21:27:07.495194,0
21:27:07.495194,14
21:27:07.495194,2816
21:27:07.495194,0
21:27:07.495194,4
21:27:07.495194,1024
21:27:07.495194,0
21:27:07.495194,9
21:27:07.495194,1024
21:27:07.495194,0
21:27:07.495194,-4
21:27:07.495194,-769
21:27:07.495194,-1
21:27:07.495194,-4
21:27:07.495194,-257
21:27:07.495194,-1
21:27:07.495194,4
21:27:07.495194,2816
21:27:07.495194,0
21:27:07.495194,11
21:27:07.495194,1792
21:27:07.495194,0
21:27:07.495194,0
21:27:07.495194,512
21:27:07.495194,0
21:27:07.495194,0
21:27:07.495194,-4096
21:27:07.495194,-1
21:27:07.495194,-30
21:27:07.495194,-8705
21:27:07.495194,-1
21:27:07.495194,-23
21:27:07.495194,2559
21:27:07.495194,0
21:27:07.495194,26
21:27:07.495194,5888
21:27:07.495194,0
21:27:07.495194,11
21:27:07.495194,-512
21:27:07.495194,-1
21:27:07.495194,-2
21:27:07.495194,1279
21:27:07.495194,0
21:27:07.495194,7
21:27:07.495194,-512
21:27:07.495194,-1
21:27:07.495194,-4
21:27:07.495194,-3329
21:27:07.495194,-1
21:27:07.495194,-87
21:27:07.495194,15615
21:27:07.495194,-1
21:27:07.495194,-80
21:27:07.495194,-2305
21:27:07.495194,1
21:27:07.495194,1238
21:27:07.495194,-2816
21:27:07.495194,4
21:27:07.495194,487
21:27:07.495194,-19968
21:27:07.495194,-1
21:27:07.495194,-87
21:27:07.495194,-25601
21:27:07.495194,-1
21:27:07.495194,-187
21:27:07.495194,23551
21:27:07.495194,-1
21:27:07.495194,-144
21:27:07.495194,24063
21:27:07.495194,-1
21:27:07.495194,-158
21:27:07.495194,28927
21:27:07.495194,-1
21:27:07.495194,-146
21:27:07.495194,29439
21:27:07.495194,-1
21:27:07.495194,-130
21:27:07.495194,-32257
21:27:07.495194,-1
21:27:07.495194,-132
21:27:07.495194,30719
21:27:07.495194,-1
21:27:07.495194,-139
21:27:07.995170,-142
21:27:07.995170,28927
21:27:07.995170,-1
21:27:07.995170,-149
21:27:07.995170,26623
21:27:07.995170,-1
21:27:07.995170,-153
21:27:07.995170,28927
21:27:07.995170,-1
21:27:07.995170,-130
21:27:07.995170,-30465
21:27:07.995170,-1
21:27:07.995170,-111
21:27:07.995170,-25089
21:27:07.995170,-1
21:27:07.995170,-87
21:27:07.995170,-17921
21:27:07.995170,-1
21:27:07.995170,-52
21:27:07.995170,-8193
21:27:07.995170,-1
21:27:07.995170,-18
21:27:07.995170,-3841
21:27:07.995170,-1
21:27:07.995170,-11
21:27:07.995170,-1537
21:27:07.995170,-1
21:27:07.995170,-11
21:27:07.995170,-3329
21:27:07.995170,-1
21:27:07.995170,-7
21:27:07.995170,-2049
21:27:07.995170,-1
21:27:07.995170,-18
21:27:07.995170,-4353
21:27:07.995170,-1
21:27:07.995170,-14
21:27:07.995170,-3841
21:27:07.995170,-1
21:27:07.995170,-23
21:27:07.995170,-5121
21:27:07.995170,-1
21:27:07.995170,-14
21:27:07.995170,-3329
21:27:07.995170,-1
21:27:07.995170,-16
21:27:07.995170,-3329
21:27:07.995170,-1
21:27:07.995170,-9
21:27:07.995170,-2561
21:27:07.995170,-1
21:27:07.995170,-9
21:27:07.995170,-1537
21:27:07.995170,-1
21:27:07.995170,-7
21:27:07.995170,-2049
21:27:07.995170,-1
21:27:07.995170,-9
21:27:07.995170,-2049
21:27:07.995170,-1
21:27:07.995170,-11
21:27:07.995170,-3329
21:27:07.995170,-1
21:27:07.995170,-16
21:27:07.995170,-3841
21:27:07.995170,-1
21:27:07.995170,-9
21:27:07.995170,-1537
21:27:07.995170,-1
21:27:07.995170,-11
21:27:07.995170,-2561
21:27:07.995170,-1
21:27:07.995170,-9
21:27:07.995170,-2561
21:27:07.995170,-1
21:27:07.995170,-14
21:27:07.995170,-2561
21:27:07.995170,-1
21:27:07.995170,-9
21:27:07.995170,-3841
21:27:07.995170,-1
21:27:07.995170,-23
21:27:07.995170,-6913
21:27:07.995170,-1
21:27:07.995170,-44
21:27:07.995170,-11777
21:27:07.995170,-1
21:27:07.995170,-16
21:27:07.995170,4863
21:27:07.995170,0
21:27:07.995170,28
21:27:07.995170,2304
21:27:07.995170,0
21:27:07.995170,-4
21:27:07.995170,-769
21:27:07.995170,-1
21:27:07.995170,2
21:27:07.995170,1792
21:27:07.995170,0
21:27:07.995170,0
21:27:07.995170,-1024
21:27:07.995170,-1
21:27:07.995170,-4
21:27:07.995170,-9985
21:27:07.995170,-1
21:27:07.995170,-139
21:27:07.995170,19199
21:27:07.995170,-1
21:27:07.995170,97
21:27:08.594624,738
21:27:08.594624,-19200
21:27:08.594624,4
21:27:08.594624,852
21:27:08.594624,-31232
21:27:08.594624,0
21:27:08.594624,-87
21:27:08.594624,-6401
21:27:08.594624,-1
21:27:08.594624,-101
21:27:08.594624,28415
21:27:08.594624,-1
21:27:08.594624,-108
21:27:08.594624,-27393
21:27:08.594624,-1
21:27:08.594624,-120
21:27:08.594624,-26881
21:27:08.594624,-1
21:27:08.594624,-104
21:27:08.594624,-28673
21:27:08.594624,-1
21:27:08.594624,-106
21:27:08.594624,-25089
21:27:08.594624,-1
21:27:08.594624,-97
21:27:08.594624,-25089
21:27:08.594624,-1
21:27:08.594624,-99
21:27:08.594624,-24577
21:27:08.594624,-1
21:27:08.594624,-99
21:27:08.594624,-23809
21:27:08.594624,-1
21:27:08.594624,-82
21:27:08.594624,-20225
21:27:08.594624,-1
21:27:08.594624,-85
21:27:08.594624,-20225
21:27:08.594624,-1
21:27:08.594624,-61
21:27:08.594624,-11777
21:27:08.594624,-1
21:27:08.594624,-40
21:27:08.594624,-9217
21:27:08.594624,-1
21:27:08.594624,-40
21:27:08.594624,-9985
21:27:08.594624,-1
21:27:08.594624,-33
21:27:08.594624,-6401
21:27:08.594624,-1
21:27:08.594624,-23
21:27:08.594624,-5633
21:27:08.594624,-1
21:27:08.594624,-16
21:27:08.594624,-769
21:27:08.594624,-1
21:27:08.594624,-7
21:27:08.594624,-3841
21:27:08.594624,-1
21:27:08.594624,-16
21:27:08.594624,-3841
21:27:08.594624,-1
21:27:08.594624,-18
21:27:08.594624,-2049
21:27:08.594624,-1
21:27:08.594624,-4
21:27:08.594624,-2561
21:27:08.594624,-1
21:27:08.594624,-14
21:27:08.594624,-1537
21:27:08.594624,-1
21:27:08.594624,2
21:27:08.594624,512
21:27:08.594624,0
21:27:08.594624,-4
21:27:08.594624,-769
21:27:08.594624,-1
21:27:08.594624,7
21:27:08.594624,3584
21:27:08.594624,0
21:27:08.594624,4
21:27:08.594624,1024
21:27:08.594624,0
21:27:08.594624,14
21:27:08.594624,4608
21:27:08.594624,0
21:27:08.594624,16
21:27:08.594624,4096
21:27:08.594624,0
21:27:08.594624,14
21:27:08.594624,2816
21:27:08.594624,0
21:27:08.594624,7
21:27:08.594624,0
21:27:08.594624,0
21:27:08.594624,-7
21:27:08.594624,-2561
21:27:08.594624,-1
21:27:08.594624,-18
21:27:08.594624,-2561
21:27:08.594624,-1
21:27:08.594624,26
21:27:08.594624,13824
21:27:08.594624,0
21:27:08.594624,40
21:27:08.594624,3584
21:27:08.594624,0
21:27:08.594624,7
21:27:09.144892,2
21:27:09.144892,512
21:27:09.144892,0
21:27:09.144892,7
21:27:09.144892,1792
21:27:09.144892,0
21:27:09.144892,4
21:27:09.144892,-2304
21:27:09.144892,-1
21:27:09.144892,-85
21:27:09.144892,15103
21:27:09.144892,-1
21:27:09.144892,-97
21:27:09.144892,-29697
21:27:09.144892,1
21:27:09.144892,961
21:27:09.144892,-9472
21:27:09.144892,3
21:27:09.144892,395
21:27:09.144892,-9472
21:27:09.144892,-1
21:27:09.144892,-4
21:27:09.144892,-4353
21:27:09.144892,-1
21:27:09.144892,-123
21:27:09.144892,-26881
21:27:09.144892,-1
21:27:09.144892,-92
21:27:09.144892,-29953
21:27:09.144892,-1
21:27:09.144892,-106
21:27:09.144892,-22529
21:27:09.144892,-1
21:27:09.144892,-97
21:27:09.144892,-24577
21:27:09.144892,-1
21:27:09.144892,-87
21:27:09.144892,-22017
21:27:09.144892,-1
21:27:09.144892,-85
21:27:09.144892,-20737
21:27:09.144892,-1
21:27:09.144892,-85
21:27:09.144892,-21505
21:27:09.144892,-1
21:27:09.144892,-87
21:27:09.144892,-22529
21:27:09.144892,-1
21:27:09.144892,-82
21:27:09.144892,-18433
21:27:09.144892,-1
21:27:09.144892,-68
21:27:09.144892,-12289
21:27:09.144892,-1
21:27:09.144892,-30
21:27:09.144892,-5633
21:27:09.144892,-1
21:27:09.144892,-21
21:27:09.144892,-5633
21:27:09.144892,-1
21:27:09.144892,-35
21:27:09.144892,-11009
21:27:09.144892,-1
21:27:09.144892,-42
21:27:09.144892,-8705
21:27:09.144892,-1
21:27:09.144892,-28
21:27:09.144892,-6401
21:27:09.144892,-1
21:27:09.144892,-21
21:27:09.144892,-3841
21:27:09.144892,-1
21:27:09.144892,-11
21:27:09.144892,-3329
21:27:09.144892,-1
21:27:09.144892,-18
21:27:09.144892,-5633
21:27:09.144892,-1
21:27:09.144892,-21
21:27:09.144892,-5121
21:27:09.144892,-1
21:27:09.144892,-23
21:27:09.144892,-5633
21:27:09.144892,-1
21:27:09.144892,-16
21:27:09.144892,-2561
21:27:09.144892,-1
21:27:09.144892,-18
21:27:09.144892,-6401
21:27:09.144892,-1
21:27:09.144892,-18
21:27:09.144892,-257
21:27:09.144892,-1
21:27:09.144892,-4
21:27:09.144892,-3841
21:27:09.144892,-1
21:27:09.144892,-14
21:27:09.144892,2047
21:27:09.144892,0
21:27:09.144892,7
21:27:09.144892,-4096
21:27:09.144892,-1
21:27:09.144892,-21
21:27:09.144892,-6913
21:27:09.144892,-1
21:27:09.144892,-56
21:27:09.144892,-10497
21:27:09.144892,-1
21:27:09.144892,4
21:27:09.743837,21
21:27:09.743837,2816
21:27:09.743837,0
21:27:09.743837,0
21:27:09.743837,-2304
21:27:09.743837,-1
21:27:09.743837,-11
21:27:09.743837,-769
21:27:09.743837,-1
21:27:09.743837,2
21:27:09.743837,512
21:27:09.743837,0
21:27:09.743837,14
21:27:09.743837,4608
21:27:09.743837,0
21:27:09.743837,-26
21:27:09.743837,29439
21:27:09.743837,-1
21:27:09.743837,-191
21:27:09.743837,29183
21:27:09.743837,0
21:27:09.743837,824
21:27:09.743837,14848
21:27:09.743837,5
21:27:09.743837,949
21:27:09.743837,-25088
21:27:09.743837,0
21:27:09.743837,-89
21:27:09.743837,-9985
21:27:09.743837,-1
21:27:09.743837,-130
21:27:09.743837,24575
21:27:09.743837,-1
21:27:09.743837,-116
21:27:09.743837,30719
21:27:09.743837,-1
21:27:09.743837,-158
21:27:09.743837,30719
21:27:09.743837,-1
21:27:09.743837,-127
21:27:09.743837,30719
21:27:09.743837,-1
21:27:09.743837,-132
21:27:09.743837,-31233
21:27:09.743837,-1
21:27:09.743837,-125
21:27:09.743837,-32257
21:27:09.743837,-1
21:27:09.743837,-132
21:27:09.743837,28927
21:27:09.743837,-1
21:27:09.743837,-153
21:27:09.743837,25343
21:27:09.743837,-1
21:27:09.743837,-161
21:27:09.743837,26623
21:27:09.743837,-1
21:27:09.743837,-137
21:27:09.743837,-31745
21:27:09.743837,-1
21:27:09.743837,-116
21:27:09.743837,-23297
21:27:09.743837,-1
21:27:09.743837,-80
21:27:09.743837,-20225
21:27:09.743837,-1
21:27:09.743837,-73
21:27:09.743837,-13569
21:27:09.743837,-1
21:27:09.743837,-37
21:27:09.743837,-8193
21:27:09.743837,-1
21:27:09.743837,-42
21:27:09.743837,-8193
21:27:09.743837,-1
21:27:09.743837,4
21:27:09.743837,5376
21:27:09.743837,0
21:27:09.743837,0
21:27:09.743837,-2304
21:27:09.743837,-1
21:27:09.743837,-4
21:27:09.743837,-3329
21:27:09.743837,-1
21:27:09.743837,-11
21:27:09.743837,767
21:27:09.743837,0
21:27:09.743837,-2
21:27:09.743837,-6401
21:27:09.743837,-1
21:27:09.743837,-37
21:27:09.743837,-2561
21:27:09.743837,-1
21:27:09.743837,18
21:27:09.743837,-1024
21:27:09.743837,-1
21:27:09.743837,-21
21:27:09.743837,6911
21:27:09.743837,0
21:27:09.743837,37
21:27:09.743837,1792
21:27:09.743837,0
21:27:09.743837,11
21:27:09.743837,5376
21:27:09.743837,0
21:27:09.743837,26
21:27:09.743837,7168
21:27:09.743837,0
21:27:09.743837,2
21:27:10.245256,-14
21:27:10.245256,767
21:27:10.245256,0
21:27:10.245256,2
21:27:10.245256,-2304
21:27:10.245256,-1
21:27:10.245256,30
21:27:10.245256,21760
21:27:10.245256,0
21:27:10.245256,71
21:27:10.245256,10752
21:27:10.245256,0
21:27:10.245256,33
21:27:10.245256,6656
21:27:10.245256,0
21:27:10.245256,37
21:27:10.245256,13824
21:27:10.245256,0
21:27:10.245256,33
21:27:10.245256,2304
21:27:10.245256,0
21:27:10.245256,11
21:27:10.245256,-13824
21:27:10.245256,-1
21:27:10.245256,-177
21:27:10.245256,-2049
21:27:10.245256,-1
21:27:10.245256,632
21:27:10.245256,2048
21:27:10.245256,5
21:27:10.245256,1169
21:27:10.245256,-29952
21:27:10.245256,1
21:27:10.245256,-42
21:27:10.245256,-7425
21:27:10.245256,-1
21:27:10.245256,-94
21:27:10.245256,23551
21:27:10.245256,-1
21:27:10.245256,-127
21:27:10.245256,-29953
21:27:10.245256,-1
21:27:10.245256,-144
21:27:10.245256,32511
21:27:10.245256,-1
21:27:10.245256,-94
21:27:10.245256,-26881
21:27:10.245256,-1
21:27:10.245256,-127
21:27:10.245256,-27393
21:27:10.245256,-1
21:27:10.245256,-92
21:27:10.245256,-23809
21:27:10.245256,-1
21:27:10.245256,-101
21:27:10.245256,-29441
21:27:10.245256,-1
21:27:10.245256,-116
21:27:10.245256,-29953
21:27:10.245256,-1
21:27:10.245256,-127
21:27:10.245256,-30465
21:27:10.245256,-1
21:27:10.245256,-106
21:27:10.245256,-26881
21:27:10.245256,-1
21:27:10.245256,-104
21:27:10.245256,-22017
21:27:10.245256,-1
21:27:10.245256,-59
21:27:10.245256,-15361
21:27:10.245256,-1
21:27:10.245256,-80
21:27:10.245256,-17921
21:27:10.245256,-1
21:27:10.245256,-47
21:27:10.245256,-9217
21:27:10.245256,-1
21:27:10.245256,-35
21:27:10.245256,-9217
21:27:10.245256,-1
21:27:10.245256,-26
21:27:10.245256,-3329
21:27:10.245256,-1
21:27:10.245256,-33
21:27:10.245256,-6913
21:27:10.245256,-1
21:27:10.245256,-7
21:27:10.245256,-5121
21:27:10.245256,-1
21:27:10.245256,-35
21:27:10.245256,-4353
21:27:10.245256,-1
21:27:10.245256,-18
21:27:10.245256,-9217
21:27:10.245256,-1
21:27:10.245256,-42
21:27:10.245256,-5633
21:27:10.245256,-1
21:27:10.245256,-9
21:27:10.245256,-5633
21:27:10.245256,-1
21:27:10.245256,-37
21:27:10.245256,-3329
21:27:10.245256,-1
21:27:10.245256,16
21:27:10.245256,-1024
21:27:10.245256,-1
21:27:10.245256,-37
21:27:10.794844,-26
21:27:10.794844,-6913
21:27:10.794844,-1
21:27:10.794844,-42
21:27:10.794844,-9217
21:27:10.794844,-1
21:27:10.794844,-56
21:27:10.794844,-5633
21:27:10.794844,-1
21:27:10.794844,71
21:27:10.794844,16128
21:27:10.794844,0
21:27:10.794844,-9
21:27:10.794844,-1537
21:27:10.794844,-1
21:27:10.794844,14
21:27:10.794844,2304
21:27:10.794844,0
21:27:10.794844,23
21:27:10.794844,4608
21:27:10.794844,0
21:27:10.794844,-7
21:27:10.794844,-257
21:27:10.794844,-1
21:27:10.794844,-11
21:27:10.794844,-27393
21:27:10.794844,-1
21:27:10.794844,-232
21:27:10.794844,-15361
21:27:10.794844,-1
21:27:10.794844,554
21:27:10.794844,30464
21:27:10.794844,4
21:27:10.794844,996
21:27:10.794844,9472
21:27:10.794844,1
21:27:10.794844,-52
21:27:10.794844,-257
21:27:10.794844,-1
21:27:10.794844,-85
21:27:10.794844,17919
21:27:10.794844,-1
21:27:10.794844,-120
21:27:10.794844,-21505
21:27:10.794844,-1
21:27:10.794844,-134
21:27:10.794844,-31745
21:27:10.794844,-1
21:27:10.794844,-97
21:27:10.794844,-30465
21:27:10.794844,-1
21:27:10.794844,-116
21:27:10.794844,-24577
21:27:10.794844,-1
21:27:10.794844,-116
21:27:10.794844,-32257
21:27:10.794844,-1
21:27:10.794844,-108
21:27:10.794844,-21505
21:27:10.794844,-1
21:27:10.794844,-87
21:27:10.794844,-26881
21:27:10.794844,-1
21:27:10.794844,-118
21:27:10.794844,-28161
21:27:10.794844,-1
21:27:10.794844,-82
21:27:10.794844,-15873
21:27:10.794844,-1
21:27:10.794844,-71
21:27:10.794844,-17153
21:27:10.794844,-1
21:27:10.794844,-49
21:27:10.794844,-11009
21:27:10.794844,-1
21:27:10.794844,-54
21:27:10.794844,-10497
21:27:10.794844,-1
21:27:10.794844,-42
21:27:10.794844,-17921
21:27:10.794844,-1
21:27:10.794844,-73
21:27:10.794844,-5121
21:27:10.794844,-1
21:27:10.794844,-4
21:27:10.794844,-17153
21:27:10.794844,-1
21:27:10.794844,-82
21:27:10.794844,-257
21:27:10.794844,-1
21:27:10.794844,33
21:27:10.794844,-7168
21:27:10.794844,-1
21:27:10.794844,-47
21:27:10.794844,-5633
21:27:10.794844,-1
21:27:10.794844,-26
21:27:10.794844,-3841
21:27:10.794844,-1
21:27:10.794844,-18
21:27:10.794844,-8193
21:27:10.794844,-1
21:27:10.794844,-18
21:27:10.794844,-5633
21:27:10.794844,-1
21:27:10.794844,-37
21:27:10.794844,-1537
21:27:10.794844,-1
21:27:10.794844,18
21:27:11.394841,-18
21:27:11.394841,-12289
21:27:11.394841,-1
21:27:11.394841,-42
21:27:11.394841,-10497
21:27:11.394841,-1
21:27:11.394841,-26
21:27:11.394841,4863
21:27:11.394841,0
21:27:11.394841,47
21:27:11.394841,9472
21:27:11.394841,0
21:27:11.394841,21
21:27:11.394841,3584
21:27:11.394841,0
21:27:11.394841,9
21:27:11.394841,1024
21:27:11.394841,0
21:27:11.394841,9
21:27:11.394841,512
21:27:11.394841,0
21:27:11.394841,-21
21:27:11.394841,-3841
21:27:11.394841,-1
21:27:11.394841,-23
21:27:11.394841,30207
21:27:11.394841,-1
21:27:11.394841,-217
21:27:11.394841,15359
21:27:11.394841,0
21:27:11.394841,708
21:27:11.394841,31232
21:27:11.394841,4
21:27:11.394841,774
21:27:11.394841,27136
21:27:11.394841,0
21:27:11.394841,-35
21:27:11.394841,9215
21:27:11.394841,0
21:27:11.394841,-78
21:27:11.394841,30719
21:27:11.394841,-1
21:27:11.394841,-94
21:27:11.394841,-26881
21:27:11.394841,-1
21:27:11.394841,-113
21:27:11.394841,-20225
21:27:11.394841,-1
21:27:11.394841,-82
21:27:11.394841,-27393
21:27:11.394841,-1
21:27:11.394841,-116
21:27:11.394841,-30465
21:27:11.394841,-1
21:27:11.394841,-89
21:27:11.394841,-13057
21:27:11.394841,-1
21:27:11.394841,-99
21:27:11.394841,25855
21:27:11.394841,-1
21:27:11.394841,-118
21:27:11.394841,-11009
21:27:11.394841,-1
21:27:11.394841,-40
21:27:11.394841,-23297
21:27:11.394841,-1
21:27:11.394841,-97
21:27:11.394841,-18945
21:27:11.394841,-1
21:27:11.394841,-92
21:27:11.394841,-22017
21:27:11.394841,-1
21:27:11.394841,-26
21:27:11.394841,1279
21:27:11.394841,0
21:27:11.394841,-21
21:27:11.394841,-6913
21:27:11.394841,-1
21:27:11.394841,-18
21:27:11.394841,-6401
21:27:11.394841,-1
21:27:11.394841,-9
21:27:11.394841,3839
21:27:11.394841,0
21:27:11.394841,-4
21:27:11.394841,-6913
21:27:11.394841,-1
21:27:11.394841,-23
21:27:11.394841,-3329
21:27:11.394841,-1
21:27:11.394841,-23
21:27:11.394841,-8193
21:27:11.394841,-1
21:27:11.394841,-35
21:27:11.394841,-8705
21:27:11.394841,-1
21:27:11.394841,-35
21:27:11.394841,-9217
21:27:11.394841,-1
21:27:11.394841,-54
21:27:11.394841,-14081
21:27:11.394841,-1
21:27:11.394841,-18
21:27:11.394841,-2561
21:27:11.394841,-1
21:27:11.394841,-47
21:27:11.394841,-9217
21:27:11.394841,-1
21:27:11.394841,-16
21:27:11.944759,-40
21:27:11.944759,-18945
21:27:11.944759,-1
21:27:11.944759,-73
21:27:11.944759,-11009
21:27:11.944759,-1
21:27:11.944759,-37
21:27:11.944759,-5633
21:27:11.944759,-1
21:27:11.944759,26
21:27:11.944759,5888
21:27:11.944759,0
21:27:11.944759,-18
21:27:11.944759,-257
21:27:11.944759,-1
21:27:11.944759,28
21:27:11.944759,512
21:27:11.944759,0
21:27:11.944759,-21
21:27:11.944759,255
21:27:11.944759,0
21:27:11.944759,9
21:27:11.944759,-5888
21:27:11.944759,-1
21:27:11.944759,-82
21:27:11.944759,17407
21:27:11.944759,-1
21:27:11.944759,-165
21:27:11.944759,20735
21:27:11.944759,1
21:27:11.944759,1146
21:27:11.944759,24320
21:27:11.944759,5
21:27:11.944759,672
21:27:11.944759,-4096
21:27:11.944759,-1
21:27:11.944759,-106
21:27:11.944759,-24577
21:27:11.944759,-1
21:27:11.944759,-189
21:27:11.944759,16127
21:27:11.944759,-1
21:27:11.944759,-168
21:27:11.944759,19199
21:27:11.944759,-1
21:27:11.944759,-170
21:27:11.944759,29439
21:27:11.944759,-1
21:27:11.944759,-151
21:27:11.944759,24063
21:27:11.944759,-1
21:27:11.944759,-165
21:27:11.944759,22271
21:27:11.944759,-1
21:27:11.944759,-156
21:27:11.944759,30719
21:27:11.944759,-1
21:27:11.944759,-149
21:27:11.944759,16127
21:27:11.944759,-1
21:27:11.944759,-208
21:27:11.944759,20991
21:27:11.944759,-1
21:27:11.944759,-165
21:27:11.944759,19967
21:27:11.944759,-1
21:27:11.944759,-158
21:27:11.944759,30719
21:27:11.944759,-1
21:27:11.944759,-134
21:27:11.944759,-28161
21:27:11.944759,-1
21:27:11.944759,-92
21:27:11.944759,-19713
21:27:11.944759,-1
21:27:11.944759,-52
21:27:11.944759,-14849
21:27:11.944759,-1
21:27:11.944759,-63
21:27:11.944759,-9985
21:27:11.944759,-1
21:27:11.944759,-35
21:27:11.944759,-7425
21:27:11.944759,-1
21:27:11.944759,-11
21:27:11.944759,-3329
21:27:11.944759,-1
21:27:11.944759,-30
21:27:11.944759,-6401
21:27:11.944759,-1
21:27:11.944759,-23
21:27:11.944759,-8705
21:27:11.944759,-1
21:27:11.944759,-28
21:27:11.944759,-3841
21:27:11.944759,-1
21:27:11.944759,-26
21:27:11.944759,-6913
21:27:11.944759,-1
21:27:11.944759,-23
21:27:11.944759,-8193
21:27:11.944759,-1
21:27:11.944759,-35
21:27:11.944759,-4353
21:27:11.944759,-1
21:27:11.944759,-23
21:27:11.944759,-10497
21:27:11.944759,-1
21:27:11.944759,-49
21:27:12.545341,-54
21:27:12.545341,-14849
21:27:12.545341,-1
21:27:12.545341,-33
21:27:12.545341,4351
21:27:12.545341,0
21:27:12.545341,30
21:27:12.545341,2304
21:27:12.545341,0
21:27:12.545341,-2
21:27:12.545341,-257
21:27:12.545341,-1
21:27:12.545341,7
21:27:12.545341,3584
21:27:12.545341,0
21:27:12.545341,7
21:27:12.545341,512
21:27:12.545341,0
21:27:12.545341,2
21:27:12.545341,-1024
21:27:12.545341,-1
21:27:12.545341,-56
21:27:12.545341,20479
21:27:12.545341,-1
21:27:12.545341,-172
21:27:12.545341,-3073
21:27:12.545341,0
21:27:12.545341,980
21:27:12.545341,5632
21:27:12.545341,5
21:27:12.545341,741
21:27:12.545341,11264
21:27:12.545341,0
21:27:12.545341,-92
21:27:12.545341,-18433
21:27:12.545341,-1
21:27:12.545341,-163
21:27:12.545341,20991
21:27:12.545341,-1
21:27:12.545341,-139
21:27:12.545341,27647
21:27:12.545341,-1
21:27:12.545341,-151
21:27:12.545341,30207
21:27:12.545341,-1
21:27:12.545341,-139
21:27:12.545341,30207
21:27:12.545341,-1
21:27:12.545341,-134
21:27:12.545341,31487
21:27:12.545341,-1
21:27:12.545341,-137
21:27:12.545341,30207
21:27:12.545341,-1
21:27:12.545341,-144
21:27:12.545341,27647
21:27:12.545341,-1
21:27:12.545341,-151
21:27:12.545341,27135
21:27:12.545341,-1
21:27:12.545341,-144
21:27:12.545341,30719
21:27:12.545341,-1
21:27:12.545341,-123
21:27:12.545341,-27393
21:27:12.545341,-1
21:27:12.545341,-94
21:27:12.545341,-20737
21:27:12.545341,-1
21:27:12.545341,-78
21:27:12.545341,-18433
21:27:12.545341,-1
21:27:12.545341,-66
21:27:12.545341,-14081
21:27:12.545341,-1
21:27:12.545341,-47
21:27:12.545341,-10497
21:27:12.545341,-1
21:27:12.545341,-42
21:27:12.545341,-8705
21:27:12.545341,-1
21:27:12.545341,-28
21:27:12.545341,-6401
21:27:12.545341,-1
21:27:12.545341,-23
21:27:12.545341,-5633
21:27:12.545341,-1
21:27:12.545341,-21
21:27:12.545341,-4353
21:27:12.545341,-1
21:27:12.545341,-18
21:27:12.545341,-4353
21:27:12.545341,-1
21:27:12.545341,-23
21:27:12.545341,-6401
21:27:12.545341,-1
21:27:12.545341,-23
21:27:12.545341,-5121
21:27:12.545341,-1
21:27:12.545341,-23
21:27:12.545341,-5633
21:27:12.545341,-1
21:27:12.545341,-16
21:27:12.545341,-1537
21:27:12.545341,-1
21:27:12.545341,-7
21:27:12.545341,-1537
21:27:12.545341,-1
21:27:12.545341,-7
21:27:13.143189,-2
21:27:13.143189,-2049
21:27:13.143189,-1
21:27:13.143189,-23
21:27:13.143189,-8705
21:27:13.143189,-1
21:27:13.143189,-35
21:27:13.143189,-2561
21:27:13.143189,-1
21:27:13.143189,35
21:27:13.143189,12544
21:27:13.143189,0
21:27:13.143189,23
21:27:13.143189,512
21:27:13.143189,0
21:27:13.143189,2
21:27:13.143189,2304
21:27:13.143189,0
21:27:13.143189,11
21:27:13.143189,3584
21:27:13.143189,0
21:27:13.143189,18
21:27:13.143189,4096
21:27:13.143189,0
21:27:13.143189,2
21:27:13.143189,-19200
21:27:13.143189,-1
21:27:13.143189,-191
21:27:13.143189,-22017
21:27:13.143189,-1
21:27:13.143189,464
21:27:13.143189,30464
21:27:13.143189,4
21:27:13.143189,1186
21:27:13.143189,-5632
21:27:13.143189,1
21:27:13.143189,-26
21:27:13.143189,-11777
21:27:13.143189,-1
21:27:13.143189,-73
21:27:13.143189,26623
21:27:13.143189,-1
21:27:13.143189,-132
21:27:13.143189,-28161
21:27:13.143189,-1
21:27:13.143189,-132
21:27:13.143189,-31745
21:27:13.143189,-1
21:27:13.143189,-106
21:27:13.143189,-28161
21:27:13.143189,-1
21:27:13.143189,-118
21:27:13.143189,-28673
21:27:13.143189,-1
21:27:13.143189,-113
21:27:13.143189,-29441
21:27:13.143189,-1
21:27:13.143189,-120
21:27:13.143189,-29441
21:27:13.143189,-1
21:27:13.143189,-108
21:27:13.143189,-29441
21:27:13.143189,-1
21:27:13.143189,-120
21:27:13.143189,-29953
21:27:13.143189,-1
21:27:13.143189,-111
21:27:13.143189,-25601
21:27:13.143189,-1
21:27:13.143189,-85
21:27:13.143189,-15873
21:27:13.143189,-1
21:27:13.143189,-52
21:27:13.143189,-13057
21:27:13.143189,-1
21:27:13.143189,-56
21:27:13.143189,-13569
21:27:13.143189,-1
21:27:13.143189,-40
21:27:13.143189,-6401
21:27:13.143189,-1
21:27:13.143189,-16
21:27:13.143189,-2049
21:27:13.143189,-1
21:27:13.143189,-9
21:27:13.143189,-2049
21:27:13.143189,-1
21:27:13.143189,-7
21:27:13.143189,-769
21:27:13.143189,-1
21:27:13.143189,0
21:27:13.143189,2304
21:27:13.143189,0
21:27:13.143189,9
21:27:13.143189,1024
21:27:13.143189,0
21:27:13.143189,7
21:27:13.143189,2816
21:27:13.143189,0
21:27:13.143189,0
21:27:13.143189,-1792
21:27:13.143189,-1
21:27:13.143189,9
21:27:13.143189,4096
21:27:13.143189,0
21:27:13.143189,9
21:27:13.143189,2304
21:27:13.143189,0
21:27:13.143189,18
21:27:13.645180,21
21:27:13.645180,5888
21:27:13.645180,0
21:27:13.645180,26
21:27:13.645180,3584
21:27:13.645180,0
21:27:13.645180,-2
21:27:13.645180,-2049
21:27:13.645180,-1
21:27:13.645180,-4
21:27:13.645180,7423
21:27:13.645180,0
21:27:13.645180,63
21:27:13.645180,14336
21:27:13.645180,0
21:27:13.645180,35
21:27:13.645180,8960
21:27:13.645180,0
21:27:13.645180,42
21:27:13.645180,10240
21:27:13.645180,0
21:27:13.645180,35
21:27:13.645180,9472
21:27:13.645180,0
21:27:13.645180,33
21:27:13.645180,6656
21:27:13.645180,0
21:27:13.645180,11
21:27:13.645180,-19968
21:27:13.645180,-1
21:27:13.645180,-203
21:27:13.645180,-15873
21:27:13.645180,-1
21:27:13.645180,511
21:27:13.645180,25600
21:27:13.645180,4
21:27:13.645180,1079
21:27:13.645180,-28672
21:27:13.645180,1
21:27:13.645180,-28
21:27:13.645180,-5121
21:27:13.645180,-1
21:27:13.645180,-75
21:27:13.645180,25343
21:27:13.645180,-1
21:27:13.645180,-123
21:27:13.645180,-28161
21:27:13.645180,-1
21:27:13.645180,-134
21:27:13.645180,-30465
21:27:13.645180,-1
21:27:13.645180,-113
21:27:13.645180,-31233
21:27:13.645180,-1
21:27:13.645180,-123
21:27:13.645180,-29953
21:27:13.645180,-1
21:27:13.645180,-123
21:27:13.645180,-31233
21:27:13.645180,-1
21:27:13.645180,-118
21:27:13.645180,-30465
21:27:13.645180,-1
21:27:13.645180,-127
21:27:13.645180,32511
21:27:13.645180,-1
21:27:13.645180,-127
21:27:13.645180,-31745
21:27:13.645180,-1
21:27:13.645180,-116
21:27:13.645180,-25601
21:27:13.645180,-1
21:27:13.645180,-85
21:27:13.645180,-18433
21:27:13.645180,-1
21:27:13.645180,-59
21:27:13.645180,-13569
21:27:13.645180,-1
21:27:13.645180,-54
21:27:13.645180,-13057
21:27:13.645180,-1
21:27:13.645180,-42
21:27:13.645180,-7425
21:27:13.645180,-1
21:27:13.645180,-28
21:27:13.645180,-6401
21:27:13.645180,-1
21:27:13.645180,-18
21:27:13.645180,-3841
21:27:13.645180,-1
21:27:13.645180,-16
21:27:13.645180,-3329
21:27:13.645180,-1
21:27:13.645180,-16
21:27:13.645180,-5121
21:27:13.645180,-1
21:27:13.645180,-21
21:27:13.645180,-4353
21:27:13.645180,-1
21:27:13.645180,-18
21:27:13.645180,-5121
21:27:13.645180,-1
21:27:13.645180,-21
21:27:13.645180,-4353
21:27:13.645180,-1
21:27:13.645180,-16
21:27:13.645180,-2561
21:27:13.645180,-1
21:27:13.645180,-7
21:27:14.195269,-2
21:27:14.195269,-257
21:27:14.195269,-1
21:27:14.195269,-4
21:27:14.195269,-769
21:27:14.195269,-1
21:27:14.195269,-2
21:27:14.195269,255
21:27:14.195269,0
21:27:14.195269,-2
21:27:14.195269,-257
21:27:14.195269,-1
21:27:14.195269,0
21:27:14.195269,512
21:27:14.195269,0
21:27:14.195269,7
21:27:14.195269,4608
21:27:14.195269,0
21:27:14.195269,16
21:27:14.195269,0
21:27:14.195269,0
21:27:14.195269,-16
21:27:14.195269,-6913
21:27:14.195269,-1
21:27:14.195269,-28
21:27:14.195269,-769
21:27:14.195269,-1
21:27:14.195269,33
21:27:14.195269,11264
21:27:14.195269,0
21:27:14.195269,23
21:27:14.195269,2304
21:27:14.195269,0
21:27:14.195269,2
21:27:14.195269,1024
21:27:14.195269,0
21:27:14.195269,9
21:27:14.195269,1792
21:27:14.195269,0
21:27:14.195269,-2
21:27:14.195269,-769
21:27:14.195269,-1
21:27:14.195269,-33
21:27:14.195269,28415
21:27:14.195269,-1
21:27:14.195269,-222
21:27:14.195269,14591
21:27:14.195269,0
21:27:14.195269,781
21:27:14.195269,18944
21:27:14.195269,5
21:27:14.195269,1023
21:27:14.195269,-7424
21:27:14.195269,0
21:27:14.195269,-87
21:27:14.195269,-17153
21:27:14.195269,-1
21:27:14.195269,-149
21:27:14.195269,16895
21:27:14.195269,-1
21:27:14.195269,-151
21:27:14.195269,25855
21:27:14.195269,-1
21:27:14.195269,-170
21:27:14.195269,25343
21:27:14.195269,-1
21:27:14.195269,-153
21:27:14.195269,25855
21:27:14.195269,-1
21:27:14.195269,-151
21:27:14.195269,28415
21:27:14.195269,-1
21:27:14.195269,-146
21:27:14.195269,27135
21:27:14.195269,-1
21:27:14.195269,-156
21:27:14.195269,25343
21:27:14.195269,-1
21:27:14.195269,-163
21:27:14.195269,22783
21:27:14.195269,-1
21:27:14.195269,-168
21:27:14.195269,24575
21:27:14.195269,-1
21:27:14.195269,-153
21:27:14.195269,29439
21:27:14.195269,-1
21:27:14.195269,-123
21:27:14.195269,-25601
21:27:14.195269,-1
21:27:14.195269,-89
21:27:14.195269,-20225
21:27:14.195269,-1
21:27:14.195269,-66
21:27:14.195269,-13569
21:27:14.195269,-1
21:27:14.195269,-47
21:27:14.195269,-8705
21:27:14.195269,-1
21:27:14.195269,-26
21:27:14.195269,-4353
21:27:14.195269,-1
21:27:14.195269,-16
21:27:14.195269,-2561
21:27:14.195269,-1
21:27:14.195269,-7
21:27:14.195269,-769
21:27:14.195269,-1
21:27:14.195269,-7
21:27:14.744782,-9
21:27:14.744782,-2049
21:27:14.744782,-1
21:27:14.744782,-9
21:27:14.744782,-2049
21:27:14.744782,-1
21:27:14.744782,-11
21:27:14.744782,-3329
21:27:14.744782,-1
21:27:14.744782,-14
21:27:14.744782,-3329
21:27:14.744782,-1
21:27:14.744782,-9
21:27:14.744782,255
21:27:14.744782,0
21:27:14.744782,9
21:27:14.744782,2304
21:27:14.744782,0
21:27:14.744782,7
21:27:14.744782,1024
21:27:14.744782,0
21:27:14.744782,2
21:27:14.744782,0
21:27:14.744782,0
21:27:14.744782,4
21:27:14.744782,2304
21:27:14.744782,0
21:27:14.744782,9
21:27:14.744782,3584
21:27:14.744782,0
21:27:14.744782,11
21:27:14.744782,1792
21:27:14.744782,0
21:27:14.744782,9
21:27:14.744782,2816
21:27:14.744782,0
21:27:14.744782,11
21:27:14.744782,2816
21:27:14.744782,0
21:27:14.744782,9
21:27:14.744782,1024
21:27:14.744782,0
21:27:14.744782,-11
21:27:14.744782,-2561
21:27:14.744782,-1
21:27:14.744782,11
21:27:14.744782,0
21:27:14.744782,0
21:27:14.744782,-14
21:27:14.744782,2047
21:27:14.744782,0
21:27:14.744782,7
21:27:14.744782,-3584
21:27:14.744782,-1
21:27:14.744782,-16
21:27:14.744782,-5121
21:27:14.744782,-1
21:27:14.744782,-42
21:27:14.744782,-10497
21:27:14.744782,-1
21:27:14.744782,-7
21:27:14.744782,6911
21:27:14.744782,0
21:27:14.744782,28
21:27:14.744782,3584
21:27:14.744782,0
21:27:14.744782,2
21:27:14.744782,-1792
21:27:14.744782,-1
21:27:14.744782,-7
21:27:14.744782,-769
21:27:14.744782,-1
21:27:14.744782,-4
21:27:14.744782,-1537
21:27:14.744782,-1
21:27:14.744782,-11
21:27:14.744782,-9985
21:27:14.744782,-1
21:27:14.744782,-142
21:27:14.744782,12031
21:27:14.744782,-1
21:27:14.744782,49
21:27:14.744782,-9984
21:27:14.744782,2
21:27:14.744782,1283
21:27:14.744782,-5120
21:27:14.744782,3
21:27:14.744782,246
21:27:14.744782,-20992
21:27:14.744782,-1
21:27:14.744782,-66
21:27:14.744782,32511
21:27:14.744782,-1
21:27:14.744782,-175
21:27:14.744782,28927
21:27:14.744782,-1
21:27:14.744782,-146
21:27:14.744782,25855
21:27:14.744782,-1
21:27:14.744782,-139
21:27:14.744782,31487
21:27:14.744782,-1
21:27:14.744782,-134
21:27:14.744782,32511
21:27:14.744782,-1
21:27:14.744782,-127
21:27:14.744782,31999
21:27:14.744782,-1
21:27:14.744782,-132
21:27:15.345797,-130
21:27:15.345797,30719
21:27:15.345797,-1
21:27:15.345797,-142
21:27:15.345797,29439
21:27:15.345797,-1
21:27:15.345797,-146
21:27:15.345797,28927
21:27:15.345797,-1
21:27:15.345797,-134
21:27:15.345797,-29953
21:27:15.345797,-1
21:27:15.345797,-97
21:27:15.345797,-20737
21:27:15.345797,-1
21:27:15.345797,-71
21:27:15.345797,-15361
21:27:15.345797,-1
21:27:15.345797,-52
21:27:15.345797,-9217
21:27:15.345797,-1
21:27:15.345797,-26
21:27:15.345797,-4353
21:27:15.345797,-1
21:27:15.345797,-11
21:27:15.345797,-769
21:27:15.345797,-1
21:27:15.345797,-2
21:27:15.345797,-1537
21:27:15.345797,-1
21:27:15.345797,-16
21:27:15.345797,-6401
21:27:15.345797,-1
21:27:15.345797,-18
21:27:15.345797,255
21:27:15.345797,0
21:27:15.345797,11
21:27:15.345797,1792
21:27:15.345797,0
21:27:15.345797,7
21:27:15.345797,4096
21:27:15.345797,0
21:27:15.345797,14
21:27:15.345797,2304
21:27:15.345797,0
21:27:15.345797,7
21:27:15.345797,1024
21:27:15.345797,0
21:27:15.345797,11
21:27:15.345797,4608
21:27:15.345797,0
21:27:15.345797,16
21:27:15.345797,3584
21:27:15.345797,0
21:27:15.345797,18
21:27:15.345797,4608
21:27:15.345797,0
21:27:15.345797,16
21:27:15.345797,4608
21:27:15.345797,0
21:27:15.345797,18
21:27:15.345797,4096
21:27:15.345797,0
21:27:15.345797,16
21:27:15.345797,4608
21:27:15.345797,0
21:27:15.345797,21
21:27:15.345797,4096
21:27:15.345797,0
21:27:15.345797,18
21:27:15.345797,5376
21:27:15.345797,0
21:27:15.345797,16
21:27:15.345797,4608
21:27:15.345797,0
21:27:15.345797,18
21:27:15.345797,2816
21:27:15.345797,0
21:27:15.345797,0
21:27:15.345797,-2816
21:27:15.345797,-1
21:27:15.345797,-18
21:27:15.345797,-2561
21:27:15.345797,-1
21:27:15.345797,16
21:27:15.345797,11264
21:27:15.345797,0
21:27:15.345797,49
21:27:15.345797,8448
21:27:15.345797,0
21:27:15.345797,16
21:27:15.345797,2816
21:27:15.345797,0
21:27:15.345797,21
21:27:15.345797,5888
21:27:15.345797,0
21:27:15.345797,14
21:27:15.345797,2816
21:27:15.345797,0
21:27:15.345797,14
21:27:15.345797,-8448
21:27:15.345797,-1
21:27:15.345797,-158
21:27:15.345797,16127
21:27:15.345797,-1
21:27:15.345797,134
21:27:15.345797,5120
21:27:15.345797,3
21:27:15.345797,1186
21:27:15.947001,793
21:27:15.947001,32512
21:27:15.947001,0
21:27:15.947001,-44
21:27:15.947001,-3841
21:27:15.947001,-1
21:27:15.947001,-118
21:27:15.947001,29439
21:27:15.947001,-1
21:27:15.947001,-101
21:27:15.947001,-29441
21:27:15.947001,-1
21:27:15.947001,-120
21:27:15.947001,-25601
21:27:15.947001,-1
21:27:15.947001,-108
21:27:15.947001,-27393
21:27:15.947001,-1
21:27:15.947001,-89
21:27:15.947001,-19713
21:27:15.947001,-1
21:27:15.947001,-82
21:27:15.947001,-20737
21:27:15.947001,-1
21:27:15.947001,-82
21:27:15.947001,-22529
21:27:15.947001,-1
21:27:15.947001,-94
21:27:15.947001,-23809
21:27:15.947001,-1
21:27:15.947001,-94
21:27:15.947001,-23297
21:27:15.947001,-1
21:27:15.947001,-78
21:27:15.947001,-17153
21:27:15.947001,-1
21:27:15.947001,-56
21:27:15.947001,-9985
21:27:15.947001,-1
21:27:15.947001,-33
21:27:15.947001,-8193
21:27:15.947001,-1
21:27:15.947001,-33
21:27:15.947001,-6401
21:27:15.947001,-1
21:27:15.947001,-26
21:27:15.947001,-5121
21:27:15.947001,-1
21:27:15.947001,-9
21:27:15.947001,-257
21:27:15.947001,-1
21:27:15.947001,-2
21:27:15.947001,255
21:27:15.947001,0
21:27:15.947001,4
21:27:15.947001,512
21:27:15.947001,0
21:27:15.947001,-4
21:27:15.947001,-2049
21:27:15.947001,-1
21:27:15.947001,-9
21:27:15.947001,-2561
21:27:15.947001,-1
21:27:15.947001,-11
21:27:15.947001,-2561
21:27:15.947001,-1
21:27:15.947001,-9
21:27:15.947001,-769
21:27:15.947001,-1
21:27:15.947001,-4
21:27:15.947001,-769
21:27:15.947001,-1
21:27:15.947001,-2
21:27:15.947001,767
21:27:15.947001,0
21:27:15.947001,2
21:27:15.947001,512
21:27:15.947001,0
21:27:15.947001,7
21:27:15.947001,2304
21:27:15.947001,0
21:27:15.947001,4
21:27:15.947001,1024
21:27:15.947001,0
21:27:15.947001,7
21:27:15.947001,1024
21:27:15.947001,0
21:27:15.947001,0
21:27:15.947001,512
21:27:15.947001,0
21:27:15.947001,2
21:27:15.947001,-512
21:27:15.947001,-1
21:27:15.947001,-9
21:27:15.947001,-5633
21:27:15.947001,-1
21:27:15.947001,-33
21:27:15.947001,-8193
21:27:15.947001,-1
21:27:15.947001,-18
21:27:15.947001,5631
21:27:15.947001,0
21:27:15.947001,54
21:27:15.947001,8448
21:27:15.947001,0
21:27:15.947001,4
21:27:15.947001,2304
21:27:15.947001,0
21:27:15.947001,18
21:27:16.495069,11
21:27:16.495069,1024
21:27:16.495069,0
21:27:16.495069,4
21:27:16.495069,1024
21:27:16.495069,0
21:27:16.495069,-14
21:27:16.495069,-26369
21:27:16.495069,-1
21:27:16.495069,-227
21:27:16.495069,-27393
21:27:16.495069,-1
21:27:16.495069,457
21:27:16.495069,25600
21:27:16.495069,4
21:27:16.495069,1139
21:27:16.495069,-17152
21:27:16.495069,1
21:27:16.495069,-44
21:27:16.495069,-13569
21:27:16.495069,-1
21:27:16.495069,-97
21:27:16.495069,18687
21:27:16.495069,-1
21:27:16.495069,-151
21:27:16.495069,-31233
21:27:16.495069,-1
21:27:16.495069,-130
21:27:16.495069,-31233
21:27:16.495069,-1
21:27:16.495069,-118
21:27:16.495069,-32257
21:27:16.495069,-1
21:27:16.495069,-127
21:27:16.495069,-31233
21:27:16.495069,-1
21:27:16.495069,-125
21:27:16.495069,-31745
21:27:16.495069,-1
21:27:16.495069,-127
21:27:16.495069,31999
21:27:16.495069,-1
21:27:16.495069,-134
21:27:16.495069,29439
21:27:16.495069,-1
21:27:16.495069,-146
21:27:16.495069,28415
21:27:16.495069,-1
21:27:16.495069,-139
21:27:16.495069,-32257
21:27:16.495069,-1
21:27:16.495069,-113
21:27:16.495069,-25601
21:27:16.495069,-1
21:27:16.495069,-94
21:27:16.495069,-20737
21:27:16.495069,-1
21:27:16.495069,-73
21:27:16.495069,-17921
21:27:16.495069,-1
21:27:16.495069,-63
21:27:16.495069,-12289
21:27:16.495069,-1
21:27:16.495069,-37
21:27:16.495069,-7425
21:27:16.495069,-1
21:27:16.495069,-26
21:27:16.495069,-5121
21:27:16.495069,-1
21:27:16.495069,-23
21:27:16.495069,-5633
21:27:16.495069,-1
21:27:16.495069,-23
21:27:16.495069,-6401
21:27:16.495069,-1
21:27:16.495069,-30
21:27:16.495069,-6913
21:27:16.495069,-1
21:27:16.495069,-26
21:27:16.495069,-7425
21:27:16.495069,-1
21:27:16.495069,-33
21:27:16.495069,-7425
21:27:16.495069,-1
21:27:16.495069,-28
21:27:16.495069,-5633
21:27:16.495069,-1
21:27:16.495069,-23
21:27:16.495069,-5633
21:27:16.495069,-1
21:27:16.495069,-21
21:27:16.495069,-3841
21:27:16.495069,-1
21:27:16.495069,-14
21:27:16.495069,-3841
21:27:16.495069,-1
21:27:16.495069,-16
21:27:16.495069,-3329
21:27:16.495069,-1
21:27:16.495069,-16
21:27:16.495069,-3841
21:27:16.495069,-1
21:27:16.495069,-16
21:27:16.495069,-3841
21:27:16.495069,-1
21:27:16.495069,-11
21:27:16.495069,-2561
21:27:16.495069,-1
21:27:16.495069,-16
21:27:17.045253,-14
21:27:17.045253,-2561
21:27:17.045253,-1
21:27:17.045253,-14
21:27:17.045253,-2561
21:27:17.045253,-1
21:27:17.045253,-11
21:27:17.045253,-3329
21:27:17.045253,-1
21:27:17.045253,-21
21:27:17.045253,-6401
21:27:17.045253,-1
21:27:17.045253,-30
21:27:17.045253,-9985
21:27:17.045253,-1
21:27:17.045253,-49
21:27:17.045253,-12289
21:27:17.045253,-1
21:27:17.045253,-30
21:27:17.045253,1279
21:27:17.045253,0
21:27:17.045253,23
21:27:17.045253,4608
21:27:17.045253,0
21:27:17.045253,7
21:27:17.045253,1792
21:27:17.045253,0
21:27:17.045253,9
21:27:17.045253,2304
21:27:17.045253,0
21:27:17.045253,9
21:27:17.045253,512
21:27:17.045253,0
21:27:17.045253,2
21:27:17.045253,-2816
21:27:17.045253,-1
21:27:17.045253,-92
21:27:17.045253,12031
21:27:17.045253,-1
21:27:17.045253,-106
21:27:17.045253,-14593
21:27:17.045253,1
21:27:17.045253,1162
21:27:17.045253,-16128
21:27:17.045253,4
21:27:17.045253,497
21:27:17.045253,-12544
21:27:17.045253,-1
21:27:17.045253,-82
21:27:17.045253,-26881
21:27:17.045253,-1
21:27:17.045253,-191
21:27:17.045253,22783
21:27:17.045253,-1
21:27:17.045253,-144
21:27:17.045253,22783
21:27:17.045253,-1
21:27:17.045253,-168
21:27:17.045253,26623
21:27:17.045253,-1
21:27:17.045253,-153
21:27:17.045253,25855
21:27:17.045253,-1
21:27:17.045253,-153
21:27:17.045253,26623
21:27:17.045253,-1
21:27:17.045253,-153
21:27:17.045253,25855
21:27:17.045253,-1
21:27:17.045253,-161
21:27:17.045253,23551
21:27:17.045253,-1
21:27:17.045253,-170
21:27:17.045253,22271
21:27:17.045253,-1
21:27:17.045253,-168
21:27:17.045253,23551
21:27:17.045253,-1
21:27:17.045253,-156
21:27:17.045253,30207
21:27:17.045253,-1
21:27:17.045253,-125
21:27:17.045253,-28161
21:27:17.045253,-1
21:27:17.045253,-97
21:27:17.045253,-22529
21:27:17.045253,-1
21:27:17.045253,-82
21:27:17.045253,-16641
21:27:17.045253,-1
21:27:17.045253,-52
21:27:17.045253,-9985
21:27:17.045253,-1
21:27:17.045253,-33
21:27:17.045253,-6913
21:27:17.045253,-1
21:27:17.045253,-26
21:27:17.045253,-5121
21:27:17.045253,-1
21:27:17.045253,-21
21:27:17.045253,-5121
21:27:17.045253,-1
21:27:17.045253,-21
21:27:17.045253,-5121
21:27:17.045253,-1
21:27:17.045253,-21
21:27:17.045253,-4353
21:27:17.045253,-1
21:27:17.045253,-21
21:27:17.544993,-21
21:27:17.544993,-4353
21:27:17.544993,-1
21:27:17.544993,-16
21:27:17.544993,-3841
21:27:17.544993,-1
21:27:17.544993,-11
21:27:17.544993,-769
21:27:17.544993,-1
21:27:17.544993,-7
21:27:17.544993,-2049
21:27:17.544993,-1
21:27:17.544993,-4
21:27:17.544993,-257
21:27:17.544993,-1
21:27:17.544993,-2
21:27:17.544993,-769
21:27:17.544993,-1
21:27:17.544993,-9
21:27:17.544993,-769
21:27:17.544993,-1
21:27:17.544993,2
21:27:17.544993,3584
21:27:17.544993,0
21:27:17.544993,18
21:27:17.544993,3584
21:27:17.544993,0
21:27:17.544993,9
21:27:17.544993,2304
21:27:17.544993,0
21:27:17.544993,4
21:27:17.544993,0
21:27:17.544993,0
21:27:17.544993,2
21:27:17.544993,1024
21:27:17.544993,0
21:27:17.544993,4
21:27:17.544993,0
21:27:17.544993,0
21:27:17.544993,-11
21:27:17.544993,-5633
21:27:17.544993,-1
21:27:17.544993,-30
21:27:17.544993,-3329
21:27:17.544993,-1
21:27:17.544993,16
21:27:17.544993,8448
21:27:17.544993,0
21:27:17.544993,21
21:27:17.544993,2816
21:27:17.544993,0
21:27:17.544993,7
21:27:17.544993,512
21:27:17.544993,0
21:27:17.544993,4
21:27:17.544993,2816
21:27:17.544993,0
21:27:17.544993,7
21:27:17.544993,-512
21:27:17.544993,-1
21:27:17.544993,-11
21:27:17.544993,-17921
21:27:17.544993,-1
21:27:17.544993,-201
21:27:17.544993,21759
21:27:17.544993,-1
21:27:17.544993,300
21:27:17.544993,-6400
21:27:17.544993,3
21:27:17.544993,1176
21:27:17.544993,13568
21:27:17.544993,2
21:27:17.544993,-2
21:27:17.544993,-14081
21:27:17.544993,-1
21:27:17.544993,-73
21:27:17.544993,21759
21:27:17.544993,-1
21:27:17.544993,-153
21:27:17.544993,32511
21:27:17.544993,-1
21:27:17.544993,-151
21:27:17.544993,30207
21:27:17.544993,-1
21:27:17.544993,-123
21:27:17.544993,31487
21:27:17.544993,-1
21:27:17.544993,-142
21:27:17.544993,31487
21:27:17.544993,-1
21:27:17.544993,-130
21:27:17.544993,-32257
21:27:17.544993,-1
21:27:17.544993,-123
21:27:17.544993,-31233
21:27:17.544993,-1
21:27:17.544993,-130
21:27:17.544993,31999
21:27:17.544993,-1
21:27:17.544993,-130
21:27:17.544993,32511
21:27:17.544993,-1
21:27:17.544993,-127
21:27:17.544993,-30465
21:27:17.544993,-1
21:27:17.544993,-104
21:27:17.544993,-23297
21:27:17.544993,-1
21:27:17.544993,-82
21:27:18.095264,-71
21:27:18.095264,-16641
21:27:18.095264,-1
21:27:18.095264,-63
21:27:18.095264,-14081
21:27:18.095264,-1
21:27:18.095264,-44
21:27:18.095264,-8193
21:27:18.095264,-1
21:27:18.095264,-23
21:27:18.095264,-2049
21:27:18.095264,-1
21:27:18.095264,7
21:27:18.095264,1024
21:27:18.095264,0
21:27:18.095264,2
21:27:18.095264,1792
21:27:18.095264,0
21:27:18.095264,4
21:27:18.095264,0
21:27:18.095264,0
21:27:18.095264,-2
21:27:18.095264,-257
21:27:18.095264,-1
21:27:18.095264,-7
21:27:18.095264,-1537
21:27:18.095264,-1
21:27:18.095264,-4
21:27:18.095264,-769
21:27:18.095264,-1
21:27:18.095264,-4
21:27:18.095264,-257
21:27:18.095264,-1
21:27:18.095264,4
21:27:18.095264,3584
21:27:18.095264,0
21:27:18.095264,9
21:27:18.095264,-512
21:27:18.095264,-1
21:27:18.095264,2
21:27:18.095264,2816
21:27:18.095264,0
21:27:18.095264,7
21:27:18.095264,512
21:27:18.095264,0
21:27:18.095264,4
21:27:18.095264,1024
21:27:18.095264,0
21:27:18.095264,0
21:27:18.095264,-1024
21:27:18.095264,-1
21:27:18.095264,-9
21:27:18.095264,-5121
21:27:18.095264,-1
21:27:18.095264,-30
21:27:18.095264,-2049
21:27:18.095264,-1
21:27:18.095264,35
21:27:18.095264,13312
21:27:18.095264,0
21:27:18.095264,28
21:27:18.095264,3584
21:27:18.095264,0
21:27:18.095264,16
21:27:18.095264,2816
21:27:18.095264,0
21:27:18.095264,7
21:27:18.095264,2304
21:27:18.095264,0
21:27:18.095264,14
21:27:18.095264,2304
21:27:18.095264,0
21:27:18.095264,-18
21:27:18.095264,-31745
21:27:18.095264,-1
21:27:18.095264,-232
21:27:18.095264,-11009
21:27:18.095264,-1
21:27:18.095264,547
21:27:18.095264,22016
21:27:18.095264,4
21:27:18.095264,985
21:27:18.095264,11264
21:27:18.095264,1
21:27:18.095264,-61
21:27:18.095264,-6913
21:27:18.095264,-1
21:27:18.095264,-94
21:27:18.095264,19967
21:27:18.095264,-1
21:27:18.095264,-137
21:27:18.095264,-28673
21:27:18.095264,-1
21:27:18.095264,-137
21:27:18.095264,30207
21:27:18.095264,-1
21:27:18.095264,-125
21:27:18.095264,-30465
21:27:18.095264,-1
21:27:18.095264,-113
21:27:18.095264,-28161
21:27:18.095264,-1
21:27:18.095264,-111
21:27:18.095264,-31233
21:27:18.095264,-1
21:27:18.095264,-158
21:27:18.095264,23551
21:27:18.095264,-1
21:27:18.095264,-125
21:27:18.695358,-106
21:27:18.695358,-31745
21:27:18.695358,-1
21:27:18.695358,-134
21:27:18.695358,31487
21:27:18.695358,-1
21:27:18.695358,-130
21:27:18.695358,-25089
21:27:18.695358,-1
21:27:18.695358,-63
21:27:18.695358,-14081
21:27:18.695358,-1
21:27:18.695358,-54
21:27:18.695358,-9217
21:27:18.695358,-1
21:27:18.695358,-40
21:27:18.695358,-11777
21:27:18.695358,-1
21:27:18.695358,-33
21:27:18.695358,-2049
21:27:18.695358,-1
21:27:18.695358,-7
21:27:18.695358,-257
21:27:18.695358,-1
21:27:18.695358,7
21:27:18.695358,2304
21:27:18.695358,0
21:27:18.695358,4
21:27:18.695358,512
21:27:18.695358,0
21:27:18.695358,2
21:27:18.695358,1024
21:27:18.695358,0
21:27:18.695358,0
21:27:18.695358,-1792
21:27:18.695358,-1
21:27:18.695358,-2
21:27:18.695358,2047
21:27:18.695358,0
21:27:18.695358,2
21:27:18.695358,-2304
21:27:18.695358,-1
21:27:18.695358,-4
21:27:18.695358,3071
21:27:18.695358,0
21:27:18.695358,4
21:27:18.695358,512
21:27:18.695358,0
21:27:18.695358,14
21:27:18.695358,2816
21:27:18.695358,0
21:27:18.695358,4
21:27:18.695358,2304
21:27:18.695358,0
21:27:18.695358,9
21:27:18.695358,512
21:27:18.695358,0
21:27:18.695358,7
21:27:18.695358,1792
21:27:18.695358,0
21:27:18.695358,-4
21:27:18.695358,-3841
21:27:18.695358,-1
21:27:18.695358,-28
21:27:18.695358,-9217
21:27:18.695358,-1
21:27:18.695358,-35
21:27:18.695358,-769
21:27:18.695358,-1
21:27:18.695358,23
21:27:18.695358,4608
21:27:18.695358,0
21:27:18.695358,-4
21:27:18.695358,-3329
21:27:18.695358,-1
21:27:18.695358,-14
21:27:18.695358,-2049
21:27:18.695358,-1
21:27:18.695358,-9
21:27:18.695358,-1537
21:27:18.695358,-1
21:27:18.695358,-7
21:27:18.695358,-2561
21:27:18.695358,-1
21:27:18.695358,-49
21:27:18.695358,20991
21:27:18.695358,-1
21:27:18.695358,-239
21:27:18.695358,19455
21:27:18.695358,0
21:27:18.695358,764
21:27:18.695358,-13056
21:27:18.695358,4
21:27:18.695358,871
21:27:18.695358,-26368
21:27:18.695358,0
21:27:18.695358,-97
21:27:18.695358,-19713
21:27:18.695358,-1
21:27:18.695358,-156
21:27:18.695358,17919
21:27:18.695358,-1
21:27:18.695358,-156
21:27:18.695358,22271
21:27:18.695358,-1
21:27:18.695358,-179
21:27:18.695358,27135
21:27:18.695358,-1
21:27:18.695358,-144
21:27:19.295280,-161
21:27:19.295280,25855
21:27:19.295280,-1
21:27:19.295280,-149
21:27:19.295280,25343
21:27:19.295280,-1
21:27:19.295280,-163
21:27:19.295280,24575
21:27:19.295280,-1
21:27:19.295280,-168
21:27:19.295280,20991
21:27:19.295280,-1
21:27:19.295280,-175
21:27:19.295280,20479
21:27:19.295280,-1
21:27:19.295280,-182
21:27:19.295280,23551
21:27:19.295280,-1
21:27:19.295280,-137
21:27:19.295280,-31233
21:27:19.295280,-1
21:27:19.295280,-116
21:27:19.295280,-24577
21:27:19.295280,-1
21:27:19.295280,-82
21:27:19.295280,-18945
21:27:19.295280,-1
21:27:19.295280,-68
21:27:19.295280,-14849
21:27:19.295280,-1
21:27:19.295280,-49
21:27:19.295280,-10497
21:27:19.295280,-1
21:27:19.295280,-35
21:27:19.295280,-6913
21:27:19.295280,-1
21:27:19.295280,-26
21:27:19.295280,-6401
21:27:19.295280,-1
21:27:19.295280,-26
21:27:19.295280,-6913
21:27:19.295280,-1
21:27:19.295280,-33
21:27:19.295280,-8193
21:27:19.295280,-1
21:27:19.295280,-30
21:27:19.295280,-8193
21:27:19.295280,-1
21:27:19.295280,-33
21:27:19.295280,-8193
21:27:19.295280,-1
21:27:19.295280,-35
21:27:19.295280,-6913
21:27:19.295280,-1
21:27:19.295280,-21
21:27:19.295280,-5633
21:27:19.295280,-1
21:27:19.295280,-28
21:27:19.295280,-4353
21:27:19.295280,-1
21:27:19.295280,-16
21:27:19.295280,-5121
21:27:19.295280,-1
21:27:19.295280,-21
21:27:19.295280,-4353
21:27:19.295280,-1
21:27:19.295280,-18
21:27:19.295280,-3841
21:27:19.295280,-1
21:27:19.295280,-14
21:27:19.295280,-2561
21:27:19.295280,-1
21:27:19.295280,-9
21:27:19.295280,-1537
21:27:19.295280,-1
21:27:19.295280,-9
21:27:19.295280,-3329
21:27:19.295280,-1
21:27:19.295280,-18
21:27:19.295280,-6913
21:27:19.295280,-1
21:27:19.295280,-42
21:27:19.295280,-12289
21:27:19.295280,-1
21:27:19.295280,-40
21:27:19.295280,-2561
21:27:19.295280,-1
21:27:19.295280,23
21:27:19.295280,7168
21:27:19.295280,0
21:27:19.295280,4
21:27:19.295280,-1024
21:27:19.295280,-1
21:27:19.295280,-4
21:27:19.295280,-2049
21:27:19.295280,-1
21:27:19.295280,-9
21:27:19.295280,-1537
21:27:19.295280,-1
21:27:19.295280,-9
21:27:19.295280,-4353
21:27:19.295280,-1
21:27:19.295280,-63
21:27:19.295280,19199
21:27:19.295280,-1
21:27:19.295280,-210
21:27:19.295280,-27905
21:27:19.295280,0
21:27:19.295280,880
21:27:19.795581,1319
21:27:19.795581,20992
21:27:19.795581,3
21:27:19.795581,99
21:27:19.795581,-28416
21:27:19.795581,-1
21:27:19.795581,-92
21:27:19.795581,20479
21:27:19.795581,-1
21:27:19.795581,-191
21:27:19.795581,27135
21:27:19.795581,-1
21:27:19.795581,-165
21:27:19.795581,21759
21:27:19.795581,-1
21:27:19.795581,-153
21:27:19.795581,25343
21:27:19.795581,-1
21:27:19.795581,-165
21:27:19.795581,27647
21:27:19.795581,-1
21:27:19.795581,-149
21:27:19.795581,26623
21:27:19.795581,-1
21:27:19.795581,-142
21:27:19.795581,30719
21:27:19.795581,-1
21:27:19.795581,-151
21:27:19.795581,26623
21:27:19.795581,-1
21:27:19.795581,-156
21:27:19.795581,23551
21:27:19.795581,-1
21:27:19.795581,-163
21:27:19.795581,27647
21:27:19.795581,-1
21:27:19.795581,-137
21:27:19.795581,-32257
21:27:19.795581,-1
21:27:19.795581,-118
21:27:19.795581,-27393
21:27:19.795581,-1
21:27:19.795581,-101
21:27:19.795581,-22017
21:27:19.795581,-1
21:27:19.795581,-68
21:27:19.795581,-14081
21:27:19.795581,-1
21:27:19.795581,-42
21:27:19.795581,-7425
21:27:19.795581,-1
21:27:19.795581,-28
21:27:19.795581,-5633
21:27:19.795581,-1
21:27:19.795581,-14
21:27:19.795581,-3841
21:27:19.795581,-1
21:27:19.795581,-16
21:27:19.795581,-1537
21:27:19.795581,-1
21:27:19.795581,-4
21:27:19.795581,-2561
21:27:19.795581,-1
21:27:19.795581,-14
21:27:19.795581,-3329
21:27:19.795581,-1
21:27:19.795581,-18
21:27:19.795581,-4353
21:27:19.795581,-1
21:27:19.795581,-14
21:27:19.795581,-3329
21:27:19.795581,-1
21:27:19.795581,-21
21:27:19.795581,-6401
21:27:19.795581,-1
21:27:19.795581,-14
21:27:19.795581,-1537
21:27:19.795581,-1
21:27:19.795581,-7
21:27:19.795581,-769
21:27:19.795581,-1
21:27:19.795581,-4
21:27:19.795581,-2049
21:27:19.795581,-1
21:27:19.795581,-4
21:27:19.795581,767
21:27:19.795581,0
21:27:19.795581,2
21:27:19.795581,0
21:27:19.795581,0
21:27:19.795581,2
21:27:19.795581,1024
21:27:19.795581,0
21:27:19.795581,2
21:27:19.795581,1024
21:27:19.795581,0
21:27:19.795581,4
21:27:19.795581,-2304
21:27:19.795581,-1
21:27:19.795581,-21
21:27:19.795581,-5633
21:27:19.795581,-1
21:27:19.795581,-33
21:27:19.795581,-7425
21:27:19.795581,-1
21:27:19.795581,-9
21:27:19.795581,9215
21:27:19.795581,0
21:27:19.795581,56
21:27:20.345184,28
21:27:20.345184,1792
21:27:20.345184,0
21:27:20.345184,11
21:27:20.345184,3584
21:27:20.345184,0
21:27:20.345184,14
21:27:20.345184,2816
21:27:20.345184,0
21:27:20.345184,4
21:27:20.345184,2304
21:27:20.345184,0
21:27:20.345184,-2
21:27:20.345184,-28673
21:27:20.345184,-1
21:27:20.345184,-210
21:27:20.345184,6911
21:27:20.345184,0
21:27:20.345184,653
21:27:20.345184,-27136
21:27:20.345184,4
21:27:20.345184,954
21:27:20.345184,1024
21:27:20.345184,1
21:27:20.345184,-40
21:27:20.345184,-769
21:27:20.345184,-1
21:27:20.345184,-92
21:27:20.345184,26623
21:27:20.345184,-1
21:27:20.345184,-106
21:27:20.345184,-29441
21:27:20.345184,-1
21:27:20.345184,-144
21:27:20.345184,-31745
21:27:20.345184,-1
21:27:20.345184,-113
21:27:20.345184,-29953
21:27:20.345184,-1
21:27:20.345184,-116
21:27:20.345184,-28673
21:27:20.345184,-1
21:27:20.345184,-118
21:27:20.345184,-29953
21:27:20.345184,-1
21:27:20.345184,-116
21:27:20.345184,-28161
21:27:20.345184,-1
21:27:20.345184,-108
21:27:20.345184,-29953
21:27:20.345184,-1
21:27:20.345184,-123
21:27:20.345184,-29441
21:27:20.345184,-1
21:27:20.345184,-111
21:27:20.345184,-26369
21:27:20.345184,-1
21:27:20.345184,-89
21:27:20.345184,-18945
21:27:20.345184,-1
21:27:20.345184,-61
21:27:20.345184,-13569
21:27:20.345184,-1
21:27:20.345184,-56
21:27:20.345184,-14081
21:27:20.345184,-1
21:27:20.345184,-52
21:27:20.345184,-10497
21:27:20.345184,-1
21:27:20.345184,-30
21:27:20.345184,-6401
21:27:20.345184,-1
21:27:20.345184,-26
21:27:20.345184,-5121
21:27:20.345184,-1
21:27:20.345184,-18
21:27:20.345184,-4353
21:27:20.345184,-1
21:27:20.345184,-26
21:27:20.345184,-5633
21:27:20.345184,-1
21:27:20.345184,-16
21:27:20.345184,-5633
21:27:20.345184,-1
21:27:20.345184,-26
21:27:20.345184,-5633
21:27:20.345184,-1
21:27:20.345184,-21
21:27:20.345184,-5121
21:27:20.345184,-1
21:27:20.345184,-14
21:27:20.345184,-2049
21:27:20.345184,-1
21:27:20.345184,-7
21:27:20.345184,-769
21:27:20.345184,-1
21:27:20.345184,-7
21:27:20.345184,-2049
21:27:20.345184,-1
21:27:20.345184,-2
21:27:20.345184,255
21:27:20.345184,0
21:27:20.345184,-4
21:27:20.345184,-1537
21:27:20.345184,-1
21:27:20.345184,-7
21:27:20.345184,-1537
21:27:20.345184,-1
21:27:20.345184,-7
21:27:21.090052,-4
21:27:21.090052,-257
21:27:21.090052,-1
21:27:21.090052,-2
21:27:21.090052,255
21:27:21.090052,0
21:27:21.090052,0
21:27:21.090052,0
21:27:21.090052,0
21:27:21.090052,4
21:27:21.090052,512
21:27:21.090052,0
21:27:21.090052,-16
21:27:21.090052,-6913
21:27:21.090052,-1
21:27:21.090052,-21
21:27:21.090052,767
21:27:21.090052,0
21:27:21.090052,40
21:27:21.090052,13312
21:27:21.090052,0
21:27:21.090052,26
21:27:21.090052,1792
21:27:21.090052,0
21:27:21.090052,11
21:27:21.090052,2816
21:27:21.090052,0
21:27:21.090052,7
21:27:21.090052,1792
21:27:21.090052,0
21:27:21.090052,9
21:27:21.090052,1792
21:27:21.090052,0
21:27:21.090052,-28
21:27:21.090052,30719
21:27:21.090052,-1
21:27:21.090052,-215
21:27:21.090052,9727
21:27:21.090052,0
21:27:21.090052,727
21:27:21.090052,5632
21:27:21.090052,5
21:27:21.090052,1032
21:27:21.090052,1024
21:27:21.090052,1
21:27:21.090052,-71
21:27:21.090052,-13057
21:27:21.090052,-1
21:27:21.090052,-130
21:27:21.090052,19967
21:27:21.090052,-1
21:27:21.090052,-137
21:27:21.090052,29439
21:27:21.090052,-1
21:27:21.090052,-161
21:27:21.090052,27647
21:27:21.090052,-1
21:27:21.090052,-146
21:27:21.090052,27135
21:27:21.090052,-1
21:27:21.090052,-146
21:27:21.090052,29439
21:27:21.090052,-1
21:27:21.090052,-146
21:27:21.090052,27647
21:27:21.090052,-1
21:27:21.090052,-151
21:27:21.090052,26623
21:27:21.090052,-1
21:27:21.090052,-158
21:27:21.090052,24063
21:27:21.090052,-1
21:27:21.090052,-165
21:27:21.090052,22783
21:27:21.090052,-1
21:27:21.090052,-163
21:27:21.090052,27647
21:27:21.090052,-1
21:27:21.090052,-130
21:27:21.090052,-28673
21:27:21.090052,-1
21:27:21.090052,-99
21:27:21.090052,-22017
21:27:21.090052,-1
21:27:21.090052,-80
21:27:21.090052,-17921
21:27:21.090052,-1
21:27:21.090052,-56
21:27:21.090052,-11009
21:27:21.090052,-1
21:27:21.090052,-40
21:27:21.090052,-9217
21:27:21.090052,-1
21:27:21.090052,-33
21:27:21.090052,-6401
21:27:21.090052,-1
21:27:21.090052,-21
21:27:21.090052,-5121
21:27:21.090052,-1
21:27:21.090052,-21
21:27:21.090052,-5633
21:27:21.090052,-1
21:27:21.090052,-26
21:27:21.090052,-6913
21:27:21.090052,-1
21:27:21.090052,-26
21:27:21.090052,-5633
21:27:21.090052,-1
21:27:21.090052,-26
21:27:21.445121,-30
21:27:21.445121,-7425
21:27:21.445121,-1
21:27:21.445121,-30
21:27:21.445121,-5633
21:27:21.445121,-1
21:27:21.445121,-14
21:27:21.445121,-1537
21:27:21.445121,-1
21:27:21.445121,-4
21:27:21.445121,-769
21:27:21.445121,-1
21:27:21.445121,-4
21:27:21.445121,-257
21:27:21.445121,-1
21:27:21.445121,-2
21:27:21.445121,-257
21:27:21.445121,-1
21:27:21.445121,2
21:27:21.445121,512
21:27:21.445121,0
21:27:21.445121,2
21:27:21.445121,0
21:27:21.445121,0
21:27:21.445121,2
21:27:21.445121,2816
21:27:21.445121,0
21:27:21.445121,21
21:27:21.445121,4096
21:27:21.445121,0
21:27:21.445121,11
21:27:21.445121,4096
21:27:21.445121,0
21:27:21.445121,14
21:27:21.445121,2304
21:27:21.445121,0
21:27:21.445121,11
21:27:21.445121,2304
21:27:21.445121,0
21:27:21.445121,4
21:27:21.445121,1792
21:27:21.445121,0
21:27:21.445121,2
21:27:21.445121,-1792
21:27:21.445121,-1
21:27:21.445121,-4
21:27:21.445121,767
21:27:21.445121,0
21:27:21.445121,-2
21:27:21.445121,-3841
21:27:21.445121,-1
21:27:21.445121,-28
21:27:21.445121,-7425
21:27:21.445121,-1
21:27:21.445121,0
21:27:21.445121,9472
21:27:21.445121,0
21:27:21.445121,40
21:27:21.445121,4608
21:27:21.445121,0
21:27:21.445121,11
21:27:21.445121,1792
21:27:21.445121,0
21:27:21.445121,0
21:27:21.445121,512
21:27:21.445121,0
21:27:21.445121,2
21:27:21.445121,1024
21:27:21.445121,0
21:27:21.445121,2
21:27:21.445121,-10752
21:27:21.445121,-1
21:27:21.445121,-158
21:27:21.445121,15615
21:27:21.445121,-1
21:27:21.445121,130
21:27:21.445121,19200
21:27:21.445121,3
21:27:21.445121,1319
21:27:21.445121,-30720
21:27:21.445121,3
21:27:21.445121,146
21:27:21.445121,-24832
21:27:21.445121,-1
21:27:21.445121,-68
21:27:21.445121,27135
21:27:21.445121,-1
21:27:21.445121,-182
21:27:21.445121,28927
21:27:21.445121,-1
21:27:21.445121,-153
21:27:21.445121,23551
21:27:21.445121,-1
21:27:21.445121,-146
21:27:21.445121,28927
21:27:21.445121,-1
21:27:21.445121,-149
21:27:21.445121,29439
21:27:21.445121,-1
21:27:21.445121,-139
21:27:21.445121,29439
21:27:21.445121,-1
21:27:21.445121,-142
21:27:21.445121,28927
21:27:21.445121,-1
21:27:21.445121,-149
21:27:21.445121,27135
21:27:21.445121,-1
21:27:21.445121,-156
21:27:22.045172,-156
21:27:22.045172,25855
21:27:22.045172,-1
21:27:22.045172,-149
21:27:22.045172,-32257
21:27:22.045172,-1
21:27:22.045172,-104
21:27:22.045172,-23297
21:27:22.045172,-1
21:27:22.045172,-85
21:27:22.045172,-18433
21:27:22.045172,-1
21:27:22.045172,-61
21:27:22.045172,-11009
21:27:22.045172,-1
21:27:22.045172,-28
21:27:22.045172,-3841
21:27:22.045172,-1
21:27:22.045172,-9
21:27:22.045172,-769
21:27:22.045172,-1
21:27:22.045172,0
21:27:22.045172,512
21:27:22.045172,0
21:27:22.045172,4
21:27:22.045172,2816
21:27:22.045172,0
21:27:22.045172,9
21:27:22.045172,1792
21:27:22.045172,0
21:27:22.045172,7
21:27:22.045172,1024
21:27:22.045172,0
21:27:22.045172,-2
21:27:22.045172,-2049
21:27:22.045172,-1
21:27:22.045172,-4
21:27:22.045172,1279
21:27:22.045172,0
21:27:22.045172,4
21:27:22.045172,512
21:27:22.045172,0
21:27:22.045172,7
21:27:22.045172,3584
21:27:22.045172,0
21:27:22.045172,16
21:27:22.045172,2304
21:27:22.045172,0
21:27:22.045172,9
21:27:22.045172,3584
21:27:22.045172,0
21:27:22.045172,14
21:27:22.045172,3584
21:27:22.045172,0
21:27:22.045172,16
21:27:22.045172,4096
21:27:22.045172,0
21:27:22.045172,14
21:27:22.045172,3584
21:27:22.045172,0
21:27:22.045172,16
21:27:22.045172,4096
21:27:22.045172,0
21:27:22.045172,16
21:27:22.045172,2816
21:27:22.045172,0
21:27:22.045172,9
21:27:22.045172,3584
21:27:22.045172,0
21:27:22.045172,11
21:27:22.045172,512
21:27:22.045172,0
21:27:22.045172,-7
21:27:22.045172,-4353
21:27:22.045172,-1
21:27:22.045172,-21
21:27:22.045172,255
21:27:22.045172,0
21:27:22.045172,33
21:27:22.045172,12544
21:27:22.045172,0
21:27:22.045172,37
21:27:22.045172,3584
21:27:22.045172,0
21:27:22.045172,4
21:27:22.045172,3584
21:27:22.045172,0
21:27:22.045172,18
21:27:22.045172,2816
21:27:22.045172,0
21:27:22.045172,4
21:27:22.045172,512
21:27:22.045172,0
21:27:22.045172,-4
21:27:22.045172,-20225
21:27:22.045172,-1
21:27:22.045172,-213
21:27:22.045172,31487
21:27:22.045172,-1
21:27:22.045172,364
21:27:22.045172,-5888
21:27:22.045172,3
21:27:22.045172,1115
21:27:22.045172,256
21:27:22.045172,2
21:27:22.045172,-9
21:27:22.045172,-8193
21:27:22.045172,-1
21:27:22.045172,-44
21:27:22.595140,-149
21:27:22.595140,31487
21:27:22.595140,-1
21:27:22.595140,-104
21:27:22.595140,-32257
21:27:22.595140,-1
21:27:22.595140,-130
21:27:22.595140,-27393
21:27:22.595140,-1
21:27:22.595140,-106
21:27:22.595140,-28673
21:27:22.595140,-1
21:27:22.595140,-99
21:27:22.595140,-20225
21:27:22.595140,-1
21:27:22.595140,-78
21:27:22.595140,-22017
21:27:22.595140,-1
21:27:22.595140,-92
21:27:22.595140,-23297
21:27:22.595140,-1
21:27:22.595140,-94
21:27:22.595140,-23297
21:27:22.595140,-1
21:27:22.595140,-92
21:27:22.595140,-23297
21:27:22.595140,-1
21:27:22.595140,-80
21:27:22.595140,-15873
21:27:22.595140,-1
21:27:22.595140,-54
21:27:22.595140,-9985
21:27:22.595140,-1
21:27:22.595140,-28
21:27:22.595140,-6913
21:27:22.595140,-1
21:27:22.595140,-30
21:27:22.595140,-7425
21:27:22.595140,-1
21:27:22.595140,-26
21:27:22.595140,-4353
21:27:22.595140,-1
21:27:22.595140,-7
21:27:22.595140,-257
21:27:22.595140,-1
21:27:22.595140,-2
21:27:22.595140,-769
21:27:22.595140,-1
21:27:22.595140,-4
21:27:22.595140,-257
21:27:22.595140,-1
21:27:22.595140,-2
21:27:22.595140,-2049
21:27:22.595140,-1
21:27:22.595140,-9
21:27:22.595140,-1537
21:27:22.595140,-1
21:27:22.595140,-9
21:27:22.595140,-2049
21:27:22.595140,-1
21:27:22.595140,-4
21:27:22.595140,255
21:27:22.595140,0
21:27:22.595140,2
21:27:22.595140,1792
21:27:22.595140,0
21:27:22.595140,9
21:27:22.595140,1792
21:27:22.595140,0
21:27:22.595140,4
21:27:22.595140,2304
21:27:22.595140,0
21:27:22.595140,11
21:27:22.595140,1792
21:27:22.595140,0
21:27:22.595140,4
21:27:22.595140,1792
21:27:22.595140,0
21:27:22.595140,7
21:27:22.595140,1024
21:27:22.595140,0
21:27:22.595140,-2
21:27:22.595140,-2561
21:27:22.595140,-1
21:27:22.595140,-23
21:27:22.595140,-7425
21:27:22.595140,-1
21:27:22.595140,-16
21:27:22.595140,6143
21:27:22.595140,0
21:27:22.595140,52
21:27:22.595140,8448
21:27:22.595140,0
21:27:22.595140,9
21:27:22.595140,1792
21:27:22.595140,0
21:27:22.595140,7
21:27:22.595140,1024
21:27:22.595140,0
21:27:22.595140,4
21:27:22.595140,1024
21:27:22.595140,0
21:27:22.595140,7
21:27:22.595140,-512
21:27:22.595140,-1
21:27:22.595140,-71
21:27:22.595140,14335
21:27:22.595140,-1
21:27:22.595140,-184
21:27:23.195061,255
21:27:23.195061,-11776
21:27:23.195061,3
21:27:23.195061,1259
21:27:23.195061,-21504
21:27:23.195061,2
21:27:23.195061,33
21:27:23.195061,-17408
21:27:23.195061,-1
21:27:23.195061,-66
21:27:23.195061,24575
21:27:23.195061,-1
21:27:23.195061,-144
21:27:23.195061,-28161
21:27:23.195061,-1
21:27:23.195061,-144
21:27:23.195061,28927
21:27:23.195061,-1
21:27:23.195061,-123
21:27:23.195061,-32257
21:27:23.195061,-1
21:27:23.195061,-130
21:27:23.195061,-31745
21:27:23.195061,-1
21:27:23.195061,-125
21:27:23.195061,-32257
21:27:23.195061,-1
21:27:23.195061,-125
21:27:23.195061,-32257
21:27:23.195061,-1
21:27:23.195061,-134
21:27:23.195061,30207
21:27:23.195061,-1
21:27:23.195061,-142
21:27:23.195061,28415
21:27:23.195061,-1
21:27:23.195061,-144
21:27:23.195061,31487
21:27:23.195061,-1
21:27:23.195061,-113
21:27:23.195061,-24577
21:27:23.195061,-1
21:27:23.195061,-87
21:27:23.195061,-18945
21:27:23.195061,-1
21:27:23.195061,-61
21:27:23.195061,-13569
21:27:23.195061,-1
21:27:23.195061,-47
21:27:23.195061,-9985
21:27:23.195061,-1
21:27:23.195061,-33
21:27:23.195061,-6913
21:27:23.195061,-1
21:27:23.195061,-23
21:27:23.195061,-4353
21:27:23.195061,-1
21:27:23.195061,-14
21:27:23.195061,-2561
21:27:23.195061,-1
21:27:23.195061,-9
21:27:23.195061,-3329
21:27:23.195061,-1
21:27:23.195061,-18
21:27:23.195061,-5633
21:27:23.195061,-1
21:27:23.195061,-26
21:27:23.195061,-5633
21:27:23.195061,-1
21:27:23.195061,-21
21:27:23.195061,-4353
21:27:23.195061,-1
21:27:23.195061,-14
21:27:23.195061,-2049
21:27:23.195061,-1
21:27:23.195061,-9
21:27:23.195061,-2561
21:27:23.195061,-1
21:27:23.195061,-18
21:27:23.195061,-2561
21:27:23.195061,-1
21:27:23.195061,11
21:27:23.195061,2816
21:27:23.195061,0
21:27:23.195061,-4
21:27:23.195061,255
21:27:23.195061,0
21:27:23.195061,2
21:27:23.195061,-1792
21:27:23.195061,-1
21:27:23.195061,0
21:27:23.195061,1792
21:27:23.195061,0
21:27:23.195061,0
21:27:23.195061,-1792
21:27:23.195061,-1
21:27:23.195061,-11
21:27:23.195061,-2561
21:27:23.195061,-1
21:27:23.195061,-9
21:27:23.195061,-6401
21:27:23.195061,-1
21:27:23.195061,-44
21:27:23.195061,-11777
21:27:23.195061,-1
21:27:23.195061,-30
21:27:23.195061,2047
21:27:23.195061,0
21:27:23.195061,33
21:27:23.745192,18
21:27:23.745192,-512
21:27:23.745192,-1
21:27:23.745192,-4
21:27:23.745192,-257
21:27:23.745192,-1
21:27:23.745192,-2
21:27:23.745192,-769
21:27:23.745192,-1
21:27:23.745192,-9
21:27:23.745192,-2561
21:27:23.745192,-1
21:27:23.745192,-23
21:27:23.745192,-25089
21:27:23.745192,-1
21:27:23.745192,-220
21:27:23.745192,-31233
21:27:23.745192,-1
21:27:23.745192,431
21:27:23.745192,-32512
21:27:23.745192,4
21:27:23.745192,1238
21:27:23.745192,6400
21:27:23.745192,2
21:27:23.745192,-23
21:27:23.745192,-16641
21:27:23.745192,-1
21:27:23.745192,-87
21:27:23.745192,22271
21:27:23.745192,-1
21:27:23.745192,-153
21:27:23.745192,31487
21:27:23.745192,-1
21:27:23.745192,-153
21:27:23.745192,27647
21:27:23.745192,-1
21:27:23.745192,-134
21:27:23.745192,29439
21:27:23.745192,-1
21:27:23.745192,-142
21:27:23.745192,30719
21:27:23.745192,-1
21:27:23.745192,-139
21:27:23.745192,29439
21:27:23.745192,-1
21:27:23.745192,-144
21:27:23.745192,28927
21:27:23.745192,-1
21:27:23.745192,-144
21:27:23.745192,27647
21:27:23.745192,-1
21:27:23.745192,-158
21:27:23.745192,25343
21:27:23.745192,-1
21:27:23.745192,-149
21:27:23.745192,30207
21:27:23.745192,-1
21:27:23.745192,-130
21:27:23.745192,-29441
21:27:23.745192,-1
21:27:23.745192,-101
21:27:23.745192,-23809
21:27:23.745192,-1
21:27:23.745192,-85
21:27:23.745192,-18433
21:27:23.745192,-1
21:27:23.745192,-61
21:27:23.745192,-13569
21:27:23.745192,-1
21:27:23.745192,-44
21:27:23.745192,-8705
21:27:23.745192,-1
21:27:23.745192,-28
21:27:23.745192,-7425
21:27:23.745192,-1
21:27:23.745192,-30
21:27:23.745192,-5633
21:27:23.745192,-1
21:27:23.745192,-16
21:27:23.745192,-3329
21:27:23.745192,-1
21:27:23.745192,-16
21:27:23.745192,-3841
21:27:23.745192,-1
21:27:23.745192,-11
21:27:23.745192,-3329
21:27:23.745192,-1
21:27:23.745192,-21
21:27:23.745192,-3841
21:27:23.745192,-1
21:27:23.745192,-9
21:27:23.745192,-2049
21:27:23.745192,-1
21:27:23.745192,-11
21:27:23.745192,-2049
21:27:23.745192,-1
21:27:23.745192,-9
21:27:23.745192,-2049
21:27:23.745192,-1
21:27:23.745192,-9
21:27:23.745192,-769
21:27:23.745192,-1
21:27:23.745192,0
21:27:23.745192,512
21:27:23.745192,0
21:27:23.745192,2
21:27:23.745192,0
21:27:23.745192,0
21:27:23.745192,-4
21:27:24.346107,-4
21:27:24.346107,255
21:27:24.346107,0
21:27:24.346107,0
21:27:24.346107,-512
21:27:24.346107,-1
21:27:24.346107,0
21:27:24.346107,1792
21:27:24.346107,0
21:27:24.346107,7
21:27:24.346107,-1792
21:27:24.346107,-1
21:27:24.346107,-14
21:27:24.346107,-5633
21:27:24.346107,-1
21:27:24.346107,-35
21:27:24.346107,-3329
21:27:24.346107,-1
21:27:24.346107,33
21:27:24.346107,13824
21:27:24.346107,0
21:27:24.346107,42
21:27:24.346107,7168
21:27:24.346107,0
21:27:24.346107,21
21:27:24.346107,4096
21:27:24.346107,0
21:27:24.346107,21
21:27:24.346107,5888
21:27:24.346107,0
21:27:24.346107,18
21:27:24.346107,2816
21:27:24.346107,0
21:27:24.346107,-2
21:27:24.346107,-15873
21:27:24.346107,-1
21:27:24.346107,-184
21:27:24.346107,25855
21:27:24.346107,-1
21:27:24.346107,277
21:27:24.346107,-16128
21:27:24.346107,3
21:27:24.346107,1214
21:27:24.346107,-29952
21:27:24.346107,2
21:27:24.346107,28
21:27:24.346107,-12544
21:27:24.346107,-1
21:27:24.346107,-44
21:27:24.346107,25855
21:27:24.346107,-1
21:27:24.346107,-151
21:27:24.346107,-29441
21:27:24.346107,-1
21:27:24.346107,-137
21:27:24.346107,30719
21:27:24.346107,-1
21:27:24.346107,-118
21:27:24.346107,-31233
21:27:24.346107,-1
21:27:24.346107,-125
21:27:24.346107,-30465
21:27:24.346107,-1
21:27:24.346107,-116
21:27:24.346107,-29441
21:27:24.346107,-1
21:27:24.346107,-125
21:27:24.346107,-31745
21:27:24.346107,-1
21:27:24.346107,-111
21:27:24.346107,-28161
21:27:24.346107,-1
21:27:24.346107,-120
21:27:24.346107,-30465
21:27:24.346107,-1
21:27:24.346107,-113
21:27:24.346107,-25089
21:27:24.346107,-1
21:27:24.346107,-87
21:27:24.346107,-20225
21:27:24.346107,-1
21:27:24.346107,-63
21:27:24.346107,-13569
21:27:24.346107,-1
21:27:24.346107,-56
21:27:24.346107,-11777
21:27:24.346107,-1
21:27:24.346107,-33
21:27:24.346107,-6913
21:27:24.346107,-1
21:27:24.346107,-28
21:27:24.346107,-5633
21:27:24.346107,-1
21:27:24.346107,-18
21:27:24.346107,-2561
21:27:24.346107,-1
21:27:24.346107,-7
21:27:24.346107,-257
21:27:24.346107,-1
21:27:24.346107,-4
21:27:24.346107,-3329
21:27:24.346107,-1
21:27:24.346107,-14
21:27:24.346107,-2561
21:27:24.346107,-1
21:27:24.346107,-11
21:27:24.346107,-1537
21:27:24.346107,-1
21:27:24.346107,-4
21:27:24.846127,-4
21:27:24.846127,-1537
21:27:24.846127,-1
21:27:24.846127,0
21:27:24.846127,1024
21:27:24.846127,0
21:27:24.846127,4
21:27:24.846127,1024
21:27:24.846127,0
21:27:24.846127,4
21:27:24.846127,2304
21:27:24.846127,0
21:27:24.846127,9
21:27:24.846127,2304
21:27:24.846127,0
21:27:24.846127,11
21:27:24.846127,2304
21:27:24.846127,0
21:27:24.846127,9
21:27:24.846127,2816
21:27:24.846127,0
21:27:24.846127,4
21:27:24.846127,-512
21:27:24.846127,-1
21:27:24.846127,0
21:27:24.846127,0
21:27:24.846127,0
21:27:24.846127,-9
21:27:24.846127,1279
21:27:24.846127,0
21:27:24.846127,47
21:27:24.846127,16128
21:27:24.846127,0
21:27:24.846127,44
21:27:24.846127,7168
21:27:24.846127,0
21:27:24.846127,26
21:27:24.846127,5888
21:27:24.846127,0
21:27:24.846127,23
21:27:24.846127,5888
21:27:24.846127,0
21:27:24.846127,21
21:27:24.846127,4608
21:27:24.846127,0
21:27:24.846127,4
21:27:24.846127,-16128
21:27:24.846127,-1
21:27:24.846127,-198
21:27:24.846127,23551
21:27:24.846127,-1
21:27:24.846127,286
21:27:24.846127,-17408
21:27:24.846127,3
21:27:24.846127,1172
21:27:24.846127,24576
21:27:24.846127,2
21:27:24.846127,26
21:27:24.846127,-8960
21:27:24.846127,-1
21:27:24.846127,-37
21:27:24.846127,27647
21:27:24.846127,-1
21:27:24.846127,-139
21:27:24.846127,-26369
21:27:24.846127,-1
21:27:24.846127,-130
21:27:24.846127,31999
21:27:24.846127,-1
21:27:24.846127,-116
21:27:24.846127,-30465
21:27:24.846127,-1
21:27:24.846127,-127
21:27:24.846127,-30465
21:27:24.846127,-1
21:27:24.846127,-116
21:27:24.846127,-28673
21:27:24.846127,-1
21:27:24.846127,-113
21:27:24.846127,-29953
21:27:24.846127,-1
21:27:24.846127,-120
21:27:24.846127,-30465
21:27:24.846127,-1
21:27:24.846127,-123
21:27:24.846127,-31233
21:27:24.846127,-1
21:27:24.846127,-123
21:27:24.846127,-29441
21:27:24.846127,-1
21:27:24.846127,-92
21:27:24.846127,-17921
21:27:24.846127,-1
21:27:24.846127,-61
21:27:24.846127,-13057
21:27:24.846127,-1
21:27:24.846127,-44
21:27:24.846127,-12289
21:27:24.846127,-1
21:27:24.846127,-56
21:27:24.846127,-11777
21:27:24.846127,-1
21:27:24.846127,-40
21:27:24.846127,-8705
21:27:24.846127,-1
21:27:24.846127,-26
21:27:24.846127,-5121
21:27:24.846127,-1
21:27:24.846127,-18
21:27:25.445002,-14
21:27:25.445002,-4353
21:27:25.445002,-1
21:27:25.445002,-26
21:27:25.445002,-6401
21:27:25.445002,-1
21:27:25.445002,-26
21:27:25.445002,-6401
21:27:25.445002,-1
21:27:25.445002,-28
21:27:25.445002,-6913
21:27:25.445002,-1
21:27:25.445002,-21
21:27:25.445002,-769
21:27:25.445002,-1
21:27:25.445002,-4
21:27:25.445002,-2561
21:27:25.445002,-1
21:27:25.445002,-2
21:27:25.445002,2047
21:27:25.445002,0
21:27:25.445002,0
21:27:25.445002,-1024
21:27:25.445002,-1
21:27:25.445002,0
21:27:25.445002,512
21:27:25.445002,0
21:27:25.445002,0
21:27:25.445002,1792
21:27:25.445002,0
21:27:25.445002,9
21:27:25.445002,1792
21:27:25.445002,0
21:27:25.445002,4
21:27:25.445002,2304
21:27:25.445002,0
21:27:25.445002,11
21:27:25.445002,2304
21:27:25.445002,0
21:27:25.445002,7
21:27:25.445002,1792
21:27:25.445002,0
21:27:25.445002,18
21:27:25.445002,7168
21:27:25.445002,0
21:27:25.445002,21
21:27:25.445002,1792
21:27:25.445002,0
21:27:25.445002,0
21:27:25.445002,-1024
21:27:25.445002,-1
21:27:25.445002,-7
21:27:25.445002,-2049
21:27:25.445002,-1
21:27:25.445002,9
21:27:25.445002,12032
21:27:25.445002,0
21:27:25.445002,56
21:27:25.445002,8448
21:27:25.445002,0
21:27:25.445002,16
21:27:25.445002,4096
21:27:25.445002,0
21:27:25.445002,18
21:27:25.445002,4608
