timestamp,ecg,reconstructed_time
2025-11-07 16:50:30.811850,1802,2025-11-07 16:50:30.811850000
2025-11-07 16:50:30.811850,-16384,2025-11-07 16:50:30.819542308
2025-11-07 16:50:30.811850,6,2025-11-07 16:50:30.827234615
2025-11-07 16:50:30.811850,1781,2025-11-07 16:50:30.834926923
2025-11-07 16:50:30.811850,-7168,2025-11-07 16:50:30.842619231
2025-11-07 16:50:30.811850,6,2025-11-07 16:50:30.850311538
2025-11-07 16:50:30.811850,1731,2025-11-07 16:50:30.858003846
2025-11-07 16:50:30.811850,1280,2025-11-07 16:50:30.865696154
2025-11-07 16:50:30.811850,7,2025-11-07 16:50:30.873388462
2025-11-07 16:50:30.811850,1714,2025-11-07 16:50:30.881080769
2025-11-07 16:50:30.811850,-15104,2025-11-07 16:50:30.888773077
2025-11-07 16:50:30.811850,6,2025-11-07 16:50:30.896465385
2025-11-07 16:50:30.811850,1747,2025-11-07 16:50:30.904157692
2025-11-07 16:50:30.811850,-32768,2025-11-07 16:50:30.911850000
2025-11-07 16:50:30.811850,6,2025-11-07 16:50:30.919542308
2025-11-07 16:50:30.811850,1731,2025-11-07 16:50:30.927234615
2025-11-07 16:50:30.811850,-24832,2025-11-07 16:50:30.934926923
2025-11-07 16:50:30.811850,6,2025-11-07 16:50:30.942619231
2025-11-07 16:50:30.811850,1678,2025-11-07 16:50:30.950311538
2025-11-07 16:50:30.811850,-16384,2025-11-07 16:50:30.958003846
2025-11-07 16:50:30.811850,6,2025-11-07 16:50:30.965696154
2025-11-07 16:50:30.811850,1657,2025-11-07 16:50:30.973388462
2025-11-07 16:50:30.811850,-23040,2025-11-07 16:50:30.981080769
2025-11-07 16:50:30.811850,6,2025-11-07 16:50:30.988773077
2025-11-07 16:50:30.811850,1692,2025-11-07 16:50:30.996465385
2025-11-07 16:50:30.811850,32000,2025-11-07 16:50:31.004157692
2025-11-07 16:50:30.811850,6,2025-11-07 16:50:31.011850000
2025-11-07 16:50:30.811850,1721,2025-11-07 16:50:31.019542308
2025-11-07 16:50:30.811850,28416,2025-11-07 16:50:31.027234615
2025-11-07 16:50:30.811850,6,2025-11-07 16:50:31.034926923
2025-11-07 16:50:30.811850,1678,2025-11-07 16:50:31.042619231
2025-11-07 16:50:30.811850,-24832,2025-11-07 16:50:31.050311538
2025-11-07 16:50:30.811850,6,2025-11-07 16:50:31.058003846
2025-11-07 16:50:30.811850,1619,2025-11-07 16:50:31.065696154
2025-11-07 16:50:30.811850,-26624,2025-11-07 16:50:31.073388462
2025-11-07 16:50:30.811850,6,2025-11-07 16:50:31.081080769
2025-11-07 16:50:30.811850,1645,2025-11-07 16:50:31.088773077
2025-11-07 16:50:30.811850,28416,2025-11-07 16:50:31.096465385
2025-11-07 16:50:30.811850,6,2025-11-07 16:50:31.104157692
2025-11-07 16:50:30.811850,1714,2025-11-07 16:50:31.111850000
2025-11-07 16:50:30.811850,23552,2025-11-07 16:50:31.119542308
2025-11-07 16:50:30.811850,6,2025-11-07 16:50:31.127234615
2025-11-07 16:50:30.811850,1683,2025-11-07 16:50:31.134926923
2025-11-07 16:50:30.811850,-28416,2025-11-07 16:50:31.142619231
2025-11-07 16:50:30.811850,6,2025-11-07 16:50:31.150311538
2025-11-07 16:50:30.811850,1630,2025-11-07 16:50:31.158003846
2025-11-07 16:50:30.811850,-22528,2025-11-07 16:50:31.165696154
2025-11-07 16:50:30.811850,6,2025-11-07 16:50:31.173388462
2025-11-07 16:50:30.811850,1645,2025-11-07 16:50:31.181080769
2025-11-07 16:50:30.811850,30976,2025-11-07 16:50:31.188773077
2025-11-07 16:50:30.811850,6,2025-11-07 16:50:31.196465385
2025-11-07 16:50:30.811850,1673,2025-11-07 16:50:31.204157692
2025-11-07 16:50:30.811850,18176,2025-11-07 16:50:31.211850000
2025-11-07 16:50:30.811850,6,2025-11-07 16:50:31.219542308
2025-11-07 16:50:30.811850,1688,2025-11-07 16:50:31.227234615
2025-11-07 16:50:30.811850,31488,2025-11-07 16:50:31.234926923
2025-11-07 16:50:30.811850,6,2025-11-07 16:50:31.242619231
2025-11-07 16:50:30.811850,1652,2025-11-07 16:50:31.250311538
2025-11-07 16:50:30.811850,-19968,2025-11-07 16:50:31.258003846
2025-11-07 16:50:30.811850,6,2025-11-07 16:50:31.265696154
2025-11-07 16:50:30.811850,1630,2025-11-07 16:50:31.273388462
2025-11-07 16:50:30.811850,-26112,2025-11-07 16:50:31.281080769
2025-11-07 16:50:30.811850,6,2025-11-07 16:50:31.288773077
2025-11-07 16:50:30.811850,1709,2025-11-07 16:50:31.296465385
2025-11-07 16:50:30.811850,30976,2025-11-07 16:50:31.304157692
2025-11-07 16:50:30.811850,6,2025-11-07 16:50:31.311850000
2025-11-07 16:50:30.811850,1712,2025-11-07 16:50:31.319542308
2025-11-07 16:50:30.811850,26624,2025-11-07 16:50:31.327234615
2025-11-07 16:50:30.811850,6,2025-11-07 16:50:31.334926923
2025-11-07 16:50:30.811850,1669,2025-11-07 16:50:31.342619230
2025-11-07 16:50:30.811850,-21760,2025-11-07 16:50:31.350311538
2025-11-07 16:50:30.811850,6,2025-11-07 16:50:31.358003846
2025-11-07 16:50:30.811850,1628,2025-11-07 16:50:31.365696154
2025-11-07 16:50:30.811850,-26112,2025-11-07 16:50:31.373388462
2025-11-07 16:50:30.811850,6,2025-11-07 16:50:31.381080769
2025-11-07 16:50:30.811850,1642,2025-11-07 16:50:31.388773077
2025-11-07 16:50:30.811850,21760,2025-11-07 16:50:31.396465385
2025-11-07 16:50:30.811850,6,2025-11-07 16:50:31.404157692
2025-11-07 16:50:30.811850,1685,2025-11-07 16:50:31.411850000
2025-11-07 16:50:30.811850,15104,2025-11-07 16:50:31.419542308
2025-11-07 16:50:30.811850,6,2025-11-07 16:50:31.427234615
2025-11-07 16:50:30.811850,1650,2025-11-07 16:50:31.434926923
2025-11-07 16:50:30.811850,-32768,2025-11-07 16:50:31.442619231
2025-11-07 16:50:30.811850,6,2025-11-07 16:50:31.450311538
2025-11-07 16:50:30.811850,1592,2025-11-07 16:50:31.458003846
2025-11-07 16:50:30.811850,30976,2025-11-07 16:50:31.465696154
2025-11-07 16:50:30.811850,6,2025-11-07 16:50:31.473388462
2025-11-07 16:50:30.811850,1590,2025-11-07 16:50:31.481080769
2025-11-07 16:50:30.811850,15616,2025-11-07 16:50:31.488773077
2025-11-07 16:50:30.811850,6,2025-11-07 16:50:31.496465385
2025-11-07 16:50:30.811850,1630,2025-11-07 16:50:31.504157692
2025-11-07 16:50:30.811850,1024,2025-11-07 16:50:31.511850000
2025-11-07 16:50:30.811850,6,2025-11-07 16:50:31.519542308
2025-11-07 16:50:30.811850,1599,2025-11-07 16:50:31.527234615
2025-11-07 16:50:30.811850,11264,2025-11-07 16:50:31.534926923
2025-11-07 16:50:30.811850,6,2025-11-07 16:50:31.542619231
2025-11-07 16:50:30.811850,1621,2025-11-07 16:50:31.550311538
2025-11-07 16:50:30.811850,-16896,2025-11-07 16:50:31.558003846
2025-11-07 16:50:30.811850,6,2025-11-07 16:50:31.565696154
2025-11-07 16:50:30.811850,1545,2025-11-07 16:50:31.573388462
2025-11-07 16:50:30.811850,-18432,2025-11-07 16:50:31.581080769
2025-11-07 16:50:30.811850,5,2025-11-07 16:50:31.588773077
2025-11-07 16:50:30.811850,1466,2025-11-07 16:50:31.596465385
2025-11-07 16:50:30.811850,-28928,2025-11-07 16:50:31.604157692
2025-11-07 16:50:30.811850,5,2025-11-07 16:50:31.611850000
2025-11-07 16:50:30.811850,1480,2025-11-07 16:50:31.619542308
2025-11-07 16:50:30.811850,-31488,2025-11-07 16:50:31.627234615
2025-11-07 16:50:30.811850,5,2025-11-07 16:50:31.634926923
2025-11-07 16:50:30.811850,1433,2025-11-07 16:50:31.642619231
2025-11-07 16:50:31.348956,1473,2025-11-07 16:50:31.650311538
2025-11-07 16:50:31.348956,29184,2025-11-07 16:50:31.658003846
2025-11-07 16:50:31.348956,5,2025-11-07 16:50:31.665696154
2025-11-07 16:50:31.348956,1473,2025-11-07 16:50:31.673388462
2025-11-07 16:50:31.348956,-25856,2025-11-07 16:50:31.681080769
2025-11-07 16:50:31.348956,5,2025-11-07 16:50:31.688773077
2025-11-07 16:50:31.348956,1409,2025-11-07 16:50:31.696465385
2025-11-07 16:50:31.348956,-8192,2025-11-07 16:50:31.704157692
2025-11-07 16:50:31.348956,5,2025-11-07 16:50:31.711850000
2025-11-07 16:50:31.348956,1430,2025-11-07 16:50:31.719542308
2025-11-07 16:50:31.348956,-16640,2025-11-07 16:50:31.727234615
2025-11-07 16:50:31.348956,5,2025-11-07 16:50:31.734926923
2025-11-07 16:50:31.348956,1487,2025-11-07 16:50:31.742619231
2025-11-07 16:50:31.348956,-30720,2025-11-07 16:50:31.750311538
2025-11-07 16:50:31.348956,5,2025-11-07 16:50:31.758003846
2025-11-07 16:50:31.348956,1487,2025-11-07 16:50:31.765696154
2025-11-07 16:50:31.348956,-25856,2025-11-07 16:50:31.773388462
2025-11-07 16:50:31.348956,5,2025-11-07 16:50:31.781080769
2025-11-07 16:50:31.348956,1421,2025-11-07 16:50:31.788773077
2025-11-07 16:50:31.348956,-27136,2025-11-07 16:50:31.796465385
2025-11-07 16:50:31.348956,5,2025-11-07 16:50:31.804157692
2025-11-07 16:50:31.348956,1354,2025-11-07 16:50:31.811850000
2025-11-07 16:50:31.348956,-22272,2025-11-07 16:50:31.819542308
2025-11-07 16:50:31.348956,5,2025-11-07 16:50:31.827234615
2025-11-07 16:50:31.348956,1437,2025-11-07 16:50:31.834926923
2025-11-07 16:50:31.348956,-29440,2025-11-07 16:50:31.842619231
2025-11-07 16:50:31.348956,5,2025-11-07 16:50:31.850311538
2025-11-07 16:50:31.348956,1514,2025-11-07 16:50:31.858003846
2025-11-07 16:50:31.348956,-24576,2025-11-07 16:50:31.865696154
2025-11-07 16:50:31.348956,5,2025-11-07 16:50:31.873388462
2025-11-07 16:50:31.348956,1495,2025-11-07 16:50:31.881080769
2025-11-07 16:50:31.348956,-3840,2025-11-07 16:50:31.888773077
2025-11-07 16:50:31.348956,5,2025-11-07 16:50:31.896465385
2025-11-07 16:50:31.348956,1454,2025-11-07 16:50:31.904157692
2025-11-07 16:50:31.348956,2304,2025-11-07 16:50:31.911850000
2025-11-07 16:50:31.348956,6,2025-11-07 16:50:31.919542308
2025-11-07 16:50:31.348956,1495,2025-11-07 16:50:31.927234615
2025-11-07 16:50:31.348956,-9472,2025-11-07 16:50:31.934926923
2025-11-07 16:50:31.348956,5,2025-11-07 16:50:31.942619231
2025-11-07 16:50:31.348956,1564,2025-11-07 16:50:31.950311538
2025-11-07 16:50:31.348956,-10496,2025-11-07 16:50:31.958003846
2025-11-07 16:50:31.348956,5,2025-11-07 16:50:31.965696154
2025-11-07 16:50:31.348956,1583,2025-11-07 16:50:31.973388462
2025-11-07 16:50:31.348956,8960,2025-11-07 16:50:31.981080769
2025-11-07 16:50:31.348956,6,2025-11-07 16:50:31.988773077
2025-11-07 16:50:31.348956,1533,2025-11-07 16:50:31.996465385
2025-11-07 16:50:31.348956,18688,2025-11-07 16:50:32.004157692
2025-11-07 16:50:31.348956,6,2025-11-07 16:50:32.011850000
2025-11-07 16:50:31.348956,1521,2025-11-07 16:50:32.019542308
2025-11-07 16:50:31.348956,9472,2025-11-07 16:50:32.027234615
2025-11-07 16:50:31.348956,6,2025-11-07 16:50:32.034926923
2025-11-07 16:50:31.348956,1616,2025-11-07 16:50:32.042619231
2025-11-07 16:50:31.348956,256,2025-11-07 16:50:32.050311538
2025-11-07 16:50:31.348956,6,2025-11-07 16:50:32.058003846
2025-11-07 16:50:31.348956,1616,2025-11-07 16:50:32.065696154
2025-11-07 16:50:31.348956,8192,2025-11-07 16:50:32.073388462
2025-11-07 16:50:31.348956,6,2025-11-07 16:50:32.081080769
2025-11-07 16:50:31.348956,1592,2025-11-07 16:50:32.088773077
2025-11-07 16:50:31.348956,-31488,2025-11-07 16:50:32.096465385
2025-11-07 16:50:31.348956,6,2025-11-07 16:50:32.104157692
2025-11-07 16:50:31.348956,1578,2025-11-07 16:50:32.111850000
2025-11-07 16:50:31.348956,26112,2025-11-07 16:50:32.119542308
2025-11-07 16:50:31.348956,6,2025-11-07 16:50:32.127234615
2025-11-07 16:50:31.348956,1590,2025-11-07 16:50:32.134926923
2025-11-07 16:50:31.348956,-768,2025-11-07 16:50:32.142619231
2025-11-07 16:50:31.348956,5,2025-11-07 16:50:32.150311538
2025-11-07 16:50:31.348956,1626,2025-11-07 16:50:32.158003846
2025-11-07 16:50:31.348956,256,2025-11-07 16:50:32.165696154
2025-11-07 16:50:31.348956,6,2025-11-07 16:50:32.173388462
2025-11-07 16:50:31.348956,1590,2025-11-07 16:50:32.181080769
2025-11-07 16:50:31.348956,24064,2025-11-07 16:50:32.188773077
2025-11-07 16:50:31.348956,6,2025-11-07 16:50:32.196465385
2025-11-07 16:50:31.348956,1542,2025-11-07 16:50:32.204157692
2025-11-07 16:50:31.348956,27904,2025-11-07 16:50:32.211850000
2025-11-07 16:50:31.348956,6,2025-11-07 16:50:32.219542308
2025-11-07 16:50:31.348956,1573,2025-11-07 16:50:32.227234615
2025-11-07 16:50:31.348956,256,2025-11-07 16:50:32.234926923
2025-11-07 16:50:31.348956,6,2025-11-07 16:50:32.242619231
2025-11-07 16:50:31.348956,1619,2025-11-07 16:50:32.250311538
2025-11-07 16:50:31.348956,-3328,2025-11-07 16:50:32.258003846
2025-11-07 16:50:31.348956,5,2025-11-07 16:50:32.265696154
2025-11-07 16:50:31.348956,1590,2025-11-07 16:50:32.273388462
2025-11-07 16:50:31.348956,12544,2025-11-07 16:50:32.281080769
2025-11-07 16:50:31.348956,6,2025-11-07 16:50:32.288773077
2025-11-07 16:50:31.348956,1521,2025-11-07 16:50:32.296465385
2025-11-07 16:50:31.348956,18688,2025-11-07 16:50:32.304157692
2025-11-07 16:50:31.348956,6,2025-11-07 16:50:32.311850000
2025-11-07 16:50:31.348956,1537,2025-11-07 16:50:32.319542308
2025-11-07 16:50:31.348956,16896,2025-11-07 16:50:32.327234615
2025-11-07 16:50:31.348956,6,2025-11-07 16:50:32.334926923
2025-11-07 16:50:31.348956,1657,2025-11-07 16:50:32.342619230
2025-11-07 16:50:31.348956,2304,2025-11-07 16:50:32.350311538
2025-11-07 16:50:31.348956,6,2025-11-07 16:50:32.358003846
2025-11-07 16:50:31.348956,1621,2025-11-07 16:50:32.365696154
2025-11-07 16:50:31.348956,6400,2025-11-07 16:50:32.373388462
2025-11-07 16:50:31.348956,6,2025-11-07 16:50:32.381080769
2025-11-07 16:50:31.348956,1528,2025-11-07 16:50:32.388773077
2025-11-07 16:50:31.348956,12032,2025-11-07 16:50:32.396465385
2025-11-07 16:50:31.348956,6,2025-11-07 16:50:32.404157692
2025-11-07 16:50:31.348956,1471,2025-11-07 16:50:32.411850000
2025-11-07 16:50:31.348956,6400,2025-11-07 16:50:32.419542308
2025-11-07 16:50:31.348956,6,2025-11-07 16:50:32.427234615
2025-11-07 16:50:31.348956,1552,2025-11-07 16:50:32.434926923
2025-11-07 16:50:31.348956,-19712,2025-11-07 16:50:32.442619231
2025-11-07 16:50:31.348956,5,2025-11-07 16:50:32.450311538
2025-11-07 16:50:31.348956,1554,2025-11-07 16:50:32.458003846
2025-11-07 16:50:31.348956,-25344,2025-11-07 16:50:32.465696154
2025-11-07 16:50:31.348956,5,2025-11-07 16:50:32.473388462
2025-11-07 16:50:31.348956,1440,2025-11-07 16:50:32.481080769
2025-11-07 16:50:31.891161,1483,2025-11-07 16:50:32.488773077
2025-11-07 16:50:31.891161,20224,2025-11-07 16:50:32.496465385
2025-11-07 16:50:31.891161,5,2025-11-07 16:50:32.504157692
2025-11-07 16:50:31.891161,1433,2025-11-07 16:50:32.511850000
2025-11-07 16:50:31.891161,18944,2025-11-07 16:50:32.519542308
2025-11-07 16:50:31.891161,5,2025-11-07 16:50:32.527234615
2025-11-07 16:50:31.891161,1301,2025-11-07 16:50:32.534926923
2025-11-07 16:50:31.891161,23808,2025-11-07 16:50:32.542619231
2025-11-07 16:50:31.891161,5,2025-11-07 16:50:32.550311538
2025-11-07 16:50:31.891161,1218,2025-11-07 16:50:32.558003846
2025-11-07 16:50:31.891161,-14080,2025-11-07 16:50:32.565696154
2025-11-07 16:50:31.891161,4,2025-11-07 16:50:32.573388462
2025-11-07 16:50:31.891161,1201,2025-11-07 16:50:32.581080769
2025-11-07 16:50:31.891161,15360,2025-11-07 16:50:32.588773077
2025-11-07 16:50:31.891161,4,2025-11-07 16:50:32.596465385
2025-11-07 16:50:31.891161,1087,2025-11-07 16:50:32.604157692
2025-11-07 16:50:31.891161,-23040,2025-11-07 16:50:32.611850000
2025-11-07 16:50:31.891161,3,2025-11-07 16:50:32.619542308
2025-11-07 16:50:31.891161,1003,2025-11-07 16:50:32.627234615
2025-11-07 16:50:31.891161,13568,2025-11-07 16:50:32.634926923
2025-11-07 16:50:31.891161,4,2025-11-07 16:50:32.642619231
2025-11-07 16:50:31.891161,934,2025-11-07 16:50:32.650311538
2025-11-07 16:50:31.891161,7424,2025-11-07 16:50:32.658003846
2025-11-07 16:50:31.891161,4,2025-11-07 16:50:32.665696154
2025-11-07 16:50:31.891161,1094,2025-11-07 16:50:32.673388462
2025-11-07 16:50:31.891161,-11520,2025-11-07 16:50:32.681080769
2025-11-07 16:50:31.891161,4,2025-11-07 16:50:32.688773077
2025-11-07 16:50:31.891161,1418,2025-11-07 16:50:32.696465385
2025-11-07 16:50:31.891161,-27392,2025-11-07 16:50:32.704157692
2025-11-07 16:50:31.891161,4,2025-11-07 16:50:32.711850000
2025-11-07 16:50:31.891161,1146,2025-11-07 16:50:32.719542308
2025-11-07 16:50:31.891161,-28672,2025-11-07 16:50:32.727234615
2025-11-07 16:50:31.891161,4,2025-11-07 16:50:32.734926923
2025-11-07 16:50:31.891161,1039,2025-11-07 16:50:32.742619231
2025-11-07 16:50:31.891161,14848,2025-11-07 16:50:32.750311538
2025-11-07 16:50:31.891161,4,2025-11-07 16:50:32.758003846
2025-11-07 16:50:31.891161,939,2025-11-07 16:50:32.765696154
2025-11-07 16:50:31.891161,-32256,2025-11-07 16:50:32.773388462
2025-11-07 16:50:31.891161,3,2025-11-07 16:50:32.781080769
2025-11-07 16:50:31.891161,894,2025-11-07 16:50:32.788773077
2025-11-07 16:50:31.891161,-14336,2025-11-07 16:50:32.796465385
2025-11-07 16:50:31.891161,2,2025-11-07 16:50:32.804157692
2025-11-07 16:50:31.891161,760,2025-11-07 16:50:32.811850000
2025-11-07 16:50:31.891161,-27648,2025-11-07 16:50:32.819542308
2025-11-07 16:50:31.891161,2,2025-11-07 16:50:32.827234615
2025-11-07 16:50:31.891161,574,2025-11-07 16:50:32.834926923
2025-11-07 16:50:31.891161,-30720,2025-11-07 16:50:32.842619231
2025-11-07 16:50:31.891161,2,2025-11-07 16:50:32.850311538
2025-11-07 16:50:31.891161,512,2025-11-07 16:50:32.858003846
2025-11-07 16:50:31.891161,13568,2025-11-07 16:50:32.865696154
2025-11-07 16:50:31.891161,2,2025-11-07 16:50:32.873388462
2025-11-07 16:50:31.891161,536,2025-11-07 16:50:32.881080769
2025-11-07 16:50:31.891161,-28672,2025-11-07 16:50:32.888773077
2025-11-07 16:50:31.891161,1,2025-11-07 16:50:32.896465385
2025-11-07 16:50:31.891161,495,2025-11-07 16:50:32.904157692
2025-11-07 16:50:31.891161,30208,2025-11-07 16:50:32.911850000
2025-11-07 16:50:31.891161,1,2025-11-07 16:50:32.919542308
2025-11-07 16:50:31.891161,371,2025-11-07 16:50:32.927234615
2025-11-07 16:50:31.891161,-17664,2025-11-07 16:50:32.934926923
2025-11-07 16:50:31.891161,1,2025-11-07 16:50:32.942619231
2025-11-07 16:50:31.891161,314,2025-11-07 16:50:32.950311538
2025-11-07 16:50:31.891161,-28160,2025-11-07 16:50:32.958003846
2025-11-07 16:50:31.891161,1,2025-11-07 16:50:32.965696154
2025-11-07 16:50:31.891161,336,2025-11-07 16:50:32.973388462
2025-11-07 16:50:31.891161,7680,2025-11-07 16:50:32.981080769
2025-11-07 16:50:31.891161,1,2025-11-07 16:50:32.988773077
2025-11-07 16:50:31.891161,388,2025-11-07 16:50:32.996465385
2025-11-07 16:50:31.891161,-2304,2025-11-07 16:50:33.004157692
2025-11-07 16:50:31.891161,0,2025-11-07 16:50:33.011850000
2025-11-07 16:50:31.891161,290,2025-11-07 16:50:33.019542308
2025-11-07 16:50:31.891161,5120,2025-11-07 16:50:33.027234615
2025-11-07 16:50:31.891161,1,2025-11-07 16:50:33.034926923
2025-11-07 16:50:31.891161,145,2025-11-07 16:50:33.042619231
2025-11-07 16:50:31.891161,-2816,2025-11-07 16:50:33.050311538
2025-11-07 16:50:31.891161,0,2025-11-07 16:50:33.058003846
2025-11-07 16:50:31.891161,126,2025-11-07 16:50:33.065696154
2025-11-07 16:50:31.891161,26112,2025-11-07 16:50:33.073388462
2025-11-07 16:50:31.891161,0,2025-11-07 16:50:33.081080769
2025-11-07 16:50:31.891161,159,2025-11-07 16:50:33.088773077
2025-11-07 16:50:31.891161,9728,2025-11-07 16:50:33.096465385
2025-11-07 16:50:31.891161,0,2025-11-07 16:50:33.104157692
2025-11-07 16:50:31.891161,138,2025-11-07 16:50:33.111850000
2025-11-07 16:50:31.891161,15616,2025-11-07 16:50:33.119542308
2025-11-07 16:50:31.891161,0,2025-11-07 16:50:33.127234615
2025-11-07 16:50:31.891161,-19,2025-11-07 16:50:33.134926923
2025-11-07 16:50:31.891161,17919,2025-11-07 16:50:33.142619231
2025-11-07 16:50:31.891161,0,2025-11-07 16:50:33.150311538
2025-11-07 16:50:31.891161,-83,2025-11-07 16:50:33.158003846
2025-11-07 16:50:31.891161,-8193,2025-11-07 16:50:33.165696154
2025-11-07 16:50:31.891161,-1,2025-11-07 16:50:33.173388462
2025-11-07 16:50:31.891161,-16,2025-11-07 16:50:33.181080769
2025-11-07 16:50:31.891161,32255,2025-11-07 16:50:33.188773077
2025-11-07 16:50:31.891161,-1,2025-11-07 16:50:33.196465385
2025-11-07 16:50:31.891161,2,2025-11-07 16:50:33.204157692
2025-11-07 16:50:31.891161,-18688,2025-11-07 16:50:33.211850000
2025-11-07 16:50:31.891161,-1,2025-11-07 16:50:33.219542308
2025-11-07 16:50:31.891161,-52,2025-11-07 16:50:33.227234615
2025-11-07 16:50:31.891161,13055,2025-11-07 16:50:33.234926923
2025-11-07 16:50:31.891161,0,2025-11-07 16:50:33.242619231
2025-11-07 16:50:31.891161,-97,2025-11-07 16:50:33.250311538
2025-11-07 16:50:31.891161,-2049,2025-11-07 16:50:33.258003846
2025-11-07 16:50:31.891161,-1,2025-11-07 16:50:33.265696154
2025-11-07 16:50:31.891161,-52,2025-11-07 16:50:33.273388462
2025-11-07 16:50:31.891161,-29441,2025-11-07 16:50:33.281080769
2025-11-07 16:50:31.891161,-1,2025-11-07 16:50:33.288773077
2025-11-07 16:50:31.891161,40,2025-11-07 16:50:33.296465385
2025-11-07 16:50:31.891161,-13312,2025-11-07 16:50:33.304157692
2025-11-07 16:50:31.891161,-1,2025-11-07 16:50:33.311850000
2025-11-07 16:50:31.891161,35,2025-11-07 16:50:33.319542308
2025-11-07 16:50:32.476158,131,2025-11-07 16:50:33.327234615
2025-11-07 16:50:32.476158,18176,2025-11-07 16:50:33.334926923
2025-11-07 16:50:32.476158,0,2025-11-07 16:50:33.342619230
2025-11-07 16:50:32.476158,250,2025-11-07 16:50:33.350311538
2025-11-07 16:50:32.476158,-11264,2025-11-07 16:50:33.358003846
2025-11-07 16:50:32.476158,0,2025-11-07 16:50:33.365696154
2025-11-07 16:50:32.476158,243,2025-11-07 16:50:33.373388462
2025-11-07 16:50:32.476158,-30976,2025-11-07 16:50:33.381080769
2025-11-07 16:50:32.476158,1,2025-11-07 16:50:33.388773077
2025-11-07 16:50:32.476158,290,2025-11-07 16:50:33.396465385
2025-11-07 16:50:32.476158,-24320,2025-11-07 16:50:33.404157692
2025-11-07 16:50:32.476158,1,2025-11-07 16:50:33.411850000
2025-11-07 16:50:32.476158,472,2025-11-07 16:50:33.419542308
2025-11-07 16:50:32.476158,-9216,2025-11-07 16:50:33.427234615
2025-11-07 16:50:32.476158,1,2025-11-07 16:50:33.434926923
2025-11-07 16:50:32.476158,667,2025-11-07 16:50:33.442619231
2025-11-07 16:50:32.476158,-29440,2025-11-07 16:50:33.450311538
2025-11-07 16:50:32.476158,2,2025-11-07 16:50:33.458003846
2025-11-07 16:50:32.476158,839,2025-11-07 16:50:33.465696154
2025-11-07 16:50:32.476158,8192,2025-11-07 16:50:33.473388462
2025-11-07 16:50:32.476158,4,2025-11-07 16:50:33.481080769
2025-11-07 16:50:32.476158,1120,2025-11-07 16:50:33.488773077
2025-11-07 16:50:32.476158,25088,2025-11-07 16:50:33.496465385
2025-11-07 16:50:32.476158,5,2025-11-07 16:50:33.504157692
2025-11-07 16:50:32.476158,1447,2025-11-07 16:50:33.511850000
2025-11-07 16:50:32.476158,15104,2025-11-07 16:50:33.519542308
2025-11-07 16:50:32.476158,6,2025-11-07 16:50:33.527234615
2025-11-07 16:50:32.476158,1785,2025-11-07 16:50:33.534926923
2025-11-07 16:50:32.476158,-23552,2025-11-07 16:50:33.542619231
2025-11-07 16:50:32.476158,6,2025-11-07 16:50:33.550311538
2025-11-07 16:50:32.476158,1859,2025-11-07 16:50:33.558003846
2025-11-07 16:50:32.476158,-31232,2025-11-07 16:50:33.565696154
2025-11-07 16:50:32.476158,7,2025-11-07 16:50:33.573388462
2025-11-07 16:50:32.476158,1940,2025-11-07 16:50:33.581080769
2025-11-07 16:50:32.476158,-26624,2025-11-07 16:50:33.588773077
2025-11-07 16:50:32.476158,8,2025-11-07 16:50:33.596465385
2025-11-07 16:50:32.476158,2238,2025-11-07 16:50:33.604157692
2025-11-07 16:50:32.476158,24832,2025-11-07 16:50:33.611850000
2025-11-07 16:50:32.476158,9,2025-11-07 16:50:33.619542308
2025-11-07 16:50:32.476158,2625,2025-11-07 16:50:33.627234615
2025-11-07 16:50:32.476158,-20224,2025-11-07 16:50:33.634926923
2025-11-07 16:50:32.476158,10,2025-11-07 16:50:33.642619231
2025-11-07 16:50:32.476158,3047,2025-11-07 16:50:33.650311538
2025-11-07 16:50:32.476158,16640,2025-11-07 16:50:33.658003846
2025-11-07 16:50:32.476158,12,2025-11-07 16:50:33.665696154
2025-11-07 16:50:32.476158,3238,2025-11-07 16:50:33.673388462
2025-11-07 16:50:32.476158,-23296,2025-11-07 16:50:33.681080769
2025-11-07 16:50:32.476158,13,2025-11-07 16:50:33.688773077
2025-11-07 16:50:32.476158,3579,2025-11-07 16:50:33.696465385
2025-11-07 16:50:32.476158,5632,2025-11-07 16:50:33.704157692
2025-11-07 16:50:32.476158,15,2025-11-07 16:50:33.711850000
2025-11-07 16:50:32.476158,4144,2025-11-07 16:50:33.719542308
2025-11-07 16:50:32.476158,20480,2025-11-07 16:50:33.727234615
2025-11-07 16:50:32.476158,17,2025-11-07 16:50:33.734926923
2025-11-07 16:50:32.476158,4890,2025-11-07 16:50:33.742619231
2025-11-07 16:50:32.476158,1536,2025-11-07 16:50:33.750311538
2025-11-07 16:50:32.476158,20,2025-11-07 16:50:33.758003846
2025-11-07 16:50:32.476158,5348,2025-11-07 16:50:33.765696154
2025-11-07 16:50:32.476158,23296,2025-11-07 16:50:33.773388462
2025-11-07 16:50:32.476158,21,2025-11-07 16:50:33.781080769
2025-11-07 16:50:32.476158,5524,2025-11-07 16:50:33.788773077
2025-11-07 16:50:32.476158,-10752,2025-11-07 16:50:33.796465385
2025-11-07 16:50:32.476158,22,2025-11-07 16:50:33.804157692
2025-11-07 16:50:32.476158,6025,2025-11-07 16:50:33.811850000
2025-11-07 16:50:32.476158,-29440,2025-11-07 16:50:33.819542308
2025-11-07 16:50:32.476158,24,2025-11-07 16:50:33.827234615
2025-11-07 16:50:32.476158,6666,2025-11-07 16:50:33.834926923
2025-11-07 16:50:32.476158,-20224,2025-11-07 16:50:33.842619231
2025-11-07 16:50:32.476158,26,2025-11-07 16:50:33.850311538
2025-11-07 16:50:32.476158,7072,2025-11-07 16:50:33.858003846
2025-11-07 16:50:32.476158,-1536,2025-11-07 16:50:33.865696154
2025-11-07 16:50:32.476158,27,2025-11-07 16:50:33.873388462
2025-11-07 16:50:32.476158,7253,2025-11-07 16:50:33.881080769
2025-11-07 16:50:32.476158,17920,2025-11-07 16:50:33.888773077
2025-11-07 16:50:32.476158,29,2025-11-07 16:50:33.896465385
2025-11-07 16:50:32.476158,7465,2025-11-07 16:50:33.904157692
2025-11-07 16:50:32.476158,-14080,2025-11-07 16:50:33.911850000
2025-11-07 16:50:32.476158,29,2025-11-07 16:50:33.919542308
2025-11-07 16:50:32.476158,7902,2025-11-07 16:50:33.927234615
2025-11-07 16:50:32.476158,8192,2025-11-07 16:50:33.934926923
2025-11-07 16:50:32.476158,31,2025-11-07 16:50:33.942619231
2025-11-07 16:50:32.476158,8147,2025-11-07 16:50:33.950311538
2025-11-07 16:50:32.476158,17920,2025-11-07 16:50:33.958003846
2025-11-07 16:50:32.476158,32,2025-11-07 16:50:33.965696154
2025-11-07 16:50:32.476158,8412,2025-11-07 16:50:33.973388462
2025-11-07 16:50:32.476158,26624,2025-11-07 16:50:33.981080769
2025-11-07 16:50:32.476158,33,2025-11-07 16:50:33.988773077
2025-11-07 16:50:32.476158,8502,2025-11-07 16:50:33.996465385
2025-11-07 16:50:32.476158,-12032,2025-11-07 16:50:34.004157692
2025-11-07 16:50:32.476158,33,2025-11-07 16:50:34.011850000
2025-11-07 16:50:32.476158,8696,2025-11-07 16:50:34.019542308
2025-11-07 16:50:32.476158,-19200,2025-11-07 16:50:34.027234615
2025-11-07 16:50:32.476158,33,2025-11-07 16:50:34.034926923
2025-11-07 16:50:32.476158,8727,2025-11-07 16:50:34.042619231
2025-11-07 16:50:32.476158,-16896,2025-11-07 16:50:34.050311538
2025-11-07 16:50:32.476158,33,2025-11-07 16:50:34.058003846
2025-11-07 16:50:32.476158,8641,2025-11-07 16:50:34.065696154
2025-11-07 16:50:32.476158,-8960,2025-11-07 16:50:34.073388462
2025-11-07 16:50:32.476158,33,2025-11-07 16:50:34.081080769
2025-11-07 16:50:32.476158,8555,2025-11-07 16:50:34.088773077
2025-11-07 16:50:32.476158,-23040,2025-11-07 16:50:34.096465385
2025-11-07 16:50:32.476158,33,2025-11-07 16:50:34.104157692
2025-11-07 16:50:32.476158,8562,2025-11-07 16:50:34.111850000
2025-11-07 16:50:32.476158,21248,2025-11-07 16:50:34.119542308
2025-11-07 16:50:32.476158,33,2025-11-07 16:50:34.127234615
2025-11-07 16:50:32.476158,8560,2025-11-07 16:50:34.134926923
2025-11-07 16:50:32.476158,-10496,2025-11-07 16:50:34.142619231
2025-11-07 16:50:32.476158,32,2025-11-07 16:50:34.150311538
2025-11-07 16:50:32.476158,8438,2025-11-07 16:50:34.158003846
2025-11-07 16:50:33.016134,8407,2025-11-07 16:50:34.165696154
2025-11-07 16:50:33.016134,31744,2025-11-07 16:50:34.173388462
2025-11-07 16:50:33.016134,32,2025-11-07 16:50:34.181080769
2025-11-07 16:50:33.016134,8402,2025-11-07 16:50:34.188773077
2025-11-07 16:50:33.016134,32512,2025-11-07 16:50:34.196465385
2025-11-07 16:50:33.016134,32,2025-11-07 16:50:34.204157692
2025-11-07 16:50:33.016134,8316,2025-11-07 16:50:34.211850000
2025-11-07 16:50:33.016134,21504,2025-11-07 16:50:34.219542308
2025-11-07 16:50:33.016134,32,2025-11-07 16:50:34.227234615
2025-11-07 16:50:33.016134,8090,2025-11-07 16:50:34.234926923
2025-11-07 16:50:33.016134,-8448,2025-11-07 16:50:34.242619231
2025-11-07 16:50:33.016134,31,2025-11-07 16:50:34.250311538
2025-11-07 16:50:33.016134,8111,2025-11-07 16:50:34.258003846
2025-11-07 16:50:33.016134,-31744,2025-11-07 16:50:34.265696154
2025-11-07 16:50:33.016134,31,2025-11-07 16:50:34.273388462
2025-11-07 16:50:33.016134,8066,2025-11-07 16:50:34.281080769
2025-11-07 16:50:33.016134,-27648,2025-11-07 16:50:34.288773077
2025-11-07 16:50:33.016134,30,2025-11-07 16:50:34.296465385
2025-11-07 16:50:33.016134,7859,2025-11-07 16:50:34.304157692
2025-11-07 16:50:33.016134,-14848,2025-11-07 16:50:34.311850000
2025-11-07 16:50:33.016134,30,2025-11-07 16:50:34.319542308
2025-11-07 16:50:33.016134,7756,2025-11-07 16:50:34.327234615
2025-11-07 16:50:33.016134,-29696,2025-11-07 16:50:34.334926923
2025-11-07 16:50:33.016134,30,2025-11-07 16:50:34.342619230
2025-11-07 16:50:33.016134,7720,2025-11-07 16:50:34.350311538
2025-11-07 16:50:33.016134,5376,2025-11-07 16:50:34.358003846
2025-11-07 16:50:33.016134,30,2025-11-07 16:50:34.365696154
2025-11-07 16:50:33.016134,7735,2025-11-07 16:50:34.373388462
2025-11-07 16:50:33.016134,-17152,2025-11-07 16:50:34.381080769
2025-11-07 16:50:33.016134,29,2025-11-07 16:50:34.388773077
2025-11-07 16:50:33.016134,7694,2025-11-07 16:50:34.396465385
2025-11-07 16:50:33.016134,-768,2025-11-07 16:50:34.404157692
2025-11-07 16:50:33.016134,29,2025-11-07 16:50:34.411850000
2025-11-07 16:50:33.016134,7649,2025-11-07 16:50:34.419542308
2025-11-07 16:50:33.016134,7168,2025-11-07 16:50:34.427234615
2025-11-07 16:50:33.016134,30,2025-11-07 16:50:34.434926923
2025-11-07 16:50:33.016134,7582,2025-11-07 16:50:34.442619231
2025-11-07 16:50:33.016134,-17152,2025-11-07 16:50:34.450311538
2025-11-07 16:50:33.016134,29,2025-11-07 16:50:34.458003846
2025-11-07 16:50:33.016134,7611,2025-11-07 16:50:34.465696154
2025-11-07 16:50:33.016134,27648,2025-11-07 16:50:34.473388462
2025-11-07 16:50:33.016134,29,2025-11-07 16:50:34.481080769
2025-11-07 16:50:33.016134,7613,2025-11-07 16:50:34.488773077
2025-11-07 16:50:33.016134,9984,2025-11-07 16:50:34.496465385
2025-11-07 16:50:33.016134,29,2025-11-07 16:50:34.504157692
2025-11-07 16:50:33.016134,7389,2025-11-07 16:50:34.511850000
2025-11-07 16:50:33.016134,4352,2025-11-07 16:50:34.519542308
2025-11-07 16:50:33.016134,29,2025-11-07 16:50:34.527234615
2025-11-07 16:50:33.016134,7372,2025-11-07 16:50:34.534926923
2025-11-07 16:50:33.016134,8704,2025-11-07 16:50:34.542619231
2025-11-07 16:50:33.016134,29,2025-11-07 16:50:34.550311538
2025-11-07 16:50:33.016134,7408,2025-11-07 16:50:34.558003846
2025-11-07 16:50:33.016134,-24832,2025-11-07 16:50:34.565696154
2025-11-07 16:50:33.016134,28,2025-11-07 16:50:34.573388462
2025-11-07 16:50:33.016134,7375,2025-11-07 16:50:34.581080769
2025-11-07 16:50:33.016134,25344,2025-11-07 16:50:34.588773077
2025-11-07 16:50:33.016134,28,2025-11-07 16:50:34.596465385
2025-11-07 16:50:33.016134,7332,2025-11-07 16:50:34.604157692
2025-11-07 16:50:33.016134,-16896,2025-11-07 16:50:34.611850000
2025-11-07 16:50:33.016134,28,2025-11-07 16:50:34.619542308
2025-11-07 16:50:33.016134,7260,2025-11-07 16:50:34.627234615
2025-11-07 16:50:33.016134,-23552,2025-11-07 16:50:34.634926923
2025-11-07 16:50:33.016134,28,2025-11-07 16:50:34.642619231
2025-11-07 16:50:33.016134,7236,2025-11-07 16:50:34.650311538
2025-11-07 16:50:33.016134,13824,2025-11-07 16:50:34.658003846
2025-11-07 16:50:33.016134,28,2025-11-07 16:50:34.665696154
2025-11-07 16:50:33.016134,7270,2025-11-07 16:50:34.673388462
2025-11-07 16:50:33.016134,-7424,2025-11-07 16:50:34.681080769
2025-11-07 16:50:33.016134,27,2025-11-07 16:50:34.688773077
2025-11-07 16:50:33.016134,7193,2025-11-07 16:50:34.696465385
2025-11-07 16:50:33.016134,-8192,2025-11-07 16:50:34.704157692
2025-11-07 16:50:33.016134,27,2025-11-07 16:50:34.711850000
2025-11-07 16:50:33.016134,7057,2025-11-07 16:50:34.719542308
2025-11-07 16:50:33.016134,-9984,2025-11-07 16:50:34.727234615
2025-11-07 16:50:33.016134,27,2025-11-07 16:50:34.734926923
2025-11-07 16:50:33.016134,7007,2025-11-07 16:50:34.742619231
2025-11-07 16:50:33.016134,24320,2025-11-07 16:50:34.750311538
2025-11-07 16:50:33.016134,27,2025-11-07 16:50:34.758003846
2025-11-07 16:50:33.016134,7015,2025-11-07 16:50:34.765696154
2025-11-07 16:50:33.016134,12800,2025-11-07 16:50:34.773388462
2025-11-07 16:50:33.016134,27,2025-11-07 16:50:34.781080769
2025-11-07 16:50:33.016134,7096,2025-11-07 16:50:34.788773077
2025-11-07 16:50:33.016134,27392,2025-11-07 16:50:34.796465385
2025-11-07 16:50:33.016134,27,2025-11-07 16:50:34.804157692
2025-11-07 16:50:33.016134,6953,2025-11-07 16:50:34.811850000
2025-11-07 16:50:33.016134,15872,2025-11-07 16:50:34.819542308
2025-11-07 16:50:33.016134,27,2025-11-07 16:50:34.827234615
2025-11-07 16:50:33.016134,6881,2025-11-07 16:50:34.834926923
2025-11-07 16:50:33.016134,11520,2025-11-07 16:50:34.842619231
2025-11-07 16:50:33.016134,27,2025-11-07 16:50:34.850311538
2025-11-07 16:50:33.016134,6902,2025-11-07 16:50:34.858003846
2025-11-07 16:50:33.016134,-15872,2025-11-07 16:50:34.865696154
2025-11-07 16:50:33.016134,26,2025-11-07 16:50:34.873388462
2025-11-07 16:50:33.016134,6948,2025-11-07 16:50:34.881080769
2025-11-07 16:50:33.016134,-20224,2025-11-07 16:50:34.888773077
2025-11-07 16:50:33.016134,26,2025-11-07 16:50:34.896465385
2025-11-07 16:50:33.016134,6874,2025-11-07 16:50:34.904157692
2025-11-07 16:50:33.016134,-5376,2025-11-07 16:50:34.911850000
2025-11-07 16:50:33.016134,26,2025-11-07 16:50:34.919542308
2025-11-07 16:50:33.016134,6783,2025-11-07 16:50:34.927234615
2025-11-07 16:50:33.016134,-3584,2025-11-07 16:50:34.934926923
2025-11-07 16:50:33.016134,26,2025-11-07 16:50:34.942619231
2025-11-07 16:50:33.016134,6850,2025-11-07 16:50:34.950311538
2025-11-07 16:50:33.016134,-23808,2025-11-07 16:50:34.958003846
2025-11-07 16:50:33.016134,26,2025-11-07 16:50:34.965696154
2025-11-07 16:50:33.016134,6867,2025-11-07 16:50:34.973388462
2025-11-07 16:50:33.016134,30208,2025-11-07 16:50:34.981080769
2025-11-07 16:50:33.016134,26,2025-11-07 16:50:34.988773077
2025-11-07 16:50:33.016134,6862,2025-11-07 16:50:34.996465385
2025-11-07 16:50:33.556597,6829,2025-11-07 16:50:35.004157692
2025-11-07 16:50:33.556597,22272,2025-11-07 16:50:35.011850000
2025-11-07 16:50:33.556597,26,2025-11-07 16:50:35.019542308
2025-11-07 16:50:33.556597,6814,2025-11-07 16:50:35.027234615
2025-11-07 16:50:33.556597,15360,2025-11-07 16:50:35.034926923
2025-11-07 16:50:33.556597,26,2025-11-07 16:50:35.042619231
2025-11-07 16:50:33.556597,6750,2025-11-07 16:50:35.050311538
2025-11-07 16:50:33.556597,30208,2025-11-07 16:50:35.058003846
2025-11-07 16:50:33.556597,26,2025-11-07 16:50:35.065696154
2025-11-07 16:50:33.556597,6714,2025-11-07 16:50:35.073388462
2025-11-07 16:50:33.556597,32512,2025-11-07 16:50:35.081080769
2025-11-07 16:50:33.556597,26,2025-11-07 16:50:35.088773077
2025-11-07 16:50:33.556597,6581,2025-11-07 16:50:35.096465385
2025-11-07 16:50:33.556597,30976,2025-11-07 16:50:35.104157692
2025-11-07 16:50:33.556597,25,2025-11-07 16:50:35.111850000
2025-11-07 16:50:33.556597,6626,2025-11-07 16:50:35.119542308
2025-11-07 16:50:33.556597,24832,2025-11-07 16:50:35.127234615
2025-11-07 16:50:33.556597,25,2025-11-07 16:50:35.134926923
2025-11-07 16:50:33.556597,6545,2025-11-07 16:50:35.142619231
2025-11-07 16:50:33.556597,-27904,2025-11-07 16:50:35.150311538
2025-11-07 16:50:33.556597,25,2025-11-07 16:50:35.158003846
2025-11-07 16:50:33.556597,6480,2025-11-07 16:50:35.165696154
2025-11-07 16:50:33.556597,27904,2025-11-07 16:50:35.173388462
2025-11-07 16:50:33.556597,25,2025-11-07 16:50:35.181080769
2025-11-07 16:50:33.556597,6373,2025-11-07 16:50:35.188773077
2025-11-07 16:50:33.556597,-768,2025-11-07 16:50:35.196465385
2025-11-07 16:50:33.556597,24,2025-11-07 16:50:35.204157692
2025-11-07 16:50:33.556597,6397,2025-11-07 16:50:35.211850000
2025-11-07 16:50:33.556597,-30720,2025-11-07 16:50:35.219542308
2025-11-07 16:50:33.556597,24,2025-11-07 16:50:35.227234615
2025-11-07 16:50:33.556597,6380,2025-11-07 16:50:35.234926923
2025-11-07 16:50:33.556597,-20224,2025-11-07 16:50:35.242619231
2025-11-07 16:50:33.556597,24,2025-11-07 16:50:35.250311538
2025-11-07 16:50:33.556597,6271,2025-11-07 16:50:35.258003846
2025-11-07 16:50:33.556597,-20992,2025-11-07 16:50:35.265696154
2025-11-07 16:50:33.556597,24,2025-11-07 16:50:35.273388462
2025-11-07 16:50:33.556597,6213,2025-11-07 16:50:35.281080769
2025-11-07 16:50:33.556597,27648,2025-11-07 16:50:35.288773077
2025-11-07 16:50:33.556597,24,2025-11-07 16:50:35.296465385
2025-11-07 16:50:33.556597,6218,2025-11-07 16:50:35.304157692
2025-11-07 16:50:33.556597,8704,2025-11-07 16:50:35.311850000
2025-11-07 16:50:33.556597,24,2025-11-07 16:50:35.319542308
2025-11-07 16:50:33.556597,6230,2025-11-07 16:50:35.327234615
2025-11-07 16:50:33.556597,-12032,2025-11-07 16:50:35.334926923
2025-11-07 16:50:33.556597,23,2025-11-07 16:50:35.342619230
2025-11-07 16:50:33.556597,6135,2025-11-07 16:50:35.350311538
2025-11-07 16:50:33.556597,1280,2025-11-07 16:50:35.358003846
2025-11-07 16:50:33.556597,24,2025-11-07 16:50:35.365696154
2025-11-07 16:50:33.556597,6018,2025-11-07 16:50:35.373388462
2025-11-07 16:50:33.556597,-14592,2025-11-07 16:50:35.381080769
2025-11-07 16:50:33.556597,23,2025-11-07 16:50:35.388773077
2025-11-07 16:50:33.556597,6023,2025-11-07 16:50:35.396465385
2025-11-07 16:50:33.556597,31488,2025-11-07 16:50:35.404157692
2025-11-07 16:50:33.556597,23,2025-11-07 16:50:35.411850000
2025-11-07 16:50:33.556597,6077,2025-11-07 16:50:35.419542308
2025-11-07 16:50:33.556597,17408,2025-11-07 16:50:35.427234615
2025-11-07 16:50:33.556597,23,2025-11-07 16:50:35.434926923
2025-11-07 16:50:33.556597,6015,2025-11-07 16:50:35.442619231
2025-11-07 16:50:33.556597,30208,2025-11-07 16:50:35.450311538
2025-11-07 16:50:33.556597,23,2025-11-07 16:50:35.458003846
2025-11-07 16:50:33.556597,5925,2025-11-07 16:50:35.465696154
2025-11-07 16:50:33.556597,22272,2025-11-07 16:50:35.473388462
2025-11-07 16:50:33.556597,23,2025-11-07 16:50:35.481080769
2025-11-07 16:50:33.556597,5851,2025-11-07 16:50:35.488773077
2025-11-07 16:50:33.556597,-8960,2025-11-07 16:50:35.496465385
2025-11-07 16:50:33.556597,22,2025-11-07 16:50:35.504157692
2025-11-07 16:50:33.556597,5872,2025-11-07 16:50:35.511850000
2025-11-07 16:50:33.556597,-32000,2025-11-07 16:50:35.519542308
2025-11-07 16:50:33.556597,22,2025-11-07 16:50:35.527234615
2025-11-07 16:50:33.556597,5818,2025-11-07 16:50:35.534926923
2025-11-07 16:50:33.556597,24832,2025-11-07 16:50:35.542619231
2025-11-07 16:50:33.556597,22,2025-11-07 16:50:35.550311538
2025-11-07 16:50:33.556597,5684,2025-11-07 16:50:35.558003846
2025-11-07 16:50:33.556597,23808,2025-11-07 16:50:35.565696154
2025-11-07 16:50:33.556597,22,2025-11-07 16:50:35.573388462
2025-11-07 16:50:33.556597,5615,2025-11-07 16:50:35.581080769
2025-11-07 16:50:33.556597,11520,2025-11-07 16:50:35.588773077
2025-11-07 16:50:33.556597,22,2025-11-07 16:50:35.596465385
2025-11-07 16:50:33.556597,5641,2025-11-07 16:50:35.604157692
2025-11-07 16:50:33.556597,-19712,2025-11-07 16:50:35.611850000
2025-11-07 16:50:33.556597,21,2025-11-07 16:50:35.619542308
2025-11-07 16:50:33.556597,5627,2025-11-07 16:50:35.627234615
2025-11-07 16:50:33.556597,-31232,2025-11-07 16:50:35.634926923
2025-11-07 16:50:33.556597,21,2025-11-07 16:50:35.642619231
2025-11-07 16:50:33.556597,5515,2025-11-07 16:50:35.650311538
2025-11-07 16:50:33.556597,-22016,2025-11-07 16:50:35.658003846
2025-11-07 16:50:33.556597,21,2025-11-07 16:50:35.665696154
2025-11-07 16:50:33.556597,5453,2025-11-07 16:50:35.673388462
2025-11-07 16:50:33.556597,-25088,2025-11-07 16:50:35.681080769
2025-11-07 16:50:33.556597,21,2025-11-07 16:50:35.688773077
2025-11-07 16:50:33.556597,5462,2025-11-07 16:50:35.696465385
2025-11-07 16:50:33.556597,9984,2025-11-07 16:50:35.704157692
2025-11-07 16:50:33.556597,21,2025-11-07 16:50:35.711850000
2025-11-07 16:50:33.556597,5479,2025-11-07 16:50:35.719542308
2025-11-07 16:50:33.556597,768,2025-11-07 16:50:35.727234615
2025-11-07 16:50:33.556597,21,2025-11-07 16:50:35.734926923
2025-11-07 16:50:33.556597,5426,2025-11-07 16:50:35.742619231
2025-11-07 16:50:33.556597,3840,2025-11-07 16:50:35.750311538
2025-11-07 16:50:33.556597,21,2025-11-07 16:50:35.758003846
2025-11-07 16:50:33.556597,5295,2025-11-07 16:50:35.765696154
2025-11-07 16:50:33.556597,-4096,2025-11-07 16:50:35.773388462
2025-11-07 16:50:33.556597,20,2025-11-07 16:50:35.781080769
2025-11-07 16:50:33.556597,5240,2025-11-07 16:50:35.788773077
2025-11-07 16:50:33.556597,-32256,2025-11-07 16:50:35.796465385
2025-11-07 16:50:33.556597,20,2025-11-07 16:50:35.804157692
2025-11-07 16:50:33.556597,5336,2025-11-07 16:50:35.811850000
2025-11-07 16:50:33.556597,-20736,2025-11-07 16:50:35.819542308
2025-11-07 16:50:33.556597,20,2025-11-07 16:50:35.827234615
2025-11-07 16:50:33.556597,5341,2025-11-07 16:50:35.834926923
2025-11-07 16:50:34.186159,5186,2025-11-07 16:50:35.842619231
2025-11-07 16:50:34.186159,-1536,2025-11-07 16:50:35.850311538
2025-11-07 16:50:34.186159,19,2025-11-07 16:50:35.858003846
2025-11-07 16:50:34.186159,5212,2025-11-07 16:50:35.865696154
2025-11-07 16:50:34.186159,7680,2025-11-07 16:50:35.873388462
2025-11-07 16:50:34.186159,20,2025-11-07 16:50:35.881080769
2025-11-07 16:50:34.186159,5217,2025-11-07 16:50:35.888773077
2025-11-07 16:50:34.186159,9472,2025-11-07 16:50:35.896465385
2025-11-07 16:50:34.186159,20,2025-11-07 16:50:35.904157692
2025-11-07 16:50:34.186159,5074,2025-11-07 16:50:35.911850000
2025-11-07 16:50:34.186159,18688,2025-11-07 16:50:35.919542308
2025-11-07 16:50:34.186159,20,2025-11-07 16:50:35.927234615
2025-11-07 16:50:34.186159,5081,2025-11-07 16:50:35.934926923
2025-11-07 16:50:34.186159,-9472,2025-11-07 16:50:35.942619231
2025-11-07 16:50:34.186159,19,2025-11-07 16:50:35.950311538
2025-11-07 16:50:34.186159,5138,2025-11-07 16:50:35.958003846
2025-11-07 16:50:34.186159,-25344,2025-11-07 16:50:35.965696154
2025-11-07 16:50:34.186159,19,2025-11-07 16:50:35.973388462
2025-11-07 16:50:34.186159,5083,2025-11-07 16:50:35.981080769
2025-11-07 16:50:34.186159,-20992,2025-11-07 16:50:35.988773077
2025-11-07 16:50:34.186159,19,2025-11-07 16:50:35.996465385
2025-11-07 16:50:34.186159,5004,2025-11-07 16:50:36.004157692
2025-11-07 16:50:34.186159,-13824,2025-11-07 16:50:36.011850000
2025-11-07 16:50:34.186159,19,2025-11-07 16:50:36.019542308
2025-11-07 16:50:34.186159,4945,2025-11-07 16:50:36.027234615
2025-11-07 16:50:34.186159,-30720,2025-11-07 16:50:36.034926923
2025-11-07 16:50:34.186159,19,2025-11-07 16:50:36.042619231
2025-11-07 16:50:34.186159,5009,2025-11-07 16:50:36.050311538
2025-11-07 16:50:34.186159,16384,2025-11-07 16:50:36.058003846
2025-11-07 16:50:34.186159,19,2025-11-07 16:50:36.065696154
2025-11-07 16:50:34.186159,5016,2025-11-07 16:50:36.073388462
2025-11-07 16:50:34.186159,17664,2025-11-07 16:50:36.081080769
2025-11-07 16:50:34.186159,19,2025-11-07 16:50:36.088773077
2025-11-07 16:50:34.186159,4911,2025-11-07 16:50:36.096465385
2025-11-07 16:50:34.186159,18176,2025-11-07 16:50:36.104157692
2025-11-07 16:50:34.186159,19,2025-11-07 16:50:36.111850000
2025-11-07 16:50:34.186159,4835,2025-11-07 16:50:36.119542308
2025-11-07 16:50:34.186159,10240,2025-11-07 16:50:36.127234615
2025-11-07 16:50:34.186159,19,2025-11-07 16:50:36.134926923
2025-11-07 16:50:34.186159,4840,2025-11-07 16:50:36.142619231
2025-11-07 16:50:34.186159,-20224,2025-11-07 16:50:36.150311538
2025-11-07 16:50:34.186159,18,2025-11-07 16:50:36.158003846
2025-11-07 16:50:34.186159,4835,2025-11-07 16:50:36.165696154
2025-11-07 16:50:34.186159,25856,2025-11-07 16:50:36.173388462
2025-11-07 16:50:34.186159,18,2025-11-07 16:50:36.181080769
2025-11-07 16:50:34.186159,4747,2025-11-07 16:50:36.188773077
2025-11-07 16:50:34.186159,29952,2025-11-07 16:50:36.196465385
2025-11-07 16:50:34.186159,18,2025-11-07 16:50:36.204157692
2025-11-07 16:50:34.186159,4637,2025-11-07 16:50:36.211850000
2025-11-07 16:50:34.186159,29440,2025-11-07 16:50:36.219542308
2025-11-07 16:50:34.186159,18,2025-11-07 16:50:36.227234615
2025-11-07 16:50:34.186159,4613,2025-11-07 16:50:36.234926923
2025-11-07 16:50:34.186159,-512,2025-11-07 16:50:36.242619231
2025-11-07 16:50:34.186159,17,2025-11-07 16:50:36.250311538
2025-11-07 16:50:34.186159,4652,2025-11-07 16:50:36.258003846
2025-11-07 16:50:34.186159,-19456,2025-11-07 16:50:36.265696154
2025-11-07 16:50:34.186159,17,2025-11-07 16:50:36.273388462
2025-11-07 16:50:34.186159,4599,2025-11-07 16:50:36.281080769
2025-11-07 16:50:34.186159,-16384,2025-11-07 16:50:36.288773077
2025-11-07 16:50:34.186159,17,2025-11-07 16:50:36.296465385
2025-11-07 16:50:34.186159,4480,2025-11-07 16:50:36.304157692
2025-11-07 16:50:34.186159,-15104,2025-11-07 16:50:36.311850000
2025-11-07 16:50:34.186159,17,2025-11-07 16:50:36.319542308
2025-11-07 16:50:34.186159,4435,2025-11-07 16:50:36.327234615
2025-11-07 16:50:34.186159,24832,2025-11-07 16:50:36.334926923
2025-11-07 16:50:34.186159,17,2025-11-07 16:50:36.342619230
2025-11-07 16:50:34.186159,4430,2025-11-07 16:50:36.350311538
2025-11-07 16:50:34.186159,-5120,2025-11-07 16:50:36.358003846
2025-11-07 16:50:34.186159,16,2025-11-07 16:50:36.365696154
2025-11-07 16:50:34.186159,4399,2025-11-07 16:50:36.373388462
2025-11-07 16:50:34.186159,-11776,2025-11-07 16:50:36.381080769
2025-11-07 16:50:34.186159,16,2025-11-07 16:50:36.388773077
2025-11-07 16:50:34.186159,4303,2025-11-07 16:50:36.396465385
2025-11-07 16:50:34.186159,-2048,2025-11-07 16:50:36.404157692
2025-11-07 16:50:34.186159,16,2025-11-07 16:50:36.411850000
2025-11-07 16:50:34.186159,4229,2025-11-07 16:50:36.419542308
2025-11-07 16:50:34.186159,-14848,2025-11-07 16:50:36.427234615
2025-11-07 16:50:34.186159,16,2025-11-07 16:50:36.434926923
2025-11-07 16:50:34.186159,4244,2025-11-07 16:50:36.442619231
2025-11-07 16:50:34.186159,28160,2025-11-07 16:50:36.450311538
2025-11-07 16:50:34.186159,16,2025-11-07 16:50:36.458003846
2025-11-07 16:50:34.186159,4291,2025-11-07 16:50:36.465696154
2025-11-07 16:50:34.186159,21248,2025-11-07 16:50:36.473388462
2025-11-07 16:50:34.186159,16,2025-11-07 16:50:36.481080769
2025-11-07 16:50:34.186159,4222,2025-11-07 16:50:36.488773077
2025-11-07 16:50:34.186159,31232,2025-11-07 16:50:36.496465385
2025-11-07 16:50:34.186159,16,2025-11-07 16:50:36.504157692
2025-11-07 16:50:34.186159,4117,2025-11-07 16:50:36.511850000
2025-11-07 16:50:34.186159,29952,2025-11-07 16:50:36.519542308
2025-11-07 16:50:34.186159,16,2025-11-07 16:50:36.527234615
2025-11-07 16:50:34.186159,4139,2025-11-07 16:50:36.534926923
2025-11-07 16:50:34.186159,9216,2025-11-07 16:50:36.542619231
2025-11-07 16:50:34.186159,16,2025-11-07 16:50:36.550311538
2025-11-07 16:50:34.186159,4179,2025-11-07 16:50:36.558003846
2025-11-07 16:50:34.186159,-8448,2025-11-07 16:50:36.565696154
2025-11-07 16:50:34.186159,15,2025-11-07 16:50:36.573388462
2025-11-07 16:50:34.186159,4129,2025-11-07 16:50:36.581080769
2025-11-07 16:50:34.186159,-1280,2025-11-07 16:50:36.588773077
2025-11-07 16:50:34.186159,15,2025-11-07 16:50:36.596465385
2025-11-07 16:50:34.186159,4034,2025-11-07 16:50:36.604157692
2025-11-07 16:50:34.186159,4352,2025-11-07 16:50:36.611850000
2025-11-07 16:50:34.186159,16,2025-11-07 16:50:36.619542308
2025-11-07 16:50:34.186159,4013,2025-11-07 16:50:36.627234615
2025-11-07 16:50:34.186159,-14080,2025-11-07 16:50:36.634926923
2025-11-07 16:50:34.186159,15,2025-11-07 16:50:36.642619231
2025-11-07 16:50:34.186159,4041,2025-11-07 16:50:36.650311538
2025-11-07 16:50:34.186159,30208,2025-11-07 16:50:36.658003846
2025-11-07 16:50:34.186159,15,2025-11-07 16:50:36.665696154
2025-11-07 16:50:34.186159,4060,2025-11-07 16:50:36.673388462
2025-11-07 16:50:34.727498,3970,2025-11-07 16:50:36.681080769
2025-11-07 16:50:34.727498,27136,2025-11-07 16:50:36.688773077
2025-11-07 16:50:34.727498,15,2025-11-07 16:50:36.696465385
2025-11-07 16:50:34.727498,3996,2025-11-07 16:50:36.704157692
2025-11-07 16:50:34.727498,12544,2025-11-07 16:50:36.711850000
2025-11-07 16:50:34.727498,15,2025-11-07 16:50:36.719542308
2025-11-07 16:50:34.727498,3970,2025-11-07 16:50:36.727234615
2025-11-07 16:50:34.727498,28416,2025-11-07 16:50:36.734926923
2025-11-07 16:50:34.727498,15,2025-11-07 16:50:36.742619231
2025-11-07 16:50:34.727498,3900,2025-11-07 16:50:36.750311538
2025-11-07 16:50:34.727498,-31232,2025-11-07 16:50:36.758003846
2025-11-07 16:50:34.727498,15,2025-11-07 16:50:36.765696154
2025-11-07 16:50:34.727498,3853,2025-11-07 16:50:36.773388462
2025-11-07 16:50:34.727498,14336,2025-11-07 16:50:36.781080769
2025-11-07 16:50:34.727498,15,2025-11-07 16:50:36.788773077
2025-11-07 16:50:34.727498,3924,2025-11-07 16:50:36.796465385
2025-11-07 16:50:34.727498,-4096,2025-11-07 16:50:36.804157692
2025-11-07 16:50:34.727498,14,2025-11-07 16:50:36.811850000
2025-11-07 16:50:34.727498,3934,2025-11-07 16:50:36.819542308
2025-11-07 16:50:34.727498,6912,2025-11-07 16:50:36.827234615
2025-11-07 16:50:34.727498,15,2025-11-07 16:50:36.834926923
2025-11-07 16:50:34.727498,3788,2025-11-07 16:50:36.842619231
2025-11-07 16:50:34.727498,4608,2025-11-07 16:50:36.850311538
2025-11-07 16:50:34.727498,15,2025-11-07 16:50:36.858003846
2025-11-07 16:50:34.727498,3860,2025-11-07 16:50:36.865696154
2025-11-07 16:50:34.727498,-32256,2025-11-07 16:50:36.873388462
2025-11-07 16:50:34.727498,15,2025-11-07 16:50:36.881080769
2025-11-07 16:50:34.727498,3865,2025-11-07 16:50:36.888773077
2025-11-07 16:50:34.727498,-27904,2025-11-07 16:50:36.896465385
2025-11-07 16:50:34.727498,14,2025-11-07 16:50:36.904157692
2025-11-07 16:50:34.727498,3812,2025-11-07 16:50:36.911850000
2025-11-07 16:50:34.727498,-30976,2025-11-07 16:50:36.919542308
2025-11-07 16:50:34.727498,14,2025-11-07 16:50:36.927234615
2025-11-07 16:50:34.727498,3731,2025-11-07 16:50:36.934926923
2025-11-07 16:50:34.727498,-24832,2025-11-07 16:50:36.942619231
2025-11-07 16:50:34.727498,14,2025-11-07 16:50:36.950311538
2025-11-07 16:50:34.727498,3662,2025-11-07 16:50:36.958003846
2025-11-07 16:50:34.727498,-22272,2025-11-07 16:50:36.965696154
2025-11-07 16:50:34.727498,14,2025-11-07 16:50:36.973388462
2025-11-07 16:50:34.727498,3674,2025-11-07 16:50:36.981080769
2025-11-07 16:50:34.727498,19456,2025-11-07 16:50:36.988773077
2025-11-07 16:50:34.727498,14,2025-11-07 16:50:36.996465385
2025-11-07 16:50:34.727498,3729,2025-11-07 16:50:37.004157692
2025-11-07 16:50:34.727498,10752,2025-11-07 16:50:37.011850000
2025-11-07 16:50:34.727498,14,2025-11-07 16:50:37.019542308
2025-11-07 16:50:34.727498,3703,2025-11-07 16:50:37.027234615
2025-11-07 16:50:34.727498,24320,2025-11-07 16:50:37.034926923
2025-11-07 16:50:34.727498,14,2025-11-07 16:50:37.042619231
2025-11-07 16:50:34.727498,3612,2025-11-07 16:50:37.050311538
2025-11-07 16:50:34.727498,31488,2025-11-07 16:50:37.058003846
2025-11-07 16:50:34.727498,14,2025-11-07 16:50:37.065696154
2025-11-07 16:50:34.727498,3614,2025-11-07 16:50:37.073388462
2025-11-07 16:50:34.727498,15104,2025-11-07 16:50:37.081080769
2025-11-07 16:50:34.727498,14,2025-11-07 16:50:37.088773077
2025-11-07 16:50:34.727498,3672,2025-11-07 16:50:37.096465385
2025-11-07 16:50:34.727498,-2048,2025-11-07 16:50:37.104157692
2025-11-07 16:50:34.727498,13,2025-11-07 16:50:37.111850000
2025-11-07 16:50:34.727498,3664,2025-11-07 16:50:37.119542308
2025-11-07 16:50:34.727498,4608,2025-11-07 16:50:37.127234615
2025-11-07 16:50:34.727498,14,2025-11-07 16:50:37.134926923
2025-11-07 16:50:34.727498,3586,2025-11-07 16:50:37.142619231
2025-11-07 16:50:34.727498,19456,2025-11-07 16:50:37.150311538
2025-11-07 16:50:34.727498,14,2025-11-07 16:50:37.158003846
2025-11-07 16:50:34.727498,3550,2025-11-07 16:50:37.165696154
2025-11-07 16:50:34.727498,4608,2025-11-07 16:50:37.173388462
2025-11-07 16:50:34.727498,14,2025-11-07 16:50:37.181080769
2025-11-07 16:50:34.727498,3579,2025-11-07 16:50:37.188773077
2025-11-07 16:50:34.727498,-19712,2025-11-07 16:50:37.196465385
2025-11-07 16:50:34.727498,13,2025-11-07 16:50:37.204157692
2025-11-07 16:50:34.727498,3588,2025-11-07 16:50:37.211850000
2025-11-07 16:50:34.727498,-22272,2025-11-07 16:50:37.219542308
2025-11-07 16:50:34.727498,13,2025-11-07 16:50:37.227234615
2025-11-07 16:50:34.727498,3524,2025-11-07 16:50:37.234926923
2025-11-07 16:50:34.727498,-10496,2025-11-07 16:50:37.242619231
2025-11-07 16:50:34.727498,13,2025-11-07 16:50:37.250311538
2025-11-07 16:50:34.727498,3445,2025-11-07 16:50:37.258003846
2025-11-07 16:50:34.727498,-13056,2025-11-07 16:50:37.265696154
2025-11-07 16:50:34.727498,13,2025-11-07 16:50:37.273388462
2025-11-07 16:50:34.727498,3474,2025-11-07 16:50:37.281080769
2025-11-07 16:50:34.727498,31232,2025-11-07 16:50:37.288773077
2025-11-07 16:50:34.727498,13,2025-11-07 16:50:37.296465385
2025-11-07 16:50:34.727498,3512,2025-11-07 16:50:37.304157692
2025-11-07 16:50:34.727498,16640,2025-11-07 16:50:37.311850000
2025-11-07 16:50:34.727498,13,2025-11-07 16:50:37.319542308
2025-11-07 16:50:34.727498,3445,2025-11-07 16:50:37.327234615
2025-11-07 16:50:34.727498,23296,2025-11-07 16:50:37.334926923
2025-11-07 16:50:34.727498,13,2025-11-07 16:50:37.342619230
2025-11-07 16:50:34.727498,3345,2025-11-07 16:50:37.350311538
2025-11-07 16:50:34.727498,27392,2025-11-07 16:50:37.358003846
2025-11-07 16:50:34.727498,13,2025-11-07 16:50:37.365696154
2025-11-07 16:50:34.727498,3331,2025-11-07 16:50:37.373388462
2025-11-07 16:50:34.727498,1280,2025-11-07 16:50:37.381080769
2025-11-07 16:50:34.727498,13,2025-11-07 16:50:37.388773077
2025-11-07 16:50:34.727498,3362,2025-11-07 16:50:37.396465385
2025-11-07 16:50:34.727498,-18176,2025-11-07 16:50:37.404157692
2025-11-07 16:50:34.727498,12,2025-11-07 16:50:37.411850000
2025-11-07 16:50:34.727498,3342,2025-11-07 16:50:37.419542308
2025-11-07 16:50:34.727498,-8448,2025-11-07 16:50:37.427234615
2025-11-07 16:50:34.727498,12,2025-11-07 16:50:37.434926923
2025-11-07 16:50:34.727498,3259,2025-11-07 16:50:37.442619231
2025-11-07 16:50:34.727498,-2304,2025-11-07 16:50:37.450311538
2025-11-07 16:50:34.727498,12,2025-11-07 16:50:37.458003846
2025-11-07 16:50:34.727498,3218,2025-11-07 16:50:37.465696154
2025-11-07 16:50:34.727498,-13312,2025-11-07 16:50:37.473388462
2025-11-07 16:50:34.727498,12,2025-11-07 16:50:37.481080769
2025-11-07 16:50:34.727498,3264,2025-11-07 16:50:37.488773077
2025-11-07 16:50:34.727498,32512,2025-11-07 16:50:37.496465385
2025-11-07 16:50:34.727498,12,2025-11-07 16:50:37.504157692
2025-11-07 16:50:34.727498,3285,2025-11-07 16:50:37.511850000
2025-11-07 16:50:35.266151,3192,2025-11-07 16:50:37.519542308
2025-11-07 16:50:35.266151,-31744,2025-11-07 16:50:37.527234615
2025-11-07 16:50:35.266151,12,2025-11-07 16:50:37.534926923
2025-11-07 16:50:35.266151,3226,2025-11-07 16:50:37.542619231
2025-11-07 16:50:35.266151,14848,2025-11-07 16:50:37.550311538
2025-11-07 16:50:35.266151,12,2025-11-07 16:50:37.558003846
2025-11-07 16:50:35.266151,3223,2025-11-07 16:50:37.565696154
2025-11-07 16:50:35.266151,20480,2025-11-07 16:50:37.573388462
2025-11-07 16:50:35.266151,12,2025-11-07 16:50:37.581080769
2025-11-07 16:50:35.266151,3114,2025-11-07 16:50:37.588773077
2025-11-07 16:50:35.266151,29440,2025-11-07 16:50:37.596465385
2025-11-07 16:50:35.266151,12,2025-11-07 16:50:37.604157692
2025-11-07 16:50:35.266151,3073,2025-11-07 16:50:37.611850000
2025-11-07 16:50:35.266151,19200,2025-11-07 16:50:37.619542308
2025-11-07 16:50:35.266151,12,2025-11-07 16:50:37.627234615
2025-11-07 16:50:35.266151,3166,2025-11-07 16:50:37.634926923
2025-11-07 16:50:35.266151,-3328,2025-11-07 16:50:37.642619231
2025-11-07 16:50:35.266151,11,2025-11-07 16:50:37.650311538
2025-11-07 16:50:35.266151,3114,2025-11-07 16:50:37.658003846
2025-11-07 16:50:35.266151,-7168,2025-11-07 16:50:37.665696154
2025-11-07 16:50:35.266151,11,2025-11-07 16:50:37.673388462
2025-11-07 16:50:35.266151,3068,2025-11-07 16:50:37.681080769
2025-11-07 16:50:35.266151,6400,2025-11-07 16:50:37.688773077
2025-11-07 16:50:35.266151,12,2025-11-07 16:50:37.696465385
2025-11-07 16:50:35.266151,3004,2025-11-07 16:50:37.704157692
2025-11-07 16:50:35.266151,3840,2025-11-07 16:50:37.711850000
2025-11-07 16:50:35.266151,12,2025-11-07 16:50:37.719542308
2025-11-07 16:50:35.266151,3028,2025-11-07 16:50:37.727234615
2025-11-07 16:50:35.266151,-20480,2025-11-07 16:50:37.734926923
2025-11-07 16:50:35.266151,11,2025-11-07 16:50:37.742619231
2025-11-07 16:50:35.266151,3068,2025-11-07 16:50:37.750311538
2025-11-07 16:50:35.266151,-27136,2025-11-07 16:50:37.758003846
2025-11-07 16:50:35.266151,11,2025-11-07 16:50:37.765696154
2025-11-07 16:50:35.266151,3013,2025-11-07 16:50:37.773388462
2025-11-07 16:50:35.266151,-18688,2025-11-07 16:50:37.781080769
2025-11-07 16:50:35.266151,11,2025-11-07 16:50:37.788773077
2025-11-07 16:50:35.266151,2920,2025-11-07 16:50:37.796465385
2025-11-07 16:50:35.266151,-16128,2025-11-07 16:50:37.804157692
2025-11-07 16:50:35.266151,11,2025-11-07 16:50:37.811850000
2025-11-07 16:50:35.266151,2920,2025-11-07 16:50:37.819542308
2025-11-07 16:50:35.266151,30976,2025-11-07 16:50:37.827234615
2025-11-07 16:50:35.266151,11,2025-11-07 16:50:37.834926923
2025-11-07 16:50:35.266151,2980,2025-11-07 16:50:37.842619231
2025-11-07 16:50:35.266151,13824,2025-11-07 16:50:37.850311538
2025-11-07 16:50:35.266151,11,2025-11-07 16:50:37.858003846
2025-11-07 16:50:35.266151,2944,2025-11-07 16:50:37.865696154
2025-11-07 16:50:35.266151,21248,2025-11-07 16:50:37.873388462
2025-11-07 16:50:35.266151,11,2025-11-07 16:50:37.881080769
2025-11-07 16:50:35.266151,2911,2025-11-07 16:50:37.888773077
2025-11-07 16:50:35.266151,-1024,2025-11-07 16:50:37.896465385
2025-11-07 16:50:35.266151,11,2025-11-07 16:50:37.904157692
2025-11-07 16:50:35.266151,2963,2025-11-07 16:50:37.911850000
2025-11-07 16:50:35.266151,30976,2025-11-07 16:50:37.919542308
2025-11-07 16:50:35.266151,11,2025-11-07 16:50:37.927234615
2025-11-07 16:50:35.266151,2897,2025-11-07 16:50:37.934926923
2025-11-07 16:50:35.266151,5888,2025-11-07 16:50:37.942619231
2025-11-07 16:50:35.266151,11,2025-11-07 16:50:37.950311538
2025-11-07 16:50:35.266151,2935,2025-11-07 16:50:37.958003846
2025-11-07 16:50:35.266151,6656,2025-11-07 16:50:37.965696154
2025-11-07 16:50:35.266151,11,2025-11-07 16:50:37.973388462
2025-11-07 16:50:35.266151,2856,2025-11-07 16:50:37.981080769
2025-11-07 16:50:35.266151,24320,2025-11-07 16:50:37.988773077
2025-11-07 16:50:35.266151,11,2025-11-07 16:50:37.996465385
2025-11-07 16:50:35.266151,2816,2025-11-07 16:50:38.004157692
2025-11-07 16:50:35.266151,22528,2025-11-07 16:50:38.011850000
2025-11-07 16:50:35.266151,11,2025-11-07 16:50:38.019542308
2025-11-07 16:50:35.266151,2858,2025-11-07 16:50:38.027234615
2025-11-07 16:50:35.266151,512,2025-11-07 16:50:38.034926923
2025-11-07 16:50:35.266151,11,2025-11-07 16:50:38.042619231
2025-11-07 16:50:35.266151,2909,2025-11-07 16:50:38.050311538
2025-11-07 16:50:35.266151,-2560,2025-11-07 16:50:38.058003846
2025-11-07 16:50:35.266151,10,2025-11-07 16:50:38.065696154
2025-11-07 16:50:35.266151,2854,2025-11-07 16:50:38.073388462
2025-11-07 16:50:35.266151,13824,2025-11-07 16:50:38.081080769
2025-11-07 16:50:35.266151,11,2025-11-07 16:50:38.088773077
2025-11-07 16:50:35.266151,2801,2025-11-07 16:50:38.096465385
2025-11-07 16:50:35.266151,19456,2025-11-07 16:50:38.104157692
2025-11-07 16:50:35.266151,11,2025-11-07 16:50:38.111850000
2025-11-07 16:50:35.266151,2804,2025-11-07 16:50:38.119542308
2025-11-07 16:50:35.266151,1024,2025-11-07 16:50:38.127234615
2025-11-07 16:50:35.266151,11,2025-11-07 16:50:38.134926923
2025-11-07 16:50:35.266151,2885,2025-11-07 16:50:38.142619231
2025-11-07 16:50:35.266151,-8704,2025-11-07 16:50:38.150311538
2025-11-07 16:50:35.266151,10,2025-11-07 16:50:38.158003846
2025-11-07 16:50:35.266151,2870,2025-11-07 16:50:38.165696154
2025-11-07 16:50:35.266151,7936,2025-11-07 16:50:38.173388462
2025-11-07 16:50:35.266151,11,2025-11-07 16:50:38.181080769
2025-11-07 16:50:35.266151,2804,2025-11-07 16:50:38.188773077
2025-11-07 16:50:35.266151,16384,2025-11-07 16:50:38.196465385
2025-11-07 16:50:35.266151,11,2025-11-07 16:50:38.204157692
2025-11-07 16:50:35.266151,2789,2025-11-07 16:50:38.211850000
2025-11-07 16:50:35.266151,8448,2025-11-07 16:50:38.219542308
2025-11-07 16:50:35.266151,11,2025-11-07 16:50:38.227234615
2025-11-07 16:50:35.266151,2854,2025-11-07 16:50:38.234926923
2025-11-07 16:50:35.266151,-12288,2025-11-07 16:50:38.242619231
2025-11-07 16:50:35.266151,10,2025-11-07 16:50:38.250311538
2025-11-07 16:50:35.266151,2873,2025-11-07 16:50:38.258003846
2025-11-07 16:50:35.266151,-2560,2025-11-07 16:50:38.265696154
2025-11-07 16:50:35.266151,10,2025-11-07 16:50:38.273388462
2025-11-07 16:50:35.266151,2801,2025-11-07 16:50:38.281080769
2025-11-07 16:50:35.266151,12032,2025-11-07 16:50:38.288773077
2025-11-07 16:50:35.266151,11,2025-11-07 16:50:38.296465385
2025-11-07 16:50:35.266151,2775,2025-11-07 16:50:38.304157692
2025-11-07 16:50:35.266151,11520,2025-11-07 16:50:38.311850000
2025-11-07 16:50:35.266151,11,2025-11-07 16:50:38.319542308
2025-11-07 16:50:35.266151,2825,2025-11-07 16:50:38.327234615
2025-11-07 16:50:35.266151,-7936,2025-11-07 16:50:38.334926923
2025-11-07 16:50:35.266151,10,2025-11-07 16:50:38.342619230
2025-11-07 16:50:35.266151,2875,2025-11-07 16:50:38.350311538
2025-11-07 16:50:35.807252,2773,2025-11-07 16:50:38.358003846
2025-11-07 16:50:35.807252,-768,2025-11-07 16:50:38.365696154
2025-11-07 16:50:35.807252,10,2025-11-07 16:50:38.373388462
2025-11-07 16:50:35.807252,2825,2025-11-07 16:50:38.381080769
2025-11-07 16:50:35.807252,-18944,2025-11-07 16:50:38.388773077
2025-11-07 16:50:35.807252,10,2025-11-07 16:50:38.396465385
2025-11-07 16:50:35.807252,2837,2025-11-07 16:50:38.404157692
2025-11-07 16:50:35.807252,-11776,2025-11-07 16:50:38.411850000
2025-11-07 16:50:35.807252,10,2025-11-07 16:50:38.419542308
2025-11-07 16:50:35.807252,2785,2025-11-07 16:50:38.427234615
2025-11-07 16:50:35.807252,13312,2025-11-07 16:50:38.434926923
2025-11-07 16:50:35.807252,11,2025-11-07 16:50:38.442619231
2025-11-07 16:50:35.807252,2756,2025-11-07 16:50:38.450311538
2025-11-07 16:50:35.807252,-5632,2025-11-07 16:50:38.458003846
2025-11-07 16:50:35.807252,10,2025-11-07 16:50:38.465696154
2025-11-07 16:50:35.807252,2777,2025-11-07 16:50:38.473388462
2025-11-07 16:50:35.807252,-15360,2025-11-07 16:50:38.481080769
2025-11-07 16:50:35.807252,10,2025-11-07 16:50:38.488773077
2025-11-07 16:50:35.807252,2835,2025-11-07 16:50:38.496465385
2025-11-07 16:50:35.807252,-21504,2025-11-07 16:50:38.504157692
2025-11-07 16:50:35.807252,10,2025-11-07 16:50:38.511850000
2025-11-07 16:50:35.807252,2780,2025-11-07 16:50:38.519542308
2025-11-07 16:50:35.807252,-4352,2025-11-07 16:50:38.527234615
2025-11-07 16:50:35.807252,10,2025-11-07 16:50:38.534926923
2025-11-07 16:50:35.807252,2718,2025-11-07 16:50:38.542619231
2025-11-07 16:50:35.807252,-768,2025-11-07 16:50:38.550311538
2025-11-07 16:50:35.807252,10,2025-11-07 16:50:38.558003846
2025-11-07 16:50:35.807252,2744,2025-11-07 16:50:38.565696154
2025-11-07 16:50:35.807252,-20224,2025-11-07 16:50:38.573388462
2025-11-07 16:50:35.807252,10,2025-11-07 16:50:38.581080769
2025-11-07 16:50:35.807252,2789,2025-11-07 16:50:38.588773077
2025-11-07 16:50:35.807252,-32512,2025-11-07 16:50:38.596465385
2025-11-07 16:50:35.807252,10,2025-11-07 16:50:38.604157692
2025-11-07 16:50:35.807252,2770,2025-11-07 16:50:38.611850000
2025-11-07 16:50:35.807252,-17920,2025-11-07 16:50:38.619542308
2025-11-07 16:50:35.807252,10,2025-11-07 16:50:38.627234615
2025-11-07 16:50:35.807252,2694,2025-11-07 16:50:38.634926923
2025-11-07 16:50:35.807252,-11776,2025-11-07 16:50:38.642619231
2025-11-07 16:50:35.807252,10,2025-11-07 16:50:38.650311538
2025-11-07 16:50:35.807252,2670,2025-11-07 16:50:38.658003846
2025-11-07 16:50:35.807252,-25088,2025-11-07 16:50:38.665696154
2025-11-07 16:50:35.807252,10,2025-11-07 16:50:38.673388462
2025-11-07 16:50:35.807252,2737,2025-11-07 16:50:38.681080769
2025-11-07 16:50:35.807252,23808,2025-11-07 16:50:38.688773077
2025-11-07 16:50:35.807252,10,2025-11-07 16:50:38.696465385
2025-11-07 16:50:35.807252,2751,2025-11-07 16:50:38.704157692
2025-11-07 16:50:35.807252,30720,2025-11-07 16:50:38.711850000
2025-11-07 16:50:35.807252,10,2025-11-07 16:50:38.719542308
2025-11-07 16:50:35.807252,2670,2025-11-07 16:50:38.727234615
2025-11-07 16:50:35.807252,-20992,2025-11-07 16:50:38.734926923
2025-11-07 16:50:35.807252,10,2025-11-07 16:50:38.742619231
2025-11-07 16:50:35.807252,2630,2025-11-07 16:50:38.750311538
2025-11-07 16:50:35.807252,-27648,2025-11-07 16:50:38.758003846
2025-11-07 16:50:35.807252,10,2025-11-07 16:50:38.765696154
2025-11-07 16:50:35.807252,2687,2025-11-07 16:50:38.773388462
2025-11-07 16:50:35.807252,17152,2025-11-07 16:50:38.781080769
2025-11-07 16:50:35.807252,10,2025-11-07 16:50:38.788773077
2025-11-07 16:50:35.807252,2713,2025-11-07 16:50:38.796465385
2025-11-07 16:50:35.807252,15360,2025-11-07 16:50:38.804157692
2025-11-07 16:50:35.807252,10,2025-11-07 16:50:38.811850000
2025-11-07 16:50:35.807252,2663,2025-11-07 16:50:38.819542308
2025-11-07 16:50:35.807252,32512,2025-11-07 16:50:38.827234615
2025-11-07 16:50:35.807252,10,2025-11-07 16:50:38.834926923
2025-11-07 16:50:35.807252,2601,2025-11-07 16:50:38.842619231
2025-11-07 16:50:35.807252,-31744,2025-11-07 16:50:38.850311538
2025-11-07 16:50:35.807252,10,2025-11-07 16:50:38.858003846
2025-11-07 16:50:35.807252,2622,2025-11-07 16:50:38.865696154
2025-11-07 16:50:35.807252,11776,2025-11-07 16:50:38.873388462
2025-11-07 16:50:35.807252,10,2025-11-07 16:50:38.881080769
2025-11-07 16:50:35.807252,2656,2025-11-07 16:50:38.888773077
2025-11-07 16:50:35.807252,768,2025-11-07 16:50:38.896465385
2025-11-07 16:50:35.807252,10,2025-11-07 16:50:38.904157692
2025-11-07 16:50:35.807252,2692,2025-11-07 16:50:38.911850000
2025-11-07 16:50:35.807252,-17152,2025-11-07 16:50:38.919542308
2025-11-07 16:50:35.807252,10,2025-11-07 16:50:38.927234615
2025-11-07 16:50:35.807252,2706,2025-11-07 16:50:38.934926923
2025-11-07 16:50:35.807252,-29952,2025-11-07 16:50:38.942619231
2025-11-07 16:50:35.807252,10,2025-11-07 16:50:38.950311538
2025-11-07 16:50:35.807252,2548,2025-11-07 16:50:38.958003846
2025-11-07 16:50:35.807252,16640,2025-11-07 16:50:38.965696154
2025-11-07 16:50:35.807252,10,2025-11-07 16:50:38.973388462
2025-11-07 16:50:35.807252,2661,2025-11-07 16:50:38.981080769
2025-11-07 16:50:35.807252,-2304,2025-11-07 16:50:38.988773077
2025-11-07 16:50:35.807252,9,2025-11-07 16:50:38.996465385
2025-11-07 16:50:35.807252,2656,2025-11-07 16:50:39.004157692
2025-11-07 16:50:35.807252,9984,2025-11-07 16:50:39.011850000
2025-11-07 16:50:35.807252,10,2025-11-07 16:50:39.019542308
2025-11-07 16:50:35.807252,2587,2025-11-07 16:50:39.027234615
2025-11-07 16:50:35.807252,27648,2025-11-07 16:50:39.034926923
2025-11-07 16:50:35.807252,10,2025-11-07 16:50:39.042619231
2025-11-07 16:50:35.807252,2558,2025-11-07 16:50:39.050311538
2025-11-07 16:50:35.807252,15360,2025-11-07 16:50:39.058003846
2025-11-07 16:50:35.807252,10,2025-11-07 16:50:39.065696154
2025-11-07 16:50:35.807252,2620,2025-11-07 16:50:39.073388462
2025-11-07 16:50:35.807252,4864,2025-11-07 16:50:39.081080769
2025-11-07 16:50:35.807252,10,2025-11-07 16:50:39.088773077
2025-11-07 16:50:35.807252,2668,2025-11-07 16:50:39.096465385
2025-11-07 16:50:35.807252,4864,2025-11-07 16:50:39.104157692
2025-11-07 16:50:35.807252,10,2025-11-07 16:50:39.111850000
2025-11-07 16:50:35.807252,2618,2025-11-07 16:50:39.119542308
2025-11-07 16:50:35.807252,20736,2025-11-07 16:50:39.127234615
2025-11-07 16:50:35.807252,10,2025-11-07 16:50:39.134926923
2025-11-07 16:50:35.807252,2553,2025-11-07 16:50:39.142619231
2025-11-07 16:50:35.807252,25856,2025-11-07 16:50:39.150311538
2025-11-07 16:50:35.807252,10,2025-11-07 16:50:39.158003846
2025-11-07 16:50:35.807252,2603,2025-11-07 16:50:39.165696154
2025-11-07 16:50:35.807252,7936,2025-11-07 16:50:39.173388462
2025-11-07 16:50:35.807252,10,2025-11-07 16:50:39.181080769
2025-11-07 16:50:35.807252,2663,2025-11-07 16:50:39.188773077
2025-11-07 16:50:36.391115,2558,2025-11-07 16:50:39.196465385
2025-11-07 16:50:36.391115,18432,2025-11-07 16:50:39.204157692
2025-11-07 16:50:36.391115,10,2025-11-07 16:50:39.211850000
2025-11-07 16:50:36.391115,2622,2025-11-07 16:50:39.219542308
2025-11-07 16:50:36.391115,768,2025-11-07 16:50:39.227234615
2025-11-07 16:50:36.391115,10,2025-11-07 16:50:39.234926923
2025-11-07 16:50:36.391115,2687,2025-11-07 16:50:39.242619231
2025-11-07 16:50:36.391115,10496,2025-11-07 16:50:39.250311538
2025-11-07 16:50:36.391115,10,2025-11-07 16:50:39.258003846
2025-11-07 16:50:36.391115,2579,2025-11-07 16:50:39.265696154
2025-11-07 16:50:36.391115,12800,2025-11-07 16:50:39.273388462
2025-11-07 16:50:36.391115,10,2025-11-07 16:50:39.281080769
2025-11-07 16:50:36.391115,2548,2025-11-07 16:50:39.288773077
2025-11-07 16:50:36.391115,18944,2025-11-07 16:50:39.296465385
2025-11-07 16:50:36.391115,10,2025-11-07 16:50:39.304157692
2025-11-07 16:50:36.391115,2572,2025-11-07 16:50:39.311850000
2025-11-07 16:50:36.391115,-1792,2025-11-07 16:50:39.319542308
2025-11-07 16:50:36.391115,9,2025-11-07 16:50:39.327234615
2025-11-07 16:50:36.391115,2627,2025-11-07 16:50:39.334926923
2025-11-07 16:50:36.391115,-8448,2025-11-07 16:50:39.342619230
2025-11-07 16:50:36.391115,9,2025-11-07 16:50:39.350311538
2025-11-07 16:50:36.391115,2601,2025-11-07 16:50:39.358003846
2025-11-07 16:50:36.391115,6912,2025-11-07 16:50:39.365696154
2025-11-07 16:50:36.391115,10,2025-11-07 16:50:39.373388462
2025-11-07 16:50:36.391115,2510,2025-11-07 16:50:39.381080769
2025-11-07 16:50:36.391115,11008,2025-11-07 16:50:39.388773077
2025-11-07 16:50:36.391115,10,2025-11-07 16:50:39.396465385
2025-11-07 16:50:36.391115,2513,2025-11-07 16:50:39.404157692
2025-11-07 16:50:36.391115,-7936,2025-11-07 16:50:39.411850000
2025-11-07 16:50:36.391115,9,2025-11-07 16:50:39.419542308
2025-11-07 16:50:36.391115,2563,2025-11-07 16:50:39.427234615
2025-11-07 16:50:36.391115,-22528,2025-11-07 16:50:39.434926923
2025-11-07 16:50:36.391115,9,2025-11-07 16:50:39.442619231
2025-11-07 16:50:36.391115,2570,2025-11-07 16:50:39.450311538
2025-11-07 16:50:36.391115,-13312,2025-11-07 16:50:39.458003846
2025-11-07 16:50:36.391115,9,2025-11-07 16:50:39.465696154
2025-11-07 16:50:36.391115,2479,2025-11-07 16:50:39.473388462
2025-11-07 16:50:36.391115,0,2025-11-07 16:50:39.481080769
2025-11-07 16:50:36.391115,10,2025-11-07 16:50:39.488773077
2025-11-07 16:50:36.391115,2455,2025-11-07 16:50:39.496465385
2025-11-07 16:50:36.391115,-10240,2025-11-07 16:50:39.504157692
2025-11-07 16:50:36.391115,9,2025-11-07 16:50:39.511850000
2025-11-07 16:50:36.391115,2515,2025-11-07 16:50:39.519542308
2025-11-07 16:50:36.391115,-30976,2025-11-07 16:50:39.527234615
2025-11-07 16:50:36.391115,9,2025-11-07 16:50:39.534926923
2025-11-07 16:50:36.391115,2534,2025-11-07 16:50:39.542619231
2025-11-07 16:50:36.391115,-27392,2025-11-07 16:50:39.550311538
2025-11-07 16:50:36.391115,9,2025-11-07 16:50:39.558003846
2025-11-07 16:50:36.391115,2472,2025-11-07 16:50:39.565696154
2025-11-07 16:50:36.391115,-10240,2025-11-07 16:50:39.573388462
2025-11-07 16:50:36.391115,9,2025-11-07 16:50:39.581080769
2025-11-07 16:50:36.391115,2427,2025-11-07 16:50:39.588773077
2025-11-07 16:50:36.391115,-12032,2025-11-07 16:50:39.596465385
2025-11-07 16:50:36.391115,9,2025-11-07 16:50:39.604157692
2025-11-07 16:50:36.391115,2460,2025-11-07 16:50:39.611850000
2025-11-07 16:50:36.391115,-31744,2025-11-07 16:50:39.619542308
2025-11-07 16:50:36.391115,9,2025-11-07 16:50:39.627234615
2025-11-07 16:50:36.391115,2517,2025-11-07 16:50:39.634926923
2025-11-07 16:50:36.391115,28928,2025-11-07 16:50:39.642619231
2025-11-07 16:50:36.391115,9,2025-11-07 16:50:39.650311538
2025-11-07 16:50:36.391115,2479,2025-11-07 16:50:39.658003846
2025-11-07 16:50:36.391115,-21248,2025-11-07 16:50:39.665696154
2025-11-07 16:50:36.391115,9,2025-11-07 16:50:39.673388462
2025-11-07 16:50:36.391115,2413,2025-11-07 16:50:39.681080769
2025-11-07 16:50:36.391115,-13824,2025-11-07 16:50:39.688773077
2025-11-07 16:50:36.391115,9,2025-11-07 16:50:39.696465385
2025-11-07 16:50:36.391115,2408,2025-11-07 16:50:39.704157692
2025-11-07 16:50:36.391115,31488,2025-11-07 16:50:39.711850000
2025-11-07 16:50:36.391115,9,2025-11-07 16:50:39.719542308
2025-11-07 16:50:36.391115,2484,2025-11-07 16:50:39.727234615
2025-11-07 16:50:36.391115,17408,2025-11-07 16:50:39.734926923
2025-11-07 16:50:36.391115,9,2025-11-07 16:50:39.742619231
2025-11-07 16:50:36.391115,2451,2025-11-07 16:50:39.750311538
2025-11-07 16:50:36.391115,28416,2025-11-07 16:50:39.758003846
2025-11-07 16:50:36.391115,9,2025-11-07 16:50:39.765696154
2025-11-07 16:50:36.391115,2389,2025-11-07 16:50:39.773388462
2025-11-07 16:50:36.391115,-23808,2025-11-07 16:50:39.781080769
2025-11-07 16:50:36.391115,9,2025-11-07 16:50:39.788773077
2025-11-07 16:50:36.391115,2362,2025-11-07 16:50:39.796465385
2025-11-07 16:50:36.391115,28928,2025-11-07 16:50:39.804157692
2025-11-07 16:50:36.391115,9,2025-11-07 16:50:39.811850000
2025-11-07 16:50:36.391115,2424,2025-11-07 16:50:39.819542308
2025-11-07 16:50:36.391115,11264,2025-11-07 16:50:39.827234615
2025-11-07 16:50:36.391115,9,2025-11-07 16:50:39.834926923
2025-11-07 16:50:36.391115,2446,2025-11-07 16:50:39.842619231
2025-11-07 16:50:36.391115,16128,2025-11-07 16:50:39.850311538
2025-11-07 16:50:36.391115,9,2025-11-07 16:50:39.858003846
2025-11-07 16:50:36.391115,2374,2025-11-07 16:50:39.865696154
2025-11-07 16:50:36.391115,30208,2025-11-07 16:50:39.873388462
2025-11-07 16:50:36.391115,9,2025-11-07 16:50:39.881080769
2025-11-07 16:50:36.391115,2320,2025-11-07 16:50:39.888773077
2025-11-07 16:50:36.391115,27136,2025-11-07 16:50:39.896465385
2025-11-07 16:50:36.391115,9,2025-11-07 16:50:39.904157692
2025-11-07 16:50:36.391115,2377,2025-11-07 16:50:39.911850000
2025-11-07 16:50:36.391115,8960,2025-11-07 16:50:39.919542308
2025-11-07 16:50:36.391115,9,2025-11-07 16:50:39.927234615
2025-11-07 16:50:36.391115,2420,2025-11-07 16:50:39.934926923
2025-11-07 16:50:36.391115,3328,2025-11-07 16:50:39.942619231
2025-11-07 16:50:36.391115,9,2025-11-07 16:50:39.950311538
2025-11-07 16:50:36.391115,2362,2025-11-07 16:50:39.958003846
2025-11-07 16:50:36.391115,13824,2025-11-07 16:50:39.965696154
2025-11-07 16:50:36.391115,9,2025-11-07 16:50:39.973388462
2025-11-07 16:50:36.391115,2265,2025-11-07 16:50:39.981080769
2025-11-07 16:50:36.391115,16896,2025-11-07 16:50:39.988773077
2025-11-07 16:50:36.391115,9,2025-11-07 16:50:39.996465385
2025-11-07 16:50:36.391115,2343,2025-11-07 16:50:40.004157692
2025-11-07 16:50:36.391115,28416,2025-11-07 16:50:40.011850000
2025-11-07 16:50:36.391115,9,2025-11-07 16:50:40.019542308
2025-11-07 16:50:36.391115,2448,2025-11-07 16:50:40.027234615
2025-11-07 16:50:36.931644,2255,2025-11-07 16:50:40.034926923
2025-11-07 16:50:36.931644,1024,2025-11-07 16:50:40.042619231
2025-11-07 16:50:36.931644,9,2025-11-07 16:50:40.050311538
2025-11-07 16:50:36.931644,2298,2025-11-07 16:50:40.058003846
2025-11-07 16:50:36.931644,-13824,2025-11-07 16:50:40.065696154
2025-11-07 16:50:36.931644,8,2025-11-07 16:50:40.073388462
2025-11-07 16:50:36.931644,2315,2025-11-07 16:50:40.081080769
2025-11-07 16:50:36.931644,-20480,2025-11-07 16:50:40.088773077
2025-11-07 16:50:36.931644,8,2025-11-07 16:50:40.096465385
2025-11-07 16:50:36.931644,2289,2025-11-07 16:50:40.104157692
2025-11-07 16:50:36.931644,2816,2025-11-07 16:50:40.111850000
2025-11-07 16:50:36.931644,9,2025-11-07 16:50:40.119542308
2025-11-07 16:50:36.931644,2236,2025-11-07 16:50:40.127234615
2025-11-07 16:50:36.931644,-2816,2025-11-07 16:50:40.134926923
2025-11-07 16:50:36.931644,8,2025-11-07 16:50:40.142619231
2025-11-07 16:50:36.931644,2207,2025-11-07 16:50:40.150311538
2025-11-07 16:50:36.931644,-17920,2025-11-07 16:50:40.158003846
2025-11-07 16:50:36.931644,8,2025-11-07 16:50:40.165696154
2025-11-07 16:50:36.931644,2291,2025-11-07 16:50:40.173388462
2025-11-07 16:50:36.931644,-32000,2025-11-07 16:50:40.181080769
2025-11-07 16:50:36.931644,8,2025-11-07 16:50:40.188773077
2025-11-07 16:50:36.931644,2262,2025-11-07 16:50:40.196465385
2025-11-07 16:50:36.931644,-17920,2025-11-07 16:50:40.204157692
2025-11-07 16:50:36.931644,8,2025-11-07 16:50:40.211850000
2025-11-07 16:50:36.931644,2186,2025-11-07 16:50:40.219542308
2025-11-07 16:50:36.931644,-6400,2025-11-07 16:50:40.227234615
2025-11-07 16:50:36.931644,8,2025-11-07 16:50:40.234926923
2025-11-07 16:50:36.931644,2184,2025-11-07 16:50:40.242619231
2025-11-07 16:50:36.931644,-19200,2025-11-07 16:50:40.250311538
2025-11-07 16:50:36.931644,8,2025-11-07 16:50:40.258003846
2025-11-07 16:50:36.931644,2241,2025-11-07 16:50:40.265696154
2025-11-07 16:50:36.931644,27392,2025-11-07 16:50:40.273388462
2025-11-07 16:50:36.931644,8,2025-11-07 16:50:40.281080769
2025-11-07 16:50:36.931644,2250,2025-11-07 16:50:40.288773077
2025-11-07 16:50:36.931644,-32768,2025-11-07 16:50:40.296465385
2025-11-07 16:50:36.931644,8,2025-11-07 16:50:40.304157692
2025-11-07 16:50:36.931644,2176,2025-11-07 16:50:40.311850000
2025-11-07 16:50:36.931644,-14848,2025-11-07 16:50:40.319542308
2025-11-07 16:50:36.931644,8,2025-11-07 16:50:40.327234615
2025-11-07 16:50:36.931644,2148,2025-11-07 16:50:40.334926923
2025-11-07 16:50:36.931644,-19712,2025-11-07 16:50:40.342619230
2025-11-07 16:50:36.931644,8,2025-11-07 16:50:40.350311538
2025-11-07 16:50:36.931644,2196,2025-11-07 16:50:40.358003846
2025-11-07 16:50:36.931644,24832,2025-11-07 16:50:40.365696154
2025-11-07 16:50:36.931644,8,2025-11-07 16:50:40.373388462
2025-11-07 16:50:36.931644,2238,2025-11-07 16:50:40.381080769
2025-11-07 16:50:36.931644,23808,2025-11-07 16:50:40.388773077
2025-11-07 16:50:36.931644,8,2025-11-07 16:50:40.396465385
2025-11-07 16:50:36.931644,2169,2025-11-07 16:50:40.404157692
2025-11-07 16:50:36.931644,-29696,2025-11-07 16:50:40.411850000
2025-11-07 16:50:36.931644,8,2025-11-07 16:50:40.419542308
2025-11-07 16:50:36.931644,2105,2025-11-07 16:50:40.427234615
2025-11-07 16:50:36.931644,-26624,2025-11-07 16:50:40.434926923
2025-11-07 16:50:36.931644,8,2025-11-07 16:50:40.442619231
2025-11-07 16:50:36.931644,2122,2025-11-07 16:50:40.450311538
2025-11-07 16:50:36.931644,13312,2025-11-07 16:50:40.458003846
2025-11-07 16:50:36.931644,8,2025-11-07 16:50:40.465696154
2025-11-07 16:50:36.931644,2165,2025-11-07 16:50:40.473388462
2025-11-07 16:50:36.931644,2304,2025-11-07 16:50:40.481080769
2025-11-07 16:50:36.931644,8,2025-11-07 16:50:40.488773077
2025-11-07 16:50:36.931644,2119,2025-11-07 16:50:40.496465385
2025-11-07 16:50:36.931644,11008,2025-11-07 16:50:40.504157692
2025-11-07 16:50:36.931644,8,2025-11-07 16:50:40.511850000
2025-11-07 16:50:36.931644,2038,2025-11-07 16:50:40.519542308
2025-11-07 16:50:36.931644,18944,2025-11-07 16:50:40.527234615
2025-11-07 16:50:36.931644,8,2025-11-07 16:50:40.534926923
2025-11-07 16:50:36.931644,2010,2025-11-07 16:50:40.542619231
2025-11-07 16:50:36.931644,-768,2025-11-07 16:50:40.550311538
2025-11-07 16:50:36.931644,7,2025-11-07 16:50:40.558003846
2025-11-07 16:50:36.931644,2067,2025-11-07 16:50:40.565696154
2025-11-07 16:50:36.931644,-22016,2025-11-07 16:50:40.573388462
2025-11-07 16:50:36.931644,7,2025-11-07 16:50:40.581080769
2025-11-07 16:50:36.931644,2057,2025-11-07 16:50:40.588773077
2025-11-07 16:50:36.931644,-15360,2025-11-07 16:50:40.596465385
2025-11-07 16:50:36.931644,7,2025-11-07 16:50:40.604157692
2025-11-07 16:50:36.931644,1967,2025-11-07 16:50:40.611850000
2025-11-07 16:50:36.931644,-2560,2025-11-07 16:50:40.619542308
2025-11-07 16:50:36.931644,7,2025-11-07 16:50:40.627234615
2025-11-07 16:50:36.931644,1938,2025-11-07 16:50:40.634926923
2025-11-07 16:50:36.931644,-11008,2025-11-07 16:50:40.642619231
2025-11-07 16:50:36.931644,7,2025-11-07 16:50:40.650311538
2025-11-07 16:50:36.931644,1983,2025-11-07 16:50:40.658003846
2025-11-07 16:50:36.931644,-31744,2025-11-07 16:50:40.665696154
2025-11-07 16:50:36.931644,7,2025-11-07 16:50:40.673388462
2025-11-07 16:50:36.931644,2012,2025-11-07 16:50:40.681080769
2025-11-07 16:50:36.931644,32000,2025-11-07 16:50:40.688773077
2025-11-07 16:50:36.931644,7,2025-11-07 16:50:40.696465385
2025-11-07 16:50:36.931644,1950,2025-11-07 16:50:40.704157692
2025-11-07 16:50:36.931644,-18432,2025-11-07 16:50:40.711850000
2025-11-07 16:50:36.931644,7,2025-11-07 16:50:40.719542308
2025-11-07 16:50:36.931644,1883,2025-11-07 16:50:40.727234615
2025-11-07 16:50:36.931644,-20224,2025-11-07 16:50:40.734926923
2025-11-07 16:50:36.931644,7,2025-11-07 16:50:40.742619231
2025-11-07 16:50:36.931644,1905,2025-11-07 16:50:40.750311538
2025-11-07 16:50:36.931644,24576,2025-11-07 16:50:40.758003846
2025-11-07 16:50:36.931644,7,2025-11-07 16:50:40.765696154
2025-11-07 16:50:36.931644,1952,2025-11-07 16:50:40.773388462
2025-11-07 16:50:36.931644,13568,2025-11-07 16:50:40.781080769
2025-11-07 16:50:36.931644,7,2025-11-07 16:50:40.788773077
2025-11-07 16:50:36.931644,1917,2025-11-07 16:50:40.796465385
2025-11-07 16:50:36.931644,25856,2025-11-07 16:50:40.804157692
2025-11-07 16:50:36.931644,7,2025-11-07 16:50:40.811850000
2025-11-07 16:50:36.931644,1826,2025-11-07 16:50:40.819542308
2025-11-07 16:50:36.931644,-30464,2025-11-07 16:50:40.827234615
2025-11-07 16:50:36.931644,7,2025-11-07 16:50:40.834926923
2025-11-07 16:50:36.931644,1836,2025-11-07 16:50:40.842619231
2025-11-07 16:50:36.931644,14080,2025-11-07 16:50:40.850311538
2025-11-07 16:50:36.931644,7,2025-11-07 16:50:40.858003846
2025-11-07 16:50:36.931644,1878,2025-11-07 16:50:40.865696154
2025-11-07 16:50:37.513535,1785,2025-11-07 16:50:40.873388462
2025-11-07 16:50:37.513535,20224,2025-11-07 16:50:40.881080769
2025-11-07 16:50:37.513535,7,2025-11-07 16:50:40.888773077
2025-11-07 16:50:37.513535,1812,2025-11-07 16:50:40.896465385
2025-11-07 16:50:37.513535,-1024,2025-11-07 16:50:40.904157692
2025-11-07 16:50:37.513535,6,2025-11-07 16:50:40.911850000
2025-11-07 16:50:37.513535,1869,2025-11-07 16:50:40.919542308
2025-11-07 16:50:37.513535,-2816,2025-11-07 16:50:40.927234615
2025-11-07 16:50:37.513535,6,2025-11-07 16:50:40.934926923
2025-11-07 16:50:37.513535,1819,2025-11-07 16:50:40.942619231
2025-11-07 16:50:37.513535,-3584,2025-11-07 16:50:40.950311538
2025-11-07 16:50:37.513535,6,2025-11-07 16:50:40.958003846
2025-11-07 16:50:37.513535,1735,2025-11-07 16:50:40.965696154
2025-11-07 16:50:37.513535,11776,2025-11-07 16:50:40.973388462
2025-11-07 16:50:37.513535,7,2025-11-07 16:50:40.981080769
2025-11-07 16:50:37.513535,1735,2025-11-07 16:50:40.988773077
2025-11-07 16:50:37.513535,-7168,2025-11-07 16:50:40.996465385
2025-11-07 16:50:37.513535,6,2025-11-07 16:50:41.004157692
2025-11-07 16:50:37.513535,1802,2025-11-07 16:50:41.011850000
2025-11-07 16:50:37.513535,-22528,2025-11-07 16:50:41.019542308
2025-11-07 16:50:37.513535,6,2025-11-07 16:50:41.027234615
2025-11-07 16:50:37.513535,1800,2025-11-07 16:50:41.034926923
2025-11-07 16:50:37.513535,-12032,2025-11-07 16:50:41.042619231
2025-11-07 16:50:37.513535,6,2025-11-07 16:50:41.050311538
2025-11-07 16:50:37.513535,1719,2025-11-07 16:50:41.058003846
2025-11-07 16:50:37.513535,256,2025-11-07 16:50:41.065696154
2025-11-07 16:50:37.513535,7,2025-11-07 16:50:41.073388462
2025-11-07 16:50:37.513535,1685,2025-11-07 16:50:41.081080769
2025-11-07 16:50:37.513535,-13824,2025-11-07 16:50:41.088773077
2025-11-07 16:50:37.513535,6,2025-11-07 16:50:41.096465385
2025-11-07 16:50:37.513535,1721,2025-11-07 16:50:41.104157692
2025-11-07 16:50:37.513535,32000,2025-11-07 16:50:41.111850000
2025-11-07 16:50:37.513535,6,2025-11-07 16:50:41.119542308
2025-11-07 16:50:37.513535,1812,2025-11-07 16:50:41.127234615
2025-11-07 16:50:37.513535,-512,2025-11-07 16:50:41.134926923
2025-11-07 16:50:37.513535,6,2025-11-07 16:50:41.142619231
2025-11-07 16:50:37.513535,1785,2025-11-07 16:50:41.150311538
2025-11-07 16:50:37.513535,-14592,2025-11-07 16:50:41.158003846
2025-11-07 16:50:37.513535,6,2025-11-07 16:50:41.165696154
2025-11-07 16:50:37.513535,1619,2025-11-07 16:50:41.173388462
2025-11-07 16:50:37.513535,-13824,2025-11-07 16:50:41.181080769
2025-11-07 16:50:37.513535,6,2025-11-07 16:50:41.188773077
2025-11-07 16:50:37.513535,1690,2025-11-07 16:50:41.196465385
2025-11-07 16:50:37.513535,28416,2025-11-07 16:50:41.204157692
2025-11-07 16:50:37.513535,6,2025-11-07 16:50:41.211850000
2025-11-07 16:50:37.513535,1719,2025-11-07 16:50:41.219542308
2025-11-07 16:50:37.513535,23552,2025-11-07 16:50:41.227234615
2025-11-07 16:50:37.513535,6,2025-11-07 16:50:41.234926923
2025-11-07 16:50:37.513535,1704,2025-11-07 16:50:41.242619231
2025-11-07 16:50:37.513535,-24320,2025-11-07 16:50:41.250311538
2025-11-07 16:50:37.513535,6,2025-11-07 16:50:41.258003846
2025-11-07 16:50:37.513535,1614,2025-11-07 16:50:41.265696154
2025-11-07 16:50:37.513535,-21248,2025-11-07 16:50:41.273388462
2025-11-07 16:50:37.513535,6,2025-11-07 16:50:41.281080769
2025-11-07 16:50:37.513535,1630,2025-11-07 16:50:41.288773077
2025-11-07 16:50:37.513535,27904,2025-11-07 16:50:41.296465385
2025-11-07 16:50:37.513535,6,2025-11-07 16:50:41.304157692
2025-11-07 16:50:37.513535,1688,2025-11-07 16:50:41.311850000
2025-11-07 16:50:37.513535,15104,2025-11-07 16:50:41.319542308
2025-11-07 16:50:37.513535,6,2025-11-07 16:50:41.327234615
2025-11-07 16:50:37.513535,1685,2025-11-07 16:50:41.334926923
2025-11-07 16:50:37.513535,23552,2025-11-07 16:50:41.342619230
2025-11-07 16:50:37.513535,6,2025-11-07 16:50:41.350311538
2025-11-07 16:50:37.513535,1590,2025-11-07 16:50:41.358003846
2025-11-07 16:50:37.513535,-29184,2025-11-07 16:50:41.365696154
2025-11-07 16:50:37.513535,6,2025-11-07 16:50:41.373388462
2025-11-07 16:50:37.513535,1578,2025-11-07 16:50:41.381080769
2025-11-07 16:50:37.513535,24832,2025-11-07 16:50:41.388773077
2025-11-07 16:50:37.513535,6,2025-11-07 16:50:41.396465385
2025-11-07 16:50:37.513535,1633,2025-11-07 16:50:41.404157692
2025-11-07 16:50:37.513535,4608,2025-11-07 16:50:41.411850000
2025-11-07 16:50:37.513535,6,2025-11-07 16:50:41.419542308
2025-11-07 16:50:37.513535,1650,2025-11-07 16:50:41.427234615
2025-11-07 16:50:37.513535,9472,2025-11-07 16:50:41.434926923
2025-11-07 16:50:37.513535,6,2025-11-07 16:50:41.442619231
2025-11-07 16:50:37.513535,1590,2025-11-07 16:50:41.450311538
2025-11-07 16:50:37.513535,27136,2025-11-07 16:50:41.458003846
2025-11-07 16:50:37.513535,6,2025-11-07 16:50:41.465696154
2025-11-07 16:50:37.513535,1542,2025-11-07 16:50:41.473388462
2025-11-07 16:50:37.513535,23040,2025-11-07 16:50:41.481080769
2025-11-07 16:50:37.513535,6,2025-11-07 16:50:41.488773077
2025-11-07 16:50:37.513535,1585,2025-11-07 16:50:41.496465385
2025-11-07 16:50:37.513535,4096,2025-11-07 16:50:41.504157692
2025-11-07 16:50:37.513535,6,2025-11-07 16:50:41.511850000
2025-11-07 16:50:37.513535,1635,2025-11-07 16:50:41.519542308
2025-11-07 16:50:37.513535,1024,2025-11-07 16:50:41.527234615
2025-11-07 16:50:37.513535,6,2025-11-07 16:50:41.534926923
2025-11-07 16:50:37.513535,1592,2025-11-07 16:50:41.542619231
2025-11-07 16:50:37.513535,16128,2025-11-07 16:50:41.550311538
2025-11-07 16:50:37.513535,6,2025-11-07 16:50:41.558003846
2025-11-07 16:50:37.513535,1530,2025-11-07 16:50:41.565696154
2025-11-07 16:50:37.513535,24832,2025-11-07 16:50:41.573388462
2025-11-07 16:50:37.513535,6,2025-11-07 16:50:41.581080769
2025-11-07 16:50:37.513535,1545,2025-11-07 16:50:41.588773077
2025-11-07 16:50:37.513535,2816,2025-11-07 16:50:41.596465385
2025-11-07 16:50:37.513535,6,2025-11-07 16:50:41.604157692
2025-11-07 16:50:37.513535,1604,2025-11-07 16:50:41.611850000
2025-11-07 16:50:37.513535,-8192,2025-11-07 16:50:41.619542308
2025-11-07 16:50:37.513535,5,2025-11-07 16:50:41.627234615
2025-11-07 16:50:37.513535,1588,2025-11-07 16:50:41.634926923
2025-11-07 16:50:37.513535,4096,2025-11-07 16:50:41.642619231
2025-11-07 16:50:37.513535,6,2025-11-07 16:50:41.650311538
2025-11-07 16:50:37.513535,1516,2025-11-07 16:50:41.658003846
2025-11-07 16:50:37.513535,16896,2025-11-07 16:50:41.665696154
2025-11-07 16:50:37.513535,6,2025-11-07 16:50:41.673388462
2025-11-07 16:50:37.513535,1499,2025-11-07 16:50:41.681080769
2025-11-07 16:50:37.513535,3328,2025-11-07 16:50:41.688773077
2025-11-07 16:50:37.513535,6,2025-11-07 16:50:41.696465385
2025-11-07 16:50:37.513535,1564,2025-11-07 16:50:41.704157692
2025-11-07 16:50:38.146639,1487,2025-11-07 16:50:41.711850000
2025-11-07 16:50:38.146639,13312,2025-11-07 16:50:41.719542308
2025-11-07 16:50:38.146639,6,2025-11-07 16:50:41.727234615
2025-11-07 16:50:38.146639,1518,2025-11-07 16:50:41.734926923
2025-11-07 16:50:38.146639,-3840,2025-11-07 16:50:41.742619231
2025-11-07 16:50:38.146639,5,2025-11-07 16:50:41.750311538
2025-11-07 16:50:38.146639,1573,2025-11-07 16:50:41.758003846
2025-11-07 16:50:38.146639,-15616,2025-11-07 16:50:41.765696154
2025-11-07 16:50:38.146639,5,2025-11-07 16:50:41.773388462
2025-11-07 16:50:38.146639,1561,2025-11-07 16:50:41.781080769
2025-11-07 16:50:38.146639,1536,2025-11-07 16:50:41.788773077
2025-11-07 16:50:38.146639,6,2025-11-07 16:50:41.796465385
2025-11-07 16:50:38.146639,1518,2025-11-07 16:50:41.804157692
2025-11-07 16:50:38.146639,12032,2025-11-07 16:50:41.811850000
2025-11-07 16:50:38.146639,6,2025-11-07 16:50:41.819542308
2025-11-07 16:50:38.146639,1456,2025-11-07 16:50:41.827234615
2025-11-07 16:50:38.146639,-1536,2025-11-07 16:50:41.834926923
2025-11-07 16:50:38.146639,5,2025-11-07 16:50:41.842619231
2025-11-07 16:50:38.146639,1561,2025-11-07 16:50:41.850311538
2025-11-07 16:50:38.146639,-17920,2025-11-07 16:50:41.858003846
2025-11-07 16:50:38.146639,5,2025-11-07 16:50:41.865696154
2025-11-07 16:50:38.146639,1561,2025-11-07 16:50:41.873388462
2025-11-07 16:50:38.146639,-11776,2025-11-07 16:50:41.881080769
2025-11-07 16:50:38.146639,5,2025-11-07 16:50:41.888773077
2025-11-07 16:50:38.146639,1490,2025-11-07 16:50:41.896465385
2025-11-07 16:50:38.146639,4608,2025-11-07 16:50:41.904157692
2025-11-07 16:50:38.146639,6,2025-11-07 16:50:41.911850000
2025-11-07 16:50:38.146639,1456,2025-11-07 16:50:41.919542308
2025-11-07 16:50:38.146639,-768,2025-11-07 16:50:41.927234615
2025-11-07 16:50:38.146639,5,2025-11-07 16:50:41.934926923
2025-11-07 16:50:38.146639,1509,2025-11-07 16:50:41.942619231
2025-11-07 16:50:38.146639,-19712,2025-11-07 16:50:41.950311538
2025-11-07 16:50:38.146639,5,2025-11-07 16:50:41.958003846
2025-11-07 16:50:38.146639,1533,2025-11-07 16:50:41.965696154
2025-11-07 16:50:38.146639,-24064,2025-11-07 16:50:41.973388462
2025-11-07 16:50:38.146639,5,2025-11-07 16:50:41.981080769
2025-11-07 16:50:38.146639,1497,2025-11-07 16:50:41.988773077
2025-11-07 16:50:38.146639,-5632,2025-11-07 16:50:41.996465385
2025-11-07 16:50:38.146639,5,2025-11-07 16:50:42.004157692
2025-11-07 16:50:38.146639,1425,2025-11-07 16:50:42.011850000
2025-11-07 16:50:38.146639,-4608,2025-11-07 16:50:42.019542308
2025-11-07 16:50:38.146639,5,2025-11-07 16:50:42.027234615
2025-11-07 16:50:38.146639,1454,2025-11-07 16:50:42.034926923
2025-11-07 16:50:38.146639,-22272,2025-11-07 16:50:42.042619231
2025-11-07 16:50:38.146639,5,2025-11-07 16:50:42.050311538
2025-11-07 16:50:38.146639,1516,2025-11-07 16:50:42.058003846
2025-11-07 16:50:38.146639,-28928,2025-11-07 16:50:42.065696154
2025-11-07 16:50:38.146639,5,2025-11-07 16:50:42.073388462
2025-11-07 16:50:38.146639,1495,2025-11-07 16:50:42.081080769
2025-11-07 16:50:38.146639,-18432,2025-11-07 16:50:42.088773077
2025-11-07 16:50:38.146639,5,2025-11-07 16:50:42.096465385
2025-11-07 16:50:38.146639,1416,2025-11-07 16:50:42.104157692
2025-11-07 16:50:38.146639,-6400,2025-11-07 16:50:42.111850000
2025-11-07 16:50:38.146639,5,2025-11-07 16:50:42.119542308
2025-11-07 16:50:38.146639,1416,2025-11-07 16:50:42.127234615
2025-11-07 16:50:38.146639,-19200,2025-11-07 16:50:42.134926923
2025-11-07 16:50:38.146639,5,2025-11-07 16:50:42.142619231
2025-11-07 16:50:38.146639,1485,2025-11-07 16:50:42.150311538
2025-11-07 16:50:38.146639,29952,2025-11-07 16:50:42.158003846
2025-11-07 16:50:38.146639,5,2025-11-07 16:50:42.165696154
2025-11-07 16:50:38.146639,1499,2025-11-07 16:50:42.173388462
2025-11-07 16:50:38.146639,-25344,2025-11-07 16:50:42.181080769
2025-11-07 16:50:38.146639,5,2025-11-07 16:50:42.188773077
2025-11-07 16:50:38.146639,1430,2025-11-07 16:50:42.196465385
2025-11-07 16:50:38.146639,-9472,2025-11-07 16:50:42.204157692
2025-11-07 16:50:38.146639,5,2025-11-07 16:50:42.211850000
2025-11-07 16:50:38.146639,1385,2025-11-07 16:50:42.219542308
2025-11-07 16:50:38.146639,-23552,2025-11-07 16:50:42.227234615
2025-11-07 16:50:38.146639,5,2025-11-07 16:50:42.234926923
2025-11-07 16:50:38.146639,1435,2025-11-07 16:50:42.242619231
2025-11-07 16:50:38.146639,-26368,2025-11-07 16:50:42.250311538
2025-11-07 16:50:38.146639,5,2025-11-07 16:50:42.258003846
2025-11-07 16:50:38.146639,1599,2025-11-07 16:50:42.265696154
2025-11-07 16:50:38.146639,-5632,2025-11-07 16:50:42.273388462
2025-11-07 16:50:38.146639,5,2025-11-07 16:50:42.281080769
2025-11-07 16:50:38.146639,1459,2025-11-07 16:50:42.288773077
2025-11-07 16:50:38.146639,-24576,2025-11-07 16:50:42.296465385
2025-11-07 16:50:38.146639,5,2025-11-07 16:50:42.304157692
2025-11-07 16:50:38.146639,1390,2025-11-07 16:50:42.311850000
2025-11-07 16:50:38.146639,-12544,2025-11-07 16:50:42.319542308
2025-11-07 16:50:38.146639,5,2025-11-07 16:50:42.327234615
2025-11-07 16:50:38.146639,1404,2025-11-07 16:50:42.334926923
2025-11-07 16:50:38.146639,32256,2025-11-07 16:50:42.342619230
2025-11-07 16:50:38.146639,5,2025-11-07 16:50:42.350311538
2025-11-07 16:50:38.146639,1487,2025-11-07 16:50:42.358003846
2025-11-07 16:50:38.146639,26112,2025-11-07 16:50:42.365696154
2025-11-07 16:50:38.146639,5,2025-11-07 16:50:42.373388462
2025-11-07 16:50:38.146639,1464,2025-11-07 16:50:42.381080769
2025-11-07 16:50:38.146639,-22784,2025-11-07 16:50:42.388773077
2025-11-07 16:50:38.146639,5,2025-11-07 16:50:42.396465385
2025-11-07 16:50:38.146639,1392,2025-11-07 16:50:42.404157692
2025-11-07 16:50:38.146639,-10496,2025-11-07 16:50:42.411850000
2025-11-07 16:50:38.146639,5,2025-11-07 16:50:42.419542308
2025-11-07 16:50:38.146639,1402,2025-11-07 16:50:42.427234615
2025-11-07 16:50:38.146639,-26368,2025-11-07 16:50:42.434926923
2025-11-07 16:50:38.146639,5,2025-11-07 16:50:42.442619231
2025-11-07 16:50:38.146639,1478,2025-11-07 16:50:42.450311538
2025-11-07 16:50:38.146639,29184,2025-11-07 16:50:42.458003846
2025-11-07 16:50:38.146639,5,2025-11-07 16:50:42.465696154
2025-11-07 16:50:38.146639,1490,2025-11-07 16:50:42.473388462
2025-11-07 16:50:38.146639,-25856,2025-11-07 16:50:42.481080769
2025-11-07 16:50:38.146639,5,2025-11-07 16:50:42.488773077
2025-11-07 16:50:38.146639,1418,2025-11-07 16:50:42.496465385
2025-11-07 16:50:38.146639,-9984,2025-11-07 16:50:42.504157692
2025-11-07 16:50:38.146639,5,2025-11-07 16:50:42.511850000
2025-11-07 16:50:38.146639,1406,2025-11-07 16:50:42.519542308
2025-11-07 16:50:38.146639,-14336,2025-11-07 16:50:42.527234615
2025-11-07 16:50:38.146639,5,2025-11-07 16:50:42.534926923
2025-11-07 16:50:38.146639,1471,2025-11-07 16:50:42.542619231
2025-11-07 16:50:38.640706,1413,2025-11-07 16:50:42.550311538
2025-11-07 16:50:38.640706,-6400,2025-11-07 16:50:42.558003846
2025-11-07 16:50:38.640706,5,2025-11-07 16:50:42.565696154
2025-11-07 16:50:38.640706,1423,2025-11-07 16:50:42.573388462
2025-11-07 16:50:38.640706,-20992,2025-11-07 16:50:42.581080769
2025-11-07 16:50:38.640706,5,2025-11-07 16:50:42.588773077
2025-11-07 16:50:38.640706,1492,2025-11-07 16:50:42.596465385
2025-11-07 16:50:38.640706,31232,2025-11-07 16:50:42.604157692
2025-11-07 16:50:38.640706,5,2025-11-07 16:50:42.611850000
2025-11-07 16:50:38.640706,1495,2025-11-07 16:50:42.619542308
2025-11-07 16:50:38.640706,-24576,2025-11-07 16:50:42.627234615
2025-11-07 16:50:38.640706,5,2025-11-07 16:50:42.634926923
2025-11-07 16:50:38.640706,1413,2025-11-07 16:50:42.642619231
2025-11-07 16:50:38.640706,-11264,2025-11-07 16:50:42.650311538
2025-11-07 16:50:38.640706,5,2025-11-07 16:50:42.658003846
2025-11-07 16:50:38.640706,1399,2025-11-07 16:50:42.665696154
2025-11-07 16:50:38.640706,-17920,2025-11-07 16:50:42.673388462
2025-11-07 16:50:38.640706,5,2025-11-07 16:50:42.681080769
2025-11-07 16:50:38.640706,1456,2025-11-07 16:50:42.688773077
2025-11-07 16:50:38.640706,28160,2025-11-07 16:50:42.696465385
2025-11-07 16:50:38.640706,5,2025-11-07 16:50:42.704157692
2025-11-07 16:50:38.640706,1480,2025-11-07 16:50:42.711850000
2025-11-07 16:50:38.640706,26880,2025-11-07 16:50:42.719542308
2025-11-07 16:50:38.640706,5,2025-11-07 16:50:42.727234615
2025-11-07 16:50:38.640706,1421,2025-11-07 16:50:42.734926923
2025-11-07 16:50:38.640706,-13056,2025-11-07 16:50:42.742619231
2025-11-07 16:50:38.640706,5,2025-11-07 16:50:42.750311538
2025-11-07 16:50:38.640706,1363,2025-11-07 16:50:42.758003846
2025-11-07 16:50:38.640706,-29440,2025-11-07 16:50:42.765696154
2025-11-07 16:50:38.640706,5,2025-11-07 16:50:42.773388462
2025-11-07 16:50:38.640706,1394,2025-11-07 16:50:42.781080769
2025-11-07 16:50:38.640706,27392,2025-11-07 16:50:42.788773077
2025-11-07 16:50:38.640706,5,2025-11-07 16:50:42.796465385
2025-11-07 16:50:38.640706,1447,2025-11-07 16:50:42.804157692
2025-11-07 16:50:38.640706,16384,2025-11-07 16:50:42.811850000
2025-11-07 16:50:38.640706,5,2025-11-07 16:50:42.819542308
2025-11-07 16:50:38.640706,1411,2025-11-07 16:50:42.827234615
2025-11-07 16:50:38.640706,31232,2025-11-07 16:50:42.834926923
2025-11-07 16:50:38.640706,5,2025-11-07 16:50:42.842619231
2025-11-07 16:50:38.640706,1332,2025-11-07 16:50:42.850311538
2025-11-07 16:50:38.640706,-25856,2025-11-07 16:50:42.858003846
2025-11-07 16:50:38.640706,5,2025-11-07 16:50:42.865696154
2025-11-07 16:50:38.640706,1359,2025-11-07 16:50:42.873388462
2025-11-07 16:50:38.640706,25088,2025-11-07 16:50:42.881080769
2025-11-07 16:50:38.640706,5,2025-11-07 16:50:42.888773077
2025-11-07 16:50:38.640706,1421,2025-11-07 16:50:42.896465385
2025-11-07 16:50:38.640706,10240,2025-11-07 16:50:42.904157692
2025-11-07 16:50:38.640706,5,2025-11-07 16:50:42.911850000
2025-11-07 16:50:38.640706,1409,2025-11-07 16:50:42.919542308
2025-11-07 16:50:38.640706,22528,2025-11-07 16:50:42.927234615
2025-11-07 16:50:38.640706,5,2025-11-07 16:50:42.934926923
2025-11-07 16:50:38.640706,1344,2025-11-07 16:50:42.942619231
2025-11-07 16:50:38.640706,-28928,2025-11-07 16:50:42.950311538
2025-11-07 16:50:38.640706,5,2025-11-07 16:50:42.958003846
2025-11-07 16:50:38.640706,1320,2025-11-07 16:50:42.965696154
2025-11-07 16:50:38.640706,25088,2025-11-07 16:50:42.973388462
2025-11-07 16:50:38.640706,5,2025-11-07 16:50:42.981080769
2025-11-07 16:50:38.640706,1378,2025-11-07 16:50:42.988773077
2025-11-07 16:50:38.640706,6144,2025-11-07 16:50:42.996465385
2025-11-07 16:50:38.640706,5,2025-11-07 16:50:43.004157692
2025-11-07 16:50:38.640706,1402,2025-11-07 16:50:43.011850000
2025-11-07 16:50:38.640706,10240,2025-11-07 16:50:43.019542308
2025-11-07 16:50:38.640706,5,2025-11-07 16:50:43.027234615
2025-11-07 16:50:38.640706,1335,2025-11-07 16:50:43.034926923
2025-11-07 16:50:38.640706,27392,2025-11-07 16:50:43.042619231
2025-11-07 16:50:38.640706,5,2025-11-07 16:50:43.050311538
2025-11-07 16:50:38.640706,1285,2025-11-07 16:50:43.058003846
2025-11-07 16:50:38.640706,22016,2025-11-07 16:50:43.065696154
2025-11-07 16:50:38.640706,5,2025-11-07 16:50:43.073388462
2025-11-07 16:50:38.640706,1332,2025-11-07 16:50:43.081080769
2025-11-07 16:50:38.640706,4864,2025-11-07 16:50:43.088773077
2025-11-07 16:50:38.640706,5,2025-11-07 16:50:43.096465385
2025-11-07 16:50:38.640706,1378,2025-11-07 16:50:43.104157692
2025-11-07 16:50:38.640706,0,2025-11-07 16:50:43.111850000
2025-11-07 16:50:38.640706,5,2025-11-07 16:50:43.119542308
2025-11-07 16:50:38.640706,1337,2025-11-07 16:50:43.127234615
2025-11-07 16:50:38.640706,15872,2025-11-07 16:50:43.134926923
2025-11-07 16:50:38.640706,5,2025-11-07 16:50:43.142619231
2025-11-07 16:50:38.640706,1268,2025-11-07 16:50:43.150311538
2025-11-07 16:50:38.640706,21248,2025-11-07 16:50:43.158003846
2025-11-07 16:50:38.640706,5,2025-11-07 16:50:43.165696154
2025-11-07 16:50:38.640706,1285,2025-11-07 16:50:43.173388462
2025-11-07 16:50:38.640706,3072,2025-11-07 16:50:43.181080769
2025-11-07 16:50:38.640706,5,2025-11-07 16:50:43.188773077
2025-11-07 16:50:38.640706,1342,2025-11-07 16:50:43.196465385
2025-11-07 16:50:38.640706,-9216,2025-11-07 16:50:43.204157692
2025-11-07 16:50:38.640706,4,2025-11-07 16:50:43.211850000
2025-11-07 16:50:38.640706,1330,2025-11-07 16:50:43.219542308
2025-11-07 16:50:38.640706,1792,2025-11-07 16:50:43.227234615
2025-11-07 16:50:38.640706,5,2025-11-07 16:50:43.234926923
2025-11-07 16:50:38.640706,1251,2025-11-07 16:50:43.242619231
2025-11-07 16:50:38.640706,15360,2025-11-07 16:50:43.250311538
2025-11-07 16:50:38.640706,5,2025-11-07 16:50:43.258003846
2025-11-07 16:50:38.640706,1242,2025-11-07 16:50:43.265696154
2025-11-07 16:50:38.640706,4352,2025-11-07 16:50:43.273388462
2025-11-07 16:50:38.640706,5,2025-11-07 16:50:43.281080769
2025-11-07 16:50:38.640706,1306,2025-11-07 16:50:43.288773077
2025-11-07 16:50:38.640706,-14592,2025-11-07 16:50:43.296465385
2025-11-07 16:50:38.640706,4,2025-11-07 16:50:43.304157692
2025-11-07 16:50:38.640706,1323,2025-11-07 16:50:43.311850000
2025-11-07 16:50:38.640706,-6144,2025-11-07 16:50:43.319542308
2025-11-07 16:50:38.640706,4,2025-11-07 16:50:43.327234615
2025-11-07 16:50:38.640706,1261,2025-11-07 16:50:43.334926923
2025-11-07 16:50:38.640706,9216,2025-11-07 16:50:43.342619230
2025-11-07 16:50:38.640706,5,2025-11-07 16:50:43.350311538
2025-11-07 16:50:38.640706,1220,2025-11-07 16:50:43.358003846
2025-11-07 16:50:38.640706,4864,2025-11-07 16:50:43.365696154
2025-11-07 16:50:38.640706,5,2025-11-07 16:50:43.373388462
2025-11-07 16:50:38.640706,1266,2025-11-07 16:50:43.381080769
2025-11-07 16:50:39.181135,1225,2025-11-07 16:50:43.388773077
2025-11-07 16:50:39.181135,9216,2025-11-07 16:50:43.396465385
2025-11-07 16:50:39.181135,5,2025-11-07 16:50:43.404157692
2025-11-07 16:50:39.181135,1227,2025-11-07 16:50:43.411850000
2025-11-07 16:50:39.181135,-1280,2025-11-07 16:50:43.419542308
2025-11-07 16:50:39.181135,4,2025-11-07 16:50:43.427234615
2025-11-07 16:50:39.181135,1285,2025-11-07 16:50:43.434926923
2025-11-07 16:50:39.181135,-16384,2025-11-07 16:50:43.442619231
2025-11-07 16:50:39.181135,4,2025-11-07 16:50:43.450311538
2025-11-07 16:50:39.181135,1313,2025-11-07 16:50:43.458003846
2025-11-07 16:50:39.181135,-15872,2025-11-07 16:50:43.465696154
2025-11-07 16:50:39.181135,4,2025-11-07 16:50:43.473388462
2025-11-07 16:50:39.181135,1230,2025-11-07 16:50:43.481080769
2025-11-07 16:50:39.181135,9728,2025-11-07 16:50:43.488773077
2025-11-07 16:50:39.181135,5,2025-11-07 16:50:43.496465385
2025-11-07 16:50:39.181135,1249,2025-11-07 16:50:43.504157692
2025-11-07 16:50:39.181135,29952,2025-11-07 16:50:43.511850000
2025-11-07 16:50:39.181135,5,2025-11-07 16:50:43.519542308
2025-11-07 16:50:39.181135,1356,2025-11-07 16:50:43.527234615
2025-11-07 16:50:39.181135,-18432,2025-11-07 16:50:43.534926923
2025-11-07 16:50:39.181135,4,2025-11-07 16:50:43.542619231
2025-11-07 16:50:39.181135,1280,2025-11-07 16:50:43.550311538
2025-11-07 16:50:39.181135,-13568,2025-11-07 16:50:43.558003846
2025-11-07 16:50:39.181135,4,2025-11-07 16:50:43.565696154
2025-11-07 16:50:39.181135,1263,2025-11-07 16:50:43.573388462
2025-11-07 16:50:39.181135,-2560,2025-11-07 16:50:43.581080769
2025-11-07 16:50:39.181135,4,2025-11-07 16:50:43.588773077
2025-11-07 16:50:39.181135,1204,2025-11-07 16:50:43.596465385
2025-11-07 16:50:39.181135,7424,2025-11-07 16:50:43.604157692
2025-11-07 16:50:39.181135,5,2025-11-07 16:50:43.611850000
2025-11-07 16:50:39.181135,1247,2025-11-07 16:50:43.619542308
2025-11-07 16:50:39.181135,-9728,2025-11-07 16:50:43.627234615
2025-11-07 16:50:39.181135,4,2025-11-07 16:50:43.634926923
2025-11-07 16:50:39.181135,1297,2025-11-07 16:50:43.642619231
2025-11-07 16:50:39.181135,-18432,2025-11-07 16:50:43.650311538
2025-11-07 16:50:39.181135,4,2025-11-07 16:50:43.658003846
2025-11-07 16:50:39.181135,1292,2025-11-07 16:50:43.665696154
2025-11-07 16:50:39.181135,-4864,2025-11-07 16:50:43.673388462
2025-11-07 16:50:39.181135,4,2025-11-07 16:50:43.681080769
2025-11-07 16:50:39.181135,1213,2025-11-07 16:50:43.688773077
2025-11-07 16:50:39.181135,7424,2025-11-07 16:50:43.696465385
2025-11-07 16:50:39.181135,5,2025-11-07 16:50:43.704157692
2025-11-07 16:50:39.181135,1216,2025-11-07 16:50:43.711850000
2025-11-07 16:50:39.181135,-3584,2025-11-07 16:50:43.719542308
2025-11-07 16:50:39.181135,4,2025-11-07 16:50:43.727234615
2025-11-07 16:50:39.181135,1297,2025-11-07 16:50:43.734926923
2025-11-07 16:50:39.181135,-16384,2025-11-07 16:50:43.742619231
2025-11-07 16:50:39.181135,4,2025-11-07 16:50:43.750311538
2025-11-07 16:50:39.181135,1316,2025-11-07 16:50:43.758003846
2025-11-07 16:50:39.181135,-7936,2025-11-07 16:50:43.765696154
2025-11-07 16:50:39.181135,4,2025-11-07 16:50:43.773388462
2025-11-07 16:50:39.181135,1249,2025-11-07 16:50:43.781080769
2025-11-07 16:50:39.181135,9728,2025-11-07 16:50:43.788773077
2025-11-07 16:50:39.181135,5,2025-11-07 16:50:43.796465385
2025-11-07 16:50:39.181135,1211,2025-11-07 16:50:43.804157692
2025-11-07 16:50:39.181135,2304,2025-11-07 16:50:43.811850000
2025-11-07 16:50:39.181135,5,2025-11-07 16:50:43.819542308
2025-11-07 16:50:39.181135,1275,2025-11-07 16:50:43.827234615
2025-11-07 16:50:39.181135,-16384,2025-11-07 16:50:43.834926923
2025-11-07 16:50:39.181135,4,2025-11-07 16:50:43.842619231
2025-11-07 16:50:39.181135,1316,2025-11-07 16:50:43.850311538
2025-11-07 16:50:39.181135,-10496,2025-11-07 16:50:43.858003846
2025-11-07 16:50:39.181135,4,2025-11-07 16:50:43.865696154
2025-11-07 16:50:39.181135,1273,2025-11-07 16:50:43.873388462
2025-11-07 16:50:39.181135,3584,2025-11-07 16:50:43.881080769
2025-11-07 16:50:39.181135,5,2025-11-07 16:50:43.888773077
2025-11-07 16:50:39.181135,1213,2025-11-07 16:50:43.896465385
2025-11-07 16:50:39.181135,7936,2025-11-07 16:50:43.904157692
2025-11-07 16:50:39.181135,5,2025-11-07 16:50:43.911850000
2025-11-07 16:50:39.181135,1249,2025-11-07 16:50:43.919542308
2025-11-07 16:50:39.181135,-11008,2025-11-07 16:50:43.927234615
2025-11-07 16:50:39.181135,4,2025-11-07 16:50:43.934926923
2025-11-07 16:50:39.181135,1304,2025-11-07 16:50:43.942619231
2025-11-07 16:50:39.181135,-19456,2025-11-07 16:50:43.950311538
2025-11-07 16:50:39.181135,4,2025-11-07 16:50:43.958003846
2025-11-07 16:50:39.181135,1275,2025-11-07 16:50:43.965696154
2025-11-07 16:50:39.181135,-7424,2025-11-07 16:50:43.973388462
2025-11-07 16:50:39.181135,4,2025-11-07 16:50:43.981080769
2025-11-07 16:50:39.181135,1194,2025-11-07 16:50:43.988773077
2025-11-07 16:50:39.181135,1792,2025-11-07 16:50:43.996465385
2025-11-07 16:50:39.181135,5,2025-11-07 16:50:44.004157692
2025-11-07 16:50:39.181135,1187,2025-11-07 16:50:44.011850000
2025-11-07 16:50:39.181135,-16384,2025-11-07 16:50:44.019542308
2025-11-07 16:50:39.181135,4,2025-11-07 16:50:44.027234615
2025-11-07 16:50:39.181135,1249,2025-11-07 16:50:44.034926923
2025-11-07 16:50:39.181135,-30464,2025-11-07 16:50:44.042619231
2025-11-07 16:50:39.181135,4,2025-11-07 16:50:44.050311538
2025-11-07 16:50:39.181135,1251,2025-11-07 16:50:44.058003846
2025-11-07 16:50:39.181135,-21504,2025-11-07 16:50:44.065696154
2025-11-07 16:50:39.181135,4,2025-11-07 16:50:44.073388462
2025-11-07 16:50:39.181135,1177,2025-11-07 16:50:44.081080769
2025-11-07 16:50:39.181135,-9728,2025-11-07 16:50:44.088773077
2025-11-07 16:50:39.181135,4,2025-11-07 16:50:44.096465385
2025-11-07 16:50:39.181135,1139,2025-11-07 16:50:44.104157692
2025-11-07 16:50:39.181135,-18432,2025-11-07 16:50:44.111850000
2025-11-07 16:50:39.181135,4,2025-11-07 16:50:44.119542308
2025-11-07 16:50:39.181135,1194,2025-11-07 16:50:44.127234615
2025-11-07 16:50:39.181135,28160,2025-11-07 16:50:44.134926923
2025-11-07 16:50:39.181135,4,2025-11-07 16:50:44.142619231
2025-11-07 16:50:39.181135,1232,2025-11-07 16:50:44.150311538
2025-11-07 16:50:39.181135,30720,2025-11-07 16:50:44.158003846
2025-11-07 16:50:39.181135,4,2025-11-07 16:50:44.165696154
2025-11-07 16:50:39.181135,1163,2025-11-07 16:50:44.173388462
2025-11-07 16:50:39.181135,-20736,2025-11-07 16:50:44.181080769
2025-11-07 16:50:39.181135,4,2025-11-07 16:50:44.188773077
2025-11-07 16:50:39.181135,1118,2025-11-07 16:50:44.196465385
2025-11-07 16:50:39.181135,-18944,2025-11-07 16:50:44.204157692
2025-11-07 16:50:39.181135,4,2025-11-07 16:50:44.211850000
2025-11-07 16:50:39.181135,1139,2025-11-07 16:50:44.219542308
2025-11-07 16:50:39.766126,1113,2025-11-07 16:50:44.227234615
2025-11-07 16:50:39.766126,-22016,2025-11-07 16:50:44.234926923
2025-11-07 16:50:39.766126,4,2025-11-07 16:50:44.242619231
2025-11-07 16:50:39.766126,1092,2025-11-07 16:50:44.250311538
2025-11-07 16:50:39.766126,31232,2025-11-07 16:50:44.258003846
2025-11-07 16:50:39.766126,4,2025-11-07 16:50:44.265696154
2025-11-07 16:50:39.766126,1137,2025-11-07 16:50:44.273388462
2025-11-07 16:50:39.766126,16640,2025-11-07 16:50:44.281080769
2025-11-07 16:50:39.766126,4,2025-11-07 16:50:44.288773077
2025-11-07 16:50:39.766126,1182,2025-11-07 16:50:44.296465385
2025-11-07 16:50:39.766126,9984,2025-11-07 16:50:44.304157692
2025-11-07 16:50:39.766126,4,2025-11-07 16:50:44.311850000
2025-11-07 16:50:39.766126,1080,2025-11-07 16:50:44.319542308
2025-11-07 16:50:39.766126,30208,2025-11-07 16:50:44.327234615
2025-11-07 16:50:39.766126,4,2025-11-07 16:50:44.334926923
2025-11-07 16:50:39.766126,1046,2025-11-07 16:50:44.342619230
2025-11-07 16:50:39.766126,24064,2025-11-07 16:50:44.350311538
2025-11-07 16:50:39.766126,4,2025-11-07 16:50:44.358003846
2025-11-07 16:50:39.766126,1072,2025-11-07 16:50:44.365696154
2025-11-07 16:50:39.766126,6912,2025-11-07 16:50:44.373388462
2025-11-07 16:50:39.766126,4,2025-11-07 16:50:44.381080769
2025-11-07 16:50:39.766126,1123,2025-11-07 16:50:44.388773077
2025-11-07 16:50:39.766126,-512,2025-11-07 16:50:44.396465385
2025-11-07 16:50:39.766126,3,2025-11-07 16:50:44.404157692
2025-11-07 16:50:39.766126,1089,2025-11-07 16:50:44.411850000
2025-11-07 16:50:39.766126,15360,2025-11-07 16:50:44.419542308
2025-11-07 16:50:39.766126,4,2025-11-07 16:50:44.427234615
2025-11-07 16:50:39.766126,1011,2025-11-07 16:50:44.434926923
2025-11-07 16:50:39.766126,19712,2025-11-07 16:50:44.442619231
2025-11-07 16:50:39.766126,4,2025-11-07 16:50:44.450311538
2025-11-07 16:50:39.766126,1020,2025-11-07 16:50:44.458003846
2025-11-07 16:50:39.766126,5120,2025-11-07 16:50:44.465696154
2025-11-07 16:50:39.766126,4,2025-11-07 16:50:44.473388462
2025-11-07 16:50:39.766126,1087,2025-11-07 16:50:44.481080769
2025-11-07 16:50:39.766126,-8960,2025-11-07 16:50:44.488773077
2025-11-07 16:50:39.766126,3,2025-11-07 16:50:44.496465385
2025-11-07 16:50:39.766126,1072,2025-11-07 16:50:44.504157692
2025-11-07 16:50:39.766126,2048,2025-11-07 16:50:44.511850000
2025-11-07 16:50:39.766126,4,2025-11-07 16:50:44.519542308
2025-11-07 16:50:39.766126,1006,2025-11-07 16:50:44.527234615
2025-11-07 16:50:39.766126,12288,2025-11-07 16:50:44.534926923
2025-11-07 16:50:39.766126,4,2025-11-07 16:50:44.542619231
2025-11-07 16:50:39.766126,972,2025-11-07 16:50:44.550311538
2025-11-07 16:50:39.766126,3840,2025-11-07 16:50:44.558003846
2025-11-07 16:50:39.766126,4,2025-11-07 16:50:44.565696154
2025-11-07 16:50:39.766126,1032,2025-11-07 16:50:44.573388462
2025-11-07 16:50:39.766126,-16896,2025-11-07 16:50:44.581080769
2025-11-07 16:50:39.766126,3,2025-11-07 16:50:44.588773077
2025-11-07 16:50:39.766126,1058,2025-11-07 16:50:44.596465385
2025-11-07 16:50:39.766126,-12032,2025-11-07 16:50:44.604157692
2025-11-07 16:50:39.766126,3,2025-11-07 16:50:44.611850000
2025-11-07 16:50:39.766126,991,2025-11-07 16:50:44.619542308
2025-11-07 16:50:39.766126,2560,2025-11-07 16:50:44.627234615
2025-11-07 16:50:39.766126,4,2025-11-07 16:50:44.634926923
2025-11-07 16:50:39.766126,927,2025-11-07 16:50:44.642619231
2025-11-07 16:50:39.766126,-2816,2025-11-07 16:50:44.650311538
2025-11-07 16:50:39.766126,3,2025-11-07 16:50:44.658003846
2025-11-07 16:50:39.766126,972,2025-11-07 16:50:44.665696154
2025-11-07 16:50:39.766126,-23552,2025-11-07 16:50:44.673388462
2025-11-07 16:50:39.766126,3,2025-11-07 16:50:44.681080769
2025-11-07 16:50:39.766126,1013,2025-11-07 16:50:44.688773077
2025-11-07 16:50:39.766126,-27136,2025-11-07 16:50:44.696465385
2025-11-07 16:50:39.766126,3,2025-11-07 16:50:44.704157692
2025-11-07 16:50:39.766126,972,2025-11-07 16:50:44.711850000
2025-11-07 16:50:39.766126,-12032,2025-11-07 16:50:44.719542308
2025-11-07 16:50:39.766126,3,2025-11-07 16:50:44.727234615
2025-11-07 16:50:39.766126,908,2025-11-07 16:50:44.734926923
2025-11-07 16:50:39.766126,-5888,2025-11-07 16:50:44.742619231
2025-11-07 16:50:39.766126,3,2025-11-07 16:50:44.750311538
2025-11-07 16:50:39.766126,920,2025-11-07 16:50:44.758003846
2025-11-07 16:50:39.766126,-27136,2025-11-07 16:50:44.765696154
2025-11-07 16:50:39.766126,3,2025-11-07 16:50:44.773388462
2025-11-07 16:50:39.766126,951,2025-11-07 16:50:44.781080769
2025-11-07 16:50:39.766126,26112,2025-11-07 16:50:44.788773077
2025-11-07 16:50:39.766126,3,2025-11-07 16:50:44.796465385
2025-11-07 16:50:39.766126,1008,2025-11-07 16:50:44.804157692
2025-11-07 16:50:39.766126,3328,2025-11-07 16:50:44.811850000
2025-11-07 16:50:39.766126,4,2025-11-07 16:50:44.819542308
2025-11-07 16:50:39.766126,996,2025-11-07 16:50:44.827234615
2025-11-07 16:50:39.766126,-9472,2025-11-07 16:50:44.834926923
2025-11-07 16:50:39.766126,3,2025-11-07 16:50:44.842619231
2025-11-07 16:50:39.766126,836,2025-11-07 16:50:44.850311538
2025-11-07 16:50:39.766126,-27136,2025-11-07 16:50:44.858003846
2025-11-07 16:50:39.766126,3,2025-11-07 16:50:44.865696154
2025-11-07 16:50:39.766126,937,2025-11-07 16:50:44.873388462
2025-11-07 16:50:39.766126,19456,2025-11-07 16:50:44.881080769
2025-11-07 16:50:39.766126,3,2025-11-07 16:50:44.888773077
2025-11-07 16:50:39.766126,946,2025-11-07 16:50:44.896465385
2025-11-07 16:50:39.766126,27904,2025-11-07 16:50:44.904157692
2025-11-07 16:50:39.766126,3,2025-11-07 16:50:44.911850000
2025-11-07 16:50:39.766126,879,2025-11-07 16:50:44.919542308
2025-11-07 16:50:39.766126,-21760,2025-11-07 16:50:44.927234615
2025-11-07 16:50:39.766126,3,2025-11-07 16:50:44.934926923
2025-11-07 16:50:39.766126,839,2025-11-07 16:50:44.942619231
2025-11-07 16:50:39.766126,-24832,2025-11-07 16:50:44.950311538
2025-11-07 16:50:39.766126,3,2025-11-07 16:50:44.958003846
2025-11-07 16:50:39.766126,901,2025-11-07 16:50:44.965696154
2025-11-07 16:50:39.766126,19456,2025-11-07 16:50:44.973388462
2025-11-07 16:50:39.766126,3,2025-11-07 16:50:44.981080769
2025-11-07 16:50:39.766126,920,2025-11-07 16:50:44.988773077
2025-11-07 16:50:39.766126,16384,2025-11-07 16:50:44.996465385
2025-11-07 16:50:39.766126,3,2025-11-07 16:50:45.004157692
2025-11-07 16:50:39.766126,872,2025-11-07 16:50:45.011850000
2025-11-07 16:50:39.766126,29696,2025-11-07 16:50:45.019542308
2025-11-07 16:50:39.766126,3,2025-11-07 16:50:45.027234615
2025-11-07 16:50:39.766126,820,2025-11-07 16:50:45.034926923
2025-11-07 16:50:39.766126,-27136,2025-11-07 16:50:45.042619231
2025-11-07 16:50:39.766126,3,2025-11-07 16:50:45.050311538
2025-11-07 16:50:39.766126,844,2025-11-07 16:50:45.058003846
2025-11-07 16:50:40.304844,853,2025-11-07 16:50:45.065696154
2025-11-07 16:50:40.304844,-27904,2025-11-07 16:50:45.073388462
2025-11-07 16:50:40.304844,3,2025-11-07 16:50:45.081080769
2025-11-07 16:50:40.304844,820,2025-11-07 16:50:45.088773077
2025-11-07 16:50:40.304844,-30976,2025-11-07 16:50:45.096465385
2025-11-07 16:50:40.304844,3,2025-11-07 16:50:45.104157692
2025-11-07 16:50:40.304844,867,2025-11-07 16:50:45.111850000
2025-11-07 16:50:40.304844,12544,2025-11-07 16:50:45.119542308
2025-11-07 16:50:40.304844,3,2025-11-07 16:50:45.127234615
2025-11-07 16:50:40.304844,910,2025-11-07 16:50:45.134926923
2025-11-07 16:50:40.304844,12544,2025-11-07 16:50:45.142619231
2025-11-07 16:50:40.304844,3,2025-11-07 16:50:45.150311538
2025-11-07 16:50:40.304844,872,2025-11-07 16:50:45.158003846
2025-11-07 16:50:40.304844,-32256,2025-11-07 16:50:45.165696154
2025-11-07 16:50:40.304844,3,2025-11-07 16:50:45.173388462
2025-11-07 16:50:40.304844,794,2025-11-07 16:50:45.181080769
2025-11-07 16:50:40.304844,24832,2025-11-07 16:50:45.188773077
2025-11-07 16:50:40.304844,3,2025-11-07 16:50:45.196465385
2025-11-07 16:50:40.304844,820,2025-11-07 16:50:45.204157692
2025-11-07 16:50:40.304844,15616,2025-11-07 16:50:45.211850000
2025-11-07 16:50:40.304844,3,2025-11-07 16:50:45.219542308
2025-11-07 16:50:40.304844,879,2025-11-07 16:50:45.227234615
2025-11-07 16:50:40.304844,4096,2025-11-07 16:50:45.234926923
2025-11-07 16:50:40.304844,3,2025-11-07 16:50:45.242619231
2025-11-07 16:50:40.304844,860,2025-11-07 16:50:45.250311538
2025-11-07 16:50:40.304844,15616,2025-11-07 16:50:45.258003846
2025-11-07 16:50:40.304844,3,2025-11-07 16:50:45.265696154
2025-11-07 16:50:40.304844,782,2025-11-07 16:50:45.273388462
2025-11-07 16:50:40.304844,26624,2025-11-07 16:50:45.281080769
2025-11-07 16:50:40.304844,3,2025-11-07 16:50:45.288773077
2025-11-07 16:50:40.304844,779,2025-11-07 16:50:45.296465385
2025-11-07 16:50:40.304844,12032,2025-11-07 16:50:45.304157692
2025-11-07 16:50:40.304844,3,2025-11-07 16:50:45.311850000
2025-11-07 16:50:40.304844,832,2025-11-07 16:50:45.319542308
2025-11-07 16:50:40.304844,-4352,2025-11-07 16:50:45.327234615
2025-11-07 16:50:40.304844,2,2025-11-07 16:50:45.334926923
2025-11-07 16:50:40.304844,848,2025-11-07 16:50:45.342619230
2025-11-07 16:50:40.304844,4608,2025-11-07 16:50:45.350311538
2025-11-07 16:50:40.304844,3,2025-11-07 16:50:45.358003846
2025-11-07 16:50:40.304844,779,2025-11-07 16:50:45.365696154
2025-11-07 16:50:40.304844,18176,2025-11-07 16:50:45.373388462
2025-11-07 16:50:40.304844,3,2025-11-07 16:50:45.381080769
2025-11-07 16:50:40.304844,739,2025-11-07 16:50:45.388773077
2025-11-07 16:50:40.304844,12032,2025-11-07 16:50:45.396465385
2025-11-07 16:50:40.304844,3,2025-11-07 16:50:45.404157692
2025-11-07 16:50:40.304844,796,2025-11-07 16:50:45.411850000
2025-11-07 16:50:40.304844,-5632,2025-11-07 16:50:45.419542308
2025-11-07 16:50:40.304844,2,2025-11-07 16:50:45.427234615
2025-11-07 16:50:40.304844,836,2025-11-07 16:50:45.434926923
2025-11-07 16:50:40.304844,-6400,2025-11-07 16:50:45.442619231
2025-11-07 16:50:40.304844,2,2025-11-07 16:50:45.450311538
2025-11-07 16:50:40.304844,779,2025-11-07 16:50:45.458003846
2025-11-07 16:50:40.304844,9472,2025-11-07 16:50:45.465696154
2025-11-07 16:50:40.304844,3,2025-11-07 16:50:45.473388462
2025-11-07 16:50:40.304844,724,2025-11-07 16:50:45.481080769
2025-11-07 16:50:40.304844,13312,2025-11-07 16:50:45.488773077
2025-11-07 16:50:40.304844,3,2025-11-07 16:50:45.496465385
2025-11-07 16:50:40.304844,758,2025-11-07 16:50:45.504157692
2025-11-07 16:50:40.304844,-5632,2025-11-07 16:50:45.511850000
2025-11-07 16:50:40.304844,2,2025-11-07 16:50:45.519542308
2025-11-07 16:50:40.304844,808,2025-11-07 16:50:45.527234615
2025-11-07 16:50:40.304844,-15360,2025-11-07 16:50:45.534926923
2025-11-07 16:50:40.304844,2,2025-11-07 16:50:45.542619231
2025-11-07 16:50:40.304844,784,2025-11-07 16:50:45.550311538
2025-11-07 16:50:40.304844,-256,2025-11-07 16:50:45.558003846
2025-11-07 16:50:40.304844,2,2025-11-07 16:50:45.565696154
2025-11-07 16:50:40.304844,715,2025-11-07 16:50:45.573388462
2025-11-07 16:50:40.304844,8960,2025-11-07 16:50:45.581080769
2025-11-07 16:50:40.304844,3,2025-11-07 16:50:45.588773077
2025-11-07 16:50:40.304844,708,2025-11-07 16:50:45.596465385
2025-11-07 16:50:40.304844,-7424,2025-11-07 16:50:45.604157692
2025-11-07 16:50:40.304844,2,2025-11-07 16:50:45.611850000
2025-11-07 16:50:40.304844,774,2025-11-07 16:50:45.619542308
2025-11-07 16:50:40.304844,-20224,2025-11-07 16:50:45.627234615
2025-11-07 16:50:40.304844,2,2025-11-07 16:50:45.634926923
2025-11-07 16:50:40.304844,777,2025-11-07 16:50:45.642619231
2025-11-07 16:50:40.304844,-13056,2025-11-07 16:50:45.650311538
2025-11-07 16:50:40.304844,2,2025-11-07 16:50:45.658003846
2025-11-07 16:50:40.304844,705,2025-11-07 16:50:45.665696154
2025-11-07 16:50:40.304844,1536,2025-11-07 16:50:45.673388462
2025-11-07 16:50:40.304844,3,2025-11-07 16:50:45.681080769
2025-11-07 16:50:40.304844,677,2025-11-07 16:50:45.688773077
2025-11-07 16:50:40.304844,-3328,2025-11-07 16:50:45.696465385
2025-11-07 16:50:40.304844,2,2025-11-07 16:50:45.704157692
2025-11-07 16:50:40.304844,743,2025-11-07 16:50:45.711850000
2025-11-07 16:50:40.304844,-24576,2025-11-07 16:50:45.719542308
2025-11-07 16:50:40.304844,2,2025-11-07 16:50:45.727234615
2025-11-07 16:50:40.304844,765,2025-11-07 16:50:45.734926923
2025-11-07 16:50:40.304844,-20992,2025-11-07 16:50:45.742619231
2025-11-07 16:50:40.304844,2,2025-11-07 16:50:45.750311538
2025-11-07 16:50:40.304844,712,2025-11-07 16:50:45.758003846
2025-11-07 16:50:40.304844,-5632,2025-11-07 16:50:45.765696154
2025-11-07 16:50:40.304844,2,2025-11-07 16:50:45.773388462
2025-11-07 16:50:40.304844,658,2025-11-07 16:50:45.781080769
2025-11-07 16:50:40.304844,-4352,2025-11-07 16:50:45.788773077
2025-11-07 16:50:40.304844,2,2025-11-07 16:50:45.796465385
2025-11-07 16:50:40.304844,705,2025-11-07 16:50:45.804157692
2025-11-07 16:50:40.304844,-20224,2025-11-07 16:50:45.811850000
