timestamp,ecg
15:57:15.735315,206
15:57:15.735315,-22016
15:57:15.735315,0
15:57:15.735315,165
15:57:15.735315,-16640
15:57:15.735315,0
15:57:15.735315,160
15:57:15.735315,-30720
15:57:15.735315,0
15:57:15.735315,167
15:57:15.735315,-18944
15:57:15.735315,0
15:57:15.735315,150
15:57:15.735315,29440
15:57:15.735315,0
15:57:15.735315,110
15:57:15.735315,25600
15:57:15.735315,0
15:57:15.735315,74
15:57:15.735315,17664
15:57:15.735315,0
15:57:15.735315,76
15:57:15.735315,15872
15:57:15.735315,0
15:57:15.735315,26
15:57:15.735315,512
15:57:15.735315,0
15:57:15.735315,21
15:57:15.735315,12032
15:57:15.735315,0
15:57:15.735315,47
15:57:15.735315,14592
15:57:15.735315,0
15:57:15.735315,79
15:57:15.735315,22528
15:57:15.735315,0
15:57:15.735315,91
15:57:15.735315,25088
15:57:15.735315,0
15:57:15.735315,91
15:57:15.735315,20736
15:57:15.735315,0
15:57:15.735315,88
15:57:15.735315,20736
15:57:15.735315,0
15:57:15.735315,74
15:57:15.735315,20736
15:57:15.735315,0
15:57:15.735315,81
15:57:15.735315,17152
15:57:15.735315,0
15:57:15.735315,59
15:57:15.735315,17152
15:57:15.735315,0
15:57:15.735315,79
15:57:15.735315,17664
15:57:15.735315,0
15:57:15.735315,57
15:57:15.735315,17152
15:57:15.735315,0
15:57:15.735315,69
15:57:15.735315,15872
15:57:15.735315,0
15:57:15.735315,59
15:57:15.735315,14080
15:57:15.735315,0
15:57:15.735315,45
15:57:15.735315,11008
15:57:15.735315,0
15:57:15.735315,45
15:57:15.735315,11520
15:57:15.735315,0
15:57:15.735315,40
15:57:15.735315,8448
15:57:15.735315,0
15:57:15.735315,31
15:57:15.735315,7936
15:57:15.735315,0
15:57:15.735315,28
15:57:15.735315,5376
15:57:15.735315,0
15:57:15.735315,23
15:57:15.735315,7936
15:57:15.735315,0
15:57:15.735315,28
15:57:15.735315,4096
15:57:15.735315,0
15:57:15.735315,23
15:57:15.735315,8448
15:57:15.735315,0
15:57:15.735315,26
15:57:15.735315,3584
15:57:15.735315,0
15:57:15.735315,19
15:57:15.735315,6656
15:57:15.735315,0
15:57:15.735315,21
15:57:15.735315,2816
15:57:15.735315,0
15:57:15.735315,19
15:57:15.735315,6656
15:57:15.735315,0
15:57:15.735315,19
15:57:15.735315,3584
15:57:15.735315,0
15:57:15.735315,14
15:57:15.735315,4096
15:57:15.735315,0
15:57:15.735315,19
15:57:16.276289,21
15:57:16.276289,4864
15:57:16.276289,0
15:57:16.276289,16
15:57:16.276289,7168
15:57:16.276289,0
15:57:16.276289,38
15:57:16.276289,7168
15:57:16.276289,0
15:57:16.276289,16
15:57:16.276289,1792
15:57:16.276289,0
15:57:16.276289,-7
15:57:16.276289,-2049
15:57:16.276289,-1
15:57:16.276289,14
15:57:16.276289,10240
15:57:16.276289,0
15:57:16.276289,43
15:57:16.276289,11008
15:57:16.276289,0
15:57:16.276289,47
15:57:16.276289,9728
15:57:16.276289,0
15:57:16.276289,23
15:57:16.276289,6656
15:57:16.276289,0
15:57:16.276289,28
15:57:16.276289,7936
15:57:16.276289,0
15:57:16.276289,93
15:57:16.276289,-9728
15:57:16.276289,0
15:57:16.276289,103
15:57:16.276289,-30720
15:57:16.276289,-3
15:57:16.276289,-1507
15:57:16.276289,22527
15:57:16.276289,-6
15:57:16.276289,-623
15:57:16.276289,-29697
15:57:16.276289,-1
15:57:16.276289,-7
15:57:16.276289,-29697
15:57:16.276289,0
15:57:16.276289,222
15:57:16.276289,-16640
15:57:16.276289,0
15:57:16.276289,196
15:57:16.276289,-9728
15:57:16.276289,0
15:57:16.276289,203
15:57:16.276289,-17152
15:57:16.276289,0
15:57:16.276289,182
15:57:16.276289,-21504
15:57:16.276289,0
15:57:16.276289,165
15:57:16.276289,-22016
15:57:16.276289,0
15:57:16.276289,170
15:57:16.276289,-24064
15:57:16.276289,0
15:57:16.276289,160
15:57:16.276289,-25088
15:57:16.276289,0
15:57:16.276289,153
15:57:16.276289,-27136
15:57:16.276289,0
15:57:16.276289,143
15:57:16.276289,-31232
15:57:16.276289,0
15:57:16.276289,127
15:57:16.276289,29440
15:57:16.276289,0
15:57:16.276289,93
15:57:16.276289,18176
15:57:16.276289,0
15:57:16.276289,59
15:57:16.276289,12032
15:57:16.276289,0
15:57:16.276289,31
15:57:16.276289,4096
15:57:16.276289,0
15:57:16.276289,2
15:57:16.276289,-1024
15:57:16.276289,-1
15:57:16.276289,4
15:57:16.276289,5376
15:57:16.276289,0
15:57:16.276289,35
15:57:16.276289,13312
15:57:16.276289,0
15:57:16.276289,69
15:57:16.276289,19456
15:57:16.276289,0
15:57:16.276289,76
15:57:16.276289,20224
15:57:16.276289,0
15:57:16.276289,79
15:57:16.276289,18176
15:57:16.276289,0
15:57:16.276289,67
15:57:16.276289,17664
15:57:16.276289,0
15:57:16.276289,74
15:57:16.276289,18176
15:57:16.276289,0
15:57:16.276289,67
15:57:16.857888,67
15:57:16.857888,16384
15:57:16.857888,0
15:57:16.857888,62
15:57:16.857888,17152
15:57:16.857888,0
15:57:16.857888,69
15:57:16.857888,17152
15:57:16.857888,0
15:57:16.857888,69
15:57:16.857888,20224
15:57:16.857888,0
15:57:16.857888,83
15:57:16.857888,20224
15:57:16.857888,0
15:57:16.857888,69
15:57:16.857888,16384
15:57:16.857888,0
15:57:16.857888,59
15:57:16.857888,14592
15:57:16.857888,0
15:57:16.857888,55
15:57:16.857888,13312
15:57:16.857888,0
15:57:16.857888,52
15:57:16.857888,12800
15:57:16.857888,0
15:57:16.857888,50
15:57:16.857888,12800
15:57:16.857888,0
15:57:16.857888,47
15:57:16.857888,11520
15:57:16.857888,0
15:57:16.857888,43
15:57:16.857888,11520
15:57:16.857888,0
15:57:16.857888,47
15:57:16.857888,11520
15:57:16.857888,0
15:57:16.857888,40
15:57:16.857888,10240
15:57:16.857888,0
15:57:16.857888,40
15:57:16.857888,10240
15:57:16.857888,0
15:57:16.857888,45
15:57:16.857888,10240
15:57:16.857888,0
15:57:16.857888,31
15:57:16.857888,7936
15:57:16.857888,0
15:57:16.857888,35
15:57:16.857888,9728
15:57:16.857888,0
15:57:16.857888,43
15:57:16.857888,12032
15:57:16.857888,0
15:57:16.857888,47
15:57:16.857888,11520
15:57:16.857888,0
15:57:16.857888,33
15:57:16.857888,5376
15:57:16.857888,0
15:57:16.857888,16
15:57:16.857888,2816
15:57:16.857888,0
15:57:16.857888,19
15:57:16.857888,8448
15:57:16.857888,0
15:57:16.857888,38
15:57:16.857888,7936
15:57:16.857888,0
15:57:16.857888,26
15:57:16.857888,6656
15:57:16.857888,0
15:57:16.857888,23
15:57:16.857888,5888
15:57:16.857888,0
15:57:16.857888,26
15:57:16.857888,17152
15:57:16.857888,0
15:57:16.857888,177
15:57:16.857888,-17920
15:57:16.857888,0
15:57:16.857888,-297
15:57:16.857888,-30209
15:57:16.857888,-5
15:57:16.857888,-1363
15:57:16.857888,13055
15:57:16.857888,-3
15:57:16.857888,-206
15:57:16.857888,-24065
15:57:16.857888,-1
15:57:16.857888,69
15:57:16.857888,-15360
15:57:16.857888,0
15:57:16.857888,160
15:57:16.857888,-26368
15:57:16.857888,0
15:57:16.857888,186
15:57:16.857888,-20224
15:57:16.857888,0
15:57:16.857888,158
15:57:16.857888,-22784
15:57:16.857888,0
15:57:16.857888,172
15:57:16.857888,-25088
15:57:16.857888,0
15:57:16.857888,150
15:57:17.445143,148
15:57:17.445143,-29440
15:57:17.445143,0
15:57:17.445143,131
15:57:17.445143,-32512
15:57:17.445143,0
15:57:17.445143,127
15:57:17.445143,30464
15:57:17.445143,0
15:57:17.445143,112
15:57:17.445143,26880
15:57:17.445143,0
15:57:17.445143,98
15:57:17.445143,23808
15:57:17.445143,0
15:57:17.445143,93
15:57:17.445143,20736
15:57:17.445143,0
15:57:17.445143,55
15:57:17.445143,8448
15:57:17.445143,0
15:57:17.445143,19
15:57:17.445143,1024
15:57:17.445143,0
15:57:17.445143,-9
15:57:17.445143,-3329
15:57:17.445143,-1
15:57:17.445143,-9
15:57:17.445143,3071
15:57:17.445143,0
15:57:17.445143,40
15:57:17.445143,15872
15:57:17.445143,0
15:57:17.445143,76
15:57:17.445143,22528
15:57:17.445143,0
15:57:17.445143,91
15:57:17.445143,23808
15:57:17.445143,0
15:57:17.445143,98
15:57:17.445143,25088
15:57:17.445143,0
15:57:17.445143,98
15:57:17.445143,25600
15:57:17.445143,0
15:57:17.445143,100
15:57:17.445143,23808
15:57:17.445143,0
15:57:17.445143,86
15:57:17.445143,22016
15:57:17.445143,0
15:57:17.445143,86
15:57:17.445143,19456
15:57:17.445143,0
15:57:17.445143,67
15:57:17.445143,15104
15:57:17.445143,0
15:57:17.445143,52
15:57:17.445143,12800
15:57:17.445143,0
15:57:17.445143,47
15:57:17.445143,10240
15:57:17.445143,0
15:57:17.445143,40
15:57:17.445143,11008
15:57:17.445143,0
15:57:17.445143,35
15:57:17.445143,8960
15:57:17.445143,0
15:57:17.445143,43
15:57:17.445143,10240
15:57:17.445143,0
15:57:17.445143,35
15:57:17.445143,8960
15:57:17.445143,0
15:57:17.445143,35
15:57:17.445143,8960
15:57:17.445143,0
15:57:17.445143,33
15:57:17.445143,9728
15:57:17.445143,0
15:57:17.445143,50
15:57:17.445143,14592
15:57:17.445143,0
15:57:17.445143,59
15:57:17.445143,14592
15:57:17.445143,0
15:57:17.445143,38
15:57:17.445143,2816
15:57:17.445143,0
15:57:17.445143,2
15:57:17.445143,2304
15:57:17.445143,0
15:57:17.445143,21
15:57:17.445143,7936
15:57:17.445143,0
15:57:17.445143,33
15:57:17.445143,7936
15:57:17.445143,0
15:57:17.445143,26
15:57:17.445143,6656
15:57:17.445143,0
15:57:17.445143,26
15:57:17.445143,5376
15:57:17.445143,0
15:57:17.445143,19
15:57:17.445143,6656
15:57:17.445143,0
15:57:17.445143,83
15:57:17.937995,213
15:57:17.937995,-18944
15:57:17.937995,0
15:57:17.937995,-440
15:57:17.937995,-20481
15:57:17.937995,-6
15:57:17.937995,-1471
15:57:17.937995,12287
15:57:17.937995,-3
15:57:17.937995,-186
15:57:17.937995,-12545
15:57:17.937995,-1
15:57:17.937995,107
15:57:17.937995,-12800
15:57:17.937995,0
15:57:17.937995,174
15:57:17.937995,-19712
15:57:17.937995,0
15:57:17.937995,201
15:57:17.937995,-15360
15:57:17.937995,0
15:57:17.937995,194
15:57:17.937995,-15360
15:57:17.937995,0
15:57:17.937995,186
15:57:17.937995,-19712
15:57:17.937995,0
15:57:17.937995,177
15:57:17.937995,-20992
15:57:17.937995,0
15:57:17.937995,167
15:57:17.937995,-23296
15:57:17.937995,0
15:57:17.937995,160
15:57:17.937995,-26368
15:57:17.937995,0
15:57:17.937995,150
15:57:17.937995,-27136
15:57:17.937995,0
15:57:17.937995,143
15:57:17.937995,-31232
15:57:17.937995,0
15:57:17.937995,124
15:57:17.937995,28160
15:57:17.937995,0
15:57:17.937995,91
15:57:17.937995,17664
15:57:17.937995,0
15:57:17.937995,47
15:57:17.937995,5888
15:57:17.937995,0
15:57:17.937995,0
15:57:17.937995,-4096
15:57:17.937995,-1
15:57:17.937995,-21
15:57:17.937995,-3329
15:57:17.937995,-1
15:57:17.937995,2
15:57:17.937995,5888
15:57:17.937995,0
15:57:17.937995,40
15:57:17.937995,12032
15:57:17.937995,0
15:57:17.937995,52
15:57:17.937995,14080
15:57:17.937995,0
15:57:17.937995,55
15:57:17.937995,13312
15:57:17.937995,0
15:57:17.937995,47
15:57:17.937995,12800
15:57:17.937995,0
15:57:17.937995,57
15:57:17.937995,15104
15:57:17.937995,0
15:57:17.937995,59
15:57:17.937995,16384
15:57:17.937995,0
15:57:17.937995,62
15:57:17.937995,15104
15:57:17.937995,0
15:57:17.937995,59
15:57:17.937995,15872
15:57:17.937995,0
15:57:17.937995,57
15:57:17.937995,14080
15:57:17.937995,0
15:57:17.937995,52
15:57:17.937995,11520
15:57:17.937995,0
15:57:17.937995,40
15:57:17.937995,10240
15:57:17.937995,0
15:57:17.937995,38
15:57:17.937995,8448
15:57:17.937995,0
15:57:17.937995,33
15:57:17.937995,7936
15:57:17.937995,0
15:57:17.937995,28
15:57:17.937995,8960
15:57:17.937995,0
15:57:17.937995,45
15:57:17.937995,14080
15:57:17.937995,0
15:57:17.937995,62
15:57:17.937995,15872
15:57:17.937995,0
15:57:17.937995,47
15:57:18.570684,11
15:57:18.570684,-1792
15:57:18.570684,-1
15:57:18.570684,0
15:57:18.570684,2304
15:57:18.570684,0
15:57:18.570684,23
15:57:18.570684,11520
15:57:18.570684,0
15:57:18.570684,45
15:57:18.570684,7936
15:57:18.570684,0
15:57:18.570684,31
15:57:18.570684,9728
15:57:18.570684,0
15:57:18.570684,35
15:57:18.570684,8448
15:57:18.570684,0
15:57:18.570684,31
15:57:18.570684,14080
15:57:18.570684,0
15:57:18.570684,158
15:57:18.570684,512
15:57:18.570684,1
15:57:18.570684,-83
15:57:18.570684,-3841
15:57:18.570684,-5
15:57:18.570684,-1696
15:57:18.570684,12799
15:57:18.570684,-5
15:57:18.570684,-397
15:57:18.570684,-15617
15:57:18.570684,-1
15:57:18.570684,55
15:57:18.570684,-14080
15:57:18.570684,0
15:57:18.570684,227
15:57:18.570684,-14848
15:57:18.570684,0
15:57:18.570684,215
15:57:18.570684,-9216
15:57:18.570684,0
15:57:18.570684,203
15:57:18.570684,-14848
15:57:18.570684,0
15:57:18.570684,198
15:57:18.570684,-16640
15:57:18.570684,0
15:57:18.570684,184
15:57:18.570684,-18944
15:57:18.570684,0
15:57:18.570684,179
15:57:18.570684,-20992
15:57:18.570684,0
15:57:18.570684,170
15:57:18.570684,-24064
15:57:18.570684,0
15:57:18.570684,160
15:57:18.570684,-25088
15:57:18.570684,0
15:57:18.570684,155
15:57:18.570684,-27136
15:57:18.570684,0
15:57:18.570684,139
15:57:18.570684,31744
15:57:18.570684,0
15:57:18.570684,110
15:57:18.570684,23808
15:57:18.570684,0
15:57:18.570684,71
15:57:18.570684,12800
15:57:18.570684,0
15:57:18.570684,33
15:57:18.570684,2816
15:57:18.570684,0
15:57:18.570684,-2
15:57:18.570684,767
15:57:18.570684,0
15:57:18.570684,19
15:57:18.570684,8448
15:57:18.570684,0
15:57:18.570684,45
15:57:18.570684,14080
15:57:18.570684,0
15:57:18.570684,62
15:57:18.570684,16384
15:57:18.570684,0
15:57:18.570684,64
15:57:18.570684,15104
15:57:18.570684,0
15:57:18.570684,55
15:57:18.570684,13312
15:57:18.570684,0
15:57:18.570684,50
15:57:18.570684,12800
15:57:18.570684,0
15:57:18.570684,50
15:57:18.570684,12800
15:57:18.570684,0
15:57:18.570684,52
15:57:18.570684,14080
15:57:18.570684,0
15:57:18.570684,55
15:57:18.570684,14080
15:57:18.570684,0
15:57:18.570684,55
15:57:18.570684,13312
15:57:18.570684,0
15:57:18.570684,50
15:57:19.110648,47
15:57:19.110648,12800
15:57:19.110648,0
15:57:19.110648,45
15:57:19.110648,10240
15:57:19.110648,0
15:57:19.110648,35
15:57:19.110648,7936
15:57:19.110648,0
15:57:19.110648,28
15:57:19.110648,5888
15:57:19.110648,0
15:57:19.110648,26
15:57:19.110648,6656
15:57:19.110648,0
15:57:19.110648,23
15:57:19.110648,4864
15:57:19.110648,0
15:57:19.110648,19
15:57:19.110648,6656
15:57:19.110648,0
15:57:19.110648,40
15:57:19.110648,11008
15:57:19.110648,0
15:57:19.110648,35
15:57:19.110648,8448
15:57:19.110648,0
15:57:19.110648,33
15:57:19.110648,8448
15:57:19.110648,0
15:57:19.110648,31
15:57:19.110648,7936
15:57:19.110648,0
15:57:19.110648,31
15:57:19.110648,7168
15:57:19.110648,0
15:57:19.110648,26
15:57:19.110648,6656
15:57:19.110648,0
15:57:19.110648,31
15:57:19.110648,8960
15:57:19.110648,0
15:57:19.110648,50
15:57:19.110648,14592
15:57:19.110648,0
15:57:19.110648,57
15:57:19.110648,12032
15:57:19.110648,0
15:57:19.110648,26
15:57:19.110648,512
15:57:19.110648,0
15:57:19.110648,-4
15:57:19.110648,2047
15:57:19.110648,0
15:57:19.110648,21
15:57:19.110648,8448
15:57:19.110648,0
15:57:19.110648,31
15:57:19.110648,5376
15:57:19.110648,0
15:57:19.110648,16
15:57:19.110648,5888
15:57:19.110648,0
15:57:19.110648,26
15:57:19.110648,5888
15:57:19.110648,0
15:57:19.110648,28
15:57:19.110648,12032
15:57:19.110648,0
15:57:19.110648,141
15:57:19.110648,-7424
15:57:19.110648,0
15:57:19.110648,-129
15:57:19.110648,-16129
15:57:19.110648,-5
15:57:19.110648,-1725
15:57:19.110648,10751
15:57:19.110648,-5
15:57:19.110648,-400
15:57:19.110648,-16897
15:57:19.110648,-1
15:57:19.110648,47
15:57:19.110648,-14848
15:57:19.110648,0
15:57:19.110648,225
15:57:19.110648,-15872
15:57:19.110648,0
15:57:19.110648,213
15:57:19.110648,-8704
15:57:19.110648,0
15:57:19.110648,203
15:57:19.110648,-14848
15:57:19.110648,0
15:57:19.110648,194
15:57:19.110648,-18432
15:57:19.110648,0
15:57:19.110648,184
15:57:19.110648,-18432
15:57:19.110648,0
15:57:19.110648,174
15:57:19.110648,-22784
15:57:19.110648,0
15:57:19.110648,167
15:57:19.110648,-24064
15:57:19.110648,0
15:57:19.110648,153
15:57:19.110648,-27648
15:57:19.110648,0
15:57:19.110648,146
15:57:19.651185,143
15:57:19.651185,-31232
15:57:19.651185,0
15:57:19.651185,117
15:57:19.651185,25088
15:57:19.651185,0
15:57:19.651185,81
15:57:19.651185,16384
15:57:19.651185,0
15:57:19.651185,45
15:57:19.651185,5888
15:57:19.651185,0
15:57:19.651185,4
15:57:19.651185,-2304
15:57:19.651185,-1
15:57:19.651185,-11
15:57:19.651185,2559
15:57:19.651185,0
15:57:19.651185,40
15:57:19.651185,14080
15:57:19.651185,0
15:57:19.651185,59
15:57:19.651185,16384
15:57:19.651185,0
15:57:19.651185,69
15:57:19.651185,18176
15:57:19.651185,0
15:57:19.651185,74
15:57:19.651185,17664
15:57:19.651185,0
15:57:19.651185,62
15:57:19.651185,14592
15:57:19.651185,0
15:57:19.651185,59
15:57:19.651185,15104
15:57:19.651185,0
15:57:19.651185,62
15:57:19.651185,16384
15:57:19.651185,0
15:57:19.651185,64
15:57:19.651185,16384
15:57:19.651185,0
15:57:19.651185,64
15:57:19.651185,16384
15:57:19.651185,0
15:57:19.651185,64
15:57:19.651185,16384
15:57:19.651185,0
15:57:19.651185,64
15:57:19.651185,15872
15:57:19.651185,0
15:57:19.651185,57
15:57:19.651185,14592
15:57:19.651185,0
15:57:19.651185,55
15:57:19.651185,11520
15:57:19.651185,0
15:57:19.651185,35
15:57:19.651185,8448
15:57:19.651185,0
15:57:19.651185,35
15:57:19.651185,8448
15:57:19.651185,0
15:57:19.651185,28
15:57:19.651185,7168
15:57:19.651185,0
15:57:19.651185,26
15:57:19.651185,5888
15:57:19.651185,0
15:57:19.651185,23
15:57:19.651185,6656
15:57:19.651185,0
15:57:19.651185,21
15:57:19.651185,4864
15:57:19.651185,0
15:57:19.651185,21
15:57:19.651185,5888
15:57:19.651185,0
15:57:19.651185,26
15:57:19.651185,6656
15:57:19.651185,0
15:57:19.651185,23
15:57:19.651185,5888
15:57:19.651185,0
15:57:19.651185,28
15:57:19.651185,6656
15:57:19.651185,0
15:57:19.651185,21
15:57:19.651185,5376
15:57:19.651185,0
15:57:19.651185,23
15:57:19.651185,5888
15:57:19.651185,0
15:57:19.651185,23
15:57:19.651185,6656
15:57:19.651185,0
15:57:19.651185,23
15:57:19.651185,5888
15:57:19.651185,0
15:57:19.651185,23
15:57:19.651185,7936
15:57:19.651185,0
15:57:19.651185,40
15:57:19.651185,13312
15:57:19.651185,0
15:57:19.651185,57
15:57:19.651185,12800
15:57:19.651185,0
15:57:19.651185,35
15:57:20.237491,14
15:57:20.237491,-1024
15:57:20.237491,-1
15:57:20.237491,-4
15:57:20.237491,2047
15:57:20.237491,0
15:57:20.237491,21
15:57:20.237491,5888
15:57:20.237491,0
15:57:20.237491,16
15:57:20.237491,3584
15:57:20.237491,0
15:57:20.237491,26
15:57:20.237491,10240
15:57:20.237491,0
15:57:20.237491,35
15:57:20.237491,7168
15:57:20.237491,0
15:57:20.237491,33
15:57:20.237491,23808
15:57:20.237491,0
15:57:20.237491,220
15:57:20.237491,-25856
15:57:20.237491,0
15:57:20.237491,-524
15:57:20.237491,22527
15:57:20.237491,-6
15:57:20.237491,-1500
15:57:20.237491,18431
15:57:20.237491,-3
15:57:20.237491,-153
15:57:20.237491,-5633
15:57:20.237491,-1
15:57:20.237491,127
15:57:20.237491,-9216
15:57:20.237491,0
15:57:20.237491,189
15:57:20.237491,-16640
15:57:20.237491,0
15:57:20.237491,215
15:57:20.237491,-12800
15:57:20.237491,0
15:57:20.237491,194
15:57:20.237491,-15872
15:57:20.237491,0
15:57:20.237491,186
15:57:20.237491,-20224
15:57:20.237491,0
15:57:20.237491,172
15:57:20.237491,-22016
15:57:20.237491,0
15:57:20.237491,167
15:57:20.237491,-24576
15:57:20.237491,0
15:57:20.237491,153
15:57:20.237491,-27648
15:57:20.237491,0
15:57:20.237491,146
15:57:20.237491,-29440
15:57:20.237491,0
15:57:20.237491,139
15:57:20.237491,-31232
15:57:20.237491,0
15:57:20.237491,124
15:57:20.237491,28160
15:57:20.237491,0
15:57:20.237491,95
15:57:20.237491,20224
15:57:20.237491,0
15:57:20.237491,59
15:57:20.237491,11008
15:57:20.237491,0
15:57:20.237491,21
15:57:20.237491,0
15:57:20.237491,0
15:57:20.237491,-16
15:57:20.237491,-4609
15:57:20.237491,-1
15:57:20.237491,-7
15:57:20.237491,3839
15:57:20.237491,0
15:57:20.237491,28
15:57:20.237491,9728
15:57:20.237491,0
15:57:20.237491,45
15:57:20.237491,12032
15:57:20.237491,0
15:57:20.237491,50
15:57:20.237491,13312
15:57:20.237491,0
15:57:20.237491,50
15:57:20.237491,12032
15:57:20.237491,0
15:57:20.237491,47
15:57:20.237491,12032
15:57:20.237491,0
15:57:20.237491,50
15:57:20.237491,13312
15:57:20.237491,0
15:57:20.237491,55
15:57:20.237491,14080
15:57:20.237491,0
15:57:20.237491,55
15:57:20.237491,14080
15:57:20.237491,0
15:57:20.237491,50
15:57:20.237491,12800
15:57:20.237491,0
15:57:20.237491,50
15:57:20.776072,45
15:57:20.776072,10240
15:57:20.776072,0
15:57:20.776072,35
15:57:20.776072,7936
15:57:20.776072,0
15:57:20.776072,26
15:57:20.776072,6656
15:57:20.776072,0
15:57:20.776072,31
15:57:20.776072,6656
15:57:20.776072,0
15:57:20.776072,21
15:57:20.776072,5376
15:57:20.776072,0
15:57:20.776072,23
15:57:20.776072,7936
15:57:20.776072,0
15:57:20.776072,40
15:57:20.776072,9728
15:57:20.776072,0
15:57:20.776072,33
15:57:20.776072,8448
15:57:20.776072,0
15:57:20.776072,33
15:57:20.776072,8448
15:57:20.776072,0
15:57:20.776072,35
15:57:20.776072,9728
15:57:20.776072,0
15:57:20.776072,40
15:57:20.776072,9728
15:57:20.776072,0
15:57:20.776072,38
15:57:20.776072,10240
15:57:20.776072,0
15:57:20.776072,35
15:57:20.776072,8960
15:57:20.776072,0
15:57:20.776072,35
15:57:20.776072,9728
15:57:20.776072,0
15:57:20.776072,40
15:57:20.776072,11008
15:57:20.776072,0
15:57:20.776072,40
15:57:20.776072,9728
15:57:20.776072,0
15:57:20.776072,38
15:57:20.776072,8960
15:57:20.776072,0
15:57:20.776072,35
15:57:20.776072,9728
15:57:20.776072,0
15:57:20.776072,40
15:57:20.776072,9728
15:57:20.776072,0
15:57:20.776072,38
15:57:20.776072,9728
15:57:20.776072,0
15:57:20.776072,45
15:57:20.776072,14080
15:57:20.776072,0
15:57:20.776072,64
15:57:20.776072,17152
15:57:20.776072,0
15:57:20.776072,59
15:57:20.776072,9728
15:57:20.776072,0
15:57:20.776072,9
15:57:20.776072,0
15:57:20.776072,0
15:57:20.776072,9
15:57:20.776072,4096
15:57:20.776072,0
15:57:20.776072,23
15:57:20.776072,6656
15:57:20.776072,0
15:57:20.776072,23
15:57:20.776072,5376
15:57:20.776072,0
15:57:20.776072,19
15:57:20.776072,4096
15:57:20.776072,0
15:57:20.776072,14
15:57:20.776072,3584
15:57:20.776072,0
15:57:20.776072,28
15:57:20.776072,31232
15:57:20.776072,0
15:57:20.776072,234
15:57:20.776072,-13312
15:57:20.776072,-1
15:57:20.776072,-985
15:57:20.776072,14847
15:57:20.776072,-7
15:57:20.776072,-1361
15:57:20.776072,8191
15:57:20.776072,-2
15:57:20.776072,-79
15:57:20.776072,8191
15:57:20.776072,0
15:57:20.776072,179
15:57:20.776072,-7424
15:57:20.776072,0
15:57:20.776072,198
15:57:20.776072,-11008
15:57:20.776072,0
15:57:20.776072,222
15:57:21.315691,203
15:57:21.315691,-14848
15:57:21.315691,0
15:57:21.315691,198
15:57:21.315691,-16640
15:57:21.315691,0
15:57:21.315691,182
15:57:21.315691,-19712
15:57:21.315691,0
15:57:21.315691,177
15:57:21.315691,-22016
15:57:21.315691,0
15:57:21.315691,172
15:57:21.315691,-18432
15:57:21.315691,0
15:57:21.315691,184
15:57:21.315691,-20224
15:57:21.315691,0
15:57:21.315691,174
15:57:21.315691,-22016
15:57:21.315691,0
15:57:21.315691,160
15:57:21.315691,-27136
15:57:21.315691,0
15:57:21.315691,136
15:57:21.315691,29952
15:57:21.315691,0
15:57:21.315691,98
15:57:21.315691,20224
15:57:21.315691,0
15:57:21.315691,55
15:57:21.315691,7936
15:57:21.315691,0
15:57:21.315691,14
15:57:21.315691,0
15:57:21.315691,0
15:57:21.315691,0
15:57:21.315691,2816
15:57:21.315691,0
15:57:21.315691,28
15:57:21.315691,11008
15:57:21.315691,0
15:57:21.315691,55
15:57:21.315691,15872
15:57:21.315691,0
15:57:21.315691,67
15:57:21.315691,16384
15:57:21.315691,0
15:57:21.315691,59
15:57:21.315691,14592
15:57:21.315691,0
15:57:21.315691,55
15:57:21.315691,13312
15:57:21.315691,0
15:57:21.315691,52
15:57:21.315691,13312
15:57:21.315691,0
15:57:21.315691,55
15:57:21.315691,14592
15:57:21.315691,0
15:57:21.315691,59
15:57:21.315691,15104
15:57:21.315691,0
15:57:21.315691,59
15:57:21.315691,15104
15:57:21.315691,0
15:57:21.315691,62
15:57:21.315691,14592
15:57:21.315691,0
15:57:21.315691,55
15:57:21.315691,15104
15:57:21.315691,0
15:57:21.315691,55
15:57:21.315691,12800
15:57:21.315691,0
15:57:21.315691,47
15:57:21.315691,11520
15:57:21.315691,0
15:57:21.315691,38
15:57:21.315691,8960
15:57:21.315691,0
15:57:21.315691,33
15:57:21.315691,8448
15:57:21.315691,0
15:57:21.315691,35
15:57:21.315691,8448
15:57:21.315691,0
15:57:21.315691,31
15:57:21.315691,7168
15:57:21.315691,0
15:57:21.315691,26
15:57:21.315691,7168
15:57:21.315691,0
15:57:21.315691,31
15:57:21.315691,7936
15:57:21.315691,0
15:57:21.315691,28
15:57:21.315691,5888
15:57:21.315691,0
15:57:21.315691,23
15:57:21.315691,6656
15:57:21.315691,0
15:57:21.315691,26
15:57:21.315691,6656
15:57:21.315691,0
15:57:21.315691,21
15:57:21.315691,4864
15:57:21.315691,0
15:57:21.315691,19
15:57:21.901641,19
15:57:21.901641,4096
15:57:21.901641,0
15:57:21.901641,16
15:57:21.901641,4864
15:57:21.901641,0
15:57:21.901641,23
15:57:21.901641,7168
15:57:21.901641,0
15:57:21.901641,38
15:57:21.901641,10240
15:57:21.901641,0
15:57:21.901641,35
15:57:21.901641,8448
15:57:21.901641,0
15:57:21.901641,35
15:57:21.901641,7936
15:57:21.901641,0
15:57:21.901641,26
15:57:21.901641,7168
15:57:21.901641,0
15:57:21.901641,31
15:57:21.901641,5888
15:57:21.901641,0
15:57:21.901641,21
15:57:21.901641,5888
15:57:21.901641,0
15:57:21.901641,26
15:57:21.901641,6656
15:57:21.901641,0
15:57:21.901641,23
15:57:21.901641,5888
15:57:21.901641,0
15:57:21.901641,28
15:57:21.901641,8960
15:57:21.901641,0
15:57:21.901641,52
15:57:21.901641,14592
15:57:21.901641,0
15:57:21.901641,47
15:57:21.901641,8448
15:57:21.901641,0
15:57:21.901641,14
15:57:21.901641,-1024
15:57:21.901641,-1
15:57:21.901641,-9
15:57:21.901641,255
15:57:21.901641,0
15:57:21.901641,9
15:57:21.901641,3584
15:57:21.901641,0
15:57:21.901641,11
15:57:21.901641,2816
15:57:21.901641,0
15:57:21.901641,9
15:57:21.901641,0
15:57:21.901641,0
15:57:21.901641,-4
15:57:21.901641,1279
15:57:21.901641,0
15:57:21.901641,21
15:57:21.901641,23808
15:57:21.901641,0
15:57:21.901641,220
15:57:21.901641,8448
15:57:21.901641,0
15:57:21.901641,-829
15:57:21.901641,27135
15:57:21.901641,-7
15:57:21.901641,-1473
15:57:21.901641,-21249
15:57:21.901641,-3
15:57:21.901641,-127
15:57:21.901641,-769
15:57:21.901641,-1
15:57:21.901641,148
15:57:21.901641,-10496
15:57:21.901641,0
15:57:21.901641,191
15:57:21.901641,-13568
15:57:21.901641,0
15:57:21.901641,213
15:57:21.901641,-14848
15:57:21.901641,0
15:57:21.901641,194
15:57:21.901641,-15360
15:57:21.901641,0
15:57:21.901641,189
15:57:21.901641,-18432
15:57:21.901641,0
15:57:21.901641,184
15:57:21.901641,-20224
15:57:21.901641,0
15:57:21.901641,172
15:57:21.901641,-21504
15:57:21.901641,0
15:57:21.901641,167
15:57:21.901641,-24576
15:57:21.901641,0
15:57:21.901641,158
15:57:21.901641,-26368
15:57:21.901641,0
15:57:21.901641,146
15:57:21.901641,-28928
15:57:21.901641,0
15:57:21.901641,136
15:57:21.901641,31744
15:57:21.901641,0
15:57:21.901641,110
15:57:22.485075,91
15:57:22.485075,17664
15:57:22.485075,0
15:57:22.485075,52
15:57:22.485075,8960
15:57:22.485075,0
15:57:22.485075,9
15:57:22.485075,-1792
15:57:22.485075,-1
15:57:22.485075,-7
15:57:22.485075,1279
15:57:22.485075,0
15:57:22.485075,21
15:57:22.485075,12800
15:57:22.485075,0
15:57:22.485075,74
15:57:22.485075,20224
15:57:22.485075,0
15:57:22.485075,81
15:57:22.485075,22016
15:57:22.485075,0
15:57:22.485075,81
15:57:22.485075,19456
15:57:22.485075,0
15:57:22.485075,71
15:57:22.485075,18176
15:57:22.485075,0
15:57:22.485075,74
15:57:22.485075,19456
15:57:22.485075,0
15:57:22.485075,79
15:57:22.485075,19456
15:57:22.485075,0
15:57:22.485075,76
15:57:22.485075,20224
15:57:22.485075,0
15:57:22.485075,76
15:57:22.485075,17664
15:57:22.485075,0
15:57:22.485075,64
15:57:22.485075,17152
15:57:22.485075,0
15:57:22.485075,59
15:57:22.485075,12032
15:57:22.485075,0
15:57:22.485075,43
15:57:22.485075,11008
15:57:22.485075,0
15:57:22.485075,43
15:57:22.485075,9728
15:57:22.485075,0
15:57:22.485075,33
15:57:22.485075,7936
15:57:22.485075,0
15:57:22.485075,28
15:57:22.485075,6656
15:57:22.485075,0
15:57:22.485075,28
15:57:22.485075,7936
15:57:22.485075,0
15:57:22.485075,26
15:57:22.485075,5888
15:57:22.485075,0
15:57:22.485075,26
15:57:22.485075,7168
15:57:22.485075,0
15:57:22.485075,26
15:57:22.485075,7168
15:57:22.485075,0
15:57:22.485075,28
15:57:22.485075,5888
15:57:22.485075,0
15:57:22.485075,21
15:57:22.485075,5888
15:57:22.485075,0
15:57:22.485075,28
15:57:22.485075,6656
15:57:22.485075,0
15:57:22.485075,23
15:57:22.485075,6656
15:57:22.485075,0
15:57:22.485075,21
15:57:22.485075,4864
15:57:22.485075,0
15:57:22.485075,23
15:57:22.485075,5888
15:57:22.485075,0
15:57:22.485075,21
15:57:22.485075,6656
15:57:22.485075,0
15:57:22.485075,33
15:57:22.485075,11008
15:57:22.485075,0
15:57:22.485075,50
15:57:22.485075,11008
15:57:22.485075,0
15:57:22.485075,21
15:57:22.485075,1024
15:57:22.485075,0
15:57:22.485075,-4
15:57:22.485075,255
15:57:22.485075,0
15:57:22.485075,11
15:57:22.485075,4864
15:57:22.485075,0
15:57:22.485075,16
15:57:22.485075,3584
15:57:22.485075,0
15:57:22.485075,14
15:57:23.025688,11
15:57:23.025688,2816
15:57:23.025688,0
15:57:23.025688,14
15:57:23.025688,4864
15:57:23.025688,0
15:57:23.025688,55
15:57:23.025688,-20992
15:57:23.025688,0
15:57:23.025688,213
15:57:23.025688,-4352
15:57:23.025688,-2
15:57:23.025688,-1205
15:57:23.025688,3327
15:57:23.025688,-6
15:57:23.025688,-869
15:57:23.025688,2047
15:57:23.025688,-1
15:57:23.025688,-71
15:57:23.025688,23551
15:57:23.025688,0
15:57:23.025688,218
15:57:23.025688,-15872
15:57:23.025688,0
15:57:23.025688,184
15:57:23.025688,-11008
15:57:23.025688,0
15:57:23.025688,206
15:57:23.025688,-16640
15:57:23.025688,0
15:57:23.025688,191
15:57:23.025688,-17920
15:57:23.025688,0
15:57:23.025688,179
15:57:23.025688,-20992
15:57:23.025688,0
15:57:23.025688,174
15:57:23.025688,-22784
15:57:23.025688,0
15:57:23.025688,160
15:57:23.025688,-25856
15:57:23.025688,0
15:57:23.025688,150
15:57:23.025688,-28160
15:57:23.025688,0
15:57:23.025688,143
15:57:23.025688,-29440
15:57:23.025688,0
15:57:23.025688,131
15:57:23.025688,31232
15:57:23.025688,0
15:57:23.025688,115
15:57:23.025688,25088
15:57:23.025688,0
15:57:23.025688,76
15:57:23.025688,13312
15:57:23.025688,0
15:57:23.025688,31
15:57:23.025688,1792
15:57:23.025688,0
15:57:23.025688,-14
15:57:23.025688,-6401
15:57:23.025688,-1
15:57:23.025688,-21
15:57:23.025688,-1537
15:57:23.025688,-1
15:57:23.025688,19
15:57:23.025688,11008
15:57:23.025688,0
15:57:23.025688,50
15:57:23.025688,14592
15:57:23.025688,0
15:57:23.025688,69
15:57:23.025688,17664
15:57:23.025688,0
15:57:23.025688,64
15:57:23.025688,16384
15:57:23.025688,0
15:57:23.025688,64
15:57:23.025688,17152
15:57:23.025688,0
15:57:23.025688,74
15:57:23.025688,20224
15:57:23.025688,0
15:57:23.025688,74
15:57:23.025688,18176
15:57:23.025688,0
15:57:23.025688,69
15:57:23.025688,16384
15:57:23.025688,0
15:57:23.025688,62
15:57:23.025688,14592
15:57:23.025688,0
15:57:23.025688,47
15:57:23.025688,10240
15:57:23.025688,0
15:57:23.025688,38
15:57:23.025688,8448
15:57:23.025688,0
15:57:23.025688,31
15:57:23.025688,7936
15:57:23.025688,0
15:57:23.025688,28
15:57:23.025688,6656
15:57:23.025688,0
15:57:23.025688,26
15:57:23.025688,6656
15:57:23.025688,0
15:57:23.025688,26
15:57:23.561445,26
15:57:23.561445,6656
15:57:23.561445,0
15:57:23.561445,26
15:57:23.561445,6656
15:57:23.561445,0
15:57:23.561445,26
15:57:23.561445,6656
15:57:23.561445,0
15:57:23.561445,26
15:57:23.561445,6656
15:57:23.561445,0
15:57:23.561445,23
15:57:23.561445,7936
15:57:23.561445,0
15:57:23.561445,43
15:57:23.561445,11520
15:57:23.561445,0
15:57:23.561445,38
15:57:23.561445,9728
15:57:23.561445,0
15:57:23.561445,35
15:57:23.561445,8448
15:57:23.561445,0
15:57:23.561445,33
15:57:23.561445,8448
15:57:23.561445,0
15:57:23.561445,33
15:57:23.561445,10240
15:57:23.561445,0
15:57:23.561445,52
15:57:23.561445,15104
15:57:23.561445,0
15:57:23.561445,59
15:57:23.561445,12032
15:57:23.561445,0
15:57:23.561445,21
15:57:23.561445,-512
15:57:23.561445,-1
15:57:23.561445,-2
15:57:23.561445,3071
15:57:23.561445,0
15:57:23.561445,19
15:57:23.561445,6656
15:57:23.561445,0
15:57:23.561445,28
15:57:23.561445,5376
15:57:23.561445,0
15:57:23.561445,19
15:57:23.561445,4864
15:57:23.561445,0
15:57:23.561445,14
15:57:23.561445,2816
15:57:23.561445,0
15:57:23.561445,14
15:57:23.561445,14080
15:57:23.561445,0
15:57:23.561445,177
15:57:23.561445,-12800
15:57:23.561445,0
15:57:23.561445,-321
15:57:23.561445,-6913
15:57:23.561445,-6
15:57:23.561445,-1663
15:57:23.561445,12799
15:57:23.561445,-4
15:57:23.561445,-261
15:57:23.561445,-10753
15:57:23.561445,-1
15:57:23.561445,86
15:57:23.561445,-10496
15:57:23.561445,0
15:57:23.561445,210
15:57:23.561445,-15872
15:57:23.561445,0
15:57:23.561445,215
15:57:23.561445,-11776
15:57:23.561445,0
15:57:23.561445,194
15:57:23.561445,-15872
15:57:23.561445,0
15:57:23.561445,194
15:57:23.561445,-18432
15:57:23.561445,0
15:57:23.561445,179
15:57:23.561445,-20224
15:57:23.561445,0
15:57:23.561445,172
15:57:23.561445,-22784
15:57:23.561445,0
15:57:23.561445,167
15:57:23.561445,-22784
15:57:23.561445,0
15:57:23.561445,162
15:57:23.561445,-24576
15:57:23.561445,0
15:57:23.561445,155
15:57:23.561445,-27648
15:57:23.561445,0
15:57:23.561445,139
15:57:23.561445,32512
15:57:23.561445,0
15:57:23.561445,107
15:57:23.561445,22528
15:57:23.561445,0
15:57:23.561445,67
15:57:23.561445,11008
15:57:23.561445,0
15:57:23.561445,21
15:57:24.114483,-2
15:57:24.114483,-3329
15:57:24.114483,-1
15:57:24.114483,-16
15:57:24.114483,-769
15:57:24.114483,-1
15:57:24.114483,16
15:57:24.114483,8960
15:57:24.114483,0
15:57:24.114483,52
15:57:24.114483,18176
15:57:24.114483,0
15:57:24.114483,83
15:57:24.114483,20224
15:57:24.114483,0
15:57:24.114483,76
15:57:24.114483,19456
15:57:24.114483,0
15:57:24.114483,71
15:57:24.114483,17664
15:57:24.114483,0
15:57:24.114483,67
15:57:24.114483,17152
15:57:24.114483,0
15:57:24.114483,69
15:57:24.114483,18944
15:57:24.114483,0
15:57:24.114483,74
15:57:24.114483,18944
15:57:24.114483,0
15:57:24.114483,71
15:57:24.114483,17664
15:57:24.114483,0
15:57:24.114483,67
15:57:24.114483,16384
15:57:24.114483,0
15:57:24.114483,59
15:57:24.114483,14080
15:57:24.114483,0
15:57:24.114483,50
15:57:24.114483,11520
15:57:24.114483,0
15:57:24.114483,40
15:57:24.114483,8960
15:57:24.114483,0
15:57:24.114483,35
15:57:24.114483,8960
15:57:24.114483,0
15:57:24.114483,31
15:57:24.114483,6656
15:57:24.114483,0
15:57:24.114483,26
15:57:24.114483,6656
15:57:24.114483,0
15:57:24.114483,26
15:57:24.114483,6656
15:57:24.114483,0
15:57:24.114483,26
15:57:24.114483,7168
15:57:24.114483,0
15:57:24.114483,28
15:57:24.114483,7168
15:57:24.114483,0
15:57:24.114483,28
15:57:24.114483,6656
15:57:24.114483,0
15:57:24.114483,23
15:57:24.114483,5376
15:57:24.114483,0
15:57:24.114483,23
15:57:24.114483,5888
15:57:24.114483,0
15:57:24.114483,21
15:57:24.114483,5888
15:57:24.114483,0
15:57:24.114483,21
15:57:24.114483,4864
15:57:24.114483,0
15:57:24.114483,19
15:57:24.114483,5888
15:57:24.114483,0
15:57:24.114483,21
15:57:24.114483,4864
15:57:24.114483,0
15:57:24.114483,16
15:57:24.114483,4096
15:57:24.114483,0
15:57:24.114483,19
15:57:24.114483,6656
15:57:24.114483,0
15:57:24.114483,38
15:57:24.114483,11520
15:57:24.114483,0
15:57:24.114483,47
15:57:24.114483,9728
15:57:24.114483,0
15:57:24.114483,14
15:57:24.114483,-3584
15:57:24.114483,-1
15:57:24.114483,-21
15:57:24.114483,-3329
15:57:24.114483,-1
15:57:24.114483,-2
15:57:24.114483,3071
15:57:24.114483,0
15:57:24.114483,11
15:57:24.114483,2304
15:57:24.114483,0
15:57:24.114483,11
15:57:24.689916,14
15:57:24.689916,2304
15:57:24.689916,0
15:57:24.689916,7
15:57:24.689916,2816
15:57:24.689916,0
15:57:24.689916,47
15:57:24.689916,-24064
15:57:24.689916,0
15:57:24.689916,237
15:57:24.689916,21504
15:57:24.689916,-1
15:57:24.689916,-1143
15:57:24.689916,24063
15:57:24.689916,-7
15:57:24.689916,-1147
15:57:24.689916,-21761
15:57:24.689916,-2
15:57:24.689916,-52
15:57:24.689916,16639
15:57:24.689916,0
15:57:24.689916,218
15:57:24.689916,-4864
15:57:24.689916,0
15:57:24.689916,203
15:57:24.689916,-9728
15:57:24.689916,0
15:57:24.689916,220
15:57:24.689916,-14080
15:57:24.689916,0
15:57:24.689916,196
15:57:24.689916,-16640
15:57:24.689916,0
15:57:24.689916,174
15:57:24.689916,-23296
15:57:24.689916,0
15:57:24.689916,177
15:57:24.689916,-17920
15:57:24.689916,0
15:57:24.689916,172
15:57:24.689916,-23296
15:57:24.689916,0
15:57:24.689916,167
15:57:24.689916,-26368
15:57:24.689916,0
15:57:24.689916,136
15:57:24.689916,-28928
15:57:24.689916,0
15:57:24.689916,148
15:57:24.689916,-28160
15:57:24.689916,0
15:57:24.689916,131
15:57:24.689916,28672
15:57:24.689916,0
15:57:24.689916,110
15:57:24.689916,23808
15:57:24.689916,0
15:57:24.689916,50
15:57:24.689916,4864
15:57:24.689916,0
15:57:24.689916,14
15:57:24.689916,1792
15:57:24.689916,0
15:57:24.689916,4
15:57:24.689916,4864
15:57:24.689916,0
15:57:24.689916,43
15:57:24.689916,12800
15:57:24.689916,0
15:57:24.689916,50
15:57:24.689916,17152
15:57:24.689916,0
15:57:24.689916,74
15:57:24.689916,17664
15:57:24.689916,0
15:57:24.689916,69
15:57:24.689916,20736
15:57:24.689916,0
15:57:24.689916,83
15:57:24.689916,14592
15:57:24.689916,0
15:57:24.689916,47
15:57:24.689916,15872
15:57:24.689916,0
15:57:24.689916,69
15:57:24.689916,17152
15:57:24.689916,0
15:57:24.689916,64
15:57:24.689916,16384
15:57:24.689916,0
15:57:24.689916,64
15:57:24.689916,16384
15:57:24.689916,0
15:57:24.689916,71
15:57:24.689916,17152
15:57:24.689916,0
15:57:24.689916,57
15:57:24.689916,14592
15:57:24.689916,0
15:57:24.689916,45
15:57:24.689916,7168
15:57:24.689916,0
15:57:24.689916,31
15:57:24.689916,11008
15:57:24.689916,0
15:57:24.689916,45
15:57:24.689916,7936
15:57:24.689916,0
15:57:24.689916,26
15:57:25.276425,31
15:57:25.276425,5888
15:57:25.276425,0
15:57:25.276425,14
15:57:25.276425,5376
15:57:25.276425,0
15:57:25.276425,26
15:57:25.276425,4096
15:57:25.276425,0
15:57:25.276425,9
15:57:25.276425,5376
15:57:25.276425,0
15:57:25.276425,50
15:57:25.276425,11520
15:57:25.276425,0
15:57:25.276425,21
15:57:25.276425,5376
15:57:25.276425,0
15:57:25.276425,23
15:57:25.276425,4096
15:57:25.276425,0
15:57:25.276425,16
15:57:25.276425,4096
15:57:25.276425,0
15:57:25.276425,9
15:57:25.276425,1024
15:57:25.276425,0
15:57:25.276425,7
15:57:25.276425,2816
15:57:25.276425,0
15:57:25.276425,11
15:57:25.276425,0
15:57:25.276425,0
15:57:25.276425,-21
15:57:25.276425,-5633
15:57:25.276425,-1
15:57:25.276425,-21
15:57:25.276425,-6913
15:57:25.276425,-1
15:57:25.276425,-21
15:57:25.276425,-1537
15:57:25.276425,-1
15:57:25.276425,-4
15:57:25.276425,-2049
15:57:25.276425,-1
15:57:25.276425,-11
15:57:25.276425,-2049
15:57:25.276425,-1
15:57:25.276425,-11
15:57:25.276425,-2049
15:57:25.276425,-1
15:57:25.276425,0
15:57:25.276425,1792
15:57:25.276425,0
15:57:25.276425,9
15:57:25.276425,4096
15:57:25.276425,0
15:57:25.276425,14
15:57:25.276425,-512
15:57:25.276425,-1
15:57:25.276425,-23
15:57:25.276425,-9473
15:57:25.276425,-1
15:57:25.276425,-35
15:57:25.276425,-4609
15:57:25.276425,-1
15:57:25.276425,-4
15:57:25.276425,255
15:57:25.276425,0
15:57:25.276425,-2
15:57:25.276425,-1537
15:57:25.276425,-1
15:57:25.276425,-7
15:57:25.276425,-2049
15:57:25.276425,-1
15:57:25.276425,-16
15:57:25.276425,-4609
15:57:25.276425,-1
15:57:25.276425,4
15:57:25.276425,25600
15:57:25.276425,0
15:57:25.276425,218
15:57:25.276425,-1792
15:57:25.276425,-1
15:57:25.276425,-843
15:57:25.276425,-4609
15:57:25.276425,-7
15:57:25.276425,-1231
15:57:25.276425,9983
15:57:25.276425,-2
15:57:25.276425,-182
15:57:25.276425,-11265
15:57:25.276425,-1
15:57:25.276425,174
15:57:25.276425,-15872
15:57:25.276425,0
15:57:25.276425,117
15:57:25.276425,-25088
15:57:25.276425,0
15:57:25.276425,198
15:57:25.276425,-22016
15:57:25.276425,0
15:57:25.276425,153
15:57:25.276425,-25088
15:57:25.276425,0
15:57:25.276425,150
15:57:25.276425,-27136
15:57:25.276425,0
15:57:25.276425,141
15:57:25.816510,122
15:57:25.816510,29440
15:57:25.816510,0
15:57:25.816510,107
15:57:25.816510,27392
15:57:25.816510,0
15:57:25.816510,105
15:57:25.816510,26368
15:57:25.816510,0
15:57:25.816510,100
15:57:25.816510,25088
15:57:25.816510,0
15:57:25.816510,86
15:57:25.816510,20736
15:57:25.816510,0
15:57:25.816510,81
15:57:25.816510,18944
15:57:25.816510,0
15:57:25.816510,50
15:57:25.816510,5888
15:57:25.816510,0
15:57:25.816510,7
15:57:25.816510,-512
15:57:25.816510,-1
15:57:25.816510,-21
15:57:25.816510,-9473
15:57:25.816510,-1
15:57:25.816510,-31
15:57:25.816510,-2049
15:57:25.816510,-1
15:57:25.816510,14
15:57:25.816510,6656
15:57:25.816510,0
15:57:25.816510,33
15:57:25.816510,13312
15:57:25.816510,0
15:57:25.816510,64
15:57:25.816510,14592
15:57:25.816510,0
15:57:25.816510,50
15:57:25.816510,13312
15:57:25.816510,0
15:57:25.816510,62
15:57:25.816510,17152
15:57:25.816510,0
15:57:25.816510,64
15:57:25.816510,15104
15:57:25.816510,0
15:57:25.816510,59
15:57:25.816510,15872
15:57:25.816510,0
15:57:25.816510,62
15:57:25.816510,14080
15:57:25.816510,0
15:57:25.816510,52
15:57:25.816510,14080
15:57:25.816510,0
15:57:25.816510,45
15:57:25.816510,9728
15:57:25.816510,0
15:57:25.816510,40
15:57:25.816510,8448
15:57:25.816510,0
15:57:25.816510,21
15:57:25.816510,4096
15:57:25.816510,0
15:57:25.816510,19
15:57:25.816510,5888
15:57:25.816510,0
15:57:25.816510,28
15:57:25.816510,5376
15:57:25.816510,0
15:57:25.816510,4
15:57:25.816510,1792
15:57:25.816510,0
15:57:25.816510,31
15:57:25.816510,8960
15:57:25.816510,0
15:57:25.816510,28
15:57:25.816510,9728
15:57:25.816510,0
15:57:25.816510,45
15:57:25.816510,11520
15:57:25.816510,0
15:57:25.816510,62
15:57:25.816510,29440
15:57:25.816510,0
15:57:25.816510,172
15:57:25.816510,28672
15:57:25.816510,0
15:57:25.816510,-4
15:57:25.816510,3071
15:57:25.816510,0
15:57:25.816510,74
15:57:25.816510,14592
15:57:25.816510,0
15:57:25.816510,79
15:57:25.816510,-4864
15:57:25.816510,0
15:57:25.816510,333
15:57:25.816510,-12288
15:57:25.816510,0
15:57:25.816510,115
15:57:25.816510,-25088
15:57:25.816510,0
15:57:25.816510,33
15:57:25.816510,-26368
15:57:25.816510,-1
15:57:25.816510,150
15:57:26.401978,325
15:57:26.401978,-29440
15:57:26.401978,-1
15:57:26.401978,-405
15:57:26.401978,8703
15:57:26.401978,0
15:57:26.401978,273
15:57:26.401978,-9728
15:57:26.401978,-1
15:57:26.401978,-115
15:57:26.401978,-26113
15:57:26.401978,0
15:57:26.401978,242
15:57:26.401978,15104
15:57:26.401978,0
15:57:26.401978,-69
15:57:26.401978,-2561
15:57:26.401978,-1
15:57:26.401978,45
15:57:26.401978,24320
15:57:26.401978,0
15:57:26.401978,148
15:57:26.401978,-27136
15:57:26.401978,0
15:57:26.401978,249
15:57:26.401978,-21504
15:57:26.401978,0
15:57:26.401978,-666
15:57:26.401978,13055
15:57:26.401978,-7
15:57:26.401978,-1754
15:57:26.401978,-15873
15:57:26.401978,-4
15:57:26.401978,-201
15:57:26.401978,-15617
15:57:26.401978,-1
15:57:26.401978,86
15:57:26.401978,-7936
15:57:26.401978,0
15:57:26.401978,225
15:57:26.401978,-14080
15:57:26.401978,0
15:57:26.401978,206
15:57:26.401978,-14848
15:57:26.401978,0
15:57:26.401978,177
15:57:26.401978,-21504
15:57:26.401978,0
15:57:26.401978,177
15:57:26.401978,-26368
15:57:26.401978,0
15:57:26.401978,124
15:57:26.401978,32512
15:57:26.401978,0
15:57:26.401978,129
15:57:26.401978,30464
15:57:26.401978,0
15:57:26.401978,105
15:57:26.401978,26880
15:57:26.401978,0
15:57:26.401978,110
15:57:26.401978,23808
15:57:26.401978,0
15:57:26.401978,74
15:57:26.401978,22528
15:57:26.401978,0
15:57:26.401978,103
15:57:26.401978,25088
15:57:26.401978,0
15:57:26.401978,74
15:57:26.401978,9728
15:57:26.401978,0
15:57:26.401978,26
15:57:26.401978,6656
15:57:26.401978,0
15:57:26.401978,-9
15:57:26.401978,-12545
15:57:26.401978,-1
15:57:26.401978,-52
15:57:26.401978,-10753
15:57:26.401978,-1
15:57:26.401978,-28
15:57:26.401978,-1537
15:57:26.401978,-1
15:57:26.401978,9
15:57:26.401978,6656
15:57:26.401978,0
15:57:26.401978,35
15:57:26.401978,10240
15:57:26.401978,0
15:57:26.401978,28
15:57:26.401978,4096
15:57:26.401978,0
15:57:26.401978,45
15:57:26.401978,18944
15:57:26.401978,0
15:57:26.401978,38
15:57:26.401978,-4096
15:57:26.401978,-1
15:57:26.401978,-9
15:57:26.401978,6911
15:57:26.401978,0
15:57:26.401978,31
15:57:26.401978,8448
15:57:26.401978,0
15:57:26.401978,38
15:57:26.401978,8960
15:57:26.401978,0
15:57:26.401978,40
15:57:26.941545,47
15:57:26.941545,11008
15:57:26.941545,0
15:57:26.941545,40
15:57:26.941545,11520
15:57:26.941545,0
15:57:26.941545,38
15:57:26.941545,7168
15:57:26.941545,0
15:57:26.941545,28
15:57:26.941545,5888
15:57:26.941545,0
15:57:26.941545,19
15:57:26.941545,6656
15:57:26.941545,0
15:57:26.941545,19
15:57:26.941545,2304
15:57:26.941545,0
15:57:26.941545,43
15:57:26.941545,18944
15:57:26.941545,0
15:57:26.941545,43
15:57:26.941545,1024
15:57:26.941545,0
15:57:26.941545,40
15:57:26.941545,16384
15:57:26.941545,0
15:57:26.941545,19
15:57:26.941545,1024
15:57:26.941545,0
15:57:26.941545,47
15:57:26.941545,14080
15:57:26.941545,0
15:57:26.941545,11
15:57:26.941545,4096
15:57:26.941545,0
15:57:26.941545,62
15:57:26.941545,19456
15:57:26.941545,0
15:57:26.941545,55
15:57:26.941545,11520
15:57:26.941545,0
15:57:26.941545,38
15:57:26.941545,2304
15:57:26.941545,0
15:57:26.941545,-14
15:57:26.941545,-1537
15:57:26.941545,-1
15:57:26.941545,23
15:57:26.941545,10240
15:57:26.941545,0
15:57:26.941545,19
15:57:26.941545,512
15:57:26.941545,0
15:57:26.941545,14
15:57:26.941545,4096
15:57:26.941545,0
15:57:26.941545,9
15:57:26.941545,3584
15:57:26.941545,0
15:57:26.941545,11
15:57:26.941545,1024
15:57:26.941545,0
15:57:26.941545,71
15:57:26.941545,-13568
15:57:26.941545,0
15:57:26.941545,107
15:57:26.941545,-18432
15:57:26.941545,-3
15:57:26.941545,-1485
15:57:26.941545,4095
15:57:26.941545,-6
15:57:26.941545,-709
15:57:26.941545,27391
15:57:26.941545,-1
15:57:26.941545,-31
15:57:26.941545,25855
15:57:26.941545,0
15:57:26.941545,203
15:57:26.941545,-16640
15:57:26.941545,0
15:57:26.941545,182
15:57:26.941545,-19712
15:57:26.941545,0
15:57:26.941545,170
15:57:26.941545,-19712
15:57:26.941545,0
15:57:26.941545,167
15:57:26.941545,-28928
15:57:26.941545,0
15:57:26.941545,162
15:57:26.941545,-20992
15:57:26.941545,0
15:57:26.941545,146
15:57:26.941545,-30720
15:57:26.941545,0
15:57:26.941545,143
15:57:26.941545,31744
15:57:26.941545,0
15:57:26.941545,115
15:57:26.941545,31744
15:57:26.941545,0
15:57:26.941545,122
15:57:26.941545,26880
15:57:26.941545,0
15:57:26.941545,98
15:57:26.941545,20736
15:57:26.941545,0
15:57:26.941545,55
15:57:27.480566,31
15:57:27.480566,1024
15:57:27.480566,0
15:57:27.480566,-16
15:57:27.480566,-6401
15:57:27.480566,-1
15:57:27.480566,-40
15:57:27.480566,-11777
15:57:27.480566,-1
15:57:27.480566,-45
15:57:27.480566,-8705
15:57:27.480566,-1
15:57:27.480566,4
15:57:27.480566,14080
15:57:27.480566,0
15:57:27.480566,76
15:57:27.480566,20736
15:57:27.480566,0
15:57:27.480566,93
15:57:27.480566,27392
15:57:27.480566,0
15:57:27.480566,107
15:57:27.480566,25600
15:57:27.480566,0
15:57:27.480566,100
15:57:27.480566,25600
15:57:27.480566,0
15:57:27.480566,95
15:57:27.480566,22528
15:57:27.480566,0
15:57:27.480566,86
15:57:27.480566,23808
15:57:27.480566,0
15:57:27.480566,93
15:57:27.480566,22016
15:57:27.480566,0
15:57:27.480566,86
15:57:27.480566,22528
15:57:27.480566,0
15:57:27.480566,76
15:57:27.480566,15104
15:57:27.480566,0
15:57:27.480566,64
15:57:27.480566,17664
15:57:27.480566,0
15:57:27.480566,64
15:57:27.480566,14592
15:57:27.480566,0
15:57:27.480566,55
15:57:27.480566,14592
15:57:27.480566,0
15:57:27.480566,50
15:57:27.480566,9728
15:57:27.480566,0
15:57:27.480566,40
15:57:27.480566,13312
15:57:27.480566,0
15:57:27.480566,50
15:57:27.480566,9728
15:57:27.480566,0
15:57:27.480566,43
15:57:27.480566,14592
15:57:27.480566,0
15:57:27.480566,57
15:57:27.480566,11520
15:57:27.480566,0
15:57:27.480566,33
15:57:27.480566,8960
15:57:27.480566,0
15:57:27.480566,40
15:57:27.480566,9728
15:57:27.480566,0
15:57:27.480566,35
15:57:27.480566,8960
15:57:27.480566,0
15:57:27.480566,40
15:57:27.480566,12032
15:57:27.480566,0
15:57:27.480566,47
15:57:27.480566,11520
15:57:27.480566,0
15:57:27.480566,64
15:57:27.480566,18176
15:57:27.480566,0
15:57:27.480566,47
15:57:27.480566,8448
15:57:27.480566,0
15:57:27.480566,26
15:57:27.480566,2304
15:57:27.480566,0
15:57:27.480566,9
15:57:27.480566,5888
15:57:27.480566,0
15:57:27.480566,35
15:57:27.480566,11008
15:57:27.480566,0
15:57:27.480566,40
15:57:27.480566,8960
15:57:27.480566,0
15:57:27.480566,35
15:57:27.480566,11520
15:57:27.480566,0
15:57:27.480566,31
15:57:27.480566,2304
15:57:27.480566,0
15:57:27.480566,14
15:57:27.480566,20224
15:57:27.480566,0
15:57:27.480566,218
15:57:28.111446,210
15:57:28.111446,23296
15:57:28.111446,-2
15:57:28.111446,-1442
15:57:28.111446,-29185
15:57:28.111446,-7
15:57:28.111446,-860
15:57:28.111446,4607
15:57:28.111446,-1
15:57:28.111446,-57
15:57:28.111446,-26881
15:57:28.111446,0
15:57:28.111446,266
15:57:28.111446,-12288
15:57:28.111446,0
15:57:28.111446,203
15:57:28.111446,1792
15:57:28.111446,1
15:57:28.111446,251
15:57:28.111446,-17152
15:57:28.111446,0
15:57:28.111446,198
15:57:28.111446,-1280
15:57:28.111446,0
15:57:28.111446,215
15:57:28.111446,-29952
15:57:28.111446,0
15:57:28.111446,162
15:57:28.111446,-7936
15:57:28.111446,0
15:57:28.111446,191
15:57:28.111446,-30720
15:57:28.111446,0
15:57:28.111446,153
15:57:28.111446,-18944
15:57:28.111446,0
15:57:28.111446,160
15:57:28.111446,-30720
15:57:28.111446,0
15:57:28.111446,146
15:57:28.111446,-25088
15:57:28.111446,0
15:57:28.111446,124
15:57:28.111446,20224
15:57:28.111446,0
15:57:28.111446,74
15:57:28.111446,17152
15:57:28.111446,0
15:57:28.111446,21
15:57:28.111446,-2304
15:57:28.111446,-1
15:57:28.111446,-7
15:57:28.111446,-2561
15:57:28.111446,-1
15:57:28.111446,-28
15:57:28.111446,-6913
15:57:28.111446,-1
15:57:28.111446,4
15:57:28.111446,8960
15:57:28.111446,0
15:57:28.111446,50
15:57:28.111446,14592
15:57:28.111446,0
15:57:28.111446,62
15:57:28.111446,14080
15:57:28.111446,0
15:57:28.111446,40
15:57:28.111446,11520
15:57:28.111446,0
15:57:28.111446,59
15:57:28.111446,13312
15:57:28.111446,0
15:57:28.111446,47
15:57:28.111446,15104
15:57:28.111446,0
15:57:28.111446,62
15:57:28.111446,14592
15:57:28.111446,0
15:57:28.111446,59
15:57:28.111446,18944
15:57:28.111446,0
15:57:28.111446,76
15:57:28.111446,15104
15:57:28.111446,0
15:57:28.111446,52
15:57:28.111446,15104
15:57:28.111446,0
15:57:28.111446,57
15:57:28.111446,13312
15:57:28.111446,0
15:57:28.111446,47
15:57:28.111446,14080
15:57:28.111446,0
15:57:28.111446,67
15:57:28.111446,11008
15:57:28.111446,0
15:57:28.111446,9
15:57:28.111446,5888
15:57:28.111446,0
15:57:28.111446,45
15:57:28.111446,8448
15:57:28.111446,0
15:57:28.111446,33
15:57:28.111446,11008
15:57:28.111446,0
15:57:28.111446,38
15:57:28.111446,8448
15:57:28.111446,0
15:57:28.111446,28
15:57:28.695545,26
15:57:28.695545,11520
15:57:28.695545,0
15:57:28.695545,64
15:57:28.695545,17152
15:57:28.695545,0
15:57:28.695545,59
15:57:28.695545,14592
15:57:28.695545,0
15:57:28.695545,38
15:57:28.695545,1792
15:57:28.695545,0
15:57:28.695545,2
15:57:28.695545,4096
15:57:28.695545,0
15:57:28.695545,26
15:57:28.695545,7168
15:57:28.695545,0
15:57:28.695545,31
15:57:28.695545,7168
15:57:28.695545,0
15:57:28.695545,33
15:57:28.695545,12032
15:57:28.695545,0
15:57:28.695545,45
15:57:28.695545,8448
15:57:28.695545,0
15:57:28.695545,38
15:57:28.695545,13312
15:57:28.695545,0
15:57:28.695545,115
15:57:28.695545,-3072
15:57:28.695545,0
15:57:28.695545,160
15:57:28.695545,-3840
15:57:28.695545,-3
15:57:28.695545,-1387
15:57:28.695545,-15617
15:57:28.695545,-6
15:57:28.695545,-575
15:57:28.695545,25343
15:57:28.695545,-1
15:57:28.695545,-50
15:57:28.695545,-30977
15:57:28.695545,0
15:57:28.695545,210
15:57:28.695545,-21504
15:57:28.695545,0
15:57:28.695545,189
15:57:28.695545,-13568
15:57:28.695545,0
15:57:28.695545,184
15:57:28.695545,-18944
15:57:28.695545,0
15:57:28.695545,179
15:57:28.695545,-24064
15:57:28.695545,0
15:57:28.695545,153
15:57:28.695545,-25088
15:57:28.695545,0
15:57:28.695545,153
15:57:28.695545,-28928
15:57:28.695545,0
15:57:28.695545,141
15:57:28.695545,-29952
15:57:28.695545,0
15:57:28.695545,134
15:57:28.695545,-31232
15:57:28.695545,0
15:57:28.695545,127
15:57:28.695545,29952
15:57:28.695545,0
15:57:28.695545,107
15:57:28.695545,23808
15:57:28.695545,0
15:57:28.695545,76
15:57:28.695545,14592
15:57:28.695545,0
15:57:28.695545,33
15:57:28.695545,2816
15:57:28.695545,0
15:57:28.695545,-7
15:57:28.695545,-7681
15:57:28.695545,-1
15:57:28.695545,-43
15:57:28.695545,-9473
15:57:28.695545,-1
15:57:28.695545,-19
15:57:28.695545,1279
15:57:28.695545,0
15:57:28.695545,28
15:57:28.695545,12032
15:57:28.695545,0
15:57:28.695545,59
15:57:28.695545,16384
15:57:28.695545,0
15:57:28.695545,69
15:57:28.695545,17664
15:57:28.695545,0
15:57:28.695545,64
15:57:28.695545,17664
15:57:28.695545,0
15:57:28.695545,74
15:57:28.695545,17664
15:57:28.695545,0
15:57:28.695545,69
15:57:28.695545,18944
15:57:28.695545,0
15:57:28.695545,74
15:57:29.190979,67
15:57:29.190979,16384
15:57:29.190979,0
15:57:29.190979,62
15:57:29.190979,13312
15:57:29.190979,0
15:57:29.190979,45
15:57:29.190979,11520
15:57:29.190979,0
15:57:29.190979,43
15:57:29.190979,8960
15:57:29.190979,0
15:57:29.190979,28
15:57:29.190979,6656
15:57:29.190979,0
15:57:29.190979,26
15:57:29.190979,6656
15:57:29.190979,0
15:57:29.190979,26
15:57:29.190979,6656
15:57:29.190979,0
15:57:29.190979,31
15:57:29.190979,9728
15:57:29.190979,0
15:57:29.190979,45
15:57:29.190979,15872
15:57:29.190979,0
15:57:29.190979,79
15:57:29.190979,18176
15:57:29.190979,0
15:57:29.190979,40
15:57:29.190979,4096
15:57:29.190979,0
15:57:29.190979,16
15:57:29.190979,5888
15:57:29.190979,0
15:57:29.190979,38
15:57:29.190979,11008
15:57:29.190979,0
15:57:29.190979,43
15:57:29.190979,9728
15:57:29.190979,0
15:57:29.190979,33
15:57:29.190979,8448
15:57:29.190979,0
15:57:29.190979,33
15:57:29.190979,8448
15:57:29.190979,0
15:57:29.190979,35
15:57:29.190979,11520
15:57:29.190979,0
15:57:29.190979,119
15:57:29.190979,0
15:57:29.190979,1
15:57:29.190979,136
15:57:29.190979,-27648
15:57:29.190979,-3
15:57:29.190979,-1502
15:57:29.190979,-30209
15:57:29.190979,-6
15:57:29.190979,-572
15:57:29.190979,32767
15:57:29.190979,-1
15:57:29.190979,-16
15:57:29.190979,-23809
15:57:29.190979,0
15:57:29.190979,232
15:57:29.190979,-17920
15:57:29.190979,0
15:57:29.190979,203
15:57:29.190979,-8704
15:57:29.190979,0
15:57:29.190979,196
15:57:29.190979,-17920
15:57:29.190979,0
15:57:29.190979,191
15:57:29.190979,-18944
15:57:29.190979,0
15:57:29.190979,172
15:57:29.190979,-21504
15:57:29.190979,0
15:57:29.190979,167
15:57:29.190979,-24576
15:57:29.190979,0
15:57:29.190979,158
15:57:29.190979,-25856
15:57:29.190979,0
15:57:29.190979,153
15:57:29.190979,-27136
15:57:29.190979,0
15:57:29.190979,143
15:57:29.190979,-30720
15:57:29.190979,0
15:57:29.190979,129
15:57:29.190979,29952
15:57:29.190979,0
15:57:29.190979,98
15:57:29.190979,20736
15:57:29.190979,0
15:57:29.190979,62
15:57:29.190979,8960
15:57:29.190979,0
15:57:29.190979,7
15:57:29.190979,-2304
15:57:29.190979,-1
15:57:29.190979,-21
15:57:29.190979,-5633
15:57:29.190979,-1
15:57:29.190979,-9
15:57:29.730645,11
15:57:29.730645,7168
15:57:29.730645,0
15:57:29.730645,40
15:57:29.730645,12800
15:57:29.730645,0
15:57:29.730645,55
15:57:29.730645,13312
15:57:29.730645,0
15:57:29.730645,52
15:57:29.730645,12800
15:57:29.730645,0
15:57:29.730645,52
15:57:29.730645,16384
15:57:29.730645,0
15:57:29.730645,69
15:57:29.730645,16384
15:57:29.730645,0
15:57:29.730645,67
15:57:29.730645,18176
15:57:29.730645,0
15:57:29.730645,69
15:57:29.730645,17152
15:57:29.730645,0
15:57:29.730645,62
15:57:29.730645,14592
15:57:29.730645,0
15:57:29.730645,57
15:57:29.730645,14080
15:57:29.730645,0
15:57:29.730645,45
15:57:29.730645,11520
15:57:29.730645,0
15:57:29.730645,40
15:57:29.730645,8960
15:57:29.730645,0
15:57:29.730645,38
15:57:29.730645,10240
15:57:29.730645,0
15:57:29.730645,31
15:57:29.730645,5376
15:57:29.730645,0
15:57:29.730645,21
15:57:29.730645,6656
15:57:29.730645,0
15:57:29.730645,28
15:57:29.730645,7168
15:57:29.730645,0
15:57:29.730645,33
15:57:29.730645,10240
15:57:29.730645,0
15:57:29.730645,47
15:57:29.730645,13312
15:57:29.730645,0
15:57:29.730645,50
15:57:29.730645,11008
15:57:29.730645,0
15:57:29.730645,21
15:57:29.730645,-1024
15:57:29.730645,-1
15:57:29.730645,-11
15:57:29.730645,-257
15:57:29.730645,-1
15:57:29.730645,14
15:57:29.730645,4864
15:57:29.730645,0
15:57:29.730645,14
15:57:29.730645,2816
15:57:29.730645,0
15:57:29.730645,14
15:57:29.730645,2816
15:57:29.730645,0
15:57:29.730645,7
15:57:29.730645,512
15:57:29.730645,0
15:57:29.730645,-11
15:57:29.730645,-3841
15:57:29.730645,-1
15:57:29.730645,52
15:57:29.730645,-18944
15:57:29.730645,0
15:57:29.730645,47
15:57:29.730645,8448
15:57:29.730645,-3
15:57:29.730645,-1648
15:57:29.730645,-6401
15:57:29.730645,-7
15:57:29.730645,-680
15:57:29.730645,27391
15:57:29.730645,-1
15:57:29.730645,-26
15:57:29.730645,-31745
15:57:29.730645,0
15:57:29.730645,220
15:57:29.730645,-17152
15:57:29.730645,0
15:57:29.730645,191
15:57:29.730645,-11008
15:57:29.730645,0
15:57:29.730645,198
15:57:29.730645,-17152
15:57:29.730645,0
15:57:29.730645,194
15:57:29.730645,-16640
15:57:29.730645,0
15:57:29.730645,194
15:57:29.730645,-14848
15:57:29.730645,0
15:57:29.730645,191
15:57:30.315562,182
15:57:30.315562,-20224
15:57:30.315562,0
15:57:30.315562,172
15:57:30.315562,-23296
15:57:30.315562,0
15:57:30.315562,150
15:57:30.315562,-28160
15:57:30.315562,0
15:57:30.315562,155
15:57:30.315562,-27136
15:57:30.315562,0
15:57:30.315562,134
15:57:30.315562,31232
15:57:30.315562,0
15:57:30.315562,107
15:57:30.315562,21248
15:57:30.315562,0
15:57:30.315562,55
15:57:30.315562,5888
15:57:30.315562,0
15:57:30.315562,4
15:57:30.315562,-512
15:57:30.315562,-1
15:57:30.315562,-4
15:57:30.315562,1279
15:57:30.315562,0
15:57:30.315562,26
15:57:30.315562,11520
15:57:30.315562,0
15:57:30.315562,55
15:57:30.315562,15104
15:57:30.315562,0
15:57:30.315562,59
15:57:30.315562,17152
15:57:30.315562,0
15:57:30.315562,71
15:57:30.315562,17152
15:57:30.315562,0
15:57:30.315562,57
15:57:30.315562,14080
15:57:30.315562,0
15:57:30.315562,57
15:57:30.315562,14080
15:57:30.315562,0
15:57:30.315562,52
15:57:30.315562,12800
15:57:30.315562,0
15:57:30.315562,55
15:57:30.315562,14592
15:57:30.315562,0
15:57:30.315562,52
15:57:30.315562,13312
15:57:30.315562,0
15:57:30.315562,57
15:57:30.315562,14592
15:57:30.315562,0
15:57:30.315562,52
15:57:30.315562,12800
15:57:30.315562,0
15:57:30.315562,50
15:57:30.315562,12800
15:57:30.315562,0
15:57:30.315562,50
15:57:30.315562,11520
15:57:30.315562,0
15:57:30.315562,35
15:57:30.315562,6656
15:57:30.315562,0
15:57:30.315562,21
15:57:30.315562,7168
15:57:30.315562,0
15:57:30.315562,31
15:57:30.315562,5888
15:57:30.315562,0
15:57:30.315562,21
15:57:30.315562,5376
15:57:30.315562,0
15:57:30.315562,21
15:57:30.315562,5376
15:57:30.315562,0
15:57:30.315562,23
15:57:30.315562,5376
15:57:30.315562,0
15:57:30.315562,19
15:57:30.315562,4096
15:57:30.315562,0
15:57:30.315562,14
15:57:30.315562,3584
15:57:30.315562,0
15:57:30.315562,19
15:57:30.315562,4864
15:57:30.315562,0
15:57:30.315562,14
15:57:30.315562,2816
15:57:30.315562,0
15:57:30.315562,16
15:57:30.315562,5376
15:57:30.315562,0
15:57:30.315562,28
15:57:30.315562,9728
15:57:30.315562,0
15:57:30.315562,43
15:57:30.315562,8448
15:57:30.315562,0
15:57:30.315562,2
15:57:30.315562,-4864
15:57:30.315562,-1
15:57:30.315562,-16
15:57:30.856035,-4
15:57:30.856035,767
15:57:30.856035,0
15:57:30.856035,9
15:57:30.856035,2304
15:57:30.856035,0
15:57:30.856035,7
15:57:30.856035,1792
15:57:30.856035,0
15:57:30.856035,4
15:57:30.856035,1024
15:57:30.856035,0
15:57:30.856035,4
15:57:30.856035,3584
15:57:30.856035,0
15:57:30.856035,59
15:57:30.856035,-18432
15:57:30.856035,0
15:57:30.856035,227
15:57:30.856035,-6656
15:57:30.856035,-2
15:57:30.856035,-1298
15:57:30.856035,19199
15:57:30.856035,-7
15:57:30.856035,-1035
15:57:30.856035,-3329
15:57:30.856035,-2
15:57:30.856035,-35
15:57:30.856035,24063
15:57:30.856035,0
15:57:30.856035,232
15:57:30.856035,-6144
15:57:30.856035,0
15:57:30.856035,215
15:57:30.856035,-4864
15:57:30.856035,0
15:57:30.856035,230
15:57:30.856035,-12288
15:57:30.856035,0
15:57:30.856035,208
15:57:30.856035,-11776
15:57:30.856035,0
15:57:30.856035,203
15:57:30.856035,-16640
15:57:30.856035,0
15:57:30.856035,186
15:57:30.856035,-18432
15:57:30.856035,0
15:57:30.856035,184
15:57:30.856035,-20224
15:57:30.856035,0
15:57:30.856035,167
15:57:30.856035,-24576
15:57:30.856035,0
15:57:30.856035,158
15:57:30.856035,-25088
15:57:30.856035,0
15:57:30.856035,148
15:57:30.856035,-29440
15:57:30.856035,0
15:57:30.856035,136
15:57:30.856035,31232
15:57:30.856035,0
15:57:30.856035,95
15:57:30.856035,18176
15:57:30.856035,0
15:57:30.856035,50
15:57:30.856035,7168
15:57:30.856035,0
15:57:30.856035,7
15:57:30.856035,-2304
15:57:30.856035,-1
15:57:30.856035,-14
15:57:30.856035,-2049
15:57:30.856035,-1
15:57:30.856035,7
15:57:30.856035,5376
15:57:30.856035,0
15:57:30.856035,33
15:57:30.856035,11520
15:57:30.856035,0
15:57:30.856035,50
15:57:30.856035,12032
15:57:30.856035,0
15:57:30.856035,50
15:57:30.856035,12800
15:57:30.856035,0
15:57:30.856035,43
15:57:30.856035,10240
15:57:30.856035,0
15:57:30.856035,40
15:57:30.856035,9728
15:57:30.856035,0
15:57:30.856035,40
15:57:30.856035,12032
15:57:30.856035,0
15:57:30.856035,47
15:57:30.856035,11520
15:57:30.856035,0
15:57:30.856035,45
15:57:30.856035,12032
15:57:30.856035,0
15:57:30.856035,47
15:57:30.856035,12800
15:57:30.856035,0
15:57:30.856035,55
15:57:30.856035,13312
15:57:30.856035,0
15:57:30.856035,47
15:57:31.396285,43
15:57:31.396285,9728
15:57:31.396285,0
15:57:31.396285,33
15:57:31.396285,8448
15:57:31.396285,0
15:57:31.396285,28
15:57:31.396285,5376
15:57:31.396285,0
15:57:31.396285,23
15:57:31.396285,9728
15:57:31.396285,0
15:57:31.396285,45
15:57:31.396285,9728
15:57:31.396285,0
15:57:31.396285,40
15:57:31.396285,11520
15:57:31.396285,0
15:57:31.396285,43
15:57:31.396285,8960
15:57:31.396285,0
15:57:31.396285,35
15:57:31.396285,8448
15:57:31.396285,0
15:57:31.396285,31
15:57:31.396285,8448
15:57:31.396285,0
15:57:31.396285,33
15:57:31.396285,7936
15:57:31.396285,0
15:57:31.396285,31
15:57:31.396285,7168
15:57:31.396285,0
15:57:31.396285,28
15:57:31.396285,7168
15:57:31.396285,0
15:57:31.396285,23
15:57:31.396285,5376
15:57:31.396285,0
15:57:31.396285,26
15:57:31.396285,5888
15:57:31.396285,0
15:57:31.396285,19
15:57:31.396285,5376
15:57:31.396285,0
15:57:31.396285,28
15:57:31.396285,8960
15:57:31.396285,0
15:57:31.396285,43
15:57:31.396285,11520
15:57:31.396285,0
15:57:31.396285,45
15:57:31.396285,9728
15:57:31.396285,0
15:57:31.396285,16
15:57:31.396285,-2816
15:57:31.396285,-1
15:57:31.396285,-23
15:57:31.396285,-769
15:57:31.396285,-1
15:57:31.396285,16
15:57:31.396285,5888
15:57:31.396285,0
15:57:31.396285,19
15:57:31.396285,3584
15:57:31.396285,0
15:57:31.396285,16
15:57:31.396285,4096
15:57:31.396285,0
15:57:31.396285,14
15:57:31.396285,3584
15:57:31.396285,0
15:57:31.396285,16
15:57:31.396285,13312
15:57:31.396285,0
15:57:31.396285,172
15:57:31.396285,-11008
15:57:31.396285,0
15:57:31.396285,-304
15:57:31.396285,-9473
15:57:31.396285,-6
15:57:31.396285,-1715
15:57:31.396285,1791
15:57:31.396285,-4
15:57:31.396285,-268
15:57:31.396285,-11777
15:57:31.396285,-1
15:57:31.396285,79
15:57:31.396285,-11008
15:57:31.396285,0
15:57:31.396285,213
15:57:31.396285,-14848
15:57:31.396285,0
15:57:31.396285,227
15:57:31.396285,-9728
15:57:31.396285,0
15:57:31.396285,194
15:57:31.396285,-14848
15:57:31.396285,0
15:57:31.396285,203
15:57:31.396285,-15872
15:57:31.396285,0
15:57:31.396285,182
15:57:31.396285,-20224
15:57:31.396285,0
15:57:31.396285,174
15:57:31.396285,-22016
15:57:31.396285,0
15:57:31.396285,167
15:57:32.025721,165
15:57:32.025721,-24064
15:57:32.025721,0
15:57:32.025721,158
15:57:32.025721,-25088
15:57:32.025721,0
15:57:32.025721,167
15:57:32.025721,-22784
15:57:32.025721,0
15:57:32.025721,150
15:57:32.025721,-31232
15:57:32.025721,0
15:57:32.025721,122
15:57:32.025721,25600
15:57:32.025721,0
15:57:32.025721,76
15:57:32.025721,13312
15:57:32.025721,0
15:57:32.025721,21
15:57:32.025721,-1024
15:57:32.025721,-1
15:57:32.025721,-9
15:57:32.025721,-769
15:57:32.025721,-1
15:57:32.025721,7
15:57:32.025721,6656
15:57:32.025721,0
15:57:32.025721,43
15:57:32.025721,12032
15:57:32.025721,0
15:57:32.025721,50
15:57:32.025721,14592
15:57:32.025721,0
15:57:32.025721,57
15:57:32.025721,12032
15:57:32.025721,0
15:57:32.025721,45
15:57:32.025721,12032
15:57:32.025721,0
15:57:32.025721,47
15:57:32.025721,12800
15:57:32.025721,0
15:57:32.025721,50
15:57:32.025721,11520
15:57:32.025721,0
15:57:32.025721,52
15:57:32.025721,14592
15:57:32.025721,0
15:57:32.025721,52
15:57:32.025721,13312
15:57:32.025721,0
15:57:32.025721,52
15:57:32.025721,11520
15:57:32.025721,0
15:57:32.025721,45
15:57:32.025721,11520
15:57:32.025721,0
15:57:32.025721,40
15:57:32.025721,8960
15:57:32.025721,0
15:57:32.025721,33
15:57:32.025721,6656
15:57:32.025721,0
15:57:32.025721,26
15:57:32.025721,5888
15:57:32.025721,0
15:57:32.025721,21
15:57:32.025721,4096
15:57:32.025721,0
15:57:32.025721,16
15:57:32.025721,4864
15:57:32.025721,0
15:57:32.025721,16
15:57:32.025721,2816
15:57:32.025721,0
15:57:32.025721,16
15:57:32.025721,4864
15:57:32.025721,0
15:57:32.025721,16
15:57:32.025721,4096
15:57:32.025721,0
15:57:32.025721,16
15:57:32.025721,4096
15:57:32.025721,0
15:57:32.025721,16
15:57:32.025721,5376
15:57:32.025721,0
15:57:32.025721,19
15:57:32.025721,4096
15:57:32.025721,0
15:57:32.025721,16
15:57:32.025721,4096
15:57:32.025721,0
15:57:32.025721,21
15:57:32.025721,5376
15:57:32.025721,0
15:57:32.025721,14
15:57:32.025721,2816
15:57:32.025721,0
15:57:32.025721,14
15:57:32.025721,4864
15:57:32.025721,0
15:57:32.025721,23
15:57:32.025721,9728
15:57:32.025721,0
15:57:32.025721,52
15:57:32.025721,14080
15:57:32.025721,0
15:57:32.025721,55
15:57:32.566991,43
15:57:32.566991,4864
15:57:32.566991,0
15:57:32.566991,0
15:57:32.566991,-1024
15:57:32.566991,-1
15:57:32.566991,0
15:57:32.566991,3584
15:57:32.566991,0
15:57:32.566991,23
15:57:32.566991,4864
15:57:32.566991,0
15:57:32.566991,11
15:57:32.566991,4096
15:57:32.566991,0
15:57:32.566991,16
15:57:32.566991,3584
15:57:32.566991,0
15:57:32.566991,21
15:57:32.566991,9728
15:57:32.566991,0
15:57:32.566991,95
15:57:32.566991,-7936
15:57:32.566991,0
15:57:32.566991,158
15:57:32.566991,-13056
15:57:32.566991,-3
15:57:32.566991,-1548
15:57:32.566991,-18177
15:57:32.566991,-7
15:57:32.566991,-745
15:57:32.566991,29695
15:57:32.566991,-1
15:57:32.566991,-7
15:57:32.566991,-30977
15:57:32.566991,0
15:57:32.566991,237
15:57:32.566991,-12800
15:57:32.566991,0
15:57:32.566991,203
15:57:32.566991,-7424
15:57:32.566991,0
15:57:32.566991,210
15:57:32.566991,-16640
15:57:32.566991,0
15:57:32.566991,196
15:57:32.566991,-16640
15:57:32.566991,0
15:57:32.566991,184
15:57:32.566991,-19712
15:57:32.566991,0
15:57:32.566991,174
15:57:32.566991,-22016
15:57:32.566991,0
15:57:32.566991,162
15:57:32.566991,-25088
15:57:32.566991,0
15:57:32.566991,153
15:57:32.566991,-28160
15:57:32.566991,0
15:57:32.566991,141
15:57:32.566991,-30720
15:57:32.566991,0
15:57:32.566991,129
15:57:32.566991,30464
15:57:32.566991,0
15:57:32.566991,110
15:57:32.566991,23808
15:57:32.566991,0
15:57:32.566991,74
15:57:32.566991,13312
15:57:32.566991,0
15:57:32.566991,31
15:57:32.566991,1792
15:57:32.566991,0
15:57:32.566991,-16
15:57:32.566991,-9985
15:57:32.566991,-1
15:57:32.566991,-47
15:57:32.566991,-8705
15:57:32.566991,-1
15:57:32.566991,-14
15:57:32.566991,255
15:57:32.566991,0
15:57:32.566991,9
15:57:32.566991,4096
15:57:32.566991,0
15:57:32.566991,19
15:57:32.566991,4864
15:57:32.566991,0
15:57:32.566991,21
15:57:32.566991,5376
15:57:32.566991,0
15:57:32.566991,19
15:57:32.566991,4096
15:57:32.566991,0
15:57:32.566991,16
15:57:32.566991,5888
15:57:32.566991,0
15:57:32.566991,28
15:57:32.566991,6656
15:57:32.566991,0
15:57:32.566991,23
15:57:32.566991,4864
15:57:32.566991,0
15:57:32.566991,21
15:57:32.566991,5888
15:57:32.566991,0
15:57:32.566991,21
15:57:33.107061,19
15:57:33.107061,4864
15:57:33.107061,0
15:57:33.107061,16
15:57:33.107061,2816
15:57:33.107061,0
15:57:33.107061,4
15:57:33.107061,512
15:57:33.107061,0
15:57:33.107061,4
15:57:33.107061,1024
15:57:33.107061,0
15:57:33.107061,0
15:57:33.107061,0
15:57:33.107061,0
15:57:33.107061,9
15:57:33.107061,4864
15:57:33.107061,0
15:57:33.107061,16
15:57:33.107061,2816
15:57:33.107061,0
15:57:33.107061,9
15:57:33.107061,2304
15:57:33.107061,0
15:57:33.107061,9
15:57:33.107061,1792
15:57:33.107061,0
15:57:33.107061,7
15:57:33.107061,2304
15:57:33.107061,0
15:57:33.107061,9
15:57:33.107061,1024
15:57:33.107061,0
15:57:33.107061,2
15:57:33.107061,0
15:57:33.107061,0
15:57:33.107061,0
15:57:33.107061,0
15:57:33.107061,0
15:57:33.107061,-2
15:57:33.107061,-769
15:57:33.107061,-1
15:57:33.107061,-4
15:57:33.107061,-769
15:57:33.107061,-1
15:57:33.107061,7
15:57:33.107061,4864
15:57:33.107061,0
15:57:33.107061,19
15:57:33.107061,3584
15:57:33.107061,0
15:57:33.107061,2
15:57:33.107061,-5888
15:57:33.107061,-1
15:57:33.107061,-38
15:57:33.107061,-7681
15:57:33.107061,-1
15:57:33.107061,-23
15:57:33.107061,-3329
15:57:33.107061,-1
15:57:33.107061,-11
15:57:33.107061,-3329
15:57:33.107061,-1
15:57:33.107061,-14
15:57:33.107061,-3841
15:57:33.107061,-1
15:57:33.107061,-21
15:57:33.107061,-4609
15:57:33.107061,-1
15:57:33.107061,-14
15:57:33.107061,-2049
15:57:33.107061,-1
15:57:33.107061,55
15:57:33.107061,-18432
15:57:33.107061,0
15:57:33.107061,64
15:57:33.107061,18176
15:57:33.107061,-3
15:57:33.107061,-1596
15:57:33.107061,6399
15:57:33.107061,-6
15:57:33.107061,-644
15:57:33.107061,30975
15:57:33.107061,-1
15:57:33.107061,-40
15:57:33.107061,26623
15:57:33.107061,0
15:57:33.107061,186
15:57:33.107061,-26368
15:57:33.107061,0
15:57:33.107061,158
15:57:33.107061,-20992
15:57:33.107061,0
15:57:33.107061,155
15:57:33.107061,-28160
15:57:33.107061,0
15:57:33.107061,150
15:57:33.107061,-29440
15:57:33.107061,0
15:57:33.107061,131
15:57:33.107061,-32512
15:57:33.107061,0
15:57:33.107061,124
15:57:33.107061,29952
15:57:33.107061,0
15:57:33.107061,112
15:57:33.107061,26880
15:57:33.107061,0
15:57:33.107061,100
15:57:33.645669,98
15:57:33.645669,23808
15:57:33.645669,0
15:57:33.645669,83
15:57:33.645669,18944
15:57:33.645669,0
15:57:33.645669,64
15:57:33.645669,12032
15:57:33.645669,0
15:57:33.645669,33
15:57:33.645669,5888
15:57:33.645669,0
15:57:33.645669,16
15:57:33.645669,1024
15:57:33.645669,0
15:57:33.645669,-21
15:57:33.645669,-9473
15:57:33.645669,-1
15:57:33.645669,-40
15:57:33.645669,-8705
15:57:33.645669,-1
15:57:33.645669,-21
15:57:33.645669,767
15:57:33.645669,0
15:57:33.645669,21
15:57:33.645669,7936
15:57:33.645669,0
15:57:33.645669,35
15:57:33.645669,10240
15:57:33.645669,0
15:57:33.645669,38
15:57:33.645669,8448
15:57:33.645669,0
15:57:33.645669,33
15:57:33.645669,8448
15:57:33.645669,0
15:57:33.645669,35
15:57:33.645669,9728
15:57:33.645669,0
15:57:33.645669,40
15:57:33.645669,11008
15:57:33.645669,0
15:57:33.645669,45
15:57:33.645669,12032
15:57:33.645669,0
15:57:33.645669,45
15:57:33.645669,10240
15:57:33.645669,0
15:57:33.645669,33
15:57:33.645669,7936
15:57:33.645669,0
15:57:33.645669,33
15:57:33.645669,7936
15:57:33.645669,0
15:57:33.645669,23
15:57:33.645669,4096
15:57:33.645669,0
15:57:33.645669,14
15:57:33.645669,2816
15:57:33.645669,0
15:57:33.645669,11
15:57:33.645669,2304
15:57:33.645669,0
15:57:33.645669,9
15:57:33.645669,1792
15:57:33.645669,0
15:57:33.645669,9
15:57:33.645669,2816
15:57:33.645669,0
15:57:33.645669,11
15:57:33.645669,1024
15:57:33.645669,0
15:57:33.645669,2
15:57:33.645669,1024
15:57:33.645669,0
15:57:33.645669,4
15:57:33.645669,512
15:57:33.645669,0
15:57:33.645669,2
15:57:33.645669,512
15:57:33.645669,0
15:57:33.645669,2
15:57:33.645669,512
15:57:33.645669,0
15:57:33.645669,2
15:57:33.645669,512
15:57:33.645669,0
15:57:33.645669,2
15:57:33.645669,1024
15:57:33.645669,0
15:57:33.645669,4
15:57:33.645669,0
15:57:33.645669,0
15:57:33.645669,2
15:57:33.645669,512
15:57:33.645669,0
15:57:33.645669,2
15:57:33.645669,512
15:57:33.645669,0
15:57:33.645669,11
15:57:33.645669,6656
15:57:33.645669,0
15:57:33.645669,28
15:57:33.645669,4864
15:57:33.645669,0
15:57:33.645669,-2
15:57:33.645669,-5633
15:57:33.645669,-1
15:57:33.645669,-35
15:57:34.275896,-31
15:57:34.275896,-3329
15:57:34.275896,-1
15:57:34.275896,-4
15:57:34.275896,-1537
15:57:34.275896,-1
15:57:34.275896,-7
15:57:34.275896,767
15:57:34.275896,0
15:57:34.275896,9
15:57:34.275896,1024
15:57:34.275896,0
15:57:34.275896,0
15:57:34.275896,0
15:57:34.275896,0
15:57:34.275896,11
15:57:34.275896,21248
15:57:34.275896,0
15:57:34.275896,201
15:57:34.275896,9728
15:57:34.275896,0
15:57:34.275896,-754
15:57:34.275896,-15617
15:57:34.275896,-7
15:57:34.275896,-1426
15:57:34.275896,-12801
15:57:34.275896,-3
15:57:34.275896,-105
15:57:34.275896,-2561
15:57:34.275896,-1
15:57:34.275896,134
15:57:34.275896,-15872
15:57:34.275896,0
15:57:34.275896,155
15:57:34.275896,-22016
15:57:34.275896,0
15:57:34.275896,189
15:57:34.275896,-22784
15:57:34.275896,0
15:57:34.275896,160
15:57:34.275896,-22784
15:57:34.275896,0
15:57:34.275896,158
15:57:34.275896,-26368
15:57:34.275896,0
15:57:34.275896,150
15:57:34.275896,-29952
15:57:34.275896,0
15:57:34.275896,131
15:57:34.275896,-32000
15:57:34.275896,0
15:57:34.275896,129
15:57:34.275896,31232
15:57:34.275896,0
15:57:34.275896,117
15:57:34.275896,28672
15:57:34.275896,0
15:57:34.275896,107
15:57:34.275896,26368
15:57:34.275896,0
15:57:34.275896,91
15:57:34.275896,18944
15:57:34.275896,0
15:57:34.275896,57
15:57:34.275896,9728
15:57:34.275896,0
15:57:34.275896,19
15:57:34.275896,1024
15:57:34.275896,0
15:57:34.275896,-11
15:57:34.275896,-6401
15:57:34.275896,-1
15:57:34.275896,-31
15:57:34.275896,-6401
15:57:34.275896,-1
15:57:34.275896,-11
15:57:34.275896,2559
15:57:34.275896,0
15:57:34.275896,28
15:57:34.275896,10240
15:57:34.275896,0
15:57:34.275896,45
15:57:34.275896,12032
15:57:34.275896,0
15:57:34.275896,50
15:57:34.275896,12800
15:57:34.275896,0
15:57:34.275896,47
15:57:34.275896,11520
15:57:34.275896,0
15:57:34.275896,45
15:57:34.275896,11520
15:57:34.275896,0
15:57:34.275896,47
15:57:34.275896,12800
15:57:34.275896,0
15:57:34.275896,55
15:57:34.275896,12800
15:57:34.275896,0
15:57:34.275896,47
15:57:34.275896,12800
15:57:34.275896,0
15:57:34.275896,52
15:57:34.275896,11520
15:57:34.275896,0
15:57:34.275896,40
15:57:34.275896,8960
15:57:34.275896,0
15:57:34.275896,31
15:57:34.771241,28
15:57:34.771241,5376
15:57:34.771241,0
15:57:34.771241,23
15:57:34.771241,7168
15:57:34.771241,0
15:57:34.771241,23
15:57:34.771241,5376
15:57:34.771241,0
15:57:34.771241,21
15:57:34.771241,5376
15:57:34.771241,0
15:57:34.771241,21
15:57:34.771241,4864
15:57:34.771241,0
15:57:34.771241,19
15:57:34.771241,4864
15:57:34.771241,0
15:57:34.771241,21
15:57:34.771241,5888
15:57:34.771241,0
15:57:34.771241,31
15:57:34.771241,9728
15:57:34.771241,0
15:57:34.771241,35
15:57:34.771241,8448
15:57:34.771241,0
15:57:34.771241,35
15:57:34.771241,8448
15:57:34.771241,0
15:57:34.771241,28
15:57:34.771241,7168
15:57:34.771241,0
15:57:34.771241,31
15:57:34.771241,8448
15:57:34.771241,0
15:57:34.771241,31
15:57:34.771241,6656
15:57:34.771241,0
15:57:34.771241,23
15:57:34.771241,5376
15:57:34.771241,0
15:57:34.771241,26
15:57:34.771241,9728
15:57:34.771241,0
15:57:34.771241,47
15:57:34.771241,14080
15:57:34.771241,0
15:57:34.771241,52
15:57:34.771241,5888
15:57:34.771241,0
15:57:34.771241,-7
15:57:34.771241,-2561
15:57:34.771241,-1
15:57:34.771241,0
15:57:34.771241,2304
15:57:34.771241,0
15:57:34.771241,21
15:57:34.771241,5888
15:57:34.771241,0
15:57:34.771241,19
15:57:34.771241,4096
15:57:34.771241,0
15:57:34.771241,19
15:57:34.771241,4096
15:57:34.771241,0
15:57:34.771241,14
15:57:34.771241,4096
15:57:34.771241,0
15:57:34.771241,45
15:57:34.771241,-28160
15:57:34.771241,0
15:57:34.771241,215
15:57:34.771241,25856
15:57:34.771241,-1
15:57:34.771241,-1085
15:57:34.771241,-27905
15:57:34.771241,-7
15:57:34.771241,-1112
15:57:34.771241,-14337
15:57:34.771241,-2
15:57:34.771241,-55
15:57:34.771241,8703
15:57:34.771241,0
15:57:34.771241,179
15:57:34.771241,-15360
15:57:34.771241,0
15:57:34.771241,165
15:57:34.771241,-16640
15:57:34.771241,0
15:57:34.771241,196
15:57:34.771241,-21504
15:57:34.771241,0
15:57:34.771241,162
15:57:34.771241,-24064
15:57:34.771241,0
15:57:34.771241,153
15:57:34.771241,-28160
15:57:34.771241,0
15:57:34.771241,141
15:57:34.771241,-31232
15:57:34.771241,0
15:57:34.771241,129
15:57:34.771241,31744
15:57:34.771241,0
15:57:34.771241,119
15:57:34.771241,28672
15:57:34.771241,0
15:57:34.771241,110
15:57:35.356704,105
15:57:35.356704,23296
15:57:35.356704,0
15:57:35.356704,83
15:57:35.356704,20224
15:57:35.356704,0
15:57:35.356704,64
15:57:35.356704,12800
15:57:35.356704,0
15:57:35.356704,47
15:57:35.356704,8448
15:57:35.356704,0
15:57:35.356704,9
15:57:35.356704,-512
15:57:35.356704,-1
15:57:35.356704,-11
15:57:35.356704,-3841
15:57:35.356704,-1
15:57:35.356704,0
15:57:35.356704,5888
15:57:35.356704,0
15:57:35.356704,38
15:57:35.356704,12800
15:57:35.356704,0
15:57:35.356704,59
15:57:35.356704,18176
15:57:35.356704,0
15:57:35.356704,76
15:57:35.356704,17152
15:57:35.356704,0
15:57:35.356704,62
15:57:35.356704,16384
15:57:35.356704,0
15:57:35.356704,67
15:57:35.356704,18176
15:57:35.356704,0
15:57:35.356704,76
15:57:35.356704,19456
15:57:35.356704,0
15:57:35.356704,74
15:57:35.356704,18944
15:57:35.356704,0
15:57:35.356704,74
15:57:35.356704,17664
15:57:35.356704,0
15:57:35.356704,69
15:57:35.356704,17152
15:57:35.356704,0
15:57:35.356704,62
15:57:35.356704,14592
15:57:35.356704,0
15:57:35.356704,52
15:57:35.356704,12800
15:57:35.356704,0
15:57:35.356704,45
15:57:35.356704,9728
15:57:35.356704,0
15:57:35.356704,38
15:57:35.356704,9728
15:57:35.356704,0
15:57:35.356704,31
15:57:35.356704,8448
15:57:35.356704,0
15:57:35.356704,38
15:57:35.356704,7168
15:57:35.356704,0
15:57:35.356704,21
15:57:35.356704,7168
15:57:35.356704,0
15:57:35.356704,38
15:57:35.356704,8448
15:57:35.356704,0
15:57:35.356704,23
15:57:35.356704,5376
15:57:35.356704,0
15:57:35.356704,19
15:57:35.356704,4096
15:57:35.356704,0
15:57:35.356704,19
15:57:35.356704,5376
15:57:35.356704,0
15:57:35.356704,23
15:57:35.356704,5376
15:57:35.356704,0
15:57:35.356704,16
15:57:35.356704,3584
15:57:35.356704,0
15:57:35.356704,11
15:57:35.356704,3584
15:57:35.356704,0
15:57:35.356704,11
15:57:35.356704,2304
15:57:35.356704,0
15:57:35.356704,9
15:57:35.356704,4096
15:57:35.356704,0
15:57:35.356704,28
15:57:35.356704,8960
15:57:35.356704,0
15:57:35.356704,35
15:57:35.356704,8960
15:57:35.356704,0
15:57:35.356704,26
15:57:35.356704,512
15:57:35.356704,0
15:57:35.356704,-19
15:57:35.356704,-5121
15:57:35.356704,-1
15:57:35.356704,-9
15:57:35.939398,2
15:57:35.939398,2304
15:57:35.939398,0
15:57:35.939398,9
15:57:35.939398,1792
15:57:35.939398,0
15:57:35.939398,2
15:57:35.939398,0
15:57:35.939398,0
15:57:35.939398,0
15:57:35.939398,0
15:57:35.939398,0
15:57:35.939398,9
15:57:35.939398,16384
15:57:35.939398,0
15:57:35.939398,184
15:57:35.939398,-18432
15:57:35.939398,0
15:57:35.939398,-359
15:57:35.939398,-6913
15:57:35.939398,-6
15:57:35.939398,-1581
15:57:35.939398,-22529
15:57:35.939398,-4
15:57:35.939398,-194
15:57:35.939398,-6913
15:57:35.939398,-1
15:57:35.939398,91
15:57:35.939398,-12288
15:57:35.939398,0
15:57:35.939398,191
15:57:35.939398,-20992
15:57:35.939398,0
15:57:35.939398,201
15:57:35.939398,-15360
15:57:35.939398,0
15:57:35.939398,177
15:57:35.939398,-20992
15:57:35.939398,0
15:57:35.939398,170
15:57:35.939398,-23296
15:57:35.939398,0
15:57:35.939398,162
15:57:35.939398,-25856
15:57:35.939398,0
15:57:35.939398,143
15:57:35.939398,-29440
15:57:35.939398,0
15:57:35.939398,143
15:57:35.939398,-30720
15:57:35.939398,0
15:57:35.939398,124
15:57:35.939398,29440
15:57:35.939398,0
15:57:35.939398,110
15:57:35.939398,28672
15:57:35.939398,0
15:57:35.939398,105
15:57:35.939398,20736
15:57:35.939398,0
15:57:35.939398,59
15:57:35.939398,12032
15:57:35.939398,0
15:57:35.939398,38
15:57:35.939398,5376
15:57:35.939398,0
15:57:35.939398,4
15:57:35.939398,-1792
15:57:35.939398,-1
15:57:35.939398,-11
15:57:35.939398,-2049
15:57:35.939398,-1
15:57:35.939398,7
15:57:35.939398,6656
15:57:35.939398,0
15:57:35.939398,43
15:57:35.939398,13312
15:57:35.939398,0
15:57:35.939398,57
15:57:35.939398,16384
15:57:35.939398,0
15:57:35.939398,67
15:57:35.939398,18944
15:57:35.939398,0
15:57:35.939398,76
15:57:35.939398,19456
15:57:35.939398,0
15:57:35.939398,74
15:57:35.939398,18944
15:57:35.939398,0
15:57:35.939398,74
15:57:35.939398,20224
15:57:35.939398,0
15:57:35.939398,81
15:57:35.939398,20736
15:57:35.939398,0
15:57:35.939398,83
15:57:35.939398,22016
15:57:35.939398,0
15:57:35.939398,83
15:57:35.939398,20224
15:57:35.939398,0
15:57:35.939398,76
15:57:35.939398,18944
15:57:35.939398,0
15:57:35.939398,69
15:57:35.939398,15872
15:57:35.939398,0
15:57:35.939398,50
15:57:36.481442,47
15:57:36.481442,13312
15:57:36.481442,0
15:57:36.481442,50
15:57:36.481442,11008
15:57:36.481442,0
15:57:36.481442,43
15:57:36.481442,11008
15:57:36.481442,0
15:57:36.481442,40
15:57:36.481442,10240
15:57:36.481442,0
15:57:36.481442,38
15:57:36.481442,11008
15:57:36.481442,0
15:57:36.481442,45
15:57:36.481442,11008
15:57:36.481442,0
15:57:36.481442,47
15:57:36.481442,15104
15:57:36.481442,0
15:57:36.481442,57
15:57:36.481442,13312
15:57:36.481442,0
15:57:36.481442,57
15:57:36.481442,14080
15:57:36.481442,0
15:57:36.481442,57
15:57:36.481442,17664
15:57:36.481442,0
15:57:36.481442,71
15:57:36.481442,16384
15:57:36.481442,0
15:57:36.481442,50
15:57:36.481442,5888
15:57:36.481442,0
15:57:36.481442,4
15:57:36.481442,1792
15:57:36.481442,0
15:57:36.481442,16
15:57:36.481442,5376
15:57:36.481442,0
15:57:36.481442,21
15:57:36.481442,5376
15:57:36.481442,0
15:57:36.481442,19
15:57:36.481442,3584
15:57:36.481442,0
15:57:36.481442,14
15:57:36.481442,3584
15:57:36.481442,0
15:57:36.481442,9
15:57:36.481442,3584
15:57:36.481442,0
15:57:36.481442,71
15:57:36.481442,-14848
15:57:36.481442,0
15:57:36.481442,160
15:57:36.481442,14592
15:57:36.481442,-2
15:57:36.481442,-1373
15:57:36.481442,10239
15:57:36.481442,-6
15:57:36.481442,-726
15:57:36.481442,24831
15:57:36.481442,-1
15:57:36.481442,-43
15:57:36.481442,24063
15:57:36.481442,0
15:57:36.481442,198
15:57:36.481442,-22016
15:57:36.481442,0
15:57:36.481442,165
15:57:36.481442,-16640
15:57:36.481442,0
15:57:36.481442,182
15:57:36.481442,-23296
15:57:36.481442,0
15:57:36.481442,167
15:57:36.481442,-23296
15:57:36.481442,0
15:57:36.481442,150
15:57:36.481442,-28928
15:57:36.481442,0
15:57:36.481442,141
15:57:36.481442,-30720
15:57:36.481442,0
15:57:36.481442,129
15:57:36.481442,31232
15:57:36.481442,0
15:57:36.481442,117
15:57:36.481442,28160
15:57:36.481442,0
15:57:36.481442,103
15:57:36.481442,23808
15:57:36.481442,0
15:57:36.481442,83
15:57:36.481442,17664
15:57:36.481442,0
15:57:36.481442,59
15:57:36.481442,10240
15:57:36.481442,0
15:57:36.481442,19
15:57:36.481442,0
15:57:36.481442,0
15:57:36.481442,-16
15:57:36.481442,-8193
15:57:36.481442,-1
15:57:36.481442,-43
15:57:37.020581,-40
15:57:37.020581,-5633
15:57:37.020581,-1
15:57:37.020581,7
15:57:37.020581,8448
15:57:37.020581,0
15:57:37.020581,52
15:57:37.020581,17152
15:57:37.020581,0
15:57:37.020581,76
15:57:37.020581,19456
15:57:37.020581,0
15:57:37.020581,74
15:57:37.020581,22528
15:57:37.020581,0
15:57:37.020581,100
15:57:37.020581,24320
15:57:37.020581,0
15:57:37.020581,91
15:57:37.020581,23808
15:57:37.020581,0
15:57:37.020581,93
15:57:37.020581,23808
15:57:37.020581,0
15:57:37.020581,91
15:57:37.020581,22016
15:57:37.020581,0
15:57:37.020581,76
15:57:37.020581,18944
15:57:37.020581,0
15:57:37.020581,71
15:57:37.020581,17152
15:57:37.020581,0
15:57:37.020581,64
15:57:37.020581,16384
15:57:37.020581,0
15:57:37.020581,57
15:57:37.020581,13312
15:57:37.020581,0
15:57:37.020581,50
15:57:37.020581,13312
15:57:37.020581,0
15:57:37.020581,50
15:57:37.020581,12032
15:57:37.020581,0
15:57:37.020581,50
15:57:37.020581,12800
15:57:37.020581,0
15:57:37.020581,47
15:57:37.020581,12800
15:57:37.020581,0
15:57:37.020581,47
15:57:37.020581,8960
15:57:37.020581,0
15:57:37.020581,38
15:57:37.020581,11520
15:57:37.020581,0
15:57:37.020581,40
15:57:37.020581,9728
15:57:37.020581,0
15:57:37.020581,38
15:57:37.020581,9728
15:57:37.020581,0
15:57:37.020581,40
15:57:37.020581,11008
15:57:37.020581,0
15:57:37.020581,47
15:57:37.020581,13312
15:57:37.020581,0
15:57:37.020581,57
15:57:37.020581,15104
15:57:37.020581,0
15:57:37.020581,52
15:57:37.020581,5376
15:57:37.020581,0
15:57:37.020581,-4
15:57:37.020581,767
15:57:37.020581,0
15:57:37.020581,14
15:57:37.020581,4864
15:57:37.020581,0
15:57:37.020581,26
15:57:37.020581,7936
15:57:37.020581,0
15:57:37.020581,23
15:57:37.020581,5376
15:57:37.020581,0
15:57:37.020581,26
15:57:37.020581,7168
15:57:37.020581,0
15:57:37.020581,26
15:57:37.020581,7936
15:57:37.020581,0
15:57:37.020581,86
15:57:37.020581,-11008
15:57:37.020581,0
15:57:37.020581,186
15:57:37.020581,20736
15:57:37.020581,-2
15:57:37.020581,-1392
15:57:37.020581,-7681
15:57:37.020581,-7
15:57:37.020581,-788
15:57:37.020581,19199
15:57:37.020581,-1
15:57:37.020581,-40
15:57:37.020581,27647
15:57:37.020581,0
15:57:37.020581,222
15:57:37.606003,189
15:57:37.606003,-18432
15:57:37.606003,0
15:57:37.606003,220
15:57:37.606003,-12288
15:57:37.606003,0
15:57:37.606003,189
15:57:37.606003,-14848
15:57:37.606003,0
15:57:37.606003,206
15:57:37.606003,-12800
15:57:37.606003,0
15:57:37.606003,201
15:57:37.606003,-15872
15:57:37.606003,0
15:57:37.606003,184
15:57:37.606003,-18944
15:57:37.606003,0
15:57:37.606003,174
15:57:37.606003,-23296
15:57:37.606003,0
15:57:37.606003,158
15:57:37.606003,-27136
15:57:37.606003,0
15:57:37.606003,143
15:57:37.606003,-32000
15:57:37.606003,0
15:57:37.606003,122
15:57:37.606003,28672
15:57:37.606003,0
15:57:37.606003,91
15:57:37.606003,15104
15:57:37.606003,0
15:57:37.606003,40
15:57:37.606003,7936
15:57:37.606003,0
15:57:37.606003,14
15:57:37.606003,-512
15:57:37.606003,-1
15:57:37.606003,-2
15:57:37.606003,3839
15:57:37.606003,0
15:57:37.606003,40
15:57:37.606003,17152
15:57:37.606003,0
15:57:37.606003,79
15:57:37.606003,20736
15:57:37.606003,0
15:57:37.606003,83
15:57:37.606003,24320
15:57:37.606003,0
15:57:37.606003,98
15:57:37.606003,23808
15:57:37.606003,0
15:57:37.606003,88
15:57:37.606003,23296
15:57:37.606003,0
15:57:37.606003,95
15:57:37.606003,23296
15:57:37.606003,0
15:57:37.606003,88
15:57:37.606003,23296
15:57:37.606003,0
15:57:37.606003,83
15:57:37.606003,19456
15:57:37.606003,0
15:57:37.606003,79
15:57:37.606003,18944
15:57:37.606003,0
15:57:37.606003,64
15:57:37.606003,15104
15:57:37.606003,0
15:57:37.606003,59
15:57:37.606003,14080
15:57:37.606003,0
15:57:37.606003,47
15:57:37.606003,12800
15:57:37.606003,0
15:57:37.606003,50
15:57:37.606003,12032
15:57:37.606003,0
15:57:37.606003,50
15:57:37.606003,12032
15:57:37.606003,0
15:57:37.606003,38
15:57:37.606003,11008
15:57:37.606003,0
15:57:37.606003,47
15:57:37.606003,12800
15:57:37.606003,0
15:57:37.606003,55
15:57:37.606003,16384
15:57:37.606003,0
15:57:37.606003,69
15:57:37.606003,19456
15:57:37.606003,0
15:57:37.606003,86
15:57:37.606003,22016
15:57:37.606003,0
15:57:37.606003,79
15:57:37.606003,14080
15:57:37.606003,0
15:57:37.606003,23
15:57:37.606003,3584
15:57:37.606003,0
15:57:37.606003,31
15:57:37.606003,11008
15:57:37.606003,0
15:57:37.606003,47
15:57:38.145986,47
15:57:38.145986,12032
15:57:38.145986,0
15:57:38.145986,50
15:57:38.145986,12800
15:57:38.145986,0
15:57:38.145986,43
15:57:38.145986,9728
15:57:38.145986,0
15:57:38.145986,43
15:57:38.145986,15104
15:57:38.145986,0
15:57:38.145986,146
15:57:38.145986,5632
15:57:38.145986,1
15:57:38.145986,95
15:57:38.145986,12032
15:57:38.145986,-3
15:57:38.145986,-1500
15:57:38.145986,10751
15:57:38.145986,-5
15:57:38.145986,-436
15:57:38.145986,-21761
15:57:38.145986,-1
15:57:38.145986,19
15:57:38.145986,-16640
15:57:38.145986,0
15:57:38.145986,232
15:57:38.145986,-15360
15:57:38.145986,0
15:57:38.145986,218
15:57:38.145986,-6144
15:57:38.145986,0
15:57:38.145986,210
15:57:38.145986,-12800
15:57:38.145986,0
15:57:38.145986,203
15:57:38.145986,-15872
15:57:38.145986,0
15:57:38.145986,184
15:57:38.145986,-18944
15:57:38.145986,0
15:57:38.145986,177
15:57:38.145986,-22784
15:57:38.145986,0
15:57:38.145986,165
15:57:38.145986,-24576
15:57:38.145986,0
15:57:38.145986,153
15:57:38.145986,-27648
15:57:38.145986,0
15:57:38.145986,143
15:57:38.145986,-31232
15:57:38.145986,0
15:57:38.145986,119
15:57:38.145986,27392
15:57:38.145986,0
15:57:38.145986,93
15:57:38.145986,18176
15:57:38.145986,0
15:57:38.145986,43
15:57:38.145986,3584
15:57:38.145986,0
15:57:38.145986,-7
15:57:38.145986,-5121
15:57:38.145986,-1
15:57:38.145986,-28
15:57:38.145986,-3841
15:57:38.145986,-1
15:57:38.145986,11
15:57:38.145986,9728
15:57:38.145986,0
15:57:38.145986,52
15:57:38.145986,15872
15:57:38.145986,0
15:57:38.145986,71
15:57:38.145986,20224
15:57:38.145986,0
15:57:38.145986,79
15:57:38.145986,20224
15:57:38.145986,0
15:57:38.145986,79
15:57:38.145986,20224
15:57:38.145986,0
15:57:38.145986,76
15:57:38.145986,20736
15:57:38.145986,0
15:57:38.145986,86
15:57:38.145986,22528
15:57:38.145986,0
15:57:38.145986,83
15:57:38.145986,20224
15:57:38.145986,0
15:57:38.145986,76
15:57:38.145986,17664
15:57:38.145986,0
15:57:38.145986,64
15:57:38.145986,15104
15:57:38.145986,0
15:57:38.145986,52
15:57:38.145986,11520
15:57:38.145986,0
15:57:38.145986,43
15:57:38.145986,10240
15:57:38.145986,0
15:57:38.145986,35
15:57:38.145986,8448
15:57:38.145986,0
15:57:38.145986,33
15:57:38.731547,33
15:57:38.731547,8448
15:57:38.731547,0
15:57:38.731547,33
15:57:38.731547,8960
15:57:38.731547,0
15:57:38.731547,33
15:57:38.731547,7936
15:57:38.731547,0
15:57:38.731547,35
15:57:38.731547,12032
15:57:38.731547,0
15:57:38.731547,55
15:57:38.731547,12032
15:57:38.731547,0
15:57:38.731547,47
15:57:38.731547,14592
15:57:38.731547,0
15:57:38.731547,67
15:57:38.731547,17664
15:57:38.731547,0
15:57:38.731547,71
15:57:38.731547,14592
15:57:38.731547,0
15:57:38.731547,28
15:57:38.731547,2816
15:57:38.731547,0
15:57:38.731547,14
15:57:38.731547,5888
15:57:38.731547,0
15:57:38.731547,33
15:57:38.731547,8960
15:57:38.731547,0
15:57:38.731547,35
15:57:38.731547,8960
15:57:38.731547,0
15:57:38.731547,35
15:57:38.731547,8448
15:57:38.731547,0
15:57:38.731547,31
15:57:38.731547,5888
15:57:38.731547,0
15:57:38.731547,26
15:57:38.731547,18944
15:57:38.731547,0
15:57:38.731547,206
15:57:38.731547,-10496
15:57:38.731547,0
15:57:38.731547,-373
15:57:38.731547,-30209
15:57:38.731547,-6
15:57:38.731547,-1701
15:57:38.731547,22015
15:57:38.731547,-4
15:57:38.731547,-227
15:57:38.731547,-8705
15:57:38.731547,-1
15:57:38.731547,98
15:57:38.731547,-7936
15:57:38.731547,0
15:57:38.731547,215
15:57:38.731547,-13568
15:57:38.731547,0
15:57:38.731547,227
15:57:38.731547,-9728
15:57:38.731547,0
15:57:38.731547,198
15:57:38.731547,-13568
15:57:38.731547,0
15:57:38.731547,203
15:57:38.731547,-16640
15:57:38.731547,0
15:57:38.731547,186
15:57:38.731547,-17920
15:57:38.731547,0
15:57:38.731547,182
15:57:38.731547,-20224
15:57:38.731547,0
15:57:38.731547,172
15:57:38.731547,-24064
15:57:38.731547,0
15:57:38.731547,160
15:57:38.731547,-25856
15:57:38.731547,0
15:57:38.731547,150
15:57:38.731547,-29952
15:57:38.731547,0
15:57:38.731547,124
15:57:38.731547,28672
15:57:38.731547,0
15:57:38.731547,95
15:57:38.731547,18176
15:57:38.731547,0
15:57:38.731547,45
15:57:38.731547,5888
15:57:38.731547,0
15:57:38.731547,-2
15:57:38.731547,-5633
15:57:38.731547,-1
15:57:38.731547,-31
15:57:38.731547,-5121
15:57:38.731547,-1
15:57:38.731547,0
15:57:38.731547,4096
15:57:38.731547,0
15:57:38.731547,28
15:57:38.731547,11008
15:57:38.731547,0
15:57:38.731547,47
15:57:39.271463,47
15:57:39.271463,12032
15:57:39.271463,0
15:57:39.271463,50
15:57:39.271463,11520
15:57:39.271463,0
15:57:39.271463,43
15:57:39.271463,11520
15:57:39.271463,0
15:57:39.271463,45
15:57:39.271463,10240
15:57:39.271463,0
15:57:39.271463,43
15:57:39.271463,13312
15:57:39.271463,0
15:57:39.271463,64
15:57:39.271463,18944
15:57:39.271463,0
15:57:39.271463,71
15:57:39.271463,17664
15:57:39.271463,0
15:57:39.271463,71
15:57:39.271463,17664
15:57:39.271463,0
15:57:39.271463,62
15:57:39.271463,15104
15:57:39.271463,0
15:57:39.271463,55
15:57:39.271463,13312
15:57:39.271463,0
15:57:39.271463,50
15:57:39.271463,12032
15:57:39.271463,0
15:57:39.271463,43
15:57:39.271463,11008
15:57:39.271463,0
15:57:39.271463,43
15:57:39.271463,8960
15:57:39.271463,0
15:57:39.271463,28
15:57:39.271463,8448
15:57:39.271463,0
15:57:39.271463,35
15:57:39.271463,7936
15:57:39.271463,0
15:57:39.271463,28
15:57:39.271463,7936
15:57:39.271463,0
15:57:39.271463,33
15:57:39.271463,7936
15:57:39.271463,0
15:57:39.271463,28
15:57:39.271463,7168
15:57:39.271463,0
15:57:39.271463,28
15:57:39.271463,7168
15:57:39.271463,0
15:57:39.271463,33
15:57:39.271463,10240
15:57:39.271463,0
15:57:39.271463,38
15:57:39.271463,8960
15:57:39.271463,0
15:57:39.271463,35
15:57:39.271463,8448
15:57:39.271463,0
15:57:39.271463,31
15:57:39.271463,8448
15:57:39.271463,0
15:57:39.271463,35
15:57:39.271463,7936
15:57:39.271463,0
15:57:39.271463,26
15:57:39.271463,7168
15:57:39.271463,0
15:57:39.271463,33
15:57:39.271463,8960
15:57:39.271463,0
15:57:39.271463,33
15:57:39.271463,7936
15:57:39.271463,0
15:57:39.271463,40
15:57:39.271463,13312
15:57:39.271463,0
15:57:39.271463,62
15:57:39.271463,15872
15:57:39.271463,0
15:57:39.271463,52
15:57:39.271463,7936
15:57:39.271463,0
15:57:39.271463,11
15:57:39.271463,2816
15:57:39.271463,0
15:57:39.271463,26
15:57:39.271463,8448
15:57:39.271463,0
15:57:39.271463,38
15:57:39.271463,9728
15:57:39.271463,0
15:57:39.271463,35
15:57:39.271463,8960
15:57:39.271463,0
15:57:39.271463,35
15:57:39.271463,8448
15:57:39.271463,0
15:57:39.271463,33
15:57:39.271463,8960
15:57:39.271463,0
15:57:39.271463,79
15:57:39.857049,213
15:57:39.857049,-14848
15:57:39.857049,0
15:57:39.857049,-457
15:57:39.857049,10239
15:57:39.857049,-6
15:57:39.857049,-1718
15:57:39.857049,31231
15:57:39.857049,-4
15:57:39.857049,-191
15:57:39.857049,2559
15:57:39.857049,0
15:57:39.857049,153
15:57:39.857049,3072
15:57:39.857049,1
15:57:39.857049,249
15:57:39.857049,-4864
15:57:39.857049,0
15:57:39.857049,263
15:57:39.857049,1280
15:57:39.857049,1
15:57:39.857049,242
15:57:39.857049,-4864
15:57:39.857049,0
15:57:39.857049,232
15:57:39.857049,-8704
15:57:39.857049,0
15:57:39.857049,220
15:57:39.857049,-9216
15:57:39.857049,0
15:57:39.857049,213
15:57:39.857049,-14080
15:57:39.857049,0
15:57:39.857049,196
15:57:39.857049,-14848
15:57:39.857049,0
15:57:39.857049,194
15:57:39.857049,-17152
15:57:39.857049,0
15:57:39.857049,184
15:57:39.857049,-20992
15:57:39.857049,0
15:57:39.857049,165
15:57:39.857049,-26368
15:57:39.857049,0
15:57:39.857049,136
15:57:39.857049,30464
15:57:39.857049,0
15:57:39.857049,100
15:57:39.857049,18176
15:57:39.857049,0
15:57:39.857049,40
15:57:39.857049,4096
15:57:39.857049,0
15:57:39.857049,0
15:57:39.857049,-512
15:57:39.857049,-1
15:57:39.857049,4
15:57:39.857049,5376
15:57:39.857049,0
15:57:39.857049,38
15:57:39.857049,13312
15:57:39.857049,0
15:57:39.857049,62
15:57:39.857049,18176
15:57:39.857049,0
15:57:39.857049,71
15:57:39.857049,15872
15:57:39.857049,0
15:57:39.857049,55
15:57:39.857049,14080
15:57:39.857049,0
15:57:39.857049,55
15:57:39.857049,13312
15:57:39.857049,0
15:57:39.857049,55
15:57:39.857049,15104
15:57:39.857049,0
15:57:39.857049,64
15:57:39.857049,17152
15:57:39.857049,0
15:57:39.857049,69
15:57:39.857049,18944
15:57:39.857049,0
15:57:39.857049,74
15:57:39.857049,18944
15:57:39.857049,0
15:57:39.857049,71
15:57:39.857049,17152
15:57:39.857049,0
15:57:39.857049,64
15:57:39.857049,16384
15:57:39.857049,0
15:57:39.857049,59
15:57:39.857049,14080
15:57:39.857049,0
15:57:39.857049,47
15:57:39.857049,11520
15:57:39.857049,0
15:57:39.857049,45
15:57:39.857049,10240
15:57:39.857049,0
15:57:39.857049,35
15:57:39.857049,7936
15:57:39.857049,0
15:57:39.857049,26
15:57:39.857049,7168
15:57:39.857049,0
15:57:39.857049,28
15:57:40.395514,26
15:57:40.395514,6656
15:57:40.395514,0
15:57:40.395514,26
15:57:40.395514,5888
15:57:40.395514,0
15:57:40.395514,23
15:57:40.395514,5888
15:57:40.395514,0
15:57:40.395514,26
15:57:40.395514,6656
15:57:40.395514,0
15:57:40.395514,23
15:57:40.395514,6656
15:57:40.395514,0
15:57:40.395514,40
15:57:40.395514,14080
15:57:40.395514,0
15:57:40.395514,52
15:57:40.395514,11008
15:57:40.395514,0
15:57:40.395514,45
15:57:40.395514,12032
15:57:40.395514,0
15:57:40.395514,47
15:57:40.395514,13312
15:57:40.395514,0
15:57:40.395514,52
15:57:40.395514,11520
15:57:40.395514,0
15:57:40.395514,40
15:57:40.395514,11520
15:57:40.395514,0
15:57:40.395514,45
15:57:40.395514,12032
15:57:40.395514,0
15:57:40.395514,52
15:57:40.395514,12800
15:57:40.395514,0
15:57:40.395514,47
15:57:40.395514,12032
15:57:40.395514,0
15:57:40.395514,50
15:57:40.395514,12800
15:57:40.395514,0
15:57:40.395514,50
15:57:40.395514,11520
15:57:40.395514,0
15:57:40.395514,43
15:57:40.395514,11520
15:57:40.395514,0
15:57:40.395514,47
15:57:40.395514,13312
15:57:40.395514,0
15:57:40.395514,59
15:57:40.395514,16384
15:57:40.395514,0
15:57:40.395514,55
15:57:40.395514,8960
15:57:40.395514,0
15:57:40.395514,21
15:57:40.395514,4864
15:57:40.395514,0
15:57:40.395514,26
15:57:40.395514,10240
15:57:40.395514,0
15:57:40.395514,47
15:57:40.395514,11520
15:57:40.395514,0
15:57:40.395514,40
15:57:40.395514,11008
15:57:40.395514,0
15:57:40.395514,43
15:57:40.395514,10240
15:57:40.395514,0
15:57:40.395514,40
15:57:40.395514,14592
15:57:40.395514,0
15:57:40.395514,148
15:57:40.395514,1792
15:57:40.395514,1
15:57:40.395514,-26
15:57:40.395514,11519
15:57:40.395514,-4
15:57:40.395514,-1744
15:57:40.395514,-17409
15:57:40.395514,-6
15:57:40.395514,-443
15:57:40.395514,-10753
15:57:40.395514,-1
15:57:40.395514,62
15:57:40.395514,-11776
15:57:40.395514,0
15:57:40.395514,256
15:57:40.395514,-7936
15:57:40.395514,0
15:57:40.395514,242
15:57:40.395514,-512
15:57:40.395514,0
15:57:40.395514,237
15:57:40.395514,-6144
15:57:40.395514,0
15:57:40.395514,232
15:57:40.395514,-8704
15:57:40.395514,0
15:57:40.395514,215
15:57:40.395514,-10496
15:57:40.395514,0
15:57:40.395514,210
15:57:40.935859,203
15:57:40.935859,-14848
15:57:40.935859,0
15:57:40.935859,196
15:57:40.935859,-14848
15:57:40.935859,0
15:57:40.935859,196
15:57:40.935859,-17152
15:57:40.935859,0
15:57:40.935859,186
15:57:40.935859,-17152
15:57:40.935859,0
15:57:40.935859,189
15:57:40.935859,-19712
15:57:40.935859,0
15:57:40.935859,158
15:57:40.935859,-29952
15:57:40.935859,0
15:57:40.935859,117
15:57:40.935859,22016
15:57:40.935859,0
15:57:40.935859,64
15:57:40.935859,11520
15:57:40.935859,0
15:57:40.935859,26
15:57:40.935859,7936
15:57:40.935859,0
15:57:40.935859,55
15:57:40.935859,18944
15:57:40.935859,0
15:57:40.935859,81
15:57:40.935859,23808
15:57:40.935859,0
15:57:40.935859,98
15:57:40.935859,25600
15:57:40.935859,0
15:57:40.935859,103
15:57:40.935859,26368
15:57:40.935859,0
15:57:40.935859,98
15:57:40.935859,23296
15:57:40.935859,0
15:57:40.935859,91
15:57:40.935859,23296
15:57:40.935859,0
15:57:40.935859,91
15:57:40.935859,24320
15:57:40.935859,0
15:57:40.935859,100
15:57:40.935859,25088
15:57:40.935859,0
15:57:40.935859,98
15:57:40.935859,26880
15:57:40.935859,0
15:57:40.935859,107
15:57:40.935859,27392
15:57:40.935859,0
15:57:40.935859,105
15:57:40.935859,26368
15:57:40.935859,0
15:57:40.935859,103
15:57:40.935859,25088
15:57:40.935859,0
15:57:40.935859,91
15:57:40.935859,22016
15:57:40.935859,0
15:57:40.935859,81
15:57:40.935859,18176
15:57:40.935859,0
15:57:40.935859,64
15:57:40.935859,15872
15:57:40.935859,0
15:57:40.935859,59
15:57:40.935859,15104
15:57:40.935859,0
15:57:40.935859,57
15:57:40.935859,12800
15:57:40.935859,0
15:57:40.935859,50
15:57:40.935859,14080
15:57:40.935859,0
15:57:40.935859,50
15:57:40.935859,12032
15:57:40.935859,0
15:57:40.935859,47
15:57:40.935859,10240
15:57:40.935859,0
15:57:40.935859,38
15:57:40.935859,10240
15:57:40.935859,0
15:57:40.935859,40
15:57:40.935859,8960
15:57:40.935859,0
15:57:40.935859,33
15:57:40.935859,8448
15:57:40.935859,0
15:57:40.935859,31
15:57:40.935859,7936
15:57:40.935859,0
15:57:40.935859,33
15:57:40.935859,8448
15:57:40.935859,0
15:57:40.935859,28
15:57:40.935859,6656
15:57:40.935859,0
15:57:40.935859,31
15:57:40.935859,8448
15:57:40.935859,0
15:57:40.935859,33
15:57:41.521231,31
15:57:41.521231,7168
15:57:41.521231,0
15:57:41.521231,23
15:57:41.521231,5376
15:57:41.521231,0
15:57:41.521231,28
15:57:41.521231,11008
15:57:41.521231,0
15:57:41.521231,57
15:57:41.521231,13312
15:57:41.521231,0
15:57:41.521231,38
15:57:41.521231,7936
15:57:41.521231,0
15:57:41.521231,23
15:57:41.521231,2816
15:57:41.521231,0
15:57:41.521231,11
15:57:41.521231,5376
15:57:41.521231,0
15:57:41.521231,31
15:57:41.521231,7168
15:57:41.521231,0
15:57:41.521231,19
15:57:41.521231,3584
15:57:41.521231,0
15:57:41.521231,14
15:57:41.521231,2304
15:57:41.521231,0
15:57:41.521231,7
15:57:41.521231,3584
15:57:41.521231,0
15:57:41.521231,83
15:57:41.521231,-11008
15:57:41.521231,0
15:57:41.521231,79
15:57:41.521231,13312
15:57:41.521231,-3
15:57:41.521231,-1617
15:57:41.521231,11263
15:57:41.521231,-6
15:57:41.521231,-613
15:57:41.521231,-29697
15:57:41.521231,-1
15:57:41.521231,-14
15:57:41.521231,-32257
15:57:41.521231,0
15:57:41.521231,206
15:57:41.521231,-21504
15:57:41.521231,0
15:57:41.521231,179
15:57:41.521231,-14848
15:57:41.521231,0
15:57:41.521231,177
15:57:41.521231,-23296
15:57:41.521231,0
15:57:41.521231,174
15:57:41.521231,-20992
15:57:41.521231,0
15:57:41.521231,165
15:57:41.521231,-26368
15:57:41.521231,0
15:57:41.521231,146
15:57:41.521231,-32512
15:57:41.521231,0
15:57:41.521231,122
15:57:41.521231,31744
15:57:41.521231,0
15:57:41.521231,122
15:57:41.521231,29440
15:57:41.521231,0
15:57:41.521231,107
15:57:41.521231,26880
15:57:41.521231,0
15:57:41.521231,98
15:57:41.521231,22016
15:57:41.521231,0
15:57:41.521231,76
15:57:41.521231,11520
15:57:41.521231,0
15:57:41.521231,7
15:57:41.521231,-1792
15:57:41.521231,-1
15:57:41.521231,-14
15:57:41.521231,-8705
15:57:41.521231,-1
15:57:41.521231,-50
15:57:41.521231,-11777
15:57:41.521231,-1
15:57:41.521231,-35
15:57:41.521231,-2049
15:57:41.521231,-1
15:57:41.521231,19
15:57:41.521231,8448
15:57:41.521231,0
15:57:41.521231,50
15:57:41.521231,16384
15:57:41.521231,0
15:57:41.521231,59
15:57:41.521231,12800
15:57:41.521231,0
15:57:41.521231,50
15:57:41.521231,14592
15:57:41.521231,0
15:57:41.521231,57
15:57:41.521231,12800
15:57:41.521231,0
15:57:41.521231,50
15:57:42.151463,50
15:57:42.151463,13312
15:57:42.151463,0
15:57:42.151463,59
15:57:42.151463,18176
15:57:42.151463,0
15:57:42.151463,69
15:57:42.151463,15872
15:57:42.151463,0
15:57:42.151463,52
15:57:42.151463,12800
15:57:42.151463,0
15:57:42.151463,64
15:57:42.151463,18176
15:57:42.151463,0
15:57:42.151463,62
15:57:42.151463,12032
15:57:42.151463,0
15:57:42.151463,43
15:57:42.151463,12032
15:57:42.151463,0
15:57:42.151463,50
15:57:42.151463,11008
15:57:42.151463,0
15:57:42.151463,38
15:57:42.151463,11008
15:57:42.151463,0
15:57:42.151463,38
15:57:42.151463,6656
15:57:42.151463,0
15:57:42.151463,31
15:57:42.151463,11520
15:57:42.151463,0
15:57:42.151463,43
15:57:42.151463,7936
15:57:42.151463,0
15:57:42.151463,26
15:57:42.151463,7168
15:57:42.151463,0
15:57:42.151463,38
15:57:42.151463,11008
15:57:42.151463,0
15:57:42.151463,33
15:57:42.151463,4864
15:57:42.151463,0
15:57:42.151463,21
15:57:42.151463,8448
15:57:42.151463,0
15:57:42.151463,31
15:57:42.151463,4864
15:57:42.151463,0
15:57:42.151463,21
15:57:42.151463,8448
15:57:42.151463,0
15:57:42.151463,21
15:57:42.151463,1792
15:57:42.151463,0
15:57:42.151463,21
15:57:42.151463,7168
15:57:42.151463,0
15:57:42.151463,23
15:57:42.151463,5888
15:57:42.151463,0
15:57:42.151463,21
15:57:42.151463,4096
15:57:42.151463,0
15:57:42.151463,19
15:57:42.151463,7168
15:57:42.151463,0
15:57:42.151463,19
15:57:42.151463,2304
15:57:42.151463,0
15:57:42.151463,21
15:57:42.151463,8448
15:57:42.151463,0
15:57:42.151463,28
15:57:42.151463,5376
15:57:42.151463,0
15:57:42.151463,11
15:57:42.151463,1024
15:57:42.151463,0
15:57:42.151463,-7
15:57:42.151463,-2561
15:57:42.151463,-1
15:57:42.151463,9
15:57:42.151463,6656
15:57:42.151463,0
15:57:42.151463,16
15:57:42.151463,2304
15:57:42.151463,0
15:57:42.151463,9
15:57:42.151463,1792
15:57:42.151463,0
15:57:42.151463,7
15:57:42.151463,2816
15:57:42.151463,0
15:57:42.151463,31
15:57:42.151463,31232
15:57:42.151463,0
15:57:42.151463,218
15:57:42.151463,-22016
15:57:42.151463,-1
15:57:42.151463,-1008
15:57:42.151463,21759
15:57:42.151463,-7
15:57:42.151463,-1289
15:57:42.151463,20479
15:57:42.151463,-2
15:57:42.151463,-86
15:57:42.646467,16
15:57:42.646467,-22784
15:57:42.646467,0
15:57:42.646467,201
15:57:42.646467,-23296
15:57:42.646467,0
15:57:42.646467,191
15:57:42.646467,-12800
15:57:42.646467,0
15:57:42.646467,184
15:57:42.646467,-19712
15:57:42.646467,0
15:57:42.646467,182
15:57:42.646467,-22784
15:57:42.646467,0
15:57:42.646467,162
15:57:42.646467,-24064
15:57:42.646467,0
15:57:42.646467,158
15:57:42.646467,-27136
15:57:42.646467,0
15:57:42.646467,153
15:57:42.646467,-26368
15:57:42.646467,0
15:57:42.646467,139
15:57:42.646467,-30720
15:57:42.646467,0
15:57:42.646467,146
15:57:42.646467,-29952
15:57:42.646467,0
15:57:42.646467,124
15:57:42.646467,30464
15:57:42.646467,0
15:57:42.646467,107
15:57:42.646467,18944
15:57:42.646467,0
15:57:42.646467,47
15:57:42.646467,8960
15:57:42.646467,0
15:57:42.646467,11
15:57:42.646467,-4096
15:57:42.646467,-1
15:57:42.646467,-21
15:57:42.646467,-3841
15:57:42.646467,-1
15:57:42.646467,-7
15:57:42.646467,5631
15:57:42.646467,0
15:57:42.646467,47
15:57:42.646467,14592
15:57:42.646467,0
15:57:42.646467,71
15:57:42.646467,22016
15:57:42.646467,0
15:57:42.646467,83
15:57:42.646467,20736
15:57:42.646467,0
15:57:42.646467,83
15:57:42.646467,19456
15:57:42.646467,0
15:57:42.646467,76
15:57:42.646467,22528
15:57:42.646467,0
15:57:42.646467,91
15:57:42.646467,20736
15:57:42.646467,0
15:57:42.646467,79
15:57:42.646467,22016
15:57:42.646467,0
15:57:42.646467,91
15:57:42.646467,22016
15:57:42.646467,0
15:57:42.646467,79
15:57:42.646467,18176
15:57:42.646467,0
15:57:42.646467,69
15:57:42.646467,17152
15:57:42.646467,0
15:57:42.646467,62
15:57:42.646467,14080
15:57:42.646467,0
15:57:42.646467,50
15:57:42.646467,11520
15:57:42.646467,0
15:57:42.646467,45
15:57:42.646467,12800
15:57:42.646467,0
15:57:42.646467,50
15:57:42.646467,12032
15:57:42.646467,0
15:57:42.646467,45
15:57:42.646467,11008
15:57:42.646467,0
15:57:42.646467,43
15:57:42.646467,10240
15:57:42.646467,0
15:57:42.646467,43
15:57:42.646467,11520
15:57:42.646467,0
15:57:42.646467,45
15:57:42.646467,10240
15:57:42.646467,0
15:57:42.646467,38
15:57:42.646467,9728
15:57:42.646467,0
15:57:42.646467,40
15:57:42.646467,12032
15:57:42.646467,0
15:57:42.646467,47
15:57:43.186710,40
15:57:43.186710,11008
15:57:43.186710,0
15:57:43.186710,45
15:57:43.186710,8960
15:57:43.186710,0
15:57:43.186710,35
15:57:43.186710,11520
15:57:43.186710,0
15:57:43.186710,50
15:57:43.186710,14592
15:57:43.186710,0
15:57:43.186710,69
15:57:43.186710,19456
15:57:43.186710,0
15:57:43.186710,71
15:57:43.186710,14592
15:57:43.186710,0
15:57:43.186710,50
15:57:43.186710,11008
15:57:43.186710,0
15:57:43.186710,31
15:57:43.186710,8960
15:57:43.186710,0
15:57:43.186710,59
15:57:43.186710,16384
15:57:43.186710,0
15:57:43.186710,47
15:57:43.186710,10240
15:57:43.186710,0
15:57:43.186710,45
15:57:43.186710,12032
15:57:43.186710,0
15:57:43.186710,40
15:57:43.186710,9728
15:57:43.186710,0
15:57:43.186710,88
15:57:43.186710,-10496
15:57:43.186710,0
15:57:43.186710,222
15:57:43.186710,-17664
15:57:43.186710,-2
15:57:43.186710,-1270
15:57:43.186710,5887
15:57:43.186710,-6
15:57:43.186710,-783
15:57:43.186710,18687
15:57:43.186710,-1
15:57:43.186710,-64
15:57:43.186710,21503
15:57:43.186710,0
15:57:43.186710,222
15:57:43.186710,-14848
15:57:43.186710,0
15:57:43.186710,184
15:57:43.186710,-11008
15:57:43.186710,0
15:57:43.186710,206
15:57:43.186710,-16640
15:57:43.186710,0
15:57:43.186710,191
15:57:43.186710,-17920
15:57:43.186710,0
15:57:43.186710,179
15:57:43.186710,-20224
15:57:43.186710,0
15:57:43.186710,170
15:57:43.186710,-23296
15:57:43.186710,0
15:57:43.186710,160
15:57:43.186710,-25856
15:57:43.186710,0
15:57:43.186710,155
15:57:43.186710,-25088
15:57:43.186710,0
15:57:43.186710,150
15:57:43.186710,-30720
15:57:43.186710,0
15:57:43.186710,129
15:57:43.186710,28672
15:57:43.186710,0
15:57:43.186710,93
15:57:43.186710,20224
15:57:43.186710,0
15:57:43.186710,57
15:57:43.186710,6656
15:57:43.186710,0
15:57:43.186710,11
15:57:43.186710,0
15:57:43.186710,0
15:57:43.186710,-23
15:57:43.186710,-8193
15:57:43.186710,-1
15:57:43.186710,-11
15:57:43.186710,5631
15:57:43.186710,0
15:57:43.186710,45
15:57:43.186710,17664
15:57:43.186710,0
15:57:43.186710,91
15:57:43.186710,26368
15:57:43.186710,0
15:57:43.186710,105
15:57:43.186710,28160
15:57:43.186710,0
15:57:43.186710,110
15:57:43.186710,26368
15:57:43.186710,0
15:57:43.186710,98
15:57:43.770542,98
15:57:43.770542,26880
15:57:43.770542,0
15:57:43.770542,107
15:57:43.770542,26368
15:57:43.770542,0
15:57:43.770542,93
15:57:43.770542,23808
15:57:43.770542,0
15:57:43.770542,107
15:57:43.770542,28160
15:57:43.770542,0
15:57:43.770542,95
15:57:43.770542,22016
15:57:43.770542,0
15:57:43.770542,81
15:57:43.770542,18944
15:57:43.770542,0
15:57:43.770542,71
15:57:43.770542,16384
15:57:43.770542,0
15:57:43.770542,57
15:57:43.770542,14080
15:57:43.770542,0
15:57:43.770542,52
15:57:43.770542,13312
15:57:43.770542,0
15:57:43.770542,57
15:57:43.770542,13312
15:57:43.770542,0
15:57:43.770542,50
15:57:43.770542,12800
15:57:43.770542,0
15:57:43.770542,50
15:57:43.770542,11520
15:57:43.770542,0
15:57:43.770542,43
15:57:43.770542,11520
15:57:43.770542,0
15:57:43.770542,50
15:57:43.770542,12800
15:57:43.770542,0
15:57:43.770542,45
15:57:43.770542,11520
15:57:43.770542,0
15:57:43.770542,47
15:57:43.770542,11520
15:57:43.770542,0
15:57:43.770542,40
15:57:43.770542,10240
15:57:43.770542,0
15:57:43.770542,43
15:57:43.770542,11520
15:57:43.770542,0
15:57:43.770542,43
15:57:43.770542,11008
15:57:43.770542,0
15:57:43.770542,45
15:57:43.770542,14080
15:57:43.770542,0
15:57:43.770542,64
15:57:43.770542,14592
15:57:43.770542,0
15:57:43.770542,33
15:57:43.770542,5376
15:57:43.770542,0
15:57:43.770542,19
15:57:43.770542,3584
15:57:43.770542,0
15:57:43.770542,19
15:57:43.770542,9728
15:57:43.770542,0
15:57:43.770542,47
15:57:43.770542,9728
15:57:43.770542,0
15:57:43.770542,33
15:57:43.770542,8960
15:57:43.770542,0
15:57:43.770542,33
15:57:43.770542,6656
15:57:43.770542,0
15:57:43.770542,33
15:57:43.770542,28160
15:57:43.770542,0
15:57:43.770542,244
15:57:43.770542,27392
15:57:43.770542,0
15:57:43.770542,-685
15:57:43.770542,-15617
15:57:43.770542,-7
15:57:43.770542,-1495
15:57:43.770542,-28161
15:57:43.770542,-3
15:57:43.770542,-127
15:57:43.770542,-2561
15:57:43.770542,-1
15:57:43.770542,153
15:57:43.770542,-5632
15:57:43.770542,0
15:57:43.770542,201
15:57:43.770542,-12800
15:57:43.770542,0
15:57:43.770542,222
15:57:43.770542,-13568
15:57:43.770542,0
15:57:43.770542,198
15:57:43.770542,-14080
15:57:43.770542,0
15:57:43.770542,194
15:57:44.310512,184
15:57:44.310512,-17920
15:57:44.310512,0
15:57:44.310512,182
15:57:44.310512,-22016
15:57:44.310512,0
15:57:44.310512,170
15:57:44.310512,-22016
15:57:44.310512,0
15:57:44.310512,158
15:57:44.310512,-26368
15:57:44.310512,0
15:57:44.310512,160
15:57:44.310512,-22784
15:57:44.310512,0
15:57:44.310512,165
15:57:44.310512,-27648
15:57:44.310512,0
15:57:44.310512,129
15:57:44.310512,28672
15:57:44.310512,0
15:57:44.310512,83
15:57:44.310512,15104
15:57:44.310512,0
15:57:44.310512,38
15:57:44.310512,2816
15:57:44.310512,0
15:57:44.310512,-9
15:57:44.310512,-2049
15:57:44.310512,-1
15:57:44.310512,9
15:57:44.310512,8448
15:57:44.310512,0
15:57:44.310512,59
15:57:44.310512,20224
15:57:44.310512,0
15:57:44.310512,88
15:57:44.310512,23296
15:57:44.310512,0
15:57:44.310512,98
15:57:44.310512,26880
15:57:44.310512,0
15:57:44.310512,103
15:57:44.310512,23808
15:57:44.310512,0
15:57:44.310512,91
15:57:44.310512,22528
15:57:44.310512,0
15:57:44.310512,86
15:57:44.310512,22528
15:57:44.310512,0
15:57:44.310512,93
15:57:44.310512,24320
15:57:44.310512,0
15:57:44.310512,98
15:57:44.310512,25088
15:57:44.310512,0
15:57:44.310512,95
15:57:44.310512,24320
15:57:44.310512,0
15:57:44.310512,95
15:57:44.310512,23808
15:57:44.310512,0
15:57:44.310512,91
15:57:44.310512,22528
15:57:44.310512,0
15:57:44.310512,79
15:57:44.310512,17152
15:57:44.310512,0
15:57:44.310512,64
15:57:44.310512,17664
15:57:44.310512,0
15:57:44.310512,67
15:57:44.310512,17664
15:57:44.310512,0
15:57:44.310512,67
15:57:44.310512,15872
15:57:44.310512,0
15:57:44.310512,59
15:57:44.310512,14592
15:57:44.310512,0
15:57:44.310512,57
15:57:44.310512,15104
15:57:44.310512,0
15:57:44.310512,57
15:57:44.310512,14080
15:57:44.310512,0
15:57:44.310512,50
15:57:44.310512,12032
15:57:44.310512,0
15:57:44.310512,47
15:57:44.310512,12800
15:57:44.310512,0
15:57:44.310512,50
15:57:44.310512,12032
15:57:44.310512,0
15:57:44.310512,45
15:57:44.310512,12032
15:57:44.310512,0
15:57:44.310512,47
15:57:44.310512,11520
15:57:44.310512,0
15:57:44.310512,43
15:57:44.310512,10240
15:57:44.310512,0
15:57:44.310512,43
15:57:44.310512,12032
15:57:44.310512,0
15:57:44.310512,59
15:57:44.851192,67
15:57:44.851192,15872
15:57:44.851192,0
15:57:44.851192,43
15:57:44.851192,4096
15:57:44.851192,0
15:57:44.851192,4
15:57:44.851192,1792
15:57:44.851192,0
15:57:44.851192,28
15:57:44.851192,14080
15:57:44.851192,0
15:57:44.851192,59
15:57:44.851192,12800
15:57:44.851192,0
15:57:44.851192,45
15:57:44.851192,12032
15:57:44.851192,0
15:57:44.851192,45
15:57:44.851192,10240
15:57:44.851192,0
15:57:44.851192,38
15:57:44.851192,14080
15:57:44.851192,0
15:57:44.851192,148
15:57:44.851192,1280
15:57:44.851192,1
15:57:44.851192,-4
15:57:44.851192,28671
15:57:44.851192,-4
15:57:44.851192,-1692
15:57:44.851192,-19201
15:57:44.851192,-6
15:57:44.851192,-467
15:57:44.851192,-14849
15:57:44.851192,-1
15:57:44.851192,38
15:57:44.851192,-17152
15:57:44.851192,0
15:57:44.851192,242
15:57:44.851192,-11776
15:57:44.851192,0
15:57:44.851192,225
15:57:44.851192,-5632
15:57:44.851192,0
15:57:44.851192,215
15:57:44.851192,-12800
15:57:44.851192,0
15:57:44.851192,210
15:57:44.851192,-11776
15:57:44.851192,0
15:57:44.851192,206
15:57:44.851192,-14848
15:57:44.851192,0
15:57:44.851192,194
15:57:44.851192,-17920
15:57:44.851192,0
15:57:44.851192,182
15:57:44.851192,-19712
15:57:44.851192,0
15:57:44.851192,174
15:57:44.851192,-21504
15:57:44.851192,0
15:57:44.851192,170
15:57:44.851192,-24576
15:57:44.851192,0
15:57:44.851192,148
15:57:44.851192,-30720
15:57:44.851192,0
15:57:44.851192,122
15:57:44.851192,26880
15:57:44.851192,0
15:57:44.851192,81
15:57:44.851192,14080
15:57:44.851192,0
15:57:44.851192,33
15:57:44.851192,2816
15:57:44.851192,0
15:57:44.851192,-9
15:57:44.851192,-2561
15:57:44.851192,-1
15:57:44.851192,9
15:57:44.851192,8448
15:57:44.851192,0
15:57:44.851192,47
15:57:44.851192,15872
15:57:44.851192,0
15:57:44.851192,79
15:57:44.851192,22528
15:57:44.851192,0
15:57:44.851192,83
15:57:44.851192,20736
15:57:44.851192,0
15:57:44.851192,88
15:57:44.851192,22016
15:57:44.851192,0
15:57:44.851192,76
15:57:44.851192,20224
15:57:44.851192,0
15:57:44.851192,86
15:57:44.851192,22016
15:57:44.851192,0
15:57:44.851192,86
15:57:44.851192,22528
15:57:44.851192,0
15:57:44.851192,91
15:57:44.851192,23808
15:57:44.851192,0
15:57:44.851192,100
15:57:45.481478,103
15:57:45.481478,26368
15:57:45.481478,0
15:57:45.481478,105
15:57:45.481478,27392
15:57:45.481478,0
15:57:45.481478,110
15:57:45.481478,28672
15:57:45.481478,0
15:57:45.481478,105
15:57:45.481478,23808
15:57:45.481478,0
15:57:45.481478,93
15:57:45.481478,25088
15:57:45.481478,0
15:57:45.481478,93
15:57:45.481478,20736
15:57:45.481478,0
15:57:45.481478,79
15:57:45.481478,21248
15:57:45.481478,0
15:57:45.481478,83
15:57:45.481478,20224
15:57:45.481478,0
15:57:45.481478,76
15:57:45.481478,20224
15:57:45.481478,0
15:57:45.481478,81
15:57:45.481478,23296
15:57:45.481478,0
15:57:45.481478,100
15:57:45.481478,26880
15:57:45.481478,0
15:57:45.481478,95
15:57:45.481478,20224
15:57:45.481478,0
15:57:45.481478,57
15:57:45.481478,12032
15:57:45.481478,0
15:57:45.481478,52
15:57:45.481478,16384
15:57:45.481478,0
15:57:45.481478,79
15:57:45.481478,20736
15:57:45.481478,0
15:57:45.481478,71
15:57:45.481478,18176
15:57:45.481478,0
15:57:45.481478,79
15:57:45.481478,19456
15:57:45.481478,0
15:57:45.481478,71
15:57:45.481478,17152
15:57:45.481478,0
15:57:45.481478,79
15:57:45.481478,-24064
15:57:45.481478,0
15:57:45.481478,289
15:57:45.481478,-31232
15:57:45.481478,0
15:57:45.481478,-663
15:57:45.481478,5887
15:57:45.481478,-6
15:57:45.481478,-1332
15:57:45.481478,5119
15:57:45.481478,-2
15:57:45.481478,-95
15:57:45.481478,255
15:57:45.481478,0
15:57:45.481478,189
15:57:45.481478,0
15:57:45.481478,1
15:57:45.481478,210
15:57:45.481478,-7424
15:57:45.481478,0
15:57:45.481478,246
15:57:45.481478,-7936
15:57:45.481478,0
15:57:45.481478,218
15:57:45.481478,-9216
15:57:45.481478,0
15:57:45.481478,208
15:57:45.481478,-12800
15:57:45.481478,0
15:57:45.481478,201
15:57:45.481478,-16640
15:57:45.481478,0
15:57:45.481478,186
15:57:45.481478,-19712
15:57:45.481478,0
15:57:45.481478,172
15:57:45.481478,-22784
15:57:45.481478,0
15:57:45.481478,158
15:57:45.481478,-27136
15:57:45.481478,0
15:57:45.481478,148
15:57:45.481478,-32000
15:57:45.481478,0
15:57:45.481478,107
15:57:45.481478,24320
15:57:45.481478,0
15:57:45.481478,79
15:57:45.481478,11008
15:57:45.481478,0
15:57:45.481478,14
15:57:45.481478,0
15:57:45.481478,0
15:57:45.481478,-14
15:57:46.066468,-19
15:57:46.066468,255
15:57:46.066468,0
15:57:46.066468,31
15:57:46.066468,15872
15:57:46.066468,0
15:57:46.066468,81
15:57:46.066468,25088
15:57:46.066468,0
15:57:46.066468,110
15:57:46.066468,29440
15:57:46.066468,0
15:57:46.066468,112
15:57:46.066468,27392
15:57:46.066468,0
15:57:46.066468,100
15:57:46.066468,25600
15:57:46.066468,0
15:57:46.066468,112
15:57:46.066468,-32512
15:57:46.066468,0
15:57:46.066468,131
15:57:46.066468,31232
15:57:46.066468,0
15:57:46.066468,122
15:57:46.066468,32512
15:57:46.066468,0
15:57:46.066468,122
15:57:46.066468,28672
15:57:46.066468,0
15:57:46.066468,105
15:57:46.066468,25600
15:57:46.066468,0
15:57:46.066468,93
15:57:46.066468,21248
15:57:46.066468,0
15:57:46.066468,79
15:57:46.066468,19456
15:57:46.066468,0
15:57:46.066468,67
15:57:46.066468,17152
15:57:46.066468,0
15:57:46.066468,69
15:57:46.066468,15104
15:57:46.066468,0
15:57:46.066468,55
15:57:46.066468,15104
15:57:46.066468,0
15:57:46.066468,59
15:57:46.066468,13312
15:57:46.066468,0
15:57:46.066468,55
15:57:46.066468,15104
15:57:46.066468,0
15:57:46.066468,59
15:57:46.066468,15104
15:57:46.066468,0
15:57:46.066468,62
15:57:46.066468,18176
15:57:46.066468,0
15:57:46.066468,76
15:57:46.066468,20736
15:57:46.066468,0
15:57:46.066468,76
15:57:46.066468,11008
15:57:46.066468,0
15:57:46.066468,11
15:57:46.066468,4864
15:57:46.066468,0
15:57:46.066468,31
15:57:46.066468,6656
15:57:46.066468,0
15:57:46.066468,28
15:57:46.066468,8960
15:57:46.066468,0
15:57:46.066468,35
15:57:46.066468,7168
15:57:46.066468,0
15:57:46.066468,23
15:57:46.066468,5376
15:57:46.066468,0
15:57:46.066468,19
15:57:46.066468,4864
15:57:46.066468,0
15:57:46.066468,38
15:57:46.066468,-32000
15:57:46.066468,0
15:57:46.066468,244
15:57:46.066468,-2816
15:57:46.066468,-1
15:57:46.066468,-893
15:57:46.066468,-21249
15:57:46.066468,-7
15:57:46.066468,-1255
15:57:46.066468,16639
15:57:46.066468,-2
15:57:46.066468,-139
15:57:46.066468,-5633
15:57:46.066468,-1
15:57:46.066468,162
15:57:46.066468,-15360
15:57:46.066468,0
15:57:46.066468,155
15:57:46.066468,-19712
15:57:46.066468,0
15:57:46.066468,189
15:57:46.066468,-21504
15:57:46.066468,0
15:57:46.066468,172
15:57:46.560535,167
15:57:46.560535,-26368
15:57:46.560535,0
15:57:46.560535,150
15:57:46.560535,-28160
15:57:46.560535,0
15:57:46.560535,141
15:57:46.560535,-29952
15:57:46.560535,0
15:57:46.560535,134
15:57:46.560535,-32512
15:57:46.560535,0
15:57:46.560535,127
15:57:46.560535,29952
15:57:46.560535,0
15:57:46.560535,112
15:57:46.560535,28160
15:57:46.560535,0
15:57:46.560535,95
15:57:46.560535,20224
15:57:46.560535,0
15:57:46.560535,67
15:57:46.560535,12032
15:57:46.560535,0
15:57:46.560535,23
15:57:46.560535,512
15:57:46.560535,0
15:57:46.560535,-23
15:57:46.560535,-12545
15:57:46.560535,-1
15:57:46.560535,-55
15:57:46.560535,-9985
15:57:46.560535,-1
15:57:46.560535,-19
15:57:46.560535,2559
15:57:46.560535,0
15:57:46.560535,31
15:57:46.560535,10240
15:57:46.560535,0
15:57:46.560535,47
15:57:46.560535,12800
15:57:46.560535,0
15:57:46.560535,50
15:57:46.560535,12032
15:57:46.560535,0
15:57:46.560535,45
15:57:46.560535,10240
15:57:46.560535,0
15:57:46.560535,40
15:57:46.560535,11520
15:57:46.560535,0
15:57:46.560535,43
15:57:46.560535,11008
15:57:46.560535,0
15:57:46.560535,47
15:57:46.560535,12032
15:57:46.560535,0
15:57:46.560535,45
15:57:46.560535,11520
15:57:46.560535,0
15:57:46.560535,40
15:57:46.560535,7936
15:57:46.560535,0
15:57:46.560535,28
15:57:46.560535,7168
15:57:46.560535,0
15:57:46.560535,19
15:57:46.560535,2816
15:57:46.560535,0
15:57:46.560535,9
15:57:46.560535,2304
15:57:46.560535,0
15:57:46.560535,4
15:57:46.560535,1024
15:57:46.560535,0
15:57:46.560535,7
15:57:46.560535,1792
15:57:46.560535,0
