timestamp,ecg
19:29:40.526307,233
19:29:40.526307,-10752
19:29:40.526307,0
19:29:40.526307,202
19:29:40.526307,-20480
19:29:40.526307,0
19:29:40.526307,145
19:29:40.526307,25344
19:29:40.526307,0
19:29:40.526307,64
19:29:40.526307,10752
19:29:40.526307,0
19:29:40.526307,19
19:29:40.526307,-1024
19:29:40.526307,-1
19:29:40.526307,-19
19:29:40.526307,-7425
19:29:40.526307,-1
19:29:40.526307,-49
19:29:40.526307,-19713
19:29:40.526307,-1
19:29:40.526307,-109
19:29:40.526307,29439
19:29:40.526307,-1
19:29:40.526307,-166
19:29:40.526307,18943
19:29:40.526307,-1
19:29:40.526307,-183
19:29:40.526307,23807
19:29:40.526307,-1
19:29:40.526307,-197
19:29:40.526307,-1
19:29:40.526307,-2
19:29:40.526307,-259
19:29:40.526307,-4865
19:29:40.526307,-2
19:29:40.526307,-311
19:29:40.526307,-18689
19:29:40.526307,-2
19:29:40.526307,-352
19:29:40.526307,-14593
19:29:40.526307,-2
19:29:40.526307,-154
19:29:40.526307,767
19:29:40.526307,0
19:29:40.526307,-69
19:29:40.526307,-4097
19:29:40.526307,-2
19:29:40.526307,-340
19:29:40.526307,-18177
19:29:40.526307,-2
19:29:40.526307,-385
19:29:40.526307,26623
19:29:40.526307,-2
19:29:40.526307,-385
19:29:40.526307,27903
19:29:40.526307,-2
19:29:40.526307,-421
19:29:40.526307,26111
19:29:40.526307,-2
19:29:40.526307,-407
19:29:40.526307,26111
19:29:40.526307,-2
19:29:40.526307,-404
19:29:40.526307,29695
19:29:40.526307,-2
19:29:40.526307,-404
19:29:40.526307,27903
19:29:40.526307,-2
19:29:40.526307,-395
19:29:40.526307,31487
19:29:40.526307,-2
19:29:40.526307,-380
19:29:40.526307,-29697
19:29:40.526307,-2
19:29:40.526307,-366
19:29:40.526307,-24321
19:29:40.526307,-2
19:29:40.526307,-347
19:29:40.526307,-19969
19:29:40.526307,-2
19:29:40.526307,-321
19:29:40.526307,-15617
19:29:40.526307,-2
19:29:40.526307,-318
19:29:40.526307,-15617
19:29:40.526307,-2
19:29:40.526307,-314
19:29:40.526307,-15617
19:29:40.526307,-2
19:29:40.526307,-340
19:29:40.526307,-27393
19:29:40.526307,-2
19:29:40.526307,-388
19:29:40.526307,27135
19:29:40.526307,-2
19:29:40.526307,-418
19:29:40.526307,20479
19:29:40.526307,-2
19:29:40.526307,-437
19:29:40.526307,18175
19:29:40.526307,-2
19:29:40.526307,-449
19:29:40.526307,16383
19:29:40.526307,-2
19:29:40.526307,-457
19:29:40.526307,14335
19:29:40.526307,-2
19:29:40.526307,-459
19:29:41.061727,-473
19:29:41.061727,7167
19:29:41.061727,-2
19:29:41.061727,-497
19:29:41.061727,511
19:29:41.061727,-2
19:29:41.061727,-518
19:29:41.061727,-4353
19:29:41.061727,-3
19:29:41.061727,-542
19:29:41.061727,-10497
19:29:41.061727,-3
19:29:41.061727,-568
19:29:41.061727,-14081
19:29:41.061727,-3
19:29:41.061727,-552
19:29:41.061727,-13057
19:29:41.061727,-3
19:29:41.061727,-623
19:29:41.061727,31231
19:29:41.061727,-3
19:29:41.061727,-633
19:29:41.061727,31231
19:29:41.061727,-3
19:29:41.061727,-656
19:29:41.061727,-32513
19:29:41.061727,-3
19:29:41.061727,-640
19:29:41.061727,31231
19:29:41.061727,-3
19:29:41.061727,-649
19:29:41.061727,32511
19:29:41.061727,-3
19:29:41.061727,-635
19:29:41.061727,31743
19:29:41.061727,-3
19:29:41.061727,-647
19:29:41.061727,-31233
19:29:41.061727,-3
19:29:41.061727,-626
19:29:41.061727,-23297
19:29:41.061727,-3
19:29:41.061727,-587
19:29:41.061727,-18945
19:29:41.061727,-3
19:29:41.061727,-576
19:29:41.061727,-13569
19:29:41.061727,-3
19:29:41.061727,-559
19:29:41.061727,-9217
19:29:41.061727,-3
19:29:41.061727,-542
19:29:41.061727,-5633
19:29:41.061727,-3
19:29:41.061727,-528
19:29:41.061727,-769
19:29:41.061727,-3
19:29:41.061727,-504
19:29:41.061727,4607
19:29:41.061727,-2
19:29:41.061727,-480
19:29:41.061727,8959
19:29:41.061727,-2
19:29:41.061727,-480
19:29:41.061727,8959
19:29:41.061727,-2
19:29:41.061727,-445
19:29:41.061727,-7937
19:29:41.061727,-2
19:29:41.061727,-85
19:29:41.061727,-22273
19:29:41.061727,-1
19:29:41.061727,-268
19:29:41.061727,-27393
19:29:41.061727,-2
19:29:41.061727,-345
19:29:41.061727,-27905
19:29:41.061727,-2
19:29:41.061727,-397
19:29:41.061727,-26113
19:29:41.061727,-2
19:29:41.061727,-333
19:29:41.061727,-18689
19:29:41.061727,-2
19:29:41.061727,-304
19:29:41.061727,-2817
19:29:41.061727,-2
19:29:41.061727,-245
19:29:41.061727,7423
19:29:41.061727,-1
19:29:41.061727,-218
19:29:41.061727,11007
19:29:41.061727,-1
19:29:41.061727,-207
19:29:41.061727,15871
19:29:41.061727,-1
19:29:41.061727,-185
19:29:41.061727,19711
19:29:41.061727,-1
19:29:41.061727,-164
19:29:41.061727,28159
19:29:41.061727,-1
19:29:41.061727,-126
19:29:41.061727,-24065
19:29:41.061727,-1
19:29:41.061727,-76
19:29:41.061727,-11265
19:29:41.061727,-1
19:29:41.061727,0
19:29:41.605703,23
19:29:41.605703,10240
19:29:41.605703,0
19:29:41.605703,52
19:29:41.605703,15104
19:29:41.605703,0
19:29:41.605703,64
19:29:41.605703,15616
19:29:41.605703,0
19:29:41.605703,57
19:29:41.605703,18688
19:29:41.605703,0
19:29:41.605703,90
19:29:41.605703,15616
19:29:41.605703,0
19:29:41.605703,35
19:29:41.605703,16896
19:29:41.605703,0
19:29:41.605703,88
19:29:41.605703,19968
19:29:41.605703,0
19:29:41.605703,83
19:29:41.605703,23040
19:29:41.605703,0
19:29:41.605703,104
19:29:41.605703,30976
19:29:41.605703,0
19:29:41.605703,114
19:29:41.605703,29696
19:29:41.605703,0
19:29:41.605703,135
19:29:41.605703,32256
19:29:41.605703,0
19:29:41.605703,121
19:29:41.605703,-31488
19:29:41.605703,0
19:29:41.605703,138
19:29:41.605703,-32256
19:29:41.605703,0
19:29:41.605703,128
19:29:41.605703,-30976
19:29:41.605703,0
19:29:41.605703,138
19:29:41.605703,-30208
19:29:41.605703,0
19:29:41.605703,147
19:29:41.605703,-26624
19:29:41.605703,0
19:29:41.605703,159
19:29:41.605703,-23552
19:29:41.605703,0
19:29:41.605703,166
19:29:41.605703,-18688
19:29:41.605703,0
19:29:41.605703,192
19:29:41.605703,-16384
19:29:41.605703,0
19:29:41.605703,195
19:29:41.605703,-15104
19:29:41.605703,0
19:29:41.605703,199
19:29:41.605703,-15104
19:29:41.605703,0
19:29:41.605703,209
19:29:41.605703,-5888
19:29:41.605703,0
19:29:41.605703,245
19:29:41.605703,-1792
19:29:41.605703,0
19:29:41.605703,245
19:29:41.605703,-1792
19:29:41.605703,0
19:29:41.605703,257
19:29:41.605703,-4096
19:29:41.605703,0
19:29:41.605703,226
19:29:41.605703,-6656
19:29:41.605703,0
19:29:41.605703,230
19:29:41.605703,-6656
19:29:41.605703,0
19:29:41.605703,235
19:29:41.605703,-5376
19:29:41.605703,0
19:29:41.605703,235
19:29:41.605703,-4096
19:29:41.605703,0
19:29:41.605703,252
19:29:41.605703,-2816
19:29:41.605703,0
19:29:41.605703,230
19:29:41.605703,1280
19:29:41.605703,1
19:29:41.605703,399
19:29:41.605703,22272
19:29:41.605703,2
19:29:41.605703,630
19:29:41.605703,-18432
19:29:41.605703,1
19:29:41.605703,304
19:29:41.605703,8704
19:29:41.605703,1
19:29:41.605703,264
19:29:41.605703,-4608
19:29:41.605703,0
19:29:41.605703,245
19:29:41.605703,1280
19:29:41.605703,1
19:29:41.605703,261
19:29:42.189436,268
19:29:42.189436,8704
19:29:42.189436,1
19:29:42.189436,299
19:29:42.189436,15360
19:29:42.189436,1
19:29:42.189436,352
19:29:42.189436,29440
19:29:42.189436,1
19:29:42.189436,342
19:29:42.189436,12288
19:29:42.189436,1
19:29:42.189436,316
19:29:42.189436,18944
19:29:42.189436,1
19:29:42.189436,323
19:29:42.189436,19712
19:29:42.189436,1
19:29:42.189436,340
19:29:42.189436,23808
19:29:42.189436,1
19:29:42.189436,364
19:29:42.189436,26880
19:29:42.189436,1
19:29:42.189436,383
19:29:42.189436,-25856
19:29:42.189436,1
19:29:42.189436,411
19:29:42.189436,-24576
19:29:42.189436,1
19:29:42.189436,426
19:29:42.189436,-21504
19:29:42.189436,1
19:29:42.189436,423
19:29:42.189436,-28160
19:29:42.189436,1
19:29:42.189436,385
19:29:42.189436,31232
19:29:42.189436,1
19:29:42.189436,368
19:29:42.189436,28672
19:29:42.189436,1
19:29:42.189436,371
19:29:42.189436,28672
19:29:42.189436,1
19:29:42.189436,359
19:29:42.189436,24576
19:29:42.189436,1
19:29:42.189436,357
19:29:42.189436,25856
19:29:42.189436,1
19:29:42.189436,357
19:29:42.189436,26880
19:29:42.189436,1
19:29:42.189436,352
19:29:42.189436,23296
19:29:42.189436,1
19:29:42.189436,342
19:29:42.189436,21504
19:29:42.189436,1
19:29:42.189436,345
19:29:42.189436,19712
19:29:42.189436,1
19:29:42.189436,321
19:29:42.189436,15872
19:29:42.189436,1
19:29:42.189436,311
19:29:42.189436,14848
19:29:42.189436,1
19:29:42.189436,314
19:29:42.189436,11776
19:29:42.189436,1
19:29:42.189436,299
19:29:42.189436,9984
19:29:42.189436,1
19:29:42.189436,295
19:29:42.189436,9216
19:29:42.189436,1
19:29:42.189436,290
19:29:42.189436,8704
19:29:42.189436,1
19:29:42.189436,276
19:29:42.189436,3840
19:29:42.189436,1
19:29:42.189436,276
19:29:42.189436,2560
19:29:42.189436,1
19:29:42.189436,264
19:29:42.189436,-1024
19:29:42.189436,0
19:29:42.189436,242
19:29:42.189436,-1792
19:29:42.189436,0
19:29:42.189436,254
19:29:42.189436,768
19:29:42.189436,1
19:29:42.189436,259
19:29:42.189436,-2304
19:29:42.189436,0
19:29:42.189436,245
19:29:42.189436,-5888
19:29:42.189436,0
19:29:42.189436,233
19:29:42.189436,-4608
19:29:42.189436,0
19:29:42.189436,221
19:29:42.189436,-10240
19:29:42.189436,0
19:29:42.189436,218
19:29:42.728843,211
19:29:42.728843,-10752
19:29:42.728843,0
19:29:42.728843,209
19:29:42.728843,-13824
19:29:42.728843,0
19:29:42.728843,180
19:29:42.728843,-24320
19:29:42.728843,0
19:29:42.728843,185
19:29:42.728843,12288
19:29:42.728843,1
19:29:42.728843,535
19:29:42.728843,21760
19:29:42.728843,2
19:29:42.728843,359
19:29:42.728843,-19968
19:29:42.728843,0
19:29:42.728843,169
19:29:42.728843,-32768
19:29:42.728843,0
19:29:42.728843,66
19:29:42.728843,8960
19:29:42.728843,0
19:29:42.728843,7
19:29:42.728843,-9728
19:29:42.728843,-1
19:29:42.728843,-71
19:29:42.728843,-17921
19:29:42.728843,-1
19:29:42.728843,-73
19:29:42.728843,-22785
19:29:42.728843,-1
19:29:42.728843,-107
19:29:42.728843,29439
19:29:42.728843,-1
19:29:42.728843,-164
19:29:42.728843,23807
19:29:42.728843,-1
19:29:42.728843,-161
19:29:42.728843,26879
19:29:42.728843,-1
19:29:42.728843,-152
19:29:42.728843,26879
19:29:42.728843,-1
19:29:42.728843,-140
19:29:42.728843,-31233
19:29:42.728843,-1
19:29:42.728843,-116
19:29:42.728843,-27649
19:29:42.728843,-1
19:29:42.728843,-92
19:29:42.728843,-19201
19:29:42.728843,-1
19:29:42.728843,-73
19:29:42.728843,-14849
19:29:42.728843,-1
19:29:42.728843,-54
19:29:42.728843,-15361
19:29:42.728843,-1
19:29:42.728843,-66
19:29:42.728843,-20225
19:29:42.728843,-1
19:29:42.728843,-92
19:29:42.728843,-24065
19:29:42.728843,-1
19:29:42.728843,-99
19:29:42.728843,-24577
19:29:42.728843,-1
19:29:42.728843,-97
19:29:42.728843,-25089
19:29:42.728843,-1
19:29:42.728843,-88
19:29:42.728843,-19713
19:29:42.728843,-1
19:29:42.728843,-64
19:29:42.728843,-11265
19:29:42.728843,-1
19:29:42.728843,-40
19:29:42.728843,-11265
19:29:42.728843,-1
19:29:42.728843,-45
19:29:42.728843,-9985
19:29:42.728843,-1
19:29:42.728843,-45
19:29:42.728843,-12289
19:29:42.728843,-1
19:29:42.728843,-42
19:29:42.728843,-9473
19:29:42.728843,-1
19:29:42.728843,-38
19:29:42.728843,-9985
19:29:42.728843,-1
19:29:42.728843,-57
19:29:42.728843,-14849
19:29:42.728843,-1
19:29:42.728843,-52
19:29:42.728843,-13569
19:29:42.728843,-1
19:29:42.728843,-47
19:29:42.728843,-9985
19:29:42.728843,-1
19:29:42.728843,-40
19:29:42.728843,-7425
19:29:42.728843,-1
19:29:42.728843,-9
19:29:42.728843,2559
19:29:42.728843,0
19:29:42.728843,9
19:29:43.404264,7
19:29:43.404264,5376
19:29:43.404264,0
19:29:43.404264,33
19:29:43.404264,12544
19:29:43.404264,0
19:29:43.404264,73
19:29:43.404264,29696
19:29:43.404264,0
19:29:43.404264,140
19:29:43.404264,27904
19:29:43.404264,0
19:29:43.404264,107
19:29:43.404264,-29696
19:29:43.404264,0
19:29:43.404264,140
19:29:43.404264,-28416
19:29:43.404264,0
19:29:43.404264,161
19:29:43.404264,-24320
19:29:43.404264,0
19:29:43.404264,169
19:29:43.404264,-18688
19:29:43.404264,0
19:29:43.404264,185
19:29:43.404264,-19968
19:29:43.404264,0
19:29:43.404264,178
19:29:43.404264,-19968
19:29:43.404264,0
19:29:43.404264,173
19:29:43.404264,-19968
19:29:43.404264,0
19:29:43.404264,188
19:29:43.404264,-19456
19:29:43.404264,0
19:29:43.404264,178
19:29:43.404264,-18176
19:29:43.404264,0
19:29:43.404264,188
19:29:43.404264,-18688
19:29:43.404264,0
19:29:43.404264,178
19:29:43.404264,-15104
19:29:43.404264,0
19:29:43.404264,295
19:29:43.404264,-4352
19:29:43.404264,1
19:29:43.404264,616
19:29:43.404264,-6912
19:29:43.404264,1
19:29:43.404264,288
19:29:43.404264,-5888
19:29:43.404264,0
19:29:43.404264,228
19:29:43.404264,-15616
19:29:43.404264,0
19:29:43.404264,192
19:29:43.404264,-13312
19:29:43.404264,0
19:29:43.404264,207
19:29:43.404264,-13824
19:29:43.404264,0
19:29:43.404264,204
19:29:43.404264,-13824
19:29:43.404264,0
19:29:43.404264,202
19:29:43.404264,-13824
19:29:43.404264,0
19:29:43.404264,192
19:29:43.404264,-18688
19:29:43.404264,0
19:29:43.404264,180
19:29:43.404264,-18176
19:29:43.404264,0
19:29:43.404264,197
19:29:43.404264,-13824
19:29:43.404264,0
19:29:43.404264,192
19:29:43.404264,-16896
19:29:43.404264,0
19:29:43.404264,195
19:29:43.404264,-15104
19:29:43.404264,0
19:29:43.404264,204
19:29:43.404264,-11520
19:29:43.404264,0
19:29:43.404264,211
19:29:43.404264,-13312
19:29:43.404264,0
19:29:43.404264,204
19:29:43.404264,-12544
19:29:43.404264,0
19:29:43.404264,209
19:29:43.404264,-12032
19:29:43.404264,0
19:29:43.404264,178
19:29:43.404264,-30208
19:29:43.404264,0
19:29:43.404264,123
19:29:43.404264,29696
19:29:43.404264,0
19:29:43.404264,107
19:29:43.404264,26624
19:29:43.404264,0
19:29:43.404264,99
19:29:43.404264,23040
19:29:43.404264,0
19:29:43.404264,85
19:29:43.899694,83
19:29:43.899694,20480
19:29:43.899694,0
19:29:43.899694,78
19:29:43.899694,16896
19:29:43.899694,0
19:29:43.899694,52
19:29:43.899694,10240
19:29:43.899694,0
19:29:43.899694,26
19:29:43.899694,4864
19:29:43.899694,0
19:29:43.899694,9
19:29:43.899694,-4864
19:29:43.899694,-1
19:29:43.899694,-47
19:29:43.899694,-15361
19:29:43.899694,-1
19:29:43.899694,-80
19:29:43.899694,-24577
19:29:43.899694,-1
19:29:43.899694,-99
19:29:43.899694,-27649
19:29:43.899694,-1
19:29:43.899694,-116
19:29:43.899694,-29441
19:29:43.899694,-1
19:29:43.899694,-121
19:29:43.899694,-29441
19:29:43.899694,-1
19:29:43.899694,-85
19:29:43.899694,-21505
19:29:43.899694,-1
19:29:43.899694,-140
19:29:43.899694,23807
19:29:43.899694,-1
19:29:43.899694,-154
19:29:43.899694,23295
19:29:43.899694,-1
19:29:43.899694,-176
19:29:43.899694,20223
19:29:43.899694,-1
19:29:43.899694,-190
19:29:43.899694,14847
19:29:43.899694,-1
19:29:43.899694,-202
19:29:43.899694,15871
19:29:43.899694,-1
19:29:43.899694,-192
19:29:43.899694,12799
19:29:43.899694,-1
19:29:43.899694,-214
19:29:43.899694,10495
19:29:43.899694,-1
19:29:43.899694,-228
19:29:43.899694,3839
19:29:43.899694,-1
19:29:43.899694,-261
19:29:43.899694,-5377
19:29:43.899694,-2
19:29:43.899694,-283
19:29:43.899694,-7937
19:29:43.899694,-2
19:29:43.899694,-299
19:29:43.899694,-14593
19:29:43.899694,-2
19:29:43.899694,-326
19:29:43.899694,-21761
19:29:43.899694,-2
19:29:43.899694,-368
19:29:43.899694,31999
19:29:43.899694,-2
19:29:43.899694,-404
19:29:43.899694,23551
19:29:43.899694,-2
19:29:43.899694,-359
19:29:43.899694,19711
19:29:43.899694,-1
19:29:43.899694,-52
19:29:43.899694,23807
19:29:43.899694,-1
19:29:43.899694,-359
19:29:43.899694,30975
19:29:43.899694,-2
19:29:43.899694,-373
19:29:43.899694,22271
19:29:43.899694,-2
19:29:43.899694,-454
19:29:43.899694,19455
19:29:43.899694,-2
19:29:43.899694,-437
19:29:43.899694,17407
19:29:43.899694,-2
19:29:43.899694,-449
19:29:43.899694,15103
19:29:43.899694,-2
19:29:43.899694,-447
19:29:43.899694,18687
19:29:43.899694,-2
19:29:43.899694,-445
19:29:43.899694,16383
19:29:43.899694,-2
19:29:43.899694,-454
19:29:43.899694,14335
19:29:43.899694,-2
19:29:43.899694,-452
19:29:43.899694,18687
19:29:43.899694,-2
19:29:43.899694,-430
19:29:44.484283,-411
19:29:44.484283,30975
19:29:44.484283,-2
19:29:44.484283,-385
19:29:44.484283,-30465
19:29:44.484283,-2
19:29:44.484283,-357
19:29:44.484283,-20737
19:29:44.484283,-2
19:29:44.484283,-321
19:29:44.484283,-15617
19:29:44.484283,-2
19:29:44.484283,-318
19:29:44.484283,-16385
19:29:44.484283,-2
19:29:44.484283,-333
19:29:44.484283,-18177
19:29:44.484283,-2
19:29:44.484283,-321
19:29:44.484283,-26625
19:29:44.484283,-2
19:29:44.484283,-402
19:29:44.484283,31487
19:29:44.484283,-2
19:29:44.484283,-378
19:29:44.484283,-32257
19:29:44.484283,-2
19:29:44.484283,-380
19:29:44.484283,-30465
19:29:44.484283,-2
19:29:44.484283,-378
19:29:44.484283,-29185
19:29:44.484283,-2
19:29:44.484283,-366
19:29:44.484283,-27393
19:29:44.484283,-2
19:29:44.484283,-357
19:29:44.484283,-25601
19:29:44.484283,-2
19:29:44.484283,-352
19:29:44.484283,-21761
19:29:44.484283,-2
19:29:44.484283,-340
19:29:44.484283,-19969
19:29:44.484283,-2
19:29:44.484283,-330
19:29:44.484283,-18177
19:29:44.484283,-2
19:29:44.484283,-323
19:29:44.484283,-15105
19:29:44.484283,-2
19:29:44.484283,-316
19:29:44.484283,-14593
19:29:44.484283,-2
19:29:44.484283,-309
19:29:44.484283,-12801
19:29:44.484283,-2
19:29:44.484283,-311
19:29:44.484283,-13313
19:29:44.484283,-2
19:29:44.484283,-295
19:29:44.484283,-6657
19:29:44.484283,-2
19:29:44.484283,-276
19:29:44.484283,-5889
19:29:44.484283,-2
19:29:44.484283,-288
19:29:44.484283,-10241
19:29:44.484283,-2
19:29:44.484283,-292
19:29:44.484283,-5889
19:29:44.484283,-2
19:29:44.484283,-271
19:29:44.484283,-1
19:29:44.484283,-2
19:29:44.484283,-245
19:29:44.484283,3839
19:29:44.484283,-1
19:29:44.484283,-228
19:29:44.484283,11007
19:29:44.484283,-1
19:29:44.484283,-209
19:29:44.484283,14079
19:29:44.484283,-1
19:29:44.484283,-204
19:29:44.484283,14079
19:29:44.484283,-1
19:29:44.484283,-183
19:29:44.484283,21503
19:29:44.484283,-1
19:29:44.484283,-171
19:29:44.484283,23807
19:29:44.484283,-1
19:29:44.484283,-152
19:29:44.484283,30463
19:29:44.484283,-1
19:29:44.484283,-123
19:29:44.484283,-28929
19:29:44.484283,-1
19:29:44.484283,-121
19:29:44.484283,31231
19:29:44.484283,-1
19:29:44.484283,-126
19:29:44.484283,-7425
19:29:44.484283,-1
19:29:44.484283,173
19:29:44.484283,11008
19:29:44.484283,1
19:29:44.484283,169
19:29:44.978866,-4
19:29:44.978866,-6401
19:29:44.978866,-1
19:29:44.978866,-21
19:29:44.978866,-13057
19:29:44.978866,-1
19:29:44.978866,-45
19:29:44.978866,-5121
19:29:44.978866,-1
19:29:44.978866,-19
19:29:44.978866,-1537
19:29:44.978866,-1
19:29:44.978866,28
19:29:44.978866,17664
19:29:44.978866,0
19:29:44.978866,102
19:29:44.978866,32256
19:29:44.978866,0
19:29:44.978866,130
19:29:44.978866,-32256
19:29:44.978866,0
19:29:44.978866,159
19:29:44.978866,-15616
19:29:44.978866,0
19:29:44.978866,176
19:29:44.978866,-29696
19:29:44.978866,0
19:29:44.978866,161
19:29:44.978866,-18176
19:29:44.978866,0
19:29:44.978866,183
19:29:44.978866,-15104
19:29:44.978866,0
19:29:44.978866,214
19:29:44.978866,-5376
19:29:44.978866,0
19:29:44.978866,266
19:29:44.978866,6912
19:29:44.978866,1
19:29:44.978866,297
19:29:44.978866,15872
19:29:44.978866,1
19:29:44.978866,318
19:29:44.978866,15360
19:29:44.978866,1
19:29:44.978866,311
19:29:44.978866,9984
19:29:44.978866,1
19:29:44.978866,280
19:29:44.978866,5120
19:29:44.978866,1
19:29:44.978866,271
19:29:44.978866,4352
19:29:44.978866,1
19:29:44.978866,280
19:29:44.978866,6144
19:29:44.978866,1
19:29:44.978866,292
19:29:44.978866,15360
19:29:44.978866,1
19:29:44.978866,335
19:29:44.978866,23808
19:29:44.978866,1
19:29:44.978866,361
19:29:44.978866,26368
19:29:44.978866,1
19:29:44.978866,357
19:29:44.978866,25856
19:29:44.978866,1
19:29:44.978866,347
19:29:44.978866,23296
19:29:44.978866,1
19:29:44.978866,349
19:29:44.978866,22784
19:29:44.978866,1
19:29:44.978866,345
19:29:44.978866,20224
19:29:44.978866,1
19:29:44.978866,328
19:29:44.978866,19712
19:29:44.978866,1
19:29:44.978866,328
19:29:44.978866,17152
19:29:44.978866,1
19:29:44.978866,326
19:29:44.978866,16640
19:29:44.978866,1
19:29:44.978866,309
19:29:44.978866,13568
19:29:44.978866,1
19:29:44.978866,309
19:29:44.978866,11008
19:29:44.978866,1
19:29:44.978866,292
19:29:44.978866,8704
19:29:44.978866,1
19:29:44.978866,285
19:29:44.978866,6912
19:29:44.978866,1
19:29:44.978866,283
19:29:44.978866,5120
19:29:44.978866,1
19:29:44.978866,268
19:29:44.978866,256
19:29:44.978866,1
19:29:44.978866,252
19:29:44.978866,768
19:29:44.978866,1
19:29:44.978866,259
19:29:45.563681,259
19:29:45.563681,768
19:29:45.563681,1
19:29:45.563681,259
19:29:45.563681,256
19:29:45.563681,1
19:29:45.563681,247
19:29:45.563681,-2304
19:29:45.563681,0
19:29:45.563681,276
19:29:45.563681,5120
19:29:45.563681,1
19:29:45.563681,233
19:29:45.563681,-8448
19:29:45.563681,0
19:29:45.563681,245
19:29:45.563681,-5376
19:29:45.563681,0
19:29:45.563681,223
19:29:45.563681,-8960
19:29:45.563681,0
19:29:45.563681,214
19:29:45.563681,-15104
19:29:45.563681,0
19:29:45.563681,185
19:29:45.563681,-5888
19:29:45.563681,0
19:29:45.563681,404
19:29:45.563681,19200
19:29:45.563681,2
19:29:45.563681,547
19:29:45.563681,22016
19:29:45.563681,1
19:29:45.563681,235
19:29:45.563681,-5376
19:29:45.563681,0
19:29:45.563681,207
19:29:45.563681,-21248
19:29:45.563681,0
19:29:45.563681,178
19:29:45.563681,-19968
19:29:45.563681,0
19:29:45.563681,169
19:29:45.563681,-21248
19:29:45.563681,0
19:29:45.563681,178
19:29:45.563681,-21248
19:29:45.563681,0
19:29:45.563681,173
19:29:45.563681,-19456
19:29:45.563681,0
19:29:45.563681,192
19:29:45.563681,-17408
19:29:45.563681,0
19:29:45.563681,171
19:29:45.563681,-21760
19:29:45.563681,0
19:29:45.563681,176
19:29:45.563681,-19968
19:29:45.563681,0
19:29:45.563681,188
19:29:45.563681,-14592
19:29:45.563681,0
19:29:45.563681,202
19:29:45.563681,-12032
19:29:45.563681,0
19:29:45.563681,230
19:29:45.563681,-2816
19:29:45.563681,0
19:29:45.563681,257
19:29:45.563681,3840
19:29:45.563681,1
19:29:45.563681,266
19:29:45.563681,256
19:29:45.563681,1
19:29:45.563681,264
19:29:45.563681,256
19:29:45.563681,1
19:29:45.563681,240
19:29:45.563681,-5888
19:29:45.563681,0
19:29:45.563681,226
19:29:45.563681,-9728
19:29:45.563681,0
19:29:45.563681,218
19:29:45.563681,-9728
19:29:45.563681,0
19:29:45.563681,226
19:29:45.563681,-5888
19:29:45.563681,0
19:29:45.563681,230
19:29:45.563681,-6656
19:29:45.563681,0
19:29:45.563681,233
19:29:45.563681,-6656
19:29:45.563681,0
19:29:45.563681,233
19:29:45.563681,-4608
19:29:45.563681,0
19:29:45.563681,228
19:29:45.563681,-8960
19:29:45.563681,0
19:29:45.563681,223
19:29:45.563681,-8960
19:29:45.563681,0
19:29:45.563681,223
19:29:45.563681,-8960
19:29:45.563681,0
19:29:45.563681,209
19:29:46.103834,207
19:29:46.103834,-12032
19:29:46.103834,0
19:29:46.103834,202
19:29:46.103834,-13312
19:29:46.103834,0
19:29:46.103834,202
19:29:46.103834,-15104
19:29:46.103834,0
19:29:46.103834,199
19:29:46.103834,-15104
19:29:46.103834,0
19:29:46.103834,192
19:29:46.103834,-8960
19:29:46.103834,0
19:29:46.103834,235
19:29:46.103834,-18176
19:29:46.103834,0
19:29:46.103834,161
19:29:46.103834,-18688
19:29:46.103834,0
19:29:46.103834,178
19:29:46.103834,-21760
19:29:46.103834,0
19:29:46.103834,173
19:29:46.103834,-24320
19:29:46.103834,0
19:29:46.103834,154
19:29:46.103834,-26112
19:29:46.103834,0
19:29:46.103834,147
19:29:46.103834,-26624
19:29:46.103834,0
19:29:46.103834,154
19:29:46.103834,-27392
19:29:46.103834,0
19:29:46.103834,145
19:29:46.103834,-27904
19:29:46.103834,0
19:29:46.103834,161
19:29:46.103834,-22272
19:29:46.103834,0
19:29:46.103834,145
19:29:46.103834,32256
19:29:46.103834,0
19:29:46.103834,133
19:29:46.103834,-32256
19:29:46.103834,0
19:29:46.103834,121
19:29:46.103834,31488
19:29:46.103834,0
19:29:46.103834,121
19:29:46.103834,26624
19:29:46.103834,0
19:29:46.103834,99
19:29:46.103834,26112
19:29:46.103834,0
19:29:46.103834,92
19:29:46.103834,17664
19:29:46.103834,0
19:29:46.103834,69
19:29:46.103834,-21760
19:29:46.103834,0
19:29:46.103834,376
19:29:46.103834,-10496
19:29:46.103834,1
19:29:46.103834,318
19:29:46.103834,29696
19:29:46.103834,0
19:29:46.103834,57
19:29:46.103834,12544
19:29:46.103834,0
19:29:46.103834,16
19:29:46.103834,1024
19:29:46.103834,0
19:29:46.103834,9
19:29:46.103834,-512
19:29:46.103834,-1
19:29:46.103834,-19
19:29:46.103834,-6401
19:29:46.103834,-1
19:29:46.103834,-33
19:29:46.103834,-13057
19:29:46.103834,-1
19:29:46.103834,-83
19:29:46.103834,-32001
19:29:46.103834,-1
19:29:46.103834,-180
19:29:46.103834,7423
19:29:46.103834,-1
19:29:46.103834,-268
19:29:46.103834,-13825
19:29:46.103834,-2
19:29:46.103834,-335
19:29:46.103834,-21761
19:29:46.103834,-2
19:29:46.103834,-378
19:29:46.103834,24319
19:29:46.103834,-2
19:29:46.103834,-426
19:29:46.103834,26111
19:29:46.103834,-2
19:29:46.103834,-402
19:29:46.103834,30207
19:29:46.103834,-2
19:29:46.103834,-380
19:29:46.103834,-30465
19:29:46.103834,-2
19:29:46.103834,-373
19:29:46.688679,-361
19:29:46.688679,-29185
19:29:46.688679,-2
19:29:46.688679,-409
19:29:46.688679,21247
19:29:46.688679,-2
19:29:46.688679,-428
19:29:46.688679,23039
19:29:46.688679,-2
19:29:46.688679,-404
19:29:46.688679,-31489
19:29:46.688679,-2
19:29:46.688679,-409
19:29:46.688679,16895
19:29:46.688679,-2
19:29:46.688679,-421
19:29:46.688679,31487
19:29:46.688679,-2
19:29:46.688679,-392
19:29:46.688679,32767
19:29:46.688679,-2
19:29:46.688679,-361
19:29:46.688679,-20737
19:29:46.688679,-2
19:29:46.688679,-299
19:29:46.688679,1279
19:29:46.688679,-1
19:29:46.688679,-214
19:29:46.688679,20223
19:29:46.688679,-1
19:29:46.688679,-145
19:29:46.688679,-29441
19:29:46.688679,-1
19:29:46.688679,-78
19:29:46.688679,-3329
19:29:46.688679,-1
19:29:46.688679,57
19:29:46.688679,30976
19:29:46.688679,0
19:29:46.688679,202
19:29:46.688679,12288
19:29:46.688679,1
19:29:46.688679,421
19:29:46.688679,8960
19:29:46.688679,2
19:29:46.688679,645
19:29:46.688679,-7936
19:29:46.688679,2
19:29:46.688679,859
19:29:46.688679,-13568
19:29:46.688679,3
19:29:46.688679,1075
19:29:46.688679,-22528
19:29:46.688679,4
19:29:46.688679,1292
19:29:46.688679,29952
19:29:46.688679,5
19:29:46.688679,1544
19:29:46.688679,-22016
19:29:46.688679,6
19:29:46.688679,1835
19:29:46.688679,-25856
19:29:46.688679,7
19:29:46.688679,2042
19:29:46.688679,19712
19:29:46.688679,8
19:29:46.688679,2216
19:29:46.688679,-2560
19:29:46.688679,8
19:29:46.688679,2349
19:29:46.688679,-24832
19:29:46.688679,9
19:29:46.688679,2649
19:29:46.688679,8448
19:29:46.688679,11
19:29:46.688679,3032
19:29:46.688679,-26368
19:29:46.688679,12
19:29:46.688679,3437
19:29:46.688679,-2304
19:29:46.688679,13
19:29:46.688679,3611
19:29:46.688679,24576
19:29:46.688679,14
19:29:46.688679,3834
19:29:46.688679,-21248
19:29:46.688679,15
19:29:46.688679,4248
19:29:46.688679,-27392
19:29:46.688679,17
19:29:46.688679,4591
19:29:46.688679,9728
19:29:46.688679,18
19:29:46.688679,4867
19:29:46.688679,16384
19:29:46.688679,20
19:29:46.688679,5551
19:29:46.688679,-7168
19:29:46.688679,22
19:29:46.688679,5874
19:29:46.688679,-32768
19:29:46.688679,22
19:29:46.688679,5817
19:29:46.688679,-512
19:29:46.688679,22
19:29:46.688679,5836
19:29:46.688679,-18688
19:29:46.688679,22
19:29:46.688679,5829
19:29:47.228653,5822
19:29:47.228653,-10752
19:29:47.228653,22
19:29:47.228653,5889
19:29:47.228653,6912
19:29:47.228653,23
19:29:47.228653,5946
19:29:47.228653,20736
19:29:47.228653,23
19:29:47.228653,5974
19:29:47.228653,23808
19:29:47.228653,23
19:29:47.228653,5981
19:29:47.228653,31744
19:29:47.228653,23
19:29:47.228653,6074
19:29:47.228653,-32000
19:29:47.228653,23
19:29:47.228653,5898
19:29:47.228653,-5376
19:29:47.228653,22
19:29:47.228653,5865
19:29:47.228653,-12032
19:29:47.228653,22
19:29:47.228653,5836
19:29:47.228653,-18688
19:29:47.228653,22
19:29:47.228653,5772
19:29:47.228653,30976
19:29:47.228653,22
19:29:47.228653,5746
19:29:47.228653,16384
19:29:47.228653,22
19:29:47.228653,5603
19:29:47.228653,-25088
19:29:47.228653,21
19:29:47.228653,5493
19:29:47.228653,13056
19:29:47.228653,21
19:29:47.228653,5353
19:29:47.228653,-21248
19:29:47.228653,20
19:29:47.228653,5239
19:29:47.228653,13824
19:29:47.228653,20
19:29:47.228653,5115
19:29:47.228653,-14080
19:29:47.228653,19
19:29:47.228653,5005
19:29:47.228653,22784
19:29:47.228653,19
19:29:47.228653,4913
19:29:47.228653,-4608
19:29:47.228653,18
19:29:47.228653,4772
19:29:47.228653,27904
19:29:47.228653,18
19:29:47.228653,4670
19:29:47.228653,1280
19:29:47.228653,18
19:29:47.228653,4560
19:29:47.228653,-25600
19:29:47.228653,17
19:29:47.228653,4458
19:29:47.228653,15616
19:29:47.228653,17
19:29:47.228653,4375
19:29:47.228653,-6912
19:29:47.228653,16
19:29:47.228653,4268
19:29:47.228653,31744
19:29:47.228653,16
19:29:47.228653,4175
19:29:47.228653,10496
19:29:47.228653,16
19:29:47.228653,4110
19:29:47.228653,-7168
19:29:47.228653,15
19:29:47.228653,4018
19:29:47.228653,-32256
19:29:47.228653,15
19:29:47.228653,3910
19:29:47.228653,6400
19:29:47.228653,15
19:29:47.228653,3827
19:29:47.228653,-16128
19:29:47.228653,14
19:29:47.228653,3722
19:29:47.228653,27392
19:29:47.228653,14
19:29:47.228653,3658
19:29:47.228653,7424
19:29:47.228653,14
19:29:47.228653,3580
19:29:47.228653,-11008
19:29:47.228653,13
19:29:47.228653,3484
19:29:47.228653,29184
19:29:47.228653,13
19:29:47.228653,3408
19:29:47.228653,10240
19:29:47.228653,13
19:29:47.228653,3327
19:29:47.228653,-11776
19:29:47.228653,12
19:29:47.228653,3232
19:29:47.228653,31744
19:29:47.228653,12
19:29:47.228653,3168
19:29:47.813663,3137
19:29:47.813663,8192
19:29:47.813663,12
19:29:47.813663,3063
19:29:47.813663,-11520
19:29:47.813663,11
19:29:47.813663,2996
19:29:47.813663,-32256
19:29:47.813663,11
19:29:47.813663,2918
19:29:47.813663,-26624
19:29:47.813663,11
19:29:47.813663,3025
19:29:47.813663,-512
19:29:47.813663,11
19:29:47.813663,3120
19:29:47.813663,-10240
19:29:47.813663,11
19:29:47.813663,2846
19:29:47.813663,-11008
19:29:47.813663,10
19:29:47.813663,2749
19:29:47.813663,-32512
19:29:47.813663,10
19:29:47.813663,2656
19:29:47.813663,17920
19:29:47.813663,10
19:29:47.813663,2589
19:29:47.813663,1536
19:29:47.813663,10
19:29:47.813663,2539
19:29:47.813663,-13312
19:29:47.813663,9
19:29:47.813663,2482
19:29:47.813663,-25344
19:29:47.813663,9
19:29:47.813663,2447
19:29:47.813663,29184
19:29:47.813663,9
19:29:47.813663,2375
19:29:47.813663,11520
19:29:47.813663,9
19:29:47.813663,2344
19:29:47.813663,6656
19:29:47.813663,9
19:29:47.813663,2316
19:29:47.813663,-768
19:29:47.813663,8
19:29:47.813663,2275
19:29:47.813663,-11008
19:29:47.813663,8
19:29:47.813663,2254
19:29:47.813663,-16640
19:29:47.813663,8
19:29:47.813663,2235
19:29:47.813663,-21504
19:29:47.813663,8
19:29:47.813663,2192
19:29:47.813663,-32256
19:29:47.813663,8
19:29:47.813663,2163
19:29:47.813663,20480
19:29:47.813663,8
19:29:47.813663,2101
19:29:47.813663,8704
19:29:47.813663,8
19:29:47.813663,2051
19:29:47.813663,-8192
19:29:47.813663,7
19:29:47.813663,2004
19:29:47.813663,-11264
19:29:47.813663,7
19:29:47.813663,1994
19:29:47.813663,-20480
19:29:47.813663,7
19:29:47.813663,1942
19:29:47.813663,-28928
19:29:47.813663,7
19:29:47.813663,1923
19:29:47.813663,29184
19:29:47.813663,7
19:29:47.813663,1911
19:29:47.813663,30976
19:29:47.813663,7
19:29:47.813663,1887
19:29:47.813663,18944
19:29:47.813663,7
19:29:47.813663,1866
19:29:47.813663,18176
19:29:47.813663,7
19:29:47.813663,1847
19:29:47.813663,6144
19:29:47.813663,7
19:29:47.813663,1797
19:29:47.813663,1280
19:29:47.813663,7
19:29:47.813663,1792
19:29:47.813663,-1792
19:29:47.813663,6
19:29:47.813663,1780
19:29:47.813663,-6144
19:29:47.813663,6
19:29:47.813663,1756
19:29:47.813663,-5632
19:29:47.813663,6
19:29:47.813663,1773
19:29:47.813663,-15360
19:29:47.813663,6
19:29:47.813663,1711
19:29:48.354253,1716
19:29:48.354253,-26112
19:29:48.354253,6
19:29:48.354253,1666
19:29:48.354253,32000
19:29:48.354253,6
19:29:48.354253,1642
19:29:48.354253,21760
19:29:48.354253,6
19:29:48.354253,1604
19:29:48.354253,13824
19:29:48.354253,6
19:29:48.354253,1582
19:29:48.354253,11264
19:29:48.354253,6
19:29:48.354253,1611
19:29:48.354253,21760
19:29:48.354253,6
19:29:48.354253,1530
19:29:48.354253,-16640
19:29:48.354253,5
19:29:48.354253,1480
19:29:48.354253,-19200
19:29:48.354253,5
19:29:48.354253,1428
19:29:48.354253,-32512
19:29:48.354253,5
19:29:48.354253,1378
19:29:48.354253,14592
19:29:48.354253,5
19:29:48.354253,1306
19:29:48.354253,-1792
19:29:48.354253,4
19:29:48.354253,1235
19:29:48.354253,-19456
19:29:48.354253,4
19:29:48.354253,1166
19:29:48.354253,31488
19:29:48.354253,4
19:29:48.354253,1237
19:29:48.354253,22016
19:29:48.354253,5
19:29:48.354253,1321
19:29:48.354253,19200
19:29:48.354253,4
19:29:48.354253,952
19:29:48.354253,-26368
19:29:48.354253,3
19:29:48.354253,873
19:29:48.354253,15872
19:29:48.354253,3
19:29:48.354253,842
19:29:48.354253,17152
19:29:48.354253,3
19:29:48.354253,787
19:29:48.354253,-512
19:29:48.354253,2
19:29:48.354253,780
19:29:48.354253,4352
19:29:48.354253,3
19:29:48.354253,768
19:29:48.354253,-3072
19:29:48.354253,2
19:29:48.354253,749
19:29:48.354253,-7936
19:29:48.354253,2
19:29:48.354253,735
19:29:48.354253,-5376
19:29:48.354253,2
19:29:48.354253,754
19:29:48.354253,-4096
19:29:48.354253,2
19:29:48.354253,740
19:29:48.354253,-12032
19:29:48.354253,2
19:29:48.354253,728
19:29:48.354253,-4096
19:29:48.354253,2
19:29:48.354253,752
19:29:48.354253,-3584
19:29:48.354253,2
19:29:48.354253,776
19:29:48.354253,1280
19:29:48.354253,3
19:29:48.354253,756
19:29:48.354253,-2304
19:29:48.354253,2
19:29:48.354253,747
19:29:48.354253,-12800
19:29:48.354253,2
19:29:48.354253,697
19:29:48.354253,-22528
19:29:48.354253,2
19:29:48.354253,659
19:29:48.354253,30976
19:29:48.354253,2
19:29:48.354253,599
19:29:48.354253,19968
19:29:48.354253,2
19:29:48.354253,595
19:29:48.354253,16384
19:29:48.354253,2
19:29:48.354253,552
19:29:48.354253,7168
19:29:48.354253,2
19:29:48.354253,523
19:29:48.354253,-2048
19:29:48.354253,1
19:29:48.354253,483
19:29:48.894249,449
19:29:48.894249,-21504
19:29:48.894249,1
19:29:48.894249,426
19:29:48.894249,-23296
19:29:48.894249,1
19:29:48.894249,416
19:29:48.894249,-24576
19:29:48.894249,1
19:29:48.894249,407
19:29:48.894249,-20224
19:29:48.894249,1
19:29:48.894249,464
19:29:48.894249,-24064
19:29:48.894249,1
19:29:48.894249,383
19:29:48.894249,-25856
19:29:48.894249,1
19:29:48.894249,416
19:29:48.894249,-27648
19:29:48.894249,1
19:29:48.894249,411
19:29:48.894249,-26368
19:29:48.894249,1
19:29:48.894249,402
19:29:48.894249,-28160
19:29:48.894249,1
19:29:48.894249,399
19:29:48.894249,-30720
19:29:48.894249,1
19:29:48.894249,390
19:29:48.894249,-31744
19:29:48.894249,1
19:29:48.894249,383
19:29:48.894249,31232
19:29:48.894249,1
19:29:48.894249,373
19:29:48.894249,32512
19:29:48.894249,1
19:29:48.894249,390
19:29:48.894249,31744
19:29:48.894249,1
19:29:48.894249,383
19:29:48.894249,-31232
19:29:48.894249,1
19:29:48.894249,380
19:29:48.894249,29952
19:29:48.894249,1
19:29:48.894249,378
19:29:48.894249,31744
19:29:48.894249,1
19:29:48.894249,376
19:29:48.894249,31232
19:29:48.894249,1
19:29:48.894249,383
19:29:48.894249,31744
19:29:48.894249,1
19:29:48.894249,366
19:29:48.894249,25856
19:29:48.894249,1
19:29:48.894249,352
19:29:48.894249,21504
19:29:48.894249,1
19:29:48.894249,330
19:29:48.894249,27648
19:29:48.894249,1
19:29:48.894249,473
19:29:48.894249,26112
19:29:48.894249,2
19:29:48.894249,609
19:29:48.894249,-22016
19:29:48.894249,1
19:29:48.894249,295
19:29:48.894249,9216
19:29:48.894249,1
19:29:48.894249,273
19:29:48.894249,-2816
19:29:48.894249,0
19:29:48.894249,278
19:29:48.894249,9216
19:29:48.894249,1
19:29:48.894249,266
19:29:48.894249,3840
19:29:48.894249,1
19:29:48.894249,299
19:29:48.894249,11008
19:29:48.894249,1
19:29:48.894249,295
19:29:48.894249,11008
19:29:48.894249,1
19:29:48.894249,295
19:29:48.894249,8704
19:29:48.894249,1
19:29:48.894249,302
19:29:48.894249,17920
19:29:48.894249,1
19:29:48.894249,345
19:29:48.894249,27648
19:29:48.894249,1
19:29:48.894249,388
19:29:48.894249,-24576
19:29:48.894249,1
19:29:48.894249,449
19:29:48.894249,-6912
19:29:48.894249,1
19:29:48.894249,526
19:29:48.894249,16896
19:29:48.894249,2
19:29:48.894249,630
19:29:49.523681,676
19:29:49.523681,-12800
19:29:49.523681,2
19:29:49.523681,759
19:29:49.523681,4352
19:29:49.523681,3
19:29:49.523681,828
19:29:49.523681,28672
19:29:49.523681,3
19:29:49.523681,871
19:29:49.523681,14592
19:29:49.523681,3
19:29:49.523681,833
19:29:49.523681,25600
19:29:49.523681,3
19:29:49.523681,873
19:29:49.523681,24576
19:29:49.523681,3
19:29:49.523681,861
19:29:49.523681,25088
19:29:49.523681,3
19:29:49.523681,871
19:29:49.523681,24576
19:29:49.523681,3
19:29:49.523681,856
19:29:49.523681,20224
19:29:49.523681,3
19:29:49.523681,842
19:29:49.523681,19712
19:29:49.523681,3
19:29:49.523681,845
19:29:49.523681,14080
19:29:49.523681,3
19:29:49.523681,806
19:29:49.523681,8704
19:29:49.523681,3
19:29:49.523681,787
19:29:49.523681,2048
19:29:49.523681,3
19:29:49.523681,773
19:29:49.523681,768
19:29:49.523681,3
19:29:49.523681,776
19:29:49.523681,768
19:29:49.523681,3
19:29:49.523681,747
19:29:49.523681,-9728
19:29:49.523681,2
19:29:49.523681,726
19:29:49.523681,-13824
19:29:49.523681,2
19:29:49.523681,699
19:29:49.523681,-24320
19:29:49.523681,2
19:29:49.523681,647
19:29:49.523681,31488
19:29:49.523681,2
19:29:49.523681,623
19:29:49.523681,25344
19:29:49.523681,2
19:29:49.523681,590
19:29:49.523681,12544
19:29:49.523681,2
19:29:49.523681,542
19:29:49.523681,4608
19:29:49.523681,2
19:29:49.523681,509
19:29:49.523681,-8192
19:29:49.523681,1
19:29:49.523681,464
19:29:49.523681,-16640
19:29:49.523681,1
19:29:49.523681,440
19:29:49.523681,-22784
19:29:49.523681,1
19:29:49.523681,383
19:29:49.523681,29952
19:29:49.523681,1
19:29:49.523681,383
19:29:49.523681,24576
19:29:49.523681,1
19:29:49.523681,323
19:29:49.523681,14848
19:29:49.523681,1
19:29:49.523681,302
19:29:49.523681,9216
19:29:49.523681,1
19:29:49.523681,278
19:29:49.523681,-1024
19:29:49.523681,0
19:29:49.523681,245
19:29:49.523681,9984
19:29:49.523681,1
19:29:49.523681,421
19:29:49.523681,11520
19:29:49.523681,2
19:29:49.523681,516
19:29:49.523681,15872
19:29:49.523681,1
19:29:49.523681,228
19:29:49.523681,-1792
19:29:49.523681,0
19:29:49.523681,204
19:29:49.523681,-26112
19:29:49.523681,0
19:29:49.523681,169
19:29:49.523681,-24320
19:29:49.523681,0
19:29:49.523681,121
19:29:50.063685,102
19:29:50.063685,24832
19:29:50.063685,0
19:29:50.063685,85
19:29:50.063685,16384
19:29:50.063685,0
19:29:50.063685,40
19:29:50.063685,2304
19:29:50.063685,0
19:29:50.063685,-21
19:29:50.063685,-9473
19:29:50.063685,-1
19:29:50.063685,-38
19:29:50.063685,-13569
19:29:50.063685,-1
19:29:50.063685,-78
19:29:50.063685,-20993
19:29:50.063685,-1
19:29:50.063685,-73
19:29:50.063685,-13057
19:29:50.063685,-1
19:29:50.063685,-11
19:29:50.063685,-4609
19:29:50.063685,-1
19:29:50.063685,-49
19:29:50.063685,-8705
19:29:50.063685,-1
19:29:50.063685,-23
19:29:50.063685,-9473
19:29:50.063685,-1
19:29:50.063685,-33
19:29:50.063685,-9473
19:29:50.063685,-1
19:29:50.063685,-71
19:29:50.063685,-24065
19:29:50.063685,-1
19:29:50.063685,-107
19:29:50.063685,-29441
19:29:50.063685,-1
19:29:50.063685,-121
19:29:50.063685,32511
19:29:50.063685,-1
19:29:50.063685,-140
19:29:50.063685,29439
19:29:50.063685,-1
19:29:50.063685,-145
19:29:50.063685,28671
19:29:50.063685,-1
19:29:50.063685,-142
19:29:50.063685,28671
19:29:50.063685,-1
19:29:50.063685,-161
19:29:50.063685,21503
19:29:50.063685,-1
19:29:50.063685,-166
19:29:50.063685,25087
19:29:50.063685,-1
19:29:50.063685,-161
19:29:50.063685,23807
19:29:50.063685,-1
19:29:50.063685,-173
19:29:50.063685,18943
19:29:50.063685,-1
19:29:50.063685,-183
19:29:50.063685,18943
19:29:50.063685,-1
19:29:50.063685,-190
19:29:50.063685,13567
19:29:50.063685,-1
19:29:50.063685,-218
19:29:50.063685,7935
19:29:50.063685,-1
19:29:50.063685,-228
19:29:50.063685,6143
19:29:50.063685,-1
19:29:50.063685,-247
19:29:50.063685,-2305
19:29:50.063685,-2
19:29:50.063685,-283
19:29:50.063685,-9729
19:29:50.063685,-2
19:29:50.063685,-309
19:29:50.063685,-17665
19:29:50.063685,-2
19:29:50.063685,-352
19:29:50.063685,31487
19:29:50.063685,-2
19:29:50.063685,-416
19:29:50.063685,23039
19:29:50.063685,-2
19:29:50.063685,-437
19:29:50.063685,12031
19:29:50.063685,-2
19:29:50.063685,-490
19:29:50.063685,2303
19:29:50.063685,-2
19:29:50.063685,-537
19:29:50.063685,-17153
19:29:50.063685,-3
19:29:50.063685,-611
19:29:50.063685,29951
19:29:50.063685,-3
19:29:50.063685,-721
19:29:50.063685,-5889
19:29:50.063685,-4
19:29:50.063685,-856
19:29:50.063685,23551
19:29:50.063685,-4
19:29:50.063685,-1004
19:29:50.603671,-1094
19:29:50.603671,16127
19:29:50.603671,-5
19:29:50.603671,-1323
19:29:50.603671,-27905
19:29:50.603671,-6
19:29:50.603671,-1399
19:29:50.603671,-8961
19:29:50.603671,-6
19:29:50.603671,-1252
19:29:50.603671,32767
19:29:50.603671,-6
19:29:50.603671,-1685
19:29:50.603671,-7681
19:29:50.603671,-8
19:29:50.603671,-1866
19:29:50.603671,19455
19:29:50.603671,-8
19:29:50.603671,-2080
19:29:50.603671,-20225
19:29:50.603671,-9
19:29:50.603671,-2168
19:29:50.603671,15615
19:29:50.603671,-9
19:29:50.603671,-2328
19:29:50.603671,-16641
19:29:50.603671,-10
19:29:50.603671,-2387
19:29:50.603671,-23553
19:29:50.603671,-10
19:29:50.603671,-2416
19:29:50.603671,25599
19:29:50.603671,-10
19:29:50.603671,-2492
19:29:50.603671,20735
19:29:50.603671,-10
19:29:50.603671,-2466
19:29:50.603671,25087
19:29:50.603671,-10
19:29:50.603671,-2447
19:29:50.603671,-29441
19:29:50.603671,-10
19:29:50.603671,-2385
19:29:50.603671,-9985
19:29:50.603671,-10
19:29:50.603671,-2316
19:29:50.603671,4607
19:29:50.603671,-9
19:29:50.603671,-2254
19:29:50.603671,20991
19:29:50.603671,-9
19:29:50.603671,-2199
19:29:50.603671,-32257
19:29:50.603671,-9
19:29:50.603671,-2154
19:29:50.603671,-23809
19:29:50.603671,-9
19:29:50.603671,-2142
19:29:50.603671,-25089
19:29:50.603671,-9
19:29:50.603671,-2137
19:29:50.603671,-17665
19:29:50.603671,-9
19:29:50.603671,-2104
19:29:50.603671,-9217
19:29:50.603671,-9
19:29:50.603671,-2056
19:29:50.603671,4351
19:29:50.603671,-8
19:29:50.603671,-2011
19:29:50.603671,16383
19:29:50.603671,-8
19:29:50.603671,-1956
19:29:50.603671,28671
19:29:50.603671,-8
19:29:50.603671,-1920
19:29:50.603671,-27649
19:29:50.603671,-8
19:29:50.603671,-1880
19:29:50.603671,-15617
19:29:50.603671,-8
19:29:50.603671,-1825
19:29:50.603671,-3329
19:29:50.603671,-8
19:29:50.603671,-1790
19:29:50.603671,8191
19:29:50.603671,-7
19:29:50.603671,-1735
19:29:50.603671,20991
19:29:50.603671,-7
19:29:50.603671,-1685
19:29:50.603671,-29953
19:29:50.603671,-7
19:29:50.603671,-1628
19:29:50.603671,-17665
19:29:50.603671,-7
19:29:50.603671,-1582
19:29:50.603671,-6145
19:29:50.603671,-7
19:29:50.603671,-1542
19:29:50.603671,4095
19:29:50.603671,-6
19:29:50.603671,-1502
19:29:50.603671,14591
19:29:50.603671,-6
19:29:50.603671,-1466
19:29:50.603671,19967
19:29:50.603671,-6
19:29:50.603671,-1447
19:29:51.144141,-1430
19:29:51.144141,30463
19:29:51.144141,-6
19:29:51.144141,-1402
19:29:51.144141,-27137
19:29:51.144141,-6
19:29:51.144141,-1378
19:29:51.144141,-19969
19:29:51.144141,-6
19:29:51.144141,-1342
19:29:51.144141,-15105
19:29:51.144141,-6
19:29:51.144141,-1318
19:29:51.144141,-2305
19:29:51.144141,-6
19:29:51.144141,-1306
19:29:51.144141,-10241
19:29:51.144141,-6
19:29:51.144141,-1294
19:29:51.144141,767
19:29:51.144141,-5
19:29:51.144141,-1280
19:29:51.144141,3327
19:29:51.144141,-5
19:29:51.144141,-1263
19:29:51.144141,4607
19:29:51.144141,-5
19:29:51.144141,-1261
19:29:51.144141,7423
19:29:51.144141,-5
19:29:51.144141,-1173
19:29:51.144141,12031
19:29:51.144141,-4
19:29:51.144141,-818
19:29:51.144141,-32257
19:29:51.144141,-4
19:29:51.144141,-1087
19:29:51.144141,-30465
19:29:51.144141,-5
19:29:51.144141,-1123
19:29:51.144141,-28161
19:29:51.144141,-5
19:29:51.144141,-1133
19:29:51.144141,-24577
19:29:51.144141,-5
19:29:51.144141,-1128
19:29:51.144141,-25601
19:29:51.144141,-5
19:29:51.144141,-1106
19:29:51.144141,-14081
19:29:51.144141,-5
19:29:51.144141,-1071
19:29:51.144141,-12801
19:29:51.144141,-5
19:29:51.144141,-1073
19:29:51.144141,-8705
19:29:51.144141,-5
19:29:51.144141,-1040
19:29:51.144141,-1
19:29:51.144141,-5
19:29:51.144141,-1014
19:29:51.144141,6655
19:29:51.144141,-4
19:29:51.144141,-978
19:29:51.144141,19967
19:29:51.144141,-4
19:29:51.144141,-925
19:29:51.144141,28415
19:29:51.144141,-4
19:29:51.144141,-885
19:29:51.144141,-19457
19:29:51.144141,-4
19:29:51.144141,-806
19:29:51.144141,-1025
19:29:51.144141,-4
19:29:51.144141,-747
19:29:51.144141,17919
19:29:51.144141,-3
19:29:51.144141,-640
19:29:51.144141,-23809
19:29:51.144141,-3
19:29:51.144141,-578
19:29:51.144141,-5121
19:29:51.144141,-3
19:29:51.144141,-495
19:29:51.144141,10751
19:29:51.144141,-2
19:29:51.144141,-428
19:29:51.144141,-30465
19:29:51.144141,-2
19:29:51.144141,-335
19:29:51.144141,-10753
19:29:51.144141,-2
19:29:51.144141,-268
19:29:51.144141,2559
19:29:51.144141,-1
19:29:51.144141,-209
19:29:51.144141,22527
19:29:51.144141,-1
19:29:51.144141,-121
19:29:51.144141,-16641
19:29:51.144141,-1
19:29:51.144141,-45
19:29:51.144141,-9985
19:29:51.144141,-1
19:29:51.144141,-9
19:29:51.144141,8703
19:29:51.144141,0
19:29:51.144141,73
19:29:51.728666,90
19:29:51.728666,23552
19:29:51.728666,0
19:29:51.728666,114
19:29:51.728666,-29184
19:29:51.728666,0
19:29:51.728666,154
19:29:51.728666,-16896
19:29:51.728666,0
19:29:51.728666,245
19:29:51.728666,-4096
19:29:51.728666,0
19:29:51.728666,216
19:29:51.728666,-512
19:29:51.728666,0
19:29:51.728666,290
19:29:51.728666,9984
19:29:51.728666,1
19:29:51.728666,307
19:29:51.728666,16640
19:29:51.728666,1
19:29:51.728666,326
19:29:51.728666,14848
19:29:51.728666,1
19:29:51.728666,309
19:29:51.728666,17152
19:29:51.728666,1
19:29:51.728666,335
19:29:51.728666,19712
19:29:51.728666,1
19:29:51.728666,357
19:29:51.728666,-32512
19:29:51.728666,1
19:29:51.728666,376
19:29:51.728666,26880
19:29:51.728666,1
19:29:51.728666,364
19:29:51.728666,26880
19:29:51.728666,1
19:29:51.728666,361
19:29:51.728666,28160
19:29:51.728666,1
19:29:51.728666,366
19:29:51.728666,29952
19:29:51.728666,1
19:29:51.728666,376
19:29:51.728666,28672
19:29:51.728666,1
19:29:51.728666,368
19:29:51.728666,28672
19:29:51.728666,1
19:29:51.728666,364
19:29:51.728666,-31232
19:29:51.728666,1
19:29:51.728666,495
19:29:51.728666,-24832
19:29:51.728666,2
19:29:51.728666,754
19:29:51.728666,26624
19:29:51.728666,2
19:29:51.728666,449
19:29:51.728666,-20992
19:29:51.728666,1
19:29:51.728666,426
19:29:51.728666,32512
19:29:51.728666,1
19:29:51.728666,385
19:29:51.728666,-28160
19:29:51.728666,1
19:29:51.728666,392
19:29:51.728666,31744
19:29:51.728666,1
19:29:51.728666,385
19:29:51.728666,32512
19:29:51.728666,1
19:29:51.728666,373
19:29:51.728666,28160
19:29:51.728666,1
19:29:51.728666,357
19:29:51.728666,23808
19:29:51.728666,1
19:29:51.728666,340
19:29:51.728666,20992
19:29:51.728666,1
19:29:51.728666,345
19:29:51.728666,22784
19:29:51.728666,1
19:29:51.728666,352
19:29:51.728666,28672
19:29:51.728666,1
19:29:51.728666,368
19:29:51.728666,28160
19:29:51.728666,1
19:29:51.728666,378
19:29:51.728666,-31744
19:29:51.728666,1
19:29:51.728666,392
19:29:51.728666,-30720
19:29:51.728666,1
19:29:51.728666,388
19:29:51.728666,31232
19:29:51.728666,1
19:29:51.728666,368
19:29:51.728666,26368
19:29:51.728666,1
19:29:51.728666,345
19:29:51.728666,16640
19:29:51.728666,1
19:29:51.728666,299
19:29:52.358677,283
19:29:52.358677,6144
19:29:52.358677,1
19:29:52.358677,280
19:29:52.358677,5120
19:29:52.358677,1
19:29:52.358677,283
19:29:52.358677,6912
19:29:52.358677,1
19:29:52.358677,261
19:29:52.358677,256
19:29:52.358677,1
19:29:52.358677,273
19:29:52.358677,9984
19:29:52.358677,1
19:29:52.358677,278
19:29:52.358677,-5376
19:29:52.358677,0
19:29:52.358677,242
19:29:52.358677,1280
19:29:52.358677,1
19:29:52.358677,240
19:29:52.358677,-7168
19:29:52.358677,0
19:29:52.358677,233
19:29:52.358677,-9728
19:29:52.358677,0
19:29:52.358677,197
19:29:52.358677,-16384
19:29:52.358677,0
19:29:52.358677,190
19:29:52.358677,-21248
19:29:52.358677,0
19:29:52.358677,164
19:29:52.358677,-23040
19:29:52.358677,0
19:29:52.358677,161
19:29:52.358677,-26112
19:29:52.358677,0
19:29:52.358677,152
19:29:52.358677,-29696
19:29:52.358677,0
19:29:52.358677,123
19:29:52.358677,27392
19:29:52.358677,0
19:29:52.358677,95
19:29:52.358677,23040
19:29:52.358677,0
19:29:52.358677,80
19:29:52.358677,16384
19:29:52.358677,0
19:29:52.358677,49
19:29:52.358677,12544
19:29:52.358677,0
19:29:52.358677,64
19:29:52.358677,17664
19:29:52.358677,0
19:29:52.358677,59
19:29:52.358677,14592
19:29:52.358677,0
19:29:52.358677,57
19:29:52.358677,13824
19:29:52.358677,0
19:29:52.358677,49
19:29:52.358677,14592
19:29:52.358677,0
19:29:52.358677,73
19:29:52.358677,21248
19:29:52.358677,0
19:29:52.358677,88
19:29:52.358677,23040
19:29:52.358677,0
19:29:52.358677,85
19:29:52.358677,22528
19:29:52.358677,0
19:29:52.358677,92
19:29:52.358677,23040
19:29:52.358677,0
19:29:52.358677,73
19:29:52.358677,24832
19:29:52.358677,0
19:29:52.358677,226
19:29:52.358677,-26880
19:29:52.358677,1
19:29:52.358677,442
19:29:52.358677,8704
19:29:52.358677,1
19:29:52.358677,169
19:29:52.358677,-22272
19:29:52.358677,0
19:29:52.358677,164
19:29:52.358677,-28416
19:29:52.358677,0
19:29:52.358677,152
19:29:52.358677,-28416
19:29:52.358677,0
19:29:52.358677,142
19:29:52.358677,-25344
19:29:52.358677,0
19:29:52.358677,154
19:29:52.358677,-28416
19:29:52.358677,0
19:29:52.358677,152
19:29:52.358677,-24320
19:29:52.358677,0
19:29:52.358677,152
19:29:52.358677,-30976
19:29:52.358677,0
19:29:52.358677,130
19:29:52.808676,135
19:29:52.808676,-27904
19:29:52.808676,0
19:29:52.808676,147
19:29:52.808676,-27904
19:29:52.808676,0
19:29:52.808676,152
19:29:52.808676,-27904
19:29:52.808676,0
19:29:52.808676,152
19:29:52.808676,-24320
19:29:52.808676,0
19:29:52.808676,140
19:29:52.808676,-31488
19:29:52.808676,0
19:29:52.808676,140
19:29:52.808676,-32256
19:29:52.808676,0
19:29:52.808676,116
19:29:52.808676,24832
19:29:52.808676,0
19:29:52.808676,66
19:29:52.808676,10240
19:29:52.808676,0
19:29:52.808676,26
19:29:52.808676,8960
19:29:52.808676,0
19:29:52.808676,73
19:29:52.808676,17664
19:29:52.808676,0
19:29:52.808676,26
19:29:52.808676,7168
19:29:52.808676,0
19:29:52.808676,52
19:29:52.808676,9728
19:29:52.808676,0
19:29:52.808676,42
19:29:52.808676,15616
19:29:52.808676,0
19:29:52.808676,61
19:29:52.808676,19456
19:29:52.808676,0
19:29:52.808676,92
19:29:52.808676,21248
19:29:52.808676,0
19:29:52.808676,83
19:29:52.808676,23552
19:29:52.808676,0
19:29:52.808676,92
19:29:52.808676,25344
19:29:52.808676,0
19:29:52.808676,116
19:29:52.808676,31488
19:29:52.808676,0
19:29:52.808676,119
19:29:52.808676,29184
19:29:52.808676,0
19:29:52.808676,126
19:29:52.808676,-32768
19:29:52.808676,0
19:29:52.808676,114
19:29:52.808676,28416
19:29:52.808676,0
19:29:52.808676,104
19:29:52.808676,23552
19:29:52.808676,0
19:29:52.808676,88
19:29:52.808676,23552
19:29:52.808676,0
19:29:52.808676,99
19:29:52.808676,26112
19:29:52.808676,0
19:29:52.808676,95
19:29:52.808676,21248
19:29:52.808676,0
19:29:52.808676,85
19:29:52.808676,26112
19:29:52.808676,0
19:29:52.808676,111
19:29:52.808676,29184
19:29:52.808676,0
19:29:52.808676,119
19:29:52.808676,29184
19:29:52.808676,0
19:29:52.808676,107
19:29:52.808676,27392
19:29:52.808676,0
19:29:52.808676,111
19:29:52.808676,30976
19:29:52.808676,0
19:29:52.808676,121
19:29:52.808676,29696
19:29:52.808676,0
19:29:52.808676,121
19:29:52.808676,31488
19:29:52.808676,0
19:29:52.808676,119
19:29:52.808676,27904
19:29:52.808676,0
19:29:52.808676,99
19:29:52.808676,21248
19:29:52.808676,0
19:29:52.808676,71
19:29:52.808676,21760
19:29:52.808676,0
19:29:52.808676,161
19:29:52.808676,15872
19:29:52.808676,1
19:29:52.808676,428
19:29:53.439440,299
19:29:53.439440,25344
19:29:53.439440,0
19:29:53.439440,88
19:29:53.439440,-31488
19:29:53.439440,0
19:29:53.439440,85
19:29:53.439440,4096
19:29:53.439440,0
19:29:53.439440,-16
19:29:53.439440,-9985
19:29:53.439440,-1
19:29:53.439440,-71
19:29:53.439440,-26369
19:29:53.439440,-1
19:29:53.439440,-138
19:29:53.439440,24575
19:29:53.439440,-1
19:29:53.439440,-173
19:29:53.439440,9983
19:29:53.439440,-1
19:29:53.439440,-302
19:29:53.439440,-27905
19:29:53.439440,-2
19:29:53.439440,-395
19:29:53.439440,26111
19:29:53.439440,-2
19:29:53.439440,-423
19:29:53.439440,20479
19:29:53.439440,-2
19:29:53.439440,-442
19:29:53.439440,19455
19:29:53.439440,-2
19:29:53.439440,-426
19:29:53.439440,23039
19:29:53.439440,-2
19:29:53.439440,-414
19:29:53.439440,30207
19:29:53.439440,-2
19:29:53.439440,-385
19:29:53.439440,32767
19:29:53.439440,-2
19:29:53.439440,-392
19:29:53.439440,27903
19:29:53.439440,-2
19:29:53.439440,-414
19:29:53.439440,22271
19:29:53.439440,-2
19:29:53.439440,-440
19:29:53.439440,14335
19:29:53.439440,-2
19:29:53.439440,-478
19:29:53.439440,7679
19:29:53.439440,-2
19:29:53.439440,-483
19:29:53.439440,5375
19:29:53.439440,-2
19:29:53.439440,-490
19:29:53.439440,7167
19:29:53.439440,-2
19:29:53.439440,-497
19:29:53.439440,2815
19:29:53.439440,-2
19:29:53.439440,-521
19:29:53.439440,-13569
19:29:53.439440,-3
19:29:53.439440,-626
19:29:53.439440,21503
19:29:53.439440,-3
19:29:53.439440,-728
19:29:53.439440,3839
19:29:53.439440,-3
19:29:53.439440,-787
19:29:53.439440,-15617
19:29:53.439440,-4
19:29:53.439440,-873
19:29:53.439440,29695
19:29:53.439440,-4
19:29:53.439440,-945
19:29:53.439440,12799
19:29:53.439440,-4
19:29:53.439440,-1009
19:29:53.439440,-7425
19:29:53.439440,-5
19:29:53.439440,-1094
19:29:53.439440,-27649
19:29:53.439440,-5
19:29:53.439440,-1185
19:29:53.439440,10495
19:29:53.439440,-5
19:29:53.439440,-1287
19:29:53.439440,-14337
19:29:53.439440,-6
19:29:53.439440,-1392
19:29:53.439440,20735
19:29:53.439440,-6
19:29:53.439440,-1513
19:29:53.439440,-10497
19:29:53.439440,-7
19:29:53.439440,-1649
19:29:53.439440,22783
19:29:53.439440,-7
19:29:53.439440,-1756
19:29:53.439440,-7681
19:29:53.439440,-8
19:29:53.439440,-1892
19:29:53.439440,20735
19:29:53.439440,-8
19:29:53.439440,-2047
19:29:53.978657,-2097
19:29:53.978657,-20737
19:29:53.978657,-9
19:29:53.978657,-2201
19:29:53.978657,6911
19:29:53.978657,-9
19:29:53.978657,-2318
19:29:53.978657,-14337
19:29:53.978657,-10
19:29:53.978657,-2418
19:29:53.978657,25087
19:29:53.978657,-10
19:29:53.978657,-2508
19:29:53.978657,-2305
19:29:53.978657,-11
19:29:53.978657,-2611
19:29:53.978657,-2305
19:29:53.978657,-11
19:29:53.978657,-2430
19:29:53.978657,-9985
19:29:53.978657,-10
19:29:53.978657,-2504
19:29:53.978657,23039
19:29:53.978657,-11
19:29:53.978657,-2777
19:29:53.978657,6399
19:29:53.978657,-11
19:29:53.978657,-2861
19:29:53.978657,-13057
19:29:53.978657,-12
19:29:53.978657,-2837
19:29:53.978657,-8193
19:29:53.978657,-12
19:29:53.978657,-2877
19:29:53.978657,-17409
19:29:53.978657,-12
19:29:53.978657,-2870
19:29:53.978657,-5633
19:29:53.978657,-12
19:29:53.978657,-2823
19:29:53.978657,1023
19:29:53.978657,-11
19:29:53.978657,-2789
19:29:53.978657,13823
19:29:53.978657,-11
19:29:53.978657,-2732
19:29:53.978657,29695
19:29:53.978657,-11
19:29:53.978657,-2682
19:29:53.978657,-24321
19:29:53.978657,-11
19:29:53.978657,-2608
19:29:53.978657,-1793
19:29:53.978657,-11
19:29:53.978657,-2532
19:29:53.978657,22015
19:29:53.978657,-10
19:29:53.978657,-2427
19:29:53.978657,-22785
19:29:53.978657,-10
19:29:53.978657,-2351
19:29:53.978657,-1537
19:29:53.978657,-10
19:29:53.978657,-2273
19:29:53.978657,16895
19:29:53.978657,-9
19:29:53.978657,-2223
19:29:53.978657,23551
19:29:53.978657,-9
19:29:53.978657,-2189
19:29:53.978657,-29185
19:29:53.978657,-9
19:29:53.978657,-2137
19:29:53.978657,-14593
19:29:53.978657,-9
19:29:53.978657,-2061
19:29:53.978657,11007
19:29:53.978657,-8
19:29:53.978657,-1954
19:29:53.978657,-25345
19:29:53.978657,-8
19:29:53.978657,-1828
19:29:53.978657,5887
19:29:53.978657,-7
19:29:53.978657,-1718
19:29:53.978657,28415
19:29:53.978657,-7
19:29:53.978657,-1668
19:29:53.978657,-24321
19:29:53.978657,-7
19:29:53.978657,-1587
19:29:53.978657,-4353
19:29:53.978657,-7
19:29:53.978657,-1525
19:29:53.978657,12799
19:29:53.978657,-6
19:29:53.978657,-1461
19:29:53.978657,23807
19:29:53.978657,-6
19:29:53.978657,-1418
19:29:53.978657,-27137
19:29:53.978657,-6
19:29:53.978657,-1363
19:29:53.978657,-16129
19:29:53.978657,-6
19:29:53.978657,-1323
19:29:53.978657,-5377
19:29:53.978657,-6
19:29:53.978657,-1285
19:29:54.519645,-1259
19:29:54.519645,13567
19:29:54.519645,-5
19:29:54.519645,-1197
19:29:54.519645,30719
19:29:54.519645,-5
19:29:54.519645,-1123
19:29:54.519645,-15873
19:29:54.519645,-5
19:29:54.519645,-1042
19:29:54.519645,8959
19:29:54.519645,-4
19:29:54.519645,-947
19:29:54.519645,-32257
19:29:54.519645,-4
19:29:54.519645,-814
19:29:54.519645,5119
19:29:54.519645,-3
19:29:54.519645,-709
19:29:54.519645,29951
19:29:54.519645,-3
19:29:54.519645,-602
19:29:54.519645,-13569
19:29:54.519645,-3
19:29:54.519645,-528
19:29:54.519645,3583
19:29:54.519645,-2
19:29:54.519645,-485
19:29:54.519645,11519
19:29:54.519645,-2
19:29:54.519645,-442
19:29:54.519645,21759
19:29:54.519645,-2
19:29:54.519645,-445
19:29:54.519645,11519
19:29:54.519645,-2
19:29:54.519645,-457
19:29:54.519645,-23553
19:29:54.519645,-2
19:29:54.519645,-157
19:29:54.519645,-18433
19:29:54.519645,-1
19:29:54.519645,-233
19:29:54.519645,24319
19:29:54.519645,-2
19:29:54.519645,-449
19:29:54.519645,13823
19:29:54.519645,-2
19:29:54.519645,-497
19:29:54.519645,5887
19:29:54.519645,-2
19:29:54.519645,-487
19:29:54.519645,-2049
19:29:54.519645,-3
19:29:54.519645,-549
19:29:54.519645,-15361
19:29:54.519645,-3
19:29:54.519645,-606
19:29:54.519645,-30721
19:29:54.519645,-3
19:29:54.519645,-645
19:29:54.519645,24575
19:29:54.519645,-3
19:29:54.519645,-706
19:29:54.519645,11775
19:29:54.519645,-3
19:29:54.519645,-740
19:29:54.519645,3839
19:29:54.519645,-3
19:29:54.519645,-761
19:29:54.519645,3327
19:29:54.519645,-3
19:29:54.519645,-735
19:29:54.519645,15359
19:29:54.519645,-3
19:29:54.519645,-683
19:29:54.519645,26879
19:29:54.519645,-3
19:29:54.519645,-640
19:29:54.519645,-22017
19:29:54.519645,-3
19:29:54.519645,-573
19:29:54.519645,-13057
19:29:54.519645,-3
19:29:54.519645,-549
19:29:54.519645,-6145
19:29:54.519645,-3
19:29:54.519645,-540
19:29:54.519645,-6145
19:29:54.519645,-3
19:29:54.519645,-528
19:29:54.519645,-1281
19:29:54.519645,-3
19:29:54.519645,-507
19:29:54.519645,5375
19:29:54.519645,-2
19:29:54.519645,-485
19:29:54.519645,10751
19:29:54.519645,-2
19:29:54.519645,-445
19:29:54.519645,22271
19:29:54.519645,-2
19:29:54.519645,-414
19:29:54.519645,30975
19:29:54.519645,-2
19:29:54.519645,-376
19:29:54.519645,-24321
19:29:54.519645,-2
19:29:54.519645,-321
19:29:55.103655,-299
19:29:55.103655,-5377
19:29:55.103655,-2
19:29:55.103655,-245
19:29:55.103655,12287
19:29:55.103655,-1
19:29:55.103655,-173
19:29:55.103655,32511
19:29:55.103655,-1
19:29:55.103655,-80
19:29:55.103655,-2561
19:29:55.103655,-1
19:29:55.103655,61
19:29:55.103655,26624
19:29:55.103655,0
19:29:55.103655,138
19:29:55.103655,-20480
19:29:55.103655,0
19:29:55.103655,192
19:29:55.103655,-10752
19:29:55.103655,0
19:29:55.103655,261
19:29:55.103655,11776
19:29:55.103655,1
19:29:55.103655,316
19:29:55.103655,20224
19:29:55.103655,1
19:29:55.103655,359
19:29:55.103655,29440
19:29:55.103655,1
19:29:55.103655,383
19:29:55.103655,-28928
19:29:55.103655,1
19:29:55.103655,414
19:29:55.103655,-21504
19:29:55.103655,1
19:29:55.103655,445
19:29:55.103655,-16640
19:29:55.103655,1
19:29:55.103655,423
19:29:55.103655,-26880
19:29:55.103655,1
19:29:55.103655,399
19:29:55.103655,-28928
19:29:55.103655,1
19:29:55.103655,402
19:29:55.103655,-31232
19:29:55.103655,1
19:29:55.103655,376
19:29:55.103655,28672
19:29:55.103655,1
19:29:55.103655,361
19:29:55.103655,23296
19:29:55.103655,1
19:29:55.103655,338
19:29:55.103655,15360
19:29:55.103655,1
19:29:55.103655,297
19:29:55.103655,22784
19:29:55.103655,1
19:29:55.103655,507
19:29:55.103655,-24832
19:29:55.103655,2
19:29:55.103655,630
19:29:55.103655,-20992
19:29:55.103655,1
19:29:55.103655,307
19:29:55.103655,12288
19:29:55.103655,1
19:29:55.103655,297
19:29:55.103655,3840
19:29:55.103655,1
19:29:55.103655,273
19:29:55.103655,2048
19:29:55.103655,1
19:29:55.103655,233
19:29:55.103655,-8960
19:29:55.103655,0
19:29:55.103655,216
19:29:55.103655,-10752
19:29:55.103655,0
19:29:55.103655,211
19:29:55.103655,-16384
19:29:55.103655,0
19:29:55.103655,176
19:29:55.103655,-25344
19:29:55.103655,0
19:29:55.103655,140
19:29:55.103655,-28416
19:29:55.103655,0
19:29:55.103655,152
19:29:55.103655,-28416
19:29:55.103655,0
19:29:55.103655,145
19:29:55.103655,-27392
19:29:55.103655,0
19:29:55.103655,154
19:29:55.103655,-21760
19:29:55.103655,0
19:29:55.103655,188
19:29:55.103655,-19968
19:29:55.103655,0
19:29:55.103655,176
19:29:55.103655,-18176
19:29:55.103655,0
19:29:55.103655,178
19:29:55.103655,-21760
19:29:55.103655,0
19:29:55.103655,161
19:29:55.688813,128
19:29:55.688813,26624
19:29:55.688813,0
19:29:55.688813,92
19:29:55.688813,19456
19:29:55.688813,0
19:29:55.688813,64
19:29:55.688813,15616
19:29:55.688813,0
19:29:55.688813,42
19:29:55.688813,5376
19:29:55.688813,0
19:29:55.688813,14
19:29:55.688813,2816
19:29:55.688813,0
19:29:55.688813,26
19:29:55.688813,6656
19:29:55.688813,0
19:29:55.688813,-23
19:29:55.688813,-14337
19:29:55.688813,-1
19:29:55.688813,-49
19:29:55.688813,-13057
19:29:55.688813,-1
19:29:55.688813,-57
19:29:55.688813,-16129
19:29:55.688813,-1
19:29:55.688813,-80
19:29:55.688813,-23297
19:29:55.688813,-1
19:29:55.688813,-107
19:29:55.688813,-30209
19:29:55.688813,-1
19:29:55.688813,-121
19:29:55.688813,32511
19:29:55.688813,-1
19:29:55.688813,-142
19:29:55.688813,28671
19:29:55.688813,-1
19:29:55.688813,-152
19:29:55.688813,24575
19:29:55.688813,-1
19:29:55.688813,-169
19:29:55.688813,17151
19:29:55.688813,-1
19:29:55.688813,-214
19:29:55.688813,8703
19:29:55.688813,-1
19:29:55.688813,-245
19:29:55.688813,-4097
19:29:55.688813,-2
19:29:55.688813,-283
19:29:55.688813,-8449
19:29:55.688813,-2
19:29:55.688813,-318
19:29:55.688813,-20737
19:29:55.688813,-2
19:29:55.688813,-333
19:29:55.688813,-19969
19:29:55.688813,-2
19:29:55.688813,-349
19:29:55.688813,-25601
19:29:55.688813,-2
19:29:55.688813,-366
19:29:55.688813,-31489
19:29:55.688813,-2
19:29:55.688813,-390
19:29:55.688813,-31489
19:29:55.688813,-2
19:29:55.688813,-371
19:29:55.688813,-29697
19:29:55.688813,-2
19:29:55.688813,-373
19:29:55.688813,-29697
19:29:55.688813,-2
19:29:55.688813,-368
19:29:55.688813,-26625
19:29:55.688813,-2
19:29:55.688813,-366
19:29:55.688813,-30977
19:29:55.688813,-2
19:29:55.688813,-390
19:29:55.688813,-24833
19:29:55.688813,-2
19:29:55.688813,-202
19:29:55.688813,-769
19:29:55.688813,-1
19:29:55.688813,14
19:29:55.688813,23552
19:29:55.688813,-1
19:29:55.688813,-288
19:29:55.688813,-6657
19:29:55.688813,-2
19:29:55.688813,-283
19:29:55.688813,-10753
19:29:55.688813,-2
19:29:55.688813,-280
19:29:55.688813,-2817
19:29:55.688813,-2
19:29:55.688813,-266
19:29:55.688813,1279
19:29:55.688813,-1
19:29:55.688813,-223
19:29:55.688813,14079
19:29:55.688813,-1
19:29:55.688813,-188
19:29:55.688813,22015
19:29:55.688813,-1
19:29:55.688813,-164
19:29:56.183993,-157
19:29:56.183993,31231
19:29:56.183993,-1
19:29:56.183993,-109
19:29:56.183993,-21505
19:29:56.183993,-1
19:29:56.183993,-66
19:29:56.183993,-10497
19:29:56.183993,-1
19:29:56.183993,0
19:29:56.183993,13824
19:29:56.183993,0
19:29:56.183993,95
19:29:56.183993,30976
19:29:56.183993,0
19:29:56.183993,147
19:29:56.183993,-18688
19:29:56.183993,0
19:29:56.183993,221
19:29:56.183993,6144
19:29:56.183993,1
19:29:56.183993,335
19:29:56.183993,21504
19:29:56.183993,1
19:29:56.183993,368
19:29:56.183993,-14848
19:29:56.183993,1
19:29:56.183993,507
19:29:56.183993,6400
19:29:56.183993,2
19:29:56.183993,585
19:29:56.183993,28416
19:29:56.183993,2
19:29:56.183993,654
19:29:56.183993,-22528
19:29:56.183993,2
19:29:56.183993,692
19:29:56.183993,-12032
19:29:56.183993,2
19:29:56.183993,759
19:29:56.183993,6144
19:29:56.183993,3
19:29:56.183993,845
19:29:56.183993,31232
19:29:56.183993,3
19:29:56.183993,906
19:29:56.183993,-24064
19:29:56.183993,3
19:29:56.183993,961
19:29:56.183993,-11264
19:29:56.183993,3
19:29:56.183993,1006
19:29:56.183993,7680
19:29:56.183993,4
19:29:56.183993,1118
19:29:56.183993,-23808
19:29:56.183993,4
19:29:56.183993,1254
19:29:56.183993,6144
19:29:56.183993,5
19:29:56.183993,1313
19:29:56.183993,9216
19:29:56.183993,5
19:29:56.183993,1354
19:29:56.183993,29952
19:29:56.183993,5
19:29:56.183993,1416
19:29:56.183993,-24576
19:29:56.183993,5
19:29:56.183993,1492
19:29:56.183993,2048
19:29:56.183993,6
19:29:56.183993,1578
19:29:56.183993,11264
19:29:56.183993,6
19:29:56.183993,1573
19:29:56.183993,12544
19:29:56.183993,6
19:29:56.183993,1594
19:29:56.183993,11776
19:29:56.183993,6
19:29:56.183993,1578
19:29:56.183993,11776
19:29:56.183993,6
19:29:56.183993,1571
19:29:56.183993,7680
19:29:56.183993,6
19:29:56.183993,1568
19:29:56.183993,3328
19:29:56.183993,6
19:29:56.183993,1525
19:29:56.183993,-5120
19:29:56.183993,5
19:29:56.183993,1499
19:29:56.183993,-13056
19:29:56.183993,5
19:29:56.183993,1475
19:29:56.183993,-19200
19:29:56.183993,5
19:29:56.183993,1456
19:29:56.183993,-22272
19:29:56.183993,5
19:29:56.183993,1432
19:29:56.183993,-28928
19:29:56.183993,5
19:29:56.183993,1418
19:29:56.183993,31744
19:29:56.183993,5
19:29:56.183993,1409
19:29:56.768653,1513
19:29:56.768653,-28160
19:29:56.768653,6
19:29:56.768653,1701
19:29:56.768653,-2048
19:29:56.768653,5
19:29:56.768653,1416
19:29:56.768653,-19712
19:29:56.768653,5
19:29:56.768653,1435
19:29:56.768653,14592
19:29:56.768653,5
19:29:56.768653,1349
19:29:56.768653,25600
19:29:56.768653,5
19:29:56.768653,1356
19:29:56.768653,22528
19:29:56.768653,5
19:29:56.768653,1375
19:29:56.768653,16384
19:29:56.768653,5
19:29:56.768653,1325
19:29:56.768653,9216
19:29:56.768653,5
19:29:56.768653,1292
19:29:56.768653,-1280
19:29:56.768653,4
19:29:56.768653,1268
19:29:56.768653,-4352
19:29:56.768653,4
19:29:56.768653,1259
19:29:56.768653,-4864
19:29:56.768653,4
19:29:56.768653,1249
19:29:56.768653,-15872
19:29:56.768653,4
19:29:56.768653,1204
19:29:56.768653,-19968
19:29:56.768653,4
19:29:56.768653,1192
19:29:56.768653,-24832
19:29:56.768653,4
19:29:56.768653,1180
19:29:56.768653,-23808
19:29:56.768653,4
19:29:56.768653,1180
19:29:56.768653,32000
19:29:56.768653,4
19:29:56.768653,1123
19:29:56.768653,20480
19:29:56.768653,4
19:29:56.768653,1078
19:29:56.768653,5120
19:29:56.768653,4
19:29:56.768653,1011
19:29:56.768653,-8192
19:29:56.768653,3
19:29:56.768653,987
19:29:56.768653,-11776
19:29:56.768653,3
19:29:56.768653,961
19:29:56.768653,-19712
19:29:56.768653,3
19:29:56.768653,935
19:29:56.768653,-26368
19:29:56.768653,3
19:29:56.768653,909
19:29:56.768653,31744
19:29:56.768653,3
19:29:56.768653,875
19:29:56.768653,23296
19:29:56.768653,3
19:29:56.768653,845
19:29:56.768653,15872
19:29:56.768653,3
19:29:56.768653,818
19:29:56.768653,9216
19:29:56.768653,3
19:29:56.768653,780
19:29:56.768653,-512
19:29:56.768653,2
19:29:56.768653,756
19:29:56.768653,-5888
19:29:56.768653,2
19:29:56.768653,737
19:29:56.768653,-9728
19:29:56.768653,2
19:29:56.768653,714
19:29:56.768653,-18176
19:29:56.768653,2
19:29:56.768653,680
19:29:56.768653,-26112
19:29:56.768653,2
19:29:56.768653,654
19:29:56.768653,27904
19:29:56.768653,2
19:29:56.768653,564
19:29:56.768653,1024
19:29:56.768653,2
19:29:56.768653,483
19:29:56.768653,-17152
19:29:56.768653,1
19:29:56.768653,421
19:29:56.768653,-29952
19:29:56.768653,1
19:29:56.768653,345
19:29:56.768653,9216
19:29:56.768653,1
19:29:56.768653,266
19:29:57.399541,242
19:29:57.399541,-11520
19:29:57.399541,0
19:29:57.399541,176
19:29:57.399541,30464
19:29:57.399541,0
19:29:57.399541,59
19:29:57.399541,5888
19:29:57.399541,0
19:29:57.399541,2
19:29:57.399541,-4096
19:29:57.399541,-1
19:29:57.399541,-26
19:29:57.399541,-20225
19:29:57.399541,-1
19:29:57.399541,-180
19:29:57.399541,5631
19:29:57.399541,-1
19:29:57.399541,-257
19:29:57.399541,-6657
19:29:57.399541,-2
19:29:57.399541,-247
19:29:57.399541,-32001
19:29:57.399541,-1
19:29:57.399541,-54
19:29:57.399541,14079
19:29:57.399541,-1
19:29:57.399541,-421
19:29:57.399541,10751
19:29:57.399541,-2
19:29:57.399541,-471
19:29:57.399541,-14081
19:29:57.399541,-3
19:29:57.399541,-654
19:29:57.399541,23295
19:29:57.399541,-3
19:29:57.399541,-695
19:29:57.399541,11775
19:29:57.399541,-3
19:29:57.399541,-768
19:29:57.399541,-13313
19:29:57.399541,-4
19:29:57.399541,-854
19:29:57.399541,-28417
19:29:57.399541,-4
19:29:57.399541,-925
19:29:57.399541,14591
19:29:57.399541,-4
19:29:57.399541,-1002
19:29:57.399541,-3841
19:29:57.399541,-5
19:29:57.399541,-1061
19:29:57.399541,-7425
19:29:57.399541,-5
19:29:57.399541,-1044
19:29:57.399541,-2049
19:29:57.399541,-5
19:29:57.399541,-1023
19:29:57.399541,511
19:29:57.399541,-4
19:29:57.399541,-1011
19:29:57.399541,9727
19:29:57.399541,-4
19:29:57.399541,-973
19:29:57.399541,17663
19:29:57.399541,-4
19:29:57.399541,-940
19:29:57.399541,22527
19:29:57.399541,-4
19:29:57.399541,-952
19:29:57.399541,14591
19:29:57.399541,-4
19:29:57.399541,-983
19:29:57.399541,9727
19:29:57.399541,-4
19:29:57.399541,-992
19:29:57.399541,4863
19:29:57.399541,-4
19:29:57.399541,-1002
19:29:57.399541,10239
19:29:57.399541,-4
19:29:57.399541,-985
19:29:57.399541,9727
19:29:57.399541,-4
19:29:57.399541,-980
19:29:57.399541,13311
19:29:57.399541,-4
19:29:57.399541,-975
19:29:57.399541,9727
19:29:57.399541,-4
19:29:57.399541,-999
19:29:57.399541,5887
19:29:57.399541,-4
19:29:57.399541,-997
19:29:57.399541,8959
19:29:57.399541,-4
19:29:57.399541,-990
19:29:57.399541,6655
19:29:57.399541,-4
19:29:57.399541,-997
19:29:57.399541,7935
19:29:57.399541,-4
19:29:57.399541,-1002
19:29:57.399541,4095
19:29:57.399541,-4
19:29:57.399541,-1011
19:29:57.399541,3583
19:29:57.399541,-4
19:29:57.399541,-1002
19:29:57.893228,-987
19:29:57.893228,10239
19:29:57.893228,-4
19:29:57.893228,-983
19:29:57.893228,15103
19:29:57.893228,-4
19:29:57.893228,-956
19:29:57.893228,19967
19:29:57.893228,-4
19:29:57.893228,-921
19:29:57.893228,29183
19:29:57.893228,-4
19:29:57.893228,-921
19:29:57.893228,29183
19:29:57.893228,-4
19:29:57.893228,-885
19:29:57.893228,-23041
19:29:57.893228,-4
19:29:57.893228,-833
19:29:57.893228,-10753
19:29:57.893228,-4
19:29:57.893228,-792
19:29:57.893228,-2305
19:29:57.893228,-4
19:29:57.893228,-759
19:29:57.893228,12287
19:29:57.893228,-3
19:29:57.893228,-699
19:29:57.893228,13055
19:29:57.893228,-3
19:29:57.893228,-711
19:29:57.893228,23295
19:29:57.893228,-3
19:29:57.893228,-666
19:29:57.893228,26367
19:29:57.893228,-3
19:29:57.893228,-659
19:29:57.893228,28159
19:29:57.893228,-3
19:29:57.893228,-668
19:29:57.893228,25087
19:29:57.893228,-3
19:29:57.893228,-621
19:29:57.893228,10751
19:29:57.893228,-2
19:29:57.893228,-292
19:29:57.893228,-12033
19:29:57.893228,-2
19:29:57.893228,-490
19:29:57.893228,-17153
19:29:57.893228,-3
19:29:57.893228,-547
19:29:57.893228,-13057
19:29:57.893228,-3
19:29:57.893228,-597
19:29:57.893228,-14849
19:29:57.893228,-3
19:29:57.893228,-557
19:29:57.893228,-13569
19:29:57.893228,-3
19:29:57.893228,-559
19:29:57.893228,-7425
19:29:57.893228,-3
19:29:57.893228,-540
19:29:57.893228,-7425
19:29:57.893228,-3
19:29:57.893228,-547
19:29:57.893228,-10497
19:29:57.893228,-3
19:29:57.893228,-552
19:29:57.893228,-6145
19:29:57.893228,-3
19:29:57.893228,-530
19:29:57.893228,-3329
19:29:57.893228,-3
19:29:57.893228,-514
19:29:57.893228,4095
19:29:57.893228,-2
19:29:57.893228,-483
19:29:57.893228,9471
19:29:57.893228,-2
19:29:57.893228,-466
19:29:57.893228,18687
19:29:57.893228,-2
19:29:57.893228,-426
19:29:57.893228,26623
19:29:57.893228,-2
19:29:57.893228,-380
19:29:57.893228,-30465
19:29:57.893228,-2
19:29:57.893228,-383
19:29:57.893228,31999
19:29:57.893228,-2
19:29:57.893228,-402
19:29:57.893228,25343
19:29:57.893228,-2
19:29:57.893228,-418
19:29:57.893228,21759
19:29:57.893228,-2
19:29:57.893228,-428
19:29:57.893228,21759
19:29:57.893228,-2
19:29:57.893228,-428
19:29:57.893228,23039
19:29:57.893228,-2
19:29:57.893228,-416
19:29:57.893228,26623
19:29:57.893228,-2
19:29:57.893228,-392
19:29:58.433460,-395
19:29:58.433460,26111
19:29:58.433460,-2
19:29:58.433460,-407
19:29:58.433460,30975
19:29:58.433460,-2
19:29:58.433460,-392
19:29:58.433460,30975
19:29:58.433460,-2
19:29:58.433460,-390
19:29:58.433460,31487
19:29:58.433460,-2
19:29:58.433460,-364
19:29:58.433460,-19969
19:29:58.433460,-2
19:29:58.433460,-364
19:29:58.433460,31999
19:29:58.433460,-2
19:29:58.433460,-371
19:29:58.433460,-27393
19:29:58.433460,-2
19:29:58.433460,-368
19:29:58.433460,-27393
19:29:58.433460,-2
19:29:58.433460,-361
19:29:58.433460,-27905
19:29:58.433460,-2
19:29:58.433460,-364
19:29:58.433460,-28417
19:29:58.433460,-2
19:29:58.433460,-373
19:29:58.433460,-31489
19:29:58.433460,-2
19:29:58.433460,-390
19:29:58.433460,32767
19:29:58.433460,-2
19:29:58.433460,-376
19:29:58.433460,-32257
19:29:58.433460,-2
19:29:58.433460,-392
19:29:58.433460,29695
19:29:58.433460,-2
19:29:58.433460,-402
19:29:58.433460,29695
19:29:58.433460,-2
19:29:58.433460,-388
19:29:58.433460,32767
19:29:58.433460,-2
19:29:58.433460,-380
19:29:58.433460,-30465
19:29:58.433460,-2
19:29:58.433460,-371
19:29:58.433460,-24321
19:29:58.433460,-2
19:29:58.433460,-340
19:29:58.433460,-19969
19:29:58.433460,-2
19:29:58.433460,-323
19:29:58.433460,-17665
19:29:58.433460,-2
19:29:58.433460,-342
19:29:58.433460,-22529
19:29:58.433460,-2
19:29:58.433460,-290
19:29:58.433460,32511
19:29:58.433460,-1
19:29:58.433460,52
19:29:58.433460,7168
19:29:58.433460,0
19:29:58.433460,-169
19:29:58.433460,-1793
19:29:58.433460,-2
19:29:58.433460,-249
19:29:58.433460,-2817
19:29:58.433460,-2
19:29:58.433460,-295
19:29:58.433460,-6657
19:29:58.433460,-2
19:29:58.433460,-278
19:29:58.433460,-6657
19:29:58.433460,-2
19:29:58.433460,-273
19:29:58.433460,-1
19:29:58.433460,-2
19:29:58.433460,-252
19:29:58.433460,-1025
19:29:58.433460,-2
19:29:58.433460,-283
19:29:58.433460,-11521
19:29:58.433460,-2
19:29:58.433460,-288
19:29:58.433460,-2817
19:29:58.433460,-2
19:29:58.433460,-271
19:29:58.433460,-4097
19:29:58.433460,-2
19:29:58.433460,-259
19:29:58.433460,3071
19:29:58.433460,-1
19:29:58.433460,-240
19:29:58.433460,7423
19:29:58.433460,-1
19:29:58.433460,-204
19:29:58.433460,17663
19:29:58.433460,-1
19:29:58.433460,-161
19:29:58.433460,-31233
19:29:58.433460,-1
19:29:58.433460,-90
19:29:59.018647,-59
19:29:59.018647,-9985
19:29:59.018647,-1
19:29:59.018647,-40
19:29:59.018647,-6913
19:29:59.018647,-1
19:29:59.018647,-2
19:29:59.018647,6911
19:29:59.018647,0
19:29:59.018647,69
19:29:59.018647,19968
19:29:59.018647,0
19:29:59.018647,83
19:29:59.018647,-21760
19:29:59.018647,0
19:29:59.018647,273
19:29:59.018647,12288
19:29:59.018647,1
19:29:59.018647,323
19:29:59.018647,31232
19:29:59.018647,1
19:29:59.018647,428
19:29:59.018647,-13568
19:29:59.018647,1
19:29:59.018647,490
19:29:59.018647,6400
19:29:59.018647,2
19:29:59.018647,602
19:29:59.018647,-24320
19:29:59.018647,2
19:29:59.018647,745
19:29:59.018647,12800
19:29:59.018647,3
19:29:59.018647,897
19:29:59.018647,-16640
19:29:59.018647,3
19:29:59.018647,983
19:29:59.018647,-2560
19:29:59.018647,3
19:29:59.018647,1090
19:29:59.018647,31488
19:29:59.018647,4
19:29:59.018647,1152
19:29:59.018647,-29184
19:29:59.018647,4
19:29:59.018647,1194
19:29:59.018647,-14080
19:29:59.018647,4
19:29:59.018647,1256
19:29:59.018647,-512
19:29:59.018647,4
19:29:59.018647,1294
19:29:59.018647,4864
19:29:59.018647,5
19:29:59.018647,1302
19:29:59.018647,9728
19:29:59.018647,5
19:29:59.018647,1333
19:29:59.018647,14080
19:29:59.018647,5
19:29:59.018647,1344
19:29:59.018647,19456
19:29:59.018647,5
19:29:59.018647,1356
19:29:59.018647,22016
19:29:59.018647,5
19:29:59.018647,1387
19:29:59.018647,30464
19:29:59.018647,5
19:29:59.018647,1406
19:29:59.018647,31232
19:29:59.018647,5
19:29:59.018647,1385
19:29:59.018647,25600
19:29:59.018647,5
19:29:59.018647,1385
19:29:59.018647,23296
19:29:59.018647,5
19:29:59.018647,1363
19:29:59.018647,19456
19:29:59.018647,5
19:29:59.018647,1330
19:29:59.018647,7936
19:29:59.018647,5
19:29:59.018647,1309
19:29:59.018647,1792
19:29:59.018647,5
19:29:59.018647,1271
19:29:59.018647,1280
19:29:59.018647,5
19:29:59.018647,1375
19:29:59.018647,256
19:29:59.018647,6
19:29:59.018647,1575
19:29:59.018647,30464
19:29:59.018647,5
19:29:59.018647,1247
19:29:59.018647,-14080
19:29:59.018647,4
19:29:59.018647,1199
19:29:59.018647,-32256
19:29:59.018647,4
19:29:59.018647,1152
19:29:59.018647,-32768
19:29:59.018647,4
19:29:59.018647,1130
19:29:59.018647,24064
19:29:59.018647,4
19:29:59.018647,1116
19:29:59.558672,1111
19:29:59.558672,19200
19:29:59.558672,4
19:29:59.558672,1087
19:29:59.558672,16128
19:29:59.558672,4
19:29:59.558672,1080
19:29:59.558672,9472
19:29:59.558672,4
19:29:59.558672,1056
19:29:59.558672,7168
19:29:59.558672,4
19:29:59.558672,1056
19:29:59.558672,19200
19:29:59.558672,4
19:29:59.558672,1099
19:29:59.558672,4096
19:29:59.558672,4
19:29:59.558672,1040
19:29:59.558672,13824
19:29:59.558672,4
19:29:59.558672,1075
19:29:59.558672,14336
19:29:59.558672,4
19:29:59.558672,1102
19:29:59.558672,21760
19:29:59.558672,4
19:29:59.558672,1104
19:29:59.558672,17408
19:29:59.558672,4
19:29:59.558672,1087
19:29:59.558672,15104
19:29:59.558672,4
19:29:59.558672,1049
19:29:59.558672,-256
19:29:59.558672,3
19:29:59.558672,1021
19:29:59.558672,-768
19:29:59.558672,3
19:29:59.558672,1028
19:29:59.558672,2304
19:29:59.558672,4
19:29:59.558672,1021
19:29:59.558672,-2560
19:29:59.558672,3
19:29:59.558672,1025
19:29:59.558672,2304
19:29:59.558672,4
19:29:59.558672,1030
19:29:59.558672,256
19:29:59.558672,4
19:29:59.558672,1009
19:29:59.558672,-8704
19:29:59.558672,3
19:29:59.558672,987
19:29:59.558672,-8192
19:29:59.558672,3
19:29:59.558672,990
19:29:59.558672,-13568
19:29:59.558672,3
19:29:59.558672,945
19:29:59.558672,-22784
19:29:59.558672,3
19:29:59.558672,940
19:29:59.558672,-22272
19:29:59.558672,3
19:29:59.558672,935
19:29:59.558672,-22272
19:29:59.558672,3
19:29:59.558672,928
19:29:59.558672,-27648
19:29:59.558672,3
19:29:59.558672,916
19:29:59.558672,-27136
19:29:59.558672,3
19:29:59.558672,916
19:29:59.558672,-30208
19:29:59.558672,3
19:29:59.558672,890
19:29:59.558672,25600
19:29:59.558672,3
19:29:59.558672,859
19:29:59.558672,23808
19:29:59.558672,3
19:29:59.558672,856
19:29:59.558672,18432
19:29:59.558672,3
19:29:59.558672,825
19:29:59.558672,11008
19:29:59.558672,3
19:29:59.558672,799
19:29:59.558672,6912
19:29:59.558672,3
19:29:59.558672,790
19:29:59.558672,4352
19:29:59.558672,3
19:29:59.558672,783
19:29:59.558672,1280
19:29:59.558672,3
19:29:59.558672,766
19:29:59.558672,-1024
19:29:59.558672,2
19:29:59.558672,752
19:29:59.558672,-8960
19:29:59.558672,2
19:29:59.558672,728
19:29:59.558672,-13312
19:29:59.558672,2
19:29:59.558672,699
19:30:00.143431,692
19:30:00.143431,-20736
19:30:00.143431,2
19:30:00.143431,673
19:30:00.143431,-27904
19:30:00.143431,2
19:30:00.143431,637
19:30:00.143431,27136
19:30:00.143431,2
19:30:00.143431,630
19:30:00.143431,32000
19:30:00.143431,2
19:30:00.143431,664
19:30:00.143431,11776
19:30:00.143431,3
19:30:00.143431,930
19:30:00.143431,9728
19:30:00.143431,3
19:30:00.143431,618
19:30:00.143431,15104
19:30:00.143431,2
19:30:00.143431,566
19:30:00.143431,1536
19:30:00.143431,2
19:30:00.143431,495
19:30:00.143431,-3328
19:30:00.143431,1
19:30:00.143431,485
19:30:00.143431,-15360
19:30:00.143431,1
19:30:00.143431,440
19:30:00.143431,-16640
19:30:00.143431,1
19:30:00.143431,437
19:30:00.143431,-23296
19:30:00.143431,1
19:30:00.143431,404
19:30:00.143431,-31744
19:30:00.143431,1
19:30:00.143431,380
19:30:00.143431,-31744
19:30:00.143431,1
19:30:00.143431,390
19:30:00.143431,-28928
19:30:00.143431,1
19:30:00.143431,399
19:30:00.143431,-31232
19:30:00.143431,1
19:30:00.143431,397
19:30:00.143431,-25856
19:30:00.143431,1
19:30:00.143431,416
19:30:00.143431,-22784
19:30:00.143431,1
19:30:00.143431,428
19:30:00.143431,-23296
19:30:00.143431,1
19:30:00.143431,418
19:30:00.143431,-22016
19:30:00.143431,1
19:30:00.143431,421
19:30:00.143431,-27648
19:30:00.143431,1
19:30:00.143431,373
19:30:00.143431,22784
19:30:00.143431,1
19:30:00.143431,345
19:30:00.143431,23296
19:30:00.143431,1
19:30:00.143431,321
19:30:00.143431,12288
19:30:00.143431,1
19:30:00.143431,307
19:30:00.143431,8704
19:30:00.143431,1
19:30:00.143431,276
19:30:00.143431,5120
19:30:00.143431,1
19:30:00.143431,268
19:30:00.143431,-5376
19:30:00.143431,0
19:30:00.143431,176
19:30:00.143431,26112
19:30:00.143431,0
19:30:00.143431,38
19:30:00.143431,0
19:30:00.143431,0
19:30:00.143431,-26
19:30:00.143431,-14337
19:30:00.143431,-1
19:30:00.143431,-116
19:30:00.143431,18431
19:30:00.143431,-1
19:30:00.143431,-223
19:30:00.143431,4351
19:30:00.143431,-1
19:30:00.143431,-264
19:30:00.143431,-7937
19:30:00.143431,-2
19:30:00.143431,-307
19:30:00.143431,-19457
19:30:00.143431,-2
19:30:00.143431,-368
19:30:00.143431,23039
19:30:00.143431,-2
19:30:00.143431,-480
19:30:00.143431,-8705
19:30:00.143431,-3
19:30:00.143431,-640
19:30:00.683646,-730
19:30:00.683646,-5889
19:30:00.683646,-4
19:30:00.683646,-842
19:30:00.683646,32255
19:30:00.683646,-4
19:30:00.683646,-966
19:30:00.683646,-1281
19:30:00.683646,-5
19:30:00.683646,-1078
19:30:00.683646,-24577
19:30:00.683646,-5
19:30:00.683646,-1159
19:30:00.683646,26367
19:30:00.683646,-5
19:30:00.683646,-1197
19:30:00.683646,8191
19:30:00.683646,-5
19:30:00.683646,-1302
19:30:00.683646,-11265
19:30:00.683646,-6
19:30:00.683646,-1361
19:30:00.683646,-29697
19:30:00.683646,-6
19:30:00.683646,-1421
19:30:00.683646,24831
19:30:00.683646,-6
19:30:00.683646,-1449
19:30:00.683646,23039
19:30:00.683646,-6
19:30:00.683646,-1440
19:30:00.683646,26879
19:30:00.683646,-6
19:30:00.683646,-1425
19:30:00.683646,30463
19:30:00.683646,-6
19:30:00.683646,-1413
19:30:00.683646,31743
19:30:00.683646,-6
19:30:00.683646,-1382
19:30:00.683646,5631
19:30:00.683646,-5
19:30:00.683646,-1066
19:30:00.683646,5887
19:30:00.683646,-4
19:30:00.683646,-1156
19:30:00.683646,-1025
19:30:00.683646,-6
19:30:00.683646,-1285
19:30:00.683646,-7681
19:30:00.683646,-6
19:30:00.683646,-1340
19:30:00.683646,-5889
19:30:00.683646,-6
19:30:00.683646,-1285
19:30:00.683646,-4097
19:30:00.683646,-6
19:30:00.683646,-1292
19:30:00.683646,767
19:30:00.683646,-5
19:30:00.683646,-1266
19:30:00.683646,6911
19:30:00.683646,-5
19:30:00.683646,-1252
19:30:00.683646,7423
19:30:00.683646,-5
19:30:00.683646,-1228
19:30:00.683646,19199
19:30:00.683646,-5
19:30:00.683646,-1197
19:30:00.683646,27135
19:30:00.683646,-5
19:30:00.683646,-1156
19:30:00.683646,-27649
19:30:00.683646,-5
19:30:00.683646,-1102
19:30:00.683646,-12289
19:30:00.683646,-5
19:30:00.683646,-1047
19:30:00.683646,511
19:30:00.683646,-4
19:30:00.683646,-997
19:30:00.683646,14591
19:30:00.683646,-4
19:30:00.683646,-942
19:30:00.683646,27391
19:30:00.683646,-4
19:30:00.683646,-902
19:30:00.683646,32255
19:30:00.683646,-4
19:30:00.683646,-904
19:30:00.683646,32255
19:30:00.683646,-4
19:30:00.683646,-897
19:30:00.683646,31487
19:30:00.683646,-4
19:30:00.683646,-897
19:30:00.683646,-29697
19:30:00.683646,-4
19:30:00.683646,-875
19:30:00.683646,-22273
19:30:00.683646,-4
19:30:00.683646,-837
19:30:00.683646,-16385
19:30:00.683646,-4
19:30:00.683646,-823
19:30:00.683646,-9473
19:30:00.683646,-4
19:30:00.683646,-799
19:30:01.269643,-785
19:30:01.269643,255
19:30:01.269643,-3
19:30:01.269643,-764
19:30:01.269643,4351
19:30:01.269643,-3
19:30:01.269643,-733
19:30:01.269643,11775
19:30:01.269643,-3
19:30:01.269643,-704
19:30:01.269643,24575
19:30:01.269643,-3
19:30:01.269643,-678
19:30:01.269643,17151
19:30:01.269643,-3
19:30:01.269643,-683
19:30:01.269643,28927
19:30:01.269643,-3
19:30:01.269643,-649
19:30:01.269643,-31745
19:30:01.269643,-3
19:30:01.269643,-623
19:30:01.269643,-24577
19:30:01.269643,-3
19:30:01.269643,-604
19:30:01.269643,-22785
19:30:01.269643,-3
19:30:01.269643,-590
19:30:01.269643,-17153
19:30:01.269643,-3
19:30:01.269643,-580
19:30:01.269643,-14849
19:30:01.269643,-3
19:30:01.269643,-559
19:30:01.269643,-9217
19:30:01.269643,-3
19:30:01.269643,-540
19:30:01.269643,-6145
19:30:01.269643,-3
19:30:01.269643,-537
19:30:01.269643,-5633
19:30:01.269643,-3
19:30:01.269643,-528
19:30:01.269643,-257
19:30:01.269643,-3
19:30:01.269643,-490
19:30:01.269643,10239
19:30:01.269643,-2
19:30:01.269643,-478
19:30:01.269643,8959
19:30:01.269643,-2
19:30:01.269643,-457
19:30:01.269643,16383
19:30:01.269643,-2
19:30:01.269643,-445
19:30:01.269643,21247
19:30:01.269643,-2
19:30:01.269643,-430
19:30:01.269643,20479
19:30:01.269643,-2
19:30:01.269643,-423
19:30:01.269643,26111
19:30:01.269643,-2
19:30:01.269643,-402
19:30:01.269643,27903
19:30:01.269643,-2
19:30:01.269643,-407
19:30:01.269643,27135
19:30:01.269643,-2
19:30:01.269643,-416
19:30:01.269643,22271
19:30:01.269643,-2
19:30:01.269643,-368
19:30:01.269643,14079
19:30:01.269643,-1
19:30:01.269643,-26
19:30:01.269643,-11777
19:30:01.269643,-1
19:30:01.269643,-233
19:30:01.269643,-19457
19:30:01.269643,-2
19:30:01.269643,-321
19:30:01.269643,-21761
19:30:01.269643,-2
19:30:01.269643,-373
19:30:01.269643,-26113
19:30:01.269643,-2
19:30:01.269643,-352
19:30:01.269643,-26113
19:30:01.269643,-2
19:30:01.269643,-347
19:30:01.269643,-15617
19:30:01.269643,-2
19:30:01.269643,-311
19:30:01.269643,-13825
19:30:01.269643,-2
19:30:01.269643,-302
19:30:01.269643,-7937
19:30:01.269643,-2
19:30:01.269643,-278
19:30:01.269643,-4097
19:30:01.269643,-2
19:30:01.269643,-268
19:30:01.269643,-1
19:30:01.269643,-2
19:30:01.269643,-240
19:30:01.269643,8703
19:30:01.269643,-1
19:30:01.269643,-207
19:30:01.810160,-188
19:30:01.810160,26367
19:30:01.810160,-1
19:30:01.810160,-90
19:30:01.810160,255
19:30:01.810160,0
19:30:01.810160,90
19:30:01.810160,-30208
19:30:01.810160,0
19:30:01.810160,149
19:30:01.810160,-24320
19:30:01.810160,0
19:30:01.810160,171
19:30:01.810160,-18176
19:30:01.810160,0
19:30:01.810160,221
19:30:01.810160,-8448
19:30:01.810160,0
19:30:01.810160,180
19:30:01.810160,-18176
19:30:01.810160,0
19:30:01.810160,214
19:30:01.810160,-11520
19:30:01.810160,0
19:30:01.810160,223
19:30:01.810160,-1792
19:30:01.810160,0
19:30:01.810160,257
19:30:01.810160,-512
19:30:01.810160,0
19:30:01.810160,268
19:30:01.810160,11776
19:30:01.810160,1
19:30:01.810160,328
19:30:01.810160,20224
19:30:01.810160,1
19:30:01.810160,333
19:30:01.810160,17152
19:30:01.810160,1
19:30:01.810160,323
19:30:01.810160,21504
19:30:01.810160,1
19:30:01.810160,342
19:30:01.810160,19712
19:30:01.810160,1
19:30:01.810160,333
19:30:01.810160,20224
19:30:01.810160,1
19:30:01.810160,345
19:30:01.810160,26880
19:30:01.810160,1
19:30:01.810160,366
19:30:01.810160,25088
19:30:01.810160,1
19:30:01.810160,354
19:30:01.810160,26368
19:30:01.810160,1
19:30:01.810160,359
19:30:01.810160,26880
19:30:01.810160,1
19:30:01.810160,361
19:30:01.810160,27648
19:30:01.810160,1
19:30:01.810160,361
19:30:01.810160,25088
19:30:01.810160,1
19:30:01.810160,357
19:30:01.810160,26880
19:30:01.810160,1
19:30:01.810160,366
19:30:01.810160,29440
19:30:01.810160,1
19:30:01.810160,380
19:30:01.810160,-28928
19:30:01.810160,1
19:30:01.810160,414
19:30:01.810160,-25088
19:30:01.810160,1
19:30:01.810160,421
19:30:01.810160,-18432
19:30:01.810160,1
19:30:01.810160,459
19:30:01.810160,-9216
19:30:01.810160,1
19:30:01.810160,504
19:30:01.810160,8960
19:30:01.810160,2
19:30:01.810160,583
19:30:01.810160,27904
19:30:01.810160,2
19:30:01.810160,661
19:30:01.810160,-15104
19:30:01.810160,2
19:30:01.810160,768
19:30:01.810160,7936
19:30:01.810160,3
19:30:01.810160,797
19:30:01.810160,15872
19:30:01.810160,3
19:30:01.810160,868
19:30:01.810160,26368
19:30:01.810160,3
19:30:01.810160,887
19:30:01.810160,-28928
19:30:01.810160,3
19:30:01.810160,914
19:30:01.810160,-24064
19:30:01.810160,3
19:30:01.810160,959
19:30:02.348749,971
19:30:02.348749,-13568
19:30:02.348749,3
19:30:02.348749,968
19:30:02.348749,-11776
19:30:02.348749,3
19:30:02.348749,1083
19:30:02.348749,0
19:30:02.348749,5
19:30:02.348749,1406
19:30:02.348749,20224
19:30:02.348749,5
19:30:02.348749,1218
19:30:02.348749,20480
19:30:02.348749,4
19:30:02.348749,1087
19:30:02.348749,20480
19:30:02.348749,4
19:30:02.348749,1092
19:30:02.348749,15104
19:30:02.348749,4
19:30:02.348749,1083
19:30:02.348749,15104
19:30:02.348749,4
19:30:02.348749,1109
19:30:02.348749,24064
19:30:02.348749,4
19:30:02.348749,1087
19:30:02.348749,14336
19:30:02.348749,4
19:30:02.348749,1087
19:30:02.348749,13824
19:30:02.348749,4
19:30:02.348749,1083
19:30:02.348749,18688
19:30:02.348749,4
19:30:02.348749,1094
19:30:02.348749,16896
19:30:02.348749,4
19:30:02.348749,1092
19:30:02.348749,19200
19:30:02.348749,4
19:30:02.348749,1128
19:30:02.348749,-30464
19:30:02.348749,4
19:30:02.348749,1178
19:30:02.348749,-22528
19:30:02.348749,4
19:30:02.348749,1211
19:30:02.348749,-10240
19:30:02.348749,4
19:30:02.348749,1254
19:30:02.348749,-7168
19:30:02.348749,4
19:30:02.348749,1249
19:30:02.348749,-5376
19:30:02.348749,4
19:30:02.348749,1254
19:30:02.348749,-11520
19:30:02.348749,4
19:30:02.348749,1235
19:30:02.348749,-11008
19:30:02.348749,4
19:30:02.348749,1230
19:30:02.348749,-11520
19:30:02.348749,4
19:30:02.348749,1240
19:30:02.348749,-9728
19:30:02.348749,4
19:30:02.348749,1252
19:30:02.348749,-5376
19:30:02.348749,4
19:30:02.348749,1259
19:30:02.348749,-1280
19:30:02.348749,4
19:30:02.348749,1285
19:30:02.348749,-1280
19:30:02.348749,4
19:30:02.348749,1271
19:30:02.348749,-1280
19:30:02.348749,4
19:30:02.348749,1273
19:30:02.348749,-3584
19:30:02.348749,4
19:30:02.348749,1256
19:30:02.348749,-6144
19:30:02.348749,4
19:30:02.348749,1261
19:30:02.348749,-6144
19:30:02.348749,4
19:30:02.348749,1254
19:30:02.348749,-4352
19:30:02.348749,4
19:30:02.348749,1285
19:30:02.348749,4864
19:30:02.348749,5
19:30:02.348749,1297
19:30:02.348749,3072
19:30:02.348749,5
19:30:02.348749,1285
19:30:02.348749,0
19:30:02.348749,5
19:30:02.348749,1287
19:30:02.348749,5632
19:30:02.348749,5
19:30:02.348749,1302
19:30:02.348749,1792
19:30:02.348749,5
19:30:02.348749,1290
19:30:02.933746,1294
19:30:02.933746,-512
19:30:02.933746,4
19:30:02.933746,1259
19:30:02.933746,-6144
19:30:02.933746,4
19:30:02.933746,1280
19:30:02.933746,4352
19:30:02.933746,5
19:30:02.933746,1252
19:30:02.933746,-16384
19:30:02.933746,4
19:30:02.933746,1237
19:30:02.933746,-7936
19:30:02.933746,4
19:30:02.933746,1240
19:30:02.933746,-15872
19:30:02.933746,4
19:30:02.933746,1199
19:30:02.933746,-22528
19:30:02.933746,4
19:30:02.933746,1183
19:30:02.933746,-27904
19:30:02.933746,4
19:30:02.933746,1164
19:30:02.933746,32000
19:30:02.933746,4
19:30:02.933746,1128
19:30:02.933746,24832
19:30:02.933746,4
19:30:02.933746,1114
19:30:02.933746,18688
19:30:02.933746,4
19:30:02.933746,1085
19:30:02.933746,11264
19:30:02.933746,4
19:30:02.933746,1044
19:30:02.933746,2304
19:30:02.933746,4
19:30:02.933746,1023
19:30:02.933746,-2560
19:30:02.933746,3
19:30:02.933746,1047
19:30:02.933746,-28672
19:30:02.933746,4
19:30:02.933746,1311
19:30:02.933746,4352
19:30:02.933746,5
19:30:02.933746,1104
19:30:02.933746,-11264
19:30:02.933746,3
19:30:02.933746,987
19:30:02.933746,-14848
19:30:02.933746,3
19:30:02.933746,925
19:30:02.933746,-26368
19:30:02.933746,3
19:30:02.933746,911
19:30:02.933746,31232
19:30:02.933746,3
19:30:02.933746,878
19:30:02.933746,26880
19:30:02.933746,3
19:30:02.933746,875
19:30:02.933746,26368
19:30:02.933746,3
19:30:02.933746,856
19:30:02.933746,18944
19:30:02.933746,3
19:30:02.933746,835
19:30:02.933746,14592
19:30:02.933746,3
19:30:02.933746,823
19:30:02.933746,12800
19:30:02.933746,3
19:30:02.933746,814
19:30:02.933746,13568
19:30:02.933746,3
19:30:02.933746,821
19:30:02.933746,9728
19:30:02.933746,3
19:30:02.933746,804
19:30:02.933746,11776
19:30:02.933746,3
19:30:02.933746,814
19:30:02.933746,12288
19:30:02.933746,3
19:30:02.933746,811
19:30:02.933746,7936
19:30:02.933746,3
19:30:02.933746,804
19:30:02.933746,5632
19:30:02.933746,3
19:30:02.933746,756
19:30:02.933746,-8960
19:30:02.933746,2
19:30:02.933746,704
19:30:02.933746,-27392
19:30:02.933746,2
19:30:02.933746,647
19:30:02.933746,-30464
19:30:02.933746,2
19:30:02.933746,642
19:30:02.933746,-32256
19:30:02.933746,2
19:30:02.933746,640
19:30:02.933746,27904
19:30:02.933746,2
19:30:02.933746,606
19:30:03.564009,609
19:30:03.564009,24832
19:30:03.564009,2
19:30:03.564009,606
19:30:03.564009,21248
19:30:03.564009,2
19:30:03.564009,573
19:30:03.564009,15616
19:30:03.564009,2
19:30:03.564009,578
19:30:03.564009,18688
19:30:03.564009,2
19:30:03.564009,597
19:30:03.564009,11520
19:30:03.564009,2
19:30:03.564009,507
19:30:03.564009,512
19:30:03.564009,2
19:30:03.564009,509
19:30:03.564009,-6400
19:30:03.564009,1
19:30:03.564009,490
19:30:03.564009,-6912
19:30:03.564009,1
19:30:03.564009,464
19:30:03.564009,-14080
19:30:03.564009,1
19:30:03.564009,454
19:30:03.564009,-18432
19:30:03.564009,1
19:30:03.564009,421
19:30:03.564009,-28160
19:30:03.564009,1
19:30:03.564009,388
19:30:03.564009,-32512
19:30:03.564009,1
19:30:03.564009,378
19:30:03.564009,27648
19:30:03.564009,1
19:30:03.564009,352
19:30:03.564009,19712
19:30:03.564009,1
19:30:03.564009,316
19:30:03.564009,13056
19:30:03.564009,1
19:30:03.564009,295
19:30:03.564009,8192
19:30:03.564009,1
19:30:03.564009,278
19:30:03.564009,768
19:30:03.564009,1
19:30:03.564009,245
19:30:03.564009,-7168
19:30:03.564009,0
19:30:03.564009,207
19:30:03.564009,-17408
19:30:03.564009,0
19:30:03.564009,180
19:30:03.564009,-23552
19:30:03.564009,0
19:30:03.564009,135
19:30:03.564009,27392
19:30:03.564009,0
19:30:03.564009,97
19:30:03.564009,24320
19:30:03.564009,0
19:30:03.564009,78
19:30:03.564009,13824
19:30:03.564009,0
19:30:03.564009,40
19:30:03.564009,7168
19:30:03.564009,0
19:30:03.564009,14
19:30:03.564009,-1792
19:30:03.564009,-1
19:30:03.564009,-33
19:30:03.564009,-16641
19:30:03.564009,-1
19:30:03.564009,-95
19:30:03.564009,-25089
19:30:03.564009,-1
19:30:03.564009,-14
19:30:03.564009,-32001
19:30:03.564009,0
19:30:03.564009,135
19:30:03.564009,-13312
19:30:03.564009,-1
19:30:03.564009,-197
19:30:03.564009,16639
19:30:03.564009,-1
19:30:03.564009,-207
19:30:03.564009,-1
19:30:03.564009,-2
19:30:03.564009,-259
19:30:03.564009,3839
19:30:03.564009,-1
19:30:03.564009,-254
19:30:03.564009,-3585
19:30:03.564009,-2
19:30:03.564009,-268
19:30:03.564009,-1
19:30:03.564009,-2
19:30:03.564009,-247
19:30:03.564009,-513
19:30:03.564009,-2
19:30:03.564009,-283
19:30:03.564009,-7169
19:30:03.564009,-2
19:30:03.564009,-266
19:30:04.058504,-259
19:30:04.058504,-1025
19:30:04.058504,-2
19:30:04.058504,-249
19:30:04.058504,4351
19:30:04.058504,-1
19:30:04.058504,-228
19:30:04.058504,14079
19:30:04.058504,-1
19:30:04.058504,-183
19:30:04.058504,21503
19:30:04.058504,-1
19:30:04.058504,-157
19:30:04.058504,29951
19:30:04.058504,-1
19:30:04.058504,-126
19:30:04.058504,-27137
19:30:04.058504,-1
19:30:04.058504,-88
19:30:04.058504,-18433
19:30:04.058504,-1
19:30:04.058504,-69
19:30:04.058504,-19713
19:30:04.058504,-1
19:30:04.058504,-76
19:30:04.058504,-13569
19:30:04.058504,-1
19:30:04.058504,-69
19:30:04.058504,-25089
19:30:04.058504,-1
19:30:04.058504,-80
19:30:04.058504,-16641
19:30:04.058504,-1
19:30:04.058504,-66
19:30:04.058504,-11265
19:30:04.058504,-1
19:30:04.058504,-38
19:30:04.058504,-10497
19:30:04.058504,-1
19:30:04.058504,-38
19:30:04.058504,-9985
19:30:04.058504,-1
19:30:04.058504,-47
19:30:04.058504,-10497
19:30:04.058504,-1
19:30:04.058504,-40
19:30:04.058504,-11265
19:30:04.058504,-1
19:30:04.058504,-47
19:30:04.058504,-13057
19:30:04.058504,-1
19:30:04.058504,-52
19:30:04.058504,-12289
19:30:04.058504,-1
19:30:04.058504,-54
19:30:04.058504,-14337
19:30:04.058504,-1
19:30:04.058504,-54
19:30:04.058504,-13057
19:30:04.058504,-1
19:30:04.058504,-47
19:30:04.058504,-13057
19:30:04.058504,-1
19:30:04.058504,-54
19:30:04.058504,-11777
19:30:04.058504,-1
19:30:04.058504,-59
19:30:04.058504,-20225
19:30:04.058504,-1
19:30:04.058504,-88
19:30:04.058504,-22785
19:30:04.058504,-1
19:30:04.058504,-99
19:30:04.058504,-26369
19:30:04.058504,-1
19:30:04.058504,-116
19:30:04.058504,31743
19:30:04.058504,-1
19:30:04.058504,-152
19:30:04.058504,21503
19:30:04.058504,-1
19:30:04.058504,-185
19:30:04.058504,18943
19:30:04.058504,-1
19:30:04.058504,-192
19:30:04.058504,17151
19:30:04.058504,-1
19:30:04.058504,-178
19:30:04.058504,20223
19:30:04.058504,-1
19:30:04.058504,-176
19:30:04.058504,22015
19:30:04.058504,-1
19:30:04.058504,-180
19:30:04.058504,20223
19:30:04.058504,-1
19:30:04.058504,-164
19:30:04.058504,23807
19:30:04.058504,-1
19:30:04.058504,-161
19:30:04.058504,28159
19:30:04.058504,-1
19:30:04.058504,-140
19:30:04.058504,31231
19:30:04.058504,-1
19:30:04.058504,-128
19:30:04.058504,31743
19:30:04.058504,-1
19:30:04.058504,-128
19:30:04.643642,-109
19:30:04.643642,-24577
19:30:04.643642,-1
19:30:04.643642,-90
19:30:04.643642,-21505
19:30:04.643642,-1
19:30:04.643642,-83
19:30:04.643642,-19201
19:30:04.643642,-1
19:30:04.643642,-71
19:30:04.643642,-19201
19:30:04.643642,-1
19:30:04.643642,-59
19:30:04.643642,-7425
19:30:04.643642,-1
19:30:04.643642,47
19:30:04.643642,-10240
19:30:04.643642,0
19:30:04.643642,273
19:30:04.643642,25344
19:30:04.643642,0
19:30:04.643642,-47
19:30:04.643642,-11265
19:30:04.643642,-1
19:30:04.643642,-47
19:30:04.643642,-17409
19:30:04.643642,-1
19:30:04.643642,-47
19:30:04.643642,-6913
19:30:04.643642,-1
19:30:04.643642,-33
19:30:04.643642,-7425
19:30:04.643642,-1
19:30:04.643642,-16
19:30:04.643642,-2049
19:30:04.643642,-1
19:30:04.643642,-7
19:30:04.643642,-1537
19:30:04.643642,-1
19:30:04.643642,-16
19:30:04.643642,-6401
19:30:04.643642,-1
19:30:04.643642,-23
19:30:04.643642,-3841
19:30:04.643642,-1
19:30:04.643642,-4
19:30:04.643642,255
19:30:04.643642,0
19:30:04.643642,-2
19:30:04.643642,3071
19:30:04.643642,0
19:30:04.643642,30
19:30:04.643642,9728
19:30:04.643642,0
19:30:04.643642,42
19:30:04.643642,12544
19:30:04.643642,0
19:30:04.643642,49
19:30:04.643642,15104
19:30:04.643642,0
19:30:04.643642,76
19:30:04.643642,23040
19:30:04.643642,0
19:30:04.643642,95
19:30:04.643642,24832
19:30:04.643642,0
19:30:04.643642,88
19:30:04.643642,18688
19:30:04.643642,0
19:30:04.643642,78
19:30:04.643642,23040
19:30:04.643642,0
19:30:04.643642,99
19:30:04.643642,27392
19:30:04.643642,0
19:30:04.643642,109
19:30:04.643642,30464
19:30:04.643642,0
19:30:04.643642,152
19:30:04.643642,-18176
19:30:04.643642,0
19:30:04.643642,185
19:30:04.643642,-20480
19:30:04.643642,0
19:30:04.643642,178
19:30:04.643642,-20480
19:30:04.643642,0
19:30:04.643642,169
19:30:04.643642,-21248
19:30:04.643642,0
19:30:04.643642,180
19:30:04.643642,-19456
19:30:04.643642,0
19:30:04.643642,180
19:30:04.643642,-16896
19:30:04.643642,0
19:30:04.643642,199
19:30:04.643642,-12032
19:30:04.643642,0
19:30:04.643642,218
19:30:04.643642,-11520
19:30:04.643642,0
19:30:04.643642,199
19:30:04.643642,-12032
19:30:04.643642,0
19:30:04.643642,218
19:30:04.643642,-8448
19:30:04.643642,0
19:30:04.643642,245
19:30:05.183647,264
19:30:05.183647,1280
19:30:05.183647,1
19:30:05.183647,280
19:30:05.183647,15872
19:30:05.183647,1
19:30:05.183647,352
19:30:05.183647,-29440
19:30:05.183647,1
19:30:05.183647,437
19:30:05.183647,-14848
19:30:05.183647,1
19:30:05.183647,483
19:30:05.183647,5376
19:30:05.183647,2
19:30:05.183647,611
19:30:05.183647,-7168
19:30:05.183647,2
19:30:05.183647,833
19:30:05.183647,13568
19:30:05.183647,3
19:30:05.183647,823
19:30:05.183647,26880
19:30:05.183647,3
19:30:05.183647,916
19:30:05.183647,-14336
19:30:05.183647,3
19:30:05.183647,1021
19:30:05.183647,7680
19:30:05.183647,4
19:30:05.183647,1094
19:30:05.183647,27904
19:30:05.183647,4
19:30:05.183647,1166
19:30:05.183647,-18176
19:30:05.183647,4
19:30:05.183647,1228
19:30:05.183647,-15872
19:30:05.183647,4
19:30:05.183647,1213
19:30:05.183647,-14592
19:30:05.183647,4
19:30:05.183647,1237
19:30:05.183647,-8448
19:30:05.183647,4
19:30:05.183647,1240
19:30:05.183647,-17664
19:30:05.183647,4
19:30:05.183647,1194
19:30:05.183647,-14080
19:30:05.183647,4
19:30:05.183647,1344
19:30:05.183647,-8704
19:30:05.183647,5
19:30:05.183647,1504
19:30:05.183647,11008
19:30:05.183647,5
19:30:05.183647,1194
19:30:05.183647,-22528
19:30:05.183647,4
19:30:05.183647,1185
19:30:05.183647,32000
19:30:05.183647,4
19:30:05.183647,1135
19:30:05.183647,24832
19:30:05.183647,4
19:30:05.183647,1104
19:30:05.183647,21760
19:30:05.183647,4
19:30:05.183647,1104
19:30:05.183647,12032
19:30:05.183647,4
19:30:05.183647,1052
19:30:05.183647,5888
19:30:05.183647,4
19:30:05.183647,1035
19:30:05.183647,256
19:30:05.183647,4
19:30:05.183647,1025
19:30:05.183647,256
19:30:05.183647,4
19:30:05.183647,1014
19:30:05.183647,-5120
19:30:05.183647,3
19:30:05.183647,1002
19:30:05.183647,-5632
19:30:05.183647,3
19:30:05.183647,992
19:30:05.183647,-8704
19:30:05.183647,3
19:30:05.183647,990
19:30:05.183647,-10496
19:30:05.183647,3
19:30:05.183647,975
19:30:05.183647,-11776
19:30:05.183647,3
19:30:05.183647,973
19:30:05.183647,-15360
19:30:05.183647,3
19:30:05.183647,954
19:30:05.183647,-23296
19:30:05.183647,3
19:30:05.183647,899
19:30:05.183647,27392
19:30:05.183647,3
19:30:05.183647,864
19:30:05.183647,18944
19:30:05.183647,3
19:30:05.183647,821
19:30:05.768673,811
19:30:05.768673,9728
19:30:05.768673,3
19:30:05.768673,802
19:30:05.768673,7424
19:30:05.768673,3
19:30:05.768673,783
19:30:05.768673,768
19:30:05.768673,3
19:30:05.768673,754
19:30:05.768673,-7936
19:30:05.768673,2
19:30:05.768673,756
19:30:05.768673,4352
19:30:05.768673,3
19:30:05.768673,745
19:30:05.768673,-20736
19:30:05.768673,2
19:30:05.768673,690
19:30:05.768673,-18688
19:30:05.768673,2
19:30:05.768673,671
19:30:05.768673,-27904
19:30:05.768673,2
19:30:05.768673,659
19:30:05.768673,-32768
19:30:05.768673,2
19:30:05.768673,614
19:30:05.768673,22272
19:30:05.768673,2
19:30:05.768673,597
19:30:05.768673,20480
19:30:05.768673,2
19:30:05.768673,578
19:30:05.768673,12544
19:30:05.768673,2
19:30:05.768673,552
19:30:05.768673,10240
19:30:05.768673,2
19:30:05.768673,542
19:30:05.768673,1024
19:30:05.768673,2
19:30:05.768673,507
19:30:05.768673,-1280
19:30:05.768673,1
19:30:05.768673,499
19:30:05.768673,-3328
19:30:05.768673,1
19:30:05.768673,497
19:30:05.768673,-6912
19:30:05.768673,1
19:30:05.768673,485
19:30:05.768673,-7424
19:30:05.768673,1
19:30:05.768673,478
19:30:05.768673,-5632
19:30:05.768673,1
19:30:05.768673,495
19:30:05.768673,-10496
19:30:05.768673,1
19:30:05.768673,459
19:30:05.768673,-14080
19:30:05.768673,1
19:30:05.768673,447
19:30:05.768673,-17152
19:30:05.768673,1
19:30:05.768673,449
19:30:05.768673,-18432
19:30:05.768673,1
19:30:05.768673,433
19:30:05.768673,-20992
19:30:05.768673,1
19:30:05.768673,423
19:30:05.768673,-24576
19:30:05.768673,1
19:30:05.768673,409
19:30:05.768673,-29952
19:30:05.768673,1
19:30:05.768673,383
19:30:05.768673,-26880
19:30:05.768673,1
19:30:05.768673,511
19:30:05.768673,-26624
19:30:05.768673,2
19:30:05.768673,673
19:30:05.768673,-5632
19:30:05.768673,1
19:30:05.768673,373
19:30:05.768673,-29440
19:30:05.768673,1
19:30:05.768673,376
19:30:05.768673,18944
19:30:05.768673,1
19:30:05.768673,345
19:30:05.768673,23808
19:30:05.768673,1
19:30:05.768673,328
19:30:05.768673,15360
19:30:05.768673,1
19:30:05.768673,314
19:30:05.768673,16640
19:30:05.768673,1
19:30:05.768673,330
19:30:05.768673,20224
19:30:05.768673,1
19:30:05.768673,340
19:30:05.768673,20992
19:30:05.768673,1
19:30:05.768673,340
19:30:06.263691,349
19:30:06.263691,23808
19:30:06.263691,1
19:30:06.263691,345
19:30:06.263691,24576
19:30:06.263691,1
19:30:06.263691,364
19:30:06.263691,30720
19:30:06.263691,1
19:30:06.263691,395
19:30:06.263691,-22016
19:30:06.263691,1
19:30:06.263691,440
19:30:06.263691,-16640
19:30:06.263691,1
19:30:06.263691,461
19:30:06.263691,-6400
19:30:06.263691,1
19:30:06.263691,518
19:30:06.263691,-5632
19:30:06.263691,1
19:30:06.263691,430
19:30:06.263691,-24064
19:30:06.263691,1
19:30:06.263691,414
19:30:06.263691,32512
19:30:06.263691,1
19:30:06.263691,371
19:30:06.263691,29952
19:30:06.263691,1
19:30:06.263691,373
19:30:06.263691,31232
19:30:06.263691,1
19:30:06.263691,376
19:30:06.263691,27648
19:30:06.263691,1
19:30:06.263691,359
19:30:06.263691,26880
19:30:06.263691,1
19:30:06.263691,354
19:30:06.263691,21504
19:30:06.263691,1
19:30:06.263691,326
19:30:06.263691,17152
19:30:06.263691,1
19:30:06.263691,333
19:30:06.263691,17920
19:30:06.263691,1
19:30:06.263691,302
19:30:06.263691,11008
19:30:06.263691,1
19:30:06.263691,295
19:30:06.263691,4352
19:30:06.263691,1
19:30:06.263691,257
19:30:06.263691,-4096
19:30:06.263691,0
19:30:06.263691,228
19:30:06.263691,-6656
19:30:06.263691,0
19:30:06.263691,221
19:30:06.263691,-15616
19:30:06.263691,0
19:30:06.263691,173
19:30:06.263691,-25344
19:30:06.263691,0
19:30:06.263691,138
19:30:06.263691,27904
19:30:06.263691,0
19:30:06.263691,78
19:30:06.263691,12544
19:30:06.263691,0
19:30:06.263691,16
19:30:06.263691,-8960
19:30:06.263691,-1
19:30:06.263691,-83
19:30:06.263691,-29441
19:30:06.263691,-1
19:30:06.263691,-154
19:30:06.263691,11775
19:30:06.263691,-1
19:30:06.263691,-283
19:30:06.263691,-21249
19:30:06.263691,-2
19:30:06.263691,-383
19:30:06.263691,17407
19:30:06.263691,-2
19:30:06.263691,-504
19:30:06.263691,-8705
19:30:06.263691,-3
19:30:06.263691,-611
19:30:06.263691,25087
19:30:06.263691,-3
19:30:06.263691,-704
19:30:06.263691,-3585
19:30:06.263691,-4
19:30:06.263691,-909
19:30:06.263691,-2049
19:30:06.263691,-5
19:30:06.263691,-1149
19:30:06.263691,8191
19:30:06.263691,-5
19:30:06.263691,-1333
19:30:06.263691,29695
19:30:06.263691,-6
19:30:06.263691,-1509
19:30:06.263691,8959
19:30:06.263691,-6
19:30:06.263691,-1428
19:30:06.893712,-1523
19:30:06.893712,-1025
19:30:06.893712,-8
19:30:06.893712,-1975
19:30:06.893712,3583
19:30:06.893712,-8
19:30:06.893712,-2163
19:30:06.893712,-769
19:30:06.893712,-10
19:30:06.893712,-2342
19:30:06.893712,-17921
19:30:06.893712,-10
19:30:06.893712,-2482
19:30:06.893712,-3585
19:30:06.893712,-11
19:30:06.893712,-2623
19:30:06.893712,-23809
19:30:06.893712,-11
19:30:06.893712,-2673
19:30:06.893712,31487
19:30:06.893712,-11
19:30:06.893712,-2737
19:30:06.893712,11263
19:30:06.893712,-11
19:30:06.893712,-2780
19:30:06.893712,13823
19:30:06.893712,-11
19:30:06.893712,-2749
19:30:06.893712,23039
19:30:06.893712,-11
19:30:06.893712,-2689
19:30:06.893712,-23809
19:30:06.893712,-11
19:30:06.893712,-2623
19:30:06.893712,-4865
19:30:06.893712,-11
19:30:06.893712,-2530
19:30:06.893712,16383
19:30:06.893712,-10
19:30:06.893712,-2461
19:30:06.893712,-26369
19:30:06.893712,-10
19:30:06.893712,-2368
19:30:06.893712,-6913
19:30:06.893712,-10
19:30:06.893712,-2299
19:30:06.893712,4607
19:30:06.893712,-9
19:30:06.893712,-2294
19:30:06.893712,4607
19:30:06.893712,-9
19:30:06.893712,-2273
19:30:06.893712,12031
19:30:06.893712,-9
19:30:06.893712,-2237
19:30:06.893712,24063
19:30:06.893712,-9
19:30:06.893712,-2187
19:30:06.893712,-28673
19:30:06.893712,-9
19:30:06.893712,-2137
19:30:06.893712,-15873
19:30:06.893712,-9
19:30:06.893712,-2075
19:30:06.893712,4351
19:30:06.893712,-8
19:30:06.893712,-1999
19:30:06.893712,18175
19:30:06.893712,-8
19:30:06.893712,-1956
19:30:06.893712,30975
19:30:06.893712,-8
19:30:06.893712,-1899
19:30:06.893712,-19713
19:30:06.893712,-8
19:30:06.893712,-1844
19:30:06.893712,-6913
19:30:06.893712,-8
19:30:06.893712,-1801
19:30:06.893712,4607
19:30:06.893712,-7
19:30:06.893712,-1754
19:30:06.893712,14335
19:30:06.893712,-7
19:30:06.893712,-1711
19:30:06.893712,26367
19:30:06.893712,-7
19:30:06.893712,-1675
19:30:06.893712,-29953
19:30:06.893712,-7
19:30:06.893712,-1632
19:30:06.893712,-18945
19:30:06.893712,-7
19:30:06.893712,-1580
19:30:06.893712,-6145
19:30:06.893712,-7
19:30:06.893712,-1547
19:30:06.893712,3071
19:30:06.893712,-6
19:30:06.893712,-1506
19:30:06.893712,12031
19:30:06.893712,-6
19:30:06.893712,-1471
19:30:06.893712,21759
19:30:06.893712,-6
19:30:06.893712,-1435
19:30:06.893712,30975
19:30:06.893712,-6
19:30:06.893712,-1399
19:30:07.433721,-1380
19:30:07.433721,-21761
19:30:07.433721,-6
19:30:07.433721,-1359
19:30:07.433721,-16129
19:30:07.433721,-6
19:30:07.433721,-1325
19:30:07.433721,-8193
19:30:07.433721,-6
19:30:07.433721,-1302
19:30:07.433721,-513
19:30:07.433721,-6
19:30:07.433721,-1273
19:30:07.433721,4607
19:30:07.433721,-5
19:30:07.433721,-1254
19:30:07.433721,9471
19:30:07.433721,-5
19:30:07.433721,-1228
19:30:07.433721,19711
19:30:07.433721,-5
19:30:07.433721,-1144
19:30:07.433721,16895
19:30:07.433721,-4
19:30:07.433721,-776
19:30:07.433721,-18689
19:30:07.433721,-4
19:30:07.433721,-1037
19:30:07.433721,-17153
19:30:07.433721,-5
19:30:07.433721,-1071
19:30:07.433721,-14081
19:30:07.433721,-5
19:30:07.433721,-1073
19:30:07.433721,-4865
19:30:07.433721,-5
19:30:07.433721,-1033
19:30:07.433721,-1
19:30:07.433721,-5
19:30:07.433721,-1009
19:30:07.433721,11519
19:30:07.433721,-4
19:30:07.433721,-956
19:30:07.433721,19967
19:30:07.433721,-4
19:30:07.433721,-942
19:30:07.433721,24319
19:30:07.433721,-4
19:30:07.433721,-911
19:30:07.433721,32255
19:30:07.433721,-4
19:30:07.433721,-887
19:30:07.433721,-26625
19:30:07.433721,-4
19:30:07.433721,-852
19:30:07.433721,-15105
19:30:07.433721,-4
19:30:07.433721,-802
19:30:07.433721,767
19:30:07.433721,-3
19:30:07.433721,-716
19:30:07.433721,26879
19:30:07.433721,-3
19:30:07.433721,-633
19:30:07.433721,-25089
19:30:07.433721,-3
19:30:07.433721,-580
19:30:07.433721,-7425
19:30:07.433721,-3
19:30:07.433721,-502
19:30:07.433721,13311
19:30:07.433721,-2
19:30:07.433721,-435
19:30:07.433721,21759
19:30:07.433721,-2
19:30:07.433721,-407
19:30:07.433721,-29185
19:30:07.433721,-2
19:30:07.433721,-342
19:30:07.433721,-13313
19:30:07.433721,-2
19:30:07.433721,-273
19:30:07.433721,767
19:30:07.433721,-1
19:30:07.433721,-230
19:30:07.433721,15359
19:30:07.433721,-1
19:30:07.433721,-173
19:30:07.433721,25087
19:30:07.433721,-1
19:30:07.433721,-138
19:30:07.433721,-29441
19:30:07.433721,-1
19:30:07.433721,-111
19:30:07.433721,-29441
19:30:07.433721,-1
19:30:07.433721,-111
19:30:07.433721,-24577
19:30:07.433721,-1
19:30:07.433721,-85
19:30:07.433721,-17409
19:30:07.433721,-1
19:30:07.433721,-66
19:30:07.433721,-19201
19:30:07.433721,-1
19:30:07.433721,-66
19:30:07.433721,-9985
19:30:07.433721,-1
19:30:07.433721,-38
19:30:07.973502,-45
19:30:07.973502,-11265
19:30:07.973502,-1
19:30:07.973502,-38
19:30:07.973502,-5121
19:30:07.973502,-1
19:30:07.973502,4
19:30:07.973502,1024
19:30:07.973502,0
19:30:07.973502,-7
19:30:07.973502,-2049
19:30:07.973502,-1
19:30:07.973502,-16
19:30:07.973502,-257
19:30:07.973502,-1
19:30:07.973502,-2
19:30:07.973502,-12289
19:30:07.973502,-1
19:30:07.973502,-64
19:30:07.973502,-8193
19:30:07.973502,-1
19:30:07.973502,-33
19:30:07.973502,-9985
19:30:07.973502,-1
19:30:07.973502,-26
19:30:07.973502,-4609
19:30:07.973502,-1
19:30:07.973502,-19
19:30:07.973502,-4609
19:30:07.973502,-1
19:30:07.973502,-21
19:30:07.973502,-3329
19:30:07.973502,-1
19:30:07.973502,-2
19:30:07.973502,-769
19:30:07.973502,-1
19:30:07.973502,-4
19:30:07.973502,255
19:30:07.973502,0
19:30:07.973502,2
19:30:07.973502,2304
19:30:07.973502,0
19:30:07.973502,14
19:30:07.973502,2816
19:30:07.973502,0
19:30:07.973502,7
19:30:07.973502,8960
19:30:07.973502,0
19:30:07.973502,157
19:30:07.973502,23296
19:30:07.973502,1
19:30:07.973502,385
19:30:07.973502,-11520
19:30:07.973502,0
19:30:07.973502,61
19:30:07.973502,12544
19:30:07.973502,0
19:30:07.973502,42
19:30:07.973502,4864
19:30:07.973502,0
19:30:07.973502,23
19:30:07.973502,5376
19:30:07.973502,0
19:30:07.973502,14
19:30:07.973502,6656
19:30:07.973502,0
19:30:07.973502,33
19:30:07.973502,8960
19:30:07.973502,0
19:30:07.973502,35
19:30:07.973502,7680
19:30:07.973502,0
19:30:07.973502,21
19:30:07.973502,5376
19:30:07.973502,0
19:30:07.973502,28
19:30:07.973502,9728
19:30:07.973502,0
19:30:07.973502,40
19:30:07.973502,12544
19:30:07.973502,0
19:30:07.973502,61
19:30:07.973502,19456
19:30:07.973502,0
19:30:07.973502,104
19:30:07.973502,-30208
19:30:07.973502,0
19:30:07.973502,164
19:30:07.973502,-15616
19:30:07.973502,0
19:30:07.973502,228
19:30:07.973502,768
19:30:07.973502,1
19:30:07.973502,285
19:30:07.973502,11008
19:30:07.973502,1
19:30:07.973502,304
19:30:07.973502,13568
19:30:07.973502,1
19:30:07.973502,314
19:30:07.973502,14848
19:30:07.973502,1
19:30:07.973502,321
19:30:07.973502,20992
19:30:07.973502,1
19:30:07.973502,364
19:30:07.973502,-29440
19:30:07.973502,1
19:30:07.973502,421
19:30:08.558974,430
19:30:08.558974,-13568
19:30:08.558974,1
19:30:08.558974,485
19:30:08.558974,-5120
19:30:08.558974,1
19:30:08.558974,516
19:30:08.558974,8960
19:30:08.558974,2
19:30:08.558974,578
19:30:08.558974,28416
19:30:08.558974,2
19:30:08.558974,637
19:30:08.558974,28416
19:30:08.558974,2
19:30:08.558974,645
19:30:08.558974,-24832
19:30:08.558974,2
19:30:08.558974,668
19:30:08.558974,-24832
19:30:08.558974,2
19:30:08.558974,676
19:30:08.558974,-23552
19:30:08.558974,2
19:30:08.558974,680
19:30:08.558974,-19456
19:30:08.558974,2
19:30:08.558974,702
19:30:08.558974,-16384
19:30:08.558974,2
19:30:08.558974,704
19:30:08.558974,-13312
19:30:08.558974,2
19:30:08.558974,745
19:30:08.558974,768
19:30:08.558974,3
19:30:08.558974,795
19:30:08.558974,12288
19:30:08.558974,3
19:30:08.558974,835
19:30:08.558974,22528
19:30:08.558974,3
19:30:08.558974,878
19:30:08.558974,-29440
19:30:08.558974,3
19:30:08.558974,942
19:30:08.558974,-15360
19:30:08.558974,3
19:30:08.558974,1002
19:30:08.558974,6400
19:30:08.558974,4
19:30:08.558974,1066
19:30:08.558974,17408
19:30:08.558974,4
19:30:08.558974,1140
19:30:08.558974,28416
19:30:08.558974,4
19:30:08.558974,1121
19:30:08.558974,32000
19:30:08.558974,4
19:30:08.558974,1173
19:30:08.558974,-26880
19:30:08.558974,4
19:30:08.558974,1185
19:30:08.558974,-23040
19:30:08.558974,4
19:30:08.558974,1197
19:30:08.558974,-17664
19:30:08.558974,4
19:30:08.558974,1209
19:30:08.558974,-20736
19:30:08.558974,4
19:30:08.558974,1180
19:30:08.558974,31488
19:30:08.558974,4
19:30:08.558974,1156
19:30:08.558974,1280
19:30:08.558974,5
19:30:08.558974,1444
19:30:08.558974,-24064
19:30:08.558974,5
19:30:08.558974,1252
19:30:08.558974,19200
19:30:08.558974,4
19:30:08.558974,1083
19:30:08.558974,8960
19:30:08.558974,4
19:30:08.558974,1018
19:30:08.558974,256
19:30:08.558974,4
19:30:08.558974,1014
19:30:08.558974,-16128
19:30:08.558974,3
19:30:08.558974,933
19:30:08.558974,-24064
19:30:08.558974,3
19:30:08.558974,911
19:30:08.558974,-32512
19:30:08.558974,3
19:30:08.558974,902
19:30:08.558974,29440
19:30:08.558974,3
19:30:08.558974,840
19:30:08.558974,12800
19:30:08.558974,3
19:30:08.558974,828
19:30:08.558974,16640
19:30:08.558974,3
19:30:08.558974,816
19:30:09.098671,787
19:30:09.098671,0
19:30:09.098671,3
19:30:09.098671,759
19:30:09.098671,-5376
19:30:09.098671,2
19:30:09.098671,737
19:30:09.098671,-8960
19:30:09.098671,2
19:30:09.098671,728
19:30:09.098671,-13312
19:30:09.098671,2
19:30:09.098671,695
19:30:09.098671,-21760
19:30:09.098671,2
19:30:09.098671,690
19:30:09.098671,31488
19:30:09.098671,2
19:30:09.098671,521
19:30:09.098671,-9216
19:30:09.098671,1
19:30:09.098671,468
19:30:09.098671,-22784
19:30:09.098671,1
19:30:09.098671,390
19:30:09.098671,30720
19:30:09.098671,1
19:30:09.098671,340
19:30:09.098671,13056
19:30:09.098671,1
19:30:09.098671,283
19:30:09.098671,-1024
19:30:09.098671,0
19:30:09.098671,216
19:30:09.098671,-27904
19:30:09.098671,0
19:30:09.098671,52
19:30:09.098671,-7168
19:30:09.098671,-1
19:30:09.098671,-107
19:30:09.098671,18943
19:30:09.098671,-1
19:30:09.098671,-245
19:30:09.098671,-11521
19:30:09.098671,-2
19:30:09.098671,-359
19:30:09.098671,26623
19:30:09.098671,-2
19:30:09.098671,-459
19:30:09.098671,1023
19:30:09.098671,-2
19:30:09.098671,-554
19:30:09.098671,-20225
19:30:09.098671,-3
19:30:09.098671,-633
19:30:09.098671,26879
19:30:09.098671,-3
19:30:09.098671,-687
19:30:09.098671,15359
19:30:09.098671,-3
19:30:09.098671,-740
19:30:09.098671,-4609
19:30:09.098671,-4
19:30:09.098671,-837
19:30:09.098671,-26113
19:30:09.098671,-4
19:30:09.098671,-895
19:30:09.098671,26623
19:30:09.098671,-4
19:30:09.098671,-959
19:30:09.098671,5887
19:30:09.098671,-4
19:30:09.098671,-1030
19:30:09.098671,-3073
19:30:09.098671,-5
19:30:09.098671,-1047
19:30:09.098671,-9217
19:30:09.098671,-5
19:30:09.098671,-1073
19:30:09.098671,-15873
19:30:09.098671,-5
19:30:09.098671,-1102
19:30:09.098671,-25601
19:30:09.098671,-5
19:30:09.098671,-1149
19:30:09.098671,31231
19:30:09.098671,-5
19:30:09.098671,-1164
19:30:09.098671,28927
19:30:09.098671,-5
19:30:09.098671,-1180
19:30:09.098671,20991
19:30:09.098671,-5
19:30:09.098671,-1209
19:30:09.098671,15359
19:30:09.098671,-5
19:30:09.098671,-1244
19:30:09.098671,767
19:30:09.098671,-5
19:30:09.098671,-1316
19:30:09.098671,-15617
19:30:09.098671,-6
19:30:09.098671,-1309
19:30:09.098671,27135
19:30:09.098671,-5
19:30:09.098671,-1023
19:30:09.098671,-8705
19:30:09.098671,-5
19:30:09.098671,-1261
19:30:09.639512,-1354
19:30:09.639512,-12033
19:30:09.639512,-6
19:30:09.639512,-1363
19:30:09.639512,-32001
19:30:09.639512,-6
19:30:09.639512,-1378
19:30:09.639512,-20481
19:30:09.639512,-6
19:30:09.639512,-1378
19:30:09.639512,-23041
19:30:09.639512,-6
19:30:09.639512,-1352
19:30:09.639512,-20481
19:30:09.639512,-6
19:30:09.639512,-1359
19:30:09.639512,-13825
19:30:09.639512,-6
19:30:09.639512,-1328
19:30:09.639512,-7169
19:30:09.639512,-6
19:30:09.639512,-1263
19:30:09.639512,9983
19:30:09.639512,-5
19:30:09.639512,-1225
19:30:09.639512,24063
19:30:09.639512,-5
19:30:09.639512,-1135
19:30:09.639512,-15361
19:30:09.639512,-5
19:30:09.639512,-1028
19:30:09.639512,21247
19:30:09.639512,-4
19:30:09.639512,-845
19:30:09.639512,767
19:30:09.639512,-3
19:30:09.639512,-695
19:30:09.639512,-31745
19:30:09.639512,-3
19:30:09.639512,-602
19:30:09.639512,-14081
19:30:09.639512,-3
19:30:09.639512,-547
19:30:09.639512,-8193
19:30:09.639512,-3
19:30:09.639512,-542
19:30:09.639512,-7425
19:30:09.639512,-3
19:30:09.639512,-557
19:30:09.639512,-9985
19:30:09.639512,-3
19:30:09.639512,-535
19:30:09.639512,-4353
19:30:09.639512,-3
19:30:09.639512,-521
19:30:09.639512,511
19:30:09.639512,-2
19:30:09.639512,-509
19:30:09.639512,2815
19:30:09.639512,-2
19:30:09.639512,-485
19:30:09.639512,9471
19:30:09.639512,-2
19:30:09.639512,-466
19:30:09.639512,15615
19:30:09.639512,-2
19:30:09.639512,-447
19:30:09.639512,18175
19:30:09.639512,-2
19:30:09.639512,-426
19:30:09.639512,25343
19:30:09.639512,-2
19:30:09.639512,-404
19:30:09.639512,32767
19:30:09.639512,-2
19:30:09.639512,-368
19:30:09.639512,-23553
19:30:09.639512,-2
19:30:09.639512,-326
19:30:09.639512,-15617
19:30:09.639512,-2
19:30:09.639512,-314
19:30:09.639512,-12033
19:30:09.639512,-2
19:30:09.639512,-297
19:30:09.639512,-7937
19:30:09.639512,-2
19:30:09.639512,-280
19:30:09.639512,-5377
19:30:09.639512,-2
19:30:09.639512,-273
19:30:09.639512,-2305
19:30:09.639512,-2
19:30:09.639512,-266
19:30:09.639512,-1793
19:30:09.639512,-2
19:30:09.639512,-257
19:30:09.639512,1279
19:30:09.639512,-1
19:30:09.639512,-245
19:30:09.639512,3839
19:30:09.639512,-1
19:30:09.639512,-240
19:30:09.639512,7935
19:30:09.639512,-1
19:30:09.639512,-204
19:30:09.639512,15871
19:30:09.639512,-1
19:30:09.639512,-190
19:30:10.223796,-188
19:30:10.223796,18943
19:30:10.223796,-1
19:30:10.223796,-176
19:30:10.223796,20735
19:30:10.223796,-1
19:30:10.223796,-161
19:30:10.223796,30463
19:30:10.223796,-1
19:30:10.223796,-154
19:30:10.223796,20223
19:30:10.223796,-1
19:30:10.223796,-157
19:30:10.223796,29951
19:30:10.223796,-1
19:30:10.223796,-152
19:30:10.223796,26367
19:30:10.223796,-1
19:30:10.223796,-152
19:30:10.223796,25087
19:30:10.223796,-1
19:30:10.223796,-161
19:30:10.223796,23295
19:30:10.223796,-1
19:30:10.223796,-145
19:30:10.223796,-3329
19:30:10.223796,-1
19:30:10.223796,185
19:30:10.223796,-7168
19:30:10.223796,0
19:30:10.223796,59
19:30:10.223796,-18688
19:30:10.223796,-1
19:30:10.223796,-71
19:30:10.223796,-17921
19:30:10.223796,-1
19:30:10.223796,-90
19:30:10.223796,-16641
19:30:10.223796,-1
19:30:10.223796,-33
19:30:10.223796,-2561
19:30:10.223796,-1
19:30:10.223796,16
19:30:10.223796,17664
19:30:10.223796,0
19:30:10.223796,152
19:30:10.223796,-512
19:30:10.223796,0
19:30:10.223796,335
19:30:10.223796,28672
19:30:10.223796,1
19:30:10.223796,368
19:30:10.223796,29440
19:30:10.223796,1
19:30:10.223796,402
19:30:10.223796,-16640
19:30:10.223796,1
19:30:10.223796,487
19:30:10.223796,5888
19:30:10.223796,2
19:30:10.223796,602
19:30:10.223796,-28672
19:30:10.223796,2
19:30:10.223796,680
19:30:10.223796,-8448
19:30:10.223796,2
19:30:10.223796,849
19:30:10.223796,-29440
19:30:10.223796,3
19:30:10.223796,906
19:30:10.223796,-20992
19:30:10.223796,3
19:30:10.223796,1006
19:30:10.223796,4608
19:30:10.223796,4
19:30:10.223796,1066
19:30:10.223796,17920
19:30:10.223796,4
19:30:10.223796,1104
19:30:10.223796,22272
19:30:10.223796,4
19:30:10.223796,1137
19:30:10.223796,-29696
19:30:10.223796,4
19:30:10.223796,1185
19:30:10.223796,-19456
19:30:10.223796,4
19:30:10.223796,1235
19:30:10.223796,-2304
19:30:10.223796,4
19:30:10.223796,1285
19:30:10.223796,3584
19:30:10.223796,5
19:30:10.223796,1313
19:30:10.223796,10496
19:30:10.223796,5
19:30:10.223796,1309
19:30:10.223796,6144
19:30:10.223796,5
19:30:10.223796,1304
19:30:10.223796,5632
19:30:10.223796,5
19:30:10.223796,1311
19:30:10.223796,12288
