timestamp,ecg
09:46:02.980203,-45
09:46:02.980203,30207
09:46:02.980203,-1
09:46:02.980203,-155
09:46:02.980203,26111
09:46:02.980203,-1
09:46:02.980203,-160
09:46:02.980203,23039
09:46:02.980203,-1
09:46:02.980203,-158
09:46:02.980203,28415
09:46:02.980203,-1
09:46:02.980203,-150
09:46:02.980203,28415
09:46:02.980203,-1
09:46:02.980203,-131
09:46:02.980203,30975
09:46:02.980203,-1
09:46:02.980203,-143
09:46:02.980203,30207
09:46:02.980203,-1
09:46:02.980203,-136
09:46:02.980203,29183
09:46:02.980203,-1
09:46:02.980203,-148
09:46:02.980203,27903
09:46:02.980203,-1
09:46:02.980203,-155
09:46:02.980203,24831
09:46:02.980203,-1
09:46:02.980203,-146
09:46:02.980203,-29185
09:46:02.980203,-1
09:46:02.980203,-83
09:46:02.980203,-21761
09:46:02.980203,-1
09:46:02.980203,-86
09:46:02.980203,-13825
09:46:02.980203,-1
09:46:02.980203,-16
09:46:02.980203,2047
09:46:02.980203,0
09:46:02.980203,14
09:46:02.980203,4864
09:46:02.980203,0
09:46:02.980203,28
09:46:02.980203,7936
09:46:02.980203,0
09:46:02.980203,28
09:46:02.980203,5888
09:46:02.980203,0
09:46:02.980203,26
09:46:02.980203,9728
09:46:02.980203,0
09:46:02.980203,43
09:46:02.980203,8960
09:46:02.980203,0
09:46:02.980203,33
09:46:02.980203,7936
09:46:02.980203,0
09:46:02.980203,26
09:46:02.980203,8448
09:46:02.980203,0
09:46:02.980203,35
09:46:02.980203,7168
09:46:02.980203,0
09:46:02.980203,38
09:46:02.980203,12032
09:46:02.980203,0
09:46:02.980203,45
09:46:02.980203,11520
09:46:02.980203,0
09:46:02.980203,40
09:46:02.980203,7168
09:46:02.980203,0
09:46:02.980203,11
09:46:02.980203,2304
09:46:02.980203,0
09:46:02.980203,35
09:46:02.980203,18176
09:46:02.980203,0
09:46:02.980203,67
09:46:02.980203,10240
09:46:02.980203,0
09:46:02.980203,40
09:46:02.980203,12032
09:46:02.980203,0
09:46:02.980203,31
09:46:02.980203,4096
09:46:02.980203,0
09:46:02.980203,11
09:46:02.980203,1792
09:46:02.980203,0
09:46:02.980203,0
09:46:02.980203,1792
09:46:02.980203,0
09:46:02.980203,19
09:46:02.980203,9728
09:46:02.980203,0
09:46:02.980203,52
09:46:02.980203,8448
09:46:02.980203,0
09:46:02.980203,23
09:46:02.980203,8960
09:46:02.980203,0
09:46:02.980203,31
09:46:02.980203,5888
09:46:02.980203,0
09:46:02.980203,31
09:46:03.530159,26
09:46:03.530159,3584
09:46:03.530159,0
09:46:03.530159,-100
09:46:03.530159,14335
09:46:03.530159,-2
09:46:03.530159,-596
09:46:03.530159,5119
09:46:03.530159,1
09:46:03.530159,1514
09:46:03.530159,14592
09:46:03.530159,6
09:46:03.530159,766
09:46:03.530159,-3072
09:46:03.530159,0
09:46:03.530159,76
09:46:03.530159,-20224
09:46:03.530159,-1
09:46:03.530159,-162
09:46:03.530159,23039
09:46:03.530159,-1
09:46:03.530159,-162
09:46:03.530159,30207
09:46:03.530159,-1
09:46:03.530159,-124
09:46:03.530159,29183
09:46:03.530159,-1
09:46:03.530159,-153
09:46:03.530159,29695
09:46:03.530159,-1
09:46:03.530159,-139
09:46:03.530159,27903
09:46:03.530159,-1
09:46:03.530159,-146
09:46:03.530159,29695
09:46:03.530159,-1
09:46:03.530159,-146
09:46:03.530159,27391
09:46:03.530159,-1
09:46:03.530159,-158
09:46:03.530159,22271
09:46:03.530159,-1
09:46:03.530159,-182
09:46:03.530159,19967
09:46:03.530159,-1
09:46:03.530159,-146
09:46:03.530159,-29185
09:46:03.530159,-1
09:46:03.530159,-124
09:46:03.530159,-29185
09:46:03.530159,-1
09:46:03.530159,-76
09:46:03.530159,-16897
09:46:03.530159,-1
09:46:03.530159,-47
09:46:03.530159,-3841
09:46:03.530159,-1
09:46:03.530159,-16
09:46:03.530159,-10753
09:46:03.530159,-1
09:46:03.530159,-69
09:46:03.530159,-9985
09:46:03.530159,-1
09:46:03.530159,62
09:46:03.530159,23808
09:46:03.530159,0
09:46:03.530159,23
09:46:03.530159,1792
09:46:03.530159,0
09:46:03.530159,31
09:46:03.530159,5376
09:46:03.530159,0
09:46:03.530159,7
09:46:03.530159,1792
09:46:03.530159,0
09:46:03.530159,4
09:46:03.530159,2816
09:46:03.530159,0
09:46:03.530159,11
09:46:03.530159,-2304
09:46:03.530159,-1
09:46:03.530159,-26
09:46:03.530159,-769
09:46:03.530159,-1
09:46:03.530159,28
09:46:03.530159,7168
09:46:03.530159,0
09:46:03.530159,11
09:46:03.530159,1792
09:46:03.530159,0
09:46:03.530159,11
09:46:03.530159,2304
09:46:03.530159,0
09:46:03.530159,9
09:46:03.530159,2816
09:46:03.530159,0
09:46:03.530159,4
09:46:03.530159,0
09:46:03.530159,0
09:46:03.530159,9
09:46:03.530159,2304
09:46:03.530159,0
09:46:03.530159,-7
09:46:03.530159,-4609
09:46:03.530159,-1
09:46:03.530159,-26
09:46:03.530159,-7681
09:46:03.530159,-1
09:46:03.530159,-16
09:46:04.129927,4
09:46:04.129927,5888
09:46:04.129927,0
09:46:04.129927,35
09:46:04.129927,5376
09:46:04.129927,0
09:46:04.129927,0
09:46:04.129927,512
09:46:04.129927,0
09:46:04.129927,19
09:46:04.129927,4864
09:46:04.129927,0
09:46:04.129927,11
09:46:04.129927,3584
09:46:04.129927,0
09:46:04.129927,-26
09:46:04.129927,2815
09:46:04.129927,-1
09:46:04.129927,-577
09:46:04.129927,-23553
09:46:04.129927,-2
09:46:04.129927,742
09:46:04.129927,3584
09:46:04.129927,6
09:46:04.129927,1179
09:46:04.129927,-13312
09:46:04.129927,1
09:46:04.129927,162
09:46:04.129927,7168
09:46:04.129927,0
09:46:04.129927,-110
09:46:04.129927,29183
09:46:04.129927,-1
09:46:04.129927,-129
09:46:04.129927,29695
09:46:04.129927,-1
09:46:04.129927,-150
09:46:04.129927,29695
09:46:04.129927,-1
09:46:04.129927,-139
09:46:04.129927,27903
09:46:04.129927,-1
09:46:04.129927,-146
09:46:04.129927,32767
09:46:04.129927,-1
09:46:04.129927,-119
09:46:04.129927,-31489
09:46:04.129927,-1
09:46:04.129927,-124
09:46:04.129927,-32257
09:46:04.129927,-1
09:46:04.129927,-139
09:46:04.129927,29695
09:46:04.129927,-1
09:46:04.129927,-131
09:46:04.129927,30975
09:46:04.129927,-1
09:46:04.129927,-146
09:46:04.129927,32767
09:46:04.129927,-1
09:46:04.129927,-95
09:46:04.129927,-20993
09:46:04.129927,-1
09:46:04.129927,-81
09:46:04.129927,-14337
09:46:04.129927,-1
09:46:04.129927,-23
09:46:04.129927,-1537
09:46:04.129927,-1
09:46:04.129927,-2
09:46:04.129927,767
09:46:04.129927,0
09:46:04.129927,0
09:46:04.129927,512
09:46:04.129927,0
09:46:04.129927,19
09:46:04.129927,5888
09:46:04.129927,0
09:46:04.129927,19
09:46:04.129927,5888
09:46:04.129927,0
09:46:04.129927,9
09:46:04.129927,1792
09:46:04.129927,0
09:46:04.129927,23
09:46:04.129927,5888
09:46:04.129927,0
09:46:04.129927,14
09:46:04.129927,5376
09:46:04.129927,0
09:46:04.129927,26
09:46:04.129927,5376
09:46:04.129927,0
09:46:04.129927,23
09:46:04.129927,7936
09:46:04.129927,0
09:46:04.129927,28
09:46:04.129927,5376
09:46:04.129927,0
09:46:04.129927,31
09:46:04.129927,11520
09:46:04.129927,0
09:46:04.129927,43
09:46:04.129927,6656
09:46:04.129927,0
09:46:04.129927,28
09:46:04.129927,10240
09:46:04.129927,0
09:46:04.129927,40
09:46:04.679830,35
09:46:04.679830,5888
09:46:04.679830,0
09:46:04.679830,7
09:46:04.679830,-2304
09:46:04.679830,-1
09:46:04.679830,-7
09:46:04.679830,3071
09:46:04.679830,0
09:46:04.679830,28
09:46:04.679830,8960
09:46:04.679830,0
09:46:04.679830,38
09:46:04.679830,7168
09:46:04.679830,0
09:46:04.679830,21
09:46:04.679830,4864
09:46:04.679830,0
09:46:04.679830,21
09:46:04.679830,7936
09:46:04.679830,0
09:46:04.679830,38
09:46:04.679830,7168
09:46:04.679830,0
09:46:04.679830,-31
09:46:04.679830,-2817
09:46:04.679830,-2
09:46:04.679830,-579
09:46:04.679830,1535
09:46:04.679830,-1
09:46:04.679830,925
09:46:04.679830,-30720
09:46:04.679830,6
09:46:04.679830,1203
09:46:04.679830,-18944
09:46:04.679830,1
09:46:04.679830,124
09:46:04.679830,2816
09:46:04.679830,0
09:46:04.679830,-103
09:46:04.679830,27903
09:46:04.679830,-1
09:46:04.679830,-141
09:46:04.679830,27903
09:46:04.679830,-1
09:46:04.679830,-153
09:46:04.679830,28415
09:46:04.679830,-1
09:46:04.679830,-148
09:46:04.679830,26623
09:46:04.679830,-1
09:46:04.679830,-146
09:46:04.679830,27903
09:46:04.679830,-1
09:46:04.679830,-155
09:46:04.679830,28415
09:46:04.679830,-1
09:46:04.679830,-143
09:46:04.679830,24831
09:46:04.679830,-1
09:46:04.679830,-167
09:46:04.679830,24831
09:46:04.679830,-1
09:46:04.679830,-170
09:46:04.679830,20479
09:46:04.679830,-1
09:46:04.679830,-165
09:46:04.679830,27391
09:46:04.679830,-1
09:46:04.679830,-139
09:46:04.679830,-30977
09:46:04.679830,-1
09:46:04.679830,-103
09:46:04.679830,-19969
09:46:04.679830,-1
09:46:04.679830,-55
09:46:04.679830,-9473
09:46:04.679830,-1
09:46:04.679830,-26
09:46:04.679830,-3841
09:46:04.679830,-1
09:46:04.679830,-7
09:46:04.679830,767
09:46:04.679830,0
09:46:04.679830,4
09:46:04.679830,2304
09:46:04.679830,0
09:46:04.679830,14
09:46:04.679830,3584
09:46:04.679830,0
09:46:04.679830,9
09:46:04.679830,1792
09:46:04.679830,0
09:46:04.679830,2
09:46:04.679830,1024
09:46:04.679830,0
09:46:04.679830,7
09:46:04.679830,512
09:46:04.679830,0
09:46:04.679830,4
09:46:04.679830,3584
09:46:04.679830,0
09:46:04.679830,11
09:46:04.679830,2304
09:46:04.679830,0
09:46:04.679830,11
09:46:04.679830,2304
09:46:04.679830,0
09:46:04.679830,14
09:46:05.230208,21
09:46:05.230208,4864
09:46:05.230208,0
09:46:05.230208,11
09:46:05.230208,3584
09:46:05.230208,0
09:46:05.230208,23
09:46:05.230208,5888
09:46:05.230208,0
09:46:05.230208,16
09:46:05.230208,4096
09:46:05.230208,0
09:46:05.230208,14
09:46:05.230208,1792
09:46:05.230208,0
09:46:05.230208,-4
09:46:05.230208,-3841
09:46:05.230208,-1
09:46:05.230208,-26
09:46:05.230208,-4609
09:46:05.230208,-1
09:46:05.230208,4
09:46:05.230208,7936
09:46:05.230208,0
09:46:05.230208,40
09:46:05.230208,8448
09:46:05.230208,0
09:46:05.230208,21
09:46:05.230208,4096
09:46:05.230208,0
09:46:05.230208,19
09:46:05.230208,5888
09:46:05.230208,0
09:46:05.230208,23
09:46:05.230208,4864
09:46:05.230208,0
09:46:05.230208,-23
09:46:05.230208,767
09:46:05.230208,-1
09:46:05.230208,-603
09:46:05.230208,-23041
09:46:05.230208,-2
09:46:05.230208,846
09:46:05.230208,-24576
09:46:05.230208,6
09:46:05.230208,1239
09:46:05.230208,-22528
09:46:05.230208,1
09:46:05.230208,110
09:46:05.230208,-2816
09:46:05.230208,-1
09:46:05.230208,-146
09:46:05.230208,19967
09:46:05.230208,-1
09:46:05.230208,-167
09:46:05.230208,19967
09:46:05.230208,-1
09:46:05.230208,-186
09:46:05.230208,19967
09:46:05.230208,-1
09:46:05.230208,-177
09:46:05.230208,19967
09:46:05.230208,-1
09:46:05.230208,-179
09:46:05.230208,20479
09:46:05.230208,-1
09:46:05.230208,-177
09:46:05.230208,20479
09:46:05.230208,-1
09:46:05.230208,-184
09:46:05.230208,18175
09:46:05.230208,-1
09:46:05.230208,-184
09:46:05.230208,16895
09:46:05.230208,-1
09:46:05.230208,-198
09:46:05.230208,15103
09:46:05.230208,-1
09:46:05.230208,-194
09:46:05.230208,18687
09:46:05.230208,-1
09:46:05.230208,-167
09:46:05.230208,27903
09:46:05.230208,-1
09:46:05.230208,-131
09:46:05.230208,-27905
09:46:05.230208,-1
09:46:05.230208,-81
09:46:05.230208,-14849
09:46:05.230208,-1
09:46:05.230208,-45
09:46:05.230208,-8193
09:46:05.230208,-1
09:46:05.230208,-23
09:46:05.230208,-3329
09:46:05.230208,-1
09:46:05.230208,-4
09:46:05.230208,767
09:46:05.230208,0
09:46:05.230208,2
09:46:05.230208,512
09:46:05.230208,0
09:46:05.230208,4
09:46:05.230208,1024
09:46:05.230208,0
09:46:05.230208,2
09:46:05.230208,1024
09:46:05.230208,0
09:46:05.230208,14
09:46:05.730164,11
09:46:05.730164,1792
09:46:05.730164,0
09:46:05.730164,11
09:46:05.730164,4096
09:46:05.730164,0
09:46:05.730164,14
09:46:05.730164,4096
09:46:05.730164,0
09:46:05.730164,14
09:46:05.730164,2816
09:46:05.730164,0
09:46:05.730164,16
09:46:05.730164,5376
09:46:05.730164,0
09:46:05.730164,21
09:46:05.730164,4096
09:46:05.730164,0
09:46:05.730164,16
09:46:05.730164,5888
09:46:05.730164,0
09:46:05.730164,21
09:46:05.730164,5376
09:46:05.730164,0
09:46:05.730164,31
09:46:05.730164,4864
09:46:05.730164,0
09:46:05.730164,-7
09:46:05.730164,-6401
09:46:05.730164,-1
09:46:05.730164,-26
09:46:05.730164,2559
09:46:05.730164,0
09:46:05.730164,47
09:46:05.730164,8448
09:46:05.730164,0
09:46:05.730164,9
09:46:05.730164,4864
09:46:05.730164,0
09:46:05.730164,26
09:46:05.730164,7168
09:46:05.730164,0
09:46:05.730164,33
09:46:05.730164,6656
09:46:05.730164,0
09:46:05.730164,26
09:46:05.730164,1024
09:46:05.730164,0
09:46:05.730164,-184
09:46:05.730164,-4865
09:46:05.730164,-3
09:46:05.730164,-445
09:46:05.730164,7679
09:46:05.730164,2
09:46:05.730164,1481
09:46:05.730164,-6912
09:46:05.730164,4
09:46:05.730164,505
09:46:05.730164,-24064
09:46:05.730164,0
09:46:05.730164,45
09:46:05.730164,-26880
09:46:05.730164,-1
09:46:05.730164,-165
09:46:05.730164,26111
09:46:05.730164,-1
09:46:05.730164,-167
09:46:05.730164,21247
09:46:05.730164,-1
09:46:05.730164,-162
09:46:05.730164,23551
09:46:05.730164,-1
09:46:05.730164,-170
09:46:05.730164,23551
09:46:05.730164,-1
09:46:05.730164,-165
09:46:05.730164,21247
09:46:05.730164,-1
09:46:05.730164,-179
09:46:05.730164,18175
09:46:05.730164,-1
09:46:05.730164,-191
09:46:05.730164,19199
09:46:05.730164,-1
09:46:05.730164,-162
09:46:05.730164,27903
09:46:05.730164,-1
09:46:05.730164,-160
09:46:05.730164,20479
09:46:05.730164,-1
09:46:05.730164,-174
09:46:05.730164,23039
09:46:05.730164,-1
09:46:05.730164,-141
09:46:05.730164,-26625
09:46:05.730164,-1
09:46:05.730164,-81
09:46:05.730164,-17409
09:46:05.730164,-1
09:46:05.730164,-62
09:46:05.730164,-12545
09:46:05.730164,-1
09:46:05.730164,-45
09:46:05.730164,-9985
09:46:05.730164,-1
09:46:05.730164,-21
09:46:05.730164,-3841
09:46:05.730164,-1
09:46:05.730164,-14
09:46:06.330525,2
09:46:06.330525,-3584
09:46:06.330525,-1
09:46:06.330525,-33
09:46:06.330525,-5121
09:46:06.330525,-1
09:46:06.330525,-4
09:46:06.330525,-1537
09:46:06.330525,-1
09:46:06.330525,-11
09:46:06.330525,-2561
09:46:06.330525,-1
09:46:06.330525,-14
09:46:06.330525,-2049
09:46:06.330525,-1
09:46:06.330525,2
09:46:06.330525,-2816
09:46:06.330525,-1
09:46:06.330525,-14
09:46:06.330525,5631
09:46:06.330525,0
09:46:06.330525,21
09:46:06.330525,-512
09:46:06.330525,-1
09:46:06.330525,2
09:46:06.330525,1024
09:46:06.330525,0
09:46:06.330525,-14
09:46:06.330525,-4609
09:46:06.330525,-1
09:46:06.330525,-28
09:46:06.330525,-9985
09:46:06.330525,-1
09:46:06.330525,-14
09:46:06.330525,767
09:46:06.330525,0
09:46:06.330525,-31
09:46:06.330525,-3841
09:46:06.330525,-1
09:46:06.330525,45
09:46:06.330525,10240
09:46:06.330525,0
09:46:06.330525,-2
09:46:06.330525,-6913
09:46:06.330525,-1
09:46:06.330525,-31
09:46:06.330525,5631
09:46:06.330525,0
09:46:06.330525,52
09:46:06.330525,2304
09:46:06.330525,0
09:46:06.330525,2
09:46:06.330525,-5888
09:46:06.330525,-1
09:46:06.330525,-289
09:46:06.330525,-23041
09:46:06.330525,-3
09:46:06.330525,-246
09:46:06.330525,5887
09:46:06.330525,3
09:46:06.330525,1282
09:46:06.330525,2048
09:46:06.330525,3
09:46:06.330525,280
09:46:06.330525,-15360
09:46:06.330525,0
09:46:06.330525,67
09:46:06.330525,-28672
09:46:06.330525,-1
09:46:06.330525,-146
09:46:06.330525,-31489
09:46:06.330525,-1
09:46:06.330525,-134
09:46:06.330525,26623
09:46:06.330525,-1
09:46:06.330525,-153
09:46:06.330525,27903
09:46:06.330525,-1
09:46:06.330525,-153
09:46:06.330525,26111
09:46:06.330525,-1
09:46:06.330525,-148
09:46:06.330525,31487
09:46:06.330525,-1
09:46:06.330525,-131
09:46:06.330525,29183
09:46:06.330525,-1
09:46:06.330525,-148
09:46:06.330525,-31489
09:46:06.330525,-1
09:46:06.330525,-115
09:46:06.330525,32255
09:46:06.330525,-1
09:46:06.330525,-131
09:46:06.330525,-25345
09:46:06.330525,-1
09:46:06.330525,-100
09:46:06.330525,-29697
09:46:06.330525,-1
09:46:06.330525,-105
09:46:06.330525,-16129
09:46:06.330525,-1
09:46:06.330525,-28
09:46:06.330525,-3841
09:46:06.330525,-1
09:46:06.330525,-11
09:46:06.330525,-5121
09:46:06.330525,-1
09:46:06.330525,-28
09:46:06.928810,-23
09:46:06.928810,-5633
09:46:06.928810,-1
09:46:06.928810,-33
09:46:06.928810,-10753
09:46:06.928810,-1
09:46:06.928810,-40
09:46:06.928810,-5121
09:46:06.928810,-1
09:46:06.928810,-7
09:46:06.928810,-1537
09:46:06.928810,-1
09:46:06.928810,-19
09:46:06.928810,-6913
09:46:06.928810,-1
09:46:06.928810,-7
09:46:06.928810,2559
09:46:06.928810,0
09:46:06.928810,2
09:46:06.928810,-1024
09:46:06.928810,-1
09:46:06.928810,-9
09:46:06.928810,5119
09:46:06.928810,0
09:46:06.928810,38
09:46:06.928810,0
09:46:06.928810,0
09:46:06.928810,-4
09:46:06.928810,7423
09:46:06.928810,0
09:46:06.928810,4
09:46:06.928810,-3584
09:46:06.928810,-1
09:46:06.928810,9
09:46:06.928810,-2816
09:46:06.928810,-1
09:46:06.928810,-55
09:46:06.928810,-13825
09:46:06.928810,-1
09:46:06.928810,-23
09:46:06.928810,2559
09:46:06.928810,0
09:46:06.928810,9
09:46:06.928810,-1024
09:46:06.928810,-1
09:46:06.928810,2
09:46:06.928810,2816
09:46:06.928810,0
09:46:06.928810,0
09:46:06.928810,-1024
09:46:06.928810,-1
09:46:06.928810,7
09:46:06.928810,2304
09:46:06.928810,0
09:46:06.928810,-4
09:46:06.928810,-3841
09:46:06.928810,-1
09:46:06.928810,-47
09:46:06.928810,-5889
09:46:06.928810,-2
09:46:06.928810,-623
09:46:06.928810,-2817
09:46:06.928810,-2
09:46:06.928810,941
09:46:06.928810,12800
09:46:06.928810,6
09:46:06.928810,1004
09:46:06.928810,16640
09:46:06.928810,1
09:46:06.928810,143
09:46:06.928810,2816
09:46:06.928810,0
09:46:06.928810,-160
09:46:06.928810,21247
09:46:06.928810,-1
09:46:06.928810,-146
09:46:06.928810,21247
09:46:06.928810,-1
09:46:06.928810,-182
09:46:06.928810,23551
09:46:06.928810,-1
09:46:06.928810,-182
09:46:06.928810,13055
09:46:06.928810,-1
09:46:06.928810,-182
09:46:06.928810,27391
09:46:06.928810,-1
09:46:06.928810,-150
09:46:06.928810,26111
09:46:06.928810,-1
09:46:06.928810,-165
09:46:06.928810,18175
09:46:06.928810,-1
09:46:06.928810,-206
09:46:06.928810,13823
09:46:06.928810,-1
09:46:06.928810,-177
09:46:06.928810,21247
09:46:06.928810,-1
09:46:06.928810,-194
09:46:06.928810,18687
09:46:06.928810,-1
09:46:06.928810,-160
09:46:06.928810,27903
09:46:06.928810,-1
09:46:06.928810,-129
09:46:06.928810,-26625
09:46:06.928810,-1
09:46:06.928810,-88
09:46:07.430934,-69
09:46:07.430934,-13057
09:46:07.430934,-1
09:46:07.430934,-40
09:46:07.430934,-6401
09:46:07.430934,-1
09:46:07.430934,-14
09:46:07.430934,-2049
09:46:07.430934,-1
09:46:07.430934,-4
09:46:07.430934,767
09:46:07.430934,0
09:46:07.430934,4
09:46:07.430934,1792
09:46:07.430934,0
09:46:07.430934,7
09:46:07.430934,512
09:46:07.430934,0
09:46:07.430934,-4
09:46:07.430934,-257
09:46:07.430934,-1
09:46:07.430934,4
09:46:07.430934,1792
09:46:07.430934,0
09:46:07.430934,9
09:46:07.430934,4096
09:46:07.430934,0
09:46:07.430934,19
09:46:07.430934,3584
09:46:07.430934,0
09:46:07.430934,9
09:46:07.430934,2816
09:46:07.430934,0
09:46:07.430934,14
09:46:07.430934,3584
09:46:07.430934,0
09:46:07.430934,7
09:46:07.430934,-1024
09:46:07.430934,-1
09:46:07.430934,-21
09:46:07.430934,-8193
09:46:07.430934,-1
09:46:07.430934,-21
09:46:07.430934,2559
09:46:07.430934,0
09:46:07.430934,31
09:46:07.430934,7168
09:46:07.430934,0
09:46:07.430934,11
09:46:07.430934,2304
09:46:07.430934,0
09:46:07.430934,11
09:46:07.430934,2304
09:46:07.430934,0
09:46:07.430934,14
09:46:07.430934,4096
09:46:07.430934,0
09:46:07.430934,11
09:46:07.430934,-2304
09:46:07.430934,-1
09:46:07.430934,-184
09:46:07.430934,-4097
09:46:07.430934,-3
09:46:07.430934,-436
09:46:07.430934,22527
09:46:07.430934,2
09:46:07.430934,1557
09:46:07.430934,-256
09:46:07.430934,4
09:46:07.430934,488
09:46:07.430934,-28160
09:46:07.430934,0
09:46:07.430934,23
09:46:07.430934,-31232
09:46:07.430934,-1
09:46:07.430934,-167
09:46:07.430934,26111
09:46:07.430934,-1
09:46:07.430934,-167
09:46:07.430934,21247
09:46:07.430934,-1
09:46:07.430934,-167
09:46:07.430934,22271
09:46:07.430934,-1
09:46:07.430934,-174
09:46:07.430934,21247
09:46:07.430934,-1
09:46:07.430934,-170
09:46:07.430934,22271
09:46:07.430934,-1
09:46:07.430934,-174
09:46:07.430934,19967
09:46:07.430934,-1
09:46:07.430934,-179
09:46:07.430934,19967
09:46:07.430934,-1
09:46:07.430934,-189
09:46:07.430934,15615
09:46:07.430934,-1
09:46:07.430934,-196
09:46:07.430934,16127
09:46:07.430934,-1
09:46:07.430934,-182
09:46:07.430934,23551
09:46:07.430934,-1
09:46:07.430934,-148
09:46:07.430934,31487
09:46:07.430934,-1
09:46:07.430934,-112
09:46:07.979497,-91
09:46:07.979497,-19201
09:46:07.979497,-1
09:46:07.979497,-62
09:46:07.979497,-11265
09:46:07.979497,-1
09:46:07.979497,-31
09:46:07.979497,-5121
09:46:07.979497,-1
09:46:07.979497,-14
09:46:07.979497,-2049
09:46:07.979497,-1
09:46:07.979497,-9
09:46:07.979497,-257
09:46:07.979497,-1
09:46:07.979497,7
09:46:07.979497,512
09:46:07.979497,0
09:46:07.979497,0
09:46:07.979497,1792
09:46:07.979497,0
09:46:07.979497,7
09:46:07.979497,1024
09:46:07.979497,0
09:46:07.979497,7
09:46:07.979497,2304
09:46:07.979497,0
09:46:07.979497,11
09:46:07.979497,2816
09:46:07.979497,0
09:46:07.979497,11
09:46:07.979497,2304
09:46:07.979497,0
09:46:07.979497,9
09:46:07.979497,1792
09:46:07.979497,0
09:46:07.979497,-4
09:46:07.979497,-4609
09:46:07.979497,-1
09:46:07.979497,-28
09:46:07.979497,-4609
09:46:07.979497,-1
09:46:07.979497,11
09:46:07.979497,11008
09:46:07.979497,0
09:46:07.979497,43
09:46:07.979497,7168
09:46:07.979497,0
09:46:07.979497,21
09:46:07.979497,5376
09:46:07.979497,0
09:46:07.979497,26
09:46:07.979497,7936
09:46:07.979497,0
09:46:07.979497,35
09:46:07.979497,7936
09:46:07.979497,0
09:46:07.979497,4
09:46:07.979497,25088
09:46:07.979497,-1
09:46:07.979497,-484
09:46:07.979497,17919
09:46:07.979497,-2
09:46:07.979497,417
09:46:07.979497,-21760
09:46:07.979497,4
09:46:07.979497,968
09:46:07.979497,-15360
09:46:07.979497,1
09:46:07.979497,294
09:46:07.979497,30464
09:46:07.979497,0
09:46:07.979497,-86
09:46:07.979497,-26625
09:46:07.979497,-1
09:46:07.979497,-98
09:46:07.979497,30207
09:46:07.979497,-1
09:46:07.979497,-136
09:46:07.979497,-30977
09:46:07.979497,-1
09:46:07.979497,-129
09:46:07.979497,31487
09:46:07.979497,-1
09:46:07.979497,-127
09:46:07.979497,32767
09:46:07.979497,-1
09:46:07.979497,-129
09:46:07.979497,-31489
09:46:07.979497,-1
09:46:07.979497,-127
09:46:07.979497,32255
09:46:07.979497,-1
09:46:07.979497,-129
09:46:07.979497,-32257
09:46:07.979497,-1
09:46:07.979497,-131
09:46:07.979497,32255
09:46:07.979497,-1
09:46:07.979497,-124
09:46:07.979497,-28417
09:46:07.979497,-1
09:46:07.979497,-103
09:46:07.979497,-22273
09:46:07.979497,-1
09:46:07.979497,-69
09:46:07.979497,-13825
09:46:07.979497,-1
09:46:07.979497,-45
09:46:08.677435,-38
09:46:08.677435,-9985
09:46:08.677435,-1
09:46:08.677435,-38
09:46:08.677435,-7681
09:46:08.677435,-1
09:46:08.677435,-23
09:46:08.677435,-4609
09:46:08.677435,-1
09:46:08.677435,-16
09:46:08.677435,-2561
09:46:08.677435,-1
09:46:08.677435,-2
09:46:08.677435,255
09:46:08.677435,0
09:46:08.677435,-4
09:46:08.677435,-257
09:46:08.677435,-1
09:46:08.677435,2
09:46:08.677435,512
09:46:08.677435,0
09:46:08.677435,4
09:46:08.677435,1024
09:46:08.677435,0
09:46:08.677435,4
09:46:08.677435,1792
09:46:08.677435,0
09:46:08.677435,9
09:46:08.677435,1792
09:46:08.677435,0
09:46:08.677435,4
09:46:08.677435,0
09:46:08.677435,0
09:46:08.677435,-4
09:46:08.677435,-2561
09:46:08.677435,-1
09:46:08.677435,-23
09:46:08.677435,-6913
09:46:08.677435,-1
09:46:08.677435,-14
09:46:08.677435,4351
09:46:08.677435,0
09:46:08.677435,40
09:46:08.677435,10240
09:46:08.677435,0
09:46:08.677435,28
09:46:08.677435,4864
09:46:08.677435,0
09:46:08.677435,23
09:46:08.677435,7936
09:46:08.677435,0
09:46:08.677435,35
09:46:08.677435,7936
09:46:08.677435,0
09:46:08.677435,28
09:46:08.677435,-1792
09:46:08.677435,-1
09:46:08.677435,-227
09:46:08.677435,-16897
09:46:08.677435,-3
09:46:08.677435,-361
09:46:08.677435,-6401
09:46:08.677435,2
09:46:08.677435,1512
09:46:08.677435,19456
09:46:08.677435,4
09:46:08.677435,445
09:46:08.677435,-17152
09:46:08.677435,0
09:46:08.677435,11
09:46:08.677435,-31744
09:46:08.677435,-1
09:46:08.677435,-134
09:46:08.677435,30207
09:46:08.677435,-1
09:46:08.677435,-162
09:46:08.677435,26111
09:46:08.677435,-1
09:46:08.677435,-150
09:46:08.677435,26111
09:46:08.677435,-1
09:46:08.677435,-153
09:46:08.677435,26623
09:46:08.677435,-1
09:46:08.677435,-158
09:46:08.677435,24831
09:46:08.677435,-1
09:46:08.677435,-160
09:46:08.677435,23551
09:46:08.677435,-1
09:46:08.677435,-172
09:46:08.677435,20479
09:46:08.677435,-1
09:46:08.677435,-184
09:46:08.677435,16895
09:46:08.677435,-1
09:46:08.677435,-191
09:46:08.677435,18175
09:46:08.677435,-1
09:46:08.677435,-177
09:46:08.677435,24319
09:46:08.677435,-1
09:46:08.677435,-143
09:46:08.677435,-31489
09:46:08.677435,-1
09:46:08.677435,-103
09:46:08.677435,-20481
09:46:08.677435,-1
09:46:08.677435,-64
09:46:09.080102,-47
09:46:09.080102,-7681
09:46:09.080102,-1
09:46:09.080102,-16
09:46:09.080102,-2049
09:46:09.080102,-1
09:46:09.080102,-2
09:46:09.080102,767
09:46:09.080102,0
09:46:09.080102,7
09:46:09.080102,2304
09:46:09.080102,0
09:46:09.080102,7
09:46:09.080102,1024
09:46:09.080102,0
09:46:09.080102,7
09:46:09.080102,1024
09:46:09.080102,0
09:46:09.080102,2
09:46:09.080102,1024
09:46:09.080102,0
09:46:09.080102,4
09:46:09.080102,512
09:46:09.080102,0
09:46:09.080102,4
09:46:09.080102,1024
09:46:09.080102,0
09:46:09.080102,7
09:46:09.080102,2304
09:46:09.080102,0
09:46:09.080102,9
09:46:09.080102,512
09:46:09.080102,0
09:46:09.080102,-4
09:46:09.080102,-3841
09:46:09.080102,-1
09:46:09.080102,-21
09:46:09.080102,255
09:46:09.080102,0
09:46:09.080102,38
09:46:09.080102,13312
09:46:09.080102,0
09:46:09.080102,40
09:46:09.080102,7168
09:46:09.080102,0
09:46:09.080102,31
09:46:09.080102,8448
09:46:09.080102,0
09:46:09.080102,40
09:46:09.080102,11008
09:46:09.080102,0
09:46:09.080102,40
09:46:09.080102,8448
09:46:09.080102,0
09:46:09.080102,-33
09:46:09.080102,-14337
09:46:09.080102,-2
09:46:09.080102,-618
09:46:09.080102,-29697
09:46:09.080102,-1
09:46:09.080102,1167
09:46:09.080102,-25088
09:46:09.080102,6
09:46:09.080102,1001
09:46:09.080102,15360
09:46:09.080102,1
09:46:09.080102,103
09:46:09.080102,-9728
09:46:09.080102,-1
09:46:09.080102,-148
09:46:09.080102,26623
09:46:09.080102,-1
09:46:09.080102,-148
09:46:09.080102,24319
09:46:09.080102,-1
09:46:09.080102,-160
09:46:09.080102,25343
09:46:09.080102,-1
09:46:09.080102,-160
09:46:09.080102,24319
09:46:09.080102,-1
09:46:09.080102,-162
09:46:09.080102,23039
09:46:09.080102,-1
09:46:09.080102,-174
09:46:09.080102,20479
09:46:09.080102,-1
09:46:09.080102,-184
09:46:09.080102,16895
09:46:09.080102,-1
09:46:09.080102,-201
09:46:09.080102,12543
09:46:09.080102,-1
09:46:09.080102,-215
09:46:09.080102,10751
09:46:09.080102,-1
09:46:09.080102,-206
09:46:09.080102,16895
09:46:09.080102,-1
09:46:09.080102,-184
09:46:09.080102,19199
09:46:09.080102,-1
09:46:09.080102,-162
09:46:09.080102,-30977
09:46:09.080102,-1
09:46:09.080102,-88
09:46:09.080102,-17409
09:46:09.080102,-1
09:46:09.080102,-47
09:46:09.680546,-23
09:46:09.680546,-2049
09:46:09.680546,-1
09:46:09.680546,-2
09:46:09.680546,2559
09:46:09.680546,0
09:46:09.680546,16
09:46:09.680546,6656
09:46:09.680546,0
09:46:09.680546,33
09:46:09.680546,7168
09:46:09.680546,0
09:46:09.680546,23
09:46:09.680546,5888
09:46:09.680546,0
09:46:09.680546,21
09:46:09.680546,4864
09:46:09.680546,0
09:46:09.680546,16
09:46:09.680546,4096
09:46:09.680546,0
09:46:09.680546,19
09:46:09.680546,5376
09:46:09.680546,0
09:46:09.680546,16
09:46:09.680546,4096
09:46:09.680546,0
09:46:09.680546,21
09:46:09.680546,5376
09:46:09.680546,0
09:46:09.680546,19
09:46:09.680546,4864
09:46:09.680546,0
09:46:09.680546,11
09:46:09.680546,1024
09:46:09.680546,0
09:46:09.680546,-2
09:46:09.680546,-3329
09:46:09.680546,-1
09:46:09.680546,-14
09:46:09.680546,1279
09:46:09.680546,0
09:46:09.680546,28
09:46:09.680546,8960
09:46:09.680546,0
09:46:09.680546,23
09:46:09.680546,3584
09:46:09.680546,0
09:46:09.680546,19
09:46:09.680546,5376
09:46:09.680546,0
09:46:09.680546,23
09:46:09.680546,5888
09:46:09.680546,0
09:46:09.680546,26
09:46:09.680546,5888
09:46:09.680546,0
09:46:09.680546,-50
09:46:09.680546,-21761
09:46:09.680546,-2
09:46:09.680546,-618
09:46:09.680546,-16129
09:46:09.680546,-1
09:46:09.680546,1179
09:46:09.680546,20224
09:46:09.680546,6
09:46:09.680546,925
09:46:09.680546,9216
09:46:09.680546,1
09:46:09.680546,91
09:46:09.680546,-14080
09:46:09.680546,-1
09:46:09.680546,-155
09:46:09.680546,25343
09:46:09.680546,-1
09:46:09.680546,-158
09:46:09.680546,21759
09:46:09.680546,-1
09:46:09.680546,-170
09:46:09.680546,23039
09:46:09.680546,-1
09:46:09.680546,-170
09:46:09.680546,22271
09:46:09.680546,-1
09:46:09.680546,-170
09:46:09.680546,22271
09:46:09.680546,-1
09:46:09.680546,-172
09:46:09.680546,20479
09:46:09.680546,-1
09:46:09.680546,-182
09:46:09.680546,17407
09:46:09.680546,-1
09:46:09.680546,-196
09:46:09.680546,15103
09:46:09.680546,-1
09:46:09.680546,-201
09:46:09.680546,14335
09:46:09.680546,-1
09:46:09.680546,-198
09:46:09.680546,19199
09:46:09.680546,-1
09:46:09.680546,-160
09:46:09.680546,29695
09:46:09.680546,-1
09:46:09.680546,-124
09:46:09.680546,-26625
09:46:09.680546,-1
09:46:09.680546,-83
09:46:10.229705,-69
09:46:10.229705,-13825
09:46:10.229705,-1
09:46:10.229705,-38
09:46:10.229705,-5121
09:46:10.229705,-1
09:46:10.229705,-14
09:46:10.229705,-2049
09:46:10.229705,-1
09:46:10.229705,-2
09:46:10.229705,767
09:46:10.229705,0
09:46:10.229705,2
09:46:10.229705,512
09:46:10.229705,0
09:46:10.229705,9
09:46:10.229705,3584
09:46:10.229705,0
09:46:10.229705,9
09:46:10.229705,1792
09:46:10.229705,0
09:46:10.229705,9
09:46:10.229705,2304
09:46:10.229705,0
09:46:10.229705,4
09:46:10.229705,512
09:46:10.229705,0
09:46:10.229705,7
09:46:10.229705,1792
09:46:10.229705,0
09:46:10.229705,7
09:46:10.229705,1792
09:46:10.229705,0
09:46:10.229705,7
09:46:10.229705,2304
09:46:10.229705,0
09:46:10.229705,11
09:46:10.229705,2816
09:46:10.229705,0
09:46:10.229705,11
09:46:10.229705,4096
09:46:10.229705,0
09:46:10.229705,16
09:46:10.229705,4096
09:46:10.229705,0
09:46:10.229705,11
09:46:10.229705,2304
09:46:10.229705,0
09:46:10.229705,11
09:46:10.229705,1792
09:46:10.229705,0
09:46:10.229705,-2
09:46:10.229705,-2049
09:46:10.229705,-1
09:46:10.229705,-14
09:46:10.229705,-4609
09:46:10.229705,-1
09:46:10.229705,-7
09:46:10.229705,4351
09:46:10.229705,0
09:46:10.229705,28
09:46:10.229705,4864
09:46:10.229705,0
09:46:10.229705,7
09:46:10.229705,1792
09:46:10.229705,0
09:46:10.229705,11
09:46:10.229705,3584
09:46:10.229705,0
09:46:10.229705,16
09:46:10.229705,4096
09:46:10.229705,0
09:46:10.229705,11
09:46:10.229705,-14592
09:46:10.229705,-1
09:46:10.229705,-335
09:46:10.229705,-30465
09:46:10.229705,-3
09:46:10.229705,-179
09:46:10.229705,-14081
09:46:10.229705,3
09:46:10.229705,1442
09:46:10.229705,-32768
09:46:10.229705,3
09:46:10.229705,352
09:46:10.229705,-28160
09:46:10.229705,0
09:46:10.229705,-28
09:46:10.229705,31487
09:46:10.229705,-1
09:46:10.229705,-136
09:46:10.229705,27391
09:46:10.229705,-1
09:46:10.229705,-165
09:46:10.229705,25343
09:46:10.229705,-1
09:46:10.229705,-158
09:46:10.229705,24319
09:46:10.229705,-1
09:46:10.229705,-160
09:46:10.229705,25343
09:46:10.229705,-1
09:46:10.229705,-158
09:46:10.229705,24831
09:46:10.229705,-1
09:46:10.229705,-160
09:46:10.229705,24831
09:46:10.229705,-1
09:46:10.229705,-162
09:46:10.780292,-165
09:46:10.780292,22271
09:46:10.780292,-1
09:46:10.780292,-170
09:46:10.780292,22271
09:46:10.780292,-1
09:46:10.780292,-172
09:46:10.780292,23039
09:46:10.780292,-1
09:46:10.780292,-162
09:46:10.780292,27391
09:46:10.780292,-1
09:46:10.780292,-127
09:46:10.780292,-24833
09:46:10.780292,-1
09:46:10.780292,-79
09:46:10.780292,-16129
09:46:10.780292,-1
09:46:10.780292,-52
09:46:10.780292,-9473
09:46:10.780292,-1
09:46:10.780292,-33
09:46:10.780292,-7681
09:46:10.780292,-1
09:46:10.780292,-21
09:46:10.780292,-2049
09:46:10.780292,-1
09:46:10.780292,-2
09:46:10.780292,767
09:46:10.780292,0
09:46:10.780292,0
09:46:10.780292,-512
09:46:10.780292,-1
09:46:10.780292,-2
09:46:10.780292,-769
09:46:10.780292,-1
09:46:10.780292,-2
09:46:10.780292,255
09:46:10.780292,0
09:46:10.780292,0
09:46:10.780292,-512
09:46:10.780292,-1
09:46:10.780292,2
09:46:10.780292,512
09:46:10.780292,0
09:46:10.780292,0
09:46:10.780292,512
09:46:10.780292,0
09:46:10.780292,0
09:46:10.780292,-3584
09:46:10.780292,-1
09:46:10.780292,-28
09:46:10.780292,-6401
09:46:10.780292,-1
09:46:10.780292,-19
09:46:10.780292,-3329
09:46:10.780292,-1
09:46:10.780292,-7
09:46:10.780292,-769
09:46:10.780292,-1
09:46:10.780292,-19
09:46:10.780292,-7681
09:46:10.780292,-1
09:46:10.780292,-38
09:46:10.780292,-11265
09:46:10.780292,-1
09:46:10.780292,-47
09:46:10.780292,-8705
09:46:10.780292,-1
09:46:10.780292,-9
09:46:10.780292,1279
09:46:10.780292,0
09:46:10.780292,0
09:46:10.780292,-1792
09:46:10.780292,-1
09:46:10.780292,-4
09:46:10.780292,767
09:46:10.780292,0
09:46:10.780292,4
09:46:10.780292,1792
09:46:10.780292,0
09:46:10.780292,9
09:46:10.780292,1792
09:46:10.780292,0
09:46:10.780292,-45
09:46:10.780292,-10241
09:46:10.780292,-2
09:46:10.780292,-623
09:46:10.780292,-12545
09:46:10.780292,-2
09:46:10.780292,754
09:46:10.780292,8448
09:46:10.780292,5
09:46:10.780292,872
09:46:10.780292,-30464
09:46:10.780292,1
09:46:10.780292,220
09:46:10.780292,4096
09:46:10.780292,0
09:46:10.780292,-119
09:46:10.780292,-29185
09:46:10.780292,-1
09:46:10.780292,-129
09:46:10.780292,25343
09:46:10.780292,-1
09:46:10.780292,-146
09:46:10.780292,29695
09:46:10.780292,-1
09:46:10.780292,-150
09:46:11.330177,-146
09:46:11.330177,30207
09:46:11.330177,-1
09:46:11.330177,-141
09:46:11.330177,29183
09:46:11.330177,-1
09:46:11.330177,-141
09:46:11.330177,28415
09:46:11.330177,-1
09:46:11.330177,-148
09:46:11.330177,29695
09:46:11.330177,-1
09:46:11.330177,-134
09:46:11.330177,30207
09:46:11.330177,-1
09:46:11.330177,-139
09:46:11.330177,32255
09:46:11.330177,-1
09:46:11.330177,-122
09:46:11.330177,-27137
09:46:11.330177,-1
09:46:11.330177,-91
09:46:11.330177,-17921
09:46:11.330177,-1
09:46:11.330177,-57
09:46:11.330177,-10753
09:46:11.330177,-1
09:46:11.330177,-35
09:46:11.330177,-8193
09:46:11.330177,-1
09:46:11.330177,-28
09:46:11.330177,-4609
09:46:11.330177,-1
09:46:11.330177,-11
09:46:11.330177,-1537
09:46:11.330177,-1
09:46:11.330177,-7
09:46:11.330177,-1537
09:46:11.330177,-1
09:46:11.330177,-4
09:46:11.330177,-1537
09:46:11.330177,-1
09:46:11.330177,-9
09:46:11.330177,-2049
09:46:11.330177,-1
09:46:11.330177,-4
09:46:11.330177,-769
09:46:11.330177,-1
09:46:11.330177,-7
09:46:11.330177,-1537
09:46:11.330177,-1
09:46:11.330177,-2
09:46:11.330177,-257
09:46:11.330177,-1
09:46:11.330177,0
09:46:11.330177,0
09:46:11.330177,0
09:46:11.330177,0
09:46:11.330177,0
09:46:11.330177,0
09:46:11.330177,2
09:46:11.330177,1792
09:46:11.330177,0
09:46:11.330177,9
09:46:11.330177,1792
09:46:11.330177,0
09:46:11.330177,7
09:46:11.330177,1792
09:46:11.330177,0
09:46:11.330177,9
09:46:11.330177,1792
09:46:11.330177,0
09:46:11.330177,0
09:46:11.330177,-2304
09:46:11.330177,-1
09:46:11.330177,-19
09:46:11.330177,-6401
09:46:11.330177,-1
09:46:11.330177,-21
09:46:11.330177,255
09:46:11.330177,0
09:46:11.330177,26
09:46:11.330177,8448
09:46:11.330177,0
09:46:11.330177,21
09:46:11.330177,4096
09:46:11.330177,0
09:46:11.330177,21
09:46:11.330177,4864
09:46:11.330177,0
09:46:11.330177,23
09:46:11.330177,6656
09:46:11.330177,0
09:46:11.330177,21
09:46:11.330177,3584
09:46:11.330177,0
09:46:11.330177,-79
09:46:11.330177,29695
09:46:11.330177,-2
09:46:11.330177,-647
09:46:11.330177,-3329
09:46:11.330177,-1
09:46:11.330177,1205
09:46:11.330177,-3072
09:46:11.330177,5
09:46:11.330177,857
09:46:11.330177,16640
09:46:11.330177,1
09:46:11.330177,105
09:46:11.880274,-69
09:46:11.880274,27391
09:46:11.880274,-1
09:46:11.880274,-150
09:46:11.880274,23551
09:46:11.880274,-1
09:46:11.880274,-174
09:46:11.880274,24831
09:46:11.880274,-1
09:46:11.880274,-153
09:46:11.880274,27391
09:46:11.880274,-1
09:46:11.880274,-150
09:46:11.880274,26623
09:46:11.880274,-1
09:46:11.880274,-155
09:46:11.880274,26111
09:46:11.880274,-1
09:46:11.880274,-158
09:46:11.880274,24319
09:46:11.880274,-1
09:46:11.880274,-170
09:46:11.880274,19967
09:46:11.880274,-1
09:46:11.880274,-186
09:46:11.880274,18175
09:46:11.880274,-1
09:46:11.880274,-186
09:46:11.880274,19967
09:46:11.880274,-1
09:46:11.880274,-165
09:46:11.880274,28415
09:46:11.880274,-1
09:46:11.880274,-129
09:46:11.880274,-27905
09:46:11.880274,-1
09:46:11.880274,-83
09:46:11.880274,-14337
09:46:11.880274,-1
09:46:11.880274,-33
09:46:11.880274,-3841
09:46:11.880274,-1
09:46:11.880274,-7
09:46:11.880274,-257
09:46:11.880274,-1
09:46:11.880274,14
09:46:11.880274,5888
09:46:11.880274,0
09:46:11.880274,23
09:46:11.880274,8448
09:46:11.880274,0
09:46:11.880274,38
09:46:11.880274,7936
09:46:11.880274,0
09:46:11.880274,28
09:46:11.880274,7168
09:46:11.880274,0
09:46:11.880274,26
09:46:11.880274,5888
09:46:11.880274,0
09:46:11.880274,21
09:46:11.880274,5376
09:46:11.880274,0
09:46:11.880274,19
09:46:11.880274,4096
09:46:11.880274,0
09:46:11.880274,16
09:46:11.880274,4864
09:46:11.880274,0
09:46:11.880274,19
09:46:11.880274,4864
09:46:11.880274,0
09:46:11.880274,19
09:46:11.880274,5888
09:46:11.880274,0
09:46:11.880274,28
09:46:11.880274,7936
09:46:11.880274,0
09:46:11.880274,31
09:46:11.880274,8448
09:46:11.880274,0
09:46:11.880274,33
09:46:11.880274,8448
09:46:11.880274,0
09:46:11.880274,33
09:46:11.880274,7936
09:46:11.880274,0
09:46:11.880274,31
09:46:11.880274,8448
09:46:11.880274,0
09:46:11.880274,31
09:46:11.880274,7168
09:46:11.880274,0
09:46:11.880274,26
09:46:11.880274,5376
09:46:11.880274,0
09:46:11.880274,16
09:46:11.880274,1792
09:46:11.880274,0
09:46:11.880274,-2
09:46:11.880274,-2049
09:46:11.880274,-1
09:46:11.880274,-4
09:46:11.880274,4351
09:46:11.880274,0
09:46:11.880274,38
09:46:11.880274,8960
09:46:11.880274,0
09:46:11.880274,23
09:46:12.430745,21
09:46:12.430745,4096
09:46:12.430745,0
09:46:12.430745,11
09:46:12.430745,4864
09:46:12.430745,0
09:46:12.430745,31
09:46:12.430745,8960
09:46:12.430745,0
09:46:12.430745,21
09:46:12.430745,-28672
09:46:12.430745,-1
09:46:12.430745,-460
09:46:12.430745,-15105
09:46:12.430745,-3
09:46:12.430745,294
09:46:12.430745,-13056
09:46:12.430745,5
09:46:12.430745,1526
09:46:12.430745,-12032
09:46:12.430745,2
09:46:12.430745,234
09:46:12.430745,16384
09:46:12.430745,0
09:46:12.430745,-100
09:46:12.430745,23039
09:46:12.430745,-1
09:46:12.430745,-155
09:46:12.430745,22271
09:46:12.430745,-1
09:46:12.430745,-182
09:46:12.430745,21247
09:46:12.430745,-1
09:46:12.430745,-172
09:46:12.430745,21247
09:46:12.430745,-1
09:46:12.430745,-172
09:46:12.430745,22271
09:46:12.430745,-1
09:46:12.430745,-174
09:46:12.430745,20479
09:46:12.430745,-1
09:46:12.430745,-177
09:46:12.430745,18687
09:46:12.430745,-1
09:46:12.430745,-191
09:46:12.430745,15103
09:46:12.430745,-1
09:46:12.430745,-203
09:46:12.430745,12543
09:46:12.430745,-1
09:46:12.430745,-208
09:46:12.430745,15103
09:46:12.430745,-1
09:46:12.430745,-184
09:46:12.430745,22271
09:46:12.430745,-1
09:46:12.430745,-150
09:46:12.430745,32255
09:46:12.430745,-1
09:46:12.430745,-110
09:46:12.430745,-21761
09:46:12.430745,-1
09:46:12.430745,-64
09:46:12.430745,-10753
09:46:12.430745,-1
09:46:12.430745,-28
09:46:12.430745,-3329
09:46:12.430745,-1
09:46:12.430745,-4
09:46:12.430745,255
09:46:12.430745,0
09:46:12.430745,4
09:46:12.430745,1792
09:46:12.430745,0
09:46:12.430745,7
09:46:12.430745,2304
09:46:12.430745,0
09:46:12.430745,9
09:46:12.430745,2304
09:46:12.430745,0
09:46:12.430745,9
09:46:12.430745,2304
09:46:12.430745,0
09:46:12.430745,7
09:46:12.430745,1792
09:46:12.430745,0
09:46:12.430745,7
09:46:12.430745,1792
09:46:12.430745,0
09:46:12.430745,7
09:46:12.430745,1792
09:46:12.430745,0
09:46:12.430745,7
09:46:12.430745,2304
09:46:12.430745,0
09:46:12.430745,14
09:46:12.430745,3584
09:46:12.430745,0
09:46:12.430745,14
09:46:12.430745,3584
09:46:12.430745,0
09:46:12.430745,16
09:46:12.430745,4864
09:46:12.430745,0
09:46:12.430745,19
09:46:12.430745,4864
09:46:12.430745,0
09:46:12.430745,16
09:46:13.030390,16
09:46:13.030390,4096
09:46:13.030390,0
09:46:13.030390,19
09:46:13.030390,7168
09:46:13.030390,0
09:46:13.030390,33
09:46:13.030390,6656
09:46:13.030390,0
09:46:13.030390,21
09:46:13.030390,5888
09:46:13.030390,0
09:46:13.030390,23
09:46:13.030390,5376
09:46:13.030390,0
09:46:13.030390,21
09:46:13.030390,4096
09:46:13.030390,0
09:46:13.030390,9
09:46:13.030390,512
09:46:13.030390,0
09:46:13.030390,-4
09:46:13.030390,-2561
09:46:13.030390,-1
09:46:13.030390,-19
09:46:13.030390,-1537
09:46:13.030390,-1
09:46:13.030390,21
09:46:13.030390,8960
09:46:13.030390,0
09:46:13.030390,23
09:46:13.030390,3584
09:46:13.030390,0
09:46:13.030390,14
09:46:13.030390,1024
09:46:13.030390,0
09:46:13.030390,4
09:46:13.030390,3584
09:46:13.030390,0
09:46:13.030390,14
09:46:13.030390,2304
09:46:13.030390,0
09:46:13.030390,-31
09:46:13.030390,-1537
09:46:13.030390,-2
09:46:13.030390,-608
09:46:13.030390,-23041
09:46:13.030390,-2
09:46:13.030390,778
09:46:13.030390,512
09:46:13.030390,6
09:46:13.030390,1114
09:46:13.030390,-19456
09:46:13.030390,1
09:46:13.030390,167
09:46:13.030390,512
09:46:13.030390,0
09:46:13.030390,-136
09:46:13.030390,26623
09:46:13.030390,-1
09:46:13.030390,-155
09:46:13.030390,20479
09:46:13.030390,-1
09:46:13.030390,-172
09:46:13.030390,23551
09:46:13.030390,-1
09:46:13.030390,-174
09:46:13.030390,21247
09:46:13.030390,-1
09:46:13.030390,-165
09:46:13.030390,23551
09:46:13.030390,-1
09:46:13.030390,-165
09:46:13.030390,24319
09:46:13.030390,-1
09:46:13.030390,-167
09:46:13.030390,22271
09:46:13.030390,-1
09:46:13.030390,-170
09:46:13.030390,21247
09:46:13.030390,-1
09:46:13.030390,-179
09:46:13.030390,20479
09:46:13.030390,-1
09:46:13.030390,-172
09:46:13.030390,23551
09:46:13.030390,-1
09:46:13.030390,-153
09:46:13.030390,30207
09:46:13.030390,-1
09:46:13.030390,-122
09:46:13.030390,-26113
09:46:13.030390,-1
09:46:13.030390,-86
09:46:13.030390,-17409
09:46:13.030390,-1
09:46:13.030390,-55
09:46:13.030390,-11777
09:46:13.030390,-1
09:46:13.030390,-40
09:46:13.030390,-6913
09:46:13.030390,-1
09:46:13.030390,-21
09:46:13.030390,-3841
09:46:13.030390,-1
09:46:13.030390,-14
09:46:13.030390,-2049
09:46:13.030390,-1
09:46:13.030390,-9
09:46:13.630019,-11
09:46:13.630019,-2049
09:46:13.630019,-1
09:46:13.630019,-9
09:46:13.630019,-2049
09:46:13.630019,-1
09:46:13.630019,-7
09:46:13.630019,-1537
09:46:13.630019,-1
09:46:13.630019,-4
09:46:13.630019,767
09:46:13.630019,0
09:46:13.630019,14
09:46:13.630019,5888
09:46:13.630019,0
09:46:13.630019,21
09:46:13.630019,4864
09:46:13.630019,0
09:46:13.630019,21
09:46:13.630019,5376
09:46:13.630019,0
09:46:13.630019,21
09:46:13.630019,5376
09:46:13.630019,0
09:46:13.630019,23
09:46:13.630019,5888
09:46:13.630019,0
09:46:13.630019,23
09:46:13.630019,6656
09:46:13.630019,0
09:46:13.630019,26
09:46:13.630019,6656
09:46:13.630019,0
09:46:13.630019,23
09:46:13.630019,5376
09:46:13.630019,0
09:46:13.630019,14
09:46:13.630019,1024
09:46:13.630019,0
09:46:13.630019,-4
09:46:13.630019,-2049
09:46:13.630019,-1
09:46:13.630019,0
09:46:13.630019,4864
09:46:13.630019,0
09:46:13.630019,40
09:46:13.630019,10240
09:46:13.630019,0
09:46:13.630019,28
09:46:13.630019,5376
09:46:13.630019,0
09:46:13.630019,21
09:46:13.630019,5376
09:46:13.630019,0
09:46:13.630019,26
09:46:13.630019,7168
09:46:13.630019,0
09:46:13.630019,31
09:46:13.630019,4864
09:46:13.630019,0
09:46:13.630019,-110
09:46:13.630019,16639
09:46:13.630019,-2
09:46:13.630019,-589
09:46:13.630019,-26881
09:46:13.630019,0
09:46:13.630019,1188
09:46:13.630019,-8704
09:46:13.630019,4
09:46:13.630019,639
09:46:13.630019,15872
09:46:13.630019,1
09:46:13.630019,153
09:46:13.630019,-13312
09:46:13.630019,-1
09:46:13.630019,-115
09:46:13.630019,-26625
09:46:13.630019,-1
09:46:13.630019,-131
09:46:13.630019,30207
09:46:13.630019,-1
09:46:13.630019,-124
09:46:13.630019,-32257
09:46:13.630019,-1
09:46:13.630019,-131
09:46:13.630019,-32257
09:46:13.630019,-1
09:46:13.630019,-124
09:46:13.630019,-32257
09:46:13.630019,-1
09:46:13.630019,-127
09:46:13.630019,-32257
09:46:13.630019,-1
09:46:13.630019,-129
09:46:13.630019,31487
09:46:13.630019,-1
09:46:13.630019,-136
09:46:13.630019,29695
09:46:13.630019,-1
09:46:13.630019,-141
09:46:13.630019,30207
09:46:13.630019,-1
09:46:13.630019,-134
09:46:13.630019,-30977
09:46:13.630019,-1
09:46:13.630019,-105
09:46:13.630019,-22273
09:46:13.630019,-1
09:46:13.630019,-71
09:46:14.231044,-57
09:46:14.231044,-9985
09:46:14.231044,-1
09:46:14.231044,-33
09:46:14.231044,-6913
09:46:14.231044,-1
09:46:14.231044,-21
09:46:14.231044,-2561
09:46:14.231044,-1
09:46:14.231044,-4
09:46:14.231044,-257
09:46:14.231044,-1
09:46:14.231044,0
09:46:14.231044,0
09:46:14.231044,0
09:46:14.231044,0
09:46:14.231044,-512
09:46:14.231044,-1
09:46:14.231044,0
09:46:14.231044,2304
09:46:14.231044,0
09:46:14.231044,19
09:46:14.231044,4096
09:46:14.231044,0
09:46:14.231044,11
09:46:14.231044,3584
09:46:14.231044,0
09:46:14.231044,16
09:46:14.231044,5376
09:46:14.231044,0
09:46:14.231044,23
09:46:14.231044,5888
09:46:14.231044,0
09:46:14.231044,23
09:46:14.231044,5376
09:46:14.231044,0
09:46:14.231044,19
09:46:14.231044,4864
09:46:14.231044,0
09:46:14.231044,21
09:46:14.231044,5376
09:46:14.231044,0
09:46:14.231044,19
09:46:14.231044,5376
09:46:14.231044,0
09:46:14.231044,23
09:46:14.231044,5888
09:46:14.231044,0
09:46:14.231044,21
09:46:14.231044,2816
09:46:14.231044,0
09:46:14.231044,0
09:46:14.231044,-2816
09:46:14.231044,-1
09:46:14.231044,-21
09:46:14.231044,-4609
09:46:14.231044,-1
09:46:14.231044,2
09:46:14.231044,7936
09:46:14.231044,0
09:46:14.231044,35
09:46:14.231044,5376
09:46:14.231044,0
09:46:14.231044,19
09:46:14.231044,5376
09:46:14.231044,0
09:46:14.231044,19
09:46:14.231044,5376
09:46:14.231044,0
09:46:14.231044,26
09:46:14.231044,5888
09:46:14.231044,0
09:46:14.231044,14
09:46:14.231044,-23296
09:46:14.231044,-1
09:46:14.231044,-428
09:46:14.231044,-31233
09:46:14.231044,-3
09:46:14.231044,91
09:46:14.231044,8960
09:46:14.231044,5
09:46:14.231044,1550
09:46:14.231044,17920
09:46:14.231044,3
09:46:14.231044,306
09:46:14.231044,25600
09:46:14.231044,0
09:46:14.231044,-71
09:46:14.231044,26623
09:46:14.231044,-1
09:46:14.231044,-148
09:46:14.231044,26111
09:46:14.231044,-1
09:46:14.231044,-165
09:46:14.231044,24831
09:46:14.231044,-1
09:46:14.231044,-160
09:46:14.231044,24831
09:46:14.231044,-1
09:46:14.231044,-160
09:46:14.231044,24831
09:46:14.231044,-1
09:46:14.231044,-162
09:46:14.231044,23551
09:46:14.231044,-1
09:46:14.231044,-170
09:46:14.231044,21247
09:46:14.231044,-1
09:46:14.231044,-179
09:46:14.780534,-186
09:46:14.780534,16127
09:46:14.780534,-1
09:46:14.780534,-201
09:46:14.780534,13823
09:46:14.780534,-1
09:46:14.780534,-198
09:46:14.780534,18175
09:46:14.780534,-1
09:46:14.780534,-170
09:46:14.780534,27391
09:46:14.780534,-1
09:46:14.780534,-131
09:46:14.780534,-27905
09:46:14.780534,-1
09:46:14.780534,-88
09:46:14.780534,-16129
09:46:14.780534,-1
09:46:14.780534,-43
09:46:14.780534,-5633
09:46:14.780534,-1
09:46:14.780534,-11
09:46:14.780534,-257
09:46:14.780534,-1
09:46:14.780534,4
09:46:14.780534,2304
09:46:14.780534,0
09:46:14.780534,21
09:46:14.780534,7936
09:46:14.780534,0
09:46:14.780534,28
09:46:14.780534,5888
09:46:14.780534,0
09:46:14.780534,23
09:46:14.780534,5376
09:46:14.780534,0
09:46:14.780534,16
09:46:14.780534,4096
09:46:14.780534,0
09:46:14.780534,11
09:46:14.780534,1792
09:46:14.780534,0
09:46:14.780534,9
09:46:14.780534,2304
09:46:14.780534,0
09:46:14.780534,9
09:46:14.780534,2304
09:46:14.780534,0
09:46:14.780534,11
09:46:14.780534,2816
09:46:14.780534,0
09:46:14.780534,11
09:46:14.780534,3584
09:46:14.780534,0
09:46:14.780534,14
09:46:14.780534,2816
09:46:14.780534,0
09:46:14.780534,2
09:46:14.780534,-1024
09:46:14.780534,-1
09:46:14.780534,-16
09:46:14.780534,-6401
09:46:14.780534,-1
09:46:14.780534,-16
09:46:14.780534,3071
09:46:14.780534,0
09:46:14.780534,33
09:46:14.780534,7168
09:46:14.780534,0
09:46:14.780534,11
09:46:14.780534,3584
09:46:14.780534,0
09:46:14.780534,19
09:46:14.780534,4096
09:46:14.780534,0
09:46:14.780534,23
09:46:14.780534,7168
09:46:14.780534,0
09:46:14.780534,26
09:46:14.780534,0
09:46:14.780534,0
09:46:14.780534,-189
09:46:14.780534,-12033
09:46:14.780534,-3
09:46:14.780534,-469
09:46:14.780534,27391
09:46:14.780534,2
09:46:14.780534,1634
09:46:14.780534,20736
09:46:14.780534,5
09:46:14.780534,546
09:46:14.780534,-23296
09:46:14.780534,0
09:46:14.780534,11
09:46:14.780534,32000
09:46:14.780534,-1
09:46:14.780534,-167
09:46:14.780534,26623
09:46:14.780534,-1
09:46:14.780534,-167
09:46:14.780534,21247
09:46:14.780534,-1
09:46:14.780534,-165
09:46:14.780534,23039
09:46:14.780534,-1
09:46:14.780534,-167
09:46:14.780534,23551
09:46:14.780534,-1
09:46:14.780534,-165
09:46:15.280757,-170
09:46:15.280757,21759
09:46:15.280757,-1
09:46:15.280757,-177
09:46:15.280757,18687
09:46:15.280757,-1
09:46:15.280757,-189
09:46:15.280757,16127
09:46:15.280757,-1
09:46:15.280757,-203
09:46:15.280757,12543
09:46:15.280757,-1
09:46:15.280757,-206
09:46:15.280757,15103
09:46:15.280757,-1
09:46:15.280757,-184
09:46:15.280757,23551
09:46:15.280757,-1
09:46:15.280757,-146
09:46:15.280757,-32257
09:46:15.280757,-1
09:46:15.280757,-103
09:46:15.280757,-19969
09:46:15.280757,-1
09:46:15.280757,-55
09:46:15.280757,-6401
09:46:15.280757,-1
09:46:15.280757,2
09:46:15.280757,2304
09:46:15.280757,0
09:46:15.280757,14
09:46:15.280757,5376
09:46:15.280757,0
09:46:15.280757,21
09:46:15.280757,5888
09:46:15.280757,0
09:46:15.280757,26
09:46:15.280757,5376
09:46:15.280757,0
09:46:15.280757,16
09:46:15.280757,4096
09:46:15.280757,0
09:46:15.280757,11
09:46:15.280757,2304
09:46:15.280757,0
09:46:15.280757,7
09:46:15.280757,1024
09:46:15.280757,0
09:46:15.280757,2
09:46:15.280757,512
09:46:15.280757,0
09:46:15.280757,2
09:46:15.280757,1792
09:46:15.280757,0
09:46:15.280757,7
09:46:15.280757,2304
09:46:15.280757,0
09:46:15.280757,9
09:46:15.280757,1792
09:46:15.280757,0
09:46:15.280757,0
09:46:15.280757,-1792
09:46:15.280757,-1
09:46:15.280757,-16
09:46:15.280757,-5633
09:46:15.280757,-1
09:46:15.280757,-19
09:46:15.280757,767
09:46:15.280757,0
09:46:15.280757,31
09:46:15.280757,8960
09:46:15.280757,0
09:46:15.280757,19
09:46:15.280757,3584
09:46:15.280757,0
09:46:15.280757,19
09:46:15.280757,4864
09:46:15.280757,0
09:46:15.280757,19
09:46:15.280757,5376
09:46:15.280757,0
09:46:15.280757,21
09:46:15.280757,1792
09:46:15.280757,0
09:46:15.280757,-134
09:46:15.280757,9983
09:46:15.280757,-2
09:46:15.280757,-532
09:46:15.280757,27903
09:46:15.280757,1
09:46:15.280757,1471
09:46:15.280757,-32000
09:46:15.280757,5
09:46:15.280757,623
09:46:15.280757,-14848
09:46:15.280757,0
09:46:15.280757,52
09:46:15.280757,-26368
09:46:15.280757,-1
09:46:15.280757,-160
09:46:15.280757,27391
09:46:15.280757,-1
09:46:15.280757,-162
09:46:15.280757,22271
09:46:15.280757,-1
09:46:15.280757,-155
09:46:15.280757,27391
09:46:15.280757,-1
09:46:15.280757,-155
09:46:15.880608,-155
09:46:15.880608,26623
09:46:15.880608,-1
09:46:15.880608,-153
09:46:15.880608,26623
09:46:15.880608,-1
09:46:15.880608,-158
09:46:15.880608,23551
09:46:15.880608,-1
09:46:15.880608,-172
09:46:15.880608,20479
09:46:15.880608,-1
09:46:15.880608,-182
09:46:15.880608,20479
09:46:15.880608,-1
09:46:15.880608,-165
09:46:15.880608,25343
09:46:15.880608,-1
09:46:15.880608,-150
09:46:15.880608,31487
09:46:15.880608,-1
09:46:15.880608,-117
09:46:15.880608,-25345
09:46:15.880608,-1
09:46:15.880608,-81
09:46:15.880608,-14849
09:46:15.880608,-1
09:46:15.880608,-45
09:46:15.880608,-7681
09:46:15.880608,-1
09:46:15.880608,-16
09:46:15.880608,-257
09:46:15.880608,-1
09:46:15.880608,4
09:46:15.880608,1792
09:46:15.880608,0
09:46:15.880608,7
09:46:15.880608,1792
09:46:15.880608,0
09:46:15.880608,4
09:46:15.880608,1024
09:46:15.880608,0
09:46:15.880608,4
09:46:15.880608,1024
09:46:15.880608,0
09:46:15.880608,2
09:46:15.880608,512
09:46:15.880608,0
09:46:15.880608,2
09:46:15.880608,512
09:46:15.880608,0
09:46:15.880608,4
09:46:15.880608,1792
09:46:15.880608,0
09:46:15.880608,7
09:46:15.880608,2304
09:46:15.880608,0
09:46:15.880608,9
09:46:15.880608,2816
09:46:15.880608,0
09:46:15.880608,11
09:46:15.880608,1792
09:46:15.880608,0
09:46:15.880608,2
09:46:15.880608,-1792
09:46:15.880608,-1
09:46:15.880608,-19
09:46:15.880608,-6913
09:46:15.880608,-1
09:46:15.880608,-23
09:46:15.880608,255
09:46:15.880608,0
09:46:15.880608,28
09:46:15.880608,8448
09:46:15.880608,0
09:46:15.880608,14
09:46:15.880608,1792
09:46:15.880608,0
09:46:15.880608,14
09:46:15.880608,4096
09:46:15.880608,0
09:46:15.880608,16
09:46:15.880608,4864
09:46:15.880608,0
09:46:15.880608,19
09:46:15.880608,-512
09:46:15.880608,-1
09:46:15.880608,-150
09:46:15.880608,6399
09:46:15.880608,-2
09:46:15.880608,-508
09:46:15.880608,-25345
09:46:15.880608,1
09:46:15.880608,1449
09:46:15.880608,10752
09:46:15.880608,5
09:46:15.880608,560
09:46:15.880608,-17152
09:46:15.880608,0
09:46:15.880608,52
09:46:15.880608,-25088
09:46:15.880608,-1
09:46:15.880608,-150
09:46:15.880608,29695
09:46:15.880608,-1
09:46:15.880608,-158
09:46:15.880608,23551
09:46:15.880608,-1
09:46:15.880608,-160
09:46:16.430924,-162
09:46:16.430924,24831
09:46:16.430924,-1
09:46:16.430924,-158
09:46:16.430924,26111
09:46:16.430924,-1
09:46:16.430924,-158
09:46:16.430924,25343
09:46:16.430924,-1
09:46:16.430924,-160
09:46:16.430924,23551
09:46:16.430924,-1
09:46:16.430924,-167
09:46:16.430924,22271
09:46:16.430924,-1
09:46:16.430924,-172
09:46:16.430924,21247
09:46:16.430924,-1
09:46:16.430924,-174
09:46:16.430924,23551
09:46:16.430924,-1
09:46:16.430924,-146
09:46:16.430924,-29697
09:46:16.430924,-1
09:46:16.430924,-103
09:46:16.430924,-22273
09:46:16.430924,-1
09:46:16.430924,-69
09:46:16.430924,-13057
09:46:16.430924,-1
09:46:16.430924,-43
09:46:16.430924,-7681
09:46:16.430924,-1
09:46:16.430924,-16
09:46:16.430924,-2561
09:46:16.430924,-1
09:46:16.430924,-7
09:46:16.430924,-257
09:46:16.430924,-1
09:46:16.430924,2
09:46:16.430924,512
09:46:16.430924,0
09:46:16.430924,0
09:46:16.430924,0
09:46:16.430924,0
09:46:16.430924,0
09:46:16.430924,0
09:46:16.430924,0
09:46:16.430924,0
09:46:16.430924,0
09:46:16.430924,0
09:46:16.430924,2
09:46:16.430924,1024
09:46:16.430924,0
09:46:16.430924,2
09:46:16.430924,0
09:46:16.430924,0
09:46:16.430924,2
09:46:16.430924,1024
09:46:16.430924,0
09:46:16.430924,4
09:46:16.430924,1792
09:46:16.430924,0
09:46:16.430924,9
09:46:16.430924,2304
09:46:16.430924,0
09:46:16.430924,4
09:46:16.430924,512
09:46:16.430924,0
09:46:16.430924,-2
09:46:16.430924,-2049
09:46:16.430924,-1
09:46:16.430924,-23
09:46:16.430924,-8193
09:46:16.430924,-1
09:46:16.430924,-26
09:46:16.430924,255
09:46:16.430924,0
09:46:16.430924,26
09:46:16.430924,5888
09:46:16.430924,0
09:46:16.430924,7
09:46:16.430924,1792
09:46:16.430924,0
09:46:16.430924,16
09:46:16.430924,4864
09:46:16.430924,0
09:46:16.430924,21
09:46:16.430924,5888
09:46:16.430924,0
09:46:16.430924,19
09:46:16.430924,-1792
09:46:16.430924,-1
09:46:16.430924,-179
09:46:16.430924,-1793
09:46:16.430924,-3
09:46:16.430924,-467
09:46:16.430924,-16897
09:46:16.430924,1
09:46:16.430924,1294
09:46:16.430924,13312
09:46:16.430924,4
09:46:16.430924,472
09:46:16.430924,-6144
09:46:16.430924,0
09:46:16.430924,69
09:46:16.430924,-27392
09:46:16.430924,-1
09:46:16.430924,-134
09:46:16.980735,-129
09:46:16.980735,25343
09:46:16.980735,-1
09:46:16.980735,-158
09:46:16.980735,27903
09:46:16.980735,-1
09:46:16.980735,-158
09:46:16.980735,25343
09:46:16.980735,-1
09:46:16.980735,-150
09:46:16.980735,28415
09:46:16.980735,-1
09:46:16.980735,-146
09:46:16.980735,28415
09:46:16.980735,-1
09:46:16.980735,-150
09:46:16.980735,27391
09:46:16.980735,-1
09:46:16.980735,-150
09:46:16.980735,29183
09:46:16.980735,-1
09:46:16.980735,-139
09:46:16.980735,30207
09:46:16.980735,-1
09:46:16.980735,-134
09:46:16.980735,-30977
09:46:16.980735,-1
09:46:16.980735,-112
09:46:16.980735,-24833
09:46:16.980735,-1
09:46:16.980735,-76
09:46:16.980735,-14337
09:46:16.980735,-1
09:46:16.980735,-43
09:46:16.980735,-8705
09:46:16.980735,-1
09:46:16.980735,-33
09:46:16.980735,-8193
09:46:16.980735,-1
09:46:16.980735,-28
09:46:16.980735,-5121
09:46:16.980735,-1
09:46:16.980735,-19
09:46:16.980735,-4609
09:46:16.980735,-1
09:46:16.980735,-21
09:46:16.980735,-4609
09:46:16.980735,-1
09:46:16.980735,-16
09:46:16.980735,-5121
09:46:16.980735,-1
09:46:16.980735,-21
09:46:16.980735,-3841
09:46:16.980735,-1
09:46:16.980735,-23
09:46:16.980735,-6913
09:46:16.980735,-1
09:46:16.980735,-21
09:46:16.980735,-3329
09:46:16.980735,-1
09:46:16.980735,-14
09:46:16.980735,-3841
09:46:16.980735,-1
09:46:16.980735,-14
09:46:16.980735,-2049
09:46:16.980735,-1
09:46:16.980735,-4
09:46:16.980735,-1537
09:46:16.980735,-1
09:46:16.980735,-11
09:46:16.980735,-2561
09:46:16.980735,-1
09:46:16.980735,-11
09:46:16.980735,-5121
09:46:16.980735,-1
09:46:16.980735,-38
09:46:16.980735,-10753
09:46:16.980735,-1
09:46:16.980735,-28
09:46:16.980735,2047
09:46:16.980735,0
09:46:16.980735,35
09:46:16.980735,7936
09:46:16.980735,0
09:46:16.980735,11
09:46:16.980735,512
09:46:16.980735,0
09:46:16.980735,9
09:46:16.980735,4096
09:46:16.980735,0
09:46:16.980735,16
09:46:16.980735,4096
09:46:16.980735,0
09:46:16.980735,21
09:46:16.980735,-5376
09:46:16.980735,-1
09:46:16.980735,-246
09:46:16.980735,-14593
09:46:16.980735,-3
09:46:16.980735,-337
09:46:16.980735,-30209
09:46:16.980735,2
09:46:16.980735,1258
09:46:16.980735,27136
09:46:16.980735,3
09:46:16.980735,402
09:46:16.980735,-1792
09:46:16.980735,0
09:46:16.980735,47
09:46:17.529608,-112
09:46:17.529608,-27137
09:46:17.529608,-1
09:46:17.529608,-119
09:46:17.529608,26111
09:46:17.529608,-1
09:46:17.529608,-141
09:46:17.529608,32255
09:46:17.529608,-1
09:46:17.529608,-141
09:46:17.529608,31487
09:46:17.529608,-1
09:46:17.529608,-124
09:46:17.529608,32767
09:46:17.529608,-1
09:46:17.529608,-127
09:46:17.529608,-30209
09:46:17.529608,-1
09:46:17.529608,-115
09:46:17.529608,-29185
09:46:17.529608,-1
09:46:17.529608,-117
09:46:17.529608,-30977
09:46:17.529608,-1
09:46:17.529608,-124
09:46:17.529608,-31489
09:46:17.529608,-1
09:46:17.529608,-119
09:46:17.529608,-27905
09:46:17.529608,-1
09:46:17.529608,-98
09:46:17.529608,-20993
09:46:17.529608,-1
09:46:17.529608,-69
09:46:17.529608,-13057
09:46:17.529608,-1
09:46:17.529608,-38
09:46:17.529608,-7681
09:46:17.529608,-1
09:46:17.529608,-33
09:46:17.529608,-7681
09:46:17.529608,-1
09:46:17.529608,-23
09:46:17.529608,-3841
09:46:17.529608,-1
09:46:17.529608,-9
09:46:17.529608,-769
09:46:17.529608,-1
09:46:17.529608,-7
09:46:17.529608,-2561
09:46:17.529608,-1
09:46:17.529608,-19
09:46:17.529608,-4609
09:46:17.529608,-1
09:46:17.529608,-4
09:46:17.529608,2047
09:46:17.529608,0
09:46:17.529608,4
09:46:17.529608,0
09:46:17.529608,0
09:46:17.529608,9
09:46:17.529608,4864
09:46:17.529608,0
09:46:17.529608,23
09:46:17.529608,4864
09:46:17.529608,0
09:46:17.529608,9
09:46:17.529608,4096
09:46:17.529608,0
09:46:17.529608,28
09:46:17.529608,4096
09:46:17.529608,0
09:46:17.529608,9
09:46:17.529608,2816
09:46:17.529608,0
09:46:17.529608,-4
09:46:17.529608,-6401
09:46:17.529608,-1
09:46:17.529608,-23
09:46:17.529608,-2049
09:46:17.529608,-1
09:46:17.529608,14
09:46:17.529608,11520
09:46:17.529608,0
09:46:17.529608,45
09:46:17.529608,8448
09:46:17.529608,0
09:46:17.529608,33
09:46:17.529608,7168
09:46:17.529608,0
09:46:17.529608,23
09:46:17.529608,6656
09:46:17.529608,0
09:46:17.529608,31
09:46:17.529608,3584
09:46:17.529608,0
09:46:17.529608,-136
09:46:17.529608,4351
09:46:17.529608,-2
09:46:17.529608,-568
09:46:17.529608,16127
09:46:17.529608,1
09:46:17.529608,1392
09:46:17.529608,13824
09:46:17.529608,5
09:46:17.529608,606
09:46:17.529608,-12800
09:46:17.529608,0
09:46:17.529608,28
09:46:18.081084,-129
09:46:18.081084,20479
09:46:18.081084,-1
09:46:18.081084,-170
09:46:18.081084,17407
09:46:18.081084,-1
09:46:18.081084,-194
09:46:18.081084,24319
09:46:18.081084,-1
09:46:18.081084,-139
09:46:18.081084,26623
09:46:18.081084,-1
09:46:18.081084,-158
09:46:18.081084,27391
09:46:18.081084,-1
09:46:18.081084,-146
09:46:18.081084,29183
09:46:18.081084,-1
09:46:18.081084,-148
09:46:18.081084,25343
09:46:18.081084,-1
09:46:18.081084,-167
09:46:18.081084,21247
09:46:18.081084,-1
09:46:18.081084,-179
09:46:18.081084,19199
09:46:18.081084,-1
09:46:18.081084,-182
09:46:18.081084,21759
09:46:18.081084,-1
09:46:18.081084,-160
09:46:18.081084,29695
09:46:18.081084,-1
09:46:18.081084,-122
09:46:18.081084,-26113
09:46:18.081084,-1
09:46:18.081084,-83
09:46:18.081084,-16897
09:46:18.081084,-1
09:46:18.081084,-55
09:46:18.081084,-9985
09:46:18.081084,-1
09:46:18.081084,-31
09:46:18.081084,-6913
09:46:18.081084,-1
09:46:18.081084,-14
09:46:18.081084,3839
09:46:18.081084,0
09:46:18.081084,21
09:46:18.081084,1792
09:46:18.081084,0
09:46:18.081084,9
09:46:18.081084,5376
09:46:18.081084,0
09:46:18.081084,14
09:46:18.081084,1024
09:46:18.081084,0
09:46:18.081084,7
09:46:18.081084,1792
09:46:18.081084,0
09:46:18.081084,2
09:46:18.081084,1024
09:46:18.081084,0
09:46:18.081084,9
09:46:18.081084,2304
09:46:18.081084,0
09:46:18.081084,7
09:46:18.081084,2304
09:46:18.081084,0
09:46:18.081084,9
09:46:18.081084,1792
09:46:18.081084,0
09:46:18.081084,7
09:46:18.081084,0
09:46:18.081084,0
09:46:18.081084,-9
09:46:18.081084,-4609
09:46:18.081084,-1
09:46:18.081084,-21
09:46:18.081084,255
09:46:18.081084,0
09:46:18.081084,31
09:46:18.081084,12800
09:46:18.081084,0
09:46:18.081084,43
09:46:18.081084,6656
09:46:18.081084,0
09:46:18.081084,28
09:46:18.081084,8448
09:46:18.081084,0
09:46:18.081084,35
09:46:18.081084,9728
09:46:18.081084,0
09:46:18.081084,40
09:46:18.081084,9728
09:46:18.081084,0
09:46:18.081084,-14
09:46:18.081084,-2305
09:46:18.081084,-2
09:46:18.081084,-606
09:46:18.081084,767
09:46:18.081084,-1
09:46:18.081084,977
09:46:18.081084,-27648
09:46:18.081084,6
09:46:18.081084,1133
09:46:18.081084,-27392
09:46:18.081084,1
09:46:18.081084,136
09:46:18.630162,-14
09:46:18.630162,30207
09:46:18.630162,-1
09:46:18.630162,-153
09:46:18.630162,28415
09:46:18.630162,-1
09:46:18.630162,-165
09:46:18.630162,24319
09:46:18.630162,-1
09:46:18.630162,-155
09:46:18.630162,24831
09:46:18.630162,-1
09:46:18.630162,-153
09:46:18.630162,30207
09:46:18.630162,-1
09:46:18.630162,-139
09:46:18.630162,27903
09:46:18.630162,-1
09:46:18.630162,-150
09:46:18.630162,26111
09:46:18.630162,-1
09:46:18.630162,-165
09:46:18.630162,21759
09:46:18.630162,-1
09:46:18.630162,-179
09:46:18.630162,18687
09:46:18.630162,-1
09:46:18.630162,-186
09:46:18.630162,19199
09:46:18.630162,-1
09:46:18.630162,-172
09:46:18.630162,26111
09:46:18.630162,-1
09:46:18.630162,-136
09:46:18.630162,-29185
09:46:18.630162,-1
09:46:18.630162,-95
09:46:18.630162,-19201
09:46:18.630162,-1
09:46:18.630162,-47
09:46:18.630162,-6401
09:46:18.630162,-1
09:46:18.630162,-11
09:46:18.630162,1279
09:46:18.630162,0
09:46:18.630162,16
09:46:18.630162,4864
09:46:18.630162,0
09:46:18.630162,19
09:46:18.630162,5376
09:46:18.630162,0
09:46:18.630162,23
09:46:18.630162,5888
09:46:18.630162,0
09:46:18.630162,23
09:46:18.630162,4864
09:46:18.630162,0
09:46:18.630162,19
09:46:18.630162,4096
09:46:18.630162,0
09:46:18.630162,14
09:46:18.630162,3584
09:46:18.630162,0
09:46:18.630162,14
09:46:18.630162,2304
09:46:18.630162,0
09:46:18.630162,9
09:46:18.630162,2304
09:46:18.630162,0
09:46:18.630162,7
09:46:18.630162,1792
09:46:18.630162,0
09:46:18.630162,0
09:46:18.630162,-4096
09:46:18.630162,-1
09:46:18.630162,-26
09:46:18.630162,-6913
09:46:18.630162,-1
09:46:18.630162,-35
09:46:18.630162,-11265
09:46:18.630162,-1
09:46:18.630162,-40
09:46:18.630162,-5633
09:46:18.630162,-1
09:46:18.630162,0
09:46:18.630162,4096
09:46:18.630162,0
09:46:18.630162,9
09:46:18.630162,0
09:46:18.630162,0
09:46:18.630162,9
09:46:18.630162,7936
09:46:18.630162,0
09:46:18.630162,40
09:46:18.630162,5888
09:46:18.630162,0
09:46:18.630162,7
09:46:18.630162,1024
09:46:18.630162,0
09:46:18.630162,-52
09:46:18.630162,-15105
09:46:18.630162,-2
09:46:18.630162,-627
09:46:18.630162,15615
09:46:18.630162,-1
09:46:18.630162,1054
09:46:18.630162,-32512
09:46:18.630162,6
09:46:18.630162,1044
09:46:19.180491,337
09:46:19.180491,26880
09:46:19.180491,0
09:46:19.180491,-33
09:46:19.180491,27391
09:46:19.180491,-1
09:46:19.180491,-158
09:46:19.180491,26623
09:46:19.180491,-1
09:46:19.180491,-170
09:46:19.180491,24319
09:46:19.180491,-1
09:46:19.180491,-148
09:46:19.180491,26623
09:46:19.180491,-1
09:46:19.180491,-153
09:46:19.180491,27391
09:46:19.180491,-1
09:46:19.180491,-158
09:46:19.180491,24831
09:46:19.180491,-1
09:46:19.180491,-158
09:46:19.180491,24831
09:46:19.180491,-1
09:46:19.180491,-170
09:46:19.180491,21247
09:46:19.180491,-1
09:46:19.180491,-182
09:46:19.180491,18175
09:46:19.180491,-1
09:46:19.180491,-182
09:46:19.180491,20479
09:46:19.180491,-1
09:46:19.180491,-165
09:46:19.180491,26623
09:46:19.180491,-1
09:46:19.180491,-139
09:46:19.180491,-30977
09:46:19.180491,-1
09:46:19.180491,-98
09:46:19.180491,-19201
09:46:19.180491,-1
09:46:19.180491,-59
09:46:19.180491,-10753
09:46:19.180491,-1
09:46:19.180491,-28
09:46:19.180491,-3329
09:46:19.180491,-1
09:46:19.180491,0
09:46:19.180491,1024
09:46:19.180491,0
09:46:19.180491,7
09:46:19.180491,2304
09:46:19.180491,0
09:46:19.180491,7
09:46:19.180491,1024
09:46:19.180491,0
09:46:19.180491,4
09:46:19.180491,1792
09:46:19.180491,0
09:46:19.180491,7
09:46:19.180491,512
09:46:19.180491,0
09:46:19.180491,2
09:46:19.180491,512
09:46:19.180491,0
09:46:19.180491,0
09:46:19.180491,1024
09:46:19.180491,0
09:46:19.180491,7
09:46:19.180491,-512
09:46:19.180491,-1
09:46:19.180491,-14
09:46:19.180491,-2561
09:46:19.180491,-1
09:46:19.180491,-4
09:46:19.180491,-1537
09:46:19.180491,-1
09:46:19.180491,-2
09:46:19.180491,1279
09:46:19.180491,0
09:46:19.180491,-19
09:46:19.180491,-9473
09:46:19.180491,-1
09:46:19.180491,4
09:46:19.180491,20736
09:46:19.180491,0
09:46:19.180491,79
09:46:19.180491,-8960
09:46:19.180491,-1
09:46:19.180491,-100
09:46:19.180491,-10753
09:46:19.180491,-1
09:46:19.180491,0
09:46:19.180491,6656
09:46:19.180491,0
09:46:19.180491,0
09:46:19.180491,-18176
09:46:19.180491,-1
09:46:19.180491,7
09:46:19.180491,-22528
09:46:19.180491,-1
09:46:19.180491,-491
09:46:19.180491,255
09:46:19.180491,-1
09:46:19.180491,800
09:46:19.180491,9728
09:46:19.180491,5
09:46:19.180491,850
09:46:19.780916,373
09:46:19.780916,-19712
09:46:19.780916,0
09:46:19.780916,-14
09:46:19.780916,-27905
09:46:19.780916,-1
09:46:19.780916,-110
09:46:19.780916,-22273
09:46:19.780916,-1
09:46:19.780916,-52
09:46:19.780916,-24833
09:46:19.780916,-1
09:46:19.780916,-155
09:46:19.780916,-31489
09:46:19.780916,-1
09:46:19.780916,-100
09:46:19.780916,32767
09:46:19.780916,-1
09:46:19.780916,-119
09:46:19.780916,-18689
09:46:19.780916,-1
09:46:19.780916,-93
09:46:19.780916,29695
09:46:19.780916,-1
09:46:19.780916,-117
09:46:19.780916,-22273
09:46:19.780916,-1
09:46:19.780916,-115
09:46:19.780916,27391
09:46:19.780916,-1
09:46:19.780916,-155
09:46:19.780916,-24833
09:46:19.780916,-1
09:46:19.780916,-43
09:46:19.780916,-13057
09:46:19.780916,-1
09:46:19.780916,-74
09:46:19.780916,-14849
09:46:19.780916,-1
09:46:19.780916,-45
09:46:19.780916,-9473
09:46:19.780916,-1
09:46:19.780916,-4
09:46:19.780916,-5633
09:46:19.780916,-1
09:46:19.780916,-93
09:46:19.780916,-14337
09:46:19.780916,-1
09:46:19.780916,21
09:46:19.780916,-1024
09:46:19.780916,-1
09:46:19.780916,-55
09:46:19.780916,-10753
09:46:19.780916,-1
09:46:19.780916,-2
09:46:19.780916,2047
09:46:19.780916,0
09:46:19.780916,-7
09:46:19.780916,255
09:46:19.780916,0
09:46:19.780916,-14
09:46:19.780916,-9473
09:46:19.780916,-1
09:46:19.780916,-26
09:46:19.780916,-5633
09:46:19.780916,-1
09:46:19.780916,-21
09:46:19.780916,255
09:46:19.780916,0
09:46:19.780916,11
09:46:19.780916,-512
09:46:19.780916,-1
09:46:19.780916,-83
09:46:19.780916,-29185
09:46:19.780916,-1
09:46:19.780916,59
09:46:19.780916,-31232
09:46:19.780916,0
09:46:19.780916,-38
09:46:19.780916,-27905
09:46:19.780916,-1
09:46:19.780916,-14
09:46:19.780916,8703
09:46:19.780916,0
09:46:19.780916,9
09:46:19.780916,512
09:46:19.780916,0
09:46:19.780916,28
09:46:19.780916,7936
09:46:19.780916,0
09:46:19.780916,7
09:46:19.780916,3584
09:46:19.780916,0
09:46:19.780916,28
09:46:19.780916,-6656
09:46:19.780916,-1
09:46:19.780916,-47
09:46:19.780916,-20993
09:46:19.780916,-1
09:46:19.780916,-352
09:46:19.780916,-18945
09:46:19.780916,-3
09:46:19.780916,-83
09:46:19.780916,-18433
09:46:19.780916,3
09:46:19.780916,1212
09:46:19.780916,28928
09:46:19.780916,2
09:46:19.780916,333
09:46:20.330606,278
09:46:20.330606,-9728
09:46:20.330606,-1
09:46:20.330606,-191
09:46:20.330606,-14849
09:46:20.330606,-1
09:46:20.330606,-79
09:46:20.330606,18175
09:46:20.330606,-1
09:46:20.330606,-155
09:46:20.330606,-28417
09:46:20.330606,-1
09:46:20.330606,-124
09:46:20.330606,31487
09:46:20.330606,-1
09:46:20.330606,-141
09:46:20.330606,29183
09:46:20.330606,-1
09:46:20.330606,-129
09:46:20.330606,-27137
09:46:20.330606,-1
09:46:20.330606,-103
09:46:20.330606,-28417
09:46:20.330606,-1
09:46:20.330606,-155
09:46:20.330606,21247
09:46:20.330606,-1
09:46:20.330606,-107
09:46:20.330606,-23041
09:46:20.330606,-1
09:46:20.330606,-186
09:46:20.330606,26623
09:46:20.330606,-1
09:46:20.330606,-31
09:46:20.330606,-14849
09:46:20.330606,-1
09:46:20.330606,-127
09:46:20.330606,-21761
09:46:20.330606,-1
09:46:20.330606,-23
09:46:20.330606,-5633
09:46:20.330606,-1
09:46:20.330606,-57
09:46:20.330606,-15617
09:46:20.330606,-1
09:46:20.330606,-21
09:46:20.330606,-3329
09:46:20.330606,-1
09:46:20.330606,-57
09:46:20.330606,-14337
09:46:20.330606,-1
09:46:20.330606,-35
09:46:20.330606,-8705
09:46:20.330606,-1
09:46:20.330606,-28
09:46:20.330606,-5121
09:46:20.330606,-1
09:46:20.330606,-26
09:46:20.330606,-7681
09:46:20.330606,-1
09:46:20.330606,-45
09:46:20.330606,-13825
09:46:20.330606,-1
09:46:20.330606,-11
09:46:20.330606,7423
09:46:20.330606,0
09:46:20.330606,-38
09:46:20.330606,-14849
09:46:20.330606,-1
09:46:20.330606,50
09:46:20.330606,15872
09:46:20.330606,0
09:46:20.330606,-43
09:46:20.330606,-13825
09:46:20.330606,-1
09:46:20.330606,9
09:46:20.330606,-1792
09:46:20.330606,-1
09:46:20.330606,-100
09:46:20.330606,-19201
09:46:20.330606,-1
09:46:20.330606,33
09:46:20.330606,-1792
09:46:20.330606,-1
09:46:20.330606,-64
09:46:20.330606,2047
09:46:20.330606,0
09:46:20.330606,52
09:46:20.330606,8448
09:46:20.330606,0
09:46:20.330606,14
09:46:20.330606,-6656
09:46:20.330606,-1
09:46:20.330606,-19
09:46:20.330606,11263
09:46:20.330606,0
09:46:20.330606,21
09:46:20.330606,-11008
09:46:20.330606,-1
09:46:20.330606,-55
09:46:20.330606,18687
09:46:20.330606,-1
09:46:20.330606,-527
09:46:20.330606,-21249
09:46:20.330606,-2
09:46:20.330606,754
09:46:20.330606,31232
09:46:20.330606,5
09:46:20.330606,903
09:46:20.880643,405
09:46:20.880643,0
09:46:20.880643,1
09:46:20.880643,-2
09:46:20.880643,21247
09:46:20.880643,-1
09:46:20.880643,-141
09:46:20.880643,-30977
09:46:20.880643,-1
09:46:20.880643,-148
09:46:20.880643,24319
09:46:20.880643,-1
09:46:20.880643,-127
09:46:20.880643,-24833
09:46:20.880643,-1
09:46:20.880643,-127
09:46:20.880643,26623
09:46:20.880643,-1
09:46:20.880643,-148
09:46:20.880643,-32257
09:46:20.880643,-1
09:46:20.880643,-112
09:46:20.880643,-27137
09:46:20.880643,-1
09:46:20.880643,-122
09:46:20.880643,28415
09:46:20.880643,-1
09:46:20.880643,-143
09:46:20.880643,-30977
09:46:20.880643,-1
09:46:20.880643,-110
09:46:20.880643,-30209
09:46:20.880643,-1
09:46:20.880643,-160
09:46:20.880643,27391
09:46:20.880643,-1
09:46:20.880643,-40
09:46:20.880643,-2561
09:46:20.880643,-1
09:46:20.880643,-83
09:46:20.880643,-19201
09:46:20.880643,-1
09:46:20.880643,-33
09:46:20.880643,-9473
09:46:20.880643,-1
09:46:20.880643,-31
09:46:20.880643,-2561
09:46:20.880643,-1
09:46:20.880643,-9
09:46:20.880643,-2049
09:46:20.880643,-1
09:46:20.880643,-16
09:46:20.880643,-5121
09:46:20.880643,-1
09:46:20.880643,-11
09:46:20.880643,-1537
09:46:20.880643,-1
09:46:20.880643,11
09:46:20.880643,5376
09:46:20.880643,0
09:46:20.880643,-4
09:46:20.880643,-2561
09:46:20.880643,-1
09:46:20.880643,16
09:46:20.880643,3584
09:46:20.880643,0
09:46:20.880643,-4
09:46:20.880643,-257
09:46:20.880643,-1
09:46:20.880643,7
09:46:20.880643,2304
09:46:20.880643,0
09:46:20.880643,7
09:46:20.880643,512
09:46:20.880643,0
09:46:20.880643,-2
09:46:20.880643,-2049
09:46:20.880643,-1
09:46:20.880643,14
09:46:20.880643,11008
09:46:20.880643,0
09:46:20.880643,23
09:46:20.880643,1024
09:46:20.880643,0
09:46:20.880643,21
09:46:20.880643,5888
09:46:20.880643,0
09:46:20.880643,7
09:46:20.880643,512
09:46:20.880643,0
09:46:20.880643,9
09:46:20.880643,1024
09:46:20.880643,0
09:46:20.880643,-28
09:46:20.880643,-7681
09:46:20.880643,-1
09:46:20.880643,35
09:46:20.880643,18944
09:46:20.880643,0
09:46:20.880643,50
09:46:20.880643,10240
09:46:20.880643,0
09:46:20.880643,38
09:46:20.880643,5888
09:46:20.880643,0
09:46:20.880643,7
09:46:20.880643,1024
09:46:20.880643,0
09:46:20.880643,19
09:46:21.430266,33
09:46:21.430266,7936
09:46:21.430266,0
09:46:21.430266,7
09:46:21.430266,25856
09:46:21.430266,-1
09:46:21.430266,-498
09:46:21.430266,13055
09:46:21.430266,-2
09:46:21.430266,532
09:46:21.430266,-1280
09:46:21.430266,5
09:46:21.430266,1334
09:46:21.430266,28416
09:46:21.430266,2
09:46:21.430266,270
09:46:21.430266,16384
09:46:21.430266,0
09:46:21.430266,-105
09:46:21.430266,29695
09:46:21.430266,-1
09:46:21.430266,-134
09:46:21.430266,27903
09:46:21.430266,-1
09:46:21.430266,-162
09:46:21.430266,24831
09:46:21.430266,-1
09:46:21.430266,-131
09:46:21.430266,32767
09:46:21.430266,-1
09:46:21.430266,-158
09:46:21.430266,21759
09:46:21.430266,-1
09:46:21.430266,-158
09:46:21.430266,30975
09:46:21.430266,-1
09:46:21.430266,-143
09:46:21.430266,23039
09:46:21.430266,-1
09:46:21.430266,-186
09:46:21.430266,17407
09:46:21.430266,-1
09:46:21.430266,-177
09:46:21.430266,21759
09:46:21.430266,-1
09:46:21.430266,-172
09:46:21.430266,22271
09:46:21.430266,-1
09:46:21.430266,-167
09:46:21.430266,26111
09:46:21.430266,-1
09:46:21.430266,-141
09:46:21.430266,-28417
09:46:21.430266,-1
09:46:21.430266,-74
09:46:21.430266,-20481
09:46:21.430266,-1
09:46:21.430266,-62
09:46:21.430266,-2049
09:46:21.430266,-1
09:46:21.430266,-23
09:46:21.430266,-7681
09:46:21.430266,-1
09:46:21.430266,4
09:46:21.430266,-3584
09:46:21.430266,-1
09:46:21.430266,-57
09:46:21.430266,-5121
09:46:21.430266,-1
09:46:21.430266,26
09:46:21.430266,-7168
09:46:21.430266,-1
09:46:21.430266,-62
09:46:21.430266,3839
09:46:21.430266,0
09:46:21.430266,35
09:46:21.430266,-7168
09:46:21.430266,-1
09:46:21.430266,-38
09:46:21.430266,-257
09:46:21.430266,-1
09:46:21.430266,-2
09:46:21.430266,-6401
09:46:21.430266,-1
09:46:21.430266,-21
09:46:21.430266,255
09:46:21.430266,0
09:46:21.430266,4
09:46:21.430266,-3584
09:46:21.430266,-1
09:46:21.430266,-19
09:46:21.430266,767
09:46:21.430266,0
09:46:21.430266,0
09:46:21.430266,-7168
09:46:21.430266,-1
09:46:21.430266,-35
09:46:21.430266,767
09:46:21.430266,0
09:46:21.430266,64
09:46:21.430266,11520
09:46:21.430266,0
09:46:21.430266,-28
09:46:21.430266,-3841
09:46:21.430266,-1
09:46:21.430266,26
09:46:21.430266,1792
09:46:21.430266,0
09:46:21.430266,-31
09:46:22.030161,-16
09:46:22.030161,11775
09:46:22.030161,0
09:46:22.030161,38
09:46:22.030161,-6656
09:46:22.030161,-1
09:46:22.030161,-2
09:46:22.030161,4351
09:46:22.030161,0
09:46:22.030161,-52
09:46:22.030161,-19201
09:46:22.030161,-1
09:46:22.030161,21
09:46:22.030161,25600
09:46:22.030161,0
09:46:22.030161,67
09:46:22.030161,11008
09:46:22.030161,0
09:46:22.030161,55
09:46:22.030161,7168
09:46:22.030161,0
09:46:22.030161,33
09:46:22.030161,11008
09:46:22.030161,0
09:46:22.030161,0
09:46:22.030161,-1792
09:46:22.030161,-1
09:46:22.030161,31
09:46:22.030161,-512
09:46:22.030161,-1
09:46:22.030161,-256
09:46:22.030161,-23041
09:46:22.030161,-3
09:46:22.030161,-321
09:46:22.030161,4863
09:46:22.030161,3
09:46:22.030161,1409
09:46:22.030161,-24320
09:46:22.030161,3
09:46:22.030161,445
09:46:22.030161,11520
09:46:22.030161,1
09:46:22.030161,21
09:46:22.030161,20224
09:46:22.030161,-1
09:46:22.030161,-107
09:46:22.030161,-23041
09:46:22.030161,-1
09:46:22.030161,-194
09:46:22.030161,16895
09:46:22.030161,-1
09:46:22.030161,-119
09:46:22.030161,29183
09:46:22.030161,-1
09:46:22.030161,-179
09:46:22.030161,28415
09:46:22.030161,-1
09:46:22.030161,-131
09:46:22.030161,25343
09:46:22.030161,-1
09:46:22.030161,-155
09:46:22.030161,30207
09:46:22.030161,-1
09:46:22.030161,-131
09:46:22.030161,30207
09:46:22.030161,-1
09:46:22.030161,-170
09:46:22.030161,21759
09:46:22.030161,-1
09:46:22.030161,-148
09:46:22.030161,27391
09:46:22.030161,-1
09:46:22.030161,-165
09:46:22.030161,26623
09:46:22.030161,-1
09:46:22.030161,-93
09:46:22.030161,-11777
09:46:22.030161,-1
09:46:22.030161,-67
09:46:22.030161,-23553
09:46:22.030161,-1
09:46:22.030161,-67
09:46:22.030161,-11265
09:46:22.030161,-1
09:46:22.030161,-67
09:46:22.030161,-17409
09:46:22.030161,-1
09:46:22.030161,-35
09:46:22.030161,-8193
09:46:22.030161,-1
09:46:22.030161,-40
09:46:22.030161,-10753
09:46:22.030161,-1
09:46:22.030161,-47
09:46:22.030161,-3841
09:46:22.030161,-1
09:46:22.030161,7
09:46:22.030161,-7936
09:46:22.030161,-1
09:46:22.030161,-47
09:46:22.030161,-3841
09:46:22.030161,-1
09:46:22.030161,-9
09:46:22.030161,-6401
09:46:22.030161,-1
09:46:22.030161,-31
09:46:22.030161,-6913
09:46:22.030161,-1
09:46:22.030161,-35
09:46:22.530512,-40
09:46:22.530512,-5121
09:46:22.530512,-1
09:46:22.530512,-9
09:46:22.530512,-8705
09:46:22.530512,-1
09:46:22.530512,-28
09:46:22.530512,8191
09:46:22.530512,0
09:46:22.530512,23
09:46:22.530512,-5376
09:46:22.530512,-1
09:46:22.530512,-11
09:46:22.530512,-257
09:46:22.530512,-1
09:46:22.530512,-11
09:46:22.530512,-2049
09:46:22.530512,-1
09:46:22.530512,-9
09:46:22.530512,-3329
09:46:22.530512,-1
09:46:22.530512,0
09:46:22.530512,1024
09:46:22.530512,0
09:46:22.530512,-28
09:46:22.530512,-8705
09:46:22.530512,-1
09:46:22.530512,-9
09:46:22.530512,4351
09:46:22.530512,0
09:46:22.530512,40
09:46:22.530512,7936
09:46:22.530512,0
09:46:22.530512,0
09:46:22.530512,-1024
09:46:22.530512,-1
09:46:22.530512,-4
09:46:22.530512,-3841
09:46:22.530512,-1
09:46:22.530512,0
09:46:22.530512,8448
09:46:22.530512,0
09:46:22.530512,9
09:46:22.530512,-5888
09:46:22.530512,-1
09:46:22.530512,-81
09:46:22.530512,-28673
09:46:22.530512,-2
09:46:22.530512,-591
09:46:22.530512,19711
09:46:22.530512,0
09:46:22.530512,1246
09:46:22.530512,-25856
09:46:22.530512,5
09:46:22.530512,757
09:46:22.530512,17664
09:46:22.530512,1
09:46:22.530512,134
09:46:22.530512,-25088
09:46:22.530512,-1
09:46:22.530512,-186
09:46:22.530512,24319
09:46:22.530512,-1
09:46:22.530512,-155
09:46:22.530512,25343
09:46:22.530512,-1
09:46:22.530512,-155
09:46:22.530512,21247
09:46:22.530512,-1
09:46:22.530512,-189
09:46:22.530512,21247
09:46:22.530512,-1
09:46:22.530512,-172
09:46:22.530512,19199
09:46:22.530512,-1
09:46:22.530512,-162
09:46:22.530512,29695
09:46:22.530512,-1
09:46:22.530512,-158
09:46:22.530512,16127
09:46:22.530512,-1
09:46:22.530512,-203
09:46:22.530512,18175
09:46:22.530512,-1
09:46:22.530512,-177
09:46:22.530512,16895
09:46:22.530512,-1
09:46:22.530512,-186
09:46:22.530512,23551
09:46:22.530512,-1
09:46:22.530512,-165
09:46:22.530512,26111
09:46:22.530512,-1
09:46:22.530512,-131
09:46:22.530512,-29185
09:46:22.530512,-1
09:46:22.530512,-88
09:46:22.530512,-11777
09:46:22.530512,-1
09:46:22.530512,-28
09:46:22.530512,-9473
09:46:22.530512,-1
09:46:22.530512,-33
09:46:22.530512,-769
09:46:22.530512,-1
09:46:22.530512,0
09:46:22.530512,-4096
09:46:22.530512,-1
09:46:22.530512,0
09:46:23.130942,14
09:46:23.130942,-2816
09:46:23.130942,-1
09:46:23.130942,-21
09:46:23.130942,255
09:46:23.130942,0
09:46:23.130942,4
09:46:23.130942,-512
09:46:23.130942,-1
09:46:23.130942,11
09:46:23.130942,2816
09:46:23.130942,0
09:46:23.130942,-16
09:46:23.130942,-2049
09:46:23.130942,-1
09:46:23.130942,33
09:46:23.130942,8960
09:46:23.130942,0
09:46:23.130942,7
09:46:23.130942,512
09:46:23.130942,0
09:46:23.130942,7
09:46:23.130942,2816
09:46:23.130942,0
09:46:23.130942,16
09:46:23.130942,5888
09:46:23.130942,0
09:46:23.130942,26
09:46:23.130942,512
09:46:23.130942,0
09:46:23.130942,-14
09:46:23.130942,5119
09:46:23.130942,0
09:46:23.130942,35
09:46:23.130942,5888
09:46:23.130942,0
09:46:23.130942,35
09:46:23.130942,8448
09:46:23.130942,0
09:46:23.130942,7
09:46:23.130942,512
09:46:23.130942,0
09:46:23.130942,7
09:46:23.130942,-1024
09:46:23.130942,-1
09:46:23.130942,-4
09:46:23.130942,767
09:46:23.130942,0
09:46:23.130942,11
09:46:23.130942,7936
09:46:23.130942,0
09:46:23.130942,14
09:46:23.130942,-1024
09:46:23.130942,-1
09:46:23.130942,16
09:46:23.130942,6656
09:46:23.130942,0
09:46:23.130942,2
09:46:23.130942,-6656
09:46:23.130942,-1
09:46:23.130942,-31
09:46:23.130942,-6401
09:46:23.130942,-1
09:46:23.130942,-28
09:46:23.130942,-1537
09:46:23.130942,-1
09:46:23.130942,50
09:46:23.130942,14080
09:46:23.130942,0
09:46:23.130942,0
09:46:23.130942,-5376
09:46:23.130942,-1
09:46:23.130942,7
09:46:23.130942,3584
09:46:23.130942,0
09:46:23.130942,-9
09:46:23.130942,-4609
09:46:23.130942,-1
09:46:23.130942,0
09:46:23.130942,4864
09:46:23.130942,0
09:46:23.130942,-21
09:46:23.130942,-257
09:46:23.130942,-2
09:46:23.130942,-603
09:46:23.130942,-12033
09:46:23.130942,-2
09:46:23.130942,905
09:46:23.130942,29440
09:46:23.130942,6
09:46:23.130942,1121
09:46:23.130942,-28160
09:46:23.130942,1
09:46:23.130942,150
09:46:23.130942,-1792
09:46:23.130942,-1
09:46:23.130942,-150
09:46:23.130942,19199
09:46:23.130942,-1
09:46:23.130942,-186
09:46:23.130942,16895
09:46:23.130942,-1
09:46:23.130942,-184
09:46:23.130942,18687
09:46:23.130942,-1
09:46:23.130942,-182
09:46:23.130942,19199
09:46:23.130942,-1
09:46:23.130942,-184
09:46:23.680626,-170
09:46:23.680626,25343
09:46:23.680626,-1
09:46:23.680626,-162
09:46:23.680626,19199
09:46:23.680626,-1
09:46:23.680626,-215
09:46:23.680626,13055
09:46:23.680626,-1
09:46:23.680626,-153
09:46:23.680626,21759
09:46:23.680626,-1
09:46:23.680626,-225
09:46:23.680626,14335
09:46:23.680626,-1
09:46:23.680626,-160
09:46:23.680626,24319
09:46:23.680626,-1
09:46:23.680626,-148
09:46:23.680626,-26113
09:46:23.680626,-1
09:46:23.680626,-95
09:46:23.680626,-27905
09:46:23.680626,-1
09:46:23.680626,-83
09:46:23.680626,-12545
09:46:23.680626,-1
09:46:23.680626,-33
09:46:23.680626,-3841
09:46:23.680626,-1
09:46:23.680626,-11
09:46:23.680626,-2561
09:46:23.680626,-1
09:46:23.680626,-4
09:46:23.680626,255
09:46:23.680626,0
09:46:23.680626,-7
09:46:23.680626,-3329
09:46:23.680626,-1
09:46:23.680626,-9
09:46:23.680626,2559
09:46:23.680626,0
09:46:23.680626,23
09:46:23.680626,3584
09:46:23.680626,0
09:46:23.680626,7
09:46:23.680626,1792
09:46:23.680626,0
09:46:23.680626,-2
09:46:23.680626,-769
09:46:23.680626,-1
09:46:23.680626,-4
09:46:23.680626,-257
09:46:23.680626,-1
09:46:23.680626,2
09:46:23.680626,0
09:46:23.680626,0
09:46:23.680626,-4
09:46:23.680626,767
09:46:23.680626,0
09:46:23.680626,21
09:46:23.680626,8960
09:46:23.680626,0
09:46:23.680626,14
09:46:23.680626,-1792
09:46:23.680626,-1
09:46:23.680626,4
09:46:23.680626,5376
09:46:23.680626,0
09:46:23.680626,14
09:46:23.680626,-1792
09:46:23.680626,-1
09:46:23.680626,-19
09:46:23.680626,-1537
09:46:23.680626,-1
09:46:23.680626,23
09:46:23.680626,4864
09:46:23.680626,0
09:46:23.680626,-4
09:46:23.680626,3839
09:46:23.680626,0
09:46:23.680626,26
09:46:23.680626,-1792
09:46:23.680626,-1
09:46:23.680626,-23
09:46:23.680626,-7681
09:46:23.680626,-1
09:46:23.680626,-31
09:46:23.680626,767
09:46:23.680626,0
09:46:23.680626,2
09:46:23.680626,-2816
09:46:23.680626,-1
09:46:23.680626,16
09:46:23.680626,7168
09:46:23.680626,0
09:46:23.680626,7
09:46:23.680626,512
09:46:23.680626,0
09:46:23.680626,11
09:46:23.680626,2304
09:46:23.680626,0
09:46:23.680626,-4
09:46:23.680626,-5121
09:46:23.680626,-1
09:46:23.680626,-16
09:46:23.680626,767
09:46:23.680626,0
09:46:23.680626,-141
09:46:24.326421,-493
09:46:24.326421,3839
09:46:24.326421,-2
09:46:24.326421,366
09:46:24.326421,-5632
09:46:24.326421,4
09:46:24.326421,1114
09:46:24.326421,2560
09:46:24.326421,2
09:46:24.326421,268
09:46:24.326421,25600
09:46:24.326421,0
09:46:24.326421,-91
09:46:24.326421,-32257
09:46:24.326421,-1
09:46:24.326421,-124
09:46:24.326421,26111
09:46:24.326421,-1
09:46:24.326421,-150
09:46:24.326421,30975
09:46:24.326421,-1
09:46:24.326421,-136
09:46:24.326421,31487
09:46:24.326421,-1
09:46:24.326421,-143
09:46:24.326421,27903
09:46:24.326421,-1
09:46:24.326421,-131
09:46:24.326421,30207
09:46:24.326421,-1
09:46:24.326421,-150
09:46:24.326421,32767
09:46:24.326421,-1
09:46:24.326421,-122
09:46:24.326421,30207
09:46:24.326421,-1
09:46:24.326421,-143
09:46:24.326421,30207
09:46:24.326421,-1
09:46:24.326421,-134
09:46:24.326421,32767
09:46:24.326421,-1
09:46:24.326421,-124
09:46:24.326421,-27905
09:46:24.326421,-1
09:46:24.326421,-98
09:46:24.326421,-21761
09:46:24.326421,-1
09:46:24.326421,-76
09:46:24.326421,-16129
09:46:24.326421,-1
09:46:24.326421,-40
09:46:24.326421,-5633
09:46:24.326421,-1
09:46:24.326421,-33
09:46:24.326421,-9473
09:46:24.326421,-1
09:46:24.326421,-31
09:46:24.326421,-5121
09:46:24.326421,-1
09:46:24.326421,-9
09:46:24.326421,-769
09:46:24.326421,-1
09:46:24.326421,-16
09:46:24.326421,-5633
09:46:24.326421,-1
09:46:24.326421,-16
09:46:24.326421,-2049
09:46:24.326421,-1
09:46:24.326421,-14
09:46:24.326421,-2049
09:46:24.326421,-1
09:46:24.326421,-11
09:46:24.326421,-3841
09:46:24.326421,-1
09:46:24.326421,-2
09:46:24.326421,3071
09:46:24.326421,0
09:46:24.326421,4
09:46:24.326421,-512
09:46:24.326421,-1
09:46:24.326421,2
09:46:24.326421,2816
09:46:24.326421,0
09:46:24.326421,16
09:46:24.326421,2304
09:46:24.326421,0
09:46:24.326421,9
09:46:24.326421,4096
09:46:24.326421,0
09:46:24.326421,19
09:46:24.326421,4096
09:46:24.326421,0
09:46:24.326421,9
09:46:24.326421,512
09:46:24.326421,0
09:46:24.326421,-4
09:46:24.326421,-1537
09:46:24.326421,-1
09:46:24.326421,-9
09:46:24.326421,767
09:46:24.326421,0
09:46:24.326421,43
09:46:24.326421,15104
09:46:24.326421,0
09:46:24.326421,23
09:46:24.326421,4096
09:46:24.326421,0
09:46:24.326421,38
09:46:24.880182,26
09:46:24.880182,4096
09:46:24.880182,0
09:46:24.880182,28
09:46:24.880182,4864
09:46:24.880182,0
09:46:24.880182,9
09:46:24.880182,-2816
09:46:24.880182,-1
09:46:24.880182,-201
09:46:24.880182,-4865
09:46:24.880182,-3
09:46:24.880182,-330
09:46:24.880182,-9985
09:46:24.880182,2
09:46:24.880182,1461
09:46:24.880182,10752
09:46:24.880182,4
09:46:24.880182,491
09:46:24.880182,4352
09:46:24.880182,1
09:46:24.880182,43
09:46:24.880182,-29952
09:46:24.880182,-1
09:46:24.880182,-105
09:46:24.880182,-30977
09:46:24.880182,-1
09:46:24.880182,-170
09:46:24.880182,29695
09:46:24.880182,-1
09:46:24.880182,-107
09:46:24.880182,-31489
09:46:24.880182,-1
09:46:24.880182,-134
09:46:24.880182,-30977
09:46:24.880182,-1
09:46:24.880182,-134
09:46:24.880182,26623
09:46:24.880182,-1
09:46:24.880182,-141
09:46:24.880182,32255
09:46:24.880182,-1
09:46:24.880182,-146
09:46:24.880182,28415
09:46:24.880182,-1
09:46:24.880182,-148
09:46:24.880182,21759
09:46:24.880182,-1
09:46:24.880182,-172
09:46:24.880182,25343
09:46:24.880182,-1
09:46:24.880182,-165
09:46:24.880182,23551
09:46:24.880182,-1
09:46:24.880182,-143
09:46:24.880182,-30209
09:46:24.880182,-1
09:46:24.880182,-105
09:46:24.880182,-22273
09:46:24.880182,-1
09:46:24.880182,-71
09:46:24.880182,-13825
09:46:24.880182,-1
09:46:24.880182,-35
09:46:24.880182,-5633
09:46:24.880182,-1
09:46:24.880182,-28
09:46:24.880182,-3841
09:46:24.880182,-1
09:46:24.880182,11
09:46:24.880182,512
09:46:24.880182,0
09:46:24.880182,-11
09:46:24.880182,-257
09:46:24.880182,-1
09:46:24.880182,-7
09:46:24.880182,-3329
09:46:24.880182,-1
09:46:24.880182,-9
09:46:24.880182,-257
09:46:24.880182,-1
09:46:24.880182,-9
09:46:24.880182,-3329
09:46:24.880182,-1
09:46:24.880182,-11
09:46:24.880182,-2561
09:46:24.880182,-1
09:46:24.880182,-9
09:46:24.880182,-1537
09:46:24.880182,-1
09:46:24.880182,-9
09:46:24.880182,-2049
09:46:24.880182,-1
09:46:24.880182,-4
09:46:24.880182,255
09:46:24.880182,0
09:46:24.880182,-4
09:46:24.880182,-769
09:46:24.880182,-1
09:46:24.880182,0
09:46:24.880182,512
09:46:24.880182,0
09:46:24.880182,4
09:46:24.880182,1024
09:46:24.880182,0
09:46:24.880182,0
09:46:24.880182,0
09:46:24.880182,0
09:46:24.880182,4
09:46:25.476271,-11
09:46:25.476271,-9985
09:46:25.476271,-1
09:46:25.476271,-31
09:46:25.476271,2047
09:46:25.476271,0
09:46:25.476271,23
09:46:25.476271,5376
09:46:25.476271,0
09:46:25.476271,16
09:46:25.476271,2816
09:46:25.476271,0
09:46:25.476271,7
09:46:25.476271,1792
09:46:25.476271,0
09:46:25.476271,9
09:46:25.476271,4096
09:46:25.476271,0
09:46:25.476271,9
09:46:25.476271,-1024
09:46:25.476271,-1
09:46:25.476271,-57
09:46:25.476271,-15617
09:46:25.476271,-2
09:46:25.476271,-587
09:46:25.476271,-8193
09:46:25.476271,-1
09:46:25.476271,1198
09:46:25.476271,8448
09:46:25.476271,6
09:46:25.476271,860
09:46:25.476271,10496
09:46:25.476271,1
09:46:25.476271,141
09:46:25.476271,-4096
09:46:25.476271,-1
09:46:25.476271,-153
09:46:25.476271,19199
09:46:25.476271,-1
09:46:25.476271,-189
09:46:25.476271,20479
09:46:25.476271,-1
09:46:25.476271,-165
09:46:25.476271,15103
09:46:25.476271,-1
09:46:25.476271,-203
09:46:25.476271,19199
09:46:25.476271,-1
09:46:25.476271,-194
09:46:25.476271,14335
09:46:25.476271,-1
09:46:25.476271,-177
09:46:25.476271,30207
09:46:25.476271,-1
09:46:25.476271,-131
09:46:25.476271,21247
09:46:25.476271,-1
09:46:25.476271,-213
09:46:25.476271,15103
09:46:25.476271,-1
09:46:25.476271,-186
09:46:25.476271,10751
09:46:25.476271,-1
09:46:25.476271,-232
09:46:25.476271,9471
09:46:25.476271,-1
09:46:25.476271,-198
09:46:25.476271,19967
09:46:25.476271,-1
09:46:25.476271,-143
09:46:25.476271,-26625
09:46:25.476271,-1
09:46:25.476271,-124
09:46:25.476271,-27137
09:46:25.476271,-1
09:46:25.476271,-31
09:46:25.476271,-11265
09:46:25.476271,-1
09:46:25.476271,-62
09:46:25.476271,-2561
09:46:25.476271,-1
09:46:25.476271,-19
09:46:25.476271,-769
09:46:25.476271,-1
09:46:25.476271,40
09:46:25.476271,-1792
09:46:25.476271,-1
09:46:25.476271,-28
09:46:25.476271,3839
09:46:25.476271,0
09:46:25.476271,0
09:46:25.476271,-5888
09:46:25.476271,-1
09:46:25.476271,-4
09:46:25.476271,-769
09:46:25.476271,-1
09:46:25.476271,-16
09:46:25.476271,-1537
09:46:25.476271,-1
09:46:25.476271,-4
09:46:25.476271,-3841
09:46:25.476271,-1
09:46:25.476271,-21
09:46:25.476271,2047
09:46:25.476271,0
09:46:25.476271,28
09:46:25.476271,1024
09:46:25.476271,0
09:46:25.476271,-4
09:46:25.930296,14
09:46:25.930296,1024
09:46:25.930296,0
09:46:25.930296,4
09:46:25.930296,8960
09:46:25.930296,0
09:46:25.930296,38
09:46:25.930296,2304
09:46:25.930296,0
09:46:25.930296,9
09:46:25.930296,5376
09:46:25.930296,0
09:46:25.930296,11
09:46:25.930296,-2816
09:46:25.930296,-1
09:46:25.930296,-21
09:46:25.930296,-2561
09:46:25.930296,-1
09:46:25.930296,16
09:46:25.930296,11008
09:46:25.930296,0
09:46:25.930296,31
09:46:25.930296,1024
09:46:25.930296,0
09:46:25.930296,14
09:46:25.930296,11008
09:46:25.930296,0
09:46:25.930296,47
09:46:25.930296,12032
09:46:25.930296,0
09:46:25.930296,31
09:46:25.930296,-2816
09:46:25.930296,-1
09:46:25.930296,28
09:46:25.930296,-1792
09:46:25.930296,-1
09:46:25.930296,-376
09:46:25.930296,1279
09:46:25.930296,-2
09:46:25.930296,376
09:46:25.930296,-22272
09:46:25.930296,5
09:46:25.930296,1354
09:46:25.930296,32512
09:46:25.930296,2
09:46:25.930296,285
09:46:25.930296,18176
09:46:25.930296,0
09:46:25.930296,-139
09:46:25.930296,26111
09:46:25.930296,-1
09:46:25.930296,-134
09:46:25.930296,22271
09:46:25.930296,-1
09:46:25.930296,-124
09:46:25.930296,-20481
09:46:25.930296,-1
09:46:25.930296,-148
09:46:25.930296,15615
09:46:25.930296,-1
09:46:25.930296,-158
09:46:25.930296,32767
09:46:25.930296,-1
09:46:25.930296,-165
09:46:25.930296,15615
09:46:25.930296,-1
09:46:25.930296,-186
09:46:25.930296,29695
09:46:25.930296,-1
09:46:25.930296,-103
09:46:25.930296,32255
09:46:25.930296,-1
09:46:25.930296,-184
09:46:25.930296,16127
09:46:25.930296,-1
09:46:25.930296,-186
09:46:25.930296,19967
09:46:25.930296,-1
09:46:25.930296,-165
09:46:25.930296,25343
09:46:25.930296,-1
09:46:25.930296,-141
09:46:25.930296,-29697
09:46:25.930296,-1
09:46:25.930296,-103
09:46:25.930296,-23041
09:46:25.930296,-1
09:46:25.930296,-74
09:46:25.930296,-16897
09:46:25.930296,-1
09:46:25.930296,-40
09:46:25.930296,-769
09:46:25.930296,-1
09:46:25.930296,-9
09:46:25.930296,-8705
09:46:25.930296,-1
09:46:25.930296,-21
09:46:25.930296,2047
09:46:25.930296,0
09:46:25.930296,-2
09:46:25.930296,-3329
09:46:25.930296,-1
09:46:25.930296,-11
09:46:25.930296,-3841
09:46:25.930296,-1
09:46:25.930296,-14
09:46:25.930296,767
09:46:25.930296,0
09:46:25.930296,0
09:46:26.636024,-7
09:46:26.636024,-1537
09:46:26.636024,-1
09:46:26.636024,-7
09:46:26.636024,-2049
09:46:26.636024,-1
09:46:26.636024,-9
09:46:26.636024,-1537
09:46:26.636024,-1
09:46:26.636024,-9
09:46:26.636024,-257
09:46:26.636024,-1
09:46:26.636024,21
09:46:26.636024,5888
09:46:26.636024,0
09:46:26.636024,2
09:46:26.636024,1792
09:46:26.636024,0
09:46:26.636024,23
09:46:26.636024,2816
09:46:26.636024,0
09:46:26.636024,0
09:46:26.636024,1024
09:46:26.636024,0
09:46:26.636024,-4
09:46:26.636024,-4609
09:46:26.636024,-1
09:46:26.636024,-4
09:46:26.636024,6143
09:46:26.636024,0
09:46:26.636024,40
09:46:26.636024,8960
09:46:26.636024,0
09:46:26.636024,14
09:46:26.636024,1024
09:46:26.636024,0
09:46:26.636024,9
09:46:26.636024,2816
09:46:26.636024,0
09:46:26.636024,11
09:46:26.636024,2816
09:46:26.636024,0
09:46:26.636024,11
09:46:26.636024,-2304
09:46:26.636024,-1
09:46:26.636024,-182
09:46:26.636024,3839
09:46:26.636024,-2
09:46:26.636024,-371
09:46:26.636024,13311
09:46:26.636024,2
09:46:26.636024,1272
09:46:26.636024,-16128
09:46:26.636024,3
09:46:26.636024,455
09:46:26.636024,5632
09:46:26.636024,1
09:46:26.636024,69
09:46:26.636024,-28160
09:46:26.636024,-1
09:46:26.636024,-115
09:46:26.636024,-29697
09:46:26.636024,-1
09:46:26.636024,-150
09:46:26.636024,30207
09:46:26.636024,-1
09:46:26.636024,-124
09:46:26.636024,32255
09:46:26.636024,-1
09:46:26.636024,-131
09:46:26.636024,-32257
09:46:26.636024,-1
09:46:26.636024,-129
09:46:26.636024,32767
09:46:26.636024,-1
09:46:26.636024,-124
09:46:26.636024,-32257
09:46:26.636024,-1
09:46:26.636024,-129
09:46:26.636024,32767
09:46:26.636024,-1
09:46:26.636024,-134
09:46:26.636024,29695
09:46:26.636024,-1
09:46:26.636024,-139
09:46:26.636024,-32257
09:46:26.636024,-1
09:46:26.636024,-115
09:46:26.636024,-27905
09:46:26.636024,-1
09:46:26.636024,-103
09:46:26.636024,-21761
09:46:26.636024,-1
09:46:26.636024,-64
09:46:26.636024,-13057
09:46:26.636024,-1
09:46:26.636024,-40
09:46:26.636024,-8193
09:46:26.636024,-1
09:46:26.636024,-33
09:46:26.636024,-5633
09:46:26.636024,-1
09:46:26.636024,-14
09:46:26.636024,-3841
09:46:26.636024,-1
09:46:26.636024,-14
09:46:26.636024,-3329
09:46:26.636024,-1
09:46:26.636024,-23
09:46:27.080066,-19
09:46:27.080066,-2049
09:46:27.080066,-1
09:46:27.080066,-14
09:46:27.080066,-3841
09:46:27.080066,-1
09:46:27.080066,-11
09:46:27.080066,-2049
09:46:27.080066,-1
09:46:27.080066,-9
09:46:27.080066,-257
09:46:27.080066,-1
09:46:27.080066,2
09:46:27.080066,0
09:46:27.080066,0
09:46:27.080066,0
09:46:27.080066,512
09:46:27.080066,0
09:46:27.080066,2
09:46:27.080066,1792
09:46:27.080066,0
09:46:27.080066,14
09:46:27.080066,2816
09:46:27.080066,0
09:46:27.080066,2
09:46:27.080066,-1024
09:46:27.080066,-1
09:46:27.080066,-11
09:46:27.080066,-2561
09:46:27.080066,-1
09:46:27.080066,2
09:46:27.080066,8448
09:46:27.080066,0
09:46:27.080066,55
09:46:27.080066,10240
09:46:27.080066,0
09:46:27.080066,19
09:46:27.080066,4864
09:46:27.080066,0
09:46:27.080066,26
09:46:27.080066,7168
09:46:27.080066,0
09:46:27.080066,31
09:46:27.080066,7168
09:46:27.080066,0
09:46:27.080066,23
09:46:27.080066,0
09:46:27.080066,0
09:46:27.080066,-167
09:46:27.080066,9983
09:46:27.080066,-2
09:46:27.080066,-345
09:46:27.080066,10239
09:46:27.080066,2
09:46:27.080066,1191
09:46:27.080066,23552
09:46:27.080066,3
09:46:27.080066,426
09:46:27.080066,14592
09:46:27.080066,1
09:46:27.080066,95
09:46:27.080066,-25088
09:46:27.080066,-1
09:46:27.080066,-93
09:46:27.080066,-25345
09:46:27.080066,-1
09:46:27.080066,-139
09:46:27.080066,-31489
09:46:27.080066,-1
09:46:27.080066,-115
09:46:27.080066,-32257
09:46:27.080066,-1
09:46:27.080066,-119
09:46:27.080066,-27137
09:46:27.080066,-1
09:46:27.080066,-110
09:46:27.080066,-27905
09:46:27.080066,-1
09:46:27.080066,-110
09:46:27.080066,-27905
09:46:27.080066,-1
09:46:27.080066,-112
09:46:27.080066,-29185
09:46:27.080066,-1
09:46:27.080066,-119
09:46:27.080066,-30977
09:46:27.080066,-1
09:46:27.080066,-129
09:46:27.080066,32255
09:46:27.080066,-1
09:46:27.080066,-122
09:46:27.080066,-27905
09:46:27.080066,-1
09:46:27.080066,-100
09:46:27.080066,-21761
09:46:27.080066,-1
09:46:27.080066,-71
09:46:27.080066,-14337
09:46:27.080066,-1
09:46:27.080066,-43
09:46:27.080066,-6913
09:46:27.080066,-1
09:46:27.080066,-26
09:46:27.080066,-6401
09:46:27.080066,-1
09:46:27.080066,-21
09:46:27.080066,-3329
09:46:27.080066,-1
09:46:27.080066,-14
09:46:27.630864,-14
09:46:27.630864,-2561
09:46:27.630864,-1
09:46:27.630864,-11
09:46:27.630864,-2561
09:46:27.630864,-1
09:46:27.630864,-11
09:46:27.630864,-1537
09:46:27.630864,-1
09:46:27.630864,-4
09:46:27.630864,-257
09:46:27.630864,-1
09:46:27.630864,0
09:46:27.630864,512
09:46:27.630864,0
09:46:27.630864,2
09:46:27.630864,2304
09:46:27.630864,0
09:46:27.630864,21
09:46:27.630864,6656
09:46:27.630864,0
09:46:27.630864,21
09:46:27.630864,4864
09:46:27.630864,0
09:46:27.630864,16
09:46:27.630864,2816
09:46:27.630864,0
09:46:27.630864,2
09:46:27.630864,-512
09:46:27.630864,-1
09:46:27.630864,-9
09:46:27.630864,-3841
09:46:27.630864,-1
09:46:27.630864,-9
09:46:27.630864,5119
09:46:27.630864,0
09:46:27.630864,45
09:46:27.630864,8448
09:46:27.630864,0
09:46:27.630864,14
09:46:27.630864,3584
09:46:27.630864,0
09:46:27.630864,16
09:46:27.630864,3584
09:46:27.630864,0
09:46:27.630864,16
09:46:27.630864,4864
09:46:27.630864,0
09:46:27.630864,16
09:46:27.630864,-3584
09:46:27.630864,-1
09:46:27.630864,-201
09:46:27.630864,-3585
09:46:27.630864,-3
09:46:27.630864,-347
09:46:27.630864,-12545
09:46:27.630864,2
09:46:27.630864,1490
09:46:27.630864,13824
09:46:27.630864,4
09:46:27.630864,460
09:46:27.630864,-4352
09:46:27.630864,0
09:46:27.630864,23
09:46:27.630864,28160
09:46:27.630864,-1
09:46:27.630864,-139
09:46:27.630864,30975
09:46:27.630864,-1
09:46:27.630864,-170
09:46:27.630864,24831
09:46:27.630864,-1
09:46:27.630864,-150
09:46:27.630864,25343
09:46:27.630864,-1
09:46:27.630864,-158
09:46:27.630864,26623
09:46:27.630864,-1
09:46:27.630864,-153
09:46:27.630864,25343
09:46:27.630864,-1
09:46:27.630864,-160
09:46:27.630864,24831
09:46:27.630864,-1
09:46:27.630864,-165
09:46:27.630864,21759
09:46:27.630864,-1
09:46:27.630864,-177
09:46:27.630864,19199
09:46:27.630864,-1
09:46:27.630864,-189
09:46:27.630864,17407
09:46:27.630864,-1
09:46:27.630864,-177
09:46:27.630864,24831
09:46:27.630864,-1
09:46:27.630864,-150
09:46:27.630864,30975
09:46:27.630864,-1
09:46:27.630864,-112
09:46:27.630864,-22273
09:46:27.630864,-1
09:46:27.630864,-69
09:46:27.630864,-12545
09:46:27.630864,-1
09:46:27.630864,-31
09:46:27.630864,-3841
09:46:27.630864,-1
09:46:27.630864,-4
09:46:28.180979,2
09:46:28.180979,1024
09:46:28.180979,0
09:46:28.180979,7
09:46:28.180979,1792
09:46:28.180979,0
09:46:28.180979,4
09:46:28.180979,2304
09:46:28.180979,0
09:46:28.180979,11
09:46:28.180979,2304
09:46:28.180979,0
09:46:28.180979,7
09:46:28.180979,1024
09:46:28.180979,0
09:46:28.180979,9
09:46:28.180979,5376
09:46:28.180979,0
09:46:28.180979,26
09:46:28.180979,5376
09:46:28.180979,0
09:46:28.180979,21
09:46:28.180979,5888
09:46:28.180979,0
09:46:28.180979,23
09:46:28.180979,5376
09:46:28.180979,0
09:46:28.180979,21
09:46:28.180979,4864
09:46:28.180979,0
09:46:28.180979,14
09:46:28.180979,1792
09:46:28.180979,0
09:46:28.180979,-2
09:46:28.180979,-2049
09:46:28.180979,-1
09:46:28.180979,-4
09:46:28.180979,3839
09:46:28.180979,0
09:46:28.180979,45
09:46:28.180979,12032
09:46:28.180979,0
09:46:28.180979,23
09:46:28.180979,3584
09:46:28.180979,0
09:46:28.180979,21
09:46:28.180979,5376
09:46:28.180979,0
09:46:28.180979,21
09:46:28.180979,6656
09:46:28.180979,0
09:46:28.180979,26
09:46:28.180979,5376
09:46:28.180979,0
09:46:28.180979,-67
09:46:28.180979,-28673
09:46:28.180979,-2
09:46:28.180979,-544
09:46:28.180979,-18177
09:46:28.180979,0
09:46:28.180979,1363
09:46:28.180979,-11008
09:46:28.180979,5
09:46:28.180979,742
09:46:28.180979,8448
09:46:28.180979,1
09:46:28.180979,110
09:46:28.180979,-25088
09:46:28.180979,-1
09:46:28.180979,-170
09:46:28.180979,27903
09:46:28.180979,-1
09:46:28.180979,-167
09:46:28.180979,20479
09:46:28.180979,-1
09:46:28.180979,-162
09:46:28.180979,23551
09:46:28.180979,-1
09:46:28.180979,-174
09:46:28.180979,23039
09:46:28.180979,-1
09:46:28.180979,-162
09:46:28.180979,23039
09:46:28.180979,-1
09:46:28.180979,-170
09:46:28.180979,21759
09:46:28.180979,-1
09:46:28.180979,-179
09:46:28.180979,18687
09:46:28.180979,-1
09:46:28.180979,-184
09:46:28.180979,16895
09:46:28.180979,-1
09:46:28.180979,-206
09:46:28.180979,13823
09:46:28.180979,-1
09:46:28.180979,-191
09:46:28.180979,19199
09:46:28.180979,-1
09:46:28.180979,-170
09:46:28.180979,27391
09:46:28.180979,-1
09:46:28.180979,-136
09:46:28.180979,-31489
09:46:28.180979,-1
09:46:28.180979,-95
09:46:28.180979,-15617
09:46:28.180979,-1
09:46:28.180979,-43
09:46:28.780594,-31
09:46:28.780594,-4609
09:46:28.780594,-1
09:46:28.780594,-2
09:46:28.780594,1279
09:46:28.780594,0
09:46:28.780594,-2
09:46:28.780594,-769
09:46:28.780594,-1
09:46:28.780594,-2
09:46:28.780594,255
09:46:28.780594,0
09:46:28.780594,2
09:46:28.780594,2816
09:46:28.780594,0
09:46:28.780594,19
09:46:28.780594,1792
09:46:28.780594,0
09:46:28.780594,2
09:46:28.780594,6656
09:46:28.780594,0
09:46:28.780594,33
09:46:28.780594,4864
09:46:28.780594,0
09:46:28.780594,16
09:46:28.780594,5376
09:46:28.780594,0
09:46:28.780594,16
09:46:28.780594,4096
09:46:28.780594,0
09:46:28.780594,21
09:46:28.780594,5376
09:46:28.780594,0
09:46:28.780594,21
09:46:28.780594,7168
09:46:28.780594,0
09:46:28.780594,21
09:46:28.780594,2304
09:46:28.780594,0
09:46:28.780594,9
09:46:28.780594,1024
09:46:28.780594,0
09:46:28.780594,-2
09:46:28.780594,2047
09:46:28.780594,0
09:46:28.780594,33
09:46:28.780594,12800
09:46:28.780594,0
09:46:28.780594,40
09:46:28.780594,4864
09:46:28.780594,0
09:46:28.780594,21
09:46:28.780594,6656
09:46:28.780594,0
09:46:28.780594,26
09:46:28.780594,6656
09:46:28.780594,0
09:46:28.780594,26
09:46:28.780594,5376
09:46:28.780594,0
09:46:28.780594,2
09:46:28.780594,26368
09:46:28.780594,-1
09:46:28.780594,-481
09:46:28.780594,27647
09:46:28.780594,-2
09:46:28.780594,608
09:46:28.780594,-1792
09:46:28.780594,5
09:46:28.780594,1215
09:46:28.780594,-5376
09:46:28.780594,1
09:46:28.780594,213
09:46:28.780594,8960
09:46:28.780594,0
09:46:28.780594,-148
09:46:28.780594,23551
09:46:28.780594,-1
09:46:28.780594,-148
09:46:28.780594,21247
09:46:28.780594,-1
09:46:28.780594,-174
09:46:28.780594,24831
09:46:28.780594,-1
09:46:28.780594,-167
09:46:28.780594,21247
09:46:28.780594,-1
09:46:28.780594,-167
09:46:28.780594,23551
09:46:28.780594,-1
09:46:28.780594,-170
09:46:28.780594,21759
09:46:28.780594,-1
09:46:28.780594,-170
09:46:28.780594,22271
09:46:28.780594,-1
09:46:28.780594,-174
09:46:28.780594,18175
09:46:28.780594,-1
09:46:28.780594,-191
09:46:28.780594,17407
09:46:28.780594,-1
09:46:28.780594,-189
09:46:28.780594,18687
09:46:28.780594,-1
09:46:28.780594,-170
09:46:28.780594,26111
09:46:28.780594,-1
09:46:28.780594,-139
09:46:29.281657,-119
09:46:29.281657,-25345
09:46:29.281657,-1
09:46:29.281657,-79
09:46:29.281657,-14337
09:46:29.281657,-1
09:46:29.281657,-40
09:46:29.281657,-8193
09:46:29.281657,-1
09:46:29.281657,-23
09:46:29.281657,-2561
09:46:29.281657,-1
09:46:29.281657,-4
09:46:29.281657,-769
09:46:29.281657,-1
09:46:29.281657,-7
09:46:29.281657,-257
09:46:29.281657,-1
09:46:29.281657,0
09:46:29.281657,0
09:46:29.281657,0
09:46:29.281657,2
09:46:29.281657,2816
09:46:29.281657,0
09:46:29.281657,16
09:46:29.281657,4096
09:46:29.281657,0
09:46:29.281657,16
09:46:29.281657,3584
09:46:29.281657,0
09:46:29.281657,14
09:46:29.281657,5888
09:46:29.281657,0
09:46:29.281657,23
09:46:29.281657,5376
09:46:29.281657,0
09:46:29.281657,23
09:46:29.281657,6656
09:46:29.281657,0
09:46:29.281657,23
09:46:29.281657,5376
09:46:29.281657,0
09:46:29.281657,23
09:46:29.281657,5888
09:46:29.281657,0
09:46:29.281657,19
09:46:29.281657,2304
09:46:29.281657,0
09:46:29.281657,2
09:46:29.281657,-1024
09:46:29.281657,-1
09:46:29.281657,-7
09:46:29.281657,255
09:46:29.281657,0
09:46:29.281657,23
09:46:29.281657,10240
09:46:29.281657,0
09:46:29.281657,28
09:46:29.281657,2816
09:46:29.281657,0
09:46:29.281657,14
09:46:29.281657,4096
09:46:29.281657,0
09:46:29.281657,14
09:46:29.281657,4096
09:46:29.281657,0
09:46:29.281657,16
09:46:29.281657,2816
09:46:29.281657,0
09:46:29.281657,-26
09:46:29.281657,8191
09:46:29.281657,-1
09:46:29.281657,-522
09:46:29.281657,5887
09:46:29.281657,-1
09:46:29.281657,831
09:46:29.281657,-30720
09:46:29.281657,5
09:46:29.281657,922
09:46:29.281657,30720
09:46:29.281657,1
09:46:29.281657,191
09:46:29.281657,-3584
09:46:29.281657,-1
09:46:29.281657,-155
09:46:29.281657,29695
09:46:29.281657,-1
09:46:29.281657,-150
09:46:29.281657,19967
09:46:29.281657,-1
09:46:29.281657,-170
09:46:29.281657,24319
09:46:29.281657,-1
09:46:29.281657,-170
09:46:29.281657,23039
09:46:29.281657,-1
09:46:29.281657,-160
09:46:29.281657,24319
09:46:29.281657,-1
09:46:29.281657,-165
09:46:29.281657,25343
09:46:29.281657,-1
09:46:29.281657,-162
09:46:29.281657,21759
09:46:29.281657,-1
09:46:29.281657,-170
09:46:29.281657,22271
09:46:29.281657,-1
09:46:29.281657,-179
09:46:29.927832,-179
09:46:29.927832,21759
09:46:29.927832,-1
09:46:29.927832,-162
09:46:29.927832,26623
09:46:29.927832,-1
09:46:29.927832,-139
09:46:29.927832,-29697
09:46:29.927832,-1
09:46:29.927832,-88
09:46:29.927832,-14849
09:46:29.927832,-1
09:46:29.927832,-43
09:46:29.927832,-8705
09:46:29.927832,-1
09:46:29.927832,-31
09:46:29.927832,-5633
09:46:29.927832,-1
09:46:29.927832,-16
09:46:29.927832,-2049
09:46:29.927832,-1
09:46:29.927832,-7
09:46:29.927832,-1537
09:46:29.927832,-1
09:46:29.927832,-11
09:46:29.927832,-2561
09:46:29.927832,-1
09:46:29.927832,-9
09:46:29.927832,-769
09:46:29.927832,-1
09:46:29.927832,-4
09:46:29.927832,-257
09:46:29.927832,-1
09:46:29.927832,-2
09:46:29.927832,-257
09:46:29.927832,-1
09:46:29.927832,0
09:46:29.927832,512
09:46:29.927832,0
09:46:29.927832,4
09:46:29.927832,1792
09:46:29.927832,0
09:46:29.927832,11
09:46:29.927832,4096
09:46:29.927832,0
09:46:29.927832,11
09:46:29.927832,2304
09:46:29.927832,0
09:46:29.927832,11
09:46:29.927832,4096
09:46:29.927832,0
09:46:29.927832,14
09:46:29.927832,1792
09:46:29.927832,0
09:46:29.927832,4
09:46:29.927832,512
09:46:29.927832,0
09:46:29.927832,-7
09:46:29.927832,-2561
09:46:29.927832,-1
09:46:29.927832,-2
09:46:29.927832,5631
09:46:29.927832,0
09:46:29.927832,43
09:46:29.927832,8448
09:46:29.927832,0
09:46:29.927832,14
09:46:29.927832,4096
09:46:29.927832,0
09:46:29.927832,19
09:46:29.927832,3584
09:46:29.927832,0
09:46:29.927832,14
09:46:29.927832,4096
09:46:29.927832,0
09:46:29.927832,14
09:46:29.927832,-1024
09:46:29.927832,-1
09:46:29.927832,-155
09:46:29.927832,13055
09:46:29.927832,-2
09:46:29.927832,-393
09:46:29.927832,-11265
09:46:29.927832,1
09:46:29.927832,1176
09:46:29.927832,-32256
09:46:29.927832,3
09:46:29.927832,428
09:46:29.927832,11520
09:46:29.927832,1
09:46:29.927832,103
09:46:29.927832,-26880
09:46:29.927832,-1
09:46:29.927832,-110
09:46:29.927832,-27905
09:46:29.927832,-1
09:46:29.927832,-153
09:46:29.927832,28415
09:46:29.927832,-1
09:46:29.927832,-127
09:46:29.927832,30975
09:46:29.927832,-1
09:46:29.927832,-136
09:46:29.927832,-31489
09:46:29.927832,-1
09:46:29.927832,-122
09:46:29.927832,-32257
09:46:29.927832,-1
09:46:29.927832,-127
09:46:30.431815,-122
09:46:30.431815,-31489
09:46:30.431815,-1
09:46:30.431815,-127
09:46:30.431815,32767
09:46:30.431815,-1
09:46:30.431815,-134
09:46:30.431815,31487
09:46:30.431815,-1
09:46:30.431815,-129
09:46:30.431815,-29697
09:46:30.431815,-1
09:46:30.431815,-107
09:46:30.431815,-24833
09:46:30.431815,-1
09:46:30.431815,-81
09:46:30.431815,-14849
09:46:30.431815,-1
09:46:30.431815,-33
09:46:30.431815,-5633
09:46:30.431815,-1
09:46:30.431815,-23
09:46:30.431815,-5121
09:46:30.431815,-1
09:46:30.431815,-16
09:46:30.431815,-2561
09:46:30.431815,-1
09:46:30.431815,-11
09:46:30.431815,-2049
09:46:30.431815,-1
09:46:30.431815,-9
09:46:30.431815,-2049
09:46:30.431815,-1
09:46:30.431815,-11
09:46:30.431815,-769
09:46:30.431815,-1
09:46:30.431815,-4
09:46:30.431815,-1537
09:46:30.431815,-1
09:46:30.431815,2
09:46:30.431815,1792
09:46:30.431815,0
09:46:30.431815,7
09:46:30.431815,2304
09:46:30.431815,0
09:46:30.431815,11
09:46:30.431815,3584
09:46:30.431815,0
09:46:30.431815,14
09:46:30.431815,2816
09:46:30.431815,0
09:46:30.431815,11
09:46:30.431815,3584
09:46:30.431815,0
09:46:30.431815,11
09:46:30.431815,3584
09:46:30.431815,0
09:46:30.431815,23
09:46:30.431815,5888
09:46:30.431815,0
09:46:30.431815,14
09:46:30.431815,1792
09:46:30.431815,0
09:46:30.431815,-2
09:46:30.431815,-2049
09:46:30.431815,-1
09:46:30.431815,-16
09:46:30.431815,-2049
09:46:30.431815,-1
09:46:30.431815,16
09:46:30.431815,11008
09:46:30.431815,0
09:46:30.431815,35
09:46:30.431815,2816
09:46:30.431815,0
09:46:30.431815,11
09:46:30.431815,4864
09:46:30.431815,0
09:46:30.431815,16
09:46:30.431815,4096
09:46:30.431815,0
09:46:30.431815,19
09:46:30.431815,4096
09:46:30.431815,0
09:46:30.431815,-9
09:46:30.431815,22271
09:46:30.431815,-1
09:46:30.431815,-488
09:46:30.431815,28415
09:46:30.431815,-2
09:46:30.431815,572
09:46:30.431815,-32000
09:46:30.431815,5
09:46:30.431815,1095
09:46:30.431815,-11008
09:46:30.431815,1
09:46:30.431815,246
09:46:30.431815,12800
09:46:30.431815,0
09:46:30.431815,-136
09:46:30.431815,29183
09:46:30.431815,-1
09:46:30.431815,-136
09:46:30.431815,22271
09:46:30.431815,-1
09:46:30.431815,-162
09:46:30.431815,28415
09:46:30.431815,-1
09:46:30.431815,-153
09:46:30.982126,-158
09:46:30.982126,26623
09:46:30.982126,-1
09:46:30.982126,-150
09:46:30.982126,27903
09:46:30.982126,-1
09:46:30.982126,-146
09:46:30.982126,26623
09:46:30.982126,-1
09:46:30.982126,-158
09:46:30.982126,25343
09:46:30.982126,-1
09:46:30.982126,-165
09:46:30.982126,21759
09:46:30.982126,-1
09:46:30.982126,-167
09:46:30.982126,25343
09:46:30.982126,-1
09:46:30.982126,-148
09:46:30.982126,30207
09:46:30.982126,-1
09:46:30.982126,-124
09:46:30.982126,-27137
09:46:30.982126,-1
09:46:30.982126,-91
09:46:30.982126,-17921
09:46:30.982126,-1
09:46:30.982126,-52
09:46:30.982126,-9473
09:46:30.982126,-1
09:46:30.982126,-26
09:46:30.982126,-3841
09:46:30.982126,-1
09:46:30.982126,-11
09:46:30.982126,-2049
09:46:30.982126,-1
09:46:30.982126,-7
09:46:30.982126,-769
09:46:30.982126,-1
09:46:30.982126,-7
09:46:30.982126,-1537
09:46:30.982126,-1
09:46:30.982126,-4
09:46:30.982126,-769
09:46:30.982126,-1
09:46:30.982126,-2
09:46:30.982126,767
09:46:30.982126,0
09:46:30.982126,0
09:46:30.982126,-512
09:46:30.982126,-1
09:46:30.982126,0
09:46:30.982126,0
09:46:30.982126,0
09:46:30.982126,2
09:46:30.982126,1792
09:46:30.982126,0
09:46:30.982126,4
09:46:30.982126,512
09:46:30.982126,0
09:46:30.982126,2
09:46:30.982126,2304
09:46:30.982126,0
09:46:30.982126,11
09:46:30.982126,2816
09:46:30.982126,0
09:46:30.982126,11
09:46:30.982126,4096
09:46:30.982126,0
09:46:30.982126,19
09:46:30.982126,4096
09:46:30.982126,0
09:46:30.982126,9
09:46:30.982126,1792
09:46:30.982126,0
09:46:30.982126,2
09:46:30.982126,-1024
09:46:30.982126,-1
09:46:30.982126,-9
09:46:30.982126,255
09:46:30.982126,0
09:46:30.982126,23
09:46:30.982126,11008
09:46:30.982126,0
09:46:30.982126,33
09:46:30.982126,2816
09:46:30.982126,0
09:46:30.982126,9
09:46:30.982126,3584
09:46:30.982126,0
09:46:30.982126,11
09:46:30.982126,3584
09:46:30.982126,0
09:46:30.982126,16
09:46:30.982126,3584
09:46:30.982126,0
09:46:30.982126,-11
09:46:30.982126,12543
09:46:30.982126,-1
09:46:30.982126,-529
09:46:30.982126,-10753
09:46:30.982126,-2
09:46:30.982126,781
09:46:30.982126,-14080
09:46:30.982126,5
09:46:30.982126,1023
09:46:30.982126,-23808
09:46:30.982126,1
09:46:30.982126,208
09:46:31.530742,4
09:46:31.530742,27648
09:46:31.530742,-1
09:46:31.530742,-143
09:46:31.530742,27903
09:46:31.530742,-1
09:46:31.530742,-177
09:46:31.530742,23551
09:46:31.530742,-1
09:46:31.530742,-160
09:46:31.530742,21759
09:46:31.530742,-1
09:46:31.530742,-165
09:46:31.530742,28415
09:46:31.530742,-1
09:46:31.530742,-141
09:46:31.530742,28415
09:46:31.530742,-1
09:46:31.530742,-143
09:46:31.530742,28415
09:46:31.530742,-1
09:46:31.530742,-155
09:46:31.530742,23551
09:46:31.530742,-1
09:46:31.530742,-165
09:46:31.530742,22271
09:46:31.530742,-1
09:46:31.530742,-177
09:46:31.530742,20479
09:46:31.530742,-1
09:46:31.530742,-167
09:46:31.530742,26623
09:46:31.530742,-1
09:46:31.530742,-136
09:46:31.530742,-30977
09:46:31.530742,-1
09:46:31.530742,-107
09:46:31.530742,-20993
09:46:31.530742,-1
09:46:31.530742,-64
09:46:31.530742,-13825
09:46:31.530742,-1
09:46:31.530742,-43
09:46:31.530742,-6401
09:46:31.530742,-1
09:46:31.530742,-16
09:46:31.530742,-4609
09:46:31.530742,-1
09:46:31.530742,-16
09:46:31.530742,-1537
09:46:31.530742,-1
09:46:31.530742,-9
09:46:31.530742,-2049
09:46:31.530742,-1
09:46:31.530742,-2
09:46:31.530742,-1537
09:46:31.530742,-1
09:46:31.530742,-11
09:46:31.530742,-2049
09:46:31.530742,-1
09:46:31.530742,-9
09:46:31.530742,-2049
09:46:31.530742,-1
09:46:31.530742,-4
09:46:31.530742,-257
09:46:31.530742,-1
09:46:31.530742,-2
09:46:31.530742,255
09:46:31.530742,0
09:46:31.530742,-2
09:46:31.530742,255
09:46:31.530742,0
09:46:31.530742,2
09:46:31.530742,512
09:46:31.530742,0
09:46:31.530742,0
09:46:31.530742,1792
09:46:31.530742,0
09:46:31.530742,9
09:46:31.530742,1792
09:46:31.530742,0
09:46:31.530742,9
09:46:31.530742,2816
09:46:31.530742,0
09:46:31.530742,11
09:46:31.530742,2304
09:46:31.530742,0
09:46:31.530742,7
09:46:31.530742,0
09:46:31.530742,0
09:46:31.530742,-9
09:46:31.530742,-3841
09:46:31.530742,-1
09:46:31.530742,-19
09:46:31.530742,-769
09:46:31.530742,-1
09:46:31.530742,16
09:46:31.530742,7168
09:46:31.530742,0
09:46:31.530742,21
09:46:31.530742,1024
09:46:31.530742,0
09:46:31.530742,0
09:46:31.530742,0
09:46:31.530742,0
09:46:31.530742,0
09:46:31.530742,0
09:46:31.530742,0
09:46:31.530742,2
09:46:32.080458,-2
09:46:32.080458,-10753
09:46:32.080458,-1
09:46:32.080458,-256
09:46:32.080458,-10241
09:46:32.080458,-3
09:46:32.080458,-227
09:46:32.080458,22015
09:46:32.080458,3
09:46:32.080458,1399
09:46:32.080458,-29184
09:46:32.080458,3
09:46:32.080458,400
09:46:32.080458,-14848
09:46:32.080458,0
09:46:32.080458,-19
09:46:32.080458,29695
09:46:32.080458,-1
09:46:32.080458,-131
09:46:32.080458,27391
09:46:32.080458,-1
09:46:32.080458,-172
09:46:32.080458,26111
09:46:32.080458,-1
09:46:32.080458,-153
09:46:32.080458,24831
09:46:32.080458,-1
09:46:32.080458,-155
09:46:32.080458,26111
09:46:32.080458,-1
09:46:32.080458,-158
09:46:32.080458,25343
09:46:32.080458,-1
09:46:32.080458,-158
09:46:32.080458,25343
09:46:32.080458,-1
09:46:32.080458,-162
09:46:32.080458,23039
09:46:32.080458,-1
09:46:32.080458,-172
09:46:32.080458,20479
09:46:32.080458,-1
09:46:32.080458,-177
09:46:32.080458,21247
09:46:32.080458,-1
09:46:32.080458,-162
09:46:32.080458,28415
09:46:32.080458,-1
09:46:32.080458,-131
09:46:32.080458,-30209
09:46:32.080458,-1
09:46:32.080458,-103
09:46:32.080458,-19201
09:46:32.080458,-1
09:46:32.080458,-59
09:46:32.080458,-13057
09:46:32.080458,-1
09:46:32.080458,-43
09:46:32.080458,-8193
09:46:32.080458,-1
09:46:32.080458,-28
09:46:32.080458,-5121
09:46:32.080458,-1
09:46:32.080458,-16
09:46:32.080458,-4609
09:46:32.080458,-1
09:46:32.080458,-23
09:46:32.080458,-5121
09:46:32.080458,-1
09:46:32.080458,-16
09:46:32.080458,-3329
09:46:32.080458,-1
09:46:32.080458,-14
09:46:32.080458,-2049
09:46:32.080458,-1
09:46:32.080458,-2
09:46:32.080458,255
09:46:32.080458,0
09:46:32.080458,0
09:46:32.080458,512
09:46:32.080458,0
09:46:32.080458,2
09:46:32.080458,0
09:46:32.080458,0
09:46:32.080458,7
09:46:32.080458,3584
09:46:32.080458,0
09:46:32.080458,9
09:46:32.080458,2304
09:46:32.080458,0
09:46:32.080458,16
09:46:32.080458,2816
09:46:32.080458,0
09:46:32.080458,9
09:46:32.080458,2816
09:46:32.080458,0
09:46:32.080458,16
09:46:32.080458,4864
09:46:32.080458,0
09:46:32.080458,16
09:46:32.080458,4864
09:46:32.080458,0
09:46:32.080458,19
09:46:32.080458,2304
09:46:32.080458,0
09:46:32.080458,2
09:46:32.080458,-1024
09:46:32.080458,-1
09:46:32.080458,-9
09:46:32.631497,-2
09:46:32.631497,4351
09:46:32.631497,0
09:46:32.631497,40
09:46:32.631497,9728
09:46:32.631497,0
09:46:32.631497,19
09:46:32.631497,2304
09:46:32.631497,0
09:46:32.631497,19
09:46:32.631497,7936
09:46:32.631497,0
09:46:32.631497,31
09:46:32.631497,7168
09:46:32.631497,0
09:46:32.631497,26
09:46:32.631497,2816
09:46:32.631497,0
09:46:32.631497,-81
09:46:32.631497,-29185
09:46:32.631497,-2
09:46:32.631497,-520
09:46:32.631497,-29697
09:46:32.631497,0
09:46:32.631497,1102
09:46:32.631497,30976
09:46:32.631497,4
09:46:32.631497,594
09:46:32.631497,20736
09:46:32.631497,1
09:46:32.631497,172
09:46:32.631497,-14080
09:46:32.631497,-1
09:46:32.631497,-117
09:46:32.631497,-27137
09:46:32.631497,-1
09:46:32.631497,-139
09:46:32.631497,28415
09:46:32.631497,-1
09:46:32.631497,-131
09:46:32.631497,31487
09:46:32.631497,-1
09:46:32.631497,-131
09:46:32.631497,32767
09:46:32.631497,-1
09:46:32.631497,-131
09:46:32.631497,32767
09:46:32.631497,-1
09:46:32.631497,-127
09:46:32.631497,32767
09:46:32.631497,-1
09:46:32.631497,-134
09:46:32.631497,32255
09:46:32.631497,-1
09:46:32.631497,-134
09:46:32.631497,30207
09:46:32.631497,-1
09:46:32.631497,-139
09:46:32.631497,30975
09:46:32.631497,-1
09:46:32.631497,-129
09:46:32.631497,-29697
09:46:32.631497,-1
09:46:32.631497,-107
09:46:32.631497,-22273
09:46:32.631497,-1
09:46:32.631497,-74
09:46:32.631497,-15617
09:46:32.631497,-1
09:46:32.631497,-40
09:46:32.631497,-6913
09:46:32.631497,-1
09:46:32.631497,-33
09:46:32.631497,-7681
09:46:32.631497,-1
09:46:32.631497,-19
09:46:32.631497,-1537
09:46:32.631497,-1
09:46:32.631497,-4
09:46:32.631497,-769
09:46:32.631497,-1
09:46:32.631497,-4
09:46:32.631497,-1537
09:46:32.631497,-1
09:46:32.631497,-7
09:46:32.631497,-769
09:46:32.631497,-1
09:46:32.631497,-2
09:46:32.631497,767
09:46:32.631497,0
09:46:32.631497,2
09:46:32.631497,512
09:46:32.631497,0
09:46:32.631497,4
09:46:32.631497,1792
09:46:32.631497,0
09:46:32.631497,7
09:46:32.631497,2816
09:46:32.631497,0
09:46:32.631497,16
09:46:32.631497,4096
09:46:32.631497,0
09:46:32.631497,9
09:46:32.631497,1792
09:46:32.631497,0
09:46:32.631497,14
09:46:32.631497,4096
09:46:32.631497,0
09:46:32.631497,11
09:46:33.230046,9
09:46:33.230046,3584
09:46:33.230046,0
09:46:33.230046,19
09:46:33.230046,3584
09:46:33.230046,0
09:46:33.230046,16
09:46:33.230046,7168
09:46:33.230046,0
09:46:33.230046,31
09:46:33.230046,5888
09:46:33.230046,0
09:46:33.230046,26
09:46:33.230046,7168
09:46:33.230046,0
09:46:33.230046,19
09:46:33.230046,3584
09:46:33.230046,0
09:46:33.230046,21
09:46:33.230046,6656
09:46:33.230046,0
09:46:33.230046,21
09:46:33.230046,4096
09:46:33.230046,0
09:46:33.230046,16
09:46:33.230046,4864
09:46:33.230046,0
09:46:33.230046,16
09:46:33.230046,2816
09:46:33.230046,0
09:46:33.230046,7
09:46:33.230046,0
09:46:33.230046,0
09:46:33.230046,-7
09:46:33.230046,-3329
09:46:33.230046,-1
09:46:33.230046,-11
09:46:33.230046,1279
09:46:33.230046,0
09:46:33.230046,31
09:46:33.230046,8448
09:46:33.230046,0
09:46:33.230046,14
09:46:33.230046,512
09:46:33.230046,0
09:46:33.230046,4
09:46:33.230046,1024
09:46:33.230046,0
09:46:33.230046,2
09:46:33.230046,1024
09:46:33.230046,0
09:46:33.230046,7
09:46:33.230046,1024
09:46:33.230046,0
09:46:33.230046,-81
09:46:33.230046,-29697
09:46:33.230046,-2
09:46:33.230046,-563
09:46:33.230046,27647
09:46:33.230046,0
09:46:33.230046,1234
09:46:33.230046,29952
09:46:33.230046,5
09:46:33.230046,726
09:46:33.230046,16640
09:46:33.230046,1
09:46:33.230046,143
09:46:33.230046,-20224
09:46:33.230046,-1
09:46:33.230046,-160
09:46:33.230046,30207
09:46:33.230046,-1
09:46:33.230046,-162
09:46:33.230046,21247
09:46:33.230046,-1
09:46:33.230046,-158
09:46:33.230046,25343
09:46:33.230046,-1
09:46:33.230046,-167
09:46:33.230046,24831
09:46:33.230046,-1
09:46:33.230046,-155
09:46:33.230046,25343
09:46:33.230046,-1
09:46:33.230046,-155
09:46:33.230046,26111
09:46:33.230046,-1
09:46:33.230046,-160
09:46:33.230046,23551
09:46:33.230046,-1
09:46:33.230046,-170
09:46:33.230046,21759
09:46:33.230046,-1
09:46:33.230046,-177
09:46:33.230046,19967
09:46:33.230046,-1
09:46:33.230046,-177
09:46:33.230046,22271
09:46:33.230046,-1
09:46:33.230046,-155
09:46:33.230046,30207
09:46:33.230046,-1
09:46:33.230046,-124
09:46:33.230046,-26625
09:46:33.230046,-1
09:46:33.230046,-88
09:46:33.230046,-17921
09:46:33.230046,-1
09:46:33.230046,-55
