timestamp,ecg,reconstructed_time
2025-11-07 09:46:02.980203,-45,2025-11-07 09:46:02.980203000
2025-11-07 09:46:02.980203,30207,2025-11-07 09:46:02.987895308
2025-11-07 09:46:02.980203,-1,2025-11-07 09:46:02.995587615
2025-11-07 09:46:02.980203,-155,2025-11-07 09:46:03.003279923
2025-11-07 09:46:02.980203,26111,2025-11-07 09:46:03.010972231
2025-11-07 09:46:02.980203,-1,2025-11-07 09:46:03.018664538
2025-11-07 09:46:02.980203,-160,2025-11-07 09:46:03.026356846
2025-11-07 09:46:02.980203,23039,2025-11-07 09:46:03.034049154
2025-11-07 09:46:02.980203,-1,2025-11-07 09:46:03.041741462
2025-11-07 09:46:02.980203,-158,2025-11-07 09:46:03.049433769
2025-11-07 09:46:02.980203,28415,2025-11-07 09:46:03.057126077
2025-11-07 09:46:02.980203,-1,2025-11-07 09:46:03.064818385
2025-11-07 09:46:02.980203,-150,2025-11-07 09:46:03.072510692
2025-11-07 09:46:02.980203,28415,2025-11-07 09:46:03.080203000
2025-11-07 09:46:02.980203,-1,2025-11-07 09:46:03.087895308
2025-11-07 09:46:02.980203,-131,2025-11-07 09:46:03.095587615
2025-11-07 09:46:02.980203,30975,2025-11-07 09:46:03.103279923
2025-11-07 09:46:02.980203,-1,2025-11-07 09:46:03.110972231
2025-11-07 09:46:02.980203,-143,2025-11-07 09:46:03.118664538
2025-11-07 09:46:02.980203,30207,2025-11-07 09:46:03.126356846
2025-11-07 09:46:02.980203,-1,2025-11-07 09:46:03.134049154
2025-11-07 09:46:02.980203,-136,2025-11-07 09:46:03.141741462
2025-11-07 09:46:02.980203,29183,2025-11-07 09:46:03.149433769
2025-11-07 09:46:02.980203,-1,2025-11-07 09:46:03.157126077
2025-11-07 09:46:02.980203,-148,2025-11-07 09:46:03.164818385
2025-11-07 09:46:02.980203,27903,2025-11-07 09:46:03.172510692
2025-11-07 09:46:02.980203,-1,2025-11-07 09:46:03.180203000
2025-11-07 09:46:02.980203,-155,2025-11-07 09:46:03.187895308
2025-11-07 09:46:02.980203,24831,2025-11-07 09:46:03.195587615
2025-11-07 09:46:02.980203,-1,2025-11-07 09:46:03.203279923
2025-11-07 09:46:02.980203,-146,2025-11-07 09:46:03.210972231
2025-11-07 09:46:02.980203,-29185,2025-11-07 09:46:03.218664538
2025-11-07 09:46:02.980203,-1,2025-11-07 09:46:03.226356846
2025-11-07 09:46:02.980203,-83,2025-11-07 09:46:03.234049154
2025-11-07 09:46:02.980203,-21761,2025-11-07 09:46:03.241741462
2025-11-07 09:46:02.980203,-1,2025-11-07 09:46:03.249433769
2025-11-07 09:46:02.980203,-86,2025-11-07 09:46:03.257126077
2025-11-07 09:46:02.980203,-13825,2025-11-07 09:46:03.264818385
2025-11-07 09:46:02.980203,-1,2025-11-07 09:46:03.272510692
2025-11-07 09:46:02.980203,-16,2025-11-07 09:46:03.280203000
2025-11-07 09:46:02.980203,2047,2025-11-07 09:46:03.287895308
2025-11-07 09:46:02.980203,0,2025-11-07 09:46:03.295587615
2025-11-07 09:46:02.980203,14,2025-11-07 09:46:03.303279923
2025-11-07 09:46:02.980203,4864,2025-11-07 09:46:03.310972231
2025-11-07 09:46:02.980203,0,2025-11-07 09:46:03.318664538
2025-11-07 09:46:02.980203,28,2025-11-07 09:46:03.326356846
2025-11-07 09:46:02.980203,7936,2025-11-07 09:46:03.334049154
2025-11-07 09:46:02.980203,0,2025-11-07 09:46:03.341741462
2025-11-07 09:46:02.980203,28,2025-11-07 09:46:03.349433769
2025-11-07 09:46:02.980203,5888,2025-11-07 09:46:03.357126077
2025-11-07 09:46:02.980203,0,2025-11-07 09:46:03.364818385
2025-11-07 09:46:02.980203,26,2025-11-07 09:46:03.372510692
2025-11-07 09:46:02.980203,9728,2025-11-07 09:46:03.380203000
2025-11-07 09:46:02.980203,0,2025-11-07 09:46:03.387895308
2025-11-07 09:46:02.980203,43,2025-11-07 09:46:03.395587615
2025-11-07 09:46:02.980203,8960,2025-11-07 09:46:03.403279923
2025-11-07 09:46:02.980203,0,2025-11-07 09:46:03.410972231
2025-11-07 09:46:02.980203,33,2025-11-07 09:46:03.418664538
2025-11-07 09:46:02.980203,7936,2025-11-07 09:46:03.426356846
2025-11-07 09:46:02.980203,0,2025-11-07 09:46:03.434049154
2025-11-07 09:46:02.980203,26,2025-11-07 09:46:03.441741462
2025-11-07 09:46:02.980203,8448,2025-11-07 09:46:03.449433769
2025-11-07 09:46:02.980203,0,2025-11-07 09:46:03.457126077
2025-11-07 09:46:02.980203,35,2025-11-07 09:46:03.464818385
2025-11-07 09:46:02.980203,7168,2025-11-07 09:46:03.472510692
2025-11-07 09:46:02.980203,0,2025-11-07 09:46:03.480203000
2025-11-07 09:46:02.980203,38,2025-11-07 09:46:03.487895308
2025-11-07 09:46:02.980203,12032,2025-11-07 09:46:03.495587615
2025-11-07 09:46:02.980203,0,2025-11-07 09:46:03.503279923
2025-11-07 09:46:02.980203,45,2025-11-07 09:46:03.510972230
2025-11-07 09:46:02.980203,11520,2025-11-07 09:46:03.518664538
2025-11-07 09:46:02.980203,0,2025-11-07 09:46:03.526356846
2025-11-07 09:46:02.980203,40,2025-11-07 09:46:03.534049154
2025-11-07 09:46:02.980203,7168,2025-11-07 09:46:03.541741462
2025-11-07 09:46:02.980203,0,2025-11-07 09:46:03.549433769
2025-11-07 09:46:02.980203,11,2025-11-07 09:46:03.557126077
2025-11-07 09:46:02.980203,2304,2025-11-07 09:46:03.564818385
2025-11-07 09:46:02.980203,0,2025-11-07 09:46:03.572510692
2025-11-07 09:46:02.980203,35,2025-11-07 09:46:03.580203000
2025-11-07 09:46:02.980203,18176,2025-11-07 09:46:03.587895308
2025-11-07 09:46:02.980203,0,2025-11-07 09:46:03.595587615
2025-11-07 09:46:02.980203,67,2025-11-07 09:46:03.603279923
2025-11-07 09:46:02.980203,10240,2025-11-07 09:46:03.610972231
2025-11-07 09:46:02.980203,0,2025-11-07 09:46:03.618664538
2025-11-07 09:46:02.980203,40,2025-11-07 09:46:03.626356846
2025-11-07 09:46:02.980203,12032,2025-11-07 09:46:03.634049154
2025-11-07 09:46:02.980203,0,2025-11-07 09:46:03.641741462
2025-11-07 09:46:02.980203,31,2025-11-07 09:46:03.649433769
2025-11-07 09:46:02.980203,4096,2025-11-07 09:46:03.657126077
2025-11-07 09:46:02.980203,0,2025-11-07 09:46:03.664818385
2025-11-07 09:46:02.980203,11,2025-11-07 09:46:03.672510692
2025-11-07 09:46:02.980203,1792,2025-11-07 09:46:03.680203000
2025-11-07 09:46:02.980203,0,2025-11-07 09:46:03.687895308
2025-11-07 09:46:02.980203,0,2025-11-07 09:46:03.695587615
2025-11-07 09:46:02.980203,1792,2025-11-07 09:46:03.703279923
2025-11-07 09:46:02.980203,0,2025-11-07 09:46:03.710972231
2025-11-07 09:46:02.980203,19,2025-11-07 09:46:03.718664538
2025-11-07 09:46:02.980203,9728,2025-11-07 09:46:03.726356846
2025-11-07 09:46:02.980203,0,2025-11-07 09:46:03.734049154
2025-11-07 09:46:02.980203,52,2025-11-07 09:46:03.741741462
2025-11-07 09:46:02.980203,8448,2025-11-07 09:46:03.749433769
2025-11-07 09:46:02.980203,0,2025-11-07 09:46:03.757126077
2025-11-07 09:46:02.980203,23,2025-11-07 09:46:03.764818385
2025-11-07 09:46:02.980203,8960,2025-11-07 09:46:03.772510692
2025-11-07 09:46:02.980203,0,2025-11-07 09:46:03.780203000
2025-11-07 09:46:02.980203,31,2025-11-07 09:46:03.787895308
2025-11-07 09:46:02.980203,5888,2025-11-07 09:46:03.795587615
2025-11-07 09:46:02.980203,0,2025-11-07 09:46:03.803279923
2025-11-07 09:46:02.980203,31,2025-11-07 09:46:03.810972231
2025-11-07 09:46:03.530159,26,2025-11-07 09:46:03.818664538
2025-11-07 09:46:03.530159,3584,2025-11-07 09:46:03.826356846
2025-11-07 09:46:03.530159,0,2025-11-07 09:46:03.834049154
2025-11-07 09:46:03.530159,-100,2025-11-07 09:46:03.841741462
2025-11-07 09:46:03.530159,14335,2025-11-07 09:46:03.849433769
2025-11-07 09:46:03.530159,-2,2025-11-07 09:46:03.857126077
2025-11-07 09:46:03.530159,-596,2025-11-07 09:46:03.864818385
2025-11-07 09:46:03.530159,5119,2025-11-07 09:46:03.872510692
2025-11-07 09:46:03.530159,1,2025-11-07 09:46:03.880203000
2025-11-07 09:46:03.530159,1514,2025-11-07 09:46:03.887895308
2025-11-07 09:46:03.530159,14592,2025-11-07 09:46:03.895587615
2025-11-07 09:46:03.530159,6,2025-11-07 09:46:03.903279923
2025-11-07 09:46:03.530159,766,2025-11-07 09:46:03.910972231
2025-11-07 09:46:03.530159,-3072,2025-11-07 09:46:03.918664538
2025-11-07 09:46:03.530159,0,2025-11-07 09:46:03.926356846
2025-11-07 09:46:03.530159,76,2025-11-07 09:46:03.934049154
2025-11-07 09:46:03.530159,-20224,2025-11-07 09:46:03.941741462
2025-11-07 09:46:03.530159,-1,2025-11-07 09:46:03.949433769
2025-11-07 09:46:03.530159,-162,2025-11-07 09:46:03.957126077
2025-11-07 09:46:03.530159,23039,2025-11-07 09:46:03.964818385
2025-11-07 09:46:03.530159,-1,2025-11-07 09:46:03.972510692
2025-11-07 09:46:03.530159,-162,2025-11-07 09:46:03.980203000
2025-11-07 09:46:03.530159,30207,2025-11-07 09:46:03.987895308
2025-11-07 09:46:03.530159,-1,2025-11-07 09:46:03.995587615
2025-11-07 09:46:03.530159,-124,2025-11-07 09:46:04.003279923
2025-11-07 09:46:03.530159,29183,2025-11-07 09:46:04.010972231
2025-11-07 09:46:03.530159,-1,2025-11-07 09:46:04.018664538
2025-11-07 09:46:03.530159,-153,2025-11-07 09:46:04.026356846
2025-11-07 09:46:03.530159,29695,2025-11-07 09:46:04.034049154
2025-11-07 09:46:03.530159,-1,2025-11-07 09:46:04.041741462
2025-11-07 09:46:03.530159,-139,2025-11-07 09:46:04.049433769
2025-11-07 09:46:03.530159,27903,2025-11-07 09:46:04.057126077
2025-11-07 09:46:03.530159,-1,2025-11-07 09:46:04.064818385
2025-11-07 09:46:03.530159,-146,2025-11-07 09:46:04.072510692
2025-11-07 09:46:03.530159,29695,2025-11-07 09:46:04.080203000
2025-11-07 09:46:03.530159,-1,2025-11-07 09:46:04.087895308
2025-11-07 09:46:03.530159,-146,2025-11-07 09:46:04.095587615
2025-11-07 09:46:03.530159,27391,2025-11-07 09:46:04.103279923
2025-11-07 09:46:03.530159,-1,2025-11-07 09:46:04.110972231
2025-11-07 09:46:03.530159,-158,2025-11-07 09:46:04.118664538
2025-11-07 09:46:03.530159,22271,2025-11-07 09:46:04.126356846
2025-11-07 09:46:03.530159,-1,2025-11-07 09:46:04.134049154
2025-11-07 09:46:03.530159,-182,2025-11-07 09:46:04.141741462
2025-11-07 09:46:03.530159,19967,2025-11-07 09:46:04.149433769
2025-11-07 09:46:03.530159,-1,2025-11-07 09:46:04.157126077
2025-11-07 09:46:03.530159,-146,2025-11-07 09:46:04.164818385
2025-11-07 09:46:03.530159,-29185,2025-11-07 09:46:04.172510692
2025-11-07 09:46:03.530159,-1,2025-11-07 09:46:04.180203000
2025-11-07 09:46:03.530159,-124,2025-11-07 09:46:04.187895308
2025-11-07 09:46:03.530159,-29185,2025-11-07 09:46:04.195587615
2025-11-07 09:46:03.530159,-1,2025-11-07 09:46:04.203279923
2025-11-07 09:46:03.530159,-76,2025-11-07 09:46:04.210972231
2025-11-07 09:46:03.530159,-16897,2025-11-07 09:46:04.218664538
2025-11-07 09:46:03.530159,-1,2025-11-07 09:46:04.226356846
2025-11-07 09:46:03.530159,-47,2025-11-07 09:46:04.234049154
2025-11-07 09:46:03.530159,-3841,2025-11-07 09:46:04.241741462
2025-11-07 09:46:03.530159,-1,2025-11-07 09:46:04.249433769
2025-11-07 09:46:03.530159,-16,2025-11-07 09:46:04.257126077
2025-11-07 09:46:03.530159,-10753,2025-11-07 09:46:04.264818385
2025-11-07 09:46:03.530159,-1,2025-11-07 09:46:04.272510692
2025-11-07 09:46:03.530159,-69,2025-11-07 09:46:04.280203000
2025-11-07 09:46:03.530159,-9985,2025-11-07 09:46:04.287895308
2025-11-07 09:46:03.530159,-1,2025-11-07 09:46:04.295587615
2025-11-07 09:46:03.530159,62,2025-11-07 09:46:04.303279923
2025-11-07 09:46:03.530159,23808,2025-11-07 09:46:04.310972231
2025-11-07 09:46:03.530159,0,2025-11-07 09:46:04.318664538
2025-11-07 09:46:03.530159,23,2025-11-07 09:46:04.326356846
2025-11-07 09:46:03.530159,1792,2025-11-07 09:46:04.334049154
2025-11-07 09:46:03.530159,0,2025-11-07 09:46:04.341741462
2025-11-07 09:46:03.530159,31,2025-11-07 09:46:04.349433769
2025-11-07 09:46:03.530159,5376,2025-11-07 09:46:04.357126077
2025-11-07 09:46:03.530159,0,2025-11-07 09:46:04.364818385
2025-11-07 09:46:03.530159,7,2025-11-07 09:46:04.372510692
2025-11-07 09:46:03.530159,1792,2025-11-07 09:46:04.380203000
2025-11-07 09:46:03.530159,0,2025-11-07 09:46:04.387895308
2025-11-07 09:46:03.530159,4,2025-11-07 09:46:04.395587615
2025-11-07 09:46:03.530159,2816,2025-11-07 09:46:04.403279923
2025-11-07 09:46:03.530159,0,2025-11-07 09:46:04.410972231
2025-11-07 09:46:03.530159,11,2025-11-07 09:46:04.418664538
2025-11-07 09:46:03.530159,-2304,2025-11-07 09:46:04.426356846
2025-11-07 09:46:03.530159,-1,2025-11-07 09:46:04.434049154
2025-11-07 09:46:03.530159,-26,2025-11-07 09:46:04.441741462
2025-11-07 09:46:03.530159,-769,2025-11-07 09:46:04.449433769
2025-11-07 09:46:03.530159,-1,2025-11-07 09:46:04.457126077
2025-11-07 09:46:03.530159,28,2025-11-07 09:46:04.464818385
2025-11-07 09:46:03.530159,7168,2025-11-07 09:46:04.472510692
2025-11-07 09:46:03.530159,0,2025-11-07 09:46:04.480203000
2025-11-07 09:46:03.530159,11,2025-11-07 09:46:04.487895308
2025-11-07 09:46:03.530159,1792,2025-11-07 09:46:04.495587615
2025-11-07 09:46:03.530159,0,2025-11-07 09:46:04.503279923
2025-11-07 09:46:03.530159,11,2025-11-07 09:46:04.510972230
2025-11-07 09:46:03.530159,2304,2025-11-07 09:46:04.518664538
2025-11-07 09:46:03.530159,0,2025-11-07 09:46:04.526356846
2025-11-07 09:46:03.530159,9,2025-11-07 09:46:04.534049154
2025-11-07 09:46:03.530159,2816,2025-11-07 09:46:04.541741462
2025-11-07 09:46:03.530159,0,2025-11-07 09:46:04.549433769
2025-11-07 09:46:03.530159,4,2025-11-07 09:46:04.557126077
2025-11-07 09:46:03.530159,0,2025-11-07 09:46:04.564818385
2025-11-07 09:46:03.530159,0,2025-11-07 09:46:04.572510692
2025-11-07 09:46:03.530159,9,2025-11-07 09:46:04.580203000
2025-11-07 09:46:03.530159,2304,2025-11-07 09:46:04.587895308
2025-11-07 09:46:03.530159,0,2025-11-07 09:46:04.595587615
2025-11-07 09:46:03.530159,-7,2025-11-07 09:46:04.603279923
2025-11-07 09:46:03.530159,-4609,2025-11-07 09:46:04.610972231
2025-11-07 09:46:03.530159,-1,2025-11-07 09:46:04.618664538
2025-11-07 09:46:03.530159,-26,2025-11-07 09:46:04.626356846
2025-11-07 09:46:03.530159,-7681,2025-11-07 09:46:04.634049154
2025-11-07 09:46:03.530159,-1,2025-11-07 09:46:04.641741462
2025-11-07 09:46:03.530159,-16,2025-11-07 09:46:04.649433769
2025-11-07 09:46:04.129927,4,2025-11-07 09:46:04.657126077
2025-11-07 09:46:04.129927,5888,2025-11-07 09:46:04.664818385
2025-11-07 09:46:04.129927,0,2025-11-07 09:46:04.672510692
2025-11-07 09:46:04.129927,35,2025-11-07 09:46:04.680203000
2025-11-07 09:46:04.129927,5376,2025-11-07 09:46:04.687895308
2025-11-07 09:46:04.129927,0,2025-11-07 09:46:04.695587615
2025-11-07 09:46:04.129927,0,2025-11-07 09:46:04.703279923
2025-11-07 09:46:04.129927,512,2025-11-07 09:46:04.710972231
2025-11-07 09:46:04.129927,0,2025-11-07 09:46:04.718664538
2025-11-07 09:46:04.129927,19,2025-11-07 09:46:04.726356846
2025-11-07 09:46:04.129927,4864,2025-11-07 09:46:04.734049154
2025-11-07 09:46:04.129927,0,2025-11-07 09:46:04.741741462
2025-11-07 09:46:04.129927,11,2025-11-07 09:46:04.749433769
2025-11-07 09:46:04.129927,3584,2025-11-07 09:46:04.757126077
2025-11-07 09:46:04.129927,0,2025-11-07 09:46:04.764818385
2025-11-07 09:46:04.129927,-26,2025-11-07 09:46:04.772510692
2025-11-07 09:46:04.129927,2815,2025-11-07 09:46:04.780203000
2025-11-07 09:46:04.129927,-1,2025-11-07 09:46:04.787895308
2025-11-07 09:46:04.129927,-577,2025-11-07 09:46:04.795587615
2025-11-07 09:46:04.129927,-23553,2025-11-07 09:46:04.803279923
2025-11-07 09:46:04.129927,-2,2025-11-07 09:46:04.810972231
2025-11-07 09:46:04.129927,742,2025-11-07 09:46:04.818664538
2025-11-07 09:46:04.129927,3584,2025-11-07 09:46:04.826356846
2025-11-07 09:46:04.129927,6,2025-11-07 09:46:04.834049154
2025-11-07 09:46:04.129927,1179,2025-11-07 09:46:04.841741462
2025-11-07 09:46:04.129927,-13312,2025-11-07 09:46:04.849433769
2025-11-07 09:46:04.129927,1,2025-11-07 09:46:04.857126077
2025-11-07 09:46:04.129927,162,2025-11-07 09:46:04.864818385
2025-11-07 09:46:04.129927,7168,2025-11-07 09:46:04.872510692
2025-11-07 09:46:04.129927,0,2025-11-07 09:46:04.880203000
2025-11-07 09:46:04.129927,-110,2025-11-07 09:46:04.887895308
2025-11-07 09:46:04.129927,29183,2025-11-07 09:46:04.895587615
2025-11-07 09:46:04.129927,-1,2025-11-07 09:46:04.903279923
2025-11-07 09:46:04.129927,-129,2025-11-07 09:46:04.910972231
2025-11-07 09:46:04.129927,29695,2025-11-07 09:46:04.918664538
2025-11-07 09:46:04.129927,-1,2025-11-07 09:46:04.926356846
2025-11-07 09:46:04.129927,-150,2025-11-07 09:46:04.934049154
2025-11-07 09:46:04.129927,29695,2025-11-07 09:46:04.941741462
2025-11-07 09:46:04.129927,-1,2025-11-07 09:46:04.949433769
2025-11-07 09:46:04.129927,-139,2025-11-07 09:46:04.957126077
2025-11-07 09:46:04.129927,27903,2025-11-07 09:46:04.964818385
2025-11-07 09:46:04.129927,-1,2025-11-07 09:46:04.972510692
2025-11-07 09:46:04.129927,-146,2025-11-07 09:46:04.980203000
2025-11-07 09:46:04.129927,32767,2025-11-07 09:46:04.987895308
2025-11-07 09:46:04.129927,-1,2025-11-07 09:46:04.995587615
2025-11-07 09:46:04.129927,-119,2025-11-07 09:46:05.003279923
2025-11-07 09:46:04.129927,-31489,2025-11-07 09:46:05.010972231
2025-11-07 09:46:04.129927,-1,2025-11-07 09:46:05.018664538
2025-11-07 09:46:04.129927,-124,2025-11-07 09:46:05.026356846
2025-11-07 09:46:04.129927,-32257,2025-11-07 09:46:05.034049154
2025-11-07 09:46:04.129927,-1,2025-11-07 09:46:05.041741462
2025-11-07 09:46:04.129927,-139,2025-11-07 09:46:05.049433769
2025-11-07 09:46:04.129927,29695,2025-11-07 09:46:05.057126077
2025-11-07 09:46:04.129927,-1,2025-11-07 09:46:05.064818385
2025-11-07 09:46:04.129927,-131,2025-11-07 09:46:05.072510692
2025-11-07 09:46:04.129927,30975,2025-11-07 09:46:05.080203000
2025-11-07 09:46:04.129927,-1,2025-11-07 09:46:05.087895308
2025-11-07 09:46:04.129927,-146,2025-11-07 09:46:05.095587615
2025-11-07 09:46:04.129927,32767,2025-11-07 09:46:05.103279923
2025-11-07 09:46:04.129927,-1,2025-11-07 09:46:05.110972231
2025-11-07 09:46:04.129927,-95,2025-11-07 09:46:05.118664538
2025-11-07 09:46:04.129927,-20993,2025-11-07 09:46:05.126356846
2025-11-07 09:46:04.129927,-1,2025-11-07 09:46:05.134049154
2025-11-07 09:46:04.129927,-81,2025-11-07 09:46:05.141741462
2025-11-07 09:46:04.129927,-14337,2025-11-07 09:46:05.149433769
2025-11-07 09:46:04.129927,-1,2025-11-07 09:46:05.157126077
2025-11-07 09:46:04.129927,-23,2025-11-07 09:46:05.164818385
2025-11-07 09:46:04.129927,-1537,2025-11-07 09:46:05.172510692
2025-11-07 09:46:04.129927,-1,2025-11-07 09:46:05.180203000
2025-11-07 09:46:04.129927,-2,2025-11-07 09:46:05.187895308
2025-11-07 09:46:04.129927,767,2025-11-07 09:46:05.195587615
2025-11-07 09:46:04.129927,0,2025-11-07 09:46:05.203279923
2025-11-07 09:46:04.129927,0,2025-11-07 09:46:05.210972231
2025-11-07 09:46:04.129927,512,2025-11-07 09:46:05.218664538
2025-11-07 09:46:04.129927,0,2025-11-07 09:46:05.226356846
2025-11-07 09:46:04.129927,19,2025-11-07 09:46:05.234049154
2025-11-07 09:46:04.129927,5888,2025-11-07 09:46:05.241741462
2025-11-07 09:46:04.129927,0,2025-11-07 09:46:05.249433769
2025-11-07 09:46:04.129927,19,2025-11-07 09:46:05.257126077
2025-11-07 09:46:04.129927,5888,2025-11-07 09:46:05.264818385
2025-11-07 09:46:04.129927,0,2025-11-07 09:46:05.272510692
2025-11-07 09:46:04.129927,9,2025-11-07 09:46:05.280203000
2025-11-07 09:46:04.129927,1792,2025-11-07 09:46:05.287895308
2025-11-07 09:46:04.129927,0,2025-11-07 09:46:05.295587615
2025-11-07 09:46:04.129927,23,2025-11-07 09:46:05.303279923
2025-11-07 09:46:04.129927,5888,2025-11-07 09:46:05.310972231
2025-11-07 09:46:04.129927,0,2025-11-07 09:46:05.318664538
2025-11-07 09:46:04.129927,14,2025-11-07 09:46:05.326356846
2025-11-07 09:46:04.129927,5376,2025-11-07 09:46:05.334049154
2025-11-07 09:46:04.129927,0,2025-11-07 09:46:05.341741462
2025-11-07 09:46:04.129927,26,2025-11-07 09:46:05.349433769
2025-11-07 09:46:04.129927,5376,2025-11-07 09:46:05.357126077
2025-11-07 09:46:04.129927,0,2025-11-07 09:46:05.364818385
2025-11-07 09:46:04.129927,23,2025-11-07 09:46:05.372510692
2025-11-07 09:46:04.129927,7936,2025-11-07 09:46:05.380203000
2025-11-07 09:46:04.129927,0,2025-11-07 09:46:05.387895308
2025-11-07 09:46:04.129927,28,2025-11-07 09:46:05.395587615
2025-11-07 09:46:04.129927,5376,2025-11-07 09:46:05.403279923
2025-11-07 09:46:04.129927,0,2025-11-07 09:46:05.410972231
2025-11-07 09:46:04.129927,31,2025-11-07 09:46:05.418664538
2025-11-07 09:46:04.129927,11520,2025-11-07 09:46:05.426356846
2025-11-07 09:46:04.129927,0,2025-11-07 09:46:05.434049154
2025-11-07 09:46:04.129927,43,2025-11-07 09:46:05.441741462
2025-11-07 09:46:04.129927,6656,2025-11-07 09:46:05.449433769
2025-11-07 09:46:04.129927,0,2025-11-07 09:46:05.457126077
2025-11-07 09:46:04.129927,28,2025-11-07 09:46:05.464818385
2025-11-07 09:46:04.129927,10240,2025-11-07 09:46:05.472510692
2025-11-07 09:46:04.129927,0,2025-11-07 09:46:05.480203000
2025-11-07 09:46:04.129927,40,2025-11-07 09:46:05.487895308
2025-11-07 09:46:04.679830,35,2025-11-07 09:46:05.495587615
2025-11-07 09:46:04.679830,5888,2025-11-07 09:46:05.503279923
2025-11-07 09:46:04.679830,0,2025-11-07 09:46:05.510972230
2025-11-07 09:46:04.679830,7,2025-11-07 09:46:05.518664538
2025-11-07 09:46:04.679830,-2304,2025-11-07 09:46:05.526356846
2025-11-07 09:46:04.679830,-1,2025-11-07 09:46:05.534049154
2025-11-07 09:46:04.679830,-7,2025-11-07 09:46:05.541741462
2025-11-07 09:46:04.679830,3071,2025-11-07 09:46:05.549433769
2025-11-07 09:46:04.679830,0,2025-11-07 09:46:05.557126077
2025-11-07 09:46:04.679830,28,2025-11-07 09:46:05.564818385
2025-11-07 09:46:04.679830,8960,2025-11-07 09:46:05.572510692
2025-11-07 09:46:04.679830,0,2025-11-07 09:46:05.580203000
2025-11-07 09:46:04.679830,38,2025-11-07 09:46:05.587895308
2025-11-07 09:46:04.679830,7168,2025-11-07 09:46:05.595587615
2025-11-07 09:46:04.679830,0,2025-11-07 09:46:05.603279923
2025-11-07 09:46:04.679830,21,2025-11-07 09:46:05.610972231
2025-11-07 09:46:04.679830,4864,2025-11-07 09:46:05.618664538
2025-11-07 09:46:04.679830,0,2025-11-07 09:46:05.626356846
2025-11-07 09:46:04.679830,21,2025-11-07 09:46:05.634049154
2025-11-07 09:46:04.679830,7936,2025-11-07 09:46:05.641741462
2025-11-07 09:46:04.679830,0,2025-11-07 09:46:05.649433769
2025-11-07 09:46:04.679830,38,2025-11-07 09:46:05.657126077
2025-11-07 09:46:04.679830,7168,2025-11-07 09:46:05.664818385
2025-11-07 09:46:04.679830,0,2025-11-07 09:46:05.672510692
2025-11-07 09:46:04.679830,-31,2025-11-07 09:46:05.680203000
2025-11-07 09:46:04.679830,-2817,2025-11-07 09:46:05.687895308
2025-11-07 09:46:04.679830,-2,2025-11-07 09:46:05.695587615
2025-11-07 09:46:04.679830,-579,2025-11-07 09:46:05.703279923
2025-11-07 09:46:04.679830,1535,2025-11-07 09:46:05.710972231
2025-11-07 09:46:04.679830,-1,2025-11-07 09:46:05.718664538
2025-11-07 09:46:04.679830,925,2025-11-07 09:46:05.726356846
2025-11-07 09:46:04.679830,-30720,2025-11-07 09:46:05.734049154
2025-11-07 09:46:04.679830,6,2025-11-07 09:46:05.741741462
2025-11-07 09:46:04.679830,1203,2025-11-07 09:46:05.749433769
2025-11-07 09:46:04.679830,-18944,2025-11-07 09:46:05.757126077
2025-11-07 09:46:04.679830,1,2025-11-07 09:46:05.764818385
2025-11-07 09:46:04.679830,124,2025-11-07 09:46:05.772510692
2025-11-07 09:46:04.679830,2816,2025-11-07 09:46:05.780203000
2025-11-07 09:46:04.679830,0,2025-11-07 09:46:05.787895308
2025-11-07 09:46:04.679830,-103,2025-11-07 09:46:05.795587615
2025-11-07 09:46:04.679830,27903,2025-11-07 09:46:05.803279923
2025-11-07 09:46:04.679830,-1,2025-11-07 09:46:05.810972231
2025-11-07 09:46:04.679830,-141,2025-11-07 09:46:05.818664538
2025-11-07 09:46:04.679830,27903,2025-11-07 09:46:05.826356846
2025-11-07 09:46:04.679830,-1,2025-11-07 09:46:05.834049154
2025-11-07 09:46:04.679830,-153,2025-11-07 09:46:05.841741462
2025-11-07 09:46:04.679830,28415,2025-11-07 09:46:05.849433769
2025-11-07 09:46:04.679830,-1,2025-11-07 09:46:05.857126077
2025-11-07 09:46:04.679830,-148,2025-11-07 09:46:05.864818385
2025-11-07 09:46:04.679830,26623,2025-11-07 09:46:05.872510692
2025-11-07 09:46:04.679830,-1,2025-11-07 09:46:05.880203000
2025-11-07 09:46:04.679830,-146,2025-11-07 09:46:05.887895308
2025-11-07 09:46:04.679830,27903,2025-11-07 09:46:05.895587615
2025-11-07 09:46:04.679830,-1,2025-11-07 09:46:05.903279923
2025-11-07 09:46:04.679830,-155,2025-11-07 09:46:05.910972231
2025-11-07 09:46:04.679830,28415,2025-11-07 09:46:05.918664538
2025-11-07 09:46:04.679830,-1,2025-11-07 09:46:05.926356846
2025-11-07 09:46:04.679830,-143,2025-11-07 09:46:05.934049154
2025-11-07 09:46:04.679830,24831,2025-11-07 09:46:05.941741462
2025-11-07 09:46:04.679830,-1,2025-11-07 09:46:05.949433769
2025-11-07 09:46:04.679830,-167,2025-11-07 09:46:05.957126077
2025-11-07 09:46:04.679830,24831,2025-11-07 09:46:05.964818385
2025-11-07 09:46:04.679830,-1,2025-11-07 09:46:05.972510692
2025-11-07 09:46:04.679830,-170,2025-11-07 09:46:05.980203000
2025-11-07 09:46:04.679830,20479,2025-11-07 09:46:05.987895308
2025-11-07 09:46:04.679830,-1,2025-11-07 09:46:05.995587615
2025-11-07 09:46:04.679830,-165,2025-11-07 09:46:06.003279923
2025-11-07 09:46:04.679830,27391,2025-11-07 09:46:06.010972231
2025-11-07 09:46:04.679830,-1,2025-11-07 09:46:06.018664538
2025-11-07 09:46:04.679830,-139,2025-11-07 09:46:06.026356846
2025-11-07 09:46:04.679830,-30977,2025-11-07 09:46:06.034049154
2025-11-07 09:46:04.679830,-1,2025-11-07 09:46:06.041741462
2025-11-07 09:46:04.679830,-103,2025-11-07 09:46:06.049433769
2025-11-07 09:46:04.679830,-19969,2025-11-07 09:46:06.057126077
2025-11-07 09:46:04.679830,-1,2025-11-07 09:46:06.064818385
2025-11-07 09:46:04.679830,-55,2025-11-07 09:46:06.072510692
2025-11-07 09:46:04.679830,-9473,2025-11-07 09:46:06.080203000
2025-11-07 09:46:04.679830,-1,2025-11-07 09:46:06.087895308
2025-11-07 09:46:04.679830,-26,2025-11-07 09:46:06.095587615
2025-11-07 09:46:04.679830,-3841,2025-11-07 09:46:06.103279923
2025-11-07 09:46:04.679830,-1,2025-11-07 09:46:06.110972231
2025-11-07 09:46:04.679830,-7,2025-11-07 09:46:06.118664538
2025-11-07 09:46:04.679830,767,2025-11-07 09:46:06.126356846
2025-11-07 09:46:04.679830,0,2025-11-07 09:46:06.134049154
2025-11-07 09:46:04.679830,4,2025-11-07 09:46:06.141741462
2025-11-07 09:46:04.679830,2304,2025-11-07 09:46:06.149433769
2025-11-07 09:46:04.679830,0,2025-11-07 09:46:06.157126077
2025-11-07 09:46:04.679830,14,2025-11-07 09:46:06.164818385
2025-11-07 09:46:04.679830,3584,2025-11-07 09:46:06.172510692
2025-11-07 09:46:04.679830,0,2025-11-07 09:46:06.180203000
2025-11-07 09:46:04.679830,9,2025-11-07 09:46:06.187895308
2025-11-07 09:46:04.679830,1792,2025-11-07 09:46:06.195587615
2025-11-07 09:46:04.679830,0,2025-11-07 09:46:06.203279923
2025-11-07 09:46:04.679830,2,2025-11-07 09:46:06.210972231
2025-11-07 09:46:04.679830,1024,2025-11-07 09:46:06.218664538
2025-11-07 09:46:04.679830,0,2025-11-07 09:46:06.226356846
2025-11-07 09:46:04.679830,7,2025-11-07 09:46:06.234049154
2025-11-07 09:46:04.679830,512,2025-11-07 09:46:06.241741462
2025-11-07 09:46:04.679830,0,2025-11-07 09:46:06.249433769
2025-11-07 09:46:04.679830,4,2025-11-07 09:46:06.257126077
2025-11-07 09:46:04.679830,3584,2025-11-07 09:46:06.264818385
2025-11-07 09:46:04.679830,0,2025-11-07 09:46:06.272510692
2025-11-07 09:46:04.679830,11,2025-11-07 09:46:06.280203000
2025-11-07 09:46:04.679830,2304,2025-11-07 09:46:06.287895308
2025-11-07 09:46:04.679830,0,2025-11-07 09:46:06.295587615
2025-11-07 09:46:04.679830,11,2025-11-07 09:46:06.303279923
2025-11-07 09:46:04.679830,2304,2025-11-07 09:46:06.310972231
2025-11-07 09:46:04.679830,0,2025-11-07 09:46:06.318664538
2025-11-07 09:46:04.679830,14,2025-11-07 09:46:06.326356846
2025-11-07 09:46:05.230208,21,2025-11-07 09:46:06.334049154
2025-11-07 09:46:05.230208,4864,2025-11-07 09:46:06.341741462
2025-11-07 09:46:05.230208,0,2025-11-07 09:46:06.349433769
2025-11-07 09:46:05.230208,11,2025-11-07 09:46:06.357126077
2025-11-07 09:46:05.230208,3584,2025-11-07 09:46:06.364818385
2025-11-07 09:46:05.230208,0,2025-11-07 09:46:06.372510692
2025-11-07 09:46:05.230208,23,2025-11-07 09:46:06.380203000
2025-11-07 09:46:05.230208,5888,2025-11-07 09:46:06.387895308
2025-11-07 09:46:05.230208,0,2025-11-07 09:46:06.395587615
2025-11-07 09:46:05.230208,16,2025-11-07 09:46:06.403279923
2025-11-07 09:46:05.230208,4096,2025-11-07 09:46:06.410972231
2025-11-07 09:46:05.230208,0,2025-11-07 09:46:06.418664538
2025-11-07 09:46:05.230208,14,2025-11-07 09:46:06.426356846
2025-11-07 09:46:05.230208,1792,2025-11-07 09:46:06.434049154
2025-11-07 09:46:05.230208,0,2025-11-07 09:46:06.441741462
2025-11-07 09:46:05.230208,-4,2025-11-07 09:46:06.449433769
2025-11-07 09:46:05.230208,-3841,2025-11-07 09:46:06.457126077
2025-11-07 09:46:05.230208,-1,2025-11-07 09:46:06.464818385
2025-11-07 09:46:05.230208,-26,2025-11-07 09:46:06.472510692
2025-11-07 09:46:05.230208,-4609,2025-11-07 09:46:06.480203000
2025-11-07 09:46:05.230208,-1,2025-11-07 09:46:06.487895308
2025-11-07 09:46:05.230208,4,2025-11-07 09:46:06.495587615
2025-11-07 09:46:05.230208,7936,2025-11-07 09:46:06.503279923
2025-11-07 09:46:05.230208,0,2025-11-07 09:46:06.510972230
2025-11-07 09:46:05.230208,40,2025-11-07 09:46:06.518664538
2025-11-07 09:46:05.230208,8448,2025-11-07 09:46:06.526356846
2025-11-07 09:46:05.230208,0,2025-11-07 09:46:06.534049154
2025-11-07 09:46:05.230208,21,2025-11-07 09:46:06.541741462
2025-11-07 09:46:05.230208,4096,2025-11-07 09:46:06.549433769
2025-11-07 09:46:05.230208,0,2025-11-07 09:46:06.557126077
2025-11-07 09:46:05.230208,19,2025-11-07 09:46:06.564818385
2025-11-07 09:46:05.230208,5888,2025-11-07 09:46:06.572510692
2025-11-07 09:46:05.230208,0,2025-11-07 09:46:06.580203000
2025-11-07 09:46:05.230208,23,2025-11-07 09:46:06.587895308
2025-11-07 09:46:05.230208,4864,2025-11-07 09:46:06.595587615
2025-11-07 09:46:05.230208,0,2025-11-07 09:46:06.603279923
2025-11-07 09:46:05.230208,-23,2025-11-07 09:46:06.610972231
2025-11-07 09:46:05.230208,767,2025-11-07 09:46:06.618664538
2025-11-07 09:46:05.230208,-1,2025-11-07 09:46:06.626356846
2025-11-07 09:46:05.230208,-603,2025-11-07 09:46:06.634049154
2025-11-07 09:46:05.230208,-23041,2025-11-07 09:46:06.641741462
2025-11-07 09:46:05.230208,-2,2025-11-07 09:46:06.649433769
2025-11-07 09:46:05.230208,846,2025-11-07 09:46:06.657126077
2025-11-07 09:46:05.230208,-24576,2025-11-07 09:46:06.664818385
2025-11-07 09:46:05.230208,6,2025-11-07 09:46:06.672510692
2025-11-07 09:46:05.230208,1239,2025-11-07 09:46:06.680203000
2025-11-07 09:46:05.230208,-22528,2025-11-07 09:46:06.687895308
2025-11-07 09:46:05.230208,1,2025-11-07 09:46:06.695587615
2025-11-07 09:46:05.230208,110,2025-11-07 09:46:06.703279923
2025-11-07 09:46:05.230208,-2816,2025-11-07 09:46:06.710972231
2025-11-07 09:46:05.230208,-1,2025-11-07 09:46:06.718664538
2025-11-07 09:46:05.230208,-146,2025-11-07 09:46:06.726356846
2025-11-07 09:46:05.230208,19967,2025-11-07 09:46:06.734049154
2025-11-07 09:46:05.230208,-1,2025-11-07 09:46:06.741741462
2025-11-07 09:46:05.230208,-167,2025-11-07 09:46:06.749433769
2025-11-07 09:46:05.230208,19967,2025-11-07 09:46:06.757126077
2025-11-07 09:46:05.230208,-1,2025-11-07 09:46:06.764818385
2025-11-07 09:46:05.230208,-186,2025-11-07 09:46:06.772510692
2025-11-07 09:46:05.230208,19967,2025-11-07 09:46:06.780203000
2025-11-07 09:46:05.230208,-1,2025-11-07 09:46:06.787895308
2025-11-07 09:46:05.230208,-177,2025-11-07 09:46:06.795587615
2025-11-07 09:46:05.230208,19967,2025-11-07 09:46:06.803279923
2025-11-07 09:46:05.230208,-1,2025-11-07 09:46:06.810972231
2025-11-07 09:46:05.230208,-179,2025-11-07 09:46:06.818664538
2025-11-07 09:46:05.230208,20479,2025-11-07 09:46:06.826356846
2025-11-07 09:46:05.230208,-1,2025-11-07 09:46:06.834049154
2025-11-07 09:46:05.230208,-177,2025-11-07 09:46:06.841741462
2025-11-07 09:46:05.230208,20479,2025-11-07 09:46:06.849433769
2025-11-07 09:46:05.230208,-1,2025-11-07 09:46:06.857126077
2025-11-07 09:46:05.230208,-184,2025-11-07 09:46:06.864818385
2025-11-07 09:46:05.230208,18175,2025-11-07 09:46:06.872510692
2025-11-07 09:46:05.230208,-1,2025-11-07 09:46:06.880203000
2025-11-07 09:46:05.230208,-184,2025-11-07 09:46:06.887895308
2025-11-07 09:46:05.230208,16895,2025-11-07 09:46:06.895587615
2025-11-07 09:46:05.230208,-1,2025-11-07 09:46:06.903279923
2025-11-07 09:46:05.230208,-198,2025-11-07 09:46:06.910972231
2025-11-07 09:46:05.230208,15103,2025-11-07 09:46:06.918664538
2025-11-07 09:46:05.230208,-1,2025-11-07 09:46:06.926356846
2025-11-07 09:46:05.230208,-194,2025-11-07 09:46:06.934049154
2025-11-07 09:46:05.230208,18687,2025-11-07 09:46:06.941741462
2025-11-07 09:46:05.230208,-1,2025-11-07 09:46:06.949433769
2025-11-07 09:46:05.230208,-167,2025-11-07 09:46:06.957126077
2025-11-07 09:46:05.230208,27903,2025-11-07 09:46:06.964818385
2025-11-07 09:46:05.230208,-1,2025-11-07 09:46:06.972510692
2025-11-07 09:46:05.230208,-131,2025-11-07 09:46:06.980203000
2025-11-07 09:46:05.230208,-27905,2025-11-07 09:46:06.987895308
2025-11-07 09:46:05.230208,-1,2025-11-07 09:46:06.995587615
2025-11-07 09:46:05.230208,-81,2025-11-07 09:46:07.003279923
2025-11-07 09:46:05.230208,-14849,2025-11-07 09:46:07.010972231
2025-11-07 09:46:05.230208,-1,2025-11-07 09:46:07.018664538
2025-11-07 09:46:05.230208,-45,2025-11-07 09:46:07.026356846
2025-11-07 09:46:05.230208,-8193,2025-11-07 09:46:07.034049154
2025-11-07 09:46:05.230208,-1,2025-11-07 09:46:07.041741462
2025-11-07 09:46:05.230208,-23,2025-11-07 09:46:07.049433769
2025-11-07 09:46:05.230208,-3329,2025-11-07 09:46:07.057126077
2025-11-07 09:46:05.230208,-1,2025-11-07 09:46:07.064818385
2025-11-07 09:46:05.230208,-4,2025-11-07 09:46:07.072510692
2025-11-07 09:46:05.230208,767,2025-11-07 09:46:07.080203000
2025-11-07 09:46:05.230208,0,2025-11-07 09:46:07.087895308
2025-11-07 09:46:05.230208,2,2025-11-07 09:46:07.095587615
2025-11-07 09:46:05.230208,512,2025-11-07 09:46:07.103279923
2025-11-07 09:46:05.230208,0,2025-11-07 09:46:07.110972231
2025-11-07 09:46:05.230208,4,2025-11-07 09:46:07.118664538
2025-11-07 09:46:05.230208,1024,2025-11-07 09:46:07.126356846
2025-11-07 09:46:05.230208,0,2025-11-07 09:46:07.134049154
2025-11-07 09:46:05.230208,2,2025-11-07 09:46:07.141741462
2025-11-07 09:46:05.230208,1024,2025-11-07 09:46:07.149433769
2025-11-07 09:46:05.230208,0,2025-11-07 09:46:07.157126077
2025-11-07 09:46:05.230208,14,2025-11-07 09:46:07.164818385
2025-11-07 09:46:05.730164,11,2025-11-07 09:46:07.172510692
2025-11-07 09:46:05.730164,1792,2025-11-07 09:46:07.180203000
2025-11-07 09:46:05.730164,0,2025-11-07 09:46:07.187895308
2025-11-07 09:46:05.730164,11,2025-11-07 09:46:07.195587615
2025-11-07 09:46:05.730164,4096,2025-11-07 09:46:07.203279923
2025-11-07 09:46:05.730164,0,2025-11-07 09:46:07.210972231
2025-11-07 09:46:05.730164,14,2025-11-07 09:46:07.218664538
2025-11-07 09:46:05.730164,4096,2025-11-07 09:46:07.226356846
2025-11-07 09:46:05.730164,0,2025-11-07 09:46:07.234049154
2025-11-07 09:46:05.730164,14,2025-11-07 09:46:07.241741462
2025-11-07 09:46:05.730164,2816,2025-11-07 09:46:07.249433769
2025-11-07 09:46:05.730164,0,2025-11-07 09:46:07.257126077
2025-11-07 09:46:05.730164,16,2025-11-07 09:46:07.264818385
2025-11-07 09:46:05.730164,5376,2025-11-07 09:46:07.272510692
2025-11-07 09:46:05.730164,0,2025-11-07 09:46:07.280203000
2025-11-07 09:46:05.730164,21,2025-11-07 09:46:07.287895308
2025-11-07 09:46:05.730164,4096,2025-11-07 09:46:07.295587615
2025-11-07 09:46:05.730164,0,2025-11-07 09:46:07.303279923
2025-11-07 09:46:05.730164,16,2025-11-07 09:46:07.310972231
2025-11-07 09:46:05.730164,5888,2025-11-07 09:46:07.318664538
2025-11-07 09:46:05.730164,0,2025-11-07 09:46:07.326356846
2025-11-07 09:46:05.730164,21,2025-11-07 09:46:07.334049154
2025-11-07 09:46:05.730164,5376,2025-11-07 09:46:07.341741462
2025-11-07 09:46:05.730164,0,2025-11-07 09:46:07.349433769
2025-11-07 09:46:05.730164,31,2025-11-07 09:46:07.357126077
2025-11-07 09:46:05.730164,4864,2025-11-07 09:46:07.364818385
2025-11-07 09:46:05.730164,0,2025-11-07 09:46:07.372510692
2025-11-07 09:46:05.730164,-7,2025-11-07 09:46:07.380203000
2025-11-07 09:46:05.730164,-6401,2025-11-07 09:46:07.387895308
2025-11-07 09:46:05.730164,-1,2025-11-07 09:46:07.395587615
2025-11-07 09:46:05.730164,-26,2025-11-07 09:46:07.403279923
2025-11-07 09:46:05.730164,2559,2025-11-07 09:46:07.410972231
2025-11-07 09:46:05.730164,0,2025-11-07 09:46:07.418664538
2025-11-07 09:46:05.730164,47,2025-11-07 09:46:07.426356846
2025-11-07 09:46:05.730164,8448,2025-11-07 09:46:07.434049154
2025-11-07 09:46:05.730164,0,2025-11-07 09:46:07.441741462
2025-11-07 09:46:05.730164,9,2025-11-07 09:46:07.449433769
2025-11-07 09:46:05.730164,4864,2025-11-07 09:46:07.457126077
2025-11-07 09:46:05.730164,0,2025-11-07 09:46:07.464818385
2025-11-07 09:46:05.730164,26,2025-11-07 09:46:07.472510692
2025-11-07 09:46:05.730164,7168,2025-11-07 09:46:07.480203000
2025-11-07 09:46:05.730164,0,2025-11-07 09:46:07.487895308
2025-11-07 09:46:05.730164,33,2025-11-07 09:46:07.495587615
2025-11-07 09:46:05.730164,6656,2025-11-07 09:46:07.503279923
2025-11-07 09:46:05.730164,0,2025-11-07 09:46:07.510972230
2025-11-07 09:46:05.730164,26,2025-11-07 09:46:07.518664538
2025-11-07 09:46:05.730164,1024,2025-11-07 09:46:07.526356846
2025-11-07 09:46:05.730164,0,2025-11-07 09:46:07.534049154
2025-11-07 09:46:05.730164,-184,2025-11-07 09:46:07.541741462
2025-11-07 09:46:05.730164,-4865,2025-11-07 09:46:07.549433769
2025-11-07 09:46:05.730164,-3,2025-11-07 09:46:07.557126077
2025-11-07 09:46:05.730164,-445,2025-11-07 09:46:07.564818385
2025-11-07 09:46:05.730164,7679,2025-11-07 09:46:07.572510692
2025-11-07 09:46:05.730164,2,2025-11-07 09:46:07.580203000
2025-11-07 09:46:05.730164,1481,2025-11-07 09:46:07.587895308
2025-11-07 09:46:05.730164,-6912,2025-11-07 09:46:07.595587615
2025-11-07 09:46:05.730164,4,2025-11-07 09:46:07.603279923
2025-11-07 09:46:05.730164,505,2025-11-07 09:46:07.610972231
2025-11-07 09:46:05.730164,-24064,2025-11-07 09:46:07.618664538
2025-11-07 09:46:05.730164,0,2025-11-07 09:46:07.626356846
2025-11-07 09:46:05.730164,45,2025-11-07 09:46:07.634049154
2025-11-07 09:46:05.730164,-26880,2025-11-07 09:46:07.641741462
2025-11-07 09:46:05.730164,-1,2025-11-07 09:46:07.649433769
2025-11-07 09:46:05.730164,-165,2025-11-07 09:46:07.657126077
2025-11-07 09:46:05.730164,26111,2025-11-07 09:46:07.664818385
2025-11-07 09:46:05.730164,-1,2025-11-07 09:46:07.672510692
2025-11-07 09:46:05.730164,-167,2025-11-07 09:46:07.680203000
2025-11-07 09:46:05.730164,21247,2025-11-07 09:46:07.687895308
2025-11-07 09:46:05.730164,-1,2025-11-07 09:46:07.695587615
2025-11-07 09:46:05.730164,-162,2025-11-07 09:46:07.703279923
2025-11-07 09:46:05.730164,23551,2025-11-07 09:46:07.710972231
2025-11-07 09:46:05.730164,-1,2025-11-07 09:46:07.718664538
2025-11-07 09:46:05.730164,-170,2025-11-07 09:46:07.726356846
2025-11-07 09:46:05.730164,23551,2025-11-07 09:46:07.734049154
2025-11-07 09:46:05.730164,-1,2025-11-07 09:46:07.741741462
2025-11-07 09:46:05.730164,-165,2025-11-07 09:46:07.749433769
2025-11-07 09:46:05.730164,21247,2025-11-07 09:46:07.757126077
2025-11-07 09:46:05.730164,-1,2025-11-07 09:46:07.764818385
2025-11-07 09:46:05.730164,-179,2025-11-07 09:46:07.772510692
2025-11-07 09:46:05.730164,18175,2025-11-07 09:46:07.780203000
2025-11-07 09:46:05.730164,-1,2025-11-07 09:46:07.787895308
2025-11-07 09:46:05.730164,-191,2025-11-07 09:46:07.795587615
2025-11-07 09:46:05.730164,19199,2025-11-07 09:46:07.803279923
2025-11-07 09:46:05.730164,-1,2025-11-07 09:46:07.810972231
2025-11-07 09:46:05.730164,-162,2025-11-07 09:46:07.818664538
2025-11-07 09:46:05.730164,27903,2025-11-07 09:46:07.826356846
2025-11-07 09:46:05.730164,-1,2025-11-07 09:46:07.834049154
2025-11-07 09:46:05.730164,-160,2025-11-07 09:46:07.841741462
2025-11-07 09:46:05.730164,20479,2025-11-07 09:46:07.849433769
2025-11-07 09:46:05.730164,-1,2025-11-07 09:46:07.857126077
2025-11-07 09:46:05.730164,-174,2025-11-07 09:46:07.864818385
2025-11-07 09:46:05.730164,23039,2025-11-07 09:46:07.872510692
2025-11-07 09:46:05.730164,-1,2025-11-07 09:46:07.880203000
2025-11-07 09:46:05.730164,-141,2025-11-07 09:46:07.887895308
2025-11-07 09:46:05.730164,-26625,2025-11-07 09:46:07.895587615
2025-11-07 09:46:05.730164,-1,2025-11-07 09:46:07.903279923
2025-11-07 09:46:05.730164,-81,2025-11-07 09:46:07.910972231
2025-11-07 09:46:05.730164,-17409,2025-11-07 09:46:07.918664538
2025-11-07 09:46:05.730164,-1,2025-11-07 09:46:07.926356846
2025-11-07 09:46:05.730164,-62,2025-11-07 09:46:07.934049154
2025-11-07 09:46:05.730164,-12545,2025-11-07 09:46:07.941741462
2025-11-07 09:46:05.730164,-1,2025-11-07 09:46:07.949433769
2025-11-07 09:46:05.730164,-45,2025-11-07 09:46:07.957126077
2025-11-07 09:46:05.730164,-9985,2025-11-07 09:46:07.964818385
2025-11-07 09:46:05.730164,-1,2025-11-07 09:46:07.972510692
2025-11-07 09:46:05.730164,-21,2025-11-07 09:46:07.980203000
2025-11-07 09:46:05.730164,-3841,2025-11-07 09:46:07.987895308
2025-11-07 09:46:05.730164,-1,2025-11-07 09:46:07.995587615
2025-11-07 09:46:05.730164,-14,2025-11-07 09:46:08.003279923
2025-11-07 09:46:06.330525,2,2025-11-07 09:46:08.010972231
2025-11-07 09:46:06.330525,-3584,2025-11-07 09:46:08.018664538
2025-11-07 09:46:06.330525,-1,2025-11-07 09:46:08.026356846
2025-11-07 09:46:06.330525,-33,2025-11-07 09:46:08.034049154
2025-11-07 09:46:06.330525,-5121,2025-11-07 09:46:08.041741462
2025-11-07 09:46:06.330525,-1,2025-11-07 09:46:08.049433769
2025-11-07 09:46:06.330525,-4,2025-11-07 09:46:08.057126077
2025-11-07 09:46:06.330525,-1537,2025-11-07 09:46:08.064818385
2025-11-07 09:46:06.330525,-1,2025-11-07 09:46:08.072510692
2025-11-07 09:46:06.330525,-11,2025-11-07 09:46:08.080203000
2025-11-07 09:46:06.330525,-2561,2025-11-07 09:46:08.087895308
2025-11-07 09:46:06.330525,-1,2025-11-07 09:46:08.095587615
2025-11-07 09:46:06.330525,-14,2025-11-07 09:46:08.103279923
2025-11-07 09:46:06.330525,-2049,2025-11-07 09:46:08.110972231
2025-11-07 09:46:06.330525,-1,2025-11-07 09:46:08.118664538
2025-11-07 09:46:06.330525,2,2025-11-07 09:46:08.126356846
2025-11-07 09:46:06.330525,-2816,2025-11-07 09:46:08.134049154
2025-11-07 09:46:06.330525,-1,2025-11-07 09:46:08.141741462
2025-11-07 09:46:06.330525,-14,2025-11-07 09:46:08.149433769
2025-11-07 09:46:06.330525,5631,2025-11-07 09:46:08.157126077
2025-11-07 09:46:06.330525,0,2025-11-07 09:46:08.164818385
2025-11-07 09:46:06.330525,21,2025-11-07 09:46:08.172510692
2025-11-07 09:46:06.330525,-512,2025-11-07 09:46:08.180203000
2025-11-07 09:46:06.330525,-1,2025-11-07 09:46:08.187895308
2025-11-07 09:46:06.330525,2,2025-11-07 09:46:08.195587615
2025-11-07 09:46:06.330525,1024,2025-11-07 09:46:08.203279923
2025-11-07 09:46:06.330525,0,2025-11-07 09:46:08.210972231
2025-11-07 09:46:06.330525,-14,2025-11-07 09:46:08.218664538
2025-11-07 09:46:06.330525,-4609,2025-11-07 09:46:08.226356846
2025-11-07 09:46:06.330525,-1,2025-11-07 09:46:08.234049154
2025-11-07 09:46:06.330525,-28,2025-11-07 09:46:08.241741462
2025-11-07 09:46:06.330525,-9985,2025-11-07 09:46:08.249433769
2025-11-07 09:46:06.330525,-1,2025-11-07 09:46:08.257126077
2025-11-07 09:46:06.330525,-14,2025-11-07 09:46:08.264818385
2025-11-07 09:46:06.330525,767,2025-11-07 09:46:08.272510692
2025-11-07 09:46:06.330525,0,2025-11-07 09:46:08.280203000
2025-11-07 09:46:06.330525,-31,2025-11-07 09:46:08.287895308
2025-11-07 09:46:06.330525,-3841,2025-11-07 09:46:08.295587615
2025-11-07 09:46:06.330525,-1,2025-11-07 09:46:08.303279923
2025-11-07 09:46:06.330525,45,2025-11-07 09:46:08.310972231
2025-11-07 09:46:06.330525,10240,2025-11-07 09:46:08.318664538
2025-11-07 09:46:06.330525,0,2025-11-07 09:46:08.326356846
2025-11-07 09:46:06.330525,-2,2025-11-07 09:46:08.334049154
2025-11-07 09:46:06.330525,-6913,2025-11-07 09:46:08.341741462
2025-11-07 09:46:06.330525,-1,2025-11-07 09:46:08.349433769
2025-11-07 09:46:06.330525,-31,2025-11-07 09:46:08.357126077
2025-11-07 09:46:06.330525,5631,2025-11-07 09:46:08.364818385
2025-11-07 09:46:06.330525,0,2025-11-07 09:46:08.372510692
2025-11-07 09:46:06.330525,52,2025-11-07 09:46:08.380203000
2025-11-07 09:46:06.330525,2304,2025-11-07 09:46:08.387895308
2025-11-07 09:46:06.330525,0,2025-11-07 09:46:08.395587615
2025-11-07 09:46:06.330525,2,2025-11-07 09:46:08.403279923
2025-11-07 09:46:06.330525,-5888,2025-11-07 09:46:08.410972231
2025-11-07 09:46:06.330525,-1,2025-11-07 09:46:08.418664538
2025-11-07 09:46:06.330525,-289,2025-11-07 09:46:08.426356846
2025-11-07 09:46:06.330525,-23041,2025-11-07 09:46:08.434049154
2025-11-07 09:46:06.330525,-3,2025-11-07 09:46:08.441741462
2025-11-07 09:46:06.330525,-246,2025-11-07 09:46:08.449433769
2025-11-07 09:46:06.330525,5887,2025-11-07 09:46:08.457126077
2025-11-07 09:46:06.330525,3,2025-11-07 09:46:08.464818385
2025-11-07 09:46:06.330525,1282,2025-11-07 09:46:08.472510692
2025-11-07 09:46:06.330525,2048,2025-11-07 09:46:08.480203000
2025-11-07 09:46:06.330525,3,2025-11-07 09:46:08.487895308
2025-11-07 09:46:06.330525,280,2025-11-07 09:46:08.495587615
2025-11-07 09:46:06.330525,-15360,2025-11-07 09:46:08.503279923
2025-11-07 09:46:06.330525,0,2025-11-07 09:46:08.510972230
2025-11-07 09:46:06.330525,67,2025-11-07 09:46:08.518664538
2025-11-07 09:46:06.330525,-28672,2025-11-07 09:46:08.526356846
2025-11-07 09:46:06.330525,-1,2025-11-07 09:46:08.534049154
2025-11-07 09:46:06.330525,-146,2025-11-07 09:46:08.541741462
2025-11-07 09:46:06.330525,-31489,2025-11-07 09:46:08.549433769
2025-11-07 09:46:06.330525,-1,2025-11-07 09:46:08.557126077
2025-11-07 09:46:06.330525,-134,2025-11-07 09:46:08.564818385
2025-11-07 09:46:06.330525,26623,2025-11-07 09:46:08.572510692
2025-11-07 09:46:06.330525,-1,2025-11-07 09:46:08.580203000
2025-11-07 09:46:06.330525,-153,2025-11-07 09:46:08.587895308
2025-11-07 09:46:06.330525,27903,2025-11-07 09:46:08.595587615
2025-11-07 09:46:06.330525,-1,2025-11-07 09:46:08.603279923
2025-11-07 09:46:06.330525,-153,2025-11-07 09:46:08.610972231
2025-11-07 09:46:06.330525,26111,2025-11-07 09:46:08.618664538
2025-11-07 09:46:06.330525,-1,2025-11-07 09:46:08.626356846
2025-11-07 09:46:06.330525,-148,2025-11-07 09:46:08.634049154
2025-11-07 09:46:06.330525,31487,2025-11-07 09:46:08.641741462
2025-11-07 09:46:06.330525,-1,2025-11-07 09:46:08.649433769
2025-11-07 09:46:06.330525,-131,2025-11-07 09:46:08.657126077
2025-11-07 09:46:06.330525,29183,2025-11-07 09:46:08.664818385
2025-11-07 09:46:06.330525,-1,2025-11-07 09:46:08.672510692
2025-11-07 09:46:06.330525,-148,2025-11-07 09:46:08.680203000
2025-11-07 09:46:06.330525,-31489,2025-11-07 09:46:08.687895308
2025-11-07 09:46:06.330525,-1,2025-11-07 09:46:08.695587615
2025-11-07 09:46:06.330525,-115,2025-11-07 09:46:08.703279923
2025-11-07 09:46:06.330525,32255,2025-11-07 09:46:08.710972231
2025-11-07 09:46:06.330525,-1,2025-11-07 09:46:08.718664538
2025-11-07 09:46:06.330525,-131,2025-11-07 09:46:08.726356846
2025-11-07 09:46:06.330525,-25345,2025-11-07 09:46:08.734049154
2025-11-07 09:46:06.330525,-1,2025-11-07 09:46:08.741741462
2025-11-07 09:46:06.330525,-100,2025-11-07 09:46:08.749433769
2025-11-07 09:46:06.330525,-29697,2025-11-07 09:46:08.757126077
2025-11-07 09:46:06.330525,-1,2025-11-07 09:46:08.764818385
2025-11-07 09:46:06.330525,-105,2025-11-07 09:46:08.772510692
2025-11-07 09:46:06.330525,-16129,2025-11-07 09:46:08.780203000
2025-11-07 09:46:06.330525,-1,2025-11-07 09:46:08.787895308
2025-11-07 09:46:06.330525,-28,2025-11-07 09:46:08.795587615
2025-11-07 09:46:06.330525,-3841,2025-11-07 09:46:08.803279923
2025-11-07 09:46:06.330525,-1,2025-11-07 09:46:08.810972231
2025-11-07 09:46:06.330525,-11,2025-11-07 09:46:08.818664538
2025-11-07 09:46:06.330525,-5121,2025-11-07 09:46:08.826356846
2025-11-07 09:46:06.330525,-1,2025-11-07 09:46:08.834049154
2025-11-07 09:46:06.330525,-28,2025-11-07 09:46:08.841741462
2025-11-07 09:46:06.928810,-23,2025-11-07 09:46:08.849433769
2025-11-07 09:46:06.928810,-5633,2025-11-07 09:46:08.857126077
2025-11-07 09:46:06.928810,-1,2025-11-07 09:46:08.864818385
2025-11-07 09:46:06.928810,-33,2025-11-07 09:46:08.872510692
2025-11-07 09:46:06.928810,-10753,2025-11-07 09:46:08.880203000
2025-11-07 09:46:06.928810,-1,2025-11-07 09:46:08.887895308
2025-11-07 09:46:06.928810,-40,2025-11-07 09:46:08.895587615
2025-11-07 09:46:06.928810,-5121,2025-11-07 09:46:08.903279923
2025-11-07 09:46:06.928810,-1,2025-11-07 09:46:08.910972231
2025-11-07 09:46:06.928810,-7,2025-11-07 09:46:08.918664538
2025-11-07 09:46:06.928810,-1537,2025-11-07 09:46:08.926356846
2025-11-07 09:46:06.928810,-1,2025-11-07 09:46:08.934049154
2025-11-07 09:46:06.928810,-19,2025-11-07 09:46:08.941741462
2025-11-07 09:46:06.928810,-6913,2025-11-07 09:46:08.949433769
2025-11-07 09:46:06.928810,-1,2025-11-07 09:46:08.957126077
2025-11-07 09:46:06.928810,-7,2025-11-07 09:46:08.964818385
2025-11-07 09:46:06.928810,2559,2025-11-07 09:46:08.972510692
2025-11-07 09:46:06.928810,0,2025-11-07 09:46:08.980203000
2025-11-07 09:46:06.928810,2,2025-11-07 09:46:08.987895308
2025-11-07 09:46:06.928810,-1024,2025-11-07 09:46:08.995587615
2025-11-07 09:46:06.928810,-1,2025-11-07 09:46:09.003279923
2025-11-07 09:46:06.928810,-9,2025-11-07 09:46:09.010972231
2025-11-07 09:46:06.928810,5119,2025-11-07 09:46:09.018664538
2025-11-07 09:46:06.928810,0,2025-11-07 09:46:09.026356846
2025-11-07 09:46:06.928810,38,2025-11-07 09:46:09.034049154
2025-11-07 09:46:06.928810,0,2025-11-07 09:46:09.041741462
2025-11-07 09:46:06.928810,0,2025-11-07 09:46:09.049433769
2025-11-07 09:46:06.928810,-4,2025-11-07 09:46:09.057126077
2025-11-07 09:46:06.928810,7423,2025-11-07 09:46:09.064818385
2025-11-07 09:46:06.928810,0,2025-11-07 09:46:09.072510692
2025-11-07 09:46:06.928810,4,2025-11-07 09:46:09.080203000
2025-11-07 09:46:06.928810,-3584,2025-11-07 09:46:09.087895308
2025-11-07 09:46:06.928810,-1,2025-11-07 09:46:09.095587615
2025-11-07 09:46:06.928810,9,2025-11-07 09:46:09.103279923
2025-11-07 09:46:06.928810,-2816,2025-11-07 09:46:09.110972231
2025-11-07 09:46:06.928810,-1,2025-11-07 09:46:09.118664538
2025-11-07 09:46:06.928810,-55,2025-11-07 09:46:09.126356846
2025-11-07 09:46:06.928810,-13825,2025-11-07 09:46:09.134049154
2025-11-07 09:46:06.928810,-1,2025-11-07 09:46:09.141741462
2025-11-07 09:46:06.928810,-23,2025-11-07 09:46:09.149433769
2025-11-07 09:46:06.928810,2559,2025-11-07 09:46:09.157126077
2025-11-07 09:46:06.928810,0,2025-11-07 09:46:09.164818385
2025-11-07 09:46:06.928810,9,2025-11-07 09:46:09.172510692
2025-11-07 09:46:06.928810,-1024,2025-11-07 09:46:09.180203000
2025-11-07 09:46:06.928810,-1,2025-11-07 09:46:09.187895308
2025-11-07 09:46:06.928810,2,2025-11-07 09:46:09.195587615
2025-11-07 09:46:06.928810,2816,2025-11-07 09:46:09.203279923
2025-11-07 09:46:06.928810,0,2025-11-07 09:46:09.210972231
2025-11-07 09:46:06.928810,0,2025-11-07 09:46:09.218664538
2025-11-07 09:46:06.928810,-1024,2025-11-07 09:46:09.226356846
2025-11-07 09:46:06.928810,-1,2025-11-07 09:46:09.234049154
2025-11-07 09:46:06.928810,7,2025-11-07 09:46:09.241741462
2025-11-07 09:46:06.928810,2304,2025-11-07 09:46:09.249433769
2025-11-07 09:46:06.928810,0,2025-11-07 09:46:09.257126077
2025-11-07 09:46:06.928810,-4,2025-11-07 09:46:09.264818385
2025-11-07 09:46:06.928810,-3841,2025-11-07 09:46:09.272510692
2025-11-07 09:46:06.928810,-1,2025-11-07 09:46:09.280203000
2025-11-07 09:46:06.928810,-47,2025-11-07 09:46:09.287895308
2025-11-07 09:46:06.928810,-5889,2025-11-07 09:46:09.295587615
2025-11-07 09:46:06.928810,-2,2025-11-07 09:46:09.303279923
2025-11-07 09:46:06.928810,-623,2025-11-07 09:46:09.310972231
2025-11-07 09:46:06.928810,-2817,2025-11-07 09:46:09.318664538
2025-11-07 09:46:06.928810,-2,2025-11-07 09:46:09.326356846
2025-11-07 09:46:06.928810,941,2025-11-07 09:46:09.334049154
2025-11-07 09:46:06.928810,12800,2025-11-07 09:46:09.341741462
2025-11-07 09:46:06.928810,6,2025-11-07 09:46:09.349433769
2025-11-07 09:46:06.928810,1004,2025-11-07 09:46:09.357126077
2025-11-07 09:46:06.928810,16640,2025-11-07 09:46:09.364818385
2025-11-07 09:46:06.928810,1,2025-11-07 09:46:09.372510692
2025-11-07 09:46:06.928810,143,2025-11-07 09:46:09.380203000
2025-11-07 09:46:06.928810,2816,2025-11-07 09:46:09.387895308
2025-11-07 09:46:06.928810,0,2025-11-07 09:46:09.395587615
2025-11-07 09:46:06.928810,-160,2025-11-07 09:46:09.403279923
2025-11-07 09:46:06.928810,21247,2025-11-07 09:46:09.410972231
2025-11-07 09:46:06.928810,-1,2025-11-07 09:46:09.418664538
2025-11-07 09:46:06.928810,-146,2025-11-07 09:46:09.426356846
2025-11-07 09:46:06.928810,21247,2025-11-07 09:46:09.434049154
2025-11-07 09:46:06.928810,-1,2025-11-07 09:46:09.441741462
2025-11-07 09:46:06.928810,-182,2025-11-07 09:46:09.449433769
2025-11-07 09:46:06.928810,23551,2025-11-07 09:46:09.457126077
2025-11-07 09:46:06.928810,-1,2025-11-07 09:46:09.464818385
2025-11-07 09:46:06.928810,-182,2025-11-07 09:46:09.472510692
2025-11-07 09:46:06.928810,13055,2025-11-07 09:46:09.480203000
2025-11-07 09:46:06.928810,-1,2025-11-07 09:46:09.487895308
2025-11-07 09:46:06.928810,-182,2025-11-07 09:46:09.495587615
2025-11-07 09:46:06.928810,27391,2025-11-07 09:46:09.503279923
2025-11-07 09:46:06.928810,-1,2025-11-07 09:46:09.510972230
2025-11-07 09:46:06.928810,-150,2025-11-07 09:46:09.518664538
2025-11-07 09:46:06.928810,26111,2025-11-07 09:46:09.526356846
2025-11-07 09:46:06.928810,-1,2025-11-07 09:46:09.534049154
2025-11-07 09:46:06.928810,-165,2025-11-07 09:46:09.541741462
2025-11-07 09:46:06.928810,18175,2025-11-07 09:46:09.549433769
2025-11-07 09:46:06.928810,-1,2025-11-07 09:46:09.557126077
2025-11-07 09:46:06.928810,-206,2025-11-07 09:46:09.564818385
2025-11-07 09:46:06.928810,13823,2025-11-07 09:46:09.572510692
2025-11-07 09:46:06.928810,-1,2025-11-07 09:46:09.580203000
2025-11-07 09:46:06.928810,-177,2025-11-07 09:46:09.587895308
2025-11-07 09:46:06.928810,21247,2025-11-07 09:46:09.595587615
2025-11-07 09:46:06.928810,-1,2025-11-07 09:46:09.603279923
2025-11-07 09:46:06.928810,-194,2025-11-07 09:46:09.610972231
2025-11-07 09:46:06.928810,18687,2025-11-07 09:46:09.618664538
2025-11-07 09:46:06.928810,-1,2025-11-07 09:46:09.626356846
2025-11-07 09:46:06.928810,-160,2025-11-07 09:46:09.634049154
2025-11-07 09:46:06.928810,27903,2025-11-07 09:46:09.641741462
2025-11-07 09:46:06.928810,-1,2025-11-07 09:46:09.649433769
2025-11-07 09:46:06.928810,-129,2025-11-07 09:46:09.657126077
2025-11-07 09:46:06.928810,-26625,2025-11-07 09:46:09.664818385
2025-11-07 09:46:06.928810,-1,2025-11-07 09:46:09.672510692
2025-11-07 09:46:06.928810,-88,2025-11-07 09:46:09.680203000
2025-11-07 09:46:07.430934,-69,2025-11-07 09:46:09.687895308
2025-11-07 09:46:07.430934,-13057,2025-11-07 09:46:09.695587615
2025-11-07 09:46:07.430934,-1,2025-11-07 09:46:09.703279923
2025-11-07 09:46:07.430934,-40,2025-11-07 09:46:09.710972231
2025-11-07 09:46:07.430934,-6401,2025-11-07 09:46:09.718664538
2025-11-07 09:46:07.430934,-1,2025-11-07 09:46:09.726356846
2025-11-07 09:46:07.430934,-14,2025-11-07 09:46:09.734049154
2025-11-07 09:46:07.430934,-2049,2025-11-07 09:46:09.741741462
2025-11-07 09:46:07.430934,-1,2025-11-07 09:46:09.749433769
2025-11-07 09:46:07.430934,-4,2025-11-07 09:46:09.757126077
2025-11-07 09:46:07.430934,767,2025-11-07 09:46:09.764818385
2025-11-07 09:46:07.430934,0,2025-11-07 09:46:09.772510692
2025-11-07 09:46:07.430934,4,2025-11-07 09:46:09.780203000
2025-11-07 09:46:07.430934,1792,2025-11-07 09:46:09.787895308
2025-11-07 09:46:07.430934,0,2025-11-07 09:46:09.795587615
2025-11-07 09:46:07.430934,7,2025-11-07 09:46:09.803279923
2025-11-07 09:46:07.430934,512,2025-11-07 09:46:09.810972231
2025-11-07 09:46:07.430934,0,2025-11-07 09:46:09.818664538
2025-11-07 09:46:07.430934,-4,2025-11-07 09:46:09.826356846
2025-11-07 09:46:07.430934,-257,2025-11-07 09:46:09.834049154
2025-11-07 09:46:07.430934,-1,2025-11-07 09:46:09.841741462
2025-11-07 09:46:07.430934,4,2025-11-07 09:46:09.849433769
2025-11-07 09:46:07.430934,1792,2025-11-07 09:46:09.857126077
2025-11-07 09:46:07.430934,0,2025-11-07 09:46:09.864818385
2025-11-07 09:46:07.430934,9,2025-11-07 09:46:09.872510692
2025-11-07 09:46:07.430934,4096,2025-11-07 09:46:09.880203000
2025-11-07 09:46:07.430934,0,2025-11-07 09:46:09.887895308
2025-11-07 09:46:07.430934,19,2025-11-07 09:46:09.895587615
2025-11-07 09:46:07.430934,3584,2025-11-07 09:46:09.903279923
2025-11-07 09:46:07.430934,0,2025-11-07 09:46:09.910972231
2025-11-07 09:46:07.430934,9,2025-11-07 09:46:09.918664538
2025-11-07 09:46:07.430934,2816,2025-11-07 09:46:09.926356846
2025-11-07 09:46:07.430934,0,2025-11-07 09:46:09.934049154
2025-11-07 09:46:07.430934,14,2025-11-07 09:46:09.941741462
2025-11-07 09:46:07.430934,3584,2025-11-07 09:46:09.949433769
2025-11-07 09:46:07.430934,0,2025-11-07 09:46:09.957126077
2025-11-07 09:46:07.430934,7,2025-11-07 09:46:09.964818385
2025-11-07 09:46:07.430934,-1024,2025-11-07 09:46:09.972510692
2025-11-07 09:46:07.430934,-1,2025-11-07 09:46:09.980203000
2025-11-07 09:46:07.430934,-21,2025-11-07 09:46:09.987895308
2025-11-07 09:46:07.430934,-8193,2025-11-07 09:46:09.995587615
2025-11-07 09:46:07.430934,-1,2025-11-07 09:46:10.003279923
2025-11-07 09:46:07.430934,-21,2025-11-07 09:46:10.010972231
2025-11-07 09:46:07.430934,2559,2025-11-07 09:46:10.018664538
2025-11-07 09:46:07.430934,0,2025-11-07 09:46:10.026356846
2025-11-07 09:46:07.430934,31,2025-11-07 09:46:10.034049154
2025-11-07 09:46:07.430934,7168,2025-11-07 09:46:10.041741462
2025-11-07 09:46:07.430934,0,2025-11-07 09:46:10.049433769
2025-11-07 09:46:07.430934,11,2025-11-07 09:46:10.057126077
2025-11-07 09:46:07.430934,2304,2025-11-07 09:46:10.064818385
2025-11-07 09:46:07.430934,0,2025-11-07 09:46:10.072510692
2025-11-07 09:46:07.430934,11,2025-11-07 09:46:10.080203000
2025-11-07 09:46:07.430934,2304,2025-11-07 09:46:10.087895308
2025-11-07 09:46:07.430934,0,2025-11-07 09:46:10.095587615
2025-11-07 09:46:07.430934,14,2025-11-07 09:46:10.103279923
2025-11-07 09:46:07.430934,4096,2025-11-07 09:46:10.110972231
2025-11-07 09:46:07.430934,0,2025-11-07 09:46:10.118664538
2025-11-07 09:46:07.430934,11,2025-11-07 09:46:10.126356846
2025-11-07 09:46:07.430934,-2304,2025-11-07 09:46:10.134049154
2025-11-07 09:46:07.430934,-1,2025-11-07 09:46:10.141741462
2025-11-07 09:46:07.430934,-184,2025-11-07 09:46:10.149433769
2025-11-07 09:46:07.430934,-4097,2025-11-07 09:46:10.157126077
2025-11-07 09:46:07.430934,-3,2025-11-07 09:46:10.164818385
2025-11-07 09:46:07.430934,-436,2025-11-07 09:46:10.172510692
2025-11-07 09:46:07.430934,22527,2025-11-07 09:46:10.180203000
2025-11-07 09:46:07.430934,2,2025-11-07 09:46:10.187895308
2025-11-07 09:46:07.430934,1557,2025-11-07 09:46:10.195587615
2025-11-07 09:46:07.430934,-256,2025-11-07 09:46:10.203279923
2025-11-07 09:46:07.430934,4,2025-11-07 09:46:10.210972231
2025-11-07 09:46:07.430934,488,2025-11-07 09:46:10.218664538
2025-11-07 09:46:07.430934,-28160,2025-11-07 09:46:10.226356846
2025-11-07 09:46:07.430934,0,2025-11-07 09:46:10.234049154
2025-11-07 09:46:07.430934,23,2025-11-07 09:46:10.241741462
2025-11-07 09:46:07.430934,-31232,2025-11-07 09:46:10.249433769
2025-11-07 09:46:07.430934,-1,2025-11-07 09:46:10.257126077
2025-11-07 09:46:07.430934,-167,2025-11-07 09:46:10.264818385
2025-11-07 09:46:07.430934,26111,2025-11-07 09:46:10.272510692
2025-11-07 09:46:07.430934,-1,2025-11-07 09:46:10.280203000
2025-11-07 09:46:07.430934,-167,2025-11-07 09:46:10.287895308
2025-11-07 09:46:07.430934,21247,2025-11-07 09:46:10.295587615
2025-11-07 09:46:07.430934,-1,2025-11-07 09:46:10.303279923
2025-11-07 09:46:07.430934,-167,2025-11-07 09:46:10.310972231
2025-11-07 09:46:07.430934,22271,2025-11-07 09:46:10.318664538
2025-11-07 09:46:07.430934,-1,2025-11-07 09:46:10.326356846
2025-11-07 09:46:07.430934,-174,2025-11-07 09:46:10.334049154
2025-11-07 09:46:07.430934,21247,2025-11-07 09:46:10.341741462
2025-11-07 09:46:07.430934,-1,2025-11-07 09:46:10.349433769
2025-11-07 09:46:07.430934,-170,2025-11-07 09:46:10.357126077
2025-11-07 09:46:07.430934,22271,2025-11-07 09:46:10.364818385
2025-11-07 09:46:07.430934,-1,2025-11-07 09:46:10.372510692
2025-11-07 09:46:07.430934,-174,2025-11-07 09:46:10.380203000
2025-11-07 09:46:07.430934,19967,2025-11-07 09:46:10.387895308
2025-11-07 09:46:07.430934,-1,2025-11-07 09:46:10.395587615
2025-11-07 09:46:07.430934,-179,2025-11-07 09:46:10.403279923
2025-11-07 09:46:07.430934,19967,2025-11-07 09:46:10.410972231
2025-11-07 09:46:07.430934,-1,2025-11-07 09:46:10.418664538
2025-11-07 09:46:07.430934,-189,2025-11-07 09:46:10.426356846
2025-11-07 09:46:07.430934,15615,2025-11-07 09:46:10.434049154
2025-11-07 09:46:07.430934,-1,2025-11-07 09:46:10.441741462
2025-11-07 09:46:07.430934,-196,2025-11-07 09:46:10.449433769
2025-11-07 09:46:07.430934,16127,2025-11-07 09:46:10.457126077
2025-11-07 09:46:07.430934,-1,2025-11-07 09:46:10.464818385
2025-11-07 09:46:07.430934,-182,2025-11-07 09:46:10.472510692
2025-11-07 09:46:07.430934,23551,2025-11-07 09:46:10.480203000
2025-11-07 09:46:07.430934,-1,2025-11-07 09:46:10.487895308
2025-11-07 09:46:07.430934,-148,2025-11-07 09:46:10.495587615
2025-11-07 09:46:07.430934,31487,2025-11-07 09:46:10.503279923
2025-11-07 09:46:07.430934,-1,2025-11-07 09:46:10.510972230
2025-11-07 09:46:07.430934,-112,2025-11-07 09:46:10.518664538
2025-11-07 09:46:07.979497,-91,2025-11-07 09:46:10.526356846
2025-11-07 09:46:07.979497,-19201,2025-11-07 09:46:10.534049154
2025-11-07 09:46:07.979497,-1,2025-11-07 09:46:10.541741462
2025-11-07 09:46:07.979497,-62,2025-11-07 09:46:10.549433769
2025-11-07 09:46:07.979497,-11265,2025-11-07 09:46:10.557126077
2025-11-07 09:46:07.979497,-1,2025-11-07 09:46:10.564818385
2025-11-07 09:46:07.979497,-31,2025-11-07 09:46:10.572510692
2025-11-07 09:46:07.979497,-5121,2025-11-07 09:46:10.580203000
2025-11-07 09:46:07.979497,-1,2025-11-07 09:46:10.587895308
2025-11-07 09:46:07.979497,-14,2025-11-07 09:46:10.595587615
2025-11-07 09:46:07.979497,-2049,2025-11-07 09:46:10.603279923
2025-11-07 09:46:07.979497,-1,2025-11-07 09:46:10.610972231
2025-11-07 09:46:07.979497,-9,2025-11-07 09:46:10.618664538
2025-11-07 09:46:07.979497,-257,2025-11-07 09:46:10.626356846
2025-11-07 09:46:07.979497,-1,2025-11-07 09:46:10.634049154
2025-11-07 09:46:07.979497,7,2025-11-07 09:46:10.641741462
2025-11-07 09:46:07.979497,512,2025-11-07 09:46:10.649433769
2025-11-07 09:46:07.979497,0,2025-11-07 09:46:10.657126077
2025-11-07 09:46:07.979497,0,2025-11-07 09:46:10.664818385
2025-11-07 09:46:07.979497,1792,2025-11-07 09:46:10.672510692
2025-11-07 09:46:07.979497,0,2025-11-07 09:46:10.680203000
2025-11-07 09:46:07.979497,7,2025-11-07 09:46:10.687895308
2025-11-07 09:46:07.979497,1024,2025-11-07 09:46:10.695587615
2025-11-07 09:46:07.979497,0,2025-11-07 09:46:10.703279923
2025-11-07 09:46:07.979497,7,2025-11-07 09:46:10.710972231
2025-11-07 09:46:07.979497,2304,2025-11-07 09:46:10.718664538
2025-11-07 09:46:07.979497,0,2025-11-07 09:46:10.726356846
2025-11-07 09:46:07.979497,11,2025-11-07 09:46:10.734049154
2025-11-07 09:46:07.979497,2816,2025-11-07 09:46:10.741741462
2025-11-07 09:46:07.979497,0,2025-11-07 09:46:10.749433769
2025-11-07 09:46:07.979497,11,2025-11-07 09:46:10.757126077
2025-11-07 09:46:07.979497,2304,2025-11-07 09:46:10.764818385
2025-11-07 09:46:07.979497,0,2025-11-07 09:46:10.772510692
2025-11-07 09:46:07.979497,9,2025-11-07 09:46:10.780203000
2025-11-07 09:46:07.979497,1792,2025-11-07 09:46:10.787895308
2025-11-07 09:46:07.979497,0,2025-11-07 09:46:10.795587615
2025-11-07 09:46:07.979497,-4,2025-11-07 09:46:10.803279923
2025-11-07 09:46:07.979497,-4609,2025-11-07 09:46:10.810972231
2025-11-07 09:46:07.979497,-1,2025-11-07 09:46:10.818664538
2025-11-07 09:46:07.979497,-28,2025-11-07 09:46:10.826356846
2025-11-07 09:46:07.979497,-4609,2025-11-07 09:46:10.834049154
2025-11-07 09:46:07.979497,-1,2025-11-07 09:46:10.841741462
2025-11-07 09:46:07.979497,11,2025-11-07 09:46:10.849433769
2025-11-07 09:46:07.979497,11008,2025-11-07 09:46:10.857126077
2025-11-07 09:46:07.979497,0,2025-11-07 09:46:10.864818385
2025-11-07 09:46:07.979497,43,2025-11-07 09:46:10.872510692
2025-11-07 09:46:07.979497,7168,2025-11-07 09:46:10.880203000
2025-11-07 09:46:07.979497,0,2025-11-07 09:46:10.887895308
2025-11-07 09:46:07.979497,21,2025-11-07 09:46:10.895587615
2025-11-07 09:46:07.979497,5376,2025-11-07 09:46:10.903279923
2025-11-07 09:46:07.979497,0,2025-11-07 09:46:10.910972231
2025-11-07 09:46:07.979497,26,2025-11-07 09:46:10.918664538
2025-11-07 09:46:07.979497,7936,2025-11-07 09:46:10.926356846
2025-11-07 09:46:07.979497,0,2025-11-07 09:46:10.934049154
2025-11-07 09:46:07.979497,35,2025-11-07 09:46:10.941741462
2025-11-07 09:46:07.979497,7936,2025-11-07 09:46:10.949433769
2025-11-07 09:46:07.979497,0,2025-11-07 09:46:10.957126077
2025-11-07 09:46:07.979497,4,2025-11-07 09:46:10.964818385
2025-11-07 09:46:07.979497,25088,2025-11-07 09:46:10.972510692
2025-11-07 09:46:07.979497,-1,2025-11-07 09:46:10.980203000
2025-11-07 09:46:07.979497,-484,2025-11-07 09:46:10.987895308
2025-11-07 09:46:07.979497,17919,2025-11-07 09:46:10.995587615
2025-11-07 09:46:07.979497,-2,2025-11-07 09:46:11.003279923
2025-11-07 09:46:07.979497,417,2025-11-07 09:46:11.010972231
2025-11-07 09:46:07.979497,-21760,2025-11-07 09:46:11.018664538
2025-11-07 09:46:07.979497,4,2025-11-07 09:46:11.026356846
2025-11-07 09:46:07.979497,968,2025-11-07 09:46:11.034049154
2025-11-07 09:46:07.979497,-15360,2025-11-07 09:46:11.041741462
2025-11-07 09:46:07.979497,1,2025-11-07 09:46:11.049433769
2025-11-07 09:46:07.979497,294,2025-11-07 09:46:11.057126077
2025-11-07 09:46:07.979497,30464,2025-11-07 09:46:11.064818385
2025-11-07 09:46:07.979497,0,2025-11-07 09:46:11.072510692
2025-11-07 09:46:07.979497,-86,2025-11-07 09:46:11.080203000
2025-11-07 09:46:07.979497,-26625,2025-11-07 09:46:11.087895308
2025-11-07 09:46:07.979497,-1,2025-11-07 09:46:11.095587615
2025-11-07 09:46:07.979497,-98,2025-11-07 09:46:11.103279923
2025-11-07 09:46:07.979497,30207,2025-11-07 09:46:11.110972231
2025-11-07 09:46:07.979497,-1,2025-11-07 09:46:11.118664538
2025-11-07 09:46:07.979497,-136,2025-11-07 09:46:11.126356846
2025-11-07 09:46:07.979497,-30977,2025-11-07 09:46:11.134049154
2025-11-07 09:46:07.979497,-1,2025-11-07 09:46:11.141741462
2025-11-07 09:46:07.979497,-129,2025-11-07 09:46:11.149433769
2025-11-07 09:46:07.979497,31487,2025-11-07 09:46:11.157126077
2025-11-07 09:46:07.979497,-1,2025-11-07 09:46:11.164818385
2025-11-07 09:46:07.979497,-127,2025-11-07 09:46:11.172510692
2025-11-07 09:46:07.979497,32767,2025-11-07 09:46:11.180203000
2025-11-07 09:46:07.979497,-1,2025-11-07 09:46:11.187895308
2025-11-07 09:46:07.979497,-129,2025-11-07 09:46:11.195587615
2025-11-07 09:46:07.979497,-31489,2025-11-07 09:46:11.203279923
2025-11-07 09:46:07.979497,-1,2025-11-07 09:46:11.210972231
2025-11-07 09:46:07.979497,-127,2025-11-07 09:46:11.218664538
2025-11-07 09:46:07.979497,32255,2025-11-07 09:46:11.226356846
2025-11-07 09:46:07.979497,-1,2025-11-07 09:46:11.234049154
2025-11-07 09:46:07.979497,-129,2025-11-07 09:46:11.241741462
2025-11-07 09:46:07.979497,-32257,2025-11-07 09:46:11.249433769
2025-11-07 09:46:07.979497,-1,2025-11-07 09:46:11.257126077
2025-11-07 09:46:07.979497,-131,2025-11-07 09:46:11.264818385
2025-11-07 09:46:07.979497,32255,2025-11-07 09:46:11.272510692
2025-11-07 09:46:07.979497,-1,2025-11-07 09:46:11.280203000
2025-11-07 09:46:07.979497,-124,2025-11-07 09:46:11.287895308
2025-11-07 09:46:07.979497,-28417,2025-11-07 09:46:11.295587615
2025-11-07 09:46:07.979497,-1,2025-11-07 09:46:11.303279923
2025-11-07 09:46:07.979497,-103,2025-11-07 09:46:11.310972231
2025-11-07 09:46:07.979497,-22273,2025-11-07 09:46:11.318664538
2025-11-07 09:46:07.979497,-1,2025-11-07 09:46:11.326356846
2025-11-07 09:46:07.979497,-69,2025-11-07 09:46:11.334049154
2025-11-07 09:46:07.979497,-13825,2025-11-07 09:46:11.341741462
2025-11-07 09:46:07.979497,-1,2025-11-07 09:46:11.349433769
2025-11-07 09:46:07.979497,-45,2025-11-07 09:46:11.357126077
2025-11-07 09:46:08.677435,-38,2025-11-07 09:46:11.364818385
2025-11-07 09:46:08.677435,-9985,2025-11-07 09:46:11.372510692
2025-11-07 09:46:08.677435,-1,2025-11-07 09:46:11.380203000
2025-11-07 09:46:08.677435,-38,2025-11-07 09:46:11.387895308
2025-11-07 09:46:08.677435,-7681,2025-11-07 09:46:11.395587615
2025-11-07 09:46:08.677435,-1,2025-11-07 09:46:11.403279923
2025-11-07 09:46:08.677435,-23,2025-11-07 09:46:11.410972231
2025-11-07 09:46:08.677435,-4609,2025-11-07 09:46:11.418664538
2025-11-07 09:46:08.677435,-1,2025-11-07 09:46:11.426356846
2025-11-07 09:46:08.677435,-16,2025-11-07 09:46:11.434049154
2025-11-07 09:46:08.677435,-2561,2025-11-07 09:46:11.441741462
2025-11-07 09:46:08.677435,-1,2025-11-07 09:46:11.449433769
2025-11-07 09:46:08.677435,-2,2025-11-07 09:46:11.457126077
2025-11-07 09:46:08.677435,255,2025-11-07 09:46:11.464818385
2025-11-07 09:46:08.677435,0,2025-11-07 09:46:11.472510692
2025-11-07 09:46:08.677435,-4,2025-11-07 09:46:11.480203000
2025-11-07 09:46:08.677435,-257,2025-11-07 09:46:11.487895308
2025-11-07 09:46:08.677435,-1,2025-11-07 09:46:11.495587615
2025-11-07 09:46:08.677435,2,2025-11-07 09:46:11.503279923
2025-11-07 09:46:08.677435,512,2025-11-07 09:46:11.510972230
2025-11-07 09:46:08.677435,0,2025-11-07 09:46:11.518664538
2025-11-07 09:46:08.677435,4,2025-11-07 09:46:11.526356846
2025-11-07 09:46:08.677435,1024,2025-11-07 09:46:11.534049154
2025-11-07 09:46:08.677435,0,2025-11-07 09:46:11.541741462
2025-11-07 09:46:08.677435,4,2025-11-07 09:46:11.549433769
2025-11-07 09:46:08.677435,1792,2025-11-07 09:46:11.557126077
2025-11-07 09:46:08.677435,0,2025-11-07 09:46:11.564818385
2025-11-07 09:46:08.677435,9,2025-11-07 09:46:11.572510692
2025-11-07 09:46:08.677435,1792,2025-11-07 09:46:11.580203000
2025-11-07 09:46:08.677435,0,2025-11-07 09:46:11.587895308
2025-11-07 09:46:08.677435,4,2025-11-07 09:46:11.595587615
2025-11-07 09:46:08.677435,0,2025-11-07 09:46:11.603279923
2025-11-07 09:46:08.677435,0,2025-11-07 09:46:11.610972231
2025-11-07 09:46:08.677435,-4,2025-11-07 09:46:11.618664538
2025-11-07 09:46:08.677435,-2561,2025-11-07 09:46:11.626356846
2025-11-07 09:46:08.677435,-1,2025-11-07 09:46:11.634049154
2025-11-07 09:46:08.677435,-23,2025-11-07 09:46:11.641741462
2025-11-07 09:46:08.677435,-6913,2025-11-07 09:46:11.649433769
2025-11-07 09:46:08.677435,-1,2025-11-07 09:46:11.657126077
2025-11-07 09:46:08.677435,-14,2025-11-07 09:46:11.664818385
2025-11-07 09:46:08.677435,4351,2025-11-07 09:46:11.672510692
2025-11-07 09:46:08.677435,0,2025-11-07 09:46:11.680203000
2025-11-07 09:46:08.677435,40,2025-11-07 09:46:11.687895308
2025-11-07 09:46:08.677435,10240,2025-11-07 09:46:11.695587615
2025-11-07 09:46:08.677435,0,2025-11-07 09:46:11.703279923
2025-11-07 09:46:08.677435,28,2025-11-07 09:46:11.710972231
2025-11-07 09:46:08.677435,4864,2025-11-07 09:46:11.718664538
2025-11-07 09:46:08.677435,0,2025-11-07 09:46:11.726356846
2025-11-07 09:46:08.677435,23,2025-11-07 09:46:11.734049154
2025-11-07 09:46:08.677435,7936,2025-11-07 09:46:11.741741462
2025-11-07 09:46:08.677435,0,2025-11-07 09:46:11.749433769
2025-11-07 09:46:08.677435,35,2025-11-07 09:46:11.757126077
2025-11-07 09:46:08.677435,7936,2025-11-07 09:46:11.764818385
2025-11-07 09:46:08.677435,0,2025-11-07 09:46:11.772510692
2025-11-07 09:46:08.677435,28,2025-11-07 09:46:11.780203000
2025-11-07 09:46:08.677435,-1792,2025-11-07 09:46:11.787895308
2025-11-07 09:46:08.677435,-1,2025-11-07 09:46:11.795587615
2025-11-07 09:46:08.677435,-227,2025-11-07 09:46:11.803279923
2025-11-07 09:46:08.677435,-16897,2025-11-07 09:46:11.810972231
2025-11-07 09:46:08.677435,-3,2025-11-07 09:46:11.818664538
2025-11-07 09:46:08.677435,-361,2025-11-07 09:46:11.826356846
2025-11-07 09:46:08.677435,-6401,2025-11-07 09:46:11.834049154
2025-11-07 09:46:08.677435,2,2025-11-07 09:46:11.841741462
2025-11-07 09:46:08.677435,1512,2025-11-07 09:46:11.849433769
2025-11-07 09:46:08.677435,19456,2025-11-07 09:46:11.857126077
2025-11-07 09:46:08.677435,4,2025-11-07 09:46:11.864818385
2025-11-07 09:46:08.677435,445,2025-11-07 09:46:11.872510692
2025-11-07 09:46:08.677435,-17152,2025-11-07 09:46:11.880203000
2025-11-07 09:46:08.677435,0,2025-11-07 09:46:11.887895308
2025-11-07 09:46:08.677435,11,2025-11-07 09:46:11.895587615
2025-11-07 09:46:08.677435,-31744,2025-11-07 09:46:11.903279923
2025-11-07 09:46:08.677435,-1,2025-11-07 09:46:11.910972231
2025-11-07 09:46:08.677435,-134,2025-11-07 09:46:11.918664538
2025-11-07 09:46:08.677435,30207,2025-11-07 09:46:11.926356846
2025-11-07 09:46:08.677435,-1,2025-11-07 09:46:11.934049154
2025-11-07 09:46:08.677435,-162,2025-11-07 09:46:11.941741462
2025-11-07 09:46:08.677435,26111,2025-11-07 09:46:11.949433769
2025-11-07 09:46:08.677435,-1,2025-11-07 09:46:11.957126077
2025-11-07 09:46:08.677435,-150,2025-11-07 09:46:11.964818385
2025-11-07 09:46:08.677435,26111,2025-11-07 09:46:11.972510692
2025-11-07 09:46:08.677435,-1,2025-11-07 09:46:11.980203000
2025-11-07 09:46:08.677435,-153,2025-11-07 09:46:11.987895308
2025-11-07 09:46:08.677435,26623,2025-11-07 09:46:11.995587615
2025-11-07 09:46:08.677435,-1,2025-11-07 09:46:12.003279923
2025-11-07 09:46:08.677435,-158,2025-11-07 09:46:12.010972231
2025-11-07 09:46:08.677435,24831,2025-11-07 09:46:12.018664538
2025-11-07 09:46:08.677435,-1,2025-11-07 09:46:12.026356846
2025-11-07 09:46:08.677435,-160,2025-11-07 09:46:12.034049154
2025-11-07 09:46:08.677435,23551,2025-11-07 09:46:12.041741462
2025-11-07 09:46:08.677435,-1,2025-11-07 09:46:12.049433769
2025-11-07 09:46:08.677435,-172,2025-11-07 09:46:12.057126077
2025-11-07 09:46:08.677435,20479,2025-11-07 09:46:12.064818385
2025-11-07 09:46:08.677435,-1,2025-11-07 09:46:12.072510692
2025-11-07 09:46:08.677435,-184,2025-11-07 09:46:12.080203000
2025-11-07 09:46:08.677435,16895,2025-11-07 09:46:12.087895308
2025-11-07 09:46:08.677435,-1,2025-11-07 09:46:12.095587615
2025-11-07 09:46:08.677435,-191,2025-11-07 09:46:12.103279923
2025-11-07 09:46:08.677435,18175,2025-11-07 09:46:12.110972231
2025-11-07 09:46:08.677435,-1,2025-11-07 09:46:12.118664538
2025-11-07 09:46:08.677435,-177,2025-11-07 09:46:12.126356846
2025-11-07 09:46:08.677435,24319,2025-11-07 09:46:12.134049154
2025-11-07 09:46:08.677435,-1,2025-11-07 09:46:12.141741462
2025-11-07 09:46:08.677435,-143,2025-11-07 09:46:12.149433769
2025-11-07 09:46:08.677435,-31489,2025-11-07 09:46:12.157126077
2025-11-07 09:46:08.677435,-1,2025-11-07 09:46:12.164818385
2025-11-07 09:46:08.677435,-103,2025-11-07 09:46:12.172510692
2025-11-07 09:46:08.677435,-20481,2025-11-07 09:46:12.180203000
2025-11-07 09:46:08.677435,-1,2025-11-07 09:46:12.187895308
2025-11-07 09:46:08.677435,-64,2025-11-07 09:46:12.195587615
2025-11-07 09:46:09.080102,-47,2025-11-07 09:46:12.203279923
2025-11-07 09:46:09.080102,-7681,2025-11-07 09:46:12.210972231
2025-11-07 09:46:09.080102,-1,2025-11-07 09:46:12.218664538
2025-11-07 09:46:09.080102,-16,2025-11-07 09:46:12.226356846
2025-11-07 09:46:09.080102,-2049,2025-11-07 09:46:12.234049154
2025-11-07 09:46:09.080102,-1,2025-11-07 09:46:12.241741462
2025-11-07 09:46:09.080102,-2,2025-11-07 09:46:12.249433769
2025-11-07 09:46:09.080102,767,2025-11-07 09:46:12.257126077
2025-11-07 09:46:09.080102,0,2025-11-07 09:46:12.264818385
2025-11-07 09:46:09.080102,7,2025-11-07 09:46:12.272510692
2025-11-07 09:46:09.080102,2304,2025-11-07 09:46:12.280203000
2025-11-07 09:46:09.080102,0,2025-11-07 09:46:12.287895308
2025-11-07 09:46:09.080102,7,2025-11-07 09:46:12.295587615
2025-11-07 09:46:09.080102,1024,2025-11-07 09:46:12.303279923
2025-11-07 09:46:09.080102,0,2025-11-07 09:46:12.310972231
2025-11-07 09:46:09.080102,7,2025-11-07 09:46:12.318664538
2025-11-07 09:46:09.080102,1024,2025-11-07 09:46:12.326356846
2025-11-07 09:46:09.080102,0,2025-11-07 09:46:12.334049154
2025-11-07 09:46:09.080102,2,2025-11-07 09:46:12.341741462
2025-11-07 09:46:09.080102,1024,2025-11-07 09:46:12.349433769
2025-11-07 09:46:09.080102,0,2025-11-07 09:46:12.357126077
2025-11-07 09:46:09.080102,4,2025-11-07 09:46:12.364818385
2025-11-07 09:46:09.080102,512,2025-11-07 09:46:12.372510692
2025-11-07 09:46:09.080102,0,2025-11-07 09:46:12.380203000
2025-11-07 09:46:09.080102,4,2025-11-07 09:46:12.387895308
2025-11-07 09:46:09.080102,1024,2025-11-07 09:46:12.395587615
2025-11-07 09:46:09.080102,0,2025-11-07 09:46:12.403279923
2025-11-07 09:46:09.080102,7,2025-11-07 09:46:12.410972231
2025-11-07 09:46:09.080102,2304,2025-11-07 09:46:12.418664538
2025-11-07 09:46:09.080102,0,2025-11-07 09:46:12.426356846
2025-11-07 09:46:09.080102,9,2025-11-07 09:46:12.434049154
2025-11-07 09:46:09.080102,512,2025-11-07 09:46:12.441741462
2025-11-07 09:46:09.080102,0,2025-11-07 09:46:12.449433769
2025-11-07 09:46:09.080102,-4,2025-11-07 09:46:12.457126077
2025-11-07 09:46:09.080102,-3841,2025-11-07 09:46:12.464818385
2025-11-07 09:46:09.080102,-1,2025-11-07 09:46:12.472510692
2025-11-07 09:46:09.080102,-21,2025-11-07 09:46:12.480203000
2025-11-07 09:46:09.080102,255,2025-11-07 09:46:12.487895308
2025-11-07 09:46:09.080102,0,2025-11-07 09:46:12.495587615
2025-11-07 09:46:09.080102,38,2025-11-07 09:46:12.503279923
2025-11-07 09:46:09.080102,13312,2025-11-07 09:46:12.510972230
2025-11-07 09:46:09.080102,0,2025-11-07 09:46:12.518664538
2025-11-07 09:46:09.080102,40,2025-11-07 09:46:12.526356846
2025-11-07 09:46:09.080102,7168,2025-11-07 09:46:12.534049154
2025-11-07 09:46:09.080102,0,2025-11-07 09:46:12.541741462
2025-11-07 09:46:09.080102,31,2025-11-07 09:46:12.549433769
2025-11-07 09:46:09.080102,8448,2025-11-07 09:46:12.557126077
2025-11-07 09:46:09.080102,0,2025-11-07 09:46:12.564818385
2025-11-07 09:46:09.080102,40,2025-11-07 09:46:12.572510692
2025-11-07 09:46:09.080102,11008,2025-11-07 09:46:12.580203000
2025-11-07 09:46:09.080102,0,2025-11-07 09:46:12.587895308
2025-11-07 09:46:09.080102,40,2025-11-07 09:46:12.595587615
2025-11-07 09:46:09.080102,8448,2025-11-07 09:46:12.603279923
2025-11-07 09:46:09.080102,0,2025-11-07 09:46:12.610972231
2025-11-07 09:46:09.080102,-33,2025-11-07 09:46:12.618664538
2025-11-07 09:46:09.080102,-14337,2025-11-07 09:46:12.626356846
2025-11-07 09:46:09.080102,-2,2025-11-07 09:46:12.634049154
2025-11-07 09:46:09.080102,-618,2025-11-07 09:46:12.641741462
2025-11-07 09:46:09.080102,-29697,2025-11-07 09:46:12.649433769
2025-11-07 09:46:09.080102,-1,2025-11-07 09:46:12.657126077
2025-11-07 09:46:09.080102,1167,2025-11-07 09:46:12.664818385
2025-11-07 09:46:09.080102,-25088,2025-11-07 09:46:12.672510692
2025-11-07 09:46:09.080102,6,2025-11-07 09:46:12.680203000
2025-11-07 09:46:09.080102,1001,2025-11-07 09:46:12.687895308
2025-11-07 09:46:09.080102,15360,2025-11-07 09:46:12.695587615
2025-11-07 09:46:09.080102,1,2025-11-07 09:46:12.703279923
2025-11-07 09:46:09.080102,103,2025-11-07 09:46:12.710972231
2025-11-07 09:46:09.080102,-9728,2025-11-07 09:46:12.718664538
2025-11-07 09:46:09.080102,-1,2025-11-07 09:46:12.726356846
2025-11-07 09:46:09.080102,-148,2025-11-07 09:46:12.734049154
2025-11-07 09:46:09.080102,26623,2025-11-07 09:46:12.741741462
2025-11-07 09:46:09.080102,-1,2025-11-07 09:46:12.749433769
2025-11-07 09:46:09.080102,-148,2025-11-07 09:46:12.757126077
2025-11-07 09:46:09.080102,24319,2025-11-07 09:46:12.764818385
2025-11-07 09:46:09.080102,-1,2025-11-07 09:46:12.772510692
2025-11-07 09:46:09.080102,-160,2025-11-07 09:46:12.780203000
2025-11-07 09:46:09.080102,25343,2025-11-07 09:46:12.787895308
2025-11-07 09:46:09.080102,-1,2025-11-07 09:46:12.795587615
2025-11-07 09:46:09.080102,-160,2025-11-07 09:46:12.803279923
2025-11-07 09:46:09.080102,24319,2025-11-07 09:46:12.810972231
2025-11-07 09:46:09.080102,-1,2025-11-07 09:46:12.818664538
2025-11-07 09:46:09.080102,-162,2025-11-07 09:46:12.826356846
2025-11-07 09:46:09.080102,23039,2025-11-07 09:46:12.834049154
2025-11-07 09:46:09.080102,-1,2025-11-07 09:46:12.841741462
2025-11-07 09:46:09.080102,-174,2025-11-07 09:46:12.849433769
2025-11-07 09:46:09.080102,20479,2025-11-07 09:46:12.857126077
2025-11-07 09:46:09.080102,-1,2025-11-07 09:46:12.864818385
2025-11-07 09:46:09.080102,-184,2025-11-07 09:46:12.872510692
2025-11-07 09:46:09.080102,16895,2025-11-07 09:46:12.880203000
2025-11-07 09:46:09.080102,-1,2025-11-07 09:46:12.887895308
2025-11-07 09:46:09.080102,-201,2025-11-07 09:46:12.895587615
2025-11-07 09:46:09.080102,12543,2025-11-07 09:46:12.903279923
2025-11-07 09:46:09.080102,-1,2025-11-07 09:46:12.910972231
2025-11-07 09:46:09.080102,-215,2025-11-07 09:46:12.918664538
2025-11-07 09:46:09.080102,10751,2025-11-07 09:46:12.926356846
2025-11-07 09:46:09.080102,-1,2025-11-07 09:46:12.934049154
2025-11-07 09:46:09.080102,-206,2025-11-07 09:46:12.941741462
2025-11-07 09:46:09.080102,16895,2025-11-07 09:46:12.949433769
2025-11-07 09:46:09.080102,-1,2025-11-07 09:46:12.957126077
2025-11-07 09:46:09.080102,-184,2025-11-07 09:46:12.964818385
2025-11-07 09:46:09.080102,19199,2025-11-07 09:46:12.972510692
2025-11-07 09:46:09.080102,-1,2025-11-07 09:46:12.980203000
2025-11-07 09:46:09.080102,-162,2025-11-07 09:46:12.987895308
2025-11-07 09:46:09.080102,-30977,2025-11-07 09:46:12.995587615
2025-11-07 09:46:09.080102,-1,2025-11-07 09:46:13.003279923
2025-11-07 09:46:09.080102,-88,2025-11-07 09:46:13.010972231
2025-11-07 09:46:09.080102,-17409,2025-11-07 09:46:13.018664538
2025-11-07 09:46:09.080102,-1,2025-11-07 09:46:13.026356846
2025-11-07 09:46:09.080102,-47,2025-11-07 09:46:13.034049154
2025-11-07 09:46:09.680546,-23,2025-11-07 09:46:13.041741462
2025-11-07 09:46:09.680546,-2049,2025-11-07 09:46:13.049433769
2025-11-07 09:46:09.680546,-1,2025-11-07 09:46:13.057126077
2025-11-07 09:46:09.680546,-2,2025-11-07 09:46:13.064818385
2025-11-07 09:46:09.680546,2559,2025-11-07 09:46:13.072510692
2025-11-07 09:46:09.680546,0,2025-11-07 09:46:13.080203000
2025-11-07 09:46:09.680546,16,2025-11-07 09:46:13.087895308
2025-11-07 09:46:09.680546,6656,2025-11-07 09:46:13.095587615
2025-11-07 09:46:09.680546,0,2025-11-07 09:46:13.103279923
2025-11-07 09:46:09.680546,33,2025-11-07 09:46:13.110972231
2025-11-07 09:46:09.680546,7168,2025-11-07 09:46:13.118664538
2025-11-07 09:46:09.680546,0,2025-11-07 09:46:13.126356846
2025-11-07 09:46:09.680546,23,2025-11-07 09:46:13.134049154
2025-11-07 09:46:09.680546,5888,2025-11-07 09:46:13.141741462
2025-11-07 09:46:09.680546,0,2025-11-07 09:46:13.149433769
2025-11-07 09:46:09.680546,21,2025-11-07 09:46:13.157126077
2025-11-07 09:46:09.680546,4864,2025-11-07 09:46:13.164818385
2025-11-07 09:46:09.680546,0,2025-11-07 09:46:13.172510692
2025-11-07 09:46:09.680546,16,2025-11-07 09:46:13.180203000
2025-11-07 09:46:09.680546,4096,2025-11-07 09:46:13.187895308
2025-11-07 09:46:09.680546,0,2025-11-07 09:46:13.195587615
2025-11-07 09:46:09.680546,19,2025-11-07 09:46:13.203279923
2025-11-07 09:46:09.680546,5376,2025-11-07 09:46:13.210972231
2025-11-07 09:46:09.680546,0,2025-11-07 09:46:13.218664538
2025-11-07 09:46:09.680546,16,2025-11-07 09:46:13.226356846
2025-11-07 09:46:09.680546,4096,2025-11-07 09:46:13.234049154
2025-11-07 09:46:09.680546,0,2025-11-07 09:46:13.241741462
2025-11-07 09:46:09.680546,21,2025-11-07 09:46:13.249433769
2025-11-07 09:46:09.680546,5376,2025-11-07 09:46:13.257126077
2025-11-07 09:46:09.680546,0,2025-11-07 09:46:13.264818385
2025-11-07 09:46:09.680546,19,2025-11-07 09:46:13.272510692
2025-11-07 09:46:09.680546,4864,2025-11-07 09:46:13.280203000
2025-11-07 09:46:09.680546,0,2025-11-07 09:46:13.287895308
2025-11-07 09:46:09.680546,11,2025-11-07 09:46:13.295587615
2025-11-07 09:46:09.680546,1024,2025-11-07 09:46:13.303279923
2025-11-07 09:46:09.680546,0,2025-11-07 09:46:13.310972231
2025-11-07 09:46:09.680546,-2,2025-11-07 09:46:13.318664538
2025-11-07 09:46:09.680546,-3329,2025-11-07 09:46:13.326356846
2025-11-07 09:46:09.680546,-1,2025-11-07 09:46:13.334049154
2025-11-07 09:46:09.680546,-14,2025-11-07 09:46:13.341741462
2025-11-07 09:46:09.680546,1279,2025-11-07 09:46:13.349433769
2025-11-07 09:46:09.680546,0,2025-11-07 09:46:13.357126077
2025-11-07 09:46:09.680546,28,2025-11-07 09:46:13.364818385
2025-11-07 09:46:09.680546,8960,2025-11-07 09:46:13.372510692
2025-11-07 09:46:09.680546,0,2025-11-07 09:46:13.380203000
2025-11-07 09:46:09.680546,23,2025-11-07 09:46:13.387895308
2025-11-07 09:46:09.680546,3584,2025-11-07 09:46:13.395587615
2025-11-07 09:46:09.680546,0,2025-11-07 09:46:13.403279923
2025-11-07 09:46:09.680546,19,2025-11-07 09:46:13.410972231
2025-11-07 09:46:09.680546,5376,2025-11-07 09:46:13.418664538
2025-11-07 09:46:09.680546,0,2025-11-07 09:46:13.426356846
2025-11-07 09:46:09.680546,23,2025-11-07 09:46:13.434049154
2025-11-07 09:46:09.680546,5888,2025-11-07 09:46:13.441741462
2025-11-07 09:46:09.680546,0,2025-11-07 09:46:13.449433769
2025-11-07 09:46:09.680546,26,2025-11-07 09:46:13.457126077
2025-11-07 09:46:09.680546,5888,2025-11-07 09:46:13.464818385
2025-11-07 09:46:09.680546,0,2025-11-07 09:46:13.472510692
2025-11-07 09:46:09.680546,-50,2025-11-07 09:46:13.480203000
2025-11-07 09:46:09.680546,-21761,2025-11-07 09:46:13.487895308
2025-11-07 09:46:09.680546,-2,2025-11-07 09:46:13.495587615
2025-11-07 09:46:09.680546,-618,2025-11-07 09:46:13.503279923
2025-11-07 09:46:09.680546,-16129,2025-11-07 09:46:13.510972230
2025-11-07 09:46:09.680546,-1,2025-11-07 09:46:13.518664538
2025-11-07 09:46:09.680546,1179,2025-11-07 09:46:13.526356846
2025-11-07 09:46:09.680546,20224,2025-11-07 09:46:13.534049154
2025-11-07 09:46:09.680546,6,2025-11-07 09:46:13.541741462
2025-11-07 09:46:09.680546,925,2025-11-07 09:46:13.549433769
2025-11-07 09:46:09.680546,9216,2025-11-07 09:46:13.557126077
2025-11-07 09:46:09.680546,1,2025-11-07 09:46:13.564818385
2025-11-07 09:46:09.680546,91,2025-11-07 09:46:13.572510692
2025-11-07 09:46:09.680546,-14080,2025-11-07 09:46:13.580203000
2025-11-07 09:46:09.680546,-1,2025-11-07 09:46:13.587895308
2025-11-07 09:46:09.680546,-155,2025-11-07 09:46:13.595587615
2025-11-07 09:46:09.680546,25343,2025-11-07 09:46:13.603279923
2025-11-07 09:46:09.680546,-1,2025-11-07 09:46:13.610972231
2025-11-07 09:46:09.680546,-158,2025-11-07 09:46:13.618664538
2025-11-07 09:46:09.680546,21759,2025-11-07 09:46:13.626356846
2025-11-07 09:46:09.680546,-1,2025-11-07 09:46:13.634049154
2025-11-07 09:46:09.680546,-170,2025-11-07 09:46:13.641741462
2025-11-07 09:46:09.680546,23039,2025-11-07 09:46:13.649433769
2025-11-07 09:46:09.680546,-1,2025-11-07 09:46:13.657126077
2025-11-07 09:46:09.680546,-170,2025-11-07 09:46:13.664818385
2025-11-07 09:46:09.680546,22271,2025-11-07 09:46:13.672510692
2025-11-07 09:46:09.680546,-1,2025-11-07 09:46:13.680203000
2025-11-07 09:46:09.680546,-170,2025-11-07 09:46:13.687895308
2025-11-07 09:46:09.680546,22271,2025-11-07 09:46:13.695587615
2025-11-07 09:46:09.680546,-1,2025-11-07 09:46:13.703279923
2025-11-07 09:46:09.680546,-172,2025-11-07 09:46:13.710972231
2025-11-07 09:46:09.680546,20479,2025-11-07 09:46:13.718664538
2025-11-07 09:46:09.680546,-1,2025-11-07 09:46:13.726356846
2025-11-07 09:46:09.680546,-182,2025-11-07 09:46:13.734049154
2025-11-07 09:46:09.680546,17407,2025-11-07 09:46:13.741741462
2025-11-07 09:46:09.680546,-1,2025-11-07 09:46:13.749433769
2025-11-07 09:46:09.680546,-196,2025-11-07 09:46:13.757126077
2025-11-07 09:46:09.680546,15103,2025-11-07 09:46:13.764818385
2025-11-07 09:46:09.680546,-1,2025-11-07 09:46:13.772510692
2025-11-07 09:46:09.680546,-201,2025-11-07 09:46:13.780203000
2025-11-07 09:46:09.680546,14335,2025-11-07 09:46:13.787895308
2025-11-07 09:46:09.680546,-1,2025-11-07 09:46:13.795587615
2025-11-07 09:46:09.680546,-198,2025-11-07 09:46:13.803279923
2025-11-07 09:46:09.680546,19199,2025-11-07 09:46:13.810972231
2025-11-07 09:46:09.680546,-1,2025-11-07 09:46:13.818664538
2025-11-07 09:46:09.680546,-160,2025-11-07 09:46:13.826356846
2025-11-07 09:46:09.680546,29695,2025-11-07 09:46:13.834049154
2025-11-07 09:46:09.680546,-1,2025-11-07 09:46:13.841741462
2025-11-07 09:46:09.680546,-124,2025-11-07 09:46:13.849433769
2025-11-07 09:46:09.680546,-26625,2025-11-07 09:46:13.857126077
2025-11-07 09:46:09.680546,-1,2025-11-07 09:46:13.864818385
2025-11-07 09:46:09.680546,-83,2025-11-07 09:46:13.872510692
2025-11-07 09:46:10.229705,-69,2025-11-07 09:46:13.880203000
2025-11-07 09:46:10.229705,-13825,2025-11-07 09:46:13.887895308
2025-11-07 09:46:10.229705,-1,2025-11-07 09:46:13.895587615
2025-11-07 09:46:10.229705,-38,2025-11-07 09:46:13.903279923
2025-11-07 09:46:10.229705,-5121,2025-11-07 09:46:13.910972231
2025-11-07 09:46:10.229705,-1,2025-11-07 09:46:13.918664538
2025-11-07 09:46:10.229705,-14,2025-11-07 09:46:13.926356846
2025-11-07 09:46:10.229705,-2049,2025-11-07 09:46:13.934049154
2025-11-07 09:46:10.229705,-1,2025-11-07 09:46:13.941741462
2025-11-07 09:46:10.229705,-2,2025-11-07 09:46:13.949433769
2025-11-07 09:46:10.229705,767,2025-11-07 09:46:13.957126077
2025-11-07 09:46:10.229705,0,2025-11-07 09:46:13.964818385
2025-11-07 09:46:10.229705,2,2025-11-07 09:46:13.972510692
2025-11-07 09:46:10.229705,512,2025-11-07 09:46:13.980203000
2025-11-07 09:46:10.229705,0,2025-11-07 09:46:13.987895308
2025-11-07 09:46:10.229705,9,2025-11-07 09:46:13.995587615
2025-11-07 09:46:10.229705,3584,2025-11-07 09:46:14.003279923
2025-11-07 09:46:10.229705,0,2025-11-07 09:46:14.010972231
2025-11-07 09:46:10.229705,9,2025-11-07 09:46:14.018664538
2025-11-07 09:46:10.229705,1792,2025-11-07 09:46:14.026356846
2025-11-07 09:46:10.229705,0,2025-11-07 09:46:14.034049154
2025-11-07 09:46:10.229705,9,2025-11-07 09:46:14.041741462
2025-11-07 09:46:10.229705,2304,2025-11-07 09:46:14.049433769
2025-11-07 09:46:10.229705,0,2025-11-07 09:46:14.057126077
2025-11-07 09:46:10.229705,4,2025-11-07 09:46:14.064818385
2025-11-07 09:46:10.229705,512,2025-11-07 09:46:14.072510692
2025-11-07 09:46:10.229705,0,2025-11-07 09:46:14.080203000
2025-11-07 09:46:10.229705,7,2025-11-07 09:46:14.087895308
2025-11-07 09:46:10.229705,1792,2025-11-07 09:46:14.095587615
2025-11-07 09:46:10.229705,0,2025-11-07 09:46:14.103279923
2025-11-07 09:46:10.229705,7,2025-11-07 09:46:14.110972231
2025-11-07 09:46:10.229705,1792,2025-11-07 09:46:14.118664538
2025-11-07 09:46:10.229705,0,2025-11-07 09:46:14.126356846
2025-11-07 09:46:10.229705,7,2025-11-07 09:46:14.134049154
2025-11-07 09:46:10.229705,2304,2025-11-07 09:46:14.141741462
2025-11-07 09:46:10.229705,0,2025-11-07 09:46:14.149433769
2025-11-07 09:46:10.229705,11,2025-11-07 09:46:14.157126077
2025-11-07 09:46:10.229705,2816,2025-11-07 09:46:14.164818385
2025-11-07 09:46:10.229705,0,2025-11-07 09:46:14.172510692
2025-11-07 09:46:10.229705,11,2025-11-07 09:46:14.180203000
2025-11-07 09:46:10.229705,4096,2025-11-07 09:46:14.187895308
2025-11-07 09:46:10.229705,0,2025-11-07 09:46:14.195587615
2025-11-07 09:46:10.229705,16,2025-11-07 09:46:14.203279923
2025-11-07 09:46:10.229705,4096,2025-11-07 09:46:14.210972231
2025-11-07 09:46:10.229705,0,2025-11-07 09:46:14.218664538
2025-11-07 09:46:10.229705,11,2025-11-07 09:46:14.226356846
2025-11-07 09:46:10.229705,2304,2025-11-07 09:46:14.234049154
2025-11-07 09:46:10.229705,0,2025-11-07 09:46:14.241741462
2025-11-07 09:46:10.229705,11,2025-11-07 09:46:14.249433769
2025-11-07 09:46:10.229705,1792,2025-11-07 09:46:14.257126077
2025-11-07 09:46:10.229705,0,2025-11-07 09:46:14.264818385
2025-11-07 09:46:10.229705,-2,2025-11-07 09:46:14.272510692
2025-11-07 09:46:10.229705,-2049,2025-11-07 09:46:14.280203000
2025-11-07 09:46:10.229705,-1,2025-11-07 09:46:14.287895308
2025-11-07 09:46:10.229705,-14,2025-11-07 09:46:14.295587615
2025-11-07 09:46:10.229705,-4609,2025-11-07 09:46:14.303279923
2025-11-07 09:46:10.229705,-1,2025-11-07 09:46:14.310972231
2025-11-07 09:46:10.229705,-7,2025-11-07 09:46:14.318664538
2025-11-07 09:46:10.229705,4351,2025-11-07 09:46:14.326356846
2025-11-07 09:46:10.229705,0,2025-11-07 09:46:14.334049154
2025-11-07 09:46:10.229705,28,2025-11-07 09:46:14.341741462
2025-11-07 09:46:10.229705,4864,2025-11-07 09:46:14.349433769
2025-11-07 09:46:10.229705,0,2025-11-07 09:46:14.357126077
2025-11-07 09:46:10.229705,7,2025-11-07 09:46:14.364818385
2025-11-07 09:46:10.229705,1792,2025-11-07 09:46:14.372510692
2025-11-07 09:46:10.229705,0,2025-11-07 09:46:14.380203000
2025-11-07 09:46:10.229705,11,2025-11-07 09:46:14.387895308
2025-11-07 09:46:10.229705,3584,2025-11-07 09:46:14.395587615
2025-11-07 09:46:10.229705,0,2025-11-07 09:46:14.403279923
2025-11-07 09:46:10.229705,16,2025-11-07 09:46:14.410972231
2025-11-07 09:46:10.229705,4096,2025-11-07 09:46:14.418664538
2025-11-07 09:46:10.229705,0,2025-11-07 09:46:14.426356846
2025-11-07 09:46:10.229705,11,2025-11-07 09:46:14.434049154
2025-11-07 09:46:10.229705,-14592,2025-11-07 09:46:14.441741462
2025-11-07 09:46:10.229705,-1,2025-11-07 09:46:14.449433769
2025-11-07 09:46:10.229705,-335,2025-11-07 09:46:14.457126077
2025-11-07 09:46:10.229705,-30465,2025-11-07 09:46:14.464818385
2025-11-07 09:46:10.229705,-3,2025-11-07 09:46:14.472510692
2025-11-07 09:46:10.229705,-179,2025-11-07 09:46:14.480203000
2025-11-07 09:46:10.229705,-14081,2025-11-07 09:46:14.487895308
2025-11-07 09:46:10.229705,3,2025-11-07 09:46:14.495587615
2025-11-07 09:46:10.229705,1442,2025-11-07 09:46:14.503279923
2025-11-07 09:46:10.229705,-32768,2025-11-07 09:46:14.510972230
2025-11-07 09:46:10.229705,3,2025-11-07 09:46:14.518664538
2025-11-07 09:46:10.229705,352,2025-11-07 09:46:14.526356846
2025-11-07 09:46:10.229705,-28160,2025-11-07 09:46:14.534049154
2025-11-07 09:46:10.229705,0,2025-11-07 09:46:14.541741462
2025-11-07 09:46:10.229705,-28,2025-11-07 09:46:14.549433769
2025-11-07 09:46:10.229705,31487,2025-11-07 09:46:14.557126077
2025-11-07 09:46:10.229705,-1,2025-11-07 09:46:14.564818385
2025-11-07 09:46:10.229705,-136,2025-11-07 09:46:14.572510692
2025-11-07 09:46:10.229705,27391,2025-11-07 09:46:14.580203000
2025-11-07 09:46:10.229705,-1,2025-11-07 09:46:14.587895308
2025-11-07 09:46:10.229705,-165,2025-11-07 09:46:14.595587615
2025-11-07 09:46:10.229705,25343,2025-11-07 09:46:14.603279923
2025-11-07 09:46:10.229705,-1,2025-11-07 09:46:14.610972231
2025-11-07 09:46:10.229705,-158,2025-11-07 09:46:14.618664538
2025-11-07 09:46:10.229705,24319,2025-11-07 09:46:14.626356846
2025-11-07 09:46:10.229705,-1,2025-11-07 09:46:14.634049154
2025-11-07 09:46:10.229705,-160,2025-11-07 09:46:14.641741462
2025-11-07 09:46:10.229705,25343,2025-11-07 09:46:14.649433769
2025-11-07 09:46:10.229705,-1,2025-11-07 09:46:14.657126077
2025-11-07 09:46:10.229705,-158,2025-11-07 09:46:14.664818385
2025-11-07 09:46:10.229705,24831,2025-11-07 09:46:14.672510692
2025-11-07 09:46:10.229705,-1,2025-11-07 09:46:14.680203000
2025-11-07 09:46:10.229705,-160,2025-11-07 09:46:14.687895308
2025-11-07 09:46:10.229705,24831,2025-11-07 09:46:14.695587615
2025-11-07 09:46:10.229705,-1,2025-11-07 09:46:14.703279923
2025-11-07 09:46:10.229705,-162,2025-11-07 09:46:14.710972231
2025-11-07 09:46:10.780292,-165,2025-11-07 09:46:14.718664538
2025-11-07 09:46:10.780292,22271,2025-11-07 09:46:14.726356846
2025-11-07 09:46:10.780292,-1,2025-11-07 09:46:14.734049154
2025-11-07 09:46:10.780292,-170,2025-11-07 09:46:14.741741462
2025-11-07 09:46:10.780292,22271,2025-11-07 09:46:14.749433769
2025-11-07 09:46:10.780292,-1,2025-11-07 09:46:14.757126077
2025-11-07 09:46:10.780292,-172,2025-11-07 09:46:14.764818385
2025-11-07 09:46:10.780292,23039,2025-11-07 09:46:14.772510692
2025-11-07 09:46:10.780292,-1,2025-11-07 09:46:14.780203000
2025-11-07 09:46:10.780292,-162,2025-11-07 09:46:14.787895308
2025-11-07 09:46:10.780292,27391,2025-11-07 09:46:14.795587615
2025-11-07 09:46:10.780292,-1,2025-11-07 09:46:14.803279923
2025-11-07 09:46:10.780292,-127,2025-11-07 09:46:14.810972231
2025-11-07 09:46:10.780292,-24833,2025-11-07 09:46:14.818664538
2025-11-07 09:46:10.780292,-1,2025-11-07 09:46:14.826356846
2025-11-07 09:46:10.780292,-79,2025-11-07 09:46:14.834049154
2025-11-07 09:46:10.780292,-16129,2025-11-07 09:46:14.841741462
2025-11-07 09:46:10.780292,-1,2025-11-07 09:46:14.849433769
2025-11-07 09:46:10.780292,-52,2025-11-07 09:46:14.857126077
2025-11-07 09:46:10.780292,-9473,2025-11-07 09:46:14.864818385
2025-11-07 09:46:10.780292,-1,2025-11-07 09:46:14.872510692
2025-11-07 09:46:10.780292,-33,2025-11-07 09:46:14.880203000
2025-11-07 09:46:10.780292,-7681,2025-11-07 09:46:14.887895308
2025-11-07 09:46:10.780292,-1,2025-11-07 09:46:14.895587615
2025-11-07 09:46:10.780292,-21,2025-11-07 09:46:14.903279923
2025-11-07 09:46:10.780292,-2049,2025-11-07 09:46:14.910972231
2025-11-07 09:46:10.780292,-1,2025-11-07 09:46:14.918664538
2025-11-07 09:46:10.780292,-2,2025-11-07 09:46:14.926356846
2025-11-07 09:46:10.780292,767,2025-11-07 09:46:14.934049154
2025-11-07 09:46:10.780292,0,2025-11-07 09:46:14.941741462
2025-11-07 09:46:10.780292,0,2025-11-07 09:46:14.949433769
2025-11-07 09:46:10.780292,-512,2025-11-07 09:46:14.957126077
2025-11-07 09:46:10.780292,-1,2025-11-07 09:46:14.964818385
2025-11-07 09:46:10.780292,-2,2025-11-07 09:46:14.972510692
2025-11-07 09:46:10.780292,-769,2025-11-07 09:46:14.980203000
2025-11-07 09:46:10.780292,-1,2025-11-07 09:46:14.987895308
2025-11-07 09:46:10.780292,-2,2025-11-07 09:46:14.995587615
2025-11-07 09:46:10.780292,255,2025-11-07 09:46:15.003279923
2025-11-07 09:46:10.780292,0,2025-11-07 09:46:15.010972231
2025-11-07 09:46:10.780292,0,2025-11-07 09:46:15.018664538
2025-11-07 09:46:10.780292,-512,2025-11-07 09:46:15.026356846
2025-11-07 09:46:10.780292,-1,2025-11-07 09:46:15.034049154
2025-11-07 09:46:10.780292,2,2025-11-07 09:46:15.041741462
2025-11-07 09:46:10.780292,512,2025-11-07 09:46:15.049433769
2025-11-07 09:46:10.780292,0,2025-11-07 09:46:15.057126077
2025-11-07 09:46:10.780292,0,2025-11-07 09:46:15.064818385
2025-11-07 09:46:10.780292,512,2025-11-07 09:46:15.072510692
2025-11-07 09:46:10.780292,0,2025-11-07 09:46:15.080203000
2025-11-07 09:46:10.780292,0,2025-11-07 09:46:15.087895308
2025-11-07 09:46:10.780292,-3584,2025-11-07 09:46:15.095587615
2025-11-07 09:46:10.780292,-1,2025-11-07 09:46:15.103279923
2025-11-07 09:46:10.780292,-28,2025-11-07 09:46:15.110972231
2025-11-07 09:46:10.780292,-6401,2025-11-07 09:46:15.118664538
2025-11-07 09:46:10.780292,-1,2025-11-07 09:46:15.126356846
2025-11-07 09:46:10.780292,-19,2025-11-07 09:46:15.134049154
2025-11-07 09:46:10.780292,-3329,2025-11-07 09:46:15.141741462
2025-11-07 09:46:10.780292,-1,2025-11-07 09:46:15.149433769
2025-11-07 09:46:10.780292,-7,2025-11-07 09:46:15.157126077
2025-11-07 09:46:10.780292,-769,2025-11-07 09:46:15.164818385
2025-11-07 09:46:10.780292,-1,2025-11-07 09:46:15.172510692
2025-11-07 09:46:10.780292,-19,2025-11-07 09:46:15.180203000
2025-11-07 09:46:10.780292,-7681,2025-11-07 09:46:15.187895308
2025-11-07 09:46:10.780292,-1,2025-11-07 09:46:15.195587615
2025-11-07 09:46:10.780292,-38,2025-11-07 09:46:15.203279923
2025-11-07 09:46:10.780292,-11265,2025-11-07 09:46:15.210972231
2025-11-07 09:46:10.780292,-1,2025-11-07 09:46:15.218664538
2025-11-07 09:46:10.780292,-47,2025-11-07 09:46:15.226356846
2025-11-07 09:46:10.780292,-8705,2025-11-07 09:46:15.234049154
2025-11-07 09:46:10.780292,-1,2025-11-07 09:46:15.241741462
2025-11-07 09:46:10.780292,-9,2025-11-07 09:46:15.249433769
2025-11-07 09:46:10.780292,1279,2025-11-07 09:46:15.257126077
2025-11-07 09:46:10.780292,0,2025-11-07 09:46:15.264818385
2025-11-07 09:46:10.780292,0,2025-11-07 09:46:15.272510692
2025-11-07 09:46:10.780292,-1792,2025-11-07 09:46:15.280203000
2025-11-07 09:46:10.780292,-1,2025-11-07 09:46:15.287895308
2025-11-07 09:46:10.780292,-4,2025-11-07 09:46:15.295587615
2025-11-07 09:46:10.780292,767,2025-11-07 09:46:15.303279923
2025-11-07 09:46:10.780292,0,2025-11-07 09:46:15.310972231
2025-11-07 09:46:10.780292,4,2025-11-07 09:46:15.318664538
2025-11-07 09:46:10.780292,1792,2025-11-07 09:46:15.326356846
2025-11-07 09:46:10.780292,0,2025-11-07 09:46:15.334049154
2025-11-07 09:46:10.780292,9,2025-11-07 09:46:15.341741462
2025-11-07 09:46:10.780292,1792,2025-11-07 09:46:15.349433769
2025-11-07 09:46:10.780292,0,2025-11-07 09:46:15.357126077
2025-11-07 09:46:10.780292,-45,2025-11-07 09:46:15.364818385
2025-11-07 09:46:10.780292,-10241,2025-11-07 09:46:15.372510692
2025-11-07 09:46:10.780292,-2,2025-11-07 09:46:15.380203000
2025-11-07 09:46:10.780292,-623,2025-11-07 09:46:15.387895308
2025-11-07 09:46:10.780292,-12545,2025-11-07 09:46:15.395587615
2025-11-07 09:46:10.780292,-2,2025-11-07 09:46:15.403279923
2025-11-07 09:46:10.780292,754,2025-11-07 09:46:15.410972231
2025-11-07 09:46:10.780292,8448,2025-11-07 09:46:15.418664538
2025-11-07 09:46:10.780292,5,2025-11-07 09:46:15.426356846
2025-11-07 09:46:10.780292,872,2025-11-07 09:46:15.434049154
2025-11-07 09:46:10.780292,-30464,2025-11-07 09:46:15.441741462
2025-11-07 09:46:10.780292,1,2025-11-07 09:46:15.449433769
2025-11-07 09:46:10.780292,220,2025-11-07 09:46:15.457126077
2025-11-07 09:46:10.780292,4096,2025-11-07 09:46:15.464818385
2025-11-07 09:46:10.780292,0,2025-11-07 09:46:15.472510692
2025-11-07 09:46:10.780292,-119,2025-11-07 09:46:15.480203000
2025-11-07 09:46:10.780292,-29185,2025-11-07 09:46:15.487895308
2025-11-07 09:46:10.780292,-1,2025-11-07 09:46:15.495587615
2025-11-07 09:46:10.780292,-129,2025-11-07 09:46:15.503279923
2025-11-07 09:46:10.780292,25343,2025-11-07 09:46:15.510972230
2025-11-07 09:46:10.780292,-1,2025-11-07 09:46:15.518664538
2025-11-07 09:46:10.780292,-146,2025-11-07 09:46:15.526356846
2025-11-07 09:46:10.780292,29695,2025-11-07 09:46:15.534049154
2025-11-07 09:46:10.780292,-1,2025-11-07 09:46:15.541741462
2025-11-07 09:46:10.780292,-150,2025-11-07 09:46:15.549433769
2025-11-07 09:46:11.330177,-146,2025-11-07 09:46:15.557126077
2025-11-07 09:46:11.330177,30207,2025-11-07 09:46:15.564818385
2025-11-07 09:46:11.330177,-1,2025-11-07 09:46:15.572510692
2025-11-07 09:46:11.330177,-141,2025-11-07 09:46:15.580203000
2025-11-07 09:46:11.330177,29183,2025-11-07 09:46:15.587895308
2025-11-07 09:46:11.330177,-1,2025-11-07 09:46:15.595587615
2025-11-07 09:46:11.330177,-141,2025-11-07 09:46:15.603279923
2025-11-07 09:46:11.330177,28415,2025-11-07 09:46:15.610972231
2025-11-07 09:46:11.330177,-1,2025-11-07 09:46:15.618664538
2025-11-07 09:46:11.330177,-148,2025-11-07 09:46:15.626356846
2025-11-07 09:46:11.330177,29695,2025-11-07 09:46:15.634049154
2025-11-07 09:46:11.330177,-1,2025-11-07 09:46:15.641741462
2025-11-07 09:46:11.330177,-134,2025-11-07 09:46:15.649433769
2025-11-07 09:46:11.330177,30207,2025-11-07 09:46:15.657126077
2025-11-07 09:46:11.330177,-1,2025-11-07 09:46:15.664818385
2025-11-07 09:46:11.330177,-139,2025-11-07 09:46:15.672510692
2025-11-07 09:46:11.330177,32255,2025-11-07 09:46:15.680203000
2025-11-07 09:46:11.330177,-1,2025-11-07 09:46:15.687895308
2025-11-07 09:46:11.330177,-122,2025-11-07 09:46:15.695587615
2025-11-07 09:46:11.330177,-27137,2025-11-07 09:46:15.703279923
2025-11-07 09:46:11.330177,-1,2025-11-07 09:46:15.710972231
2025-11-07 09:46:11.330177,-91,2025-11-07 09:46:15.718664538
2025-11-07 09:46:11.330177,-17921,2025-11-07 09:46:15.726356846
2025-11-07 09:46:11.330177,-1,2025-11-07 09:46:15.734049154
2025-11-07 09:46:11.330177,-57,2025-11-07 09:46:15.741741462
2025-11-07 09:46:11.330177,-10753,2025-11-07 09:46:15.749433769
2025-11-07 09:46:11.330177,-1,2025-11-07 09:46:15.757126077
2025-11-07 09:46:11.330177,-35,2025-11-07 09:46:15.764818385
2025-11-07 09:46:11.330177,-8193,2025-11-07 09:46:15.772510692
2025-11-07 09:46:11.330177,-1,2025-11-07 09:46:15.780203000
2025-11-07 09:46:11.330177,-28,2025-11-07 09:46:15.787895308
2025-11-07 09:46:11.330177,-4609,2025-11-07 09:46:15.795587615
2025-11-07 09:46:11.330177,-1,2025-11-07 09:46:15.803279923
2025-11-07 09:46:11.330177,-11,2025-11-07 09:46:15.810972231
2025-11-07 09:46:11.330177,-1537,2025-11-07 09:46:15.818664538
2025-11-07 09:46:11.330177,-1,2025-11-07 09:46:15.826356846
2025-11-07 09:46:11.330177,-7,2025-11-07 09:46:15.834049154
2025-11-07 09:46:11.330177,-1537,2025-11-07 09:46:15.841741462
2025-11-07 09:46:11.330177,-1,2025-11-07 09:46:15.849433769
2025-11-07 09:46:11.330177,-4,2025-11-07 09:46:15.857126077
2025-11-07 09:46:11.330177,-1537,2025-11-07 09:46:15.864818385
2025-11-07 09:46:11.330177,-1,2025-11-07 09:46:15.872510692
2025-11-07 09:46:11.330177,-9,2025-11-07 09:46:15.880203000
2025-11-07 09:46:11.330177,-2049,2025-11-07 09:46:15.887895308
2025-11-07 09:46:11.330177,-1,2025-11-07 09:46:15.895587615
2025-11-07 09:46:11.330177,-4,2025-11-07 09:46:15.903279923
2025-11-07 09:46:11.330177,-769,2025-11-07 09:46:15.910972231
2025-11-07 09:46:11.330177,-1,2025-11-07 09:46:15.918664538
2025-11-07 09:46:11.330177,-7,2025-11-07 09:46:15.926356846
2025-11-07 09:46:11.330177,-1537,2025-11-07 09:46:15.934049154
2025-11-07 09:46:11.330177,-1,2025-11-07 09:46:15.941741462
2025-11-07 09:46:11.330177,-2,2025-11-07 09:46:15.949433769
2025-11-07 09:46:11.330177,-257,2025-11-07 09:46:15.957126077
2025-11-07 09:46:11.330177,-1,2025-11-07 09:46:15.964818385
2025-11-07 09:46:11.330177,0,2025-11-07 09:46:15.972510692
2025-11-07 09:46:11.330177,0,2025-11-07 09:46:15.980203000
2025-11-07 09:46:11.330177,0,2025-11-07 09:46:15.987895308
2025-11-07 09:46:11.330177,0,2025-11-07 09:46:15.995587615
2025-11-07 09:46:11.330177,0,2025-11-07 09:46:16.003279923
2025-11-07 09:46:11.330177,0,2025-11-07 09:46:16.010972231
2025-11-07 09:46:11.330177,2,2025-11-07 09:46:16.018664538
2025-11-07 09:46:11.330177,1792,2025-11-07 09:46:16.026356846
2025-11-07 09:46:11.330177,0,2025-11-07 09:46:16.034049154
2025-11-07 09:46:11.330177,9,2025-11-07 09:46:16.041741462
2025-11-07 09:46:11.330177,1792,2025-11-07 09:46:16.049433769
2025-11-07 09:46:11.330177,0,2025-11-07 09:46:16.057126077
2025-11-07 09:46:11.330177,7,2025-11-07 09:46:16.064818385
2025-11-07 09:46:11.330177,1792,2025-11-07 09:46:16.072510692
2025-11-07 09:46:11.330177,0,2025-11-07 09:46:16.080203000
2025-11-07 09:46:11.330177,9,2025-11-07 09:46:16.087895308
2025-11-07 09:46:11.330177,1792,2025-11-07 09:46:16.095587615
2025-11-07 09:46:11.330177,0,2025-11-07 09:46:16.103279923
2025-11-07 09:46:11.330177,0,2025-11-07 09:46:16.110972231
2025-11-07 09:46:11.330177,-2304,2025-11-07 09:46:16.118664538
2025-11-07 09:46:11.330177,-1,2025-11-07 09:46:16.126356846
2025-11-07 09:46:11.330177,-19,2025-11-07 09:46:16.134049154
2025-11-07 09:46:11.330177,-6401,2025-11-07 09:46:16.141741462
2025-11-07 09:46:11.330177,-1,2025-11-07 09:46:16.149433769
2025-11-07 09:46:11.330177,-21,2025-11-07 09:46:16.157126077
2025-11-07 09:46:11.330177,255,2025-11-07 09:46:16.164818385
2025-11-07 09:46:11.330177,0,2025-11-07 09:46:16.172510692
2025-11-07 09:46:11.330177,26,2025-11-07 09:46:16.180203000
2025-11-07 09:46:11.330177,8448,2025-11-07 09:46:16.187895308
2025-11-07 09:46:11.330177,0,2025-11-07 09:46:16.195587615
2025-11-07 09:46:11.330177,21,2025-11-07 09:46:16.203279923
2025-11-07 09:46:11.330177,4096,2025-11-07 09:46:16.210972231
2025-11-07 09:46:11.330177,0,2025-11-07 09:46:16.218664538
2025-11-07 09:46:11.330177,21,2025-11-07 09:46:16.226356846
2025-11-07 09:46:11.330177,4864,2025-11-07 09:46:16.234049154
2025-11-07 09:46:11.330177,0,2025-11-07 09:46:16.241741462
2025-11-07 09:46:11.330177,23,2025-11-07 09:46:16.249433769
2025-11-07 09:46:11.330177,6656,2025-11-07 09:46:16.257126077
2025-11-07 09:46:11.330177,0,2025-11-07 09:46:16.264818385
2025-11-07 09:46:11.330177,21,2025-11-07 09:46:16.272510692
2025-11-07 09:46:11.330177,3584,2025-11-07 09:46:16.280203000
2025-11-07 09:46:11.330177,0,2025-11-07 09:46:16.287895308
2025-11-07 09:46:11.330177,-79,2025-11-07 09:46:16.295587615
2025-11-07 09:46:11.330177,29695,2025-11-07 09:46:16.303279923
2025-11-07 09:46:11.330177,-2,2025-11-07 09:46:16.310972231
2025-11-07 09:46:11.330177,-647,2025-11-07 09:46:16.318664538
2025-11-07 09:46:11.330177,-3329,2025-11-07 09:46:16.326356846
2025-11-07 09:46:11.330177,-1,2025-11-07 09:46:16.334049154
2025-11-07 09:46:11.330177,1205,2025-11-07 09:46:16.341741462
2025-11-07 09:46:11.330177,-3072,2025-11-07 09:46:16.349433769
2025-11-07 09:46:11.330177,5,2025-11-07 09:46:16.357126077
2025-11-07 09:46:11.330177,857,2025-11-07 09:46:16.364818385
2025-11-07 09:46:11.330177,16640,2025-11-07 09:46:16.372510692
2025-11-07 09:46:11.330177,1,2025-11-07 09:46:16.380203000
2025-11-07 09:46:11.330177,105,2025-11-07 09:46:16.387895308
2025-11-07 09:46:11.880274,-69,2025-11-07 09:46:16.395587615
2025-11-07 09:46:11.880274,27391,2025-11-07 09:46:16.403279923
2025-11-07 09:46:11.880274,-1,2025-11-07 09:46:16.410972231
2025-11-07 09:46:11.880274,-150,2025-11-07 09:46:16.418664538
2025-11-07 09:46:11.880274,23551,2025-11-07 09:46:16.426356846
2025-11-07 09:46:11.880274,-1,2025-11-07 09:46:16.434049154
2025-11-07 09:46:11.880274,-174,2025-11-07 09:46:16.441741462
2025-11-07 09:46:11.880274,24831,2025-11-07 09:46:16.449433769
2025-11-07 09:46:11.880274,-1,2025-11-07 09:46:16.457126077
2025-11-07 09:46:11.880274,-153,2025-11-07 09:46:16.464818385
2025-11-07 09:46:11.880274,27391,2025-11-07 09:46:16.472510692
2025-11-07 09:46:11.880274,-1,2025-11-07 09:46:16.480203000
2025-11-07 09:46:11.880274,-150,2025-11-07 09:46:16.487895308
2025-11-07 09:46:11.880274,26623,2025-11-07 09:46:16.495587615
2025-11-07 09:46:11.880274,-1,2025-11-07 09:46:16.503279923
2025-11-07 09:46:11.880274,-155,2025-11-07 09:46:16.510972230
2025-11-07 09:46:11.880274,26111,2025-11-07 09:46:16.518664538
2025-11-07 09:46:11.880274,-1,2025-11-07 09:46:16.526356846
2025-11-07 09:46:11.880274,-158,2025-11-07 09:46:16.534049154
2025-11-07 09:46:11.880274,24319,2025-11-07 09:46:16.541741462
2025-11-07 09:46:11.880274,-1,2025-11-07 09:46:16.549433769
2025-11-07 09:46:11.880274,-170,2025-11-07 09:46:16.557126077
2025-11-07 09:46:11.880274,19967,2025-11-07 09:46:16.564818385
2025-11-07 09:46:11.880274,-1,2025-11-07 09:46:16.572510692
2025-11-07 09:46:11.880274,-186,2025-11-07 09:46:16.580203000
2025-11-07 09:46:11.880274,18175,2025-11-07 09:46:16.587895308
2025-11-07 09:46:11.880274,-1,2025-11-07 09:46:16.595587615
2025-11-07 09:46:11.880274,-186,2025-11-07 09:46:16.603279923
2025-11-07 09:46:11.880274,19967,2025-11-07 09:46:16.610972231
2025-11-07 09:46:11.880274,-1,2025-11-07 09:46:16.618664538
2025-11-07 09:46:11.880274,-165,2025-11-07 09:46:16.626356846
2025-11-07 09:46:11.880274,28415,2025-11-07 09:46:16.634049154
2025-11-07 09:46:11.880274,-1,2025-11-07 09:46:16.641741462
2025-11-07 09:46:11.880274,-129,2025-11-07 09:46:16.649433769
2025-11-07 09:46:11.880274,-27905,2025-11-07 09:46:16.657126077
2025-11-07 09:46:11.880274,-1,2025-11-07 09:46:16.664818385
2025-11-07 09:46:11.880274,-83,2025-11-07 09:46:16.672510692
2025-11-07 09:46:11.880274,-14337,2025-11-07 09:46:16.680203000
2025-11-07 09:46:11.880274,-1,2025-11-07 09:46:16.687895308
2025-11-07 09:46:11.880274,-33,2025-11-07 09:46:16.695587615
2025-11-07 09:46:11.880274,-3841,2025-11-07 09:46:16.703279923
2025-11-07 09:46:11.880274,-1,2025-11-07 09:46:16.710972231
2025-11-07 09:46:11.880274,-7,2025-11-07 09:46:16.718664538
2025-11-07 09:46:11.880274,-257,2025-11-07 09:46:16.726356846
2025-11-07 09:46:11.880274,-1,2025-11-07 09:46:16.734049154
2025-11-07 09:46:11.880274,14,2025-11-07 09:46:16.741741462
2025-11-07 09:46:11.880274,5888,2025-11-07 09:46:16.749433769
2025-11-07 09:46:11.880274,0,2025-11-07 09:46:16.757126077
2025-11-07 09:46:11.880274,23,2025-11-07 09:46:16.764818385
2025-11-07 09:46:11.880274,8448,2025-11-07 09:46:16.772510692
2025-11-07 09:46:11.880274,0,2025-11-07 09:46:16.780203000
2025-11-07 09:46:11.880274,38,2025-11-07 09:46:16.787895308
2025-11-07 09:46:11.880274,7936,2025-11-07 09:46:16.795587615
2025-11-07 09:46:11.880274,0,2025-11-07 09:46:16.803279923
2025-11-07 09:46:11.880274,28,2025-11-07 09:46:16.810972231
2025-11-07 09:46:11.880274,7168,2025-11-07 09:46:16.818664538
2025-11-07 09:46:11.880274,0,2025-11-07 09:46:16.826356846
2025-11-07 09:46:11.880274,26,2025-11-07 09:46:16.834049154
2025-11-07 09:46:11.880274,5888,2025-11-07 09:46:16.841741462
2025-11-07 09:46:11.880274,0,2025-11-07 09:46:16.849433769
2025-11-07 09:46:11.880274,21,2025-11-07 09:46:16.857126077
2025-11-07 09:46:11.880274,5376,2025-11-07 09:46:16.864818385
2025-11-07 09:46:11.880274,0,2025-11-07 09:46:16.872510692
2025-11-07 09:46:11.880274,19,2025-11-07 09:46:16.880203000
2025-11-07 09:46:11.880274,4096,2025-11-07 09:46:16.887895308
2025-11-07 09:46:11.880274,0,2025-11-07 09:46:16.895587615
2025-11-07 09:46:11.880274,16,2025-11-07 09:46:16.903279923
2025-11-07 09:46:11.880274,4864,2025-11-07 09:46:16.910972231
2025-11-07 09:46:11.880274,0,2025-11-07 09:46:16.918664538
2025-11-07 09:46:11.880274,19,2025-11-07 09:46:16.926356846
2025-11-07 09:46:11.880274,4864,2025-11-07 09:46:16.934049154
2025-11-07 09:46:11.880274,0,2025-11-07 09:46:16.941741462
2025-11-07 09:46:11.880274,19,2025-11-07 09:46:16.949433769
2025-11-07 09:46:11.880274,5888,2025-11-07 09:46:16.957126077
2025-11-07 09:46:11.880274,0,2025-11-07 09:46:16.964818385
2025-11-07 09:46:11.880274,28,2025-11-07 09:46:16.972510692
2025-11-07 09:46:11.880274,7936,2025-11-07 09:46:16.980203000
2025-11-07 09:46:11.880274,0,2025-11-07 09:46:16.987895308
2025-11-07 09:46:11.880274,31,2025-11-07 09:46:16.995587615
2025-11-07 09:46:11.880274,8448,2025-11-07 09:46:17.003279923
2025-11-07 09:46:11.880274,0,2025-11-07 09:46:17.010972231
2025-11-07 09:46:11.880274,33,2025-11-07 09:46:17.018664538
2025-11-07 09:46:11.880274,8448,2025-11-07 09:46:17.026356846
2025-11-07 09:46:11.880274,0,2025-11-07 09:46:17.034049154
2025-11-07 09:46:11.880274,33,2025-11-07 09:46:17.041741462
2025-11-07 09:46:11.880274,7936,2025-11-07 09:46:17.049433769
2025-11-07 09:46:11.880274,0,2025-11-07 09:46:17.057126077
2025-11-07 09:46:11.880274,31,2025-11-07 09:46:17.064818385
2025-11-07 09:46:11.880274,8448,2025-11-07 09:46:17.072510692
2025-11-07 09:46:11.880274,0,2025-11-07 09:46:17.080203000
2025-11-07 09:46:11.880274,31,2025-11-07 09:46:17.087895308
2025-11-07 09:46:11.880274,7168,2025-11-07 09:46:17.095587615
2025-11-07 09:46:11.880274,0,2025-11-07 09:46:17.103279923
2025-11-07 09:46:11.880274,26,2025-11-07 09:46:17.110972231
2025-11-07 09:46:11.880274,5376,2025-11-07 09:46:17.118664538
2025-11-07 09:46:11.880274,0,2025-11-07 09:46:17.126356846
2025-11-07 09:46:11.880274,16,2025-11-07 09:46:17.134049154
2025-11-07 09:46:11.880274,1792,2025-11-07 09:46:17.141741462
2025-11-07 09:46:11.880274,0,2025-11-07 09:46:17.149433769
2025-11-07 09:46:11.880274,-2,2025-11-07 09:46:17.157126077
2025-11-07 09:46:11.880274,-2049,2025-11-07 09:46:17.164818385
2025-11-07 09:46:11.880274,-1,2025-11-07 09:46:17.172510692
2025-11-07 09:46:11.880274,-4,2025-11-07 09:46:17.180203000
2025-11-07 09:46:11.880274,4351,2025-11-07 09:46:17.187895308
2025-11-07 09:46:11.880274,0,2025-11-07 09:46:17.195587615
2025-11-07 09:46:11.880274,38,2025-11-07 09:46:17.203279923
2025-11-07 09:46:11.880274,8960,2025-11-07 09:46:17.210972231
2025-11-07 09:46:11.880274,0,2025-11-07 09:46:17.218664538
2025-11-07 09:46:11.880274,23,2025-11-07 09:46:17.226356846
2025-11-07 09:46:12.430745,21,2025-11-07 09:46:17.234049154
2025-11-07 09:46:12.430745,4096,2025-11-07 09:46:17.241741462
2025-11-07 09:46:12.430745,0,2025-11-07 09:46:17.249433769
2025-11-07 09:46:12.430745,11,2025-11-07 09:46:17.257126077
2025-11-07 09:46:12.430745,4864,2025-11-07 09:46:17.264818385
2025-11-07 09:46:12.430745,0,2025-11-07 09:46:17.272510692
2025-11-07 09:46:12.430745,31,2025-11-07 09:46:17.280203000
2025-11-07 09:46:12.430745,8960,2025-11-07 09:46:17.287895308
2025-11-07 09:46:12.430745,0,2025-11-07 09:46:17.295587615
2025-11-07 09:46:12.430745,21,2025-11-07 09:46:17.303279923
2025-11-07 09:46:12.430745,-28672,2025-11-07 09:46:17.310972231
2025-11-07 09:46:12.430745,-1,2025-11-07 09:46:17.318664538
2025-11-07 09:46:12.430745,-460,2025-11-07 09:46:17.326356846
2025-11-07 09:46:12.430745,-15105,2025-11-07 09:46:17.334049154
2025-11-07 09:46:12.430745,-3,2025-11-07 09:46:17.341741462
2025-11-07 09:46:12.430745,294,2025-11-07 09:46:17.349433769
2025-11-07 09:46:12.430745,-13056,2025-11-07 09:46:17.357126077
2025-11-07 09:46:12.430745,5,2025-11-07 09:46:17.364818385
2025-11-07 09:46:12.430745,1526,2025-11-07 09:46:17.372510692
2025-11-07 09:46:12.430745,-12032,2025-11-07 09:46:17.380203000
2025-11-07 09:46:12.430745,2,2025-11-07 09:46:17.387895308
2025-11-07 09:46:12.430745,234,2025-11-07 09:46:17.395587615
2025-11-07 09:46:12.430745,16384,2025-11-07 09:46:17.403279923
2025-11-07 09:46:12.430745,0,2025-11-07 09:46:17.410972231
2025-11-07 09:46:12.430745,-100,2025-11-07 09:46:17.418664538
2025-11-07 09:46:12.430745,23039,2025-11-07 09:46:17.426356846
2025-11-07 09:46:12.430745,-1,2025-11-07 09:46:17.434049154
2025-11-07 09:46:12.430745,-155,2025-11-07 09:46:17.441741462
2025-11-07 09:46:12.430745,22271,2025-11-07 09:46:17.449433769
2025-11-07 09:46:12.430745,-1,2025-11-07 09:46:17.457126077
2025-11-07 09:46:12.430745,-182,2025-11-07 09:46:17.464818385
2025-11-07 09:46:12.430745,21247,2025-11-07 09:46:17.472510692
2025-11-07 09:46:12.430745,-1,2025-11-07 09:46:17.480203000
2025-11-07 09:46:12.430745,-172,2025-11-07 09:46:17.487895308
2025-11-07 09:46:12.430745,21247,2025-11-07 09:46:17.495587615
2025-11-07 09:46:12.430745,-1,2025-11-07 09:46:17.503279923
2025-11-07 09:46:12.430745,-172,2025-11-07 09:46:17.510972230
2025-11-07 09:46:12.430745,22271,2025-11-07 09:46:17.518664538
2025-11-07 09:46:12.430745,-1,2025-11-07 09:46:17.526356846
2025-11-07 09:46:12.430745,-174,2025-11-07 09:46:17.534049154
2025-11-07 09:46:12.430745,20479,2025-11-07 09:46:17.541741462
2025-11-07 09:46:12.430745,-1,2025-11-07 09:46:17.549433769
2025-11-07 09:46:12.430745,-177,2025-11-07 09:46:17.557126077
2025-11-07 09:46:12.430745,18687,2025-11-07 09:46:17.564818385
2025-11-07 09:46:12.430745,-1,2025-11-07 09:46:17.572510692
2025-11-07 09:46:12.430745,-191,2025-11-07 09:46:17.580203000
2025-11-07 09:46:12.430745,15103,2025-11-07 09:46:17.587895308
2025-11-07 09:46:12.430745,-1,2025-11-07 09:46:17.595587615
2025-11-07 09:46:12.430745,-203,2025-11-07 09:46:17.603279923
2025-11-07 09:46:12.430745,12543,2025-11-07 09:46:17.610972231
2025-11-07 09:46:12.430745,-1,2025-11-07 09:46:17.618664538
2025-11-07 09:46:12.430745,-208,2025-11-07 09:46:17.626356846
2025-11-07 09:46:12.430745,15103,2025-11-07 09:46:17.634049154
2025-11-07 09:46:12.430745,-1,2025-11-07 09:46:17.641741462
2025-11-07 09:46:12.430745,-184,2025-11-07 09:46:17.649433769
2025-11-07 09:46:12.430745,22271,2025-11-07 09:46:17.657126077
2025-11-07 09:46:12.430745,-1,2025-11-07 09:46:17.664818385
2025-11-07 09:46:12.430745,-150,2025-11-07 09:46:17.672510692
2025-11-07 09:46:12.430745,32255,2025-11-07 09:46:17.680203000
2025-11-07 09:46:12.430745,-1,2025-11-07 09:46:17.687895308
2025-11-07 09:46:12.430745,-110,2025-11-07 09:46:17.695587615
2025-11-07 09:46:12.430745,-21761,2025-11-07 09:46:17.703279923
2025-11-07 09:46:12.430745,-1,2025-11-07 09:46:17.710972231
2025-11-07 09:46:12.430745,-64,2025-11-07 09:46:17.718664538
2025-11-07 09:46:12.430745,-10753,2025-11-07 09:46:17.726356846
2025-11-07 09:46:12.430745,-1,2025-11-07 09:46:17.734049154
2025-11-07 09:46:12.430745,-28,2025-11-07 09:46:17.741741462
2025-11-07 09:46:12.430745,-3329,2025-11-07 09:46:17.749433769
2025-11-07 09:46:12.430745,-1,2025-11-07 09:46:17.757126077
2025-11-07 09:46:12.430745,-4,2025-11-07 09:46:17.764818385
2025-11-07 09:46:12.430745,255,2025-11-07 09:46:17.772510692
2025-11-07 09:46:12.430745,0,2025-11-07 09:46:17.780203000
2025-11-07 09:46:12.430745,4,2025-11-07 09:46:17.787895308
2025-11-07 09:46:12.430745,1792,2025-11-07 09:46:17.795587615
2025-11-07 09:46:12.430745,0,2025-11-07 09:46:17.803279923
2025-11-07 09:46:12.430745,7,2025-11-07 09:46:17.810972231
2025-11-07 09:46:12.430745,2304,2025-11-07 09:46:17.818664538
2025-11-07 09:46:12.430745,0,2025-11-07 09:46:17.826356846
2025-11-07 09:46:12.430745,9,2025-11-07 09:46:17.834049154
2025-11-07 09:46:12.430745,2304,2025-11-07 09:46:17.841741462
2025-11-07 09:46:12.430745,0,2025-11-07 09:46:17.849433769
2025-11-07 09:46:12.430745,9,2025-11-07 09:46:17.857126077
2025-11-07 09:46:12.430745,2304,2025-11-07 09:46:17.864818385
2025-11-07 09:46:12.430745,0,2025-11-07 09:46:17.872510692
2025-11-07 09:46:12.430745,7,2025-11-07 09:46:17.880203000
2025-11-07 09:46:12.430745,1792,2025-11-07 09:46:17.887895308
2025-11-07 09:46:12.430745,0,2025-11-07 09:46:17.895587615
2025-11-07 09:46:12.430745,7,2025-11-07 09:46:17.903279923
2025-11-07 09:46:12.430745,1792,2025-11-07 09:46:17.910972231
2025-11-07 09:46:12.430745,0,2025-11-07 09:46:17.918664538
2025-11-07 09:46:12.430745,7,2025-11-07 09:46:17.926356846
2025-11-07 09:46:12.430745,1792,2025-11-07 09:46:17.934049154
2025-11-07 09:46:12.430745,0,2025-11-07 09:46:17.941741462
2025-11-07 09:46:12.430745,7,2025-11-07 09:46:17.949433769
2025-11-07 09:46:12.430745,2304,2025-11-07 09:46:17.957126077
2025-11-07 09:46:12.430745,0,2025-11-07 09:46:17.964818385
2025-11-07 09:46:12.430745,14,2025-11-07 09:46:17.972510692
2025-11-07 09:46:12.430745,3584,2025-11-07 09:46:17.980203000
2025-11-07 09:46:12.430745,0,2025-11-07 09:46:17.987895308
2025-11-07 09:46:12.430745,14,2025-11-07 09:46:17.995587615
2025-11-07 09:46:12.430745,3584,2025-11-07 09:46:18.003279923
2025-11-07 09:46:12.430745,0,2025-11-07 09:46:18.010972231
2025-11-07 09:46:12.430745,16,2025-11-07 09:46:18.018664538
2025-11-07 09:46:12.430745,4864,2025-11-07 09:46:18.026356846
2025-11-07 09:46:12.430745,0,2025-11-07 09:46:18.034049154
2025-11-07 09:46:12.430745,19,2025-11-07 09:46:18.041741462
2025-11-07 09:46:12.430745,4864,2025-11-07 09:46:18.049433769
2025-11-07 09:46:12.430745,0,2025-11-07 09:46:18.057126077
2025-11-07 09:46:12.430745,16,2025-11-07 09:46:18.064818385
2025-11-07 09:46:13.030390,16,2025-11-07 09:46:18.072510692
2025-11-07 09:46:13.030390,4096,2025-11-07 09:46:18.080203000
2025-11-07 09:46:13.030390,0,2025-11-07 09:46:18.087895308
2025-11-07 09:46:13.030390,19,2025-11-07 09:46:18.095587615
2025-11-07 09:46:13.030390,7168,2025-11-07 09:46:18.103279923
