timestamp,ecg
12:33:55.955273,-362
12:33:55.955273,31487
12:33:55.955273,-2
12:33:55.955273,-449
12:33:55.955273,-4865
12:33:55.955273,-3
12:33:55.955273,-618
12:33:55.955273,17663
12:33:55.955273,-3
12:33:55.955273,-753
12:33:55.955273,-1281
12:33:55.955273,-4
12:33:55.955273,-786
12:33:55.955273,-4353
12:33:55.955273,-4
12:33:55.955273,-774
12:33:55.955273,3583
12:33:55.955273,-3
12:33:55.955273,-738
12:33:55.955273,11519
12:33:55.955273,-3
12:33:55.955273,-698
12:33:55.955273,24319
12:33:55.955273,-3
12:33:55.955273,-655
12:33:55.955273,-31745
12:33:55.955273,-3
12:33:55.955273,-620
12:33:55.955273,-22529
12:33:55.955273,-3
12:33:55.955273,-580
12:33:55.955273,-12289
12:33:55.955273,-3
12:33:55.955273,-535
12:33:55.955273,2815
12:33:55.955273,-2
12:33:55.955273,-454
12:33:55.955273,31487
12:33:55.955273,-2
12:33:55.955273,-326
12:33:55.955273,-2561
12:33:55.955273,-2
12:33:55.955273,-232
12:33:55.955273,14335
12:33:55.955273,-1
12:33:55.955273,-172
12:33:55.955273,20991
12:33:55.955273,-1
12:33:55.955273,-182
12:33:55.955273,19967
12:33:55.955273,-1
12:33:55.955273,-191
12:33:55.955273,13055
12:33:55.955273,-1
12:33:55.955273,-222
12:33:55.955273,5375
12:33:55.955273,-1
12:33:55.955273,-251
12:33:55.955273,-3841
12:33:55.955273,-2
12:33:55.955273,-291
12:33:55.955273,-11009
12:33:55.955273,-2
12:33:55.955273,-305
12:33:55.955273,-12289
12:33:55.955273,-2
12:33:55.955273,-305
12:33:55.955273,-10497
12:33:55.955273,-2
12:33:55.955273,-291
12:33:55.955273,-7425
12:33:55.955273,-2
12:33:55.955273,-279
12:33:55.955273,-3841
12:33:55.955273,-2
12:33:55.955273,-267
12:33:55.955273,-769
12:33:55.955273,-2
12:33:55.955273,-255
12:33:55.955273,1023
12:33:55.955273,-1
12:33:55.955273,-279
12:33:55.955273,-9217
12:33:55.955273,-2
12:33:55.955273,-236
12:33:55.955273,24063
12:33:55.955273,-1
12:33:55.955273,-139
12:33:55.955273,-7425
12:33:55.955273,-1
12:33:55.955273,243
12:33:55.955273,29440
12:33:55.955273,1
12:33:55.955273,286
12:33:55.955273,2816
12:33:55.955273,1
12:33:55.955273,291
12:33:55.955273,3328
12:33:55.955273,1
12:33:55.955273,329
12:33:55.955273,-29440
12:33:55.955273,1
12:33:55.955273,241
12:33:55.955273,-25344
12:33:55.955273,-1
12:33:55.955273,-357
12:33:55.955273,-32257
12:33:55.955273,-2
12:33:55.955273,-350
12:33:56.525129,-388
12:33:56.525129,31999
12:33:56.525129,-2
12:33:56.525129,-348
12:33:56.525129,-18945
12:33:56.525129,-2
12:33:56.525129,-312
12:33:56.525129,-7425
12:33:56.525129,-2
12:33:56.525129,-262
12:33:56.525129,2815
12:33:56.525129,-1
12:33:56.525129,-260
12:33:56.525129,-3841
12:33:56.525129,-2
12:33:56.525129,-222
12:33:56.525129,-23809
12:33:56.525129,-1
12:33:56.525129,40
12:33:56.525129,18176
12:33:56.525129,0
12:33:56.525129,101
12:33:56.525129,20480
12:33:56.525129,1
12:33:56.525129,731
12:33:56.525129,-2816
12:33:56.525129,3
12:33:56.525129,828
12:33:56.525129,-17664
12:33:56.525129,0
12:33:56.525129,-101
12:33:56.525129,-5889
12:33:56.525129,0
12:33:56.525129,359
12:33:56.525129,-22528
12:33:56.525129,0
12:33:56.525129,144
12:33:56.525129,-20736
12:33:56.525129,0
12:33:56.525129,9
12:33:56.525129,-3328
12:33:56.525129,-2
12:33:56.525129,-419
12:33:56.525129,32511
12:33:56.525129,-2
12:33:56.525129,-364
12:33:56.525129,31999
12:33:56.525129,-2
12:33:56.525129,-367
12:33:56.525129,-20225
12:33:56.525129,-2
12:33:56.525129,-324
12:33:56.525129,-11009
12:33:56.525129,-2
12:33:56.525129,-267
12:33:56.525129,4095
12:33:56.525129,-1
12:33:56.525129,-208
12:33:56.525129,22271
12:33:56.525129,-1
12:33:56.525129,-132
12:33:56.525129,-22529
12:33:56.525129,-1
12:33:56.525129,-42
12:33:56.525129,255
12:33:56.525129,0
12:33:56.525129,35
12:33:56.525129,16896
12:33:56.525129,0
12:33:56.525129,89
12:33:56.525129,25344
12:33:56.525129,0
12:33:56.525129,80
12:33:56.525129,4608
12:33:56.525129,0
12:33:56.525129,-71
12:33:56.525129,21759
12:33:56.525129,-1
12:33:56.525129,-265
12:33:56.525129,-22529
12:33:56.525129,-2
12:33:56.525129,-404
12:33:56.525129,18687
12:33:56.525129,-2
12:33:56.525129,-466
12:33:56.525129,10239
12:33:56.525129,-2
12:33:56.525129,-459
12:33:56.525129,19199
12:33:56.525129,-2
12:33:56.525129,-426
12:33:56.525129,26623
12:33:56.525129,-2
12:33:56.525129,-395
12:33:56.525129,30719
12:33:56.525129,-2
12:33:56.525129,-397
12:33:56.525129,31999
12:33:56.525129,-2
12:33:56.525129,-362
12:33:56.525129,-23809
12:33:56.525129,-2
12:33:56.525129,-362
12:33:56.525129,-27393
12:33:56.525129,-2
12:33:56.525129,-350
12:33:56.525129,-23297
12:33:56.525129,-2
12:33:56.525129,-357
12:33:57.035821,-357
12:33:57.035821,-24321
12:33:57.035821,-2
12:33:57.035821,-371
12:33:57.035821,29695
12:33:57.035821,-2
12:33:57.035821,-412
12:33:57.035821,21759
12:33:57.035821,-2
12:33:57.035821,-459
12:33:57.035821,6655
12:33:57.035821,-2
12:33:57.035821,-511
12:33:57.035821,-7937
12:33:57.035821,-3
12:33:57.035821,-587
12:33:57.035821,-29185
12:33:57.035821,-3
12:33:57.035821,-660
12:33:57.035821,23551
12:33:57.035821,-3
12:33:57.035821,-705
12:33:57.035821,7167
12:33:57.035821,-3
12:33:57.035821,-772
12:33:57.035821,-10241
12:33:57.035821,-4
12:33:57.035821,-864
12:33:57.035821,30207
12:33:57.035821,-4
12:33:57.035821,-930
12:33:57.035821,15103
12:33:57.035821,-4
12:33:57.035821,-1015
12:33:57.035821,-8449
12:33:57.035821,-5
12:33:57.035821,-1103
12:33:57.035821,-30977
12:33:57.035821,-5
12:33:57.035821,-1176
12:33:57.035821,23039
12:33:57.035821,-5
12:33:57.035821,-1191
12:33:57.035821,19455
12:33:57.035821,-5
12:33:57.035821,-1250
12:33:57.035821,-1793
12:33:57.035821,-6
12:33:57.035821,-1290
12:33:57.035821,-1
12:33:57.035821,-6
12:33:57.035821,-1295
12:33:57.035821,-12545
12:33:57.035821,-6
12:33:57.035821,-1354
12:33:57.035821,-19969
12:33:57.035821,-6
12:33:57.035821,-1368
12:33:57.035821,-19201
12:33:57.035821,-6
12:33:57.035821,-1326
12:33:57.035821,-8449
12:33:57.035821,-6
12:33:57.035821,-1304
12:33:57.035821,-2305
12:33:57.035821,-6
12:33:57.035821,-1285
12:33:57.035821,-4865
12:33:57.035821,-6
12:33:57.035821,-1328
12:33:57.035821,-15617
12:33:57.035821,-6
12:33:57.035821,-1326
12:33:57.035821,-7681
12:33:57.035821,-6
12:33:57.035821,-1340
12:33:57.035821,-30209
12:33:57.035821,-6
12:33:57.035821,-1342
12:33:57.035821,6655
12:33:57.035821,-4
12:33:57.035821,-525
12:33:57.035821,-19457
12:33:57.035821,-2
12:33:57.035821,-689
12:33:57.035821,-513
12:33:57.035821,-6
12:33:57.035821,-1297
12:33:57.035821,-25601
12:33:57.035821,-4
12:33:57.035821,-838
12:33:57.035821,12031
12:33:57.035821,-4
12:33:57.035821,-857
12:33:57.035821,5375
12:33:57.035821,-3
12:33:57.035821,-722
12:33:57.035821,-27393
12:33:57.035821,-3
12:33:57.035821,-509
12:33:57.035821,16895
12:33:57.035821,-2
12:33:57.035821,-390
12:33:57.035821,-20225
12:33:57.035821,-2
12:33:57.035821,-310
12:33:57.035821,-9217
12:33:57.035821,-2
12:33:57.035821,-274
12:33:57.605107,-267
12:33:57.605107,4095
12:33:57.605107,-1
12:33:57.605107,-201
12:33:57.605107,19967
12:33:57.605107,-1
12:33:57.605107,-151
12:33:57.605107,-32257
12:33:57.605107,-1
12:33:57.605107,-108
12:33:57.605107,-16641
12:33:57.605107,-1
12:33:57.605107,-56
12:33:57.605107,-23809
12:33:57.605107,-1
12:33:57.605107,-137
12:33:57.605107,10751
12:33:57.605107,-1
12:33:57.605107,-317
12:33:57.605107,22271
12:33:57.605107,-2
12:33:57.605107,-573
12:33:57.605107,8447
12:33:57.605107,-3
12:33:57.605107,-880
12:33:57.605107,6655
12:33:57.605107,-4
12:33:57.605107,-1091
12:33:57.605107,-32001
12:33:57.605107,-5
12:33:57.605107,-1176
12:33:57.605107,27391
12:33:57.605107,-5
12:33:57.605107,-1162
12:33:57.605107,-31489
12:33:57.605107,-5
12:33:57.605107,-1108
12:33:57.605107,-10241
12:33:57.605107,-5
12:33:57.605107,-1051
12:33:57.605107,-11521
12:33:57.605107,-5
12:33:57.605107,-1110
12:33:57.605107,-28417
12:33:57.605107,-5
12:33:57.605107,-1167
12:33:57.605107,11007
12:33:57.605107,-5
12:33:57.605107,-1288
12:33:57.605107,-2305
12:33:57.605107,-6
12:33:57.605107,-1302
12:33:57.605107,-13313
12:33:57.605107,-6
12:33:57.605107,-1342
12:33:57.605107,-13313
12:33:57.605107,-6
12:33:57.605107,-1323
12:33:57.605107,-3585
12:33:57.605107,-6
12:33:57.605107,-1269
12:33:57.605107,7423
12:33:57.605107,-5
12:33:57.605107,-1214
12:33:57.605107,27903
12:33:57.605107,-5
12:33:57.605107,-1153
12:33:57.605107,-30977
12:33:57.605107,-5
12:33:57.605107,-1120
12:33:57.605107,-16897
12:33:57.605107,-5
12:33:57.605107,-1082
12:33:57.605107,-12033
12:33:57.605107,-5
12:33:57.605107,-1053
12:33:57.605107,-7169
12:33:57.605107,-5
12:33:57.605107,-1060
12:33:57.605107,-5377
12:33:57.605107,-5
12:33:57.605107,-1018
12:33:57.605107,6143
12:33:57.605107,-4
12:33:57.605107,-996
12:33:57.605107,5375
12:33:57.605107,-4
12:33:57.605107,-1001
12:33:57.605107,10239
12:33:57.605107,-4
12:33:57.605107,-982
12:33:57.605107,10239
12:33:57.605107,-4
12:33:57.605107,-963
12:33:57.605107,24831
12:33:57.605107,-4
12:33:57.605107,-897
12:33:57.605107,-26113
12:33:57.605107,-4
12:33:57.605107,-845
12:33:57.605107,-14081
12:33:57.605107,-4
12:33:57.605107,-798
12:33:57.605107,-7425
12:33:57.605107,-4
12:33:57.605107,-817
12:33:57.605107,-6657
12:33:57.605107,-4
12:33:57.605107,-762
12:33:58.145070,-767
12:33:58.145070,-11521
12:33:58.145070,-4
12:33:58.145070,-788
12:33:58.145070,5887
12:33:58.145070,-2
12:33:58.145070,-2
12:33:58.145070,-1025
12:33:58.145070,0
12:33:58.145070,-54
12:33:58.145070,6143
12:33:58.145070,-3
12:33:58.145070,-961
12:33:58.145070,1023
12:33:58.145070,-2
12:33:58.145070,-376
12:33:58.145070,-25601
12:33:58.145070,-3
12:33:58.145070,-599
12:33:58.145070,511
12:33:58.145070,-2
12:33:58.145070,-547
12:33:58.145070,-5633
12:33:58.145070,-3
12:33:58.145070,-485
12:33:58.145070,7167
12:33:58.145070,-2
12:33:58.145070,-480
12:33:58.145070,15103
12:33:58.145070,-2
12:33:58.145070,-452
12:33:58.145070,14335
12:33:58.145070,-2
12:33:58.145070,-438
12:33:58.145070,27903
12:33:58.145070,-2
12:33:58.145070,-378
12:33:58.145070,-24321
12:33:58.145070,-2
12:33:58.145070,-322
12:33:58.145070,-9217
12:33:58.145070,-2
12:33:58.145070,-258
12:33:58.145070,12543
12:33:58.145070,-1
12:33:58.145070,-158
12:33:58.145070,-31745
12:33:58.145070,-1
12:33:58.145070,-87
12:33:58.145070,-12289
12:33:58.145070,-1
12:33:58.145070,-30
12:33:58.145070,-9217
12:33:58.145070,-1
12:33:58.145070,-89
12:33:58.145070,19199
12:33:58.145070,-1
12:33:58.145070,-293
12:33:58.145070,28415
12:33:58.145070,-2
12:33:58.145070,-499
12:33:58.145070,-14593
12:33:58.145070,-3
12:33:58.145070,-618
12:33:58.145070,-32257
12:33:58.145070,-3
12:33:58.145070,-639
12:33:58.145070,-29185
12:33:58.145070,-3
12:33:58.145070,-613
12:33:58.145070,-19457
12:33:58.145070,-3
12:33:58.145070,-575
12:33:58.145070,-14593
12:33:58.145070,-3
12:33:58.145070,-558
12:33:58.145070,-7425
12:33:58.145070,-3
12:33:58.145070,-532
12:33:58.145070,-1281
12:33:58.145070,-3
12:33:58.145070,-499
12:33:58.145070,5887
12:33:58.145070,-2
12:33:58.145070,-485
12:33:58.145070,6655
12:33:58.145070,-2
12:33:58.145070,-480
12:33:58.145070,12543
12:33:58.145070,-2
12:33:58.145070,-464
12:33:58.145070,10239
12:33:58.145070,-2
12:33:58.145070,-461
12:33:58.145070,15103
12:33:58.145070,-2
12:33:58.145070,-466
12:33:58.145070,13823
12:33:58.145070,-2
12:33:58.145070,-449
12:33:58.145070,16895
12:33:58.145070,-2
12:33:58.145070,-431
12:33:58.145070,24831
12:33:58.145070,-2
12:33:58.145070,-419
12:33:58.145070,25855
12:33:58.145070,-2
12:33:58.145070,-388
12:33:58.715251,-378
12:33:58.715251,31487
12:33:58.715251,-2
12:33:58.715251,-395
12:33:58.715251,-29953
12:33:58.715251,-2
12:33:58.715251,-338
12:33:58.715251,-15361
12:33:58.715251,-2
12:33:58.715251,-298
12:33:58.715251,-2049
12:33:58.715251,-2
12:33:58.715251,-248
12:33:58.715251,4607
12:33:58.715251,-1
12:33:58.715251,-222
12:33:58.715251,5375
12:33:58.715251,-1
12:33:58.715251,-251
12:33:58.715251,8447
12:33:58.715251,-1
12:33:58.715251,-215
12:33:58.715251,4607
12:33:58.715251,-1
12:33:58.715251,-267
12:33:58.715251,19967
12:33:58.715251,-1
12:33:58.715251,201
12:33:58.715251,-25088
12:33:58.715251,2
12:33:58.715251,776
12:33:58.715251,20992
12:33:58.715251,1
12:33:58.715251,-359
12:33:58.715251,9471
12:33:58.715251,-2
12:33:58.715251,37
12:33:58.715251,-27392
12:33:58.715251,0
12:33:58.715251,-89
12:33:58.715251,-14081
12:33:58.715251,-1
12:33:58.715251,9
12:33:58.715251,-13824
12:33:58.715251,-1
12:33:58.715251,-54
12:33:58.715251,-3841
12:33:58.715251,-1
12:33:58.715251,-26
12:33:58.715251,-7425
12:33:58.715251,-1
12:33:58.715251,-16
12:33:58.715251,-1537
12:33:58.715251,-1
12:33:58.715251,0
12:33:58.715251,1792
12:33:58.715251,0
12:33:58.715251,28
12:33:58.715251,16896
12:33:58.715251,0
12:33:58.715251,99
12:33:58.715251,-31232
12:33:58.715251,0
12:33:58.715251,182
12:33:58.715251,-5632
12:33:58.715251,0
12:33:58.715251,303
12:33:58.715251,-29952
12:33:58.715251,1
12:33:58.715251,509
12:33:58.715251,18432
12:33:58.715251,2
12:33:58.715251,535
12:33:58.715251,-16640
12:33:58.715251,1
12:33:58.715251,471
12:33:58.715251,-3840
12:33:58.715251,1
12:33:58.715251,364
12:33:58.715251,-25600
12:33:58.715251,0
12:33:58.715251,0
12:33:58.715251,-26624
12:33:58.715251,-1
12:33:58.715251,-234
12:33:58.715251,-18433
12:33:58.715251,-2
12:33:58.715251,-322
12:33:58.715251,-15873
12:33:58.715251,-2
12:33:58.715251,-352
12:33:58.715251,-22017
12:33:58.715251,-2
12:33:58.715251,-314
12:33:58.715251,-12289
12:33:58.715251,-2
12:33:58.715251,-291
12:33:58.715251,-3073
12:33:58.715251,-2
12:33:58.715251,-255
12:33:58.715251,4095
12:33:58.715251,-1
12:33:58.715251,-224
12:33:58.715251,12031
12:33:58.715251,-1
12:33:58.715251,-198
12:33:58.715251,17407
12:33:58.715251,-1
12:33:58.715251,-187
12:33:59.345069,-182
12:33:59.345069,25855
12:33:59.345069,-1
12:33:59.345069,-142
12:33:59.345069,27135
12:33:59.345069,-1
12:33:59.345069,-137
12:33:59.345069,-26369
12:33:59.345069,-1
12:33:59.345069,-99
12:33:59.345069,-23297
12:33:59.345069,-1
12:33:59.345069,-68
12:33:59.345069,-18433
12:33:59.345069,-1
12:33:59.345069,-75
12:33:59.345069,-13057
12:33:59.345069,-1
12:33:59.345069,-59
12:33:59.345069,-19713
12:33:59.345069,-1
12:33:59.345069,-73
12:33:59.345069,-18945
12:33:59.345069,-1
12:33:59.345069,-73
12:33:59.345069,-13057
12:33:59.345069,-1
12:33:59.345069,-28
12:33:59.345069,-3841
12:33:59.345069,-1
12:33:59.345069,-2
12:33:59.345069,3839
12:33:59.345069,0
12:33:59.345069,4
12:33:59.345069,-2816
12:33:59.345069,-1
12:33:59.345069,-14
12:33:59.345069,-6401
12:33:59.345069,-1
12:33:59.345069,-61
12:33:59.345069,-30465
12:33:59.345069,-1
12:33:59.345069,-78
12:33:59.345069,-513
12:33:59.345069,0
12:33:59.345069,700
12:33:59.345069,25088
12:33:59.345069,3
12:33:59.345069,523
12:33:59.345069,26368
12:33:59.345069,-1
12:33:59.345069,-338
12:33:59.345069,17663
12:33:59.345069,0
12:33:59.345069,134
12:33:59.345069,-23552
12:33:59.345069,-1
12:33:59.345069,-78
12:33:59.345069,-5633
12:33:59.345069,-1
12:33:59.345069,-73
12:33:59.345069,-18945
12:33:59.345069,-1
12:33:59.345069,-47
12:33:59.345069,-15873
12:33:59.345069,-1
12:33:59.345069,-75
12:33:59.345069,-13569
12:33:59.345069,-1
12:33:59.345069,-37
12:33:59.345069,-9217
12:33:59.345069,-1
12:33:59.345069,-14
12:33:59.345069,767
12:33:59.345069,0
12:33:59.345069,11
12:33:59.345069,10240
12:33:59.345069,0
12:33:59.345069,85
12:33:59.345069,30208
12:33:59.345069,0
12:33:59.345069,161
12:33:59.345069,-9984
12:33:59.345069,0
12:33:59.345069,262
12:33:59.345069,7680
12:33:59.345069,1
12:33:59.345069,319
12:33:59.345069,21760
12:33:59.345069,1
12:33:59.345069,333
12:33:59.345069,9472
12:33:59.345069,1
12:33:59.345069,208
12:33:59.345069,22784
12:33:59.345069,0
12:33:59.345069,-30
12:33:59.345069,29439
12:33:59.345069,-1
12:33:59.345069,-229
12:33:59.345069,-9217
12:33:59.345069,-2
12:33:59.345069,-341
12:33:59.345069,-26881
12:33:59.345069,-2
12:33:59.345069,-367
12:33:59.345069,-28673
12:33:59.345069,-2
12:33:59.345069,-369
12:33:59.855246,-350
12:33:59.855246,-20225
12:33:59.855246,-2
12:33:59.855246,-331
12:33:59.855246,-15361
12:33:59.855246,-2
12:33:59.855246,-303
12:33:59.855246,-10497
12:33:59.855246,-2
12:33:59.855246,-291
12:33:59.855246,-6913
12:33:59.855246,-2
12:33:59.855246,-267
12:33:59.855246,511
12:33:59.855246,-1
12:33:59.855246,-251
12:33:59.855246,4095
12:33:59.855246,-1
12:33:59.855246,-232
12:33:59.855246,8959
12:33:59.855246,-1
12:33:59.855246,-213
12:33:59.855246,15615
12:33:59.855246,-1
12:33:59.855246,-182
12:33:59.855246,18687
12:33:59.855246,-1
12:33:59.855246,-184
12:33:59.855246,20479
12:33:59.855246,-1
12:33:59.855246,-179
12:33:59.855246,20479
12:33:59.855246,-1
12:33:59.855246,-168
12:33:59.855246,22271
12:33:59.855246,-1
12:33:59.855246,-177
12:33:59.855246,18687
12:33:59.855246,-1
12:33:59.855246,-187
12:33:59.855246,18687
12:33:59.855246,-1
12:33:59.855246,-175
12:33:59.855246,22271
12:33:59.855246,-1
12:33:59.855246,-163
12:33:59.855246,25855
12:33:59.855246,-1
12:33:59.855246,-163
12:33:59.855246,18687
12:33:59.855246,-1
12:33:59.855246,-201
12:33:59.855246,11263
12:33:59.855246,-1
12:33:59.855246,-224
12:33:59.855246,-2561
12:33:59.855246,-2
12:33:59.855246,-343
12:33:59.855246,-6913
12:33:59.855246,-2
12:33:59.855246,54
12:33:59.855246,-9984
12:33:59.855246,1
12:33:59.855246,660
12:33:59.855246,13824
12:33:59.855246,1
12:33:59.855246,-329
12:33:59.855246,-32257
12:33:59.855246,-2
12:33:59.855246,-44
12:33:59.855246,-31233
12:33:59.855246,-1
12:33:59.855246,-314
12:33:59.855246,511
12:33:59.855246,-1
12:33:59.855246,-224
12:33:59.855246,-3841
12:33:59.855246,-2
12:33:59.855246,-248
12:33:59.855246,10751
12:33:59.855246,-1
12:33:59.855246,-224
12:33:59.855246,12031
12:33:59.855246,-1
12:33:59.855246,-184
12:33:59.855246,19199
12:33:59.855246,-1
12:33:59.855246,-177
12:33:59.855246,24575
12:33:59.855246,-1
12:33:59.855246,-139
12:33:59.855246,-28161
12:33:59.855246,-1
12:33:59.855246,-80
12:33:59.855246,-9985
12:33:59.855246,-1
12:33:59.855246,4
12:33:59.855246,11264
12:33:59.855246,0
12:33:59.855246,80
12:33:59.855246,30720
12:33:59.855246,0
12:33:59.855246,168
12:33:59.855246,-14848
12:33:59.855246,0
12:33:59.855246,213
12:33:59.855246,-10496
12:33:59.855246,0
12:33:59.855246,179
12:34:00.425155,108
12:34:00.425155,512
12:34:00.425155,0
12:34:00.425155,-123
12:34:00.425155,8447
12:34:00.425155,-1
12:34:00.425155,-291
12:34:00.425155,-20225
12:34:00.425155,-2
12:34:00.425155,-376
12:34:00.425155,30207
12:34:00.425155,-2
12:34:00.425155,-378
12:34:00.425155,-25089
12:34:00.425155,-2
12:34:00.425155,-350
12:34:00.425155,-20737
12:34:00.425155,-2
12:34:00.425155,-319
12:34:00.425155,-11777
12:34:00.425155,-2
12:34:00.425155,-298
12:34:00.425155,-7937
12:34:00.425155,-2
12:34:00.425155,-269
12:34:00.425155,-769
12:34:00.425155,-2
12:34:00.425155,-260
12:34:00.425155,511
12:34:00.425155,-1
12:34:00.425155,-251
12:34:00.425155,2815
12:34:00.425155,-1
12:34:00.425155,-243
12:34:00.425155,2303
12:34:00.425155,-1
12:34:00.425155,-243
12:34:00.425155,4095
12:34:00.425155,-1
12:34:00.425155,-239
12:34:00.425155,5375
12:34:00.425155,-1
12:34:00.425155,-241
12:34:00.425155,6399
12:34:00.425155,-1
12:34:00.425155,-224
12:34:00.425155,5887
12:34:00.425155,-1
12:34:00.425155,-229
12:34:00.425155,8959
12:34:00.425155,-1
12:34:00.425155,-236
12:34:00.425155,511
12:34:00.425155,-1
12:34:00.425155,-258
12:34:00.425155,-257
12:34:00.425155,-2
12:34:00.425155,-246
12:34:00.425155,9471
12:34:00.425155,-1
12:34:00.425155,-206
12:34:00.425155,15615
12:34:00.425155,-1
12:34:00.425155,-182
12:34:00.425155,17407
12:34:00.425155,-1
12:34:00.425155,-208
12:34:00.425155,13055
12:34:00.425155,-1
12:34:00.425155,-198
12:34:00.425155,10751
12:34:00.425155,-1
12:34:00.425155,-288
12:34:00.425155,-20737
12:34:00.425155,-2
12:34:00.425155,-158
12:34:00.425155,-1793
12:34:00.425155,0
12:34:00.425155,618
12:34:00.425155,25856
12:34:00.425155,2
12:34:00.425155,40
12:34:00.425155,24576
12:34:00.425155,-2
12:34:00.425155,-165
12:34:00.425155,7423
12:34:00.425155,0
12:34:00.425155,-194
12:34:00.425155,-769
12:34:00.425155,-2
12:34:00.425155,-170
12:34:00.425155,15103
12:34:00.425155,-1
12:34:00.425155,-217
12:34:00.425155,22783
12:34:00.425155,-1
12:34:00.425155,-170
12:34:00.425155,17919
12:34:00.425155,-1
12:34:00.425155,-153
12:34:00.425155,32511
12:34:00.425155,-1
12:34:00.425155,-127
12:34:00.425155,-28161
12:34:00.425155,-1
12:34:00.425155,-82
12:34:00.425155,-14081
12:34:00.425155,-1
12:34:00.425155,-37
12:34:00.965636,-4
12:34:00.965636,12287
12:34:00.965636,0
12:34:00.965636,89
12:34:00.965636,30720
12:34:00.965636,0
12:34:00.965636,161
12:34:00.965636,-12288
12:34:00.965636,0
12:34:00.965636,241
12:34:00.965636,1024
12:34:00.965636,1
12:34:00.965636,274
12:34:00.965636,4096
12:34:00.965636,1
12:34:00.965636,224
12:34:00.965636,31488
12:34:00.965636,0
12:34:00.965636,2
12:34:00.965636,-25856
12:34:00.965636,-1
12:34:00.965636,-194
12:34:00.965636,-5121
12:34:00.965636,-2
12:34:00.965636,-326
12:34:00.965636,-22529
12:34:00.965636,-2
12:34:00.965636,-359
12:34:00.965636,-27393
12:34:00.965636,-2
12:34:00.965636,-355
12:34:00.965636,-21505
12:34:00.965636,-2
12:34:00.965636,-333
12:34:00.965636,-17665
12:34:00.965636,-2
12:34:00.965636,-312
12:34:00.965636,-8705
12:34:00.965636,-2
12:34:00.965636,-277
12:34:00.965636,-2561
12:34:00.965636,-2
12:34:00.965636,-258
12:34:00.965636,1023
12:34:00.965636,-1
12:34:00.965636,-248
12:34:00.965636,5375
12:34:00.965636,-1
12:34:00.965636,-224
12:34:00.965636,10239
12:34:00.965636,-1
12:34:00.965636,-215
12:34:00.965636,9471
12:34:00.965636,-1
12:34:00.965636,-215
12:34:00.965636,12543
12:34:00.965636,-1
12:34:00.965636,-208
12:34:00.965636,10239
12:34:00.965636,-1
12:34:00.965636,-227
12:34:00.965636,7679
12:34:00.965636,-1
12:34:00.965636,-224
12:34:00.965636,12543
12:34:00.965636,-1
12:34:00.965636,-179
12:34:00.965636,22783
12:34:00.965636,-1
12:34:00.965636,-156
12:34:00.965636,31487
12:34:00.965636,-1
12:34:00.965636,-132
12:34:00.965636,27647
12:34:00.965636,-1
12:34:00.965636,-149
12:34:00.965636,28415
12:34:00.965636,-1
12:34:00.965636,-158
12:34:00.965636,13823
12:34:00.965636,-1
12:34:00.965636,-253
12:34:00.965636,-30465
12:34:00.965636,-1
12:34:00.965636,286
12:34:00.965636,-29952
12:34:00.965636,2
12:34:00.965636,610
12:34:00.965636,17408
12:34:00.965636,0
12:34:00.965636,-454
12:34:00.965636,1023
12:34:00.965636,-1
12:34:00.965636,113
12:34:00.965636,-8960
12:34:00.965636,-1
12:34:00.965636,-179
12:34:00.965636,-22017
12:34:00.965636,-1
12:34:00.965636,-89
12:34:00.965636,31999
12:34:00.965636,-1
12:34:00.965636,-97
12:34:00.965636,-20737
12:34:00.965636,-1
12:34:00.965636,-89
12:34:00.965636,-17153
12:34:00.965636,-1
12:34:00.965636,-49
12:34:01.505110,-42
12:34:01.505110,-5121
12:34:01.505110,-1
12:34:01.505110,4
12:34:01.505110,7680
12:34:01.505110,0
12:34:01.505110,56
12:34:01.505110,24064
12:34:01.505110,0
12:34:01.505110,144
12:34:01.505110,-14080
12:34:01.505110,0
12:34:01.505110,248
12:34:01.505110,7680
12:34:01.505110,1
12:34:01.505110,324
12:34:01.505110,25344
12:34:01.505110,1
12:34:01.505110,369
12:34:01.505110,30208
12:34:01.505110,1
12:34:01.505110,352
12:34:01.505110,7680
12:34:01.505110,1
12:34:01.505110,177
12:34:01.505110,14336
12:34:01.505110,0
12:34:01.505110,-52
12:34:01.505110,28927
12:34:01.505110,-1
12:34:01.505110,-222
12:34:01.505110,-3841
12:34:01.505110,-2
12:34:01.505110,-293
12:34:01.505110,-11777
12:34:01.505110,-2
12:34:01.505110,-307
12:34:01.505110,-12289
12:34:01.505110,-2
12:34:01.505110,-293
12:34:01.505110,-6145
12:34:01.505110,-2
12:34:01.505110,-277
12:34:01.505110,-2049
12:34:01.505110,-2
12:34:01.505110,-253
12:34:01.505110,2303
12:34:01.505110,-1
12:34:01.505110,-243
12:34:01.505110,4607
12:34:01.505110,-1
12:34:01.505110,-239
12:34:01.505110,6399
12:34:01.505110,-1
12:34:01.505110,-217
12:34:01.505110,11263
12:34:01.505110,-1
12:34:01.505110,-215
12:34:01.505110,12543
12:34:01.505110,-1
12:34:01.505110,-201
12:34:01.505110,15103
12:34:01.505110,-1
12:34:01.505110,-194
12:34:01.505110,15615
12:34:01.505110,-1
12:34:01.505110,-191
12:34:01.505110,18687
12:34:01.505110,-1
12:34:01.505110,-182
12:34:01.505110,21759
12:34:01.505110,-1
12:34:01.505110,-168
12:34:01.505110,20479
12:34:01.505110,-1
12:34:01.505110,-184
12:34:01.505110,16127
12:34:01.505110,-1
12:34:01.505110,-187
12:34:01.505110,25343
12:34:01.505110,-1
12:34:01.505110,-137
12:34:01.505110,-31745
12:34:01.505110,-1
12:34:01.505110,-106
12:34:01.505110,-23297
12:34:01.505110,-1
12:34:01.505110,-94
12:34:01.505110,-26881
12:34:01.505110,-1
12:34:01.505110,-106
12:34:01.505110,-26369
12:34:01.505110,-1
12:34:01.505110,-130
12:34:01.505110,15103
12:34:01.505110,-1
12:34:01.505110,-198
12:34:01.505110,12287
12:34:01.505110,0
12:34:01.505110,466
12:34:01.505110,2048
12:34:01.505110,3
12:34:01.505110,648
12:34:01.505110,12544
12:34:01.505110,0
12:34:01.505110,-241
12:34:01.505110,13567
12:34:01.505110,0
12:34:01.505110,111
12:34:02.075891,-111
12:34:02.075891,-29953
12:34:02.075891,-1
12:34:02.075891,-61
12:34:02.075891,-23297
12:34:02.075891,-1
12:34:02.075891,-80
12:34:02.075891,-9217
12:34:02.075891,-1
12:34:02.075891,-40
12:34:02.075891,-9985
12:34:02.075891,-1
12:34:02.075891,-14
12:34:02.075891,-769
12:34:02.075891,-1
12:34:02.075891,7
12:34:02.075891,10240
12:34:02.075891,0
12:34:02.075891,66
12:34:02.075891,21760
12:34:02.075891,0
12:34:02.075891,111
12:34:02.075891,-27392
12:34:02.075891,0
12:34:02.075891,184
12:34:02.075891,-9216
12:34:02.075891,0
12:34:02.075891,262
12:34:02.075891,12032
12:34:02.075891,1
12:34:02.075891,336
12:34:02.075891,29440
12:34:02.075891,1
12:34:02.075891,390
12:34:02.075891,-31744
12:34:02.075891,1
12:34:02.075891,357
12:34:02.075891,5888
12:34:02.075891,1
12:34:02.075891,168
12:34:02.075891,11264
12:34:02.075891,0
12:34:02.075891,-68
12:34:02.075891,26623
12:34:02.075891,-1
12:34:02.075891,-217
12:34:02.075891,1023
12:34:02.075891,-1
12:34:02.075891,-272
12:34:02.075891,-6145
12:34:02.075891,-2
12:34:02.075891,-279
12:34:02.075891,-3841
12:34:02.075891,-2
12:34:02.075891,-265
12:34:02.075891,-257
12:34:02.075891,-2
12:34:02.075891,-251
12:34:02.075891,4095
12:34:02.075891,-1
12:34:02.075891,-224
12:34:02.075891,11263
12:34:02.075891,-1
12:34:02.075891,-206
12:34:02.075891,13823
12:34:02.075891,-1
12:34:02.075891,-194
12:34:02.075891,18687
12:34:02.075891,-1
12:34:02.075891,-182
12:34:02.075891,20479
12:34:02.075891,-1
12:34:02.075891,-175
12:34:02.075891,21759
12:34:02.075891,-1
12:34:02.075891,-170
12:34:02.075891,21759
12:34:02.075891,-1
12:34:02.075891,-165
12:34:02.075891,24063
12:34:02.075891,-1
12:34:02.075891,-163
12:34:02.075891,26623
12:34:02.075891,-1
12:34:02.075891,-153
12:34:02.075891,26623
12:34:02.075891,-1
12:34:02.075891,-151
12:34:02.075891,27647
12:34:02.075891,-1
12:34:02.075891,-144
12:34:02.075891,28927
12:34:02.075891,-1
12:34:02.075891,-142
12:34:02.075891,28927
12:34:02.075891,-1
12:34:02.075891,-156
12:34:02.075891,24063
12:34:02.075891,-1
12:34:02.075891,-168
12:34:02.075891,23551
12:34:02.075891,-1
12:34:02.075891,-144
12:34:02.075891,-30465
12:34:02.075891,-1
12:34:02.075891,-101
12:34:02.075891,-21505
12:34:02.075891,-1
12:34:02.075891,-71
12:34:02.675244,-73
12:34:02.675244,-21505
12:34:02.675244,-1
12:34:02.675244,-87
12:34:02.675244,-19713
12:34:02.675244,-1
12:34:02.675244,-97
12:34:02.675244,25855
12:34:02.675244,-1
12:34:02.675244,-172
12:34:02.675244,8703
12:34:02.675244,0
12:34:02.675244,435
12:34:02.675244,6912
12:34:02.675244,3
12:34:02.675244,748
12:34:02.675244,-20224
12:34:02.675244,0
12:34:02.675244,-158
12:34:02.675244,21247
12:34:02.675244,0
12:34:02.675244,137
12:34:02.675244,-20480
12:34:02.675244,-1
12:34:02.675244,-89
12:34:02.675244,-8193
12:34:02.675244,-1
12:34:02.675244,-75
12:34:02.675244,-20225
12:34:02.675244,-1
12:34:02.675244,-44
12:34:02.675244,-9985
12:34:02.675244,-1
12:34:02.675244,-40
12:34:02.675244,-5121
12:34:02.675244,-1
12:34:02.675244,-7
12:34:02.675244,767
12:34:02.675244,0
12:34:02.675244,26
12:34:02.675244,12032
12:34:02.675244,0
12:34:02.675244,66
12:34:02.675244,24832
12:34:02.675244,0
12:34:02.675244,130
12:34:02.675244,-23808
12:34:02.675244,0
12:34:02.675244,203
12:34:02.675244,-3328
12:34:02.675244,0
12:34:02.675244,281
12:34:02.675244,14848
12:34:02.675244,1
12:34:02.675244,345
12:34:02.675244,27648
12:34:02.675244,1
12:34:02.675244,364
12:34:02.675244,20992
12:34:02.675244,1
12:34:02.675244,269
12:34:02.675244,-23808
12:34:02.675244,0
12:34:02.675244,40
12:34:02.675244,-19200
12:34:02.675244,-1
12:34:02.675244,-158
12:34:02.675244,8959
12:34:02.675244,-1
12:34:02.675244,-272
12:34:02.675244,-7425
12:34:02.675244,-2
12:34:02.675244,-291
12:34:02.675244,-9985
12:34:02.675244,-2
12:34:02.675244,-291
12:34:02.675244,-6145
12:34:02.675244,-2
12:34:02.675244,-272
12:34:02.675244,-769
12:34:02.675244,-2
12:34:02.675244,-251
12:34:02.675244,2815
12:34:02.675244,-1
12:34:02.675244,-243
12:34:02.675244,6399
12:34:02.675244,-1
12:34:02.675244,-220
12:34:02.675244,10751
12:34:02.675244,-1
12:34:02.675244,-203
12:34:02.675244,15103
12:34:02.675244,-1
12:34:02.675244,-196
12:34:02.675244,17407
12:34:02.675244,-1
12:34:02.675244,-182
12:34:02.675244,19967
12:34:02.675244,-1
12:34:02.675244,-179
12:34:02.675244,20991
12:34:02.675244,-1
12:34:02.675244,-168
12:34:02.675244,24063
12:34:02.675244,-1
12:34:02.675244,-158
12:34:02.675244,25855
12:34:02.675244,-1
12:34:02.675244,-158
12:34:03.215895,-153
12:34:03.215895,27647
12:34:03.215895,-1
12:34:03.215895,-144
12:34:03.215895,28927
12:34:03.215895,-1
12:34:03.215895,-146
12:34:03.215895,30207
12:34:03.215895,-1
12:34:03.215895,-134
12:34:03.215895,30719
12:34:03.215895,-1
12:34:03.215895,-134
12:34:03.215895,32511
12:34:03.215895,-1
12:34:03.215895,-113
12:34:03.215895,-24577
12:34:03.215895,-1
12:34:03.215895,-101
12:34:03.215895,-26369
12:34:03.215895,-1
12:34:03.215895,-97
12:34:03.215895,-24577
12:34:03.215895,-1
12:34:03.215895,-99
12:34:03.215895,-25089
12:34:03.215895,-1
12:34:03.215895,-97
12:34:03.215895,-25089
12:34:03.215895,-1
12:34:03.215895,-97
12:34:03.215895,-22529
12:34:03.215895,-1
12:34:03.215895,-94
12:34:03.215895,-25601
12:34:03.215895,-1
12:34:03.215895,-108
12:34:03.215895,-29441
12:34:03.215895,-1
12:34:03.215895,-125
12:34:03.215895,-31233
12:34:03.215895,-1
12:34:03.215895,-97
12:34:03.215895,-17153
12:34:03.215895,-1
12:34:03.215895,-61
12:34:03.215895,-13569
12:34:03.215895,-1
12:34:03.215895,-52
12:34:03.215895,-16641
12:34:03.215895,-1
12:34:03.215895,-78
12:34:03.215895,-20737
12:34:03.215895,-1
12:34:03.215895,-89
12:34:03.215895,30207
12:34:03.215895,-1
12:34:03.215895,-210
12:34:03.215895,-31745
12:34:03.215895,-1
12:34:03.215895,208
12:34:03.215895,29440
12:34:03.215895,2
12:34:03.215895,828
12:34:03.215895,-11264
12:34:03.215895,1
12:34:03.215895,-97
12:34:03.215895,-22529
12:34:03.215895,-1
12:34:03.215895,132
12:34:03.215895,-4608
12:34:03.215895,-1
12:34:03.215895,-158
12:34:03.215895,-23809
12:34:03.215895,-1
12:34:03.215895,-89
12:34:03.215895,-31745
12:34:03.215895,-1
12:34:03.215895,-99
12:34:03.215895,-19713
12:34:03.215895,-1
12:34:03.215895,-75
12:34:03.215895,-14849
12:34:03.215895,-1
12:34:03.215895,-40
12:34:03.215895,-5633
12:34:03.215895,-1
12:34:03.215895,-7
12:34:03.215895,3071
12:34:03.215895,0
12:34:03.215895,30
12:34:03.215895,12032
12:34:03.215895,0
12:34:03.215895,78
12:34:03.215895,30720
12:34:03.215895,0
12:34:03.215895,151
12:34:03.215895,-20736
12:34:03.215895,0
12:34:03.215895,201
12:34:03.215895,-2560
12:34:03.215895,0
12:34:03.215895,286
12:34:03.215895,10752
12:34:03.215895,1
12:34:03.215895,298
12:34:03.215895,13056
12:34:03.215895,1
12:34:03.215895,303
12:34:03.785813,253
12:34:03.785813,-26880
12:34:03.785813,0
12:34:03.785813,40
12:34:03.785813,-15616
12:34:03.785813,-1
12:34:03.785813,-151
12:34:03.785813,12543
12:34:03.785813,-1
12:34:03.785813,-246
12:34:03.785813,-2561
12:34:03.785813,-2
12:34:03.785813,-246
12:34:03.785813,5375
12:34:03.785813,-1
12:34:03.785813,-248
12:34:03.785813,5375
12:34:03.785813,-1
12:34:03.785813,-203
12:34:03.785813,15103
12:34:03.785813,-1
12:34:03.785813,-203
12:34:03.785813,20479
12:34:03.785813,-1
12:34:03.785813,-158
12:34:03.785813,22783
12:34:03.785813,-1
12:34:03.785813,-161
12:34:03.785813,28415
12:34:03.785813,-1
12:34:03.785813,-139
12:34:03.785813,-32257
12:34:03.785813,-1
12:34:03.785813,-116
12:34:03.785813,-28673
12:34:03.785813,-1
12:34:03.785813,-113
12:34:03.785813,-25089
12:34:03.785813,-1
12:34:03.785813,-82
12:34:03.785813,-22017
12:34:03.785813,-1
12:34:03.785813,-92
12:34:03.785813,-17153
12:34:03.785813,-1
12:34:03.785813,-56
12:34:03.785813,-13569
12:34:03.785813,-1
12:34:03.785813,-42
12:34:03.785813,-9217
12:34:03.785813,-1
12:34:03.785813,-52
12:34:03.785813,-12289
12:34:03.785813,-1
12:34:03.785813,-33
12:34:03.785813,-6401
12:34:03.785813,-1
12:34:03.785813,-23
12:34:03.785813,-3329
12:34:03.785813,-1
12:34:03.785813,-9
12:34:03.785813,-257
12:34:03.785813,-1
12:34:03.785813,4
12:34:03.785813,-512
12:34:03.785813,-1
12:34:03.785813,-14
12:34:03.785813,255
12:34:03.785813,0
12:34:03.785813,18
12:34:03.785813,2816
12:34:03.785813,0
12:34:03.785813,4
12:34:03.785813,1024
12:34:03.785813,0
12:34:03.785813,4
12:34:03.785813,1024
12:34:03.785813,0
12:34:03.785813,-2
12:34:03.785813,-769
12:34:03.785813,-1
12:34:03.785813,0
12:34:03.785813,1792
12:34:03.785813,0
12:34:03.785813,7
12:34:03.785813,1792
12:34:03.785813,0
12:34:03.785813,-11
12:34:03.785813,-11009
12:34:03.785813,-1
12:34:03.785813,-33
12:34:03.785813,-2561
12:34:03.785813,-1
12:34:03.785813,-21
12:34:03.785813,-2049
12:34:03.785813,-1
12:34:03.785813,18
12:34:03.785813,9472
12:34:03.785813,0
12:34:03.785813,42
12:34:03.785813,8448
12:34:03.785813,0
12:34:03.785813,21
12:34:03.785813,3584
12:34:03.785813,0
12:34:03.785813,9
12:34:03.785813,-1792
12:34:03.785813,-1
12:34:03.785813,-61
12:34:04.325121,-113
12:34:04.325121,10495
12:34:04.325121,0
12:34:04.325121,442
12:34:04.325121,16640
12:34:04.325121,3
12:34:04.325121,871
12:34:04.325121,23552
12:34:04.325121,1
12:34:04.325121,-127
12:34:04.325121,15359
12:34:04.325121,0
12:34:04.325121,232
12:34:04.325121,8448
12:34:04.325121,0
12:34:04.325121,-23
12:34:04.325121,11519
12:34:04.325121,0
12:34:04.325121,7
12:34:04.325121,-2304
12:34:04.325121,-1
12:34:04.325121,23
12:34:04.325121,5376
12:34:04.325121,0
12:34:04.325121,16
12:34:04.325121,10240
12:34:04.325121,0
12:34:04.325121,47
12:34:04.325121,13312
12:34:04.325121,0
12:34:04.325121,73
12:34:04.325121,25344
12:34:04.325121,0
12:34:04.325121,116
12:34:04.325121,32512
12:34:04.325121,0
12:34:04.325121,151
12:34:04.325121,-17664
12:34:04.325121,0
12:34:04.325121,224
12:34:04.325121,1536
12:34:04.325121,1
12:34:04.325121,293
12:34:04.325121,17920
12:34:04.325121,1
12:34:04.325121,359
12:34:04.325121,31232
12:34:04.325121,1
12:34:04.325121,393
12:34:04.325121,-29952
12:34:04.325121,1
12:34:04.325121,359
12:34:04.325121,5888
12:34:04.325121,1
12:34:04.325121,172
12:34:04.325121,16896
12:34:04.325121,0
12:34:04.325121,-33
12:34:04.325121,-30465
12:34:04.325121,-1
12:34:04.325121,-177
12:34:04.325121,12543
12:34:04.325121,-1
12:34:04.325121,-227
12:34:04.325121,6399
12:34:04.325121,-1
12:34:04.325121,-232
12:34:04.325121,5887
12:34:04.325121,-1
12:34:04.325121,-222
12:34:04.325121,15615
12:34:04.325121,-1
12:34:04.325121,-191
12:34:04.325121,17407
12:34:04.325121,-1
12:34:04.325121,-172
12:34:04.325121,24575
12:34:04.325121,-1
12:34:04.325121,-153
12:34:04.325121,28415
12:34:04.325121,-1
12:34:04.325121,-142
12:34:04.325121,30719
12:34:04.325121,-1
12:34:04.325121,-130
12:34:04.325121,-29441
12:34:04.325121,-1
12:34:04.325121,-116
12:34:04.325121,-29953
12:34:04.325121,-1
12:34:04.325121,-111
12:34:04.325121,-28161
12:34:04.325121,-1
12:34:04.325121,-104
12:34:04.325121,-26369
12:34:04.325121,-1
12:34:04.325121,-108
12:34:04.325121,-26369
12:34:04.325121,-1
12:34:04.325121,-97
12:34:04.325121,-25089
12:34:04.325121,-1
12:34:04.325121,-92
12:34:04.325121,-22529
12:34:04.325121,-1
12:34:04.325121,-94
12:34:04.325121,-22529
12:34:04.325121,-1
12:34:04.325121,-82
12:34:04.895931,-78
12:34:04.895931,-21505
12:34:04.895931,-1
12:34:04.895931,-85
12:34:04.895931,-18945
12:34:04.895931,-1
12:34:04.895931,-80
12:34:04.895931,-18433
12:34:04.895931,-1
12:34:04.895931,-42
12:34:04.895931,-9217
12:34:04.895931,-1
12:34:04.895931,-52
12:34:04.895931,-12289
12:34:04.895931,-1
12:34:04.895931,-42
12:34:04.895931,-11009
12:34:04.895931,-1
12:34:04.895931,-47
12:34:04.895931,-10497
12:34:04.895931,-1
12:34:04.895931,-42
12:34:04.895931,-11777
12:34:04.895931,-1
12:34:04.895931,-44
12:34:04.895931,-10497
12:34:04.895931,-1
12:34:04.895931,-40
12:34:04.895931,-10497
12:34:04.895931,-1
12:34:04.895931,-37
12:34:04.895931,-8705
12:34:04.895931,-1
12:34:04.895931,-40
12:34:04.895931,-11777
12:34:04.895931,-1
12:34:04.895931,-56
12:34:04.895931,-14849
12:34:04.895931,-1
12:34:04.895931,-68
12:34:04.895931,-18433
12:34:04.895931,-1
12:34:04.895931,-54
12:34:04.895931,-6913
12:34:04.895931,-1
12:34:04.895931,-9
12:34:04.895931,-257
12:34:04.895931,-1
12:34:04.895931,2
12:34:04.895931,512
12:34:04.895931,0
12:34:04.895931,-4
12:34:04.895931,-5121
12:34:04.895931,-1
12:34:04.895931,-23
12:34:04.895931,-8193
12:34:04.895931,-1
12:34:04.895931,-99
12:34:04.895931,30719
12:34:04.895931,-1
12:34:04.895931,54
12:34:04.895931,-16640
12:34:04.895931,1
12:34:04.895931,812
12:34:04.895931,13056
12:34:04.895931,3
12:34:04.895931,258
12:34:04.895931,23808
12:34:04.895931,-1
12:34:04.895931,71
12:34:04.895931,-14080
12:34:04.895931,0
12:34:04.895931,-26
12:34:04.895931,-19713
12:34:04.895931,-1
12:34:04.895931,0
12:34:04.895931,-6656
12:34:04.895931,-1
12:34:04.895931,-56
12:34:04.895931,-5121
12:34:04.895931,-1
12:34:04.895931,0
12:34:04.895931,-1024
12:34:04.895931,-1
12:34:04.895931,2
12:34:04.895931,5888
12:34:04.895931,0
12:34:04.895931,44
12:34:04.895931,16896
12:34:04.895931,0
12:34:04.895931,82
12:34:04.895931,25856
12:34:04.895931,0
12:34:04.895931,130
12:34:04.895931,-26368
12:34:04.895931,0
12:34:04.895931,182
12:34:04.895931,-7424
12:34:04.895931,0
12:34:04.895931,262
12:34:04.895931,7168
12:34:04.895931,1
12:34:04.895931,324
12:34:04.895931,27648
12:34:04.895931,1
12:34:04.895931,378
12:34:04.895931,-32256
12:34:04.895931,1
12:34:04.895931,393
12:34:05.435249,367
12:34:05.435249,8192
12:34:05.435249,1
12:34:05.435249,187
12:34:05.435249,22272
12:34:05.435249,0
12:34:05.435249,-16
12:34:05.435249,-27393
12:34:05.435249,-1
12:34:05.435249,-161
12:34:05.435249,17919
12:34:05.435249,-1
12:34:05.435249,-194
12:34:05.435249,16895
12:34:05.435249,-1
12:34:05.435249,-206
12:34:05.435249,13055
12:34:05.435249,-1
12:34:05.435249,-182
12:34:05.435249,19199
12:34:05.435249,-1
12:34:05.435249,-189
12:34:05.435249,23551
12:34:05.435249,-1
12:34:05.435249,-146
12:34:05.435249,27135
12:34:05.435249,-1
12:34:05.435249,-153
12:34:05.435249,30207
12:34:05.435249,-1
12:34:05.435249,-120
12:34:05.435249,-29441
12:34:05.435249,-1
12:34:05.435249,-120
12:34:05.435249,-28673
12:34:05.435249,-1
12:34:05.435249,-106
12:34:05.435249,-27393
12:34:05.435249,-1
12:34:05.435249,-108
12:34:05.435249,-22529
12:34:05.435249,-1
12:34:05.435249,-82
12:34:05.435249,-26881
12:34:05.435249,-1
12:34:05.435249,-111
12:34:05.435249,-22017
12:34:05.435249,-1
12:34:05.435249,-89
12:34:05.435249,-23809
12:34:05.435249,-1
12:34:05.435249,-80
12:34:05.435249,-20737
12:34:05.435249,-1
12:34:05.435249,-94
12:34:05.435249,-20737
12:34:05.435249,-1
12:34:05.435249,-71
12:34:05.435249,-18945
12:34:05.435249,-1
12:34:05.435249,-80
12:34:05.435249,-20225
12:34:05.435249,-1
12:34:05.435249,-78
12:34:05.435249,-17153
12:34:05.435249,-1
12:34:05.435249,-71
12:34:05.435249,-17921
12:34:05.435249,-1
12:34:05.435249,-59
12:34:05.435249,-14849
12:34:05.435249,-1
12:34:05.435249,-66
12:34:05.435249,-15873
12:34:05.435249,-1
12:34:05.435249,-59
12:34:05.435249,-13569
12:34:05.435249,-1
12:34:05.435249,-44
12:34:05.435249,-13057
12:34:05.435249,-1
12:34:05.435249,-52
12:34:05.435249,-9217
12:34:05.435249,-1
12:34:05.435249,-44
12:34:05.435249,-13057
12:34:05.435249,-1
12:34:05.435249,-44
12:34:05.435249,-8705
12:34:05.435249,-1
12:34:05.435249,-47
12:34:05.435249,-14849
12:34:05.435249,-1
12:34:05.435249,-49
12:34:05.435249,-13057
12:34:05.435249,-1
12:34:05.435249,-71
12:34:05.435249,-15361
12:34:05.435249,-1
12:34:05.435249,-37
12:34:05.435249,-6401
12:34:05.435249,-1
12:34:05.435249,-14
12:34:05.435249,3071
12:34:05.435249,0
12:34:05.435249,30
12:34:05.435249,4608
12:34:05.435249,0
12:34:05.435249,-11
12:34:06.035238,-14
12:34:06.035238,-769
12:34:06.035238,-1
12:34:06.035238,-16
12:34:06.035238,-14081
12:34:06.035238,-1
12:34:06.035238,-101
12:34:06.035238,-8193
12:34:06.035238,-1
12:34:06.035238,269
12:34:06.035238,-20992
12:34:06.035238,2
12:34:06.035238,880
12:34:06.035238,-768
12:34:06.035238,1
12:34:06.035238,-125
12:34:06.035238,29439
12:34:06.035238,-1
12:34:06.035238,210
12:34:06.035238,32000
12:34:06.035238,0
12:34:06.035238,-54
12:34:06.035238,3839
12:34:06.035238,0
12:34:06.035238,23
12:34:06.035238,-7680
12:34:06.035238,-1
12:34:06.035238,2
12:34:06.035238,7680
12:34:06.035238,0
12:34:06.035238,16
12:34:06.035238,7680
12:34:06.035238,0
12:34:06.035238,56
12:34:06.035238,15616
12:34:06.035238,0
12:34:06.035238,68
12:34:06.035238,22784
12:34:06.035238,0
12:34:06.035238,113
12:34:06.035238,-31744
12:34:06.035238,0
12:34:06.035238,151
12:34:06.035238,-18432
12:34:06.035238,0
12:34:06.035238,220
12:34:06.035238,-3840
12:34:06.035238,0
12:34:06.035238,279
12:34:06.035238,17920
12:34:06.035238,1
12:34:06.035238,352
12:34:06.035238,30208
12:34:06.035238,1
12:34:06.035238,397
12:34:06.035238,-27648
12:34:06.035238,1
12:34:06.035238,393
12:34:06.035238,24064
12:34:06.035238,1
12:34:06.035238,262
12:34:06.035238,-23808
12:34:06.035238,0
12:34:06.035238,59
12:34:06.035238,-12032
12:34:06.035238,-1
12:34:06.035238,-123
12:34:06.035238,23551
12:34:06.035238,-1
12:34:06.035238,-191
12:34:06.035238,14335
12:34:06.035238,-1
12:34:06.035238,-206
12:34:06.035238,13055
12:34:06.035238,-1
12:34:06.035238,-201
12:34:06.035238,16895
12:34:06.035238,-1
12:34:06.035238,-182
12:34:06.035238,20479
12:34:06.035238,-1
12:34:06.035238,-161
12:34:06.035238,27135
12:34:06.035238,-1
12:34:06.035238,-149
12:34:06.035238,-32257
12:34:06.035238,-1
12:34:06.035238,-111
12:34:06.035238,-29441
12:34:06.035238,-1
12:34:06.035238,-106
12:34:06.035238,-23297
12:34:06.035238,-1
12:34:06.035238,-99
12:34:06.035238,-23297
12:34:06.035238,-1
12:34:06.035238,-80
12:34:06.035238,-20737
12:34:06.035238,-1
12:34:06.035238,-78
12:34:06.035238,-17921
12:34:06.035238,-1
12:34:06.035238,-73
12:34:06.035238,-17153
12:34:06.035238,-1
12:34:06.035238,-54
12:34:06.035238,-14081
12:34:06.035238,-1
12:34:06.035238,-56
12:34:06.575110,-52
12:34:06.575110,-11009
12:34:06.575110,-1
12:34:06.575110,-37
12:34:06.575110,-10497
12:34:06.575110,-1
12:34:06.575110,-40
12:34:06.575110,-6913
12:34:06.575110,-1
12:34:06.575110,-28
12:34:06.575110,-8193
12:34:06.575110,-1
12:34:06.575110,-30
12:34:06.575110,-3329
12:34:06.575110,-1
12:34:06.575110,2
12:34:06.575110,-512
12:34:06.575110,-1
12:34:06.575110,-4
12:34:06.575110,-769
12:34:06.575110,-1
12:34:06.575110,0
12:34:06.575110,-512
12:34:06.575110,-1
12:34:06.575110,-9
12:34:06.575110,-769
12:34:06.575110,-1
12:34:06.575110,0
12:34:06.575110,-2304
12:34:06.575110,-1
12:34:06.575110,-9
12:34:06.575110,-257
12:34:06.575110,-1
12:34:06.575110,-4
12:34:06.575110,-2049
12:34:06.575110,-1
12:34:06.575110,-11
12:34:06.575110,-2561
12:34:06.575110,-1
12:34:06.575110,-16
12:34:06.575110,-6913
12:34:06.575110,-1
12:34:06.575110,-18
12:34:06.575110,-257
12:34:06.575110,-1
12:34:06.575110,9
12:34:06.575110,5376
12:34:06.575110,0
12:34:06.575110,35
12:34:06.575110,13312
12:34:06.575110,0
12:34:06.575110,42
12:34:06.575110,3584
12:34:06.575110,0
12:34:06.575110,2
12:34:06.575110,2304
12:34:06.575110,0
12:34:06.575110,2
12:34:06.575110,-10752
12:34:06.575110,-1
12:34:06.575110,-111
12:34:06.575110,-11009
12:34:06.575110,-1
12:34:06.575110,267
12:34:06.575110,-30720
12:34:06.575110,2
12:34:06.575110,783
12:34:06.575110,-28672
12:34:06.575110,1
12:34:06.575110,-163
12:34:06.575110,-29953
12:34:06.575110,-1
12:34:06.575110,198
12:34:06.575110,21760
12:34:06.575110,0
12:34:06.575110,-82
12:34:06.575110,-5121
12:34:06.575110,-1
12:34:06.575110,-4
12:34:06.575110,-11009
12:34:06.575110,-1
12:34:06.575110,-26
12:34:06.575110,-1537
12:34:06.575110,-1
12:34:06.575110,-7
12:34:06.575110,2047
12:34:06.575110,0
12:34:06.575110,23
12:34:06.575110,8448
12:34:06.575110,0
12:34:06.575110,42
12:34:06.575110,16128
12:34:06.575110,0
12:34:06.575110,85
12:34:06.575110,26624
12:34:06.575110,0
12:34:06.575110,130
12:34:06.575110,-25088
12:34:06.575110,0
12:34:06.575110,189
12:34:06.575110,-7424
12:34:06.575110,0
12:34:06.575110,262
12:34:06.575110,10240
12:34:06.575110,1
12:34:06.575110,319
12:34:06.575110,22272
12:34:06.575110,1
12:34:06.575110,369
12:34:07.145087,378
12:34:07.145087,26368
12:34:07.145087,1
12:34:07.145087,319
12:34:07.145087,-3840
12:34:07.145087,0
12:34:07.145087,134
12:34:07.145087,5376
12:34:07.145087,0
12:34:07.145087,-63
12:34:07.145087,-28673
12:34:07.145087,-1
12:34:07.145087,-151
12:34:07.145087,18687
12:34:07.145087,-1
12:34:07.145087,-196
12:34:07.145087,15103
12:34:07.145087,-1
12:34:07.145087,-196
12:34:07.145087,16895
12:34:07.145087,-1
12:34:07.145087,-184
12:34:07.145087,20479
12:34:07.145087,-1
12:34:07.145087,-170
12:34:07.145087,24063
12:34:07.145087,-1
12:34:07.145087,-153
12:34:07.145087,29439
12:34:07.145087,-1
12:34:07.145087,-132
12:34:07.145087,31487
12:34:07.145087,-1
12:34:07.145087,-127
12:34:07.145087,-27393
12:34:07.145087,-1
12:34:07.145087,-106
12:34:07.145087,-28161
12:34:07.145087,-1
12:34:07.145087,-101
12:34:07.145087,-23297
12:34:07.145087,-1
12:34:07.145087,-99
12:34:07.145087,-26369
12:34:07.145087,-1
12:34:07.145087,-89
12:34:07.145087,-20225
12:34:07.145087,-1
12:34:07.145087,-85
12:34:07.145087,-17921
12:34:07.145087,-1
12:34:07.145087,0
12:34:07.145087,20480
12:34:07.145087,0
12:34:07.145087,92
12:34:07.145087,19200
12:34:07.145087,0
12:34:07.145087,82
12:34:07.145087,22272
12:34:07.145087,0
12:34:07.145087,78
12:34:07.145087,17408
12:34:07.145087,0
12:34:07.145087,68
12:34:07.145087,16896
12:34:07.145087,0
12:34:07.145087,56
12:34:07.145087,8960
12:34:07.145087,0
12:34:07.145087,4
12:34:07.145087,-2304
12:34:07.145087,-1
12:34:07.145087,-28
12:34:07.145087,-22017
12:34:07.145087,-1
12:34:07.145087,-101
12:34:07.145087,-18433
12:34:07.145087,-1
12:34:07.145087,-80
12:34:07.145087,-22017
12:34:07.145087,-1
12:34:07.145087,-78
12:34:07.145087,-18945
12:34:07.145087,-1
12:34:07.145087,-78
12:34:07.145087,-18945
12:34:07.145087,-1
12:34:07.145087,-78
12:34:07.145087,-23297
12:34:07.145087,-1
12:34:07.145087,-97
12:34:07.145087,-18945
12:34:07.145087,-1
12:34:07.145087,-61
12:34:07.145087,-12289
12:34:07.145087,-1
12:34:07.145087,-23
12:34:07.145087,-1537
12:34:07.145087,-1
12:34:07.145087,-7
12:34:07.145087,-2561
12:34:07.145087,-1
12:34:07.145087,-30
12:34:07.145087,-11777
12:34:07.145087,-1
12:34:07.145087,-42
12:34:07.145087,-11009
12:34:07.145087,-1
12:34:07.145087,-97
12:34:07.685105,-144
12:34:07.685105,-1537
12:34:07.685105,-1
12:34:07.685105,355
12:34:07.685105,-20224
12:34:07.685105,2
12:34:07.685105,677
12:34:07.685105,-20736
12:34:07.685105,0
12:34:07.685105,-253
12:34:07.685105,-7425
12:34:07.685105,-1
12:34:07.685105,210
12:34:07.685105,8448
12:34:07.685105,0
12:34:07.685105,-56
12:34:07.685105,4351
12:34:07.685105,0
12:34:07.685105,-4
12:34:07.685105,-8193
12:34:07.685105,-1
12:34:07.685105,0
12:34:07.685105,2816
12:34:07.685105,0
12:34:07.685105,4
12:34:07.685105,4096
12:34:07.685105,0
12:34:07.685105,35
12:34:07.685105,12032
12:34:07.685105,0
12:34:07.685105,63
12:34:07.685105,20480
12:34:07.685105,0
12:34:07.685105,92
12:34:07.685105,29696
12:34:07.685105,0
12:34:07.685105,139
12:34:07.685105,-24320
12:34:07.685105,0
12:34:07.685105,194
12:34:07.685105,-6912
12:34:07.685105,0
12:34:07.685105,255
12:34:07.685105,8192
12:34:07.685105,1
12:34:07.685105,324
12:34:07.685105,24064
12:34:07.685105,1
12:34:07.685105,364
12:34:07.685105,28928
12:34:07.685105,1
12:34:07.685105,350
12:34:07.685105,10240
12:34:07.685105,1
12:34:07.685105,206
12:34:07.685105,26624
12:34:07.685105,0
12:34:07.685105,0
12:34:07.685105,-23552
12:34:07.685105,-1
12:34:07.685105,-153
12:34:07.685105,17919
12:34:07.685105,-1
12:34:07.685105,-210
12:34:07.685105,9471
12:34:07.685105,-1
12:34:07.685105,-215
12:34:07.685105,11263
12:34:07.685105,-1
12:34:07.685105,-210
12:34:07.685105,13823
12:34:07.685105,-1
12:34:07.685105,-189
12:34:07.685105,19967
12:34:07.685105,-1
12:34:07.685105,-172
12:34:07.685105,25855
12:34:07.685105,-1
12:34:07.685105,-127
12:34:07.685105,-24577
12:34:07.685105,-1
12:34:07.685105,-71
12:34:07.685105,-15873
12:34:07.685105,-1
12:34:07.685105,-66
12:34:07.685105,-15873
12:34:07.685105,-1
12:34:07.685105,-56
12:34:07.685105,-14081
12:34:07.685105,-1
12:34:07.685105,-56
12:34:07.685105,-14081
12:34:07.685105,-1
12:34:07.685105,-66
12:34:07.685105,-17921
12:34:07.685105,-1
12:34:07.685105,-75
12:34:07.685105,-20225
12:34:07.685105,-1
12:34:07.685105,-75
12:34:07.685105,-18945
12:34:07.685105,-1
12:34:07.685105,-82
12:34:07.685105,-21505
12:34:07.685105,-1
12:34:07.685105,-82
12:34:07.685105,-19713
12:34:07.685105,-1
12:34:07.685105,-82
12:34:08.255095,-85
12:34:08.255095,-20225
12:34:08.255095,-1
12:34:08.255095,-85
12:34:08.255095,-20737
12:34:08.255095,-1
12:34:08.255095,-73
12:34:08.255095,-17153
12:34:08.255095,-1
12:34:08.255095,-59
12:34:08.255095,-13057
12:34:08.255095,-1
12:34:08.255095,-52
12:34:08.255095,-14081
12:34:08.255095,-1
12:34:08.255095,-56
12:34:08.255095,-14081
12:34:08.255095,-1
12:34:08.255095,-66
12:34:08.255095,-20225
12:34:08.255095,-1
12:34:08.255095,-89
12:34:08.255095,-22017
12:34:08.255095,-1
12:34:08.255095,-73
12:34:08.255095,-14081
12:34:08.255095,-1
12:34:08.255095,-42
12:34:08.255095,-7425
12:34:08.255095,-1
12:34:08.255095,-16
12:34:08.255095,-2049
12:34:08.255095,-1
12:34:08.255095,-35
12:34:08.255095,-13569
12:34:08.255095,-1
12:34:08.255095,-49
12:34:08.255095,-13057
12:34:08.255095,-1
12:34:08.255095,-75
12:34:08.255095,-32257
12:34:08.255095,-1
12:34:08.255095,-142
12:34:08.255095,18943
12:34:08.255095,0
12:34:08.255095,487
12:34:08.255095,-8704
12:34:08.255095,2
12:34:08.255095,492
12:34:08.255095,28672
12:34:08.255095,-1
12:34:08.255095,-409
12:34:08.255095,-257
12:34:08.255095,-1
12:34:08.255095,168
12:34:08.255095,-20480
12:34:08.255095,-1
12:34:08.255095,-104
12:34:08.255095,-1537
12:34:08.255095,-1
12:34:08.255095,-52
12:34:08.255095,-18945
12:34:08.255095,-1
12:34:08.255095,-33
12:34:08.255095,-5633
12:34:08.255095,-1
12:34:08.255095,-30
12:34:08.255095,-3841
12:34:08.255095,-1
12:34:08.255095,2
12:34:08.255095,3584
12:34:08.255095,0
12:34:08.255095,23
12:34:08.255095,10752
12:34:08.255095,0
12:34:08.255095,71
12:34:08.255095,24832
12:34:08.255095,0
12:34:08.255095,116
12:34:08.255095,-28160
12:34:08.255095,0
12:34:08.255095,189
12:34:08.255095,-9216
12:34:08.255095,0
12:34:08.255095,246
12:34:08.255095,8192
12:34:08.255095,1
12:34:08.255095,331
12:34:08.255095,22784
12:34:08.255095,1
12:34:08.255095,350
12:34:08.255095,25344
12:34:08.255095,1
12:34:08.255095,317
12:34:08.255095,-5120
12:34:08.255095,0
12:34:08.255095,137
12:34:08.255095,7680
12:34:08.255095,0
12:34:08.255095,-68
12:34:08.255095,28415
12:34:08.255095,-1
12:34:08.255095,-203
12:34:08.255095,3583
12:34:08.255095,-1
12:34:08.255095,-267
12:34:08.255095,-1281
12:34:08.255095,-2
12:34:08.255095,-248
12:34:08.795243,-251
12:34:08.795243,2303
12:34:08.795243,-1
12:34:08.795243,-236
12:34:08.795243,7679
12:34:08.795243,-1
12:34:08.795243,-213
12:34:08.795243,13055
12:34:08.795243,-1
12:34:08.795243,-194
12:34:08.795243,22783
12:34:08.795243,-1
12:34:08.795243,-156
12:34:08.795243,26623
12:34:08.795243,-1
12:34:08.795243,-144
12:34:08.795243,31999
12:34:08.795243,-1
12:34:08.795243,-130
12:34:08.795243,32511
12:34:08.795243,-1
12:34:08.795243,-127
12:34:08.795243,-29953
12:34:08.795243,-1
12:34:08.795243,-116
12:34:08.795243,-28161
12:34:08.795243,-1
12:34:08.795243,-108
12:34:08.795243,-26881
12:34:08.795243,-1
12:34:08.795243,-104
12:34:08.795243,-25601
12:34:08.795243,-1
12:34:08.795243,-92
12:34:08.795243,-22017
12:34:08.795243,-1
12:34:08.795243,-89
12:34:08.795243,-21505
12:34:08.795243,-1
12:34:08.795243,-80
12:34:08.795243,-20225
12:34:08.795243,-1
12:34:08.795243,-78
12:34:08.795243,-18945
12:34:08.795243,-1
12:34:08.795243,-73
12:34:08.795243,-18433
12:34:08.795243,-1
12:34:08.795243,-78
12:34:08.795243,-22529
12:34:08.795243,-1
12:34:08.795243,-94
12:34:08.795243,-18945
12:34:08.795243,-1
12:34:08.795243,-59
12:34:08.795243,-13057
12:34:08.795243,-1
12:34:08.795243,-33
12:34:08.795243,-2049
12:34:08.795243,-1
12:34:08.795243,-4
12:34:08.795243,-3329
12:34:08.795243,-1
12:34:08.795243,-33
12:34:08.795243,-11009
12:34:08.795243,-1
12:34:08.795243,-44
12:34:08.795243,-11009
12:34:08.795243,-1
12:34:08.795243,-71
12:34:08.795243,29439
12:34:08.795243,-1
12:34:08.795243,-108
12:34:08.795243,-14593
12:34:08.795243,0
12:34:08.795243,603
12:34:08.795243,256
12:34:08.795243,3
12:34:08.795243,435
12:34:08.795243,22016
12:34:08.795243,-1
12:34:08.795243,-220
12:34:08.795243,-24065
12:34:08.795243,0
12:34:08.795243,127
12:34:08.795243,-20480
12:34:08.795243,-1
12:34:08.795243,-28
12:34:08.795243,2559
12:34:08.795243,0
12:34:08.795243,-47
12:34:08.795243,-8193
12:34:08.795243,-1
12:34:08.795243,4
12:34:08.795243,0
12:34:08.795243,0
12:34:08.795243,4
12:34:08.795243,5888
12:34:08.795243,0
12:34:08.795243,37
12:34:08.795243,12544
12:34:08.795243,0
12:34:08.795243,66
12:34:08.795243,22272
12:34:08.795243,0
12:34:08.795243,113
12:34:08.795243,-31232
12:34:08.795243,0
12:34:08.795243,165
12:34:09.425102,203
12:34:09.425102,-4352
12:34:09.425102,0
12:34:09.425102,279
12:34:09.425102,17920
12:34:09.425102,1
12:34:09.425102,376
12:34:09.425102,-26368
12:34:09.425102,1
12:34:09.425102,416
12:34:09.425102,-23808
12:34:09.425102,1
12:34:09.425102,402
12:34:09.425102,21760
12:34:09.425102,1
12:34:09.425102,236
12:34:09.425102,30208
12:34:09.425102,0
12:34:09.425102,11
12:34:09.425102,-20992
12:34:09.425102,-1
12:34:09.425102,-149
12:34:09.425102,17919
12:34:09.425102,-1
12:34:09.425102,-210
12:34:09.425102,9471
12:34:09.425102,-1
12:34:09.425102,-224
12:34:09.425102,8959
12:34:09.425102,-1
12:34:09.425102,-210
12:34:09.425102,15103
12:34:09.425102,-1
12:34:09.425102,-191
12:34:09.425102,18687
12:34:09.425102,-1
12:34:09.425102,-172
12:34:09.425102,24575
12:34:09.425102,-1
12:34:09.425102,-156
12:34:09.425102,28415
12:34:09.425102,-1
12:34:09.425102,-134
12:34:09.425102,-32257
12:34:09.425102,-1
12:34:09.425102,-120
12:34:09.425102,-29441
12:34:09.425102,-1
12:34:09.425102,-106
12:34:09.425102,-24577
12:34:09.425102,-1
12:34:09.425102,-101
12:34:09.425102,-25601
12:34:09.425102,-1
12:34:09.425102,-97
12:34:09.425102,-23809
12:34:09.425102,-1
12:34:09.425102,-92
12:34:09.425102,-21505
12:34:09.425102,-1
12:34:09.425102,-80
12:34:09.425102,-20737
12:34:09.425102,-1
12:34:09.425102,-85
12:34:09.425102,-19713
12:34:09.425102,-1
12:34:09.425102,-63
12:34:09.425102,-14081
12:34:09.425102,-1
12:34:09.425102,-59
12:34:09.425102,-15873
12:34:09.425102,-1
12:34:09.425102,-56
12:34:09.425102,-11777
12:34:09.425102,-1
12:34:09.425102,-47
12:34:09.425102,-9985
12:34:09.425102,-1
12:34:09.425102,-35
12:34:09.425102,-8705
12:34:09.425102,-1
12:34:09.425102,-28
12:34:09.425102,-6401
12:34:09.425102,-1
12:34:09.425102,-30
12:34:09.425102,-8193
12:34:09.425102,-1
12:34:09.425102,-35
12:34:09.425102,-12289
12:34:09.425102,-1
12:34:09.425102,-56
12:34:09.425102,-10497
12:34:09.425102,-1
12:34:09.425102,-23
12:34:09.425102,-2561
12:34:09.425102,-1
12:34:09.425102,9
12:34:09.425102,6656
12:34:09.425102,0
12:34:09.425102,28
12:34:09.425102,4096
12:34:09.425102,0
12:34:09.425102,0
12:34:09.425102,-1024
12:34:09.425102,-1
12:34:09.425102,-2
12:34:09.425102,-3329
12:34:09.425102,-1
12:34:09.425102,-61
12:34:09.965578,-120
12:34:09.965578,-2049
12:34:09.965578,-1
12:34:09.965578,341
12:34:09.965578,-15360
12:34:09.965578,2
12:34:09.965578,783
12:34:09.965578,19200
12:34:09.965578,1
12:34:09.965578,-184
12:34:09.965578,-11009
12:34:09.965578,-1
12:34:09.965578,222
12:34:09.965578,13312
12:34:09.965578,0
12:34:09.965578,-73
12:34:09.965578,2047
12:34:09.965578,0
12:34:09.965578,11
12:34:09.965578,-3584
12:34:09.965578,-1
12:34:09.965578,28
12:34:09.965578,10752
12:34:09.965578,0
12:34:09.965578,30
12:34:09.965578,12544
12:34:09.965578,0
12:34:09.965578,61
12:34:09.965578,16896
12:34:09.965578,0
12:34:09.965578,85
12:34:09.965578,27136
12:34:09.965578,0
12:34:09.965578,123
12:34:09.965578,-28672
12:34:09.965578,0
12:34:09.965578,170
12:34:09.965578,-14080
12:34:09.965578,0
12:34:09.965578,227
12:34:09.965578,1536
12:34:09.965578,1
12:34:09.965578,307
12:34:09.965578,22272
12:34:09.965578,1
12:34:09.965578,364
12:34:09.965578,-32256
12:34:09.965578,1
12:34:09.965578,404
12:34:09.965578,-26880
12:34:09.965578,1
12:34:09.965578,376
12:34:09.965578,13824
12:34:09.965578,1
12:34:09.965578,213
12:34:09.965578,27136
12:34:09.965578,0
12:34:09.965578,4
12:34:09.965578,-22784
12:34:09.965578,-1
12:34:09.965578,-156
12:34:09.965578,16895
12:34:09.965578,-1
12:34:09.965578,-215
12:34:09.965578,8447
12:34:09.965578,-1
12:34:09.965578,-222
12:34:09.965578,10239
12:34:09.965578,-1
12:34:09.965578,-215
12:34:09.965578,11263
12:34:09.965578,-1
12:34:09.965578,-198
12:34:09.965578,18687
12:34:09.965578,-1
12:34:09.965578,-179
12:34:09.965578,21759
12:34:09.965578,-1
12:34:09.965578,-161
12:34:09.965578,27135
12:34:09.965578,-1
12:34:09.965578,-146
12:34:09.965578,30719
12:34:09.965578,-1
12:34:09.965578,-130
12:34:09.965578,31487
12:34:09.965578,-1
12:34:09.965578,-132
12:34:09.965578,-31745
12:34:09.965578,-1
12:34:09.965578,-127
12:34:09.965578,32511
12:34:09.965578,-1
12:34:09.965578,-127
12:34:09.965578,-31233
12:34:09.965578,-1
12:34:09.965578,-116
12:34:09.965578,-30465
12:34:09.965578,-1
12:34:09.965578,-120
12:34:09.965578,-28673
12:34:09.965578,-1
12:34:09.965578,-111
12:34:09.965578,-28673
12:34:09.965578,-1
12:34:09.965578,-113
12:34:09.965578,-26369
12:34:09.965578,-1
12:34:09.965578,-97
12:34:10.505101,-101
12:34:10.505101,-24577
12:34:10.505101,-1
12:34:10.505101,-92
12:34:10.505101,-23809
12:34:10.505101,-1
12:34:10.505101,-89
12:34:10.505101,-22017
12:34:10.505101,-1
12:34:10.505101,-87
12:34:10.505101,-22529
12:34:10.505101,-1
12:34:10.505101,-94
12:34:10.505101,-25089
12:34:10.505101,-1
12:34:10.505101,-89
12:34:10.505101,-17921
12:34:10.505101,-1
12:34:10.505101,-54
12:34:10.505101,-9985
12:34:10.505101,-1
12:34:10.505101,-18
12:34:10.505101,255
12:34:10.505101,0
12:34:10.505101,14
12:34:10.505101,1024
12:34:10.505101,0
12:34:10.505101,-21
12:34:10.505101,-5633
12:34:10.505101,-1
12:34:10.505101,-18
12:34:10.505101,-7425
12:34:10.505101,-1
12:34:10.505101,-61
12:34:10.505101,-29441
12:34:10.505101,-1
12:34:10.505101,-63
12:34:10.505101,5631
12:34:10.505101,1
12:34:10.505101,689
12:34:10.505101,-1024
12:34:10.505101,2
12:34:10.505101,314
12:34:10.505101,-12032
12:34:10.505101,-2
12:34:10.505101,-269
12:34:10.505101,-19457
12:34:10.505101,0
12:34:10.505101,144
12:34:10.505101,-17408
12:34:10.505101,-1
12:34:10.505101,-2
12:34:10.505101,9727
12:34:10.505101,0
12:34:10.505101,-21
12:34:10.505101,-769
12:34:10.505101,-1
12:34:10.505101,28
12:34:10.505101,4608
12:34:10.505101,0
12:34:10.505101,28
12:34:10.505101,13312
12:34:10.505101,0
12:34:10.505101,59
12:34:10.505101,18176
12:34:10.505101,0
12:34:10.505101,92
12:34:10.505101,28928
12:34:10.505101,0
12:34:10.505101,137
12:34:10.505101,-25088
12:34:10.505101,0
12:34:10.505101,187
12:34:10.505101,-8192
12:34:10.505101,0
12:34:10.505101,265
12:34:10.505101,12032
12:34:10.505101,1
12:34:10.505101,338
12:34:10.505101,29440
12:34:10.505101,1
12:34:10.505101,400
12:34:10.505101,-23808
12:34:10.505101,1
12:34:10.505101,421
12:34:10.505101,-30464
12:34:10.505101,1
12:34:10.505101,331
12:34:10.505101,-5632
12:34:10.505101,0
12:34:10.505101,118
12:34:10.505101,3584
12:34:10.505101,0
12:34:10.505101,-80
12:34:10.505101,25855
12:34:10.505101,-1
12:34:10.505101,-196
12:34:10.505101,10239
12:34:10.505101,-1
12:34:10.505101,-227
12:34:10.505101,8447
12:34:10.505101,-1
12:34:10.505101,-217
12:34:10.505101,12031
12:34:10.505101,-1
12:34:10.505101,-206
12:34:10.505101,15103
12:34:10.505101,-1
12:34:10.505101,-194
12:34:11.045103,-187
12:34:11.045103,21759
12:34:11.045103,-1
12:34:11.045103,-165
12:34:11.045103,24575
12:34:11.045103,-1
12:34:11.045103,-149
12:34:11.045103,29439
12:34:11.045103,-1
12:34:11.045103,-139
12:34:11.045103,-32257
12:34:11.045103,-1
12:34:11.045103,-108
12:34:11.045103,-25089
12:34:11.045103,-1
12:34:11.045103,-101
12:34:11.045103,-25601
12:34:11.045103,-1
12:34:11.045103,-94
12:34:11.045103,-24577
12:34:11.045103,-1
12:34:11.045103,-94
12:34:11.045103,-22529
12:34:11.045103,-1
12:34:11.045103,-89
12:34:11.045103,-20737
12:34:11.045103,-1
12:34:11.045103,-80
12:34:11.045103,-20737
12:34:11.045103,-1
12:34:11.045103,-80
12:34:11.045103,-18433
12:34:11.045103,-1
12:34:11.045103,-66
12:34:11.045103,-15873
12:34:11.045103,-1
12:34:11.045103,-63
12:34:11.045103,-15361
12:34:11.045103,-1
12:34:11.045103,-54
12:34:11.045103,-11777
12:34:11.045103,-1
12:34:11.045103,-52
12:34:11.045103,-13569
12:34:11.045103,-1
12:34:11.045103,-47
12:34:11.045103,-11777
12:34:11.045103,-1
12:34:11.045103,-49
12:34:11.045103,-11009
12:34:11.045103,-1
12:34:11.045103,-42
12:34:11.045103,-10497
12:34:11.045103,-1
12:34:11.045103,-47
12:34:11.045103,-13569
12:34:11.045103,-1
12:34:11.045103,-61
12:34:11.045103,-15873
12:34:11.045103,-1
12:34:11.045103,-52
12:34:11.045103,-8705
12:34:11.045103,-1
12:34:11.045103,-18
12:34:11.045103,767
12:34:11.045103,0
12:34:11.045103,11
12:34:11.045103,4096
12:34:11.045103,0
12:34:11.045103,7
12:34:11.045103,-3584
12:34:11.045103,-1
12:34:11.045103,-18
12:34:11.045103,-2561
12:34:11.045103,-1
12:34:11.045103,-28
12:34:11.045103,-22017
12:34:11.045103,-1
12:34:11.045103,-127
12:34:11.045103,9727
12:34:11.045103,0
12:34:11.045103,421
12:34:11.045103,2048
12:34:11.045103,3
12:34:11.045103,786
12:34:11.045103,2304
12:34:11.045103,1
12:34:11.045103,-165
12:34:11.045103,15359
12:34:11.045103,0
12:34:11.045103,232
12:34:11.045103,4096
12:34:11.045103,0
12:34:11.045103,-52
12:34:11.045103,5631
12:34:11.045103,0
12:34:11.045103,-9
12:34:11.045103,-7425
12:34:11.045103,-1
12:34:11.045103,9
12:34:11.045103,4608
12:34:11.045103,0
12:34:11.045103,9
12:34:11.045103,6656
12:34:11.045103,0
12:34:11.045103,40
12:34:11.045103,13312
12:34:11.045103,0
12:34:11.045103,71
12:34:11.615094,87
12:34:11.615094,27136
12:34:11.615094,0
12:34:11.615094,134
12:34:11.615094,-24320
12:34:11.615094,0
12:34:11.615094,198
12:34:11.615094,-2048
12:34:11.615094,0
12:34:11.615094,293
12:34:11.615094,17920
12:34:11.615094,1
12:34:11.615094,362
12:34:11.615094,-29440
12:34:11.615094,1
12:34:11.615094,419
12:34:11.615094,-20224
12:34:11.615094,1
12:34:11.615094,431
12:34:11.615094,-31232
12:34:11.615094,1
12:34:11.615094,312
12:34:11.615094,-12800
12:34:11.615094,0
12:34:11.615094,92
12:34:11.615094,-2816
12:34:11.615094,-1
12:34:11.615094,-99
12:34:11.615094,25343
12:34:11.615094,-1
12:34:11.615094,-194
12:34:11.615094,11263
12:34:11.615094,-1
12:34:11.615094,-217
12:34:11.615094,9471
12:34:11.615094,-1
12:34:11.615094,-217
12:34:11.615094,12031
12:34:11.615094,-1
12:34:11.615094,-208
12:34:11.615094,15615
12:34:11.615094,-1
12:34:11.615094,-184
12:34:11.615094,21759
12:34:11.615094,-1
12:34:11.615094,-168
12:34:11.615094,22783
12:34:11.615094,-1
12:34:11.615094,-153
12:34:11.615094,30719
12:34:11.615094,-1
12:34:11.615094,-132
12:34:11.615094,-31745
12:34:11.615094,-1
12:34:11.615094,-118
12:34:11.615094,-28673
12:34:11.615094,-1
12:34:11.615094,-111
12:34:11.615094,-28673
12:34:11.615094,-1
12:34:11.615094,-108
12:34:11.615094,-26881
12:34:11.615094,-1
12:34:11.615094,-108
12:34:11.615094,-26369
12:34:11.615094,-1
12:34:11.615094,-99
12:34:11.615094,-24577
12:34:11.615094,-1
12:34:11.615094,-99
12:34:11.615094,-24577
12:34:11.615094,-1
12:34:11.615094,-92
12:34:11.615094,-22017
12:34:11.615094,-1
12:34:11.615094,-82
12:34:11.615094,-20225
12:34:11.615094,-1
12:34:11.615094,-82
12:34:11.615094,-19713
12:34:11.615094,-1
12:34:11.615094,-75
12:34:11.615094,-18945
12:34:11.615094,-1
12:34:11.615094,-71
12:34:11.615094,-17921
12:34:11.615094,-1
12:34:11.615094,-68
12:34:11.615094,-15873
12:34:11.615094,-1
12:34:11.615094,-63
12:34:11.615094,-15873
12:34:11.615094,-1
12:34:11.615094,-63
12:34:11.615094,-15873
12:34:11.615094,-1
12:34:11.615094,-61
12:34:11.615094,-14849
12:34:11.615094,-1
12:34:11.615094,-52
12:34:11.615094,-13057
12:34:11.615094,-1
12:34:11.615094,-52
12:34:11.615094,-12289
12:34:11.615094,-1
12:34:11.615094,-49
12:34:11.615094,-13057
12:34:11.615094,-1
12:34:11.615094,-54
12:34:12.155247,-59
12:34:12.155247,-16641
12:34:12.155247,-1
12:34:12.155247,-71
12:34:12.155247,-17153
12:34:12.155247,-1
12:34:12.155247,-56
12:34:12.155247,-9217
12:34:12.155247,-1
12:34:12.155247,-2
12:34:12.155247,6143
12:34:12.155247,0
12:34:12.155247,30
12:34:12.155247,7680
12:34:12.155247,0
12:34:12.155247,16
12:34:12.155247,1792
12:34:12.155247,0
12:34:12.155247,11
12:34:12.155247,1024
12:34:12.155247,0
12:34:12.155247,-37
12:34:12.155247,-27393
12:34:12.155247,-1
12:34:12.155247,-47
12:34:12.155247,1279
12:34:12.155247,1
12:34:12.155247,655
12:34:12.155247,25856
12:34:12.155247,3
12:34:12.155247,561
12:34:12.155247,-512
12:34:12.155247,-1
12:34:12.155247,-26
12:34:12.155247,-10241
12:34:12.155247,0
12:34:12.155247,82
12:34:12.155247,-18688
12:34:12.155247,-1
12:34:12.155247,-14
12:34:12.155247,-257
12:34:12.155247,-1
12:34:12.155247,-42
12:34:12.155247,-3841
12:34:12.155247,-1
12:34:12.155247,2
12:34:12.155247,-1792
12:34:12.155247,-1
12:34:12.155247,7
12:34:12.155247,6656
12:34:12.155247,0
12:34:12.155247,35
12:34:12.155247,13312
12:34:12.155247,0
12:34:12.155247,66
12:34:12.155247,20992
12:34:12.155247,0
12:34:12.155247,106
12:34:12.155247,-31744
12:34:12.155247,0
12:34:12.155247,165
12:34:12.155247,-14848
12:34:12.155247,0
12:34:12.155247,234
12:34:12.155247,4608
12:34:12.155247,1
12:34:12.155247,312
12:34:12.155247,24576
12:34:12.155247,1
12:34:12.155247,378
12:34:12.155247,-31232
12:34:12.155247,1
12:34:12.155247,402
12:34:12.155247,-30464
12:34:12.155247,1
12:34:12.155247,329
12:34:12.155247,-5632
12:34:12.155247,0
12:34:12.155247,123
12:34:12.155247,2816
12:34:12.155247,0
12:34:12.155247,-92
12:34:12.155247,23551
12:34:12.155247,-1
12:34:12.155247,-201
12:34:12.155247,8447
12:34:12.155247,-1
12:34:12.155247,-239
12:34:12.155247,2815
12:34:12.155247,-1
12:34:12.155247,-243
12:34:12.155247,6399
12:34:12.155247,-1
12:34:12.155247,-224
12:34:12.155247,10751
12:34:12.155247,-1
12:34:12.155247,-206
12:34:12.155247,15103
12:34:12.155247,-1
12:34:12.155247,-187
12:34:12.155247,20479
12:34:12.155247,-1
12:34:12.155247,-172
12:34:12.155247,25343
12:34:12.155247,-1
12:34:12.155247,-146
12:34:12.155247,29439
12:34:12.155247,-1
12:34:12.155247,-132
12:34:12.754916,-123
12:34:12.754916,-29441
12:34:12.754916,-1
12:34:12.754916,-113
12:34:12.754916,-23297
12:34:12.754916,-1
12:34:12.754916,-75
12:34:12.754916,-19713
12:34:12.754916,-1
12:34:12.754916,-80
12:34:12.754916,-19713
12:34:12.754916,-1
12:34:12.754916,-78
12:34:12.754916,-19713
12:34:12.754916,-1
12:34:12.754916,-80
12:34:12.754916,-20225
12:34:12.754916,-1
12:34:12.754916,-75
12:34:12.754916,-18945
12:34:12.754916,-1
12:34:12.754916,-73
12:34:12.754916,-17921
12:34:12.754916,-1
12:34:12.754916,-68
12:34:12.754916,-15873
12:34:12.754916,-1
12:34:12.754916,-66
12:34:12.754916,-15361
12:34:12.754916,-1
12:34:12.754916,-61
12:34:12.754916,-15361
12:34:12.754916,-1
12:34:12.754916,-54
12:34:12.754916,-13569
12:34:12.754916,-1
12:34:12.754916,-52
12:34:12.754916,-12289
12:34:12.754916,-1
12:34:12.754916,-49
12:34:12.754916,-11777
12:34:12.754916,-1
12:34:12.754916,-47
12:34:12.754916,-11777
12:34:12.754916,-1
12:34:12.754916,-42
12:34:12.754916,-10497
12:34:12.754916,-1
12:34:12.754916,-42
12:34:12.754916,-9217
12:34:12.754916,-1
12:34:12.754916,-33
12:34:12.754916,-8705
12:34:12.754916,-1
12:34:12.754916,-40
12:34:12.754916,-8705
12:34:12.754916,-1
12:34:12.754916,-30
12:34:12.754916,-6913
12:34:12.754916,-1
12:34:12.754916,-28
12:34:12.754916,-8193
12:34:12.754916,-1
12:34:12.754916,-35
12:34:12.754916,-9985
12:34:12.754916,-1
12:34:12.754916,-54
12:34:12.754916,-13057
12:34:12.754916,-1
12:34:12.754916,-37
12:34:12.754916,-6913
12:34:12.754916,-1
12:34:12.754916,-16
12:34:12.754916,255
12:34:12.754916,0
12:34:12.754916,21
12:34:12.754916,8960
12:34:12.754916,0
12:34:12.754916,21
12:34:12.754916,0
12:34:12.754916,0
12:34:12.754916,-7
12:34:12.754916,-769
12:34:12.754916,-1
12:34:12.754916,-18
12:34:12.754916,-18433
12:34:12.754916,-1
12:34:12.754916,-118
12:34:12.754916,4351
12:34:12.754916,0
12:34:12.754916,374
12:34:12.754916,-6400
12:34:12.754916,2
12:34:12.754916,781
12:34:12.754916,8960
12:34:12.754916,1
12:34:12.754916,-116
12:34:12.754916,19455
12:34:12.754916,0
12:34:12.754916,203
12:34:12.754916,-1024
12:34:12.754916,-1
12:34:12.754916,-54
12:34:12.754916,3839
12:34:12.754916,0
12:34:12.754916,-18
12:34:12.754916,-8705
12:34:12.754916,-1
12:34:12.754916,0
12:34:13.325252,4
12:34:13.325252,1792
12:34:13.325252,0
12:34:13.325252,23
12:34:13.325252,7680
12:34:13.325252,0
12:34:13.325252,37
12:34:13.325252,15104
12:34:13.325252,0
12:34:13.325252,82
12:34:13.325252,24064
12:34:13.325252,0
12:34:13.325252,127
12:34:13.325252,-21504
12:34:13.325252,0
12:34:13.325252,198
12:34:13.325252,-8704
12:34:13.325252,0
12:34:13.325252,267
12:34:13.325252,12544
12:34:13.325252,1
12:34:13.325252,333
12:34:13.325252,27136
12:34:13.325252,1
12:34:13.325252,395
12:34:13.325252,-26368
12:34:13.325252,1
12:34:13.325252,404
12:34:13.325252,-31744
12:34:13.325252,1
12:34:13.325252,329
12:34:13.325252,-8192
12:34:13.325252,0
12:34:13.325252,116
12:34:13.325252,2816
12:34:13.325252,0
12:34:13.325252,-75
12:34:13.325252,29439
12:34:13.325252,-1
12:34:13.325252,-184
12:34:13.325252,13055
12:34:13.325252,-1
12:34:13.325252,-215
12:34:13.325252,10751
12:34:13.325252,-1
12:34:13.325252,-215
12:34:13.325252,12031
12:34:13.325252,-1
12:34:13.325252,-196
12:34:13.325252,18687
12:34:13.325252,-1
12:34:13.325252,-182
12:34:13.325252,21759
12:34:13.325252,-1
12:34:13.325252,-163
12:34:13.325252,25343
12:34:13.325252,-1
12:34:13.325252,-153
12:34:13.325252,29439
12:34:13.325252,-1
12:34:13.325252,-125
12:34:13.325252,-29953
12:34:13.325252,-1
12:34:13.325252,-116
12:34:13.325252,-26881
12:34:13.325252,-1
12:34:13.325252,-101
12:34:13.325252,-25601
12:34:13.325252,-1
12:34:13.325252,-94
12:34:13.325252,-22017
12:34:13.325252,-1
12:34:13.325252,-89
12:34:13.325252,-23809
12:34:13.325252,-1
12:34:13.325252,-82
12:34:13.325252,-19713
12:34:13.325252,-1
12:34:13.325252,-89
12:34:13.325252,-22017
12:34:13.325252,-1
12:34:13.325252,-73
12:34:13.325252,-18433
12:34:13.325252,-1
12:34:13.325252,-75
12:34:13.325252,-15873
12:34:13.325252,-1
12:34:13.325252,-59
12:34:13.325252,-15361
12:34:13.325252,-1
12:34:13.325252,-52
12:34:13.325252,-9217
12:34:13.325252,-1
12:34:13.325252,-37
12:34:13.325252,-9985
12:34:13.325252,-1
12:34:13.325252,-40
12:34:13.325252,-9217
12:34:13.325252,-1
12:34:13.325252,-33
12:34:13.325252,-8705
12:34:13.325252,-1
12:34:13.325252,-33
12:34:13.325252,-7425
12:34:13.325252,-1
12:34:13.325252,-33
12:34:13.325252,-8193
12:34:13.325252,-1
12:34:13.325252,-33
12:34:13.865243,-28
12:34:13.865243,-6401
12:34:13.865243,-1
12:34:13.865243,-28
12:34:13.865243,-6913
12:34:13.865243,-1
12:34:13.865243,-26
12:34:13.865243,-8193
12:34:13.865243,-1
12:34:13.865243,-37
12:34:13.865243,-10497
12:34:13.865243,-1
12:34:13.865243,-44
12:34:13.865243,-9985
12:34:13.865243,-1
12:34:13.865243,-18
12:34:13.865243,255
12:34:13.865243,0
12:34:13.865243,9
12:34:13.865243,8960
12:34:13.865243,0
12:34:13.865243,54
12:34:13.865243,13312
12:34:13.865243,0
12:34:13.865243,40
12:34:13.865243,5376
12:34:13.865243,0
12:34:13.865243,14
12:34:13.865243,4608
12:34:13.865243,0
12:34:13.865243,11
12:34:13.865243,-8960
12:34:13.865243,-1
12:34:13.865243,-89
12:34:13.865243,9215
12:34:13.865243,0
12:34:13.865243,397
12:34:13.865243,-6912
12:34:13.865243,2
12:34:13.865243,753
12:34:13.865243,4096
12:34:13.865243,1
12:34:13.865243,-142
12:34:13.865243,17151
12:34:13.865243,0
12:34:13.865243,251
12:34:13.865243,10240
12:34:13.865243,0
12:34:13.865243,-40
12:34:13.865243,7935
12:34:13.865243,0
12:34:13.865243,9
12:34:13.865243,-3584
12:34:13.865243,-1
12:34:13.865243,18
12:34:13.865243,7680
12:34:13.865243,0
12:34:13.865243,26
12:34:13.865243,8448
12:34:13.865243,0
12:34:13.865243,47
12:34:13.865243,16128
12:34:13.865243,0
12:34:13.865243,80
12:34:13.865243,22784
12:34:13.865243,0
12:34:13.865243,106
12:34:13.865243,-31232
12:34:13.865243,0
12:34:13.865243,165
12:34:13.865243,-17152
12:34:13.865243,0
12:34:13.865243,215
12:34:13.865243,512
12:34:13.865243,1
12:34:13.865243,303
12:34:13.865243,18688
12:34:13.865243,1
12:34:13.865243,359
12:34:13.865243,-29440
12:34:13.865243,1
12:34:13.865243,412
12:34:13.865243,-25088
12:34:13.865243,1
12:34:13.865243,395
12:34:13.865243,19200
12:34:13.865243,1
12:34:13.865243,229
12:34:13.865243,30208
12:34:13.865243,0
12:34:13.865243,16
12:34:13.865243,-18176
12:34:13.865243,-1
12:34:13.865243,-139
12:34:13.865243,20991
12:34:13.865243,-1
12:34:13.865243,-196
12:34:13.865243,12543
12:34:13.865243,-1
12:34:13.865243,-206
12:34:13.865243,13823
12:34:13.865243,-1
12:34:13.865243,-194
12:34:13.865243,18687
12:34:13.865243,-1
12:34:13.865243,-179
12:34:13.865243,22271
12:34:13.865243,-1
12:34:13.865243,-165
12:34:14.435256,-153
12:34:14.435256,30719
12:34:14.435256,-1
12:34:14.435256,-134
12:34:14.435256,-32257
12:34:14.435256,-1
12:34:14.435256,-118
12:34:14.435256,-27393
12:34:14.435256,-1
12:34:14.435256,-94
12:34:14.435256,-20225
12:34:14.435256,-1
12:34:14.435256,-68
12:34:14.435256,-17153
12:34:14.435256,-1
12:34:14.435256,-68
12:34:14.435256,-14081
12:34:14.435256,-1
12:34:14.435256,-56
12:34:14.435256,-15361
12:34:14.435256,-1
12:34:14.435256,-54
12:34:14.435256,-13057
12:34:14.435256,-1
12:34:14.435256,-54
12:34:14.435256,-13057
12:34:14.435256,-1
12:34:14.435256,-56
12:34:14.435256,-13569
12:34:14.435256,-1
12:34:14.435256,-52
12:34:14.435256,-13057
12:34:14.435256,-1
12:34:14.435256,-52
12:34:14.435256,-13057
12:34:14.435256,-1
12:34:14.435256,-52
12:34:14.435256,-13569
12:34:14.435256,-1
12:34:14.435256,-52
12:34:14.435256,-11777
12:34:14.435256,-1
12:34:14.435256,-52
12:34:14.435256,-13569
12:34:14.435256,-1
12:34:14.435256,-52
12:34:14.435256,-12289
12:34:14.435256,-1
12:34:14.435256,-49
12:34:14.435256,-14081
12:34:14.435256,-1
12:34:14.435256,-52
12:34:14.435256,-11777
12:34:14.435256,-1
12:34:14.435256,-52
12:34:14.435256,-13057
12:34:14.435256,-1
12:34:14.435256,-47
12:34:14.435256,-11777
12:34:14.435256,-1
12:34:14.435256,-47
12:34:14.435256,-13057
12:34:14.435256,-1
12:34:14.435256,-52
12:34:14.435256,-12289
12:34:14.435256,-1
12:34:14.435256,-52
12:34:14.435256,-14849
12:34:14.435256,-1
12:34:14.435256,-68
12:34:14.435256,-18433
12:34:14.435256,-1
12:34:14.435256,-66
12:34:14.435256,-14849
12:34:14.435256,-1
12:34:14.435256,-40
12:34:14.435256,-3841
12:34:14.435256,-1
12:34:14.435256,2
12:34:14.435256,2304
12:34:14.435256,0
12:34:14.435256,-4
12:34:14.435256,-6401
12:34:14.435256,-1
12:34:14.435256,-33
12:34:14.435256,-6913
12:34:14.435256,-1
12:34:14.435256,-30
12:34:14.435256,-18433
12:34:14.435256,-1
12:34:14.435256,-134
12:34:14.435256,-22017
12:34:14.435256,-1
12:34:14.435256,206
12:34:14.435256,23296
12:34:14.435256,2
12:34:14.435256,748
12:34:14.435256,-32256
12:34:14.435256,1
12:34:14.435256,-220
12:34:14.435256,511
12:34:14.435256,-1
12:34:14.435256,153
12:34:14.435256,-32256
12:34:14.435256,0
12:34:14.435256,-92
12:34:14.435256,-11009
12:34:14.435256,-1
12:34:14.435256,-4
12:34:14.975727,-56
12:34:14.975727,-10497
12:34:14.975727,-1
12:34:14.975727,-14
12:34:14.975727,-3841
12:34:14.975727,-1
12:34:14.975727,-9
12:34:14.975727,2047
12:34:14.975727,0
12:34:14.975727,14
12:34:14.975727,8448
12:34:14.975727,0
12:34:14.975727,68
12:34:14.975727,24064
12:34:14.975727,0
12:34:14.975727,108
12:34:14.975727,-31232
12:34:14.975727,0
12:34:14.975727,163
12:34:14.975727,-15872
12:34:14.975727,0
12:34:14.975727,232
12:34:14.975727,3328
12:34:14.975727,1
12:34:14.975727,310
12:34:14.975727,24064
12:34:14.975727,1
12:34:14.975727,376
12:34:14.975727,-29440
12:34:14.975727,1
12:34:14.975727,402
12:34:14.975727,-31232
12:34:14.975727,1
12:34:14.975727,350
12:34:14.975727,3328
12:34:14.975727,1
12:34:14.975727,161
12:34:14.975727,11264
12:34:14.975727,0
12:34:14.975727,-54
12:34:14.975727,32511
12:34:14.975727,-1
12:34:14.975727,-184
12:34:14.975727,12031
12:34:14.975727,-1
12:34:14.975727,-229
12:34:14.975727,4095
12:34:14.975727,-1
12:34:14.975727,-236
12:34:14.975727,6399
12:34:14.975727,-1
12:34:14.975727,-224
12:34:14.975727,12543
12:34:14.975727,-1
12:34:14.975727,-194
12:34:14.975727,19199
12:34:14.975727,-1
12:34:14.975727,-172
12:34:14.975727,24063
12:34:14.975727,-1
12:34:14.975727,-153
12:34:14.975727,28927
12:34:14.975727,-1
12:34:14.975727,-130
12:34:14.975727,-32257
12:34:14.975727,-1
12:34:14.975727,-125
12:34:14.975727,-28673
12:34:14.975727,-1
12:34:14.975727,-111
12:34:14.975727,-28673
12:34:14.975727,-1
12:34:14.975727,-108
12:34:14.975727,-25601
12:34:14.975727,-1
12:34:14.975727,-97
12:34:14.975727,-25089
12:34:14.975727,-1
12:34:14.975727,-99
12:34:14.975727,-23297
12:34:14.975727,-1
12:34:14.975727,-92
12:34:14.975727,-22529
12:34:14.975727,-1
12:34:14.975727,-85
12:34:14.975727,-21505
12:34:14.975727,-1
12:34:14.975727,-80
12:34:14.975727,-18945
12:34:14.975727,-1
12:34:14.975727,-73
12:34:14.975727,-17921
12:34:14.975727,-1
12:34:14.975727,-68
12:34:14.975727,-16641
12:34:14.975727,-1
12:34:14.975727,-63
12:34:14.975727,-14849
12:34:14.975727,-1
12:34:14.975727,-56
12:34:14.975727,-15361
12:34:14.975727,-1
12:34:14.975727,-59
12:34:14.975727,-14081
12:34:14.975727,-1
12:34:14.975727,-54
12:34:14.975727,-12289
12:34:14.975727,-1
12:34:14.975727,-59
12:34:15.545244,-68
12:34:15.545244,-17921
12:34:15.545244,-1
12:34:15.545244,-71
12:34:15.545244,-16641
12:34:15.545244,-1
12:34:15.545244,-49
12:34:15.545244,-5121
12:34:15.545244,-1
12:34:15.545244,14
12:34:15.545244,7168
12:34:15.545244,0
12:34:15.545244,28
12:34:15.545244,6656
12:34:15.545244,0
12:34:15.545244,11
12:34:15.545244,0
12:34:15.545244,0
12:34:15.545244,-9
12:34:15.545244,-3329
12:34:15.545244,-1
12:34:15.545244,-47
12:34:15.545244,-29953
12:34:15.545244,-1
12:34:15.545244,-68
12:34:15.545244,-6657
12:34:15.545244,0
12:34:15.545244,629
12:34:15.545244,16640
12:34:15.545244,3
12:34:15.545244,520
12:34:15.545244,-15104
12:34:15.545244,-1
12:34:15.545244,-92
12:34:15.545244,-11521
12:34:15.545244,0
12:34:15.545244,111
12:34:15.545244,-18688
12:34:15.545244,-1
12:34:15.545244,-16
12:34:15.545244,2559
12:34:15.545244,0
12:34:15.545244,-35
12:34:15.545244,-3329
12:34:15.545244,-1
12:34:15.545244,4
12:34:15.545244,0
12:34:15.545244,0
12:34:15.545244,18
12:34:15.545244,9472
12:34:15.545244,0
12:34:15.545244,42
12:34:15.545244,14336
12:34:15.545244,0
12:34:15.545244,82
12:34:15.545244,25856
12:34:15.545244,0
12:34:15.545244,116
12:34:15.545244,-28672
12:34:15.545244,0
12:34:15.545244,182
12:34:15.545244,-10496
12:34:15.545244,0
12:34:15.545244,255
12:34:15.545244,10240
12:34:15.545244,1
12:34:15.545244,338
12:34:15.545244,32000
12:34:15.545244,1
12:34:15.545244,414
12:34:15.545244,-18944
12:34:15.545244,1
12:34:15.545244,445
12:34:15.545244,-23808
12:34:15.545244,1
12:34:15.545244,350
12:34:15.545244,-2048
12:34:15.545244,0
12:34:15.545244,134
12:34:15.545244,4608
12:34:15.545244,0
12:34:15.545244,-89
12:34:15.545244,24575
12:34:15.545244,-1
12:34:15.545244,-206
12:34:15.545244,7167
12:34:15.545244,-1
12:34:15.545244,-234
12:34:15.545244,5375
12:34:15.545244,-1
12:34:15.545244,-239
12:34:15.545244,5887
12:34:15.545244,-1
12:34:15.545244,-224
12:34:15.545244,10751
12:34:15.545244,-1
12:34:15.545244,-203
12:34:15.545244,17919
12:34:15.545244,-1
12:34:15.545244,-177
12:34:15.545244,20991
12:34:15.545244,-1
12:34:15.545244,-158
12:34:15.545244,28927
12:34:15.545244,-1
12:34:15.545244,-137
12:34:15.545244,-32257
12:34:15.545244,-1
12:34:15.545244,-118
12:34:16.115203,-111
12:34:16.115203,-27393
12:34:16.115203,-1
12:34:16.115203,-106
12:34:16.115203,-24577
12:34:16.115203,-1
12:34:16.115203,-97
12:34:16.115203,-24577
12:34:16.115203,-1
12:34:16.115203,-87
12:34:16.115203,-18433
12:34:16.115203,-1
12:34:16.115203,-61
12:34:16.115203,-15361
12:34:16.115203,-1
12:34:16.115203,-66
12:34:16.115203,-15873
12:34:16.115203,-1
12:34:16.115203,-63
12:34:16.115203,-14849
12:34:16.115203,-1
12:34:16.115203,-54
12:34:16.115203,-13569
12:34:16.115203,-1
12:34:16.115203,-52
12:34:16.115203,-13569
12:34:16.115203,-1
12:34:16.115203,-52
12:34:16.115203,-11009
12:34:16.115203,-1
12:34:16.115203,-47
12:34:16.115203,-11777
12:34:16.115203,-1
12:34:16.115203,-42
12:34:16.115203,-9985
12:34:16.115203,-1
12:34:16.115203,-37
12:34:16.115203,-8705
12:34:16.115203,-1
12:34:16.115203,-26
12:34:16.115203,-5633
12:34:16.115203,-1
12:34:16.115203,-35
12:34:16.115203,-8193
12:34:16.115203,-1
12:34:16.115203,-28
12:34:16.115203,-9217
12:34:16.115203,-1
12:34:16.115203,-42
12:34:16.115203,-11009
12:34:16.115203,-1
12:34:16.115203,-52
12:34:16.115203,-13569
12:34:16.115203,-1
12:34:16.115203,-44
12:34:16.115203,-8705
12:34:16.115203,-1
12:34:16.115203,-21
12:34:16.115203,1279
12:34:16.115203,0
12:34:16.115203,21
12:34:16.115203,5376
12:34:16.115203,0
12:34:16.115203,9
12:34:16.115203,-1792
12:34:16.115203,-1
12:34:16.115203,-11
12:34:16.115203,-769
12:34:16.115203,-1
12:34:16.115203,-18
12:34:16.115203,-20737
12:34:16.115203,-1
12:34:16.115203,-137
12:34:16.115203,767
12:34:16.115203,0
12:34:16.115203,369
12:34:16.115203,-9472
12:34:16.115203,2
12:34:16.115203,786
12:34:16.115203,16128
12:34:16.115203,1
12:34:16.115203,-113
12:34:16.115203,14591
12:34:16.115203,0
12:34:16.115203,210
12:34:16.115203,512
12:34:16.115203,0
12:34:16.115203,-71
12:34:16.115203,767
12:34:16.115203,0
12:34:16.115203,-14
12:34:16.115203,-11009
12:34:16.115203,-1
12:34:16.115203,-18
12:34:16.115203,-257
12:34:16.115203,-1
12:34:16.115203,0
12:34:16.115203,4096
12:34:16.115203,0
12:34:16.115203,28
12:34:16.115203,8960
12:34:16.115203,0
12:34:16.115203,56
12:34:16.115203,19968
12:34:16.115203,0
12:34:16.115203,101
12:34:16.115203,30720
12:34:16.115203,0
12:34:16.115203,139
12:34:16.715245,179
12:34:16.715245,-8192
12:34:16.715245,0
12:34:16.715245,262
12:34:16.715245,14336
12:34:16.715245,1
12:34:16.715245,352
12:34:16.715245,-32256
12:34:16.715245,1
12:34:16.715245,419
12:34:16.715245,-16128
12:34:16.715245,1
12:34:16.715245,464
12:34:16.715245,-20736
12:34:16.715245,1
12:34:16.715245,350
12:34:16.715245,-4352
12:34:16.715245,0
12:34:16.715245,118
12:34:16.715245,2816
12:34:16.715245,0
12:34:16.715245,-78
12:34:16.715245,28415
12:34:16.715245,-1
12:34:16.715245,-179
12:34:16.715245,16895
12:34:16.715245,-1
12:34:16.715245,-196
12:34:16.715245,14335
12:34:16.715245,-1
12:34:16.715245,-203
12:34:16.715245,16895
12:34:16.715245,-1
12:34:16.715245,-184
12:34:16.715245,18687
12:34:16.715245,-1
12:34:16.715245,-168
12:34:16.715245,25343
12:34:16.715245,-1
12:34:16.715245,-149
12:34:16.715245,31487
12:34:16.715245,-1
12:34:16.715245,-127
12:34:16.715245,-29441
12:34:16.715245,-1
12:34:16.715245,-104
12:34:16.715245,-24577
12:34:16.715245,-1
12:34:16.715245,-87
12:34:16.715245,-20225
12:34:16.715245,-1
12:34:16.715245,-75
12:34:16.715245,-19713
12:34:16.715245,-1
12:34:16.715245,-73
12:34:16.715245,-15361
12:34:16.715245,-1
12:34:16.715245,-63
12:34:16.715245,-17153
12:34:16.715245,-1
12:34:16.715245,-63
12:34:16.715245,-15361
12:34:16.715245,-1
12:34:16.715245,-63
12:34:16.715245,-15873
12:34:16.715245,-1
12:34:16.715245,-59
12:34:16.715245,-15361
12:34:16.715245,-1
12:34:16.715245,-61
12:34:16.715245,-13057
12:34:16.715245,-1
12:34:16.715245,-49
12:34:16.715245,-14081
12:34:16.715245,-1
12:34:16.715245,-52
12:34:16.715245,-11777
12:34:16.715245,-1
12:34:16.715245,-47
12:34:16.715245,-11777
12:34:16.715245,-1
12:34:16.715245,-49
12:34:16.715245,-11009
12:34:16.715245,-1
12:34:16.715245,-42
12:34:16.715245,-9985
12:34:16.715245,-1
12:34:16.715245,-37
12:34:16.715245,-9985
12:34:16.715245,-1
12:34:16.715245,-40
12:34:16.715245,-9985
12:34:16.715245,-1
12:34:16.715245,-35
12:34:16.715245,-8193
12:34:16.715245,-1
12:34:16.715245,-35
12:34:16.715245,-6913
12:34:16.715245,-1
12:34:16.715245,-23
12:34:16.715245,-7425
12:34:16.715245,-1
12:34:16.715245,-28
12:34:16.715245,-5121
12:34:16.715245,-1
12:34:16.715245,-21
12:34:16.715245,-6401
12:34:16.715245,-1
12:34:16.715245,-23
12:34:17.225087,-16
12:34:17.225087,-3841
12:34:17.225087,-1
12:34:17.225087,-16
12:34:17.225087,-3329
12:34:17.225087,-1
12:34:17.225087,-18
12:34:17.225087,-8193
12:34:17.225087,-1
12:34:17.225087,-42
12:34:17.225087,-10497
12:34:17.225087,-1
12:34:17.225087,-37
12:34:17.225087,-8705
12:34:17.225087,-1
12:34:17.225087,-4
12:34:17.225087,5631
12:34:17.225087,0
12:34:17.225087,28
12:34:17.225087,13824
12:34:17.225087,0
12:34:17.225087,63
12:34:17.225087,8448
12:34:17.225087,0
12:34:17.225087,21
12:34:17.225087,8448
12:34:17.225087,0
12:34:17.225087,18
12:34:17.225087,-11264
12:34:17.225087,-1
12:34:17.225087,-85
12:34:17.225087,18943
12:34:17.225087,0
12:34:17.225087,440
12:34:17.225087,3328
12:34:17.225087,3
12:34:17.225087,769
12:34:17.225087,-2560
12:34:17.225087,0
12:34:17.225087,-139
12:34:17.225087,25087
12:34:17.225087,0
12:34:17.225087,236
12:34:17.225087,5888
12:34:17.225087,0
12:34:17.225087,-33
12:34:17.225087,9727
12:34:17.225087,0
12:34:17.225087,7
12:34:17.225087,-4096
12:34:17.225087,-1
12:34:17.225087,16
12:34:17.225087,5888
12:34:17.225087,0
12:34:17.225087,23
12:34:17.225087,12032
12:34:17.225087,0
12:34:17.225087,56
12:34:17.225087,14336
12:34:17.225087,0
12:34:17.225087,71
12:34:17.225087,23552
12:34:17.225087,0
12:34:17.225087,113
12:34:17.225087,-29184
12:34:17.225087,0
12:34:17.225087,170
12:34:17.225087,-17152
12:34:17.225087,0
12:34:17.225087,203
12:34:17.225087,-5120
12:34:17.225087,0
12:34:17.225087,298
12:34:17.225087,24576
12:34:17.225087,1
12:34:17.225087,364
12:34:17.225087,27136
12:34:17.225087,1
12:34:17.225087,381
12:34:17.225087,-27648
12:34:17.225087,1
12:34:17.225087,393
12:34:17.225087,18688
12:34:17.225087,1
12:34:17.225087,220
12:34:17.225087,27136
12:34:17.225087,0
12:34:17.225087,21
12:34:17.225087,-15104
12:34:17.225087,-1
12:34:17.225087,-132
12:34:17.225087,24063
12:34:17.225087,-1
12:34:17.225087,-187
12:34:17.225087,9471
12:34:17.225087,-1
12:34:17.225087,-210
12:34:17.225087,22271
12:34:17.225087,-1
12:34:17.225087,-177
12:34:17.225087,16127
12:34:17.225087,-1
12:34:17.225087,-153
12:34:17.225087,-32257
12:34:17.225087,-1
12:34:17.225087,-158
12:34:17.225087,24063
12:34:17.225087,-1
12:34:17.225087,-116
12:34:17.849516,-87
12:34:17.849516,-24577
12:34:17.849516,-1
12:34:17.849516,-99
12:34:17.849516,-18945
12:34:17.849516,-1
12:34:17.849516,-54
12:34:17.849516,-18433
12:34:17.849516,-1
12:34:17.849516,-63
12:34:17.849516,1279
12:34:17.849516,0
12:34:17.849516,4
12:34:17.849516,-10752
12:34:17.849516,-1
12:34:17.849516,-16
12:34:17.849516,767
12:34:17.849516,0
12:34:17.849516,-23
12:34:17.849516,-769
12:34:17.849516,-1
12:34:17.849516,16
12:34:17.849516,-512
12:34:17.849516,-1
12:34:17.849516,-7
12:34:17.849516,2559
12:34:17.849516,0
12:34:17.849516,11
12:34:17.849516,2816
12:34:17.849516,0
12:34:17.849516,26
12:34:17.849516,4608
12:34:17.849516,0
12:34:17.849516,14
12:34:17.849516,8960
12:34:17.849516,0
12:34:17.849516,44
12:34:17.849516,9472
12:34:17.849516,0
12:34:17.849516,33
12:34:17.849516,7680
12:34:17.849516,0
12:34:17.849516,42
12:34:17.849516,10752
12:34:17.849516,0
12:34:17.849516,49
12:34:17.849516,14336
12:34:17.849516,0
12:34:17.849516,40
12:34:17.849516,9472
12:34:17.849516,0
12:34:17.849516,49
12:34:17.849516,11264
12:34:17.849516,0
12:34:17.849516,49
12:34:17.849516,17408
12:34:17.849516,0
12:34:17.849516,73
12:34:17.849516,16896
12:34:17.849516,0
12:34:17.849516,63
12:34:17.849516,16896
12:34:17.849516,0
12:34:17.849516,73
12:34:17.849516,19200
12:34:17.849516,0
12:34:17.849516,56
12:34:17.849516,13312
12:34:17.849516,0
12:34:17.849516,59
12:34:17.849516,15616
12:34:17.849516,0
12:34:17.849516,92
12:34:17.849516,-32256
12:34:17.849516,0
12:34:17.849516,130
12:34:17.849516,32512
12:34:17.849516,0
12:34:17.849516,120
12:34:17.849516,20992
12:34:17.849516,0
12:34:17.849516,73
12:34:17.849516,25856
12:34:17.849516,0
12:34:17.849516,89
12:34:17.849516,5376
12:34:17.849516,0
12:34:17.849516,-47
12:34:17.849516,15359
12:34:17.849516,0
12:34:17.849516,442
12:34:17.849516,17920
12:34:17.849516,3
12:34:17.849516,871
12:34:17.849516,26368
12:34:17.849516,1
12:34:17.849516,-139
12:34:17.849516,8703
12:34:17.849516,0
12:34:17.849516,288
12:34:17.849516,27648
12:34:17.849516,0
12:34:17.849516,2
12:34:17.849516,20480
12:34:17.849516,0
12:34:17.849516,61
12:34:17.849516,8448
12:34:17.849516,0
12:34:17.849516,73
12:34:18.335073,78
12:34:18.335073,15104
12:34:18.335073,0
12:34:18.335073,75
12:34:18.335073,23552
12:34:18.335073,0
12:34:18.335073,104
12:34:18.335073,32000
12:34:18.335073,0
12:34:18.335073,134
12:34:18.335073,-25600
12:34:18.335073,0
12:34:18.335073,182
12:34:18.335073,-15872
12:34:18.335073,0
12:34:18.335073,229
12:34:18.335073,7168
12:34:18.335073,1
12:34:18.335073,324
12:34:18.335073,27136
12:34:18.335073,1
12:34:18.335073,397
12:34:18.335073,-18944
12:34:18.335073,1
12:34:18.335073,466
12:34:18.335073,-8704
12:34:18.335073,1
12:34:18.335073,483
12:34:18.335073,-14848
12:34:18.335073,1
12:34:18.335073,386
12:34:18.335073,8192
12:34:18.335073,1
12:34:18.335073,170
12:34:18.335073,16128
12:34:18.335073,0
12:34:18.335073,-28
12:34:18.335073,-25601
12:34:18.335073,-1
12:34:18.335073,-151
12:34:18.335073,19967
12:34:18.335073,-1
12:34:18.335073,-184
12:34:18.335073,16895
12:34:18.335073,-1
12:34:18.335073,-208
12:34:18.335073,15615
12:34:18.335073,-1
12:34:18.335073,-177
12:34:18.335073,20479
12:34:18.335073,-1
12:34:18.335073,-168
12:34:18.335073,27647
12:34:18.335073,-1
12:34:18.335073,-149
12:34:18.335073,29439
12:34:18.335073,-1
12:34:18.335073,-120
12:34:18.335073,-30465
12:34:18.335073,-1
12:34:18.335073,-120
12:34:18.335073,-23809
12:34:18.335073,-1
12:34:18.335073,-85
12:34:18.335073,-23297
12:34:18.335073,-1
12:34:18.335073,-85
12:34:18.335073,-19713
12:34:18.335073,-1
12:34:18.335073,-78
12:34:18.335073,-17921
12:34:18.335073,-1
12:34:18.335073,-71
12:34:18.335073,-19713
12:34:18.335073,-1
12:34:18.335073,-78
12:34:18.335073,-17153
12:34:18.335073,-1
12:34:18.335073,-75
12:34:18.335073,-17153
12:34:18.335073,-1
12:34:18.335073,-47
12:34:18.335073,-14081
12:34:18.335073,-1
12:34:18.335073,-73
12:34:18.335073,-14081
12:34:18.335073,-1
12:34:18.335073,-54
12:34:18.335073,-15361
12:34:18.335073,-1
12:34:18.335073,-44
12:34:18.335073,-9985
12:34:18.335073,-1
12:34:18.335073,-42
12:34:18.335073,-9985
12:34:18.335073,-1
12:34:18.335073,-37
12:34:18.335073,-8193
12:34:18.335073,-1
12:34:18.335073,-40
12:34:18.335073,-11009
12:34:18.335073,-1
12:34:18.335073,-37
12:34:18.335073,-6401
12:34:18.335073,-1
12:34:18.335073,-28
12:34:18.335073,-6913
12:34:18.335073,-1
12:34:18.335073,-18
12:34:18.906113,-18
12:34:18.906113,-6401
12:34:18.906113,-1
12:34:18.906113,-28
12:34:18.906113,-8193
12:34:18.906113,-1
12:34:18.906113,-16
12:34:18.906113,767
12:34:18.906113,0
12:34:18.906113,4
12:34:18.906113,0
12:34:18.906113,0
12:34:18.906113,-11
12:34:18.906113,-2049
12:34:18.906113,-1
12:34:18.906113,-9
12:34:18.906113,-9217
12:34:18.906113,-1
12:34:18.906113,-33
12:34:18.906113,255
12:34:18.906113,0
12:34:18.906113,-4
12:34:18.906113,255
12:34:18.906113,0
12:34:18.906113,40
12:34:18.906113,15104
12:34:18.906113,0
12:34:18.906113,44
12:34:18.906113,2816
12:34:18.906113,0
12:34:18.906113,2
12:34:18.906113,6656
12:34:18.906113,0
12:34:18.906113,16
12:34:18.906113,-5376
12:34:18.906113,-1
12:34:18.906113,-71
12:34:18.906113,-23297
12:34:18.906113,-1
12:34:18.906113,92
12:34:18.906113,-8192
12:34:18.906113,1
12:34:18.906113,774
12:34:18.906113,-29440
12:34:18.906113,2
12:34:18.906113,99
12:34:18.906113,20224
12:34:18.906113,-1
12:34:18.906113,120
12:34:18.906113,-12288
12:34:18.906113,0
12:34:18.906113,-18
12:34:18.906113,-9985
12:34:18.906113,-1
12:34:18.906113,33
12:34:18.906113,-3584
12:34:18.906113,-1
12:34:18.906113,-30
12:34:18.906113,3839
12:34:18.906113,0
12:34:18.906113,11
12:34:18.906113,1024
12:34:18.906113,0
12:34:18.906113,28
12:34:18.906113,10240
12:34:18.906113,0
12:34:18.906113,47
12:34:18.906113,16896
12:34:18.906113,0
12:34:18.906113,80
12:34:18.906113,23552
12:34:18.906113,0
12:34:18.906113,116
12:34:18.906113,-28672
12:34:18.906113,0
12:34:18.906113,170
12:34:18.906113,-11776
12:34:18.906113,0
12:34:18.906113,253
12:34:18.906113,8960
12:34:18.906113,1
12:34:18.906113,343
12:34:18.906113,29440
12:34:18.906113,1
12:34:18.906113,374
12:34:18.906113,-27648
12:34:18.906113,1
12:34:18.906113,423
12:34:18.906113,30208
12:34:18.906113,1
12:34:18.906113,296
12:34:18.906113,-12800
12:34:18.906113,0
12:34:18.906113,99
12:34:18.906113,-1024
12:34:18.906113,-1
12:34:18.906113,-97
12:34:18.906113,22783
12:34:18.906113,-1
12:34:18.906113,-210
12:34:18.906113,10751
12:34:18.906113,-1
12:34:18.906113,-215
12:34:18.906113,7167
12:34:18.906113,-1
12:34:18.906113,-229
12:34:18.906113,8447
12:34:18.906113,-1
12:34:18.906113,-220
12:34:19.505037,-213
12:34:19.505037,14335
12:34:19.505037,-1
12:34:19.505037,-177
12:34:19.505037,24575
12:34:19.505037,-1
12:34:19.505037,-161
12:34:19.505037,25343
12:34:19.505037,-1
12:34:19.505037,-134
12:34:19.505037,-28161
12:34:19.505037,-1
12:34:19.505037,-120
12:34:19.505037,-29953
12:34:19.505037,-1
12:34:19.505037,-99
12:34:19.505037,-28161
12:34:19.505037,-1
12:34:19.505037,-113
12:34:19.505037,-24577
12:34:19.505037,-1
12:34:19.505037,-101
12:34:19.505037,-25601
12:34:19.505037,-1
12:34:19.505037,-101
12:34:19.505037,-28673
12:34:19.505037,-1
12:34:19.505037,-106
12:34:19.505037,-26369
12:34:19.505037,-1
12:34:19.505037,-108
12:34:19.505037,-25601
12:34:19.505037,-1
12:34:19.505037,-94
12:34:19.505037,-24577
12:34:19.505037,-1
12:34:19.505037,-99
12:34:19.505037,-25601
12:34:19.505037,-1
12:34:19.505037,-99
12:34:19.505037,-25601
12:34:19.505037,-1
12:34:19.505037,-104
12:34:19.505037,-26369
12:34:19.505037,-1
12:34:19.505037,-99
12:34:19.505037,-23809
12:34:19.505037,-1
12:34:19.505037,-101
12:34:19.505037,-25601
12:34:19.505037,-1
12:34:19.505037,-89
12:34:19.505037,-23297
12:34:19.505037,-1
12:34:19.505037,-97
12:34:19.505037,-22529
12:34:19.505037,-1
12:34:19.505037,-87
12:34:19.505037,-22017
12:34:19.505037,-1
12:34:19.505037,-80
12:34:19.505037,-20225
12:34:19.505037,-1
12:34:19.505037,-89
12:34:19.505037,-23809
12:34:19.505037,-1
12:34:19.505037,-92
12:34:19.505037,-24577
12:34:19.505037,-1
12:34:19.505037,-99
12:34:19.505037,-19713
12:34:19.505037,-1
12:34:19.505037,-61
12:34:19.505037,-13569
12:34:19.505037,-1
12:34:19.505037,-21
12:34:19.505037,255
12:34:19.505037,0
12:34:19.505037,-9
12:34:19.505037,-5121
12:34:19.505037,-1
12:34:19.505037,-33
12:34:19.505037,-8705
12:34:19.505037,-1
12:34:19.505037,-26
12:34:19.505037,-9985
12:34:19.505037,-1
12:34:19.505037,-82
12:34:19.505037,-26881
12:34:19.505037,-1
12:34:19.505037,9
12:34:19.505037,30208
12:34:19.505037,1
12:34:19.505037,750
12:34:19.505037,-19200
12:34:19.505037,2
12:34:19.505037,111
12:34:19.505037,18944
12:34:19.505037,-2
12:34:19.505037,-241
12:34:19.505037,-13313
12:34:19.505037,0
12:34:19.505037,108
12:34:19.505037,-19968
12:34:19.505037,-1
12:34:19.505037,9
12:34:19.505037,8448
12:34:19.505037,0
12:34:19.505037,-35
12:34:20.075405,-18
12:34:20.075405,2559
12:34:20.075405,0
12:34:20.075405,28
12:34:20.075405,13824
12:34:20.075405,0
12:34:20.075405,44
12:34:20.075405,18176
12:34:20.075405,0
12:34:20.075405,97
12:34:20.075405,20480
12:34:20.075405,0
12:34:20.075405,123
12:34:20.075405,-14080
12:34:20.075405,0
12:34:20.075405,232
12:34:20.075405,-256
12:34:20.075405,0
12:34:20.075405,319
12:34:20.075405,28928
12:34:20.075405,1
12:34:20.075405,386
12:34:20.075405,-26368
12:34:20.075405,1
12:34:20.075405,483
12:34:20.075405,9472
12:34:20.075405,2
12:34:20.075405,547
12:34:20.075405,6912
12:34:20.075405,2
12:34:20.075405,537
12:34:20.075405,-8704
12:34:20.075405,1
12:34:20.075405,374
12:34:20.075405,-256
12:34:20.075405,0
12:34:20.075405,130
12:34:20.075405,12544
12:34:20.075405,0
12:34:20.075405,0
12:34:20.075405,-19200
12:34:20.075405,-1
12:34:20.075405,-118
12:34:20.075405,-27393
12:34:20.075405,-1
12:34:20.075405,-113
12:34:20.075405,-30465
12:34:20.075405,-1
12:34:20.075405,-130
12:34:20.075405,-31745
12:34:20.075405,-1
12:34:20.075405,-92
12:34:20.075405,-23809
12:34:20.075405,-1
12:34:20.075405,-99
12:34:20.075405,-21505
12:34:20.075405,-1
12:34:20.075405,-99
12:34:20.075405,-21505
12:34:20.075405,-1
12:34:20.075405,-54
12:34:20.075405,-15361
12:34:20.075405,-1
12:34:20.075405,-61
12:34:20.075405,-14849
12:34:20.075405,-1
12:34:20.075405,-61
12:34:20.075405,-10497
12:34:20.075405,-1
12:34:20.075405,-40
12:34:20.075405,-13057
12:34:20.075405,-1
12:34:20.075405,-49
12:34:20.075405,-13057
12:34:20.075405,-1
12:34:20.075405,-56
12:34:20.075405,-11777
12:34:20.075405,-1
12:34:20.075405,-52
12:34:20.075405,-13569
12:34:20.075405,-1
12:34:20.075405,-37
12:34:20.075405,-9217
12:34:20.075405,-1
12:34:20.075405,-47
12:34:20.075405,-9217
12:34:20.075405,-1
12:34:20.075405,-35
12:34:20.075405,-9985
12:34:20.075405,-1
12:34:20.075405,-47
12:34:20.075405,-11777
12:34:20.075405,-1
12:34:20.075405,-23
12:34:20.075405,-4353
12:34:20.075405,-1
12:34:20.075405,-33
12:34:20.075405,-7425
12:34:20.075405,-1
12:34:20.075405,-23
12:34:20.075405,-6401
12:34:20.075405,-1
12:34:20.075405,-30
12:34:20.075405,-5121
12:34:20.075405,-1
12:34:20.075405,-16
12:34:20.075405,-6913
12:34:20.075405,-1
12:34:20.075405,-26
12:34:20.585400,-14
12:34:20.585400,-6913
12:34:20.585400,-1
12:34:20.585400,-35
12:34:20.585400,-6913
12:34:20.585400,-1
12:34:20.585400,-33
12:34:20.585400,-13569
12:34:20.585400,-1
12:34:20.585400,-52
12:34:20.585400,-6913
12:34:20.585400,-1
12:34:20.585400,-23
12:34:20.585400,-2561
12:34:20.585400,-1
12:34:20.585400,21
12:34:20.585400,8960
12:34:20.585400,0
12:34:20.585400,35
12:34:20.585400,12544
12:34:20.585400,0
12:34:20.585400,33
12:34:20.585400,512
12:34:20.585400,0
12:34:20.585400,18
12:34:20.585400,3584
12:34:20.585400,0
12:34:20.585400,-66
12:34:20.585400,-27393
12:34:20.585400,-1
12:34:20.585400,59
12:34:20.585400,-20736
12:34:20.585400,1
12:34:20.585400,800
12:34:20.585400,16640
12:34:20.585400,3
12:34:20.585400,281
12:34:20.585400,18432
12:34:20.585400,-1
12:34:20.585400,54
12:34:20.585400,-8704
12:34:20.585400,0
12:34:20.585400,-11
12:34:20.585400,-16641
12:34:20.585400,-1
12:34:20.585400,21
12:34:20.585400,-2816
12:34:20.585400,-1
12:34:20.585400,-37
12:34:20.585400,767
12:34:20.585400,0
12:34:20.585400,16
12:34:20.585400,512
12:34:20.585400,0
12:34:20.585400,18
12:34:20.585400,13824
12:34:20.585400,0
12:34:20.585400,54
12:34:20.585400,12032
12:34:20.585400,0
12:34:20.585400,82
12:34:20.585400,29696
12:34:20.585400,0
12:34:20.585400,120
12:34:20.585400,-25088
12:34:20.585400,0
12:34:20.585400,210
12:34:20.585400,-8192
12:34:20.585400,0
12:34:20.585400,248
12:34:20.585400,13824
12:34:20.585400,1
12:34:20.585400,345
12:34:20.585400,31232
12:34:20.585400,1
12:34:20.585400,426
12:34:20.585400,-17920
12:34:20.585400,1
12:34:20.585400,433
12:34:20.585400,-26880
12:34:20.585400,1
12:34:20.585400,343
12:34:20.585400,-5632
12:34:20.585400,0
12:34:20.585400,113
12:34:20.585400,-1024
12:34:20.585400,-1
12:34:20.585400,-101
12:34:20.585400,29439
12:34:20.585400,-1
12:34:20.585400,-175
12:34:20.585400,10751
12:34:20.585400,-1
12:34:20.585400,-213
12:34:20.585400,14335
12:34:20.585400,-1
12:34:20.585400,-215
12:34:20.585400,10239
12:34:20.585400,-1
12:34:20.585400,-189
12:34:20.585400,20479
12:34:20.585400,-1
12:34:20.585400,-179
12:34:20.585400,23551
12:34:20.585400,-1
12:34:20.585400,-163
12:34:20.585400,28415
12:34:20.585400,-1
12:34:20.585400,-113
12:34:21.155214,-123
12:34:21.155214,32511
12:34:21.155214,-1
12:34:21.155214,-106
12:34:21.155214,-25601
12:34:21.155214,-1
12:34:21.155214,-106
12:34:21.155214,-24577
12:34:21.155214,-1
12:34:21.155214,-78
12:34:21.155214,-15361
12:34:21.155214,-1
12:34:21.155214,-78
12:34:21.155214,-20225
12:34:21.155214,-1
12:34:21.155214,-59
12:34:21.155214,-15873
12:34:21.155214,-1
12:34:21.155214,-75
12:34:21.155214,-18945
12:34:21.155214,-1
12:34:21.155214,-73
12:34:21.155214,-17153
12:34:21.155214,-1
12:34:21.155214,-66
12:34:21.155214,-16641
12:34:21.155214,-1
12:34:21.155214,-68
12:34:21.155214,-16641
12:34:21.155214,-1
12:34:21.155214,-71
12:34:21.155214,-19713
12:34:21.155214,-1
12:34:21.155214,-61
12:34:21.155214,-11777
12:34:21.155214,-1
12:34:21.155214,-68
12:34:21.155214,-18433
12:34:21.155214,-1
12:34:21.155214,-49
12:34:21.155214,-11009
12:34:21.155214,-1
12:34:21.155214,-66
12:34:21.155214,-17153
12:34:21.155214,-1
12:34:21.155214,-71
12:34:21.155214,-19713
12:34:21.155214,-1
12:34:21.155214,-63
12:34:21.155214,-11009
12:34:21.155214,-1
12:34:21.155214,-40
12:34:21.155214,-5633
12:34:21.155214,-1
12:34:21.155214,7
12:34:21.155214,2816
12:34:21.155214,0
12:34:21.155214,-16
12:34:21.155214,-10497
12:34:21.155214,-1
12:34:21.155214,-42
12:34:21.155214,-8193
12:34:21.155214,-1
12:34:21.155214,-44
12:34:21.155214,-20737
12:34:21.155214,-1
12:34:21.155214,-125
12:34:21.155214,-9217
12:34:21.155214,-1
12:34:21.155214,326
12:34:21.155214,-10496
12:34:21.155214,2
12:34:21.155214,764
12:34:21.155214,1024
12:34:21.155214,1
12:34:21.155214,-326
12:34:21.155214,13823
12:34:21.155214,-1
12:34:21.155214,187
12:34:21.155214,19200
12:34:21.155214,0
12:34:21.155214,-82
12:34:21.155214,-257
12:34:21.155214,-1
12:34:21.155214,2
12:34:21.155214,-10240
12:34:21.155214,-1
12:34:21.155214,-4
12:34:21.155214,3839
12:34:21.155214,0
12:34:21.155214,4
12:34:21.155214,5376
12:34:21.155214,0
12:34:21.155214,40
12:34:21.155214,10752
12:34:21.155214,0
12:34:21.155214,59
12:34:21.155214,22272
12:34:21.155214,0
12:34:21.155214,118
12:34:21.155214,-29184
12:34:21.155214,0
12:34:21.155214,168
12:34:21.155214,-11776
12:34:21.155214,0
12:34:21.155214,241
12:34:21.155214,5376
12:34:21.155214,1
12:34:21.155214,333
12:34:21.695122,371
12:34:21.695122,-26368
12:34:21.695122,1
12:34:21.695122,457
12:34:21.695122,-11264
12:34:21.695122,1
12:34:21.695122,464
12:34:21.695122,-18432
12:34:21.695122,1
12:34:21.695122,371
12:34:21.695122,3328
12:34:21.695122,1
12:34:21.695122,151
12:34:21.695122,5376
12:34:21.695122,0
12:34:21.695122,-82
12:34:21.695122,29439
12:34:21.695122,-1
12:34:21.695122,-182
12:34:21.695122,8959
12:34:21.695122,-1
12:34:21.695122,-232
12:34:21.695122,9471
12:34:21.695122,-1
12:34:21.695122,-229
12:34:21.695122,8447
12:34:21.695122,-1
12:34:21.695122,-194
12:34:21.695122,18687
12:34:21.695122,-1
12:34:21.695122,-198
12:34:21.695122,17407
12:34:21.695122,-1
12:34:21.695122,-151
12:34:21.695122,27647
12:34:21.695122,-1
12:34:21.695122,-170
12:34:21.695122,29439
12:34:21.695122,-1
12:34:21.695122,-113
12:34:21.695122,-31233
12:34:21.695122,-1
12:34:21.695122,-125
12:34:21.695122,-28161
12:34:21.695122,-1
12:34:21.695122,-99
12:34:21.695122,-24577
12:34:21.695122,-1
12:34:21.695122,-97
12:34:21.695122,-22529
12:34:21.695122,-1
12:34:21.695122,-85
12:34:21.695122,-18945
12:34:21.695122,-1
12:34:21.695122,-78
12:34:21.695122,-21505
12:34:21.695122,-1
12:34:21.695122,-75
12:34:21.695122,-16641
12:34:21.695122,-1
12:34:21.695122,-75
12:34:21.695122,-18433
12:34:21.695122,-1
12:34:21.695122,-61
12:34:21.695122,-15361
12:34:21.695122,-1
12:34:21.695122,-63
12:34:21.695122,-14849
12:34:21.695122,-1
12:34:21.695122,-49
12:34:21.695122,-12289
12:34:21.695122,-1
12:34:21.695122,-52
12:34:21.695122,-13057
12:34:21.695122,-1
12:34:21.695122,-52
12:34:21.695122,-10497
12:34:21.695122,-1
12:34:21.695122,-40
12:34:21.695122,-11009
12:34:21.695122,-1
12:34:21.695122,-30
12:34:21.695122,-8705
12:34:21.695122,-1
12:34:21.695122,-47
12:34:21.695122,-6913
12:34:21.695122,-1
12:34:21.695122,-23
12:34:21.695122,-9217
12:34:21.695122,-1
12:34:21.695122,-37
12:34:21.695122,-8193
12:34:21.695122,-1
12:34:21.695122,-28
12:34:21.695122,-8193
12:34:21.695122,-1
12:34:21.695122,-42
12:34:21.695122,-12289
12:34:21.695122,-1
12:34:21.695122,-52
12:34:21.695122,-10497
12:34:21.695122,-1
12:34:21.695122,-35
12:34:21.695122,-4353
12:34:21.695122,-1
12:34:21.695122,18
12:34:21.695122,8448
12:34:21.695122,0
12:34:21.695122,26
12:34:22.265222,21
12:34:22.265222,3584
12:34:22.265222,0
12:34:22.265222,0
12:34:22.265222,-1024
12:34:22.265222,-1
12:34:22.265222,4
12:34:22.265222,-4096
12:34:22.265222,-1
12:34:22.265222,-87
12:34:22.265222,-5633
12:34:22.265222,-1
12:34:22.265222,310
12:34:22.265222,-5888
12:34:22.265222,2
12:34:22.265222,935
12:34:22.265222,9472
12:34:22.265222,2
12:34:22.265222,-18
12:34:22.265222,1279
12:34:22.265222,0
12:34:22.265222,239
12:34:22.265222,23552
12:34:22.265222,0
12:34:22.265222,-47
12:34:22.265222,6143
12:34:22.265222,0
12:34:22.265222,21
12:34:22.265222,-7168
12:34:22.265222,-1
12:34:22.265222,11
12:34:22.265222,8960
12:34:22.265222,0
12:34:22.265222,11
12:34:22.265222,7168
12:34:22.265222,0
12:34:22.265222,56
12:34:22.265222,15616
12:34:22.265222,0
12:34:22.265222,68
12:34:22.265222,22784
12:34:22.265222,0
12:34:22.265222,111
12:34:22.265222,-31232
12:34:22.265222,0
12:34:22.265222,163
12:34:22.265222,-15872
12:34:22.265222,0
12:34:22.265222,224
12:34:22.265222,4608
12:34:22.265222,1
12:34:22.265222,322
12:34:22.265222,25344
12:34:22.265222,1
12:34:22.265222,395
12:34:22.265222,-22016
12:34:22.265222,1
12:34:22.265222,447
12:34:22.265222,-13056
12:34:22.265222,1
12:34:22.265222,438
12:34:22.265222,29440
12:34:22.265222,1
12:34:22.265222,279
12:34:22.265222,-23296
12:34:22.265222,0
12:34:22.265222,35
12:34:22.265222,-16896
12:34:22.265222,-1
12:34:22.265222,-130
12:34:22.265222,17407
12:34:22.265222,-1
12:34:22.265222,-222
12:34:22.265222,10239
12:34:22.265222,-1
12:34:22.265222,-229
12:34:22.265222,5375
12:34:22.265222,-1
12:34:22.265222,-201
12:34:22.265222,16127
12:34:22.265222,-1
12:34:22.265222,-203
12:34:22.265222,17407
12:34:22.265222,-1
12:34:22.265222,-175
12:34:22.265222,20991
12:34:22.265222,-1
12:34:22.265222,-168
12:34:22.265222,27647
12:34:22.265222,-1
12:34:22.265222,-137
12:34:22.265222,31487
12:34:22.265222,-1
12:34:22.265222,-134
12:34:22.265222,-29953
12:34:22.265222,-1
12:34:22.265222,-99
12:34:22.265222,-27393
12:34:22.265222,-1
12:34:22.265222,-113
12:34:22.265222,-25089
12:34:22.265222,-1
12:34:22.265222,-99
12:34:22.265222,-24577
12:34:22.265222,-1
12:34:22.265222,-85
12:34:22.265222,-19713
12:34:22.265222,-1
12:34:22.265222,-75
12:34:22.865122,-80
12:34:22.865122,-18945
12:34:22.865122,-1
12:34:22.865122,-59
12:34:22.865122,-14849
12:34:22.865122,-1
12:34:22.865122,-59
12:34:22.865122,-11777
12:34:22.865122,-1
12:34:22.865122,-30
12:34:22.865122,-4353
12:34:22.865122,-1
12:34:22.865122,-26
12:34:22.865122,-6401
12:34:22.865122,-1
12:34:22.865122,-18
12:34:22.865122,-5633
12:34:22.865122,-1
12:34:22.865122,-23
12:34:22.865122,-4353
12:34:22.865122,-1
12:34:22.865122,-18
12:34:22.865122,-5633
12:34:22.865122,-1
12:34:22.865122,-16
12:34:22.865122,-3329
12:34:22.865122,-1
12:34:22.865122,-28
12:34:22.865122,-5121
12:34:22.865122,-1
12:34:22.865122,-9
12:34:22.865122,-4353
12:34:22.865122,-1
12:34:22.865122,-18
12:34:22.865122,-4353
12:34:22.865122,-1
12:34:22.865122,-26
12:34:22.865122,-4353
12:34:22.865122,-1
12:34:22.865122,-14
12:34:22.865122,-2561
12:34:22.865122,-1
12:34:22.865122,-14
12:34:22.865122,-6401
12:34:22.865122,-1
12:34:22.865122,-18
12:34:22.865122,-1537
12:34:22.865122,-1
12:34:22.865122,-11
12:34:22.865122,-2561
12:34:22.865122,-1
12:34:22.865122,-11
12:34:22.865122,-2561
12:34:22.865122,-1
12:34:22.865122,-7
12:34:22.865122,-6913
12:34:22.865122,-1
12:34:22.865122,-49
12:34:22.865122,-7425
12:34:22.865122,-1
12:34:22.865122,-11
12:34:22.865122,-3841
12:34:22.865122,-1
12:34:22.865122,-4
12:34:22.865122,8703
12:34:22.865122,0
12:34:22.865122,54
12:34:22.865122,10752
12:34:22.865122,0
12:34:22.865122,23
12:34:22.865122,4096
12:34:22.865122,0
12:34:22.865122,16
12:34:22.865122,2304
12:34:22.865122,0
12:34:22.865122,-26
12:34:22.865122,-24577
12:34:22.865122,-1
12:34:22.865122,-94
12:34:22.865122,30975
12:34:22.865122,0
12:34:22.865122,504
12:34:22.865122,19200
12:34:22.865122,3
12:34:22.865122,743
12:34:22.865122,-30464
12:34:22.865122,0
12:34:22.865122,-137
12:34:22.865122,-27905
12:34:22.865122,0
12:34:22.865122,168
12:34:22.865122,-13312
12:34:22.865122,-1
12:34:22.865122,-40
12:34:22.865122,2559
12:34:22.865122,0
12:34:22.865122,-40
12:34:22.865122,-6401
12:34:22.865122,-1
12:34:22.865122,9
12:34:22.865122,-512
12:34:22.865122,-1
12:34:22.865122,4
12:34:22.865122,8960
12:34:22.865122,0
12:34:22.865122,47
12:34:22.865122,11264
12:34:22.865122,0
12:34:22.865122,63
12:34:23.405219,89
12:34:23.405219,28928
12:34:23.405219,0
12:34:23.405219,137
12:34:23.405219,-22528
12:34:23.405219,0
12:34:23.405219,198
12:34:23.405219,-7424
12:34:23.405219,0
12:34:23.405219,265
12:34:23.405219,14848
12:34:23.405219,1
12:34:23.405219,350
12:34:23.405219,30720
12:34:23.405219,1
12:34:23.405219,431
12:34:23.405219,-10496
12:34:23.405219,1
12:34:23.405219,452
12:34:23.405219,-23808
12:34:23.405219,1
12:34:23.405219,362
12:34:23.405219,-2048
12:34:23.405219,0
12:34:23.405219,125
12:34:23.405219,5888
12:34:23.405219,0
12:34:23.405219,-68
12:34:23.405219,31999
12:34:23.405219,-1
12:34:23.405219,-165
12:34:23.405219,15615
12:34:23.405219,-1
12:34:23.405219,-210
12:34:23.405219,13055
12:34:23.405219,-1
12:34:23.405219,-203
12:34:23.405219,14335
12:34:23.405219,-1
12:34:23.405219,-191
12:34:23.405219,19967
12:34:23.405219,-1
12:34:23.405219,-177
12:34:23.405219,22271
12:34:23.405219,-1
12:34:23.405219,-156
12:34:23.405219,28927
12:34:23.405219,-1
12:34:23.405219,-139
12:34:23.405219,30207
12:34:23.405219,-1
12:34:23.405219,-132
12:34:23.405219,-28673
12:34:23.405219,-1
12:34:23.405219,-106
12:34:23.405219,-26881
12:34:23.405219,-1
12:34:23.405219,-85
12:34:23.405219,-23809
12:34:23.405219,-1
12:34:23.405219,-116
12:34:23.405219,-22529
12:34:23.405219,-1
12:34:23.405219,-75
12:34:23.405219,-23297
12:34:23.405219,-1
12:34:23.405219,-97
12:34:23.405219,-21505
12:34:23.405219,-1
12:34:23.405219,-80
12:34:23.405219,-21505
12:34:23.405219,-1
12:34:23.405219,-80
12:34:23.405219,-19713
12:34:23.405219,-1
12:34:23.405219,-85
12:34:23.405219,-20225
12:34:23.405219,-1
12:34:23.405219,-80
12:34:23.405219,-21505
12:34:23.405219,-1
12:34:23.405219,-71
12:34:23.405219,-15361
12:34:23.405219,-1
12:34:23.405219,-63
12:34:23.405219,-17153
12:34:23.405219,-1
12:34:23.405219,-63
12:34:23.405219,-13569
12:34:23.405219,-1
12:34:23.405219,-49
12:34:23.405219,-14849
12:34:23.405219,-1
12:34:23.405219,-63
12:34:23.405219,-12289
12:34:23.405219,-1
12:34:23.405219,-47
12:34:23.405219,-13057
12:34:23.405219,-1
12:34:23.405219,-42
12:34:23.405219,-10497
12:34:23.405219,-1
12:34:23.405219,-42
12:34:23.405219,-9985
12:34:23.405219,-1
12:34:23.405219,-40
12:34:23.405219,-9217
12:34:23.405219,-1
12:34:23.405219,-35
12:34:23.975216,-35
12:34:23.975216,-6913
12:34:23.975216,-1
12:34:23.975216,-35
12:34:23.975216,-12289
12:34:23.975216,-1
12:34:23.975216,-44
12:34:23.975216,-11009
12:34:23.975216,-1
12:34:23.975216,-49
12:34:23.975216,-9217
12:34:23.975216,-1
12:34:23.975216,-4
12:34:23.975216,6143
12:34:23.975216,0
12:34:23.975216,21
12:34:23.975216,9472
12:34:23.975216,0
12:34:23.975216,78
12:34:23.975216,12544
12:34:23.975216,0
12:34:23.975216,-7
12:34:23.975216,3071
12:34:23.975216,0
12:34:23.975216,37
12:34:23.975216,2816
12:34:23.975216,0
12:34:23.975216,-40
12:34:23.975216,-21505
12:34:23.975216,-1
12:34:23.975216,26
12:34:23.975216,-31232
12:34:23.975216,1
12:34:23.975216,760
12:34:23.975216,5632
12:34:23.975216,3
12:34:23.975216,291
12:34:23.975216,-1024
12:34:23.975216,-2
12:34:23.975216,-94
12:34:23.975216,767
12:34:23.975216,1
12:34:23.975216,94
12:34:23.975216,-13824
12:34:23.975216,-1
12:34:23.975216,47
12:34:23.975216,10240
12:34:23.975216,0
12:34:23.975216,-23
12:34:23.975216,2047
12:34:23.975216,0
12:34:23.975216,35
12:34:23.975216,5888
12:34:23.975216,0
12:34:23.975216,37
12:34:23.975216,13824
12:34:23.975216,0
12:34:23.975216,61
12:34:23.975216,21760
12:34:23.975216,0
12:34:23.975216,111
12:34:23.975216,29696
12:34:23.975216,0
12:34:23.975216,139
12:34:23.975216,-19712
12:34:23.975216,0
12:34:23.975216,196
12:34:23.975216,-8192
12:34:23.975216,0
12:34:23.975216,279
12:34:23.975216,16128
12:34:23.975216,1
12:34:23.975216,352
12:34:23.975216,-29952
12:34:23.975216,1
12:34:23.975216,433
12:34:23.975216,-16128
12:34:23.975216,1
12:34:23.975216,457
12:34:23.975216,-16640
12:34:23.975216,1
12:34:23.975216,390
12:34:23.975216,10752
12:34:23.975216,1
12:34:23.975216,189
12:34:23.975216,16128
12:34:23.975216,0
12:34:23.975216,-52
12:34:23.975216,-31233
12:34:23.975216,-1
12:34:23.975216,-168
12:34:23.975216,13055
12:34:23.975216,-1
12:34:23.975216,-224
12:34:23.975216,8959
12:34:23.975216,-1
12:34:23.975216,-220
12:34:23.975216,8447
12:34:23.975216,-1
12:34:23.975216,-213
12:34:23.975216,15103
12:34:23.975216,-1
12:34:23.975216,-198
12:34:23.975216,17919
12:34:23.975216,-1
12:34:23.975216,-168
12:34:23.975216,24575
12:34:23.975216,-1
12:34:23.975216,-146
12:34:24.515214,-134
12:34:24.515214,32511
12:34:24.515214,-1
12:34:24.515214,-123
12:34:24.515214,-29441
12:34:24.515214,-1
12:34:24.515214,-108
12:34:24.515214,-26369
12:34:24.515214,-1
12:34:24.515214,-106
12:34:24.515214,-25601
12:34:24.515214,-1
12:34:24.515214,-82
12:34:24.515214,-18433
12:34:24.515214,-1
12:34:24.515214,-66
12:34:24.515214,-15361
12:34:24.515214,-1
12:34:24.515214,-63
12:34:24.515214,-15361
12:34:24.515214,-1
12:34:24.515214,-61
12:34:24.515214,-16641
12:34:24.515214,-1
12:34:24.515214,-61
12:34:24.515214,-13057
12:34:24.515214,-1
12:34:24.515214,-59
12:34:24.515214,-15361
12:34:24.515214,-1
12:34:24.515214,-47
12:34:24.515214,-11777
12:34:24.515214,-1
12:34:24.515214,-56
12:34:24.515214,-15361
12:34:24.515214,-1
12:34:24.515214,-49
12:34:24.515214,-9217
12:34:24.515214,-1
12:34:24.515214,-49
12:34:24.515214,-14081
12:34:24.515214,-1
12:34:24.515214,-40
12:34:24.515214,-9985
12:34:24.515214,-1
12:34:24.515214,-44
12:34:24.515214,-9217
12:34:24.515214,-1
12:34:24.515214,-35
12:34:24.515214,-11009
12:34:24.515214,-1
12:34:24.515214,-37
12:34:24.515214,-7425
12:34:24.515214,-1
12:34:24.515214,-44
12:34:24.515214,-10497
12:34:24.515214,-1
12:34:24.515214,-26
12:34:24.515214,-7425
12:34:24.515214,-1
12:34:24.515214,-28
12:34:24.515214,-6913
12:34:24.515214,-1
12:34:24.515214,-30
12:34:24.515214,-5633
12:34:24.515214,-1
12:34:24.515214,-21
12:34:24.515214,-6913
12:34:24.515214,-1
12:34:24.515214,-26
12:34:24.515214,-2561
12:34:24.515214,-1
12:34:24.515214,-14
12:34:24.515214,-8193
12:34:24.515214,-1
12:34:24.515214,-42
12:34:24.515214,-11009
12:34:24.515214,-1
12:34:24.515214,-35
12:34:24.515214,-4353
12:34:24.515214,-1
12:34:24.515214,-16
12:34:24.515214,-769
12:34:24.515214,-1
12:34:24.515214,33
12:34:24.515214,11264
12:34:24.515214,0
12:34:24.515214,23
12:34:24.515214,3584
12:34:24.515214,0
12:34:24.515214,7
12:34:24.515214,-1024
12:34:24.515214,-1
12:34:24.515214,-9
12:34:24.515214,-6913
12:34:24.515214,-1
12:34:24.515214,-92
12:34:24.515214,-25089
12:34:24.515214,-1
12:34:24.515214,146
12:34:24.515214,15616
12:34:24.515214,2
12:34:24.515214,862
12:34:24.515214,-23296
12:34:24.515214,2
12:34:24.515214,85
12:34:24.515214,-28928
12:34:24.515214,-1
12:34:24.515214,165
12:34:25.085120,151
12:34:25.085120,-12544
12:34:25.085120,-1
12:34:25.085120,-30
12:34:25.085120,2047
12:34:25.085120,0
12:34:25.085120,-37
12:34:25.085120,-7425
12:34:25.085120,-1
12:34:25.085120,18
12:34:25.085120,7680
12:34:25.085120,0
12:34:25.085120,26
12:34:25.085120,12032
12:34:25.085120,0
12:34:25.085120,61
12:34:25.085120,16896
12:34:25.085120,0
12:34:25.085120,92
12:34:25.085120,28928
12:34:25.085120,0
12:34:25.085120,127
12:34:25.085120,-26880
12:34:25.085120,0
12:34:25.085120,179
12:34:25.085120,-9984
12:34:25.085120,0
12:34:25.085120,255
12:34:25.085120,7680
12:34:25.085120,1
12:34:25.085120,329
12:34:25.085120,30208
12:34:25.085120,1
12:34:25.085120,414
12:34:25.085120,-17920
12:34:25.085120,1
12:34:25.085120,452
12:34:25.085120,-17152
12:34:25.085120,1
12:34:25.085120,421
12:34:25.085120,21760
12:34:25.085120,1
12:34:25.085120,227
12:34:25.085120,32512
12:34:25.085120,0
12:34:25.085120,23
12:34:25.085120,-18688
12:34:25.085120,-1
12:34:25.085120,-127
12:34:25.085120,22271
12:34:25.085120,-1
12:34:25.085120,-196
12:34:25.085120,15615
12:34:25.085120,-1
12:34:25.085120,-206
12:34:25.085120,12031
12:34:25.085120,-1
12:34:25.085120,-182
12:34:25.085120,22271
12:34:25.085120,-1
12:34:25.085120,-175
12:34:25.085120,23551
12:34:25.085120,-1
12:34:25.085120,-149
12:34:25.085120,30207
12:34:25.085120,-1
12:34:25.085120,-139
12:34:25.085120,30719
12:34:25.085120,-1
12:34:25.085120,-116
12:34:25.085120,-25089
12:34:25.085120,-1
12:34:25.085120,-99
12:34:25.085120,-24577
12:34:25.085120,-1
12:34:25.085120,-97
12:34:25.085120,-23809
12:34:25.085120,-1
12:34:25.085120,-75
12:34:25.085120,-20225
12:34:25.085120,-1
12:34:25.085120,-92
12:34:25.085120,-18433
12:34:25.085120,-1
12:34:25.085120,-56
12:34:25.085120,-17921
12:34:25.085120,-1
12:34:25.085120,-80
12:34:25.085120,-16641
12:34:25.085120,-1
12:34:25.085120,-59
12:34:25.085120,-17153
12:34:25.085120,-1
12:34:25.085120,-66
12:34:25.085120,-14081
12:34:25.085120,-1
12:34:25.085120,-59
12:34:25.085120,-16641
12:34:25.085120,-1
12:34:25.085120,-54
12:34:25.085120,-11777
12:34:25.085120,-1
12:34:25.085120,-47
12:34:25.085120,-11009
12:34:25.085120,-1
12:34:25.085120,-52
12:34:25.085120,-11777
12:34:25.085120,-1
12:34:25.085120,-35
12:34:25.625211,-40
12:34:25.625211,-11777
12:34:25.625211,-1
12:34:25.625211,-47
12:34:25.625211,-8705
12:34:25.625211,-1
12:34:25.625211,-28
12:34:25.625211,-8193
12:34:25.625211,-1
12:34:25.625211,-35
12:34:25.625211,-5121
12:34:25.625211,-1
12:34:25.625211,-7
12:34:25.625211,-1537
12:34:25.625211,-1
12:34:25.625211,-7
12:34:25.625211,-1537
12:34:25.625211,-1
12:34:25.625211,-4
12:34:25.625211,255
12:34:25.625211,0
12:34:25.625211,-2
12:34:25.625211,-769
12:34:25.625211,-1
12:34:25.625211,0
12:34:25.625211,-512
12:34:25.625211,-1
12:34:25.625211,-11
12:34:25.625211,255
12:34:25.625211,0
12:34:25.625211,9
12:34:25.625211,-512
12:34:25.625211,-1
12:34:25.625211,-4
12:34:25.625211,2047
12:34:25.625211,0
12:34:25.625211,7
12:34:25.625211,0
12:34:25.625211,0
12:34:25.625211,-2
12:34:25.625211,-2049
12:34:25.625211,-1
12:34:25.625211,-11
12:34:25.625211,-1537
12:34:25.625211,-1
12:34:25.625211,-18
12:34:25.625211,-6913
12:34:25.625211,-1
12:34:25.625211,-4
12:34:25.625211,3071
12:34:25.625211,0
12:34:25.625211,18
12:34:25.625211,10752
12:34:25.625211,0
12:34:25.625211,52
12:34:25.625211,13312
12:34:25.625211,0
12:34:25.625211,52
12:34:25.625211,7168
12:34:25.625211,0
12:34:25.625211,18
12:34:25.625211,7680
12:34:25.625211,0
12:34:25.625211,2
12:34:25.625211,-19200
12:34:25.625211,-1
12:34:25.625211,-66
12:34:25.625211,-17409
12:34:25.625211,0
12:34:25.625211,592
12:34:25.625211,22016
12:34:25.625211,3
12:34:25.625211,641
12:34:25.625211,13824
12:34:25.625211,0
12:34:25.625211,-104
12:34:25.625211,-16385
12:34:25.625211,0
12:34:25.625211,170
12:34:25.625211,-8448
12:34:25.625211,-1
12:34:25.625211,0
12:34:25.625211,11264
12:34:25.625211,0
12:34:25.625211,-4
12:34:25.625211,1279
12:34:25.625211,0
12:34:25.625211,35
12:34:25.625211,6656
12:34:25.625211,0
12:34:25.625211,35
12:34:25.625211,15104
12:34:25.625211,0
12:34:25.625211,54
12:34:25.625211,16896
12:34:25.625211,0
12:34:25.625211,99
12:34:25.625211,29696
12:34:25.625211,0
12:34:25.625211,123
12:34:25.625211,-28160
12:34:25.625211,0
12:34:25.625211,172
12:34:25.625211,-13568
12:34:25.625211,0
12:34:25.625211,239
12:34:25.625211,3328
12:34:25.625211,1
12:34:25.625211,310
12:34:26.225072,352
12:34:26.225072,32512
12:34:26.225072,1
12:34:26.225072,404
12:34:26.225072,-20736
12:34:26.225072,1
12:34:26.225072,445
12:34:26.225072,-24576
12:34:26.225072,1
12:34:26.225072,359
12:34:26.225072,4608
12:34:26.225072,1
12:34:26.225072,156
12:34:26.225072,12032
12:34:26.225072,0
