timestamp,ecg,reconstructed_time
2025-11-07 19:34:40.302236,-139,2025-11-07 19:34:40.302236000
2025-11-07 19:34:40.302236,30207,2025-11-07 19:34:40.309928308
2025-11-07 19:34:40.302236,-1,2025-11-07 19:34:40.317620615
2025-11-07 19:34:40.302236,-144,2025-11-07 19:34:40.325312923
2025-11-07 19:34:40.302236,28927,2025-11-07 19:34:40.333005231
2025-11-07 19:34:40.302236,-1,2025-11-07 19:34:40.340697538
2025-11-07 19:34:40.302236,-144,2025-11-07 19:34:40.348389846
2025-11-07 19:34:40.302236,28927,2025-11-07 19:34:40.356082154
2025-11-07 19:34:40.302236,-1,2025-11-07 19:34:40.363774462
2025-11-07 19:34:40.302236,-144,2025-11-07 19:34:40.371466769
2025-11-07 19:34:40.302236,29695,2025-11-07 19:34:40.379159077
2025-11-07 19:34:40.302236,-1,2025-11-07 19:34:40.386851385
2025-11-07 19:34:40.302236,-141,2025-11-07 19:34:40.394543692
2025-11-07 19:34:40.302236,28927,2025-11-07 19:34:40.402236000
2025-11-07 19:34:40.302236,-1,2025-11-07 19:34:40.409928308
2025-11-07 19:34:40.302236,-141,2025-11-07 19:34:40.417620615
2025-11-07 19:34:40.302236,29695,2025-11-07 19:34:40.425312923
2025-11-07 19:34:40.302236,-1,2025-11-07 19:34:40.433005231
2025-11-07 19:34:40.302236,-141,2025-11-07 19:34:40.440697538
2025-11-07 19:34:40.302236,28927,2025-11-07 19:34:40.448389846
2025-11-07 19:34:40.302236,-1,2025-11-07 19:34:40.456082154
2025-11-07 19:34:40.302236,-146,2025-11-07 19:34:40.463774462
2025-11-07 19:34:40.302236,28415,2025-11-07 19:34:40.471466769
2025-11-07 19:34:40.302236,-1,2025-11-07 19:34:40.479159077
2025-11-07 19:34:40.302236,-144,2025-11-07 19:34:40.486851385
2025-11-07 19:34:40.302236,28415,2025-11-07 19:34:40.494543692
2025-11-07 19:34:40.302236,-1,2025-11-07 19:34:40.502236000
2025-11-07 19:34:40.302236,-146,2025-11-07 19:34:40.509928308
2025-11-07 19:34:40.302236,28415,2025-11-07 19:34:40.517620615
2025-11-07 19:34:40.302236,-1,2025-11-07 19:34:40.525312923
2025-11-07 19:34:40.302236,-149,2025-11-07 19:34:40.533005231
2025-11-07 19:34:40.302236,28415,2025-11-07 19:34:40.540697538
2025-11-07 19:34:40.302236,-1,2025-11-07 19:34:40.548389846
2025-11-07 19:34:40.302236,-146,2025-11-07 19:34:40.556082154
2025-11-07 19:34:40.302236,28415,2025-11-07 19:34:40.563774462
2025-11-07 19:34:40.302236,-1,2025-11-07 19:34:40.571466769
2025-11-07 19:34:40.302236,-146,2025-11-07 19:34:40.579159077
2025-11-07 19:34:40.302236,28415,2025-11-07 19:34:40.586851385
2025-11-07 19:34:40.302236,-1,2025-11-07 19:34:40.594543692
2025-11-07 19:34:40.302236,-144,2025-11-07 19:34:40.602236000
2025-11-07 19:34:40.302236,28927,2025-11-07 19:34:40.609928308
2025-11-07 19:34:40.302236,-1,2025-11-07 19:34:40.617620615
2025-11-07 19:34:40.302236,-146,2025-11-07 19:34:40.625312923
2025-11-07 19:34:40.302236,28415,2025-11-07 19:34:40.633005231
2025-11-07 19:34:40.302236,-1,2025-11-07 19:34:40.640697538
2025-11-07 19:34:40.302236,-146,2025-11-07 19:34:40.648389846
2025-11-07 19:34:40.302236,28927,2025-11-07 19:34:40.656082154
2025-11-07 19:34:40.302236,-1,2025-11-07 19:34:40.663774462
2025-11-07 19:34:40.302236,-146,2025-11-07 19:34:40.671466769
2025-11-07 19:34:40.302236,27647,2025-11-07 19:34:40.679159077
2025-11-07 19:34:40.302236,-1,2025-11-07 19:34:40.686851385
2025-11-07 19:34:40.302236,-149,2025-11-07 19:34:40.694543692
2025-11-07 19:34:40.302236,28415,2025-11-07 19:34:40.702236000
2025-11-07 19:34:40.302236,-1,2025-11-07 19:34:40.709928308
2025-11-07 19:34:40.302236,-144,2025-11-07 19:34:40.717620615
2025-11-07 19:34:40.302236,28927,2025-11-07 19:34:40.725312923
2025-11-07 19:34:40.302236,-1,2025-11-07 19:34:40.733005231
2025-11-07 19:34:40.302236,-134,2025-11-07 19:34:40.740697538
2025-11-07 19:34:40.302236,-29697,2025-11-07 19:34:40.748389846
2025-11-07 19:34:40.302236,-1,2025-11-07 19:34:40.756082154
2025-11-07 19:34:40.302236,-112,2025-11-07 19:34:40.763774462
2025-11-07 19:34:40.302236,-28929,2025-11-07 19:34:40.771466769
2025-11-07 19:34:40.302236,-1,2025-11-07 19:34:40.779159077
2025-11-07 19:34:40.302236,-119,2025-11-07 19:34:40.786851385
2025-11-07 19:34:40.302236,28927,2025-11-07 19:34:40.794543692
2025-11-07 19:34:40.302236,-1,2025-11-07 19:34:40.802236000
2025-11-07 19:34:40.302236,-185,2025-11-07 19:34:40.809928308
2025-11-07 19:34:40.302236,15103,2025-11-07 19:34:40.817620615
2025-11-07 19:34:40.302236,-1,2025-11-07 19:34:40.825312923
2025-11-07 19:34:40.302236,-173,2025-11-07 19:34:40.833005230
2025-11-07 19:34:40.302236,25855,2025-11-07 19:34:40.840697538
2025-11-07 19:34:40.302236,-1,2025-11-07 19:34:40.848389846
2025-11-07 19:34:40.302236,-158,2025-11-07 19:34:40.856082154
2025-11-07 19:34:40.302236,24575,2025-11-07 19:34:40.863774462
2025-11-07 19:34:40.302236,-1,2025-11-07 19:34:40.871466769
2025-11-07 19:34:40.302236,-163,2025-11-07 19:34:40.879159077
2025-11-07 19:34:40.302236,23295,2025-11-07 19:34:40.886851385
2025-11-07 19:34:40.302236,-1,2025-11-07 19:34:40.894543692
2025-11-07 19:34:40.302236,-163,2025-11-07 19:34:40.902236000
2025-11-07 19:34:40.302236,23295,2025-11-07 19:34:40.909928308
2025-11-07 19:34:40.302236,-1,2025-11-07 19:34:40.917620615
2025-11-07 19:34:40.302236,-166,2025-11-07 19:34:40.925312923
2025-11-07 19:34:40.302236,31487,2025-11-07 19:34:40.933005231
2025-11-07 19:34:40.302236,-1,2025-11-07 19:34:40.940697538
2025-11-07 19:34:40.302236,7,2025-11-07 19:34:40.948389846
2025-11-07 19:34:40.302236,-9216,2025-11-07 19:34:40.956082154
2025-11-07 19:34:40.302236,0,2025-11-07 19:34:40.963774462
2025-11-07 19:34:40.302236,132,2025-11-07 19:34:40.971466769
2025-11-07 19:34:40.302236,-12288,2025-11-07 19:34:40.979159077
2025-11-07 19:34:40.302236,-3,2025-11-07 19:34:40.986851385
2025-11-07 19:34:40.302236,-1440,2025-11-07 19:34:40.994543692
2025-11-07 19:34:40.302236,-24065,2025-11-07 19:34:41.002236000
2025-11-07 19:34:40.302236,-8,2025-11-07 19:34:41.009928308
2025-11-07 19:34:40.302236,-1790,2025-11-07 19:34:41.017620615
2025-11-07 19:34:40.302236,-11009,2025-11-07 19:34:41.025312923
2025-11-07 19:34:40.302236,-5,2025-11-07 19:34:41.033005231
2025-11-07 19:34:40.302236,-173,2025-11-07 19:34:41.040697538
2025-11-07 19:34:40.302236,4607,2025-11-07 19:34:41.048389846
2025-11-07 19:34:40.302236,0,2025-11-07 19:34:41.056082154
2025-11-07 19:34:40.302236,-114,2025-11-07 19:34:41.063774462
2025-11-07 19:34:40.302236,7679,2025-11-07 19:34:41.071466769
2025-11-07 19:34:40.302236,0,2025-11-07 19:34:41.079159077
2025-11-07 19:34:40.302236,112,2025-11-07 19:34:41.086851385
2025-11-07 19:34:40.302236,7936,2025-11-07 19:34:41.094543692
2025-11-07 19:34:40.302236,0,2025-11-07 19:34:41.102236000
2025-11-07 19:34:40.302236,36,2025-11-07 19:34:41.109928308
2025-11-07 19:34:40.302236,16896,2025-11-07 19:34:41.117620615
2025-11-07 19:34:40.302236,0,2025-11-07 19:34:41.125312923
2025-11-07 19:34:40.302236,36,2025-11-07 19:34:41.133005231
2025-11-07 19:34:40.886820,24,2025-11-07 19:34:41.140697538
2025-11-07 19:34:40.886820,7424,2025-11-07 19:34:41.148389846
2025-11-07 19:34:40.886820,0,2025-11-07 19:34:41.156082154
2025-11-07 19:34:40.886820,17,2025-11-07 19:34:41.163774462
2025-11-07 19:34:40.886820,1024,2025-11-07 19:34:41.171466769
2025-11-07 19:34:40.886820,0,2025-11-07 19:34:41.179159077
2025-11-07 19:34:40.886820,-2,2025-11-07 19:34:41.186851385
2025-11-07 19:34:40.886820,-3329,2025-11-07 19:34:41.194543692
2025-11-07 19:34:40.886820,-1,2025-11-07 19:34:41.202236000
2025-11-07 19:34:40.886820,-24,2025-11-07 19:34:41.209928308
2025-11-07 19:34:40.886820,-7169,2025-11-07 19:34:41.217620615
2025-11-07 19:34:40.886820,-1,2025-11-07 19:34:41.225312923
2025-11-07 19:34:40.886820,-39,2025-11-07 19:34:41.233005231
2025-11-07 19:34:40.886820,-11521,2025-11-07 19:34:41.240697538
2025-11-07 19:34:40.886820,-1,2025-11-07 19:34:41.248389846
2025-11-07 19:34:40.886820,-48,2025-11-07 19:34:41.256082154
2025-11-07 19:34:40.886820,-15873,2025-11-07 19:34:41.263774462
2025-11-07 19:34:40.886820,-1,2025-11-07 19:34:41.271466769
2025-11-07 19:34:40.886820,-85,2025-11-07 19:34:41.279159077
2025-11-07 19:34:40.886820,-25857,2025-11-07 19:34:41.286851385
2025-11-07 19:34:40.886820,-1,2025-11-07 19:34:41.294543692
2025-11-07 19:34:40.886820,-124,2025-11-07 19:34:41.302236000
2025-11-07 19:34:40.886820,27647,2025-11-07 19:34:41.309928308
2025-11-07 19:34:40.886820,-1,2025-11-07 19:34:41.317620615
2025-11-07 19:34:40.886820,-178,2025-11-07 19:34:41.325312923
2025-11-07 19:34:40.886820,14079,2025-11-07 19:34:41.333005231
2025-11-07 19:34:40.886820,-1,2025-11-07 19:34:41.340697538
2025-11-07 19:34:40.886820,-227,2025-11-07 19:34:41.348389846
2025-11-07 19:34:40.886820,3327,2025-11-07 19:34:41.356082154
2025-11-07 19:34:40.886820,-1,2025-11-07 19:34:41.363774462
2025-11-07 19:34:40.886820,-246,2025-11-07 19:34:41.371466769
2025-11-07 19:34:40.886820,4607,2025-11-07 19:34:41.379159077
2025-11-07 19:34:40.886820,-1,2025-11-07 19:34:41.386851385
2025-11-07 19:34:40.886820,-220,2025-11-07 19:34:41.394543692
2025-11-07 19:34:40.886820,19711,2025-11-07 19:34:41.402236000
2025-11-07 19:34:40.886820,-1,2025-11-07 19:34:41.409928308
2025-11-07 19:34:40.886820,-132,2025-11-07 19:34:41.417620615
2025-11-07 19:34:40.886820,-23297,2025-11-07 19:34:41.425312923
2025-11-07 19:34:40.886820,-1,2025-11-07 19:34:41.433005231
2025-11-07 19:34:40.886820,-66,2025-11-07 19:34:41.440697538
2025-11-07 19:34:40.886820,-13313,2025-11-07 19:34:41.448389846
2025-11-07 19:34:40.886820,-1,2025-11-07 19:34:41.456082154
2025-11-07 19:34:40.886820,-41,2025-11-07 19:34:41.463774462
2025-11-07 19:34:40.886820,-8961,2025-11-07 19:34:41.471466769
2025-11-07 19:34:40.886820,-1,2025-11-07 19:34:41.479159077
2025-11-07 19:34:40.886820,-41,2025-11-07 19:34:41.486851385
2025-11-07 19:34:40.886820,-11521,2025-11-07 19:34:41.494543692
2025-11-07 19:34:40.886820,-1,2025-11-07 19:34:41.502236000
2025-11-07 19:34:40.886820,-44,2025-11-07 19:34:41.509928308
2025-11-07 19:34:40.886820,-11009,2025-11-07 19:34:41.517620615
2025-11-07 19:34:40.886820,-1,2025-11-07 19:34:41.525312923
2025-11-07 19:34:40.886820,-53,2025-11-07 19:34:41.533005231
2025-11-07 19:34:40.886820,-15361,2025-11-07 19:34:41.540697538
2025-11-07 19:34:40.886820,-1,2025-11-07 19:34:41.548389846
2025-11-07 19:34:40.886820,-61,2025-11-07 19:34:41.556082154
2025-11-07 19:34:40.886820,-15361,2025-11-07 19:34:41.563774462
2025-11-07 19:34:40.886820,-1,2025-11-07 19:34:41.571466769
2025-11-07 19:34:40.886820,-61,2025-11-07 19:34:41.579159077
2025-11-07 19:34:40.886820,-17153,2025-11-07 19:34:41.586851385
2025-11-07 19:34:40.886820,-1,2025-11-07 19:34:41.594543692
2025-11-07 19:34:40.886820,-73,2025-11-07 19:34:41.602236000
2025-11-07 19:34:40.886820,-17665,2025-11-07 19:34:41.609928308
2025-11-07 19:34:40.886820,-1,2025-11-07 19:34:41.617620615
2025-11-07 19:34:40.886820,-73,2025-11-07 19:34:41.625312923
2025-11-07 19:34:40.886820,-18433,2025-11-07 19:34:41.633005231
2025-11-07 19:34:40.886820,-1,2025-11-07 19:34:41.640697538
2025-11-07 19:34:40.886820,-78,2025-11-07 19:34:41.648389846
2025-11-07 19:34:40.886820,-20225,2025-11-07 19:34:41.656082154
2025-11-07 19:34:40.886820,-1,2025-11-07 19:34:41.663774462
2025-11-07 19:34:40.886820,-80,2025-11-07 19:34:41.671466769
2025-11-07 19:34:40.886820,-21505,2025-11-07 19:34:41.679159077
2025-11-07 19:34:40.886820,-1,2025-11-07 19:34:41.686851385
2025-11-07 19:34:40.886820,-97,2025-11-07 19:34:41.694543692
2025-11-07 19:34:40.886820,-24577,2025-11-07 19:34:41.702236000
2025-11-07 19:34:40.886820,-1,2025-11-07 19:34:41.709928308
2025-11-07 19:34:40.886820,-97,2025-11-07 19:34:41.717620615
2025-11-07 19:34:40.886820,-25857,2025-11-07 19:34:41.725312923
2025-11-07 19:34:40.886820,-1,2025-11-07 19:34:41.733005231
2025-11-07 19:34:40.886820,-105,2025-11-07 19:34:41.740697538
2025-11-07 19:34:40.886820,-26625,2025-11-07 19:34:41.748389846
2025-11-07 19:34:40.886820,-1,2025-11-07 19:34:41.756082154
2025-11-07 19:34:40.886820,-110,2025-11-07 19:34:41.763774462
2025-11-07 19:34:40.886820,-28929,2025-11-07 19:34:41.771466769
2025-11-07 19:34:40.886820,-1,2025-11-07 19:34:41.779159077
2025-11-07 19:34:40.886820,-112,2025-11-07 19:34:41.786851385
2025-11-07 19:34:40.886820,-28417,2025-11-07 19:34:41.794543692
2025-11-07 19:34:40.886820,-1,2025-11-07 19:34:41.802236000
2025-11-07 19:34:40.886820,-119,2025-11-07 19:34:41.809928308
2025-11-07 19:34:40.886820,-30977,2025-11-07 19:34:41.817620615
2025-11-07 19:34:40.886820,-1,2025-11-07 19:34:41.825312923
2025-11-07 19:34:40.886820,-119,2025-11-07 19:34:41.833005230
2025-11-07 19:34:40.886820,-30209,2025-11-07 19:34:41.840697538
2025-11-07 19:34:40.886820,-1,2025-11-07 19:34:41.848389846
2025-11-07 19:34:40.886820,-122,2025-11-07 19:34:41.856082154
2025-11-07 19:34:40.886820,-30977,2025-11-07 19:34:41.863774462
2025-11-07 19:34:40.886820,-1,2025-11-07 19:34:41.871466769
2025-11-07 19:34:40.886820,-122,2025-11-07 19:34:41.879159077
2025-11-07 19:34:40.886820,-30977,2025-11-07 19:34:41.886851385
2025-11-07 19:34:40.886820,-1,2025-11-07 19:34:41.894543692
2025-11-07 19:34:40.886820,-119,2025-11-07 19:34:41.902236000
2025-11-07 19:34:40.886820,-30977,2025-11-07 19:34:41.909928308
2025-11-07 19:34:40.886820,-1,2025-11-07 19:34:41.917620615
2025-11-07 19:34:40.886820,-122,2025-11-07 19:34:41.925312923
2025-11-07 19:34:40.886820,-31489,2025-11-07 19:34:41.933005231
2025-11-07 19:34:40.886820,-1,2025-11-07 19:34:41.940697538
2025-11-07 19:34:40.886820,-127,2025-11-07 19:34:41.948389846
2025-11-07 19:34:40.886820,31999,2025-11-07 19:34:41.956082154
2025-11-07 19:34:40.886820,-1,2025-11-07 19:34:41.963774462
2025-11-07 19:34:40.886820,-132,2025-11-07 19:34:41.971466769
2025-11-07 19:34:41.427107,-129,2025-11-07 19:34:41.979159077
2025-11-07 19:34:41.427107,31999,2025-11-07 19:34:41.986851385
2025-11-07 19:34:41.427107,-1,2025-11-07 19:34:41.994543692
2025-11-07 19:34:41.427107,-134,2025-11-07 19:34:42.002236000
2025-11-07 19:34:41.427107,31487,2025-11-07 19:34:42.009928308
2025-11-07 19:34:41.427107,-1,2025-11-07 19:34:42.017620615
2025-11-07 19:34:41.427107,-134,2025-11-07 19:34:42.025312923
2025-11-07 19:34:41.427107,30975,2025-11-07 19:34:42.033005231
2025-11-07 19:34:41.427107,-1,2025-11-07 19:34:42.040697538
2025-11-07 19:34:41.427107,-136,2025-11-07 19:34:42.048389846
2025-11-07 19:34:41.427107,30207,2025-11-07 19:34:42.056082154
2025-11-07 19:34:41.427107,-1,2025-11-07 19:34:42.063774462
2025-11-07 19:34:41.427107,-149,2025-11-07 19:34:42.071466769
2025-11-07 19:34:41.427107,26367,2025-11-07 19:34:42.079159077
2025-11-07 19:34:41.427107,-1,2025-11-07 19:34:42.086851385
2025-11-07 19:34:41.427107,-139,2025-11-07 19:34:42.094543692
2025-11-07 19:34:41.427107,-32257,2025-11-07 19:34:42.102236000
2025-11-07 19:34:41.427107,-1,2025-11-07 19:34:42.109928308
2025-11-07 19:34:41.427107,-124,2025-11-07 19:34:42.117620615
2025-11-07 19:34:41.427107,-30209,2025-11-07 19:34:42.125312923
2025-11-07 19:34:41.427107,-1,2025-11-07 19:34:42.133005231
2025-11-07 19:34:41.427107,-119,2025-11-07 19:34:42.140697538
2025-11-07 19:34:41.427107,-31489,2025-11-07 19:34:42.148389846
2025-11-07 19:34:41.427107,-1,2025-11-07 19:34:42.156082154
2025-11-07 19:34:41.427107,-124,2025-11-07 19:34:42.163774462
2025-11-07 19:34:41.427107,-30977,2025-11-07 19:34:42.171466769
2025-11-07 19:34:41.427107,-1,2025-11-07 19:34:42.179159077
2025-11-07 19:34:41.427107,-127,2025-11-07 19:34:42.186851385
2025-11-07 19:34:41.427107,32767,2025-11-07 19:34:42.194543692
2025-11-07 19:34:41.427107,-1,2025-11-07 19:34:42.202236000
2025-11-07 19:34:41.427107,-127,2025-11-07 19:34:42.209928308
2025-11-07 19:34:41.427107,-31489,2025-11-07 19:34:42.217620615
2025-11-07 19:34:41.427107,-1,2025-11-07 19:34:42.225312923
2025-11-07 19:34:41.427107,-129,2025-11-07 19:34:42.233005231
2025-11-07 19:34:41.427107,32767,2025-11-07 19:34:42.240697538
2025-11-07 19:34:41.427107,-1,2025-11-07 19:34:42.248389846
2025-11-07 19:34:41.427107,-124,2025-11-07 19:34:42.256082154
2025-11-07 19:34:41.427107,-31489,2025-11-07 19:34:42.263774462
2025-11-07 19:34:41.427107,-1,2025-11-07 19:34:42.271466769
2025-11-07 19:34:41.427107,-129,2025-11-07 19:34:42.279159077
2025-11-07 19:34:41.427107,32767,2025-11-07 19:34:42.286851385
2025-11-07 19:34:41.427107,-1,2025-11-07 19:34:42.294543692
2025-11-07 19:34:41.427107,-122,2025-11-07 19:34:42.302236000
2025-11-07 19:34:41.427107,-27137,2025-11-07 19:34:42.309928308
2025-11-07 19:34:41.427107,-1,2025-11-07 19:34:42.317620615
2025-11-07 19:34:41.427107,-97,2025-11-07 19:34:42.325312923
2025-11-07 19:34:41.427107,-24577,2025-11-07 19:34:42.333005231
2025-11-07 19:34:41.427107,-1,2025-11-07 19:34:42.340697538
2025-11-07 19:34:41.427107,-100,2025-11-07 19:34:42.348389846
2025-11-07 19:34:41.427107,-28417,2025-11-07 19:34:42.356082154
2025-11-07 19:34:41.427107,-1,2025-11-07 19:34:42.363774462
2025-11-07 19:34:41.427107,-154,2025-11-07 19:34:42.371466769
2025-11-07 19:34:41.427107,19711,2025-11-07 19:34:42.379159077
2025-11-07 19:34:41.427107,-1,2025-11-07 19:34:42.386851385
2025-11-07 19:34:41.427107,-158,2025-11-07 19:34:42.394543692
2025-11-07 19:34:41.427107,31487,2025-11-07 19:34:42.402236000
2025-11-07 19:34:41.427107,-1,2025-11-07 19:34:42.409928308
2025-11-07 19:34:41.427107,-139,2025-11-07 19:34:42.417620615
2025-11-07 19:34:41.427107,29695,2025-11-07 19:34:42.425312923
2025-11-07 19:34:41.427107,-1,2025-11-07 19:34:42.433005231
2025-11-07 19:34:41.427107,-139,2025-11-07 19:34:42.440697538
2025-11-07 19:34:41.427107,29695,2025-11-07 19:34:42.448389846
2025-11-07 19:34:41.427107,-1,2025-11-07 19:34:42.456082154
2025-11-07 19:34:41.427107,-139,2025-11-07 19:34:42.463774462
2025-11-07 19:34:41.427107,29695,2025-11-07 19:34:42.471466769
2025-11-07 19:34:41.427107,-1,2025-11-07 19:34:42.479159077
2025-11-07 19:34:41.427107,-141,2025-11-07 19:34:42.486851385
2025-11-07 19:34:41.427107,32767,2025-11-07 19:34:42.494543692
2025-11-07 19:34:41.427107,-1,2025-11-07 19:34:42.502236000
2025-11-07 19:34:41.427107,-51,2025-11-07 19:34:42.509928308
2025-11-07 19:34:41.427107,-27905,2025-11-07 19:34:42.517620615
2025-11-07 19:34:41.427107,0,2025-11-07 19:34:42.525312923
2025-11-07 19:34:41.427107,259,2025-11-07 19:34:42.533005231
2025-11-07 19:34:41.427107,21760,2025-11-07 19:34:42.540697538
2025-11-07 19:34:41.427107,-1,2025-11-07 19:34:42.548389846
2025-11-07 19:34:41.427107,-1061,2025-11-07 19:34:42.556082154
2025-11-07 19:34:41.427107,25343,2025-11-07 19:34:42.563774462
2025-11-07 19:34:41.427107,-7,2025-11-07 19:34:42.571466769
2025-11-07 19:34:41.427107,-1772,2025-11-07 19:34:42.579159077
2025-11-07 19:34:41.427107,-1,2025-11-07 19:34:42.586851385
2025-11-07 19:34:41.427107,-6,2025-11-07 19:34:42.594543692
2025-11-07 19:34:41.427107,-401,2025-11-07 19:34:42.602236000
2025-11-07 19:34:41.427107,767,2025-11-07 19:34:42.609928308
2025-11-07 19:34:41.427107,0,2025-11-07 19:34:42.617620615
2025-11-07 19:34:41.427107,-102,2025-11-07 19:34:42.625312923
2025-11-07 19:34:41.427107,-4097,2025-11-07 19:34:42.633005231
2025-11-07 19:34:41.427107,-1,2025-11-07 19:34:42.640697538
2025-11-07 19:34:41.427107,117,2025-11-07 19:34:42.648389846
2025-11-07 19:34:41.427107,16128,2025-11-07 19:34:42.656082154
2025-11-07 19:34:41.427107,0,2025-11-07 19:34:42.663774462
2025-11-07 19:34:41.427107,41,2025-11-07 19:34:42.671466769
2025-11-07 19:34:41.427107,19200,2025-11-07 19:34:42.679159077
2025-11-07 19:34:41.427107,0,2025-11-07 19:34:42.686851385
2025-11-07 19:34:41.427107,56,2025-11-07 19:34:42.694543692
2025-11-07 19:34:41.427107,7936,2025-11-07 19:34:42.702236000
2025-11-07 19:34:41.427107,0,2025-11-07 19:34:42.709928308
2025-11-07 19:34:41.427107,34,2025-11-07 19:34:42.717620615
2025-11-07 19:34:41.427107,6656,2025-11-07 19:34:42.725312923
2025-11-07 19:34:41.427107,0,2025-11-07 19:34:42.733005231
2025-11-07 19:34:41.427107,12,2025-11-07 19:34:42.740697538
2025-11-07 19:34:41.427107,1792,2025-11-07 19:34:42.748389846
2025-11-07 19:34:41.427107,0,2025-11-07 19:34:42.756082154
2025-11-07 19:34:41.427107,0,2025-11-07 19:34:42.763774462
2025-11-07 19:34:41.427107,-3072,2025-11-07 19:34:42.771466769
2025-11-07 19:34:41.427107,-1,2025-11-07 19:34:42.779159077
2025-11-07 19:34:41.427107,-22,2025-11-07 19:34:42.786851385
2025-11-07 19:34:41.427107,-7681,2025-11-07 19:34:42.794543692
2025-11-07 19:34:41.427107,-1,2025-11-07 19:34:42.802236000
2025-11-07 19:34:41.427107,-44,2025-11-07 19:34:42.809928308
2025-11-07 19:34:41.967491,-56,2025-11-07 19:34:42.817620615
2025-11-07 19:34:41.967491,-17153,2025-11-07 19:34:42.825312923
2025-11-07 19:34:41.967491,-1,2025-11-07 19:34:42.833005230
2025-11-07 19:34:41.967491,-83,2025-11-07 19:34:42.840697538
2025-11-07 19:34:41.967491,-25857,2025-11-07 19:34:42.848389846
2025-11-07 19:34:41.967491,-1,2025-11-07 19:34:42.856082154
2025-11-07 19:34:41.967491,-122,2025-11-07 19:34:42.863774462
2025-11-07 19:34:41.967491,27647,2025-11-07 19:34:42.871466769
2025-11-07 19:34:41.967491,-1,2025-11-07 19:34:42.879159077
2025-11-07 19:34:41.967491,-183,2025-11-07 19:34:42.886851385
2025-11-07 19:34:41.967491,11519,2025-11-07 19:34:42.894543692
2025-11-07 19:34:41.967491,-1,2025-11-07 19:34:42.902236000
2025-11-07 19:34:41.967491,-234,2025-11-07 19:34:42.909928308
2025-11-07 19:34:41.967491,1535,2025-11-07 19:34:42.917620615
2025-11-07 19:34:41.967491,-1,2025-11-07 19:34:42.925312923
2025-11-07 19:34:41.967491,-251,2025-11-07 19:34:42.933005231
2025-11-07 19:34:41.967491,5119,2025-11-07 19:34:42.940697538
2025-11-07 19:34:41.967491,-1,2025-11-07 19:34:42.948389846
2025-11-07 19:34:41.967491,-207,2025-11-07 19:34:42.956082154
2025-11-07 19:34:41.967491,25343,2025-11-07 19:34:42.963774462
2025-11-07 19:34:41.967491,-1,2025-11-07 19:34:42.971466769
2025-11-07 19:34:41.967491,-100,2025-11-07 19:34:42.979159077
2025-11-07 19:34:41.967491,-12033,2025-11-07 19:34:42.986851385
2025-11-07 19:34:41.967491,-1,2025-11-07 19:34:42.994543692
2025-11-07 19:34:41.967491,-17,2025-11-07 19:34:43.002236000
2025-11-07 19:34:41.967491,255,2025-11-07 19:34:43.009928308
2025-11-07 19:34:41.967491,0,2025-11-07 19:34:43.017620615
2025-11-07 19:34:41.967491,12,2025-11-07 19:34:43.025312923
2025-11-07 19:34:41.967491,4352,2025-11-07 19:34:43.033005231
2025-11-07 19:34:41.967491,0,2025-11-07 19:34:43.040697538
2025-11-07 19:34:41.967491,14,2025-11-07 19:34:43.048389846
2025-11-07 19:34:41.967491,3072,2025-11-07 19:34:43.056082154
2025-11-07 19:34:41.967491,0,2025-11-07 19:34:43.063774462
2025-11-07 19:34:41.967491,7,2025-11-07 19:34:43.071466769
2025-11-07 19:34:41.967491,512,2025-11-07 19:34:43.079159077
2025-11-07 19:34:41.967491,0,2025-11-07 19:34:43.086851385
2025-11-07 19:34:41.967491,-2,2025-11-07 19:34:43.094543692
2025-11-07 19:34:41.967491,-1537,2025-11-07 19:34:43.102236000
2025-11-07 19:34:41.967491,-1,2025-11-07 19:34:43.109928308
2025-11-07 19:34:41.967491,-14,2025-11-07 19:34:43.117620615
2025-11-07 19:34:41.967491,-2817,2025-11-07 19:34:43.125312923
2025-11-07 19:34:41.967491,-1,2025-11-07 19:34:43.133005231
2025-11-07 19:34:41.967491,-12,2025-11-07 19:34:43.140697538
2025-11-07 19:34:41.967491,-4097,2025-11-07 19:34:43.148389846
2025-11-07 19:34:41.967491,-1,2025-11-07 19:34:43.156082154
2025-11-07 19:34:41.967491,-22,2025-11-07 19:34:43.163774462
2025-11-07 19:34:41.967491,-5377,2025-11-07 19:34:43.171466769
2025-11-07 19:34:41.967491,-1,2025-11-07 19:34:43.179159077
2025-11-07 19:34:41.967491,-26,2025-11-07 19:34:43.186851385
2025-11-07 19:34:41.967491,-6401,2025-11-07 19:34:43.194543692
2025-11-07 19:34:41.967491,-1,2025-11-07 19:34:43.202236000
2025-11-07 19:34:41.967491,-29,2025-11-07 19:34:43.209928308
2025-11-07 19:34:41.967491,-8961,2025-11-07 19:34:43.217620615
2025-11-07 19:34:41.967491,-1,2025-11-07 19:34:43.225312923
2025-11-07 19:34:41.967491,-44,2025-11-07 19:34:43.233005231
2025-11-07 19:34:41.967491,-12033,2025-11-07 19:34:43.240697538
2025-11-07 19:34:41.967491,-1,2025-11-07 19:34:43.248389846
2025-11-07 19:34:41.967491,-53,2025-11-07 19:34:43.256082154
2025-11-07 19:34:41.967491,-15361,2025-11-07 19:34:43.263774462
2025-11-07 19:34:41.967491,-1,2025-11-07 19:34:43.271466769
2025-11-07 19:34:41.967491,-68,2025-11-07 19:34:43.279159077
2025-11-07 19:34:41.967491,-17665,2025-11-07 19:34:43.286851385
2025-11-07 19:34:41.967491,-1,2025-11-07 19:34:43.294543692
2025-11-07 19:34:41.967491,-73,2025-11-07 19:34:43.302236000
2025-11-07 19:34:41.967491,-18945,2025-11-07 19:34:43.309928308
2025-11-07 19:34:41.967491,-1,2025-11-07 19:34:43.317620615
2025-11-07 19:34:41.967491,-78,2025-11-07 19:34:43.325312923
2025-11-07 19:34:41.967491,-20993,2025-11-07 19:34:43.333005231
2025-11-07 19:34:41.967491,-1,2025-11-07 19:34:43.340697538
2025-11-07 19:34:41.967491,-85,2025-11-07 19:34:43.348389846
2025-11-07 19:34:41.967491,-22273,2025-11-07 19:34:43.356082154
2025-11-07 19:34:41.967491,-1,2025-11-07 19:34:43.363774462
2025-11-07 19:34:41.967491,-90,2025-11-07 19:34:43.371466769
2025-11-07 19:34:41.967491,-24065,2025-11-07 19:34:43.379159077
2025-11-07 19:34:41.967491,-1,2025-11-07 19:34:43.386851385
2025-11-07 19:34:41.967491,-97,2025-11-07 19:34:43.394543692
2025-11-07 19:34:41.967491,-23297,2025-11-07 19:34:43.402236000
2025-11-07 19:34:41.967491,-1,2025-11-07 19:34:43.409928308
2025-11-07 19:34:41.967491,-95,2025-11-07 19:34:43.417620615
2025-11-07 19:34:41.967491,-25345,2025-11-07 19:34:43.425312923
2025-11-07 19:34:41.967491,-1,2025-11-07 19:34:43.433005231
2025-11-07 19:34:41.967491,-100,2025-11-07 19:34:43.440697538
2025-11-07 19:34:41.967491,-25345,2025-11-07 19:34:43.448389846
2025-11-07 19:34:41.967491,-1,2025-11-07 19:34:43.456082154
2025-11-07 19:34:41.967491,-102,2025-11-07 19:34:43.463774462
2025-11-07 19:34:41.967491,-25345,2025-11-07 19:34:43.471466769
2025-11-07 19:34:41.967491,-1,2025-11-07 19:34:43.479159077
2025-11-07 19:34:41.967491,-105,2025-11-07 19:34:43.486851385
2025-11-07 19:34:41.967491,-27137,2025-11-07 19:34:43.494543692
2025-11-07 19:34:41.967491,-1,2025-11-07 19:34:43.502236000
2025-11-07 19:34:41.967491,-107,2025-11-07 19:34:43.509928308
2025-11-07 19:34:41.967491,-27905,2025-11-07 19:34:43.517620615
2025-11-07 19:34:41.967491,-1,2025-11-07 19:34:43.525312923
2025-11-07 19:34:41.967491,-110,2025-11-07 19:34:43.533005231
2025-11-07 19:34:41.967491,-27905,2025-11-07 19:34:43.540697538
2025-11-07 19:34:41.967491,-1,2025-11-07 19:34:43.548389846
2025-11-07 19:34:41.967491,-110,2025-11-07 19:34:43.556082154
2025-11-07 19:34:41.967491,-27905,2025-11-07 19:34:43.563774462
2025-11-07 19:34:41.967491,-1,2025-11-07 19:34:43.571466769
2025-11-07 19:34:41.967491,-110,2025-11-07 19:34:43.579159077
2025-11-07 19:34:41.967491,-28417,2025-11-07 19:34:43.586851385
2025-11-07 19:34:41.967491,-1,2025-11-07 19:34:43.594543692
2025-11-07 19:34:41.967491,-117,2025-11-07 19:34:43.602236000
2025-11-07 19:34:41.967491,-30977,2025-11-07 19:34:43.609928308
2025-11-07 19:34:41.967491,-1,2025-11-07 19:34:43.617620615
2025-11-07 19:34:41.967491,-124,2025-11-07 19:34:43.625312923
2025-11-07 19:34:41.967491,-30977,2025-11-07 19:34:43.633005231
2025-11-07 19:34:41.967491,-1,2025-11-07 19:34:43.640697538
2025-11-07 19:34:41.967491,-117,2025-11-07 19:34:43.648389846
2025-11-07 19:34:42.552568,-117,2025-11-07 19:34:43.656082154
2025-11-07 19:34:42.552568,-29697,2025-11-07 19:34:43.663774462
2025-11-07 19:34:42.552568,-1,2025-11-07 19:34:43.671466769
2025-11-07 19:34:42.552568,-114,2025-11-07 19:34:43.679159077
2025-11-07 19:34:42.552568,-29697,2025-11-07 19:34:43.686851385
2025-11-07 19:34:42.552568,-1,2025-11-07 19:34:43.694543692
2025-11-07 19:34:42.552568,-117,2025-11-07 19:34:43.702236000
2025-11-07 19:34:42.552568,-29697,2025-11-07 19:34:43.709928308
2025-11-07 19:34:42.552568,-1,2025-11-07 19:34:43.717620615
2025-11-07 19:34:42.552568,-117,2025-11-07 19:34:43.725312923
2025-11-07 19:34:42.552568,-27137,2025-11-07 19:34:43.733005231
2025-11-07 19:34:42.552568,-1,2025-11-07 19:34:43.740697538
2025-11-07 19:34:42.552568,-100,2025-11-07 19:34:43.748389846
2025-11-07 19:34:42.552568,-27137,2025-11-07 19:34:43.756082154
2025-11-07 19:34:42.552568,-1,2025-11-07 19:34:43.763774462
2025-11-07 19:34:42.552568,-110,2025-11-07 19:34:43.771466769
2025-11-07 19:34:42.552568,-27137,2025-11-07 19:34:43.779159077
2025-11-07 19:34:42.552568,-1,2025-11-07 19:34:43.786851385
2025-11-07 19:34:42.552568,-110,2025-11-07 19:34:43.794543692
2025-11-07 19:34:42.552568,-28417,2025-11-07 19:34:43.802236000
2025-11-07 19:34:42.552568,-1,2025-11-07 19:34:43.809928308
2025-11-07 19:34:42.552568,-112,2025-11-07 19:34:43.817620615
2025-11-07 19:34:42.552568,-28929,2025-11-07 19:34:43.825312923
2025-11-07 19:34:42.552568,-1,2025-11-07 19:34:43.833005230
2025-11-07 19:34:42.552568,-117,2025-11-07 19:34:43.840697538
2025-11-07 19:34:42.552568,-29697,2025-11-07 19:34:43.848389846
2025-11-07 19:34:42.552568,-1,2025-11-07 19:34:43.856082154
2025-11-07 19:34:42.552568,-117,2025-11-07 19:34:43.863774462
2025-11-07 19:34:42.552568,-30977,2025-11-07 19:34:43.871466769
2025-11-07 19:34:42.552568,-1,2025-11-07 19:34:43.879159077
2025-11-07 19:34:42.552568,-122,2025-11-07 19:34:43.886851385
2025-11-07 19:34:42.552568,-30977,2025-11-07 19:34:43.894543692
2025-11-07 19:34:42.552568,-1,2025-11-07 19:34:43.902236000
2025-11-07 19:34:42.552568,-122,2025-11-07 19:34:43.909928308
2025-11-07 19:34:42.552568,-30209,2025-11-07 19:34:43.917620615
2025-11-07 19:34:42.552568,-1,2025-11-07 19:34:43.925312923
2025-11-07 19:34:42.552568,-119,2025-11-07 19:34:43.933005231
2025-11-07 19:34:42.552568,-29697,2025-11-07 19:34:43.940697538
2025-11-07 19:34:42.552568,-1,2025-11-07 19:34:43.948389846
2025-11-07 19:34:42.552568,-114,2025-11-07 19:34:43.956082154
2025-11-07 19:34:42.552568,-28417,2025-11-07 19:34:43.963774462
2025-11-07 19:34:42.552568,-1,2025-11-07 19:34:43.971466769
2025-11-07 19:34:42.552568,-102,2025-11-07 19:34:43.979159077
2025-11-07 19:34:42.552568,-22785,2025-11-07 19:34:43.986851385
2025-11-07 19:34:42.552568,-1,2025-11-07 19:34:43.994543692
2025-11-07 19:34:42.552568,-83,2025-11-07 19:34:44.002236000
2025-11-07 19:34:42.552568,-22273,2025-11-07 19:34:44.009928308
2025-11-07 19:34:42.552568,-1,2025-11-07 19:34:44.017620615
2025-11-07 19:34:42.552568,-95,2025-11-07 19:34:44.025312923
2025-11-07 19:34:42.552568,-30977,2025-11-07 19:34:44.033005231
2025-11-07 19:34:42.552568,-1,2025-11-07 19:34:44.040697538
2025-11-07 19:34:42.552568,-161,2025-11-07 19:34:44.048389846
2025-11-07 19:34:42.552568,23295,2025-11-07 19:34:44.056082154
2025-11-07 19:34:42.552568,-1,2025-11-07 19:34:44.063774462
2025-11-07 19:34:42.552568,-141,2025-11-07 19:34:44.071466769
2025-11-07 19:34:42.552568,31999,2025-11-07 19:34:44.079159077
2025-11-07 19:34:42.552568,-1,2025-11-07 19:34:44.086851385
2025-11-07 19:34:42.552568,-134,2025-11-07 19:34:44.094543692
2025-11-07 19:34:42.552568,31999,2025-11-07 19:34:44.102236000
2025-11-07 19:34:42.552568,-1,2025-11-07 19:34:44.109928308
2025-11-07 19:34:42.552568,-134,2025-11-07 19:34:44.117620615
2025-11-07 19:34:42.552568,30207,2025-11-07 19:34:44.125312923
2025-11-07 19:34:42.552568,-1,2025-11-07 19:34:44.133005231
2025-11-07 19:34:42.552568,-136,2025-11-07 19:34:44.140697538
2025-11-07 19:34:42.552568,30975,2025-11-07 19:34:44.148389846
2025-11-07 19:34:42.552568,-1,2025-11-07 19:34:44.156082154
2025-11-07 19:34:42.552568,-132,2025-11-07 19:34:44.163774462
2025-11-07 19:34:42.552568,-20993,2025-11-07 19:34:44.171466769
2025-11-07 19:34:42.552568,-1,2025-11-07 19:34:44.179159077
2025-11-07 19:34:42.552568,85,2025-11-07 19:34:44.186851385
2025-11-07 19:34:42.552568,4352,2025-11-07 19:34:44.194543692
2025-11-07 19:34:42.552568,1,2025-11-07 19:34:44.202236000
2025-11-07 19:34:42.552568,53,2025-11-07 19:34:44.209928308
2025-11-07 19:34:42.552568,6400,2025-11-07 19:34:44.217620615
2025-11-07 19:34:42.552568,-3,2025-11-07 19:34:44.225312923
2025-11-07 19:34:42.552568,-1562,2025-11-07 19:34:44.233005231
2025-11-07 19:34:42.552568,-26113,2025-11-07 19:34:44.240697538
2025-11-07 19:34:42.552568,-8,2025-11-07 19:34:44.248389846
2025-11-07 19:34:42.552568,-1675,2025-11-07 19:34:44.256082154
2025-11-07 19:34:42.552568,-13313,2025-11-07 19:34:44.263774462
2025-11-07 19:34:42.552568,-4,2025-11-07 19:34:44.271466769
2025-11-07 19:34:42.552568,-17,2025-11-07 19:34:44.279159077
2025-11-07 19:34:42.552568,4607,2025-11-07 19:34:44.286851385
2025-11-07 19:34:42.552568,0,2025-11-07 19:34:44.294543692
2025-11-07 19:34:42.552568,-75,2025-11-07 19:34:44.302236000
2025-11-07 19:34:42.552568,26367,2025-11-07 19:34:44.309928308
2025-11-07 19:34:42.552568,0,2025-11-07 19:34:44.317620615
2025-11-07 19:34:42.552568,132,2025-11-07 19:34:44.325312923
2025-11-07 19:34:42.552568,13568,2025-11-07 19:34:44.333005231
2025-11-07 19:34:42.552568,0,2025-11-07 19:34:44.340697538
2025-11-07 19:34:42.552568,75,2025-11-07 19:34:44.348389846
2025-11-07 19:34:42.552568,23040,2025-11-07 19:34:44.356082154
2025-11-07 19:34:42.552568,0,2025-11-07 19:34:44.363774462
2025-11-07 19:34:42.552568,51,2025-11-07 19:34:44.371466769
2025-11-07 19:34:42.552568,11264,2025-11-07 19:34:44.379159077
2025-11-07 19:34:42.552568,0,2025-11-07 19:34:44.386851385
2025-11-07 19:34:42.552568,48,2025-11-07 19:34:44.394543692
2025-11-07 19:34:42.552568,7936,2025-11-07 19:34:44.402236000
2025-11-07 19:34:42.552568,0,2025-11-07 19:34:44.409928308
2025-11-07 19:34:42.552568,22,2025-11-07 19:34:44.417620615
2025-11-07 19:34:42.552568,5632,2025-11-07 19:34:44.425312923
2025-11-07 19:34:42.552568,0,2025-11-07 19:34:44.433005231
2025-11-07 19:34:42.552568,9,2025-11-07 19:34:44.440697538
2025-11-07 19:34:42.552568,0,2025-11-07 19:34:44.448389846
2025-11-07 19:34:42.552568,0,2025-11-07 19:34:44.456082154
2025-11-07 19:34:42.552568,-4,2025-11-07 19:34:44.463774462
2025-11-07 19:34:42.552568,-2817,2025-11-07 19:34:44.471466769
2025-11-07 19:34:42.552568,-1,2025-11-07 19:34:44.479159077
2025-11-07 19:34:42.552568,-22,2025-11-07 19:34:44.486851385
2025-11-07 19:34:43.092606,-36,2025-11-07 19:34:44.494543692
2025-11-07 19:34:43.092606,-12801,2025-11-07 19:34:44.502236000
2025-11-07 19:34:43.092606,-1,2025-11-07 19:34:44.509928308
2025-11-07 19:34:43.092606,-66,2025-11-07 19:34:44.517620615
2025-11-07 19:34:43.092606,-21505,2025-11-07 19:34:44.525312923
2025-11-07 19:34:43.092606,-1,2025-11-07 19:34:44.533005231
2025-11-07 19:34:43.092606,-107,2025-11-07 19:34:44.540697538
2025-11-07 19:34:43.092606,31999,2025-11-07 19:34:44.548389846
2025-11-07 19:34:43.092606,-1,2025-11-07 19:34:44.556082154
2025-11-07 19:34:43.092606,-163,2025-11-07 19:34:44.563774462
2025-11-07 19:34:43.092606,16383,2025-11-07 19:34:44.571466769
2025-11-07 19:34:43.092606,-1,2025-11-07 19:34:44.579159077
2025-11-07 19:34:43.092606,-212,2025-11-07 19:34:44.586851385
2025-11-07 19:34:43.092606,8447,2025-11-07 19:34:44.594543692
2025-11-07 19:34:43.092606,-1,2025-11-07 19:34:44.602236000
2025-11-07 19:34:43.092606,-224,2025-11-07 19:34:44.609928308
2025-11-07 19:34:43.092606,12031,2025-11-07 19:34:44.617620615
2025-11-07 19:34:43.092606,-1,2025-11-07 19:34:44.625312923
2025-11-07 19:34:43.092606,-183,2025-11-07 19:34:44.633005231
2025-11-07 19:34:43.092606,29695,2025-11-07 19:34:44.640697538
2025-11-07 19:34:43.092606,-1,2025-11-07 19:34:44.648389846
2025-11-07 19:34:43.092606,-90,2025-11-07 19:34:44.656082154
2025-11-07 19:34:43.092606,-13313,2025-11-07 19:34:44.663774462
2025-11-07 19:34:43.092606,-1,2025-11-07 19:34:44.671466769
2025-11-07 19:34:43.092606,-29,2025-11-07 19:34:44.679159077
2025-11-07 19:34:43.092606,-3329,2025-11-07 19:34:44.686851385
2025-11-07 19:34:43.092606,-1,2025-11-07 19:34:44.694543692
2025-11-07 19:34:43.092606,-4,2025-11-07 19:34:44.702236000
2025-11-07 19:34:43.092606,-769,2025-11-07 19:34:44.709928308
2025-11-07 19:34:43.092606,-1,2025-11-07 19:34:44.717620615
2025-11-07 19:34:43.092606,-7,2025-11-07 19:34:44.725312923
2025-11-07 19:34:43.092606,-2049,2025-11-07 19:34:44.733005231
2025-11-07 19:34:43.092606,-1,2025-11-07 19:34:44.740697538
2025-11-07 19:34:43.092606,-12,2025-11-07 19:34:44.748389846
2025-11-07 19:34:43.092606,-4609,2025-11-07 19:34:44.756082154
2025-11-07 19:34:43.092606,-1,2025-11-07 19:34:44.763774462
2025-11-07 19:34:43.092606,-26,2025-11-07 19:34:44.771466769
2025-11-07 19:34:43.092606,-8449,2025-11-07 19:34:44.779159077
2025-11-07 19:34:43.092606,-1,2025-11-07 19:34:44.786851385
2025-11-07 19:34:43.092606,-36,2025-11-07 19:34:44.794543692
2025-11-07 19:34:43.092606,-10241,2025-11-07 19:34:44.802236000
2025-11-07 19:34:43.092606,-1,2025-11-07 19:34:44.809928308
2025-11-07 19:34:43.092606,-44,2025-11-07 19:34:44.817620615
2025-11-07 19:34:43.092606,-11521,2025-11-07 19:34:44.825312923
2025-11-07 19:34:43.092606,-1,2025-11-07 19:34:44.833005230
2025-11-07 19:34:43.092606,-48,2025-11-07 19:34:44.840697538
2025-11-07 19:34:43.092606,-12801,2025-11-07 19:34:44.848389846
2025-11-07 19:34:43.092606,-1,2025-11-07 19:34:44.856082154
2025-11-07 19:34:43.092606,-56,2025-11-07 19:34:44.863774462
2025-11-07 19:34:43.092606,-14081,2025-11-07 19:34:44.871466769
2025-11-07 19:34:43.092606,-1,2025-11-07 19:34:44.879159077
2025-11-07 19:34:43.092606,-63,2025-11-07 19:34:44.886851385
2025-11-07 19:34:43.092606,-16641,2025-11-07 19:34:44.894543692
2025-11-07 19:34:43.092606,-1,2025-11-07 19:34:44.902236000
2025-11-07 19:34:43.092606,-66,2025-11-07 19:34:44.909928308
2025-11-07 19:34:43.092606,-17665,2025-11-07 19:34:44.917620615
2025-11-07 19:34:43.092606,-1,2025-11-07 19:34:44.925312923
2025-11-07 19:34:43.092606,-75,2025-11-07 19:34:44.933005231
2025-11-07 19:34:43.092606,-19713,2025-11-07 19:34:44.940697538
2025-11-07 19:34:43.092606,-1,2025-11-07 19:34:44.948389846
2025-11-07 19:34:43.092606,-80,2025-11-07 19:34:44.956082154
2025-11-07 19:34:43.092606,-21505,2025-11-07 19:34:44.963774462
2025-11-07 19:34:43.092606,-1,2025-11-07 19:34:44.971466769
2025-11-07 19:34:43.092606,-92,2025-11-07 19:34:44.979159077
2025-11-07 19:34:43.092606,-24065,2025-11-07 19:34:44.986851385
2025-11-07 19:34:43.092606,-1,2025-11-07 19:34:44.994543692
2025-11-07 19:34:43.092606,-95,2025-11-07 19:34:45.002236000
2025-11-07 19:34:43.092606,-25345,2025-11-07 19:34:45.009928308
2025-11-07 19:34:43.092606,-1,2025-11-07 19:34:45.017620615
2025-11-07 19:34:43.092606,-102,2025-11-07 19:34:45.025312923
2025-11-07 19:34:43.092606,-25857,2025-11-07 19:34:45.033005231
2025-11-07 19:34:43.092606,-1,2025-11-07 19:34:45.040697538
2025-11-07 19:34:43.092606,-107,2025-11-07 19:34:45.048389846
2025-11-07 19:34:43.092606,-27905,2025-11-07 19:34:45.056082154
2025-11-07 19:34:43.092606,-1,2025-11-07 19:34:45.063774462
2025-11-07 19:34:43.092606,-112,2025-11-07 19:34:45.071466769
2025-11-07 19:34:43.092606,-28417,2025-11-07 19:34:45.079159077
2025-11-07 19:34:43.092606,-1,2025-11-07 19:34:45.086851385
2025-11-07 19:34:43.092606,-112,2025-11-07 19:34:45.094543692
2025-11-07 19:34:43.092606,-29697,2025-11-07 19:34:45.102236000
2025-11-07 19:34:43.092606,-1,2025-11-07 19:34:45.109928308
2025-11-07 19:34:43.092606,-117,2025-11-07 19:34:45.117620615
2025-11-07 19:34:43.092606,-29697,2025-11-07 19:34:45.125312923
2025-11-07 19:34:43.092606,-1,2025-11-07 19:34:45.133005231
2025-11-07 19:34:43.092606,-119,2025-11-07 19:34:45.140697538
2025-11-07 19:34:43.092606,-30977,2025-11-07 19:34:45.148389846
2025-11-07 19:34:43.092606,-1,2025-11-07 19:34:45.156082154
2025-11-07 19:34:43.092606,-124,2025-11-07 19:34:45.163774462
2025-11-07 19:34:43.092606,-32257,2025-11-07 19:34:45.171466769
2025-11-07 19:34:43.092606,-1,2025-11-07 19:34:45.179159077
2025-11-07 19:34:43.092606,-127,2025-11-07 19:34:45.186851385
2025-11-07 19:34:43.092606,32767,2025-11-07 19:34:45.194543692
2025-11-07 19:34:43.092606,-1,2025-11-07 19:34:45.202236000
2025-11-07 19:34:43.092606,-127,2025-11-07 19:34:45.209928308
2025-11-07 19:34:43.092606,32767,2025-11-07 19:34:45.217620615
2025-11-07 19:34:43.092606,-1,2025-11-07 19:34:45.225312923
2025-11-07 19:34:43.092606,-132,2025-11-07 19:34:45.233005231
2025-11-07 19:34:43.092606,31999,2025-11-07 19:34:45.240697538
2025-11-07 19:34:43.092606,-1,2025-11-07 19:34:45.248389846
2025-11-07 19:34:43.092606,-132,2025-11-07 19:34:45.256082154
2025-11-07 19:34:43.092606,31487,2025-11-07 19:34:45.263774462
2025-11-07 19:34:43.092606,-1,2025-11-07 19:34:45.271466769
2025-11-07 19:34:43.092606,-136,2025-11-07 19:34:45.279159077
2025-11-07 19:34:43.092606,31487,2025-11-07 19:34:45.286851385
2025-11-07 19:34:43.092606,-1,2025-11-07 19:34:45.294543692
2025-11-07 19:34:43.092606,-134,2025-11-07 19:34:45.302236000
2025-11-07 19:34:43.092606,30975,2025-11-07 19:34:45.309928308
2025-11-07 19:34:43.092606,-1,2025-11-07 19:34:45.317620615
2025-11-07 19:34:43.092606,-139,2025-11-07 19:34:45.325312923
2025-11-07 19:34:43.678589,-139,2025-11-07 19:34:45.333005231
2025-11-07 19:34:43.678589,30207,2025-11-07 19:34:45.340697538
2025-11-07 19:34:43.678589,-1,2025-11-07 19:34:45.348389846
2025-11-07 19:34:43.678589,-134,2025-11-07 19:34:45.356082154
2025-11-07 19:34:43.678589,31487,2025-11-07 19:34:45.363774462
2025-11-07 19:34:43.678589,-1,2025-11-07 19:34:45.371466769
2025-11-07 19:34:43.678589,-136,2025-11-07 19:34:45.379159077
2025-11-07 19:34:43.678589,31487,2025-11-07 19:34:45.386851385
2025-11-07 19:34:43.678589,-1,2025-11-07 19:34:45.394543692
2025-11-07 19:34:43.678589,-132,2025-11-07 19:34:45.402236000
2025-11-07 19:34:43.678589,-32257,2025-11-07 19:34:45.409928308
2025-11-07 19:34:43.678589,-1,2025-11-07 19:34:45.417620615
2025-11-07 19:34:43.678589,-119,2025-11-07 19:34:45.425312923
2025-11-07 19:34:43.678589,-29697,2025-11-07 19:34:45.433005231
2025-11-07 19:34:43.678589,-1,2025-11-07 19:34:45.440697538
2025-11-07 19:34:43.678589,-122,2025-11-07 19:34:45.448389846
2025-11-07 19:34:43.678589,-31489,2025-11-07 19:34:45.456082154
2025-11-07 19:34:43.678589,-1,2025-11-07 19:34:45.463774462
2025-11-07 19:34:43.678589,-124,2025-11-07 19:34:45.471466769
2025-11-07 19:34:43.678589,-32257,2025-11-07 19:34:45.479159077
2025-11-07 19:34:43.678589,-1,2025-11-07 19:34:45.486851385
2025-11-07 19:34:43.678589,-127,2025-11-07 19:34:45.494543692
2025-11-07 19:34:43.678589,-31489,2025-11-07 19:34:45.502236000
2025-11-07 19:34:43.678589,-1,2025-11-07 19:34:45.509928308
2025-11-07 19:34:43.678589,-127,2025-11-07 19:34:45.517620615
2025-11-07 19:34:43.678589,32767,2025-11-07 19:34:45.525312923
2025-11-07 19:34:43.678589,-1,2025-11-07 19:34:45.533005231
2025-11-07 19:34:43.678589,-129,2025-11-07 19:34:45.540697538
2025-11-07 19:34:43.678589,-32257,2025-11-07 19:34:45.548389846
2025-11-07 19:34:43.678589,-1,2025-11-07 19:34:45.556082154
2025-11-07 19:34:43.678589,-127,2025-11-07 19:34:45.563774462
2025-11-07 19:34:43.678589,31999,2025-11-07 19:34:45.571466769
2025-11-07 19:34:43.678589,-1,2025-11-07 19:34:45.579159077
2025-11-07 19:34:43.678589,-134,2025-11-07 19:34:45.586851385
2025-11-07 19:34:43.678589,31487,2025-11-07 19:34:45.594543692
2025-11-07 19:34:43.678589,-1,2025-11-07 19:34:45.602236000
2025-11-07 19:34:43.678589,-136,2025-11-07 19:34:45.609928308
2025-11-07 19:34:43.678589,31487,2025-11-07 19:34:45.617620615
2025-11-07 19:34:43.678589,-1,2025-11-07 19:34:45.625312923
2025-11-07 19:34:43.678589,-134,2025-11-07 19:34:45.633005231
2025-11-07 19:34:43.678589,30207,2025-11-07 19:34:45.640697538
2025-11-07 19:34:43.678589,-1,2025-11-07 19:34:45.648389846
2025-11-07 19:34:43.678589,-136,2025-11-07 19:34:45.656082154
2025-11-07 19:34:43.678589,31999,2025-11-07 19:34:45.663774462
2025-11-07 19:34:43.678589,-1,2025-11-07 19:34:45.671466769
2025-11-07 19:34:43.678589,-134,2025-11-07 19:34:45.679159077
2025-11-07 19:34:43.678589,31999,2025-11-07 19:34:45.686851385
2025-11-07 19:34:43.678589,-1,2025-11-07 19:34:45.694543692
2025-11-07 19:34:43.678589,-129,2025-11-07 19:34:45.702236000
2025-11-07 19:34:43.678589,-30977,2025-11-07 19:34:45.709928308
2025-11-07 19:34:43.678589,-1,2025-11-07 19:34:45.717620615
2025-11-07 19:34:43.678589,-114,2025-11-07 19:34:45.725312923
2025-11-07 19:34:43.678589,-26625,2025-11-07 19:34:45.733005231
2025-11-07 19:34:43.678589,-1,2025-11-07 19:34:45.740697538
2025-11-07 19:34:43.678589,-102,2025-11-07 19:34:45.748389846
2025-11-07 19:34:43.678589,-25857,2025-11-07 19:34:45.756082154
2025-11-07 19:34:43.678589,-1,2025-11-07 19:34:45.763774462
2025-11-07 19:34:43.678589,-117,2025-11-07 19:34:45.771466769
2025-11-07 19:34:43.678589,24575,2025-11-07 19:34:45.779159077
2025-11-07 19:34:43.678589,-1,2025-11-07 19:34:45.786851385
2025-11-07 19:34:43.678589,-188,2025-11-07 19:34:45.794543692
2025-11-07 19:34:43.678589,22783,2025-11-07 19:34:45.802236000
2025-11-07 19:34:43.678589,-1,2025-11-07 19:34:45.809928308
2025-11-07 19:34:43.678589,-146,2025-11-07 19:34:45.817620615
2025-11-07 19:34:43.678589,29695,2025-11-07 19:34:45.825312923
2025-11-07 19:34:43.678589,-1,2025-11-07 19:34:45.833005230
2025-11-07 19:34:43.678589,-144,2025-11-07 19:34:45.840697538
2025-11-07 19:34:43.678589,27647,2025-11-07 19:34:45.848389846
2025-11-07 19:34:43.678589,-1,2025-11-07 19:34:45.856082154
2025-11-07 19:34:43.678589,-154,2025-11-07 19:34:45.863774462
2025-11-07 19:34:43.678589,26367,2025-11-07 19:34:45.871466769
2025-11-07 19:34:43.678589,-1,2025-11-07 19:34:45.879159077
2025-11-07 19:34:43.678589,-154,2025-11-07 19:34:45.886851385
2025-11-07 19:34:43.678589,27135,2025-11-07 19:34:45.894543692
2025-11-07 19:34:43.678589,-1,2025-11-07 19:34:45.902236000
2025-11-07 19:34:43.678589,-134,2025-11-07 19:34:45.909928308
2025-11-07 19:34:43.678589,-7169,2025-11-07 19:34:45.917620615
2025-11-07 19:34:43.678589,-1,2025-11-07 19:34:45.925312923
2025-11-07 19:34:43.678589,180,2025-11-07 19:34:45.933005231
2025-11-07 19:34:43.678589,-16896,2025-11-07 19:34:45.940697538
2025-11-07 19:34:43.678589,0,2025-11-07 19:34:45.948389846
2025-11-07 19:34:43.678589,-396,2025-11-07 19:34:45.956082154
2025-11-07 19:34:43.678589,-4353,2025-11-07 19:34:45.963774462
2025-11-07 19:34:43.678589,-6,2025-11-07 19:34:45.971466769
2025-11-07 19:34:43.678589,-1821,2025-11-07 19:34:45.979159077
2025-11-07 19:34:43.678589,-257,2025-11-07 19:34:45.986851385
2025-11-07 19:34:43.678589,-8,2025-11-07 19:34:45.994543692
2025-11-07 19:34:43.678589,-1168,2025-11-07 19:34:46.002236000
2025-11-07 19:34:43.678589,-1793,2025-11-07 19:34:46.009928308
2025-11-07 19:34:43.678589,-2,2025-11-07 19:34:46.017620615
2025-11-07 19:34:43.678589,26,2025-11-07 19:34:46.025312923
2025-11-07 19:34:43.678589,-26880,2025-11-07 19:34:46.033005231
2025-11-07 19:34:43.678589,-1,2025-11-07 19:34:46.040697538
2025-11-07 19:34:43.678589,4,2025-11-07 19:34:46.048389846
2025-11-07 19:34:43.678589,28160,2025-11-07 19:34:46.056082154
2025-11-07 19:34:43.678589,0,2025-11-07 19:34:46.063774462
2025-11-07 19:34:43.678589,44,2025-11-07 19:34:46.071466769
2025-11-07 19:34:43.678589,8704,2025-11-07 19:34:46.079159077
2025-11-07 19:34:43.678589,0,2025-11-07 19:34:46.086851385
2025-11-07 19:34:43.678589,66,2025-11-07 19:34:46.094543692
2025-11-07 19:34:43.678589,10496,2025-11-07 19:34:46.102236000
2025-11-07 19:34:43.678589,0,2025-11-07 19:34:46.109928308
2025-11-07 19:34:43.678589,19,2025-11-07 19:34:46.117620615
2025-11-07 19:34:43.678589,5632,2025-11-07 19:34:46.125312923
2025-11-07 19:34:43.678589,0,2025-11-07 19:34:46.133005231
2025-11-07 19:34:43.678589,14,2025-11-07 19:34:46.140697538
2025-11-07 19:34:43.678589,-512,2025-11-07 19:34:46.148389846
2025-11-07 19:34:43.678589,-1,2025-11-07 19:34:46.156082154
2025-11-07 19:34:43.678589,-7,2025-11-07 19:34:46.163774462
2025-11-07 19:34:44.217077,-12,2025-11-07 19:34:46.171466769
2025-11-07 19:34:44.217077,-5377,2025-11-07 19:34:46.179159077
2025-11-07 19:34:44.217077,-1,2025-11-07 19:34:46.186851385
2025-11-07 19:34:44.217077,-31,2025-11-07 19:34:46.194543692
2025-11-07 19:34:44.217077,-11009,2025-11-07 19:34:46.202236000
2025-11-07 19:34:44.217077,-1,2025-11-07 19:34:46.209928308
2025-11-07 19:34:44.217077,-56,2025-11-07 19:34:46.217620615
2025-11-07 19:34:44.217077,-15873,2025-11-07 19:34:46.225312923
2025-11-07 19:34:44.217077,-1,2025-11-07 19:34:46.233005231
2025-11-07 19:34:44.217077,-78,2025-11-07 19:34:46.240697538
2025-11-07 19:34:44.217077,-24065,2025-11-07 19:34:46.248389846
2025-11-07 19:34:44.217077,-1,2025-11-07 19:34:46.256082154
2025-11-07 19:34:44.217077,-110,2025-11-07 19:34:46.263774462
2025-11-07 19:34:44.217077,31999,2025-11-07 19:34:46.271466769
2025-11-07 19:34:44.217077,-1,2025-11-07 19:34:46.279159077
2025-11-07 19:34:44.217077,-154,2025-11-07 19:34:46.286851385
2025-11-07 19:34:44.217077,21503,2025-11-07 19:34:46.294543692
2025-11-07 19:34:44.217077,-1,2025-11-07 19:34:46.302236000
2025-11-07 19:34:44.217077,-198,2025-11-07 19:34:46.309928308
2025-11-07 19:34:44.217077,7679,2025-11-07 19:34:46.317620615
2025-11-07 19:34:44.217077,-1,2025-11-07 19:34:46.325312923
2025-11-07 19:34:44.217077,-239,2025-11-07 19:34:46.333005231
2025-11-07 19:34:44.217077,3327,2025-11-07 19:34:46.340697538
2025-11-07 19:34:44.217077,-1,2025-11-07 19:34:46.348389846
2025-11-07 19:34:44.217077,-244,2025-11-07 19:34:46.356082154
2025-11-07 19:34:44.217077,8447,2025-11-07 19:34:46.363774462
2025-11-07 19:34:44.217077,-1,2025-11-07 19:34:46.371466769
2025-11-07 19:34:44.217077,-183,2025-11-07 19:34:46.379159077
2025-11-07 19:34:44.217077,31487,2025-11-07 19:34:46.386851385
2025-11-07 19:34:44.217077,-1,2025-11-07 19:34:46.394543692
2025-11-07 19:34:44.217077,-88,2025-11-07 19:34:46.402236000
2025-11-07 19:34:44.217077,-13313,2025-11-07 19:34:46.409928308
2025-11-07 19:34:44.217077,-1,2025-11-07 19:34:46.417620615
2025-11-07 19:34:44.217077,-34,2025-11-07 19:34:46.425312923
2025-11-07 19:34:44.217077,-5377,2025-11-07 19:34:46.433005231
2025-11-07 19:34:44.217077,-1,2025-11-07 19:34:46.440697538
2025-11-07 19:34:44.217077,-17,2025-11-07 19:34:46.448389846
2025-11-07 19:34:44.217077,-4097,2025-11-07 19:34:46.456082154
2025-11-07 19:34:44.217077,-1,2025-11-07 19:34:46.463774462
2025-11-07 19:34:44.217077,-22,2025-11-07 19:34:46.471466769
2025-11-07 19:34:44.217077,-6401,2025-11-07 19:34:46.479159077
2025-11-07 19:34:44.217077,-1,2025-11-07 19:34:46.486851385
2025-11-07 19:34:44.217077,-29,2025-11-07 19:34:46.494543692
2025-11-07 19:34:44.217077,-8449,2025-11-07 19:34:46.502236000
2025-11-07 19:34:44.217077,-1,2025-11-07 19:34:46.509928308
2025-11-07 19:34:44.217077,-36,2025-11-07 19:34:46.517620615
2025-11-07 19:34:44.217077,-9729,2025-11-07 19:34:46.525312923
2025-11-07 19:34:44.217077,-1,2025-11-07 19:34:46.533005231
2025-11-07 19:34:44.217077,-44,2025-11-07 19:34:46.540697538
2025-11-07 19:34:44.217077,-12801,2025-11-07 19:34:46.548389846
2025-11-07 19:34:44.217077,-1,2025-11-07 19:34:46.556082154
2025-11-07 19:34:44.217077,-53,2025-11-07 19:34:46.563774462
2025-11-07 19:34:44.217077,-12801,2025-11-07 19:34:46.571466769
2025-11-07 19:34:44.217077,-1,2025-11-07 19:34:46.579159077
2025-11-07 19:34:44.217077,-53,2025-11-07 19:34:46.586851385
2025-11-07 19:34:44.217077,-15361,2025-11-07 19:34:46.594543692
2025-11-07 19:34:44.217077,-1,2025-11-07 19:34:46.602236000
2025-11-07 19:34:44.217077,-68,2025-11-07 19:34:46.609928308
2025-11-07 19:34:44.217077,-17665,2025-11-07 19:34:46.617620615
2025-11-07 19:34:44.217077,-1,2025-11-07 19:34:46.625312923
2025-11-07 19:34:44.217077,-68,2025-11-07 19:34:46.633005231
2025-11-07 19:34:44.217077,-18433,2025-11-07 19:34:46.640697538
2025-11-07 19:34:44.217077,-1,2025-11-07 19:34:46.648389846
2025-11-07 19:34:44.217077,-85,2025-11-07 19:34:46.656082154
2025-11-07 19:34:44.217077,-22273,2025-11-07 19:34:46.663774462
2025-11-07 19:34:44.217077,-1,2025-11-07 19:34:46.671466769
2025-11-07 19:34:44.217077,-88,2025-11-07 19:34:46.679159077
2025-11-07 19:34:44.217077,-23297,2025-11-07 19:34:46.686851385
2025-11-07 19:34:44.217077,-1,2025-11-07 19:34:46.694543692
2025-11-07 19:34:44.217077,-95,2025-11-07 19:34:46.702236000
2025-11-07 19:34:44.217077,-25345,2025-11-07 19:34:46.709928308
2025-11-07 19:34:44.217077,-1,2025-11-07 19:34:46.717620615
2025-11-07 19:34:44.217077,-102,2025-11-07 19:34:46.725312923
2025-11-07 19:34:44.217077,-25857,2025-11-07 19:34:46.733005231
2025-11-07 19:34:44.217077,-1,2025-11-07 19:34:46.740697538
2025-11-07 19:34:44.217077,-105,2025-11-07 19:34:46.748389846
2025-11-07 19:34:44.217077,-27905,2025-11-07 19:34:46.756082154
2025-11-07 19:34:44.217077,-1,2025-11-07 19:34:46.763774462
2025-11-07 19:34:44.217077,-110,2025-11-07 19:34:46.771466769
2025-11-07 19:34:44.217077,-28929,2025-11-07 19:34:46.779159077
2025-11-07 19:34:44.217077,-1,2025-11-07 19:34:46.786851385
2025-11-07 19:34:44.217077,-114,2025-11-07 19:34:46.794543692
2025-11-07 19:34:44.217077,-29697,2025-11-07 19:34:46.802236000
2025-11-07 19:34:44.217077,-1,2025-11-07 19:34:46.809928308
2025-11-07 19:34:44.217077,-119,2025-11-07 19:34:46.817620615
2025-11-07 19:34:44.217077,-30209,2025-11-07 19:34:46.825312923
2025-11-07 19:34:44.217077,-1,2025-11-07 19:34:46.833005230
2025-11-07 19:34:44.217077,-119,2025-11-07 19:34:46.840697538
2025-11-07 19:34:44.217077,-30977,2025-11-07 19:34:46.848389846
2025-11-07 19:34:44.217077,-1,2025-11-07 19:34:46.856082154
2025-11-07 19:34:44.217077,-122,2025-11-07 19:34:46.863774462
2025-11-07 19:34:44.217077,-30977,2025-11-07 19:34:46.871466769
2025-11-07 19:34:44.217077,-1,2025-11-07 19:34:46.879159077
2025-11-07 19:34:44.217077,-122,2025-11-07 19:34:46.886851385
2025-11-07 19:34:44.217077,-31489,2025-11-07 19:34:46.894543692
2025-11-07 19:34:44.217077,-1,2025-11-07 19:34:46.902236000
2025-11-07 19:34:44.217077,-124,2025-11-07 19:34:46.909928308
2025-11-07 19:34:44.217077,-32257,2025-11-07 19:34:46.917620615
2025-11-07 19:34:44.217077,-1,2025-11-07 19:34:46.925312923
2025-11-07 19:34:44.217077,-132,2025-11-07 19:34:46.933005231
2025-11-07 19:34:44.217077,31487,2025-11-07 19:34:46.940697538
2025-11-07 19:34:44.217077,-1,2025-11-07 19:34:46.948389846
2025-11-07 19:34:44.217077,-134,2025-11-07 19:34:46.956082154
2025-11-07 19:34:44.217077,31487,2025-11-07 19:34:46.963774462
2025-11-07 19:34:44.217077,-1,2025-11-07 19:34:46.971466769
2025-11-07 19:34:44.217077,-136,2025-11-07 19:34:46.979159077
2025-11-07 19:34:44.217077,30207,2025-11-07 19:34:46.986851385
2025-11-07 19:34:44.217077,-1,2025-11-07 19:34:46.994543692
2025-11-07 19:34:44.217077,-132,2025-11-07 19:34:47.002236000
2025-11-07 19:34:44.847112,-129,2025-11-07 19:34:47.009928308
2025-11-07 19:34:44.847112,32767,2025-11-07 19:34:47.017620615
2025-11-07 19:34:44.847112,-1,2025-11-07 19:34:47.025312923
2025-11-07 19:34:44.847112,-129,2025-11-07 19:34:47.033005231
2025-11-07 19:34:44.847112,31999,2025-11-07 19:34:47.040697538
2025-11-07 19:34:44.847112,-1,2025-11-07 19:34:47.048389846
2025-11-07 19:34:44.847112,-134,2025-11-07 19:34:47.056082154
2025-11-07 19:34:44.847112,31999,2025-11-07 19:34:47.063774462
2025-11-07 19:34:44.847112,-1,2025-11-07 19:34:47.071466769
2025-11-07 19:34:44.847112,-129,2025-11-07 19:34:47.079159077
2025-11-07 19:34:44.847112,-32257,2025-11-07 19:34:47.086851385
2025-11-07 19:34:44.847112,-1,2025-11-07 19:34:47.094543692
2025-11-07 19:34:44.847112,-122,2025-11-07 19:34:47.102236000
2025-11-07 19:34:44.847112,-28929,2025-11-07 19:34:47.109928308
2025-11-07 19:34:44.847112,-1,2025-11-07 19:34:47.117620615
2025-11-07 19:34:44.847112,-117,2025-11-07 19:34:47.125312923
2025-11-07 19:34:44.847112,-30977,2025-11-07 19:34:47.133005231
2025-11-07 19:34:44.847112,-1,2025-11-07 19:34:47.140697538
2025-11-07 19:34:44.847112,-117,2025-11-07 19:34:47.148389846
2025-11-07 19:34:44.847112,-29697,2025-11-07 19:34:47.156082154
2025-11-07 19:34:44.847112,-1,2025-11-07 19:34:47.163774462
2025-11-07 19:34:44.847112,-119,2025-11-07 19:34:47.171466769
2025-11-07 19:34:44.847112,-29697,2025-11-07 19:34:47.179159077
2025-11-07 19:34:44.847112,-1,2025-11-07 19:34:47.186851385
2025-11-07 19:34:44.847112,-119,2025-11-07 19:34:47.194543692
2025-11-07 19:34:44.847112,-30209,2025-11-07 19:34:47.202236000
2025-11-07 19:34:44.847112,-1,2025-11-07 19:34:47.209928308
2025-11-07 19:34:44.847112,-119,2025-11-07 19:34:47.217620615
2025-11-07 19:34:44.847112,-30209,2025-11-07 19:34:47.225312923
2025-11-07 19:34:44.847112,-1,2025-11-07 19:34:47.233005231
2025-11-07 19:34:44.847112,-117,2025-11-07 19:34:47.240697538
2025-11-07 19:34:44.847112,-30209,2025-11-07 19:34:47.248389846
2025-11-07 19:34:44.847112,-1,2025-11-07 19:34:47.256082154
2025-11-07 19:34:44.847112,-127,2025-11-07 19:34:47.263774462
2025-11-07 19:34:44.847112,-32257,2025-11-07 19:34:47.271466769
2025-11-07 19:34:44.847112,-1,2025-11-07 19:34:47.279159077
2025-11-07 19:34:44.847112,-122,2025-11-07 19:34:47.286851385
2025-11-07 19:34:44.847112,-29697,2025-11-07 19:34:47.294543692
2025-11-07 19:34:44.847112,-1,2025-11-07 19:34:47.302236000
2025-11-07 19:34:44.847112,-107,2025-11-07 19:34:47.309928308
2025-11-07 19:34:44.847112,-25345,2025-11-07 19:34:47.317620615
2025-11-07 19:34:44.847112,-1,2025-11-07 19:34:47.325312923
2025-11-07 19:34:44.847112,-95,2025-11-07 19:34:47.333005231
2025-11-07 19:34:44.847112,-24065,2025-11-07 19:34:47.340697538
2025-11-07 19:34:44.847112,-1,2025-11-07 19:34:47.348389846
2025-11-07 19:34:44.847112,-95,2025-11-07 19:34:47.356082154
2025-11-07 19:34:44.847112,-29697,2025-11-07 19:34:47.363774462
2025-11-07 19:34:44.847112,-1,2025-11-07 19:34:47.371466769
2025-11-07 19:34:44.847112,-161,2025-11-07 19:34:47.379159077
2025-11-07 19:34:44.847112,21503,2025-11-07 19:34:47.386851385
2025-11-07 19:34:44.847112,-1,2025-11-07 19:34:47.394543692
2025-11-07 19:34:44.847112,-146,2025-11-07 19:34:47.402236000
2025-11-07 19:34:44.847112,32767,2025-11-07 19:34:47.409928308
2025-11-07 19:34:44.847112,-1,2025-11-07 19:34:47.417620615
2025-11-07 19:34:44.847112,-129,2025-11-07 19:34:47.425312923
2025-11-07 19:34:44.847112,31999,2025-11-07 19:34:47.433005231
2025-11-07 19:34:44.847112,-1,2025-11-07 19:34:47.440697538
2025-11-07 19:34:44.847112,-132,2025-11-07 19:34:47.448389846
2025-11-07 19:34:44.847112,31487,2025-11-07 19:34:47.456082154
2025-11-07 19:34:44.847112,-1,2025-11-07 19:34:47.463774462
2025-11-07 19:34:44.847112,-134,2025-11-07 19:34:47.471466769
2025-11-07 19:34:44.847112,31487,2025-11-07 19:34:47.479159077
2025-11-07 19:34:44.847112,-1,2025-11-07 19:34:47.486851385
2025-11-07 19:34:44.847112,-132,2025-11-07 19:34:47.494543692
2025-11-07 19:34:44.847112,-27905,2025-11-07 19:34:47.502236000
2025-11-07 19:34:44.847112,-1,2025-11-07 19:34:47.509928308
2025-11-07 19:34:44.847112,9,2025-11-07 19:34:47.517620615
2025-11-07 19:34:44.847112,-9984,2025-11-07 19:34:47.525312923
2025-11-07 19:34:44.847112,0,2025-11-07 19:34:47.533005231
2025-11-07 19:34:44.847112,168,2025-11-07 19:34:47.540697538
2025-11-07 19:34:44.847112,7168,2025-11-07 19:34:47.548389846
2025-11-07 19:34:44.847112,-2,2025-11-07 19:34:47.556082154
2025-11-07 19:34:44.847112,-1347,2025-11-07 19:34:47.563774462
2025-11-07 19:34:44.847112,8959,2025-11-07 19:34:47.571466769
2025-11-07 19:34:44.847112,-7,2025-11-07 19:34:47.579159077
2025-11-07 19:34:44.847112,-1621,2025-11-07 19:34:47.586851385
2025-11-07 19:34:44.847112,24575,2025-11-07 19:34:47.594543692
2025-11-07 19:34:44.847112,-4,2025-11-07 19:34:47.602236000
2025-11-07 19:34:44.847112,-141,2025-11-07 19:34:47.609928308
2025-11-07 19:34:44.847112,-2049,2025-11-07 19:34:47.617620615
2025-11-07 19:34:44.847112,-1,2025-11-07 19:34:47.625312923
2025-11-07 19:34:44.847112,-100,2025-11-07 19:34:47.633005231
2025-11-07 19:34:44.847112,15103,2025-11-07 19:34:47.640697538
2025-11-07 19:34:44.847112,0,2025-11-07 19:34:47.648389846
2025-11-07 19:34:44.847112,119,2025-11-07 19:34:47.656082154
2025-11-07 19:34:44.847112,13056,2025-11-07 19:34:47.663774462
2025-11-07 19:34:44.847112,0,2025-11-07 19:34:47.671466769
2025-11-07 19:34:44.847112,63,2025-11-07 19:34:47.679159077
2025-11-07 19:34:44.847112,21248,2025-11-07 19:34:47.686851385
2025-11-07 19:34:44.847112,0,2025-11-07 19:34:47.694543692
2025-11-07 19:34:44.847112,53,2025-11-07 19:34:47.702236000
2025-11-07 19:34:44.847112,11264,2025-11-07 19:34:47.709928308
2025-11-07 19:34:44.847112,0,2025-11-07 19:34:47.717620615
2025-11-07 19:34:44.847112,44,2025-11-07 19:34:47.725312923
2025-11-07 19:34:44.847112,7424,2025-11-07 19:34:47.733005231
2025-11-07 19:34:44.847112,0,2025-11-07 19:34:47.740697538
2025-11-07 19:34:44.847112,19,2025-11-07 19:34:47.748389846
2025-11-07 19:34:44.847112,4352,2025-11-07 19:34:47.756082154
2025-11-07 19:34:44.847112,0,2025-11-07 19:34:47.763774462
2025-11-07 19:34:44.847112,4,2025-11-07 19:34:47.771466769
2025-11-07 19:34:44.847112,-1024,2025-11-07 19:34:47.779159077
2025-11-07 19:34:44.847112,-1,2025-11-07 19:34:47.786851385
2025-11-07 19:34:44.847112,-17,2025-11-07 19:34:47.794543692
2025-11-07 19:34:44.847112,-6401,2025-11-07 19:34:47.802236000
2025-11-07 19:34:44.847112,-1,2025-11-07 19:34:47.809928308
2025-11-07 19:34:44.847112,-39,2025-11-07 19:34:47.817620615
2025-11-07 19:34:44.847112,-13313,2025-11-07 19:34:47.825312923
2025-11-07 19:34:44.847112,-1,2025-11-07 19:34:47.833005230
2025-11-07 19:34:44.847112,-66,2025-11-07 19:34:47.840697538
2025-11-07 19:34:45.342119,-80,2025-11-07 19:34:47.848389846
2025-11-07 19:34:45.342119,-24577,2025-11-07 19:34:47.856082154
2025-11-07 19:34:45.342119,-1,2025-11-07 19:34:47.863774462
2025-11-07 19:34:45.342119,-119,2025-11-07 19:34:47.871466769
2025-11-07 19:34:45.342119,28415,2025-11-07 19:34:47.879159077
2025-11-07 19:34:45.342119,-1,2025-11-07 19:34:47.886851385
2025-11-07 19:34:45.342119,-176,2025-11-07 19:34:47.894543692
2025-11-07 19:34:45.342119,13311,2025-11-07 19:34:47.902236000
2025-11-07 19:34:45.342119,-1,2025-11-07 19:34:47.909928308
2025-11-07 19:34:45.342119,-227,2025-11-07 19:34:47.917620615
2025-11-07 19:34:45.342119,4607,2025-11-07 19:34:47.925312923
2025-11-07 19:34:45.342119,-1,2025-11-07 19:34:47.933005231
2025-11-07 19:34:45.342119,-242,2025-11-07 19:34:47.940697538
2025-11-07 19:34:45.342119,6399,2025-11-07 19:34:47.948389846
2025-11-07 19:34:45.342119,-1,2025-11-07 19:34:47.956082154
2025-11-07 19:34:45.342119,-198,2025-11-07 19:34:47.963774462
2025-11-07 19:34:45.342119,28927,2025-11-07 19:34:47.971466769
2025-11-07 19:34:45.342119,-1,2025-11-07 19:34:47.979159077
2025-11-07 19:34:45.342119,-85,2025-11-07 19:34:47.986851385
2025-11-07 19:34:45.342119,-11521,2025-11-07 19:34:47.994543692
2025-11-07 19:34:45.342119,-1,2025-11-07 19:34:48.002236000
2025-11-07 19:34:45.342119,-17,2025-11-07 19:34:48.009928308
2025-11-07 19:34:45.342119,255,2025-11-07 19:34:48.017620615
2025-11-07 19:34:45.342119,0,2025-11-07 19:34:48.025312923
2025-11-07 19:34:45.342119,9,2025-11-07 19:34:48.033005231
2025-11-07 19:34:45.342119,6144,2025-11-07 19:34:48.040697538
2025-11-07 19:34:45.342119,0,2025-11-07 19:34:48.048389846
2025-11-07 19:34:45.342119,29,2025-11-07 19:34:48.056082154
2025-11-07 19:34:45.342119,3584,2025-11-07 19:34:48.063774462
2025-11-07 19:34:45.342119,0,2025-11-07 19:34:48.071466769
2025-11-07 19:34:45.342119,4,2025-11-07 19:34:48.079159077
2025-11-07 19:34:45.342119,1024,2025-11-07 19:34:48.086851385
2025-11-07 19:34:45.342119,0,2025-11-07 19:34:48.094543692
2025-11-07 19:34:45.342119,0,2025-11-07 19:34:48.102236000
2025-11-07 19:34:45.342119,-1792,2025-11-07 19:34:48.109928308
2025-11-07 19:34:45.342119,-1,2025-11-07 19:34:48.117620615
2025-11-07 19:34:45.342119,-9,2025-11-07 19:34:48.125312923
2025-11-07 19:34:45.342119,-2049,2025-11-07 19:34:48.133005231
2025-11-07 19:34:45.342119,-1,2025-11-07 19:34:48.140697538
2025-11-07 19:34:45.342119,-14,2025-11-07 19:34:48.148389846
2025-11-07 19:34:45.342119,-4609,2025-11-07 19:34:48.156082154
2025-11-07 19:34:45.342119,-1,2025-11-07 19:34:48.163774462
2025-11-07 19:34:45.342119,-22,2025-11-07 19:34:48.171466769
2025-11-07 19:34:45.342119,-5889,2025-11-07 19:34:48.179159077
2025-11-07 19:34:45.342119,-1,2025-11-07 19:34:48.186851385
2025-11-07 19:34:45.342119,-26,2025-11-07 19:34:48.194543692
2025-11-07 19:34:45.342119,-7681,2025-11-07 19:34:48.202236000
2025-11-07 19:34:45.342119,-1,2025-11-07 19:34:48.209928308
2025-11-07 19:34:45.342119,-34,2025-11-07 19:34:48.217620615
2025-11-07 19:34:45.342119,-9729,2025-11-07 19:34:48.225312923
2025-11-07 19:34:45.342119,-1,2025-11-07 19:34:48.233005231
2025-11-07 19:34:45.342119,-46,2025-11-07 19:34:48.240697538
2025-11-07 19:34:45.342119,-12801,2025-11-07 19:34:48.248389846
2025-11-07 19:34:45.342119,-1,2025-11-07 19:34:48.256082154
2025-11-07 19:34:45.342119,-53,2025-11-07 19:34:48.263774462
2025-11-07 19:34:45.342119,-15873,2025-11-07 19:34:48.271466769
2025-11-07 19:34:45.342119,-1,2025-11-07 19:34:48.279159077
2025-11-07 19:34:45.342119,-70,2025-11-07 19:34:48.286851385
2025-11-07 19:34:45.342119,-18433,2025-11-07 19:34:48.294543692
2025-11-07 19:34:45.342119,-1,2025-11-07 19:34:48.302236000
2025-11-07 19:34:45.342119,-75,2025-11-07 19:34:48.309928308
2025-11-07 19:34:45.342119,-19713,2025-11-07 19:34:48.317620615
2025-11-07 19:34:45.342119,-1,2025-11-07 19:34:48.325312923
2025-11-07 19:34:45.342119,-83,2025-11-07 19:34:48.333005231
2025-11-07 19:34:45.342119,-21505,2025-11-07 19:34:48.340697538
2025-11-07 19:34:45.342119,-1,2025-11-07 19:34:48.348389846
2025-11-07 19:34:45.342119,-90,2025-11-07 19:34:48.356082154
2025-11-07 19:34:45.342119,-24065,2025-11-07 19:34:48.363774462
2025-11-07 19:34:45.342119,-1,2025-11-07 19:34:48.371466769
2025-11-07 19:34:45.342119,-92,2025-11-07 19:34:48.379159077
2025-11-07 19:34:45.342119,-24065,2025-11-07 19:34:48.386851385
2025-11-07 19:34:45.342119,-1,2025-11-07 19:34:48.394543692
2025-11-07 19:34:45.342119,-97,2025-11-07 19:34:48.402236000
2025-11-07 19:34:45.342119,-25345,2025-11-07 19:34:48.409928308
2025-11-07 19:34:45.342119,-1,2025-11-07 19:34:48.417620615
2025-11-07 19:34:45.342119,-102,2025-11-07 19:34:48.425312923
2025-11-07 19:34:45.342119,-25345,2025-11-07 19:34:48.433005231
2025-11-07 19:34:45.342119,-1,2025-11-07 19:34:48.440697538
2025-11-07 19:34:45.342119,-102,2025-11-07 19:34:48.448389846
2025-11-07 19:34:45.342119,-26625,2025-11-07 19:34:48.456082154
2025-11-07 19:34:45.342119,-1,2025-11-07 19:34:48.463774462
2025-11-07 19:34:45.342119,-102,2025-11-07 19:34:48.471466769
2025-11-07 19:34:45.342119,-26625,2025-11-07 19:34:48.479159077
2025-11-07 19:34:45.342119,-1,2025-11-07 19:34:48.486851385
2025-11-07 19:34:45.342119,-107,2025-11-07 19:34:48.494543692
2025-11-07 19:34:45.342119,-27905,2025-11-07 19:34:48.502236000
2025-11-07 19:34:45.342119,-1,2025-11-07 19:34:48.509928308
2025-11-07 19:34:45.342119,-110,2025-11-07 19:34:48.517620615
2025-11-07 19:34:45.342119,-27905,2025-11-07 19:34:48.525312923
2025-11-07 19:34:45.342119,-1,2025-11-07 19:34:48.533005231
2025-11-07 19:34:45.342119,-110,2025-11-07 19:34:48.540697538
2025-11-07 19:34:45.342119,-28417,2025-11-07 19:34:48.548389846
2025-11-07 19:34:45.342119,-1,2025-11-07 19:34:48.556082154
2025-11-07 19:34:45.342119,-112,2025-11-07 19:34:48.563774462
2025-11-07 19:34:45.342119,-28929,2025-11-07 19:34:48.571466769
2025-11-07 19:34:45.342119,-1,2025-11-07 19:34:48.579159077
2025-11-07 19:34:45.342119,-114,2025-11-07 19:34:48.586851385
2025-11-07 19:34:45.342119,-28929,2025-11-07 19:34:48.594543692
2025-11-07 19:34:45.342119,-1,2025-11-07 19:34:48.602236000
2025-11-07 19:34:45.342119,-117,2025-11-07 19:34:48.609928308
2025-11-07 19:34:45.342119,-30209,2025-11-07 19:34:48.617620615
2025-11-07 19:34:45.342119,-1,2025-11-07 19:34:48.625312923
2025-11-07 19:34:45.342119,-117,2025-11-07 19:34:48.633005231
2025-11-07 19:34:45.342119,-29697,2025-11-07 19:34:48.640697538
2025-11-07 19:34:45.342119,-1,2025-11-07 19:34:48.648389846
2025-11-07 19:34:45.342119,-122,2025-11-07 19:34:48.656082154
2025-11-07 19:34:45.342119,-31489,2025-11-07 19:34:48.663774462
2025-11-07 19:34:45.342119,-1,2025-11-07 19:34:48.671466769
2025-11-07 19:34:45.342119,-117,2025-11-07 19:34:48.679159077
2025-11-07 19:34:45.882092,-114,2025-11-07 19:34:48.686851385
2025-11-07 19:34:45.882092,-30209,2025-11-07 19:34:48.694543692
2025-11-07 19:34:45.882092,-1,2025-11-07 19:34:48.702236000
2025-11-07 19:34:45.882092,-117,2025-11-07 19:34:48.709928308
2025-11-07 19:34:45.882092,-29697,2025-11-07 19:34:48.717620615
2025-11-07 19:34:45.882092,-1,2025-11-07 19:34:48.725312923
2025-11-07 19:34:45.882092,-119,2025-11-07 19:34:48.733005231
2025-11-07 19:34:45.882092,-30209,2025-11-07 19:34:48.740697538
2025-11-07 19:34:45.882092,-1,2025-11-07 19:34:48.748389846
2025-11-07 19:34:45.882092,-119,2025-11-07 19:34:48.756082154
2025-11-07 19:34:45.882092,-30209,2025-11-07 19:34:48.763774462
2025-11-07 19:34:45.882092,-1,2025-11-07 19:34:48.771466769
2025-11-07 19:34:45.882092,-117,2025-11-07 19:34:48.779159077
2025-11-07 19:34:45.882092,-27137,2025-11-07 19:34:48.786851385
2025-11-07 19:34:45.882092,-1,2025-11-07 19:34:48.794543692
2025-11-07 19:34:45.882092,-110,2025-11-07 19:34:48.802236000
2025-11-07 19:34:45.882092,-28417,2025-11-07 19:34:48.809928308
2025-11-07 19:34:45.882092,-1,2025-11-07 19:34:48.817620615
2025-11-07 19:34:45.882092,-112,2025-11-07 19:34:48.825312923
2025-11-07 19:34:45.882092,-28929,2025-11-07 19:34:48.833005230
2025-11-07 19:34:45.882092,-1,2025-11-07 19:34:48.840697538
2025-11-07 19:34:45.882092,-117,2025-11-07 19:34:48.848389846
2025-11-07 19:34:45.882092,-28929,2025-11-07 19:34:48.856082154
2025-11-07 19:34:45.882092,-1,2025-11-07 19:34:48.863774462
2025-11-07 19:34:45.882092,-117,2025-11-07 19:34:48.871466769
2025-11-07 19:34:45.882092,-29697,2025-11-07 19:34:48.879159077
2025-11-07 19:34:45.882092,-1,2025-11-07 19:34:48.886851385
2025-11-07 19:34:45.882092,-117,2025-11-07 19:34:48.894543692
2025-11-07 19:34:45.882092,-30209,2025-11-07 19:34:48.902236000
2025-11-07 19:34:45.882092,-1,2025-11-07 19:34:48.909928308
2025-11-07 19:34:45.882092,-117,2025-11-07 19:34:48.917620615
2025-11-07 19:34:45.882092,-30209,2025-11-07 19:34:48.925312923
2025-11-07 19:34:45.882092,-1,2025-11-07 19:34:48.933005231
2025-11-07 19:34:45.882092,-119,2025-11-07 19:34:48.940697538
2025-11-07 19:34:45.882092,-29697,2025-11-07 19:34:48.948389846
2025-11-07 19:34:45.882092,-1,2025-11-07 19:34:48.956082154
2025-11-07 19:34:45.882092,-117,2025-11-07 19:34:48.963774462
2025-11-07 19:34:45.882092,-30209,2025-11-07 19:34:48.971466769
2025-11-07 19:34:45.882092,-1,2025-11-07 19:34:48.979159077
2025-11-07 19:34:45.882092,-122,2025-11-07 19:34:48.986851385
2025-11-07 19:34:45.882092,-30977,2025-11-07 19:34:48.994543692
2025-11-07 19:34:45.882092,-1,2025-11-07 19:34:49.002236000
2025-11-07 19:34:45.882092,-122,2025-11-07 19:34:49.009928308
2025-11-07 19:34:45.882092,-30209,2025-11-07 19:34:49.017620615
2025-11-07 19:34:45.882092,-1,2025-11-07 19:34:49.025312923
2025-11-07 19:34:45.882092,-110,2025-11-07 19:34:49.033005231
2025-11-07 19:34:45.882092,-25345,2025-11-07 19:34:49.040697538
2025-11-07 19:34:45.882092,-1,2025-11-07 19:34:49.048389846
2025-11-07 19:34:45.882092,-92,2025-11-07 19:34:49.056082154
2025-11-07 19:34:45.882092,-22785,2025-11-07 19:34:49.063774462
2025-11-07 19:34:45.882092,-1,2025-11-07 19:34:49.071466769
2025-11-07 19:34:45.882092,-90,2025-11-07 19:34:49.079159077
2025-11-07 19:34:45.882092,-28929,2025-11-07 19:34:49.086851385
2025-11-07 19:34:45.882092,-1,2025-11-07 19:34:49.094543692
2025-11-07 19:34:45.882092,-156,2025-11-07 19:34:49.102236000
2025-11-07 19:34:45.882092,22015,2025-11-07 19:34:49.109928308
2025-11-07 19:34:45.882092,-1,2025-11-07 19:34:49.117620615
2025-11-07 19:34:45.882092,-146,2025-11-07 19:34:49.125312923
2025-11-07 19:34:45.882092,31999,2025-11-07 19:34:49.133005231
2025-11-07 19:34:45.882092,-1,2025-11-07 19:34:49.140697538
2025-11-07 19:34:45.882092,-134,2025-11-07 19:34:49.148389846
2025-11-07 19:34:45.882092,31999,2025-11-07 19:34:49.156082154
2025-11-07 19:34:45.882092,-1,2025-11-07 19:34:49.163774462
2025-11-07 19:34:45.882092,-134,2025-11-07 19:34:49.171466769
2025-11-07 19:34:45.882092,30975,2025-11-07 19:34:49.179159077
2025-11-07 19:34:45.882092,-1,2025-11-07 19:34:49.186851385
2025-11-07 19:34:45.882092,-136,2025-11-07 19:34:49.194543692
2025-11-07 19:34:45.882092,30207,2025-11-07 19:34:49.202236000
2025-11-07 19:34:45.882092,-1,2025-11-07 19:34:49.209928308
2025-11-07 19:34:45.882092,-136,2025-11-07 19:34:49.217620615
2025-11-07 19:34:45.882092,-25345,2025-11-07 19:34:49.225312923
2025-11-07 19:34:45.882092,-1,2025-11-07 19:34:49.233005231
2025-11-07 19:34:45.882092,46,2025-11-07 19:34:49.240697538
2025-11-07 19:34:45.882092,-1280,2025-11-07 19:34:49.248389846
2025-11-07 19:34:45.882092,0,2025-11-07 19:34:49.256082154
2025-11-07 19:34:45.882092,127,2025-11-07 19:34:49.263774462
2025-11-07 19:34:45.882092,-22272,2025-11-07 19:34:49.271466769
2025-11-07 19:34:45.882092,-3,2025-11-07 19:34:49.279159077
2025-11-07 19:34:45.882092,-1457,2025-11-07 19:34:49.286851385
2025-11-07 19:34:45.882092,-16641,2025-11-07 19:34:49.294543692
2025-11-07 19:34:45.882092,-8,2025-11-07 19:34:49.302236000
2025-11-07 19:34:45.882092,-1716,2025-11-07 19:34:49.309928308
2025-11-07 19:34:45.882092,17663,2025-11-07 19:34:49.317620615
2025-11-07 19:34:45.882092,-4,2025-11-07 19:34:49.325312923
2025-11-07 19:34:45.882092,-97,2025-11-07 19:34:49.333005231
2025-11-07 19:34:45.882092,7679,2025-11-07 19:34:49.340697538
2025-11-07 19:34:45.882092,0,2025-11-07 19:34:49.348389846
2025-11-07 19:34:45.882092,-90,2025-11-07 19:34:49.356082154
2025-11-07 19:34:45.882092,17151,2025-11-07 19:34:49.363774462
2025-11-07 19:34:45.882092,0,2025-11-07 19:34:49.371466769
2025-11-07 19:34:45.882092,124,2025-11-07 19:34:49.379159077
2025-11-07 19:34:45.882092,12288,2025-11-07 19:34:49.386851385
2025-11-07 19:34:45.882092,0,2025-11-07 19:34:49.394543692
2025-11-07 19:34:45.882092,63,2025-11-07 19:34:49.402236000
2025-11-07 19:34:45.882092,21760,2025-11-07 19:34:49.409928308
2025-11-07 19:34:45.882092,0,2025-11-07 19:34:49.417620615
2025-11-07 19:34:45.882092,51,2025-11-07 19:34:49.425312923
2025-11-07 19:34:45.882092,10496,2025-11-07 19:34:49.433005231
2025-11-07 19:34:45.882092,0,2025-11-07 19:34:49.440697538
2025-11-07 19:34:45.882092,51,2025-11-07 19:34:49.448389846
2025-11-07 19:34:45.882092,9984,2025-11-07 19:34:49.456082154
2025-11-07 19:34:45.882092,0,2025-11-07 19:34:49.463774462
2025-11-07 19:34:45.882092,19,2025-11-07 19:34:49.471466769
2025-11-07 19:34:45.882092,4352,2025-11-07 19:34:49.479159077
2025-11-07 19:34:45.882092,0,2025-11-07 19:34:49.486851385
2025-11-07 19:34:45.882092,9,2025-11-07 19:34:49.494543692
2025-11-07 19:34:45.882092,-512,2025-11-07 19:34:49.502236000
2025-11-07 19:34:45.882092,-1,2025-11-07 19:34:49.509928308
2025-11-07 19:34:45.882092,-9,2025-11-07 19:34:49.517620615
2025-11-07 19:34:46.422112,-17,2025-11-07 19:34:49.525312923
2025-11-07 19:34:46.422112,-7681,2025-11-07 19:34:49.533005231
2025-11-07 19:34:46.422112,-1,2025-11-07 19:34:49.540697538
2025-11-07 19:34:46.422112,-48,2025-11-07 19:34:49.548389846
2025-11-07 19:34:46.422112,-14081,2025-11-07 19:34:49.556082154
2025-11-07 19:34:46.422112,-1,2025-11-07 19:34:49.563774462
2025-11-07 19:34:46.422112,-63,2025-11-07 19:34:49.571466769
2025-11-07 19:34:46.422112,-19713,2025-11-07 19:34:49.579159077
2025-11-07 19:34:46.422112,-1,2025-11-07 19:34:49.586851385
2025-11-07 19:34:46.422112,-90,2025-11-07 19:34:49.594543692
2025-11-07 19:34:46.422112,-28417,2025-11-07 19:34:49.602236000
2025-11-07 19:34:46.422112,-1,2025-11-07 19:34:49.609928308
2025-11-07 19:34:46.422112,-149,2025-11-07 19:34:49.617620615
2025-11-07 19:34:46.422112,19711,2025-11-07 19:34:49.625312923
2025-11-07 19:34:46.422112,-1,2025-11-07 19:34:49.633005231
2025-11-07 19:34:46.422112,-200,2025-11-07 19:34:49.640697538
2025-11-07 19:34:46.422112,10751,2025-11-07 19:34:49.648389846
2025-11-07 19:34:46.422112,-1,2025-11-07 19:34:49.656082154
2025-11-07 19:34:46.422112,-222,2025-11-07 19:34:49.663774462
2025-11-07 19:34:46.422112,10751,2025-11-07 19:34:49.671466769
2025-11-07 19:34:46.422112,-1,2025-11-07 19:34:49.679159077
2025-11-07 19:34:46.422112,-190,2025-11-07 19:34:49.686851385
2025-11-07 19:34:46.422112,27647,2025-11-07 19:34:49.694543692
2025-11-07 19:34:46.422112,-1,2025-11-07 19:34:49.702236000
2025-11-07 19:34:46.422112,-100,2025-11-07 19:34:49.709928308
2025-11-07 19:34:46.422112,-15361,2025-11-07 19:34:49.717620615
2025-11-07 19:34:46.422112,-1,2025-11-07 19:34:49.725312923
2025-11-07 19:34:46.422112,-39,2025-11-07 19:34:49.733005231
2025-11-07 19:34:46.422112,-5889,2025-11-07 19:34:49.740697538
2025-11-07 19:34:46.422112,-1,2025-11-07 19:34:49.748389846
2025-11-07 19:34:46.422112,-14,2025-11-07 19:34:49.756082154
2025-11-07 19:34:46.422112,-2817,2025-11-07 19:34:49.763774462
2025-11-07 19:34:46.422112,-1,2025-11-07 19:34:49.771466769
2025-11-07 19:34:46.422112,-9,2025-11-07 19:34:49.779159077
2025-11-07 19:34:46.422112,-2817,2025-11-07 19:34:49.786851385
2025-11-07 19:34:46.422112,-1,2025-11-07 19:34:49.794543692
2025-11-07 19:34:46.422112,-19,2025-11-07 19:34:49.802236000
2025-11-07 19:34:46.422112,-5889,2025-11-07 19:34:49.809928308
2025-11-07 19:34:46.422112,-1,2025-11-07 19:34:49.817620615
2025-11-07 19:34:46.422112,-31,2025-11-07 19:34:49.825312923
2025-11-07 19:34:46.422112,-8961,2025-11-07 19:34:49.833005230
2025-11-07 19:34:46.422112,-1,2025-11-07 19:34:49.840697538
2025-11-07 19:34:46.422112,-41,2025-11-07 19:34:49.848389846
2025-11-07 19:34:46.422112,-11009,2025-11-07 19:34:49.856082154
2025-11-07 19:34:46.422112,-1,2025-11-07 19:34:49.863774462
2025-11-07 19:34:46.422112,-51,2025-11-07 19:34:49.871466769
2025-11-07 19:34:46.422112,-14081,2025-11-07 19:34:49.879159077
2025-11-07 19:34:46.422112,-1,2025-11-07 19:34:49.886851385
2025-11-07 19:34:46.422112,-58,2025-11-07 19:34:49.894543692
2025-11-07 19:34:46.422112,-15361,2025-11-07 19:34:49.902236000
2025-11-07 19:34:46.422112,-1,2025-11-07 19:34:49.909928308
2025-11-07 19:34:46.422112,-66,2025-11-07 19:34:49.917620615
2025-11-07 19:34:46.422112,-15873,2025-11-07 19:34:49.925312923
2025-11-07 19:34:46.422112,-1,2025-11-07 19:34:49.933005231
2025-11-07 19:34:46.422112,-70,2025-11-07 19:34:49.940697538
2025-11-07 19:34:46.422112,-20225,2025-11-07 19:34:49.948389846
2025-11-07 19:34:46.422112,-1,2025-11-07 19:34:49.956082154
2025-11-07 19:34:46.422112,-83,2025-11-07 19:34:49.963774462
2025-11-07 19:34:46.422112,-21505,2025-11-07 19:34:49.971466769
2025-11-07 19:34:46.422112,-1,2025-11-07 19:34:49.979159077
2025-11-07 19:34:46.422112,-95,2025-11-07 19:34:49.986851385
2025-11-07 19:34:46.422112,-25857,2025-11-07 19:34:49.994543692
2025-11-07 19:34:46.422112,-1,2025-11-07 19:34:50.002236000
2025-11-07 19:34:46.422112,-102,2025-11-07 19:34:50.009928308
2025-11-07 19:34:46.422112,-25857,2025-11-07 19:34:50.017620615
2025-11-07 19:34:46.422112,-1,2025-11-07 19:34:50.025312923
2025-11-07 19:34:46.422112,-110,2025-11-07 19:34:50.033005231
2025-11-07 19:34:46.422112,-28417,2025-11-07 19:34:50.040697538
2025-11-07 19:34:46.422112,-1,2025-11-07 19:34:50.048389846
2025-11-07 19:34:46.422112,-110,2025-11-07 19:34:50.056082154
2025-11-07 19:34:46.422112,-28417,2025-11-07 19:34:50.063774462
2025-11-07 19:34:46.422112,-1,2025-11-07 19:34:50.071466769
2025-11-07 19:34:46.422112,-117,2025-11-07 19:34:50.079159077
2025-11-07 19:34:46.422112,-30209,2025-11-07 19:34:50.086851385
2025-11-07 19:34:46.422112,-1,2025-11-07 19:34:50.094543692
2025-11-07 19:34:46.422112,-122,2025-11-07 19:34:50.102236000
2025-11-07 19:34:46.422112,-29697,2025-11-07 19:34:50.109928308
2025-11-07 19:34:46.422112,-1,2025-11-07 19:34:50.117620615
2025-11-07 19:34:46.422112,-122,2025-11-07 19:34:50.125312923
2025-11-07 19:34:46.422112,-32257,2025-11-07 19:34:50.133005231
2025-11-07 19:34:46.422112,-1,2025-11-07 19:34:50.140697538
2025-11-07 19:34:46.422112,-129,2025-11-07 19:34:50.148389846
2025-11-07 19:34:46.422112,31999,2025-11-07 19:34:50.156082154
2025-11-07 19:34:46.422112,-1,2025-11-07 19:34:50.163774462
2025-11-07 19:34:46.422112,-129,2025-11-07 19:34:50.171466769
2025-11-07 19:34:46.422112,32767,2025-11-07 19:34:50.179159077
2025-11-07 19:34:46.422112,-1,2025-11-07 19:34:50.186851385
2025-11-07 19:34:46.422112,-127,2025-11-07 19:34:50.194543692
2025-11-07 19:34:46.422112,31999,2025-11-07 19:34:50.202236000
2025-11-07 19:34:46.422112,-1,2025-11-07 19:34:50.209928308
2025-11-07 19:34:46.422112,-136,2025-11-07 19:34:50.217620615
2025-11-07 19:34:46.422112,31487,2025-11-07 19:34:50.225312923
2025-11-07 19:34:46.422112,-1,2025-11-07 19:34:50.233005231
2025-11-07 19:34:46.422112,-134,2025-11-07 19:34:50.240697538
2025-11-07 19:34:46.422112,30975,2025-11-07 19:34:50.248389846
2025-11-07 19:34:46.422112,-1,2025-11-07 19:34:50.256082154
2025-11-07 19:34:46.422112,-134,2025-11-07 19:34:50.263774462
2025-11-07 19:34:46.422112,31487,2025-11-07 19:34:50.271466769
2025-11-07 19:34:46.422112,-1,2025-11-07 19:34:50.279159077
2025-11-07 19:34:46.422112,-141,2025-11-07 19:34:50.286851385
2025-11-07 19:34:46.422112,28927,2025-11-07 19:34:50.294543692
2025-11-07 19:34:46.422112,-1,2025-11-07 19:34:50.302236000
2025-11-07 19:34:46.422112,-146,2025-11-07 19:34:50.309928308
2025-11-07 19:34:46.422112,28927,2025-11-07 19:34:50.317620615
2025-11-07 19:34:46.422112,-1,2025-11-07 19:34:50.325312923
2025-11-07 19:34:46.422112,-144,2025-11-07 19:34:50.333005231
2025-11-07 19:34:46.422112,28927,2025-11-07 19:34:50.340697538
2025-11-07 19:34:46.422112,-1,2025-11-07 19:34:50.348389846
2025-11-07 19:34:46.422112,-144,2025-11-07 19:34:50.356082154
2025-11-07 19:34:47.051950,-141,2025-11-07 19:34:50.363774462
2025-11-07 19:34:47.051950,29695,2025-11-07 19:34:50.371466769
2025-11-07 19:34:47.051950,-1,2025-11-07 19:34:50.379159077
2025-11-07 19:34:47.051950,-144,2025-11-07 19:34:50.386851385
2025-11-07 19:34:47.051950,30975,2025-11-07 19:34:50.394543692
2025-11-07 19:34:47.051950,-1,2025-11-07 19:34:50.402236000
2025-11-07 19:34:47.051950,-127,2025-11-07 19:34:50.409928308
2025-11-07 19:34:47.051950,32767,2025-11-07 19:34:50.417620615
2025-11-07 19:34:47.051950,-1,2025-11-07 19:34:50.425312923
2025-11-07 19:34:47.051950,-134,2025-11-07 19:34:50.433005231
2025-11-07 19:34:47.051950,31999,2025-11-07 19:34:50.440697538
2025-11-07 19:34:47.051950,-1,2025-11-07 19:34:50.448389846
2025-11-07 19:34:47.051950,-132,2025-11-07 19:34:50.456082154
2025-11-07 19:34:47.051950,31999,2025-11-07 19:34:50.463774462
2025-11-07 19:34:47.051950,-1,2025-11-07 19:34:50.471466769
2025-11-07 19:34:47.051950,-132,2025-11-07 19:34:50.479159077
2025-11-07 19:34:47.051950,31999,2025-11-07 19:34:50.486851385
2025-11-07 19:34:47.051950,-1,2025-11-07 19:34:50.494543692
2025-11-07 19:34:47.051950,-134,2025-11-07 19:34:50.502236000
2025-11-07 19:34:47.051950,31487,2025-11-07 19:34:50.509928308
2025-11-07 19:34:47.051950,-1,2025-11-07 19:34:50.517620615
2025-11-07 19:34:47.051950,-134,2025-11-07 19:34:50.525312923
2025-11-07 19:34:47.051950,31487,2025-11-07 19:34:50.533005231
2025-11-07 19:34:47.051950,-1,2025-11-07 19:34:50.540697538
2025-11-07 19:34:47.051950,-132,2025-11-07 19:34:50.548389846
2025-11-07 19:34:47.051950,31487,2025-11-07 19:34:50.556082154
2025-11-07 19:34:47.051950,-1,2025-11-07 19:34:50.563774462
2025-11-07 19:34:47.051950,-134,2025-11-07 19:34:50.571466769
2025-11-07 19:34:47.051950,31999,2025-11-07 19:34:50.579159077
2025-11-07 19:34:47.051950,-1,2025-11-07 19:34:50.586851385
2025-11-07 19:34:47.051950,-134,2025-11-07 19:34:50.594543692
2025-11-07 19:34:47.051950,30975,2025-11-07 19:34:50.602236000
2025-11-07 19:34:47.051950,-1,2025-11-07 19:34:50.609928308
2025-11-07 19:34:47.051950,-134,2025-11-07 19:34:50.617620615
2025-11-07 19:34:47.051950,30975,2025-11-07 19:34:50.625312923
2025-11-07 19:34:47.051950,-1,2025-11-07 19:34:50.633005231
2025-11-07 19:34:47.051950,-139,2025-11-07 19:34:50.640697538
2025-11-07 19:34:47.051950,30975,2025-11-07 19:34:50.648389846
2025-11-07 19:34:47.051950,-1,2025-11-07 19:34:50.656082154
2025-11-07 19:34:47.051950,-134,2025-11-07 19:34:50.663774462
2025-11-07 19:34:47.051950,30207,2025-11-07 19:34:50.671466769
2025-11-07 19:34:47.051950,-1,2025-11-07 19:34:50.679159077
2025-11-07 19:34:47.051950,-139,2025-11-07 19:34:50.686851385
2025-11-07 19:34:47.051950,32767,2025-11-07 19:34:50.694543692
2025-11-07 19:34:47.051950,-1,2025-11-07 19:34:50.702236000
2025-11-07 19:34:47.051950,-122,2025-11-07 19:34:50.709928308
2025-11-07 19:34:47.051950,-28929,2025-11-07 19:34:50.717620615
2025-11-07 19:34:47.051950,-1,2025-11-07 19:34:50.725312923
2025-11-07 19:34:47.051950,-107,2025-11-07 19:34:50.733005231
2025-11-07 19:34:47.051950,-26625,2025-11-07 19:34:50.740697538
2025-11-07 19:34:47.051950,-1,2025-11-07 19:34:50.748389846
2025-11-07 19:34:47.051950,-112,2025-11-07 19:34:50.756082154
2025-11-07 19:34:47.051950,30207,2025-11-07 19:34:50.763774462
2025-11-07 19:34:47.051950,-1,2025-11-07 19:34:50.771466769
2025-11-07 19:34:47.051950,-178,2025-11-07 19:34:50.779159077
2025-11-07 19:34:47.051950,18943,2025-11-07 19:34:50.786851385
2025-11-07 19:34:47.051950,-1,2025-11-07 19:34:50.794543692
2025-11-07 19:34:47.051950,-154,2025-11-07 19:34:50.802236000
2025-11-07 19:34:47.051950,30207,2025-11-07 19:34:50.809928308
2025-11-07 19:34:47.051950,-1,2025-11-07 19:34:50.817620615
2025-11-07 19:34:47.051950,-146,2025-11-07 19:34:50.825312923
2025-11-07 19:34:47.051950,26367,2025-11-07 19:34:50.833005230
2025-11-07 19:34:47.051950,-1,2025-11-07 19:34:50.840697538
2025-11-07 19:34:47.051950,-154,2025-11-07 19:34:50.848389846
2025-11-07 19:34:47.051950,26367,2025-11-07 19:34:50.856082154
2025-11-07 19:34:47.051950,-1,2025-11-07 19:34:50.863774462
2025-11-07 19:34:47.051950,-156,2025-11-07 19:34:50.871466769
2025-11-07 19:34:47.051950,26367,2025-11-07 19:34:50.879159077
2025-11-07 19:34:47.051950,-1,2025-11-07 19:34:50.886851385
2025-11-07 19:34:47.051950,-146,2025-11-07 19:34:50.894543692
2025-11-07 19:34:47.051950,-23297,2025-11-07 19:34:50.902236000
2025-11-07 19:34:47.051950,-1,2025-11-07 19:34:50.909928308
2025-11-07 19:34:47.051950,85,2025-11-07 19:34:50.917620615
2025-11-07 19:34:47.051950,-1792,2025-11-07 19:34:50.925312923
2025-11-07 19:34:47.051950,0,2025-11-07 19:34:50.933005231
2025-11-07 19:34:47.051950,-44,2025-11-07 19:34:50.940697538
2025-11-07 19:34:47.051950,-27137,2025-11-07 19:34:50.948389846
2025-11-07 19:34:47.051950,-4,2025-11-07 19:34:50.956082154
2025-11-07 19:34:47.051950,-1594,2025-11-07 19:34:50.963774462
2025-11-07 19:34:47.051950,5375,2025-11-07 19:34:50.971466769
2025-11-07 19:34:47.051950,-7,2025-11-07 19:34:50.979159077
2025-11-07 19:34:47.051950,-1398,2025-11-07 19:34:50.986851385
2025-11-07 19:34:47.051950,-12033,2025-11-07 19:34:50.994543692
2025-11-07 19:34:47.051950,-3,2025-11-07 19:34:51.002236000
2025-11-07 19:34:47.051950,-19,2025-11-07 19:34:51.009928308
2025-11-07 19:34:47.051950,-24065,2025-11-07 19:34:51.017620615
2025-11-07 19:34:47.051950,-1,2025-11-07 19:34:51.025312923
2025-11-07 19:34:47.051950,-78,2025-11-07 19:34:51.033005231
2025-11-07 19:34:47.051950,22783,2025-11-07 19:34:51.040697538
2025-11-07 19:34:47.051950,0,2025-11-07 19:34:51.048389846
2025-11-07 19:34:47.051950,66,2025-11-07 19:34:51.056082154
2025-11-07 19:34:47.051950,5632,2025-11-07 19:34:51.063774462
2025-11-07 19:34:47.051950,0,2025-11-07 19:34:51.071466769
2025-11-07 19:34:47.051950,58,2025-11-07 19:34:51.079159077
2025-11-07 19:34:47.051950,13568,2025-11-07 19:34:51.086851385
2025-11-07 19:34:47.051950,0,2025-11-07 19:34:51.094543692
2025-11-07 19:34:47.051950,24,2025-11-07 19:34:51.102236000
2025-11-07 19:34:47.051950,6656,2025-11-07 19:34:51.109928308
2025-11-07 19:34:47.051950,0,2025-11-07 19:34:51.117620615
2025-11-07 19:34:47.051950,26,2025-11-07 19:34:51.125312923
2025-11-07 19:34:47.051950,3072,2025-11-07 19:34:51.133005231
2025-11-07 19:34:47.051950,0,2025-11-07 19:34:51.140697538
2025-11-07 19:34:47.051950,4,2025-11-07 19:34:51.148389846
2025-11-07 19:34:47.051950,-512,2025-11-07 19:34:51.156082154
2025-11-07 19:34:47.051950,-1,2025-11-07 19:34:51.163774462
2025-11-07 19:34:47.051950,-17,2025-11-07 19:34:51.171466769
2025-11-07 19:34:47.051950,-7681,2025-11-07 19:34:51.179159077
2025-11-07 19:34:47.051950,-1,2025-11-07 19:34:51.186851385
2025-11-07 19:34:47.051950,-39,2025-11-07 19:34:51.194543692
2025-11-07 19:34:47.593291,-46,2025-11-07 19:34:51.202236000
2025-11-07 19:34:47.593291,-14081,2025-11-07 19:34:51.209928308
2025-11-07 19:34:47.593291,-1,2025-11-07 19:34:51.217620615
2025-11-07 19:34:47.593291,-66,2025-11-07 19:34:51.225312923
2025-11-07 19:34:47.593291,-20225,2025-11-07 19:34:51.233005231
2025-11-07 19:34:47.593291,-1,2025-11-07 19:34:51.240697538
2025-11-07 19:34:47.593291,-97,2025-11-07 19:34:51.248389846
2025-11-07 19:34:47.593291,-30977,2025-11-07 19:34:51.256082154
2025-11-07 19:34:47.593291,-1,2025-11-07 19:34:51.263774462
2025-11-07 19:34:47.593291,-144,2025-11-07 19:34:51.271466769
2025-11-07 19:34:47.593291,22015,2025-11-07 19:34:51.279159077
2025-11-07 19:34:47.593291,-1,2025-11-07 19:34:51.286851385
2025-11-07 19:34:47.593291,-198,2025-11-07 19:34:51.294543692
2025-11-07 19:34:47.593291,9471,2025-11-07 19:34:51.302236000
2025-11-07 19:34:47.593291,-1,2025-11-07 19:34:51.309928308
2025-11-07 19:34:47.593291,-239,2025-11-07 19:34:51.317620615
2025-11-07 19:34:47.593291,2047,2025-11-07 19:34:51.325312923
2025-11-07 19:34:47.593291,-1,2025-11-07 19:34:51.333005231
2025-11-07 19:34:47.593291,-242,2025-11-07 19:34:51.340697538
2025-11-07 19:34:47.593291,10751,2025-11-07 19:34:51.348389846
2025-11-07 19:34:47.593291,-1,2025-11-07 19:34:51.356082154
2025-11-07 19:34:47.593291,-176,2025-11-07 19:34:51.363774462
2025-11-07 19:34:47.593291,-31489,2025-11-07 19:34:51.371466769
2025-11-07 19:34:47.593291,-1,2025-11-07 19:34:51.379159077
2025-11-07 19:34:47.593291,-73,2025-11-07 19:34:51.386851385
2025-11-07 19:34:47.593291,-8449,2025-11-07 19:34:51.394543692
2025-11-07 19:34:47.593291,-1,2025-11-07 19:34:51.402236000
2025-11-07 19:34:47.593291,-12,2025-11-07 19:34:51.409928308
2025-11-07 19:34:47.593291,255,2025-11-07 19:34:51.417620615
2025-11-07 19:34:47.593291,0,2025-11-07 19:34:51.425312923
2025-11-07 19:34:47.593291,7,2025-11-07 19:34:51.433005231
2025-11-07 19:34:47.593291,1792,2025-11-07 19:34:51.440697538
2025-11-07 19:34:47.593291,0,2025-11-07 19:34:51.448389846
2025-11-07 19:34:47.593291,4,2025-11-07 19:34:51.456082154
2025-11-07 19:34:47.593291,0,2025-11-07 19:34:51.463774462
2025-11-07 19:34:47.593291,0,2025-11-07 19:34:51.471466769
2025-11-07 19:34:47.593291,-4,2025-11-07 19:34:51.479159077
2025-11-07 19:34:47.593291,-2049,2025-11-07 19:34:51.486851385
2025-11-07 19:34:47.593291,-1,2025-11-07 19:34:51.494543692
2025-11-07 19:34:47.593291,-17,2025-11-07 19:34:51.502236000
2025-11-07 19:34:47.593291,-4609,2025-11-07 19:34:51.509928308
2025-11-07 19:34:47.593291,-1,2025-11-07 19:34:51.517620615
2025-11-07 19:34:47.593291,-19,2025-11-07 19:34:51.525312923
2025-11-07 19:34:47.593291,-5377,2025-11-07 19:34:51.533005231
2025-11-07 19:34:47.593291,-1,2025-11-07 19:34:51.540697538
2025-11-07 19:34:47.593291,-24,2025-11-07 19:34:51.548389846
2025-11-07 19:34:47.593291,-5889,2025-11-07 19:34:51.556082154
2025-11-07 19:34:47.593291,-1,2025-11-07 19:34:51.563774462
2025-11-07 19:34:47.593291,-24,2025-11-07 19:34:51.571466769
2025-11-07 19:34:47.593291,-6401,2025-11-07 19:34:51.579159077
2025-11-07 19:34:47.593291,-1,2025-11-07 19:34:51.586851385
2025-11-07 19:34:47.593291,-31,2025-11-07 19:34:51.594543692
2025-11-07 19:34:47.593291,-8961,2025-11-07 19:34:51.602236000
2025-11-07 19:34:47.593291,-1,2025-11-07 19:34:51.609928308
2025-11-07 19:34:47.593291,-41,2025-11-07 19:34:51.617620615
2025-11-07 19:34:47.593291,-11009,2025-11-07 19:34:51.625312923
2025-11-07 19:34:47.593291,-1,2025-11-07 19:34:51.633005231
2025-11-07 19:34:47.593291,-48,2025-11-07 19:34:51.640697538
2025-11-07 19:34:47.593291,-14081,2025-11-07 19:34:51.648389846
2025-11-07 19:34:47.593291,-1,2025-11-07 19:34:51.656082154
2025-11-07 19:34:47.593291,-56,2025-11-07 19:34:51.663774462
2025-11-07 19:34:47.593291,-15361,2025-11-07 19:34:51.671466769
2025-11-07 19:34:47.593291,-1,2025-11-07 19:34:51.679159077
2025-11-07 19:34:47.593291,-68,2025-11-07 19:34:51.686851385
2025-11-07 19:34:47.593291,-16641,2025-11-07 19:34:51.694543692
2025-11-07 19:34:47.593291,-1,2025-11-07 19:34:51.702236000
2025-11-07 19:34:47.593291,-63,2025-11-07 19:34:51.709928308
2025-11-07 19:34:47.593291,-17665,2025-11-07 19:34:51.717620615
2025-11-07 19:34:47.593291,-1,2025-11-07 19:34:51.725312923
2025-11-07 19:34:47.593291,-80,2025-11-07 19:34:51.733005231
2025-11-07 19:34:47.593291,-21505,2025-11-07 19:34:51.740697538
2025-11-07 19:34:47.593291,-1,2025-11-07 19:34:51.748389846
2025-11-07 19:34:47.593291,-85,2025-11-07 19:34:51.756082154
2025-11-07 19:34:47.593291,-22785,2025-11-07 19:34:51.763774462
2025-11-07 19:34:47.593291,-1,2025-11-07 19:34:51.771466769
2025-11-07 19:34:47.593291,-92,2025-11-07 19:34:51.779159077
2025-11-07 19:34:47.593291,-23297,2025-11-07 19:34:51.786851385
2025-11-07 19:34:47.593291,-1,2025-11-07 19:34:51.794543692
2025-11-07 19:34:47.593291,-95,2025-11-07 19:34:51.802236000
2025-11-07 19:34:47.593291,-24577,2025-11-07 19:34:51.809928308
2025-11-07 19:34:47.593291,-1,2025-11-07 19:34:51.817620615
2025-11-07 19:34:47.593291,-97,2025-11-07 19:34:51.825312923
2025-11-07 19:34:47.593291,-25345,2025-11-07 19:34:51.833005230
2025-11-07 19:34:47.593291,-1,2025-11-07 19:34:51.840697538
2025-11-07 19:34:47.593291,-100,2025-11-07 19:34:51.848389846
2025-11-07 19:34:47.593291,-25857,2025-11-07 19:34:51.856082154
2025-11-07 19:34:47.593291,-1,2025-11-07 19:34:51.863774462
2025-11-07 19:34:47.593291,-105,2025-11-07 19:34:51.871466769
2025-11-07 19:34:47.593291,-25857,2025-11-07 19:34:51.879159077
2025-11-07 19:34:47.593291,-1,2025-11-07 19:34:51.886851385
2025-11-07 19:34:47.593291,-105,2025-11-07 19:34:51.894543692
2025-11-07 19:34:47.593291,-27137,2025-11-07 19:34:51.902236000
2025-11-07 19:34:47.593291,-1,2025-11-07 19:34:51.909928308
2025-11-07 19:34:47.593291,-110,2025-11-07 19:34:51.917620615
2025-11-07 19:34:47.593291,-27905,2025-11-07 19:34:51.925312923
2025-11-07 19:34:47.593291,-1,2025-11-07 19:34:51.933005231
2025-11-07 19:34:47.593291,-110,2025-11-07 19:34:51.940697538
2025-11-07 19:34:47.593291,-27905,2025-11-07 19:34:51.948389846
2025-11-07 19:34:47.593291,-1,2025-11-07 19:34:51.956082154
2025-11-07 19:34:47.593291,-110,2025-11-07 19:34:51.963774462
2025-11-07 19:34:47.593291,-28417,2025-11-07 19:34:51.971466769
2025-11-07 19:34:47.593291,-1,2025-11-07 19:34:51.979159077
2025-11-07 19:34:47.593291,-112,2025-11-07 19:34:51.986851385
2025-11-07 19:34:47.593291,-28417,2025-11-07 19:34:51.994543692
2025-11-07 19:34:47.593291,-1,2025-11-07 19:34:52.002236000
2025-11-07 19:34:47.593291,-112,2025-11-07 19:34:52.009928308
2025-11-07 19:34:47.593291,-28417,2025-11-07 19:34:52.017620615
2025-11-07 19:34:47.593291,-1,2025-11-07 19:34:52.025312923
2025-11-07 19:34:47.593291,-112,2025-11-07 19:34:52.033005231
2025-11-07 19:34:48.132546,-114,2025-11-07 19:34:52.040697538
2025-11-07 19:34:48.132546,-29697,2025-11-07 19:34:52.048389846
2025-11-07 19:34:48.132546,-1,2025-11-07 19:34:52.056082154
2025-11-07 19:34:48.132546,-114,2025-11-07 19:34:52.063774462
2025-11-07 19:34:48.132546,-29697,2025-11-07 19:34:52.071466769
2025-11-07 19:34:48.132546,-1,2025-11-07 19:34:52.079159077
2025-11-07 19:34:48.132546,-119,2025-11-07 19:34:52.086851385
2025-11-07 19:34:48.132546,-30209,2025-11-07 19:34:52.094543692
2025-11-07 19:34:48.132546,-1,2025-11-07 19:34:52.102236000
2025-11-07 19:34:48.132546,-119,2025-11-07 19:34:52.109928308
2025-11-07 19:34:48.132546,-30209,2025-11-07 19:34:52.117620615
2025-11-07 19:34:48.132546,-1,2025-11-07 19:34:52.125312923
2025-11-07 19:34:48.132546,-119,2025-11-07 19:34:52.133005231
2025-11-07 19:34:48.132546,-28929,2025-11-07 19:34:52.140697538
2025-11-07 19:34:48.132546,-1,2025-11-07 19:34:52.148389846
2025-11-07 19:34:48.132546,-107,2025-11-07 19:34:52.156082154
2025-11-07 19:34:48.132546,-26625,2025-11-07 19:34:52.163774462
2025-11-07 19:34:48.132546,-1,2025-11-07 19:34:52.171466769
2025-11-07 19:34:48.132546,-110,2025-11-07 19:34:52.179159077
2025-11-07 19:34:48.132546,-27905,2025-11-07 19:34:52.186851385
2025-11-07 19:34:48.132546,-1,2025-11-07 19:34:52.194543692
2025-11-07 19:34:48.132546,-110,2025-11-07 19:34:52.202236000
2025-11-07 19:34:48.132546,-27905,2025-11-07 19:34:52.209928308
2025-11-07 19:34:48.132546,-1,2025-11-07 19:34:52.217620615
2025-11-07 19:34:48.132546,-110,2025-11-07 19:34:52.225312923
2025-11-07 19:34:48.132546,-28417,2025-11-07 19:34:52.233005231
2025-11-07 19:34:48.132546,-1,2025-11-07 19:34:52.240697538
2025-11-07 19:34:48.132546,-117,2025-11-07 19:34:52.248389846
2025-11-07 19:34:48.132546,-29697,2025-11-07 19:34:52.256082154
2025-11-07 19:34:48.132546,-1,2025-11-07 19:34:52.263774462
2025-11-07 19:34:48.132546,-117,2025-11-07 19:34:52.271466769
2025-11-07 19:34:48.132546,-28929,2025-11-07 19:34:52.279159077
2025-11-07 19:34:48.132546,-1,2025-11-07 19:34:52.286851385
2025-11-07 19:34:48.132546,-114,2025-11-07 19:34:52.294543692
2025-11-07 19:34:48.132546,-29697,2025-11-07 19:34:52.302236000
2025-11-07 19:34:48.132546,-1,2025-11-07 19:34:52.309928308
2025-11-07 19:34:48.132546,-119,2025-11-07 19:34:52.317620615
2025-11-07 19:34:48.132546,-30209,2025-11-07 19:34:52.325312923
2025-11-07 19:34:48.132546,-1,2025-11-07 19:34:52.333005231
2025-11-07 19:34:48.132546,-119,2025-11-07 19:34:52.340697538
2025-11-07 19:34:48.132546,-30209,2025-11-07 19:34:52.348389846
2025-11-07 19:34:48.132546,-1,2025-11-07 19:34:52.356082154
2025-11-07 19:34:48.132546,-117,2025-11-07 19:34:52.363774462
2025-11-07 19:34:48.132546,-27137,2025-11-07 19:34:52.371466769
2025-11-07 19:34:48.132546,-1,2025-11-07 19:34:52.379159077
2025-11-07 19:34:48.132546,-95,2025-11-07 19:34:52.386851385
2025-11-07 19:34:48.132546,-22273,2025-11-07 19:34:52.394543692
2025-11-07 19:34:48.132546,-1,2025-11-07 19:34:52.402236000
2025-11-07 19:34:48.132546,-88,2025-11-07 19:34:52.409928308
2025-11-07 19:34:48.132546,-22273,2025-11-07 19:34:52.417620615
2025-11-07 19:34:48.132546,-1,2025-11-07 19:34:52.425312923
2025-11-07 19:34:48.132546,-110,2025-11-07 19:34:52.433005231
2025-11-07 19:34:48.132546,27135,2025-11-07 19:34:52.440697538
2025-11-07 19:34:48.132546,-1,2025-11-07 19:34:52.448389846
2025-11-07 19:34:48.132546,-156,2025-11-07 19:34:52.456082154
2025-11-07 19:34:48.132546,-32257,2025-11-07 19:34:52.463774462
2025-11-07 19:34:48.132546,-1,2025-11-07 19:34:52.471466769
2025-11-07 19:34:48.132546,-110,2025-11-07 19:34:52.479159077
2025-11-07 19:34:48.132546,-28929,2025-11-07 19:34:52.486851385
2025-11-07 19:34:48.132546,-1,2025-11-07 19:34:52.494543692
2025-11-07 19:34:48.132546,-119,2025-11-07 19:34:52.502236000
2025-11-07 19:34:48.132546,-31489,2025-11-07 19:34:52.509928308
2025-11-07 19:34:48.132546,-1,2025-11-07 19:34:52.517620615
2025-11-07 19:34:48.132546,-127,2025-11-07 19:34:52.525312923
2025-11-07 19:34:48.132546,-31489,2025-11-07 19:34:52.533005231
2025-11-07 19:34:48.132546,-1,2025-11-07 19:34:52.540697538
2025-11-07 19:34:48.132546,-127,2025-11-07 19:34:52.548389846
2025-11-07 19:34:48.132546,-31489,2025-11-07 19:34:52.556082154
2025-11-07 19:34:48.132546,-1,2025-11-07 19:34:52.563774462
2025-11-07 19:34:48.132546,-83,2025-11-07 19:34:52.571466769
2025-11-07 19:34:48.132546,20735,2025-11-07 19:34:52.579159077
2025-11-07 19:34:48.132546,0,2025-11-07 19:34:52.586851385
2025-11-07 19:34:48.132546,273,2025-11-07 19:34:52.594543692
2025-11-07 19:34:48.132546,23040,2025-11-07 19:34:52.602236000
2025-11-07 19:34:48.132546,0,2025-11-07 19:34:52.609928308
2025-11-07 19:34:48.132546,-677,2025-11-07 19:34:52.617620615
2025-11-07 19:34:48.132546,6655,2025-11-07 19:34:52.625312923
2025-11-07 19:34:48.132546,-6,2025-11-07 19:34:52.633005231
2025-11-07 19:34:48.132546,-1873,2025-11-07 19:34:52.640697538
2025-11-07 19:34:48.132546,29695,2025-11-07 19:34:52.648389846
2025-11-07 19:34:48.132546,-7,2025-11-07 19:34:52.656082154
2025-11-07 19:34:48.132546,-846,2025-11-07 19:34:52.663774462
2025-11-07 19:34:48.132546,-7169,2025-11-07 19:34:52.671466769
2025-11-07 19:34:48.132546,-1,2025-11-07 19:34:52.679159077
2025-11-07 19:34:48.132546,22,2025-11-07 19:34:52.686851385
2025-11-07 19:34:48.132546,-19200,2025-11-07 19:34:52.694543692
2025-11-07 19:34:48.132546,-1,2025-11-07 19:34:52.702236000
2025-11-07 19:34:48.132546,100,2025-11-07 19:34:52.709928308
2025-11-07 19:34:48.132546,-30720,2025-11-07 19:34:52.717620615
2025-11-07 19:34:48.132546,0,2025-11-07 19:34:52.725312923
2025-11-07 19:34:48.132546,56,2025-11-07 19:34:52.733005231
2025-11-07 19:34:48.132546,20480,2025-11-07 19:34:52.740697538
2025-11-07 19:34:48.132546,0,2025-11-07 19:34:52.748389846
2025-11-07 19:34:48.132546,97,2025-11-07 19:34:52.756082154
2025-11-07 19:34:48.132546,16128,2025-11-07 19:34:52.763774462
2025-11-07 19:34:48.132546,0,2025-11-07 19:34:52.771466769
2025-11-07 19:34:48.132546,53,2025-11-07 19:34:52.779159077
2025-11-07 19:34:48.132546,13568,2025-11-07 19:34:52.786851385
2025-11-07 19:34:48.132546,0,2025-11-07 19:34:52.794543692
2025-11-07 19:34:48.132546,39,2025-11-07 19:34:52.802236000
2025-11-07 19:34:48.132546,6656,2025-11-07 19:34:52.809928308
2025-11-07 19:34:48.132546,0,2025-11-07 19:34:52.817620615
2025-11-07 19:34:48.132546,24,2025-11-07 19:34:52.825312923
2025-11-07 19:34:48.132546,3072,2025-11-07 19:34:52.833005230
2025-11-07 19:34:48.132546,0,2025-11-07 19:34:52.840697538
2025-11-07 19:34:48.132546,2,2025-11-07 19:34:52.848389846
2025-11-07 19:34:48.132546,-512,2025-11-07 19:34:52.856082154
2025-11-07 19:34:48.132546,-1,2025-11-07 19:34:52.863774462
2025-11-07 19:34:48.132546,-9,2025-11-07 19:34:52.871466769
2025-11-07 19:34:48.717440,-24,2025-11-07 19:34:52.879159077
2025-11-07 19:34:48.717440,-8449,2025-11-07 19:34:52.886851385
2025-11-07 19:34:48.717440,-1,2025-11-07 19:34:52.894543692
2025-11-07 19:34:48.717440,-44,2025-11-07 19:34:52.902236000
2025-11-07 19:34:48.717440,-14593,2025-11-07 19:34:52.909928308
2025-11-07 19:34:48.717440,-1,2025-11-07 19:34:52.917620615
2025-11-07 19:34:48.717440,-73,2025-11-07 19:34:52.925312923
2025-11-07 19:34:48.717440,-24065,2025-11-07 19:34:52.933005231
2025-11-07 19:34:48.717440,-1,2025-11-07 19:34:52.940697538
2025-11-07 19:34:48.717440,-117,2025-11-07 19:34:52.948389846
2025-11-07 19:34:48.717440,30975,2025-11-07 19:34:52.956082154
2025-11-07 19:34:48.717440,-1,2025-11-07 19:34:52.963774462
2025-11-07 19:34:48.717440,-158,2025-11-07 19:34:52.971466769
2025-11-07 19:34:48.717440,18943,2025-11-07 19:34:52.979159077
2025-11-07 19:34:48.717440,-1,2025-11-07 19:34:52.986851385
2025-11-07 19:34:48.717440,-200,2025-11-07 19:34:52.994543692
2025-11-07 19:34:48.717440,14079,2025-11-07 19:34:53.002236000
2025-11-07 19:34:48.717440,-1,2025-11-07 19:34:53.009928308
2025-11-07 19:34:48.717440,-195,2025-11-07 19:34:53.017620615
2025-11-07 19:34:48.717440,22015,2025-11-07 19:34:53.025312923
2025-11-07 19:34:48.717440,-1,2025-11-07 19:34:53.033005231
2025-11-07 19:34:48.717440,-132,2025-11-07 19:34:53.040697538
2025-11-07 19:34:48.717440,-21505,2025-11-07 19:34:53.048389846
2025-11-07 19:34:48.717440,-1,2025-11-07 19:34:53.056082154
2025-11-07 19:34:48.717440,-48,2025-11-07 19:34:53.063774462
2025-11-07 19:34:48.717440,-5889,2025-11-07 19:34:53.071466769
2025-11-07 19:34:48.717440,-1,2025-11-07 19:34:53.079159077
2025-11-07 19:34:48.717440,-9,2025-11-07 19:34:53.086851385
2025-11-07 19:34:48.717440,255,2025-11-07 19:34:53.094543692
2025-11-07 19:34:48.717440,0,2025-11-07 19:34:53.102236000
2025-11-07 19:34:48.717440,2,2025-11-07 19:34:53.109928308
2025-11-07 19:34:48.717440,0,2025-11-07 19:34:53.117620615
2025-11-07 19:34:48.717440,0,2025-11-07 19:34:53.125312923
2025-11-07 19:34:48.717440,-2,2025-11-07 19:34:53.133005231
2025-11-07 19:34:48.717440,-1537,2025-11-07 19:34:53.140697538
2025-11-07 19:34:48.717440,-1,2025-11-07 19:34:53.148389846
2025-11-07 19:34:48.717440,-12,2025-11-07 19:34:53.156082154
2025-11-07 19:34:48.717440,-2817,2025-11-07 19:34:53.163774462
2025-11-07 19:34:48.717440,-1,2025-11-07 19:34:53.171466769
2025-11-07 19:34:48.717440,-19,2025-11-07 19:34:53.179159077
2025-11-07 19:34:48.717440,-5889,2025-11-07 19:34:53.186851385
2025-11-07 19:34:48.717440,-1,2025-11-07 19:34:53.194543692
2025-11-07 19:34:48.717440,-24,2025-11-07 19:34:53.202236000
2025-11-07 19:34:48.717440,-5889,2025-11-07 19:34:53.209928308
2025-11-07 19:34:48.717440,-1,2025-11-07 19:34:53.217620615
2025-11-07 19:34:48.717440,-24,2025-11-07 19:34:53.225312923
2025-11-07 19:34:48.717440,-7681,2025-11-07 19:34:53.233005231
2025-11-07 19:34:48.717440,-1,2025-11-07 19:34:53.240697538
2025-11-07 19:34:48.717440,-36,2025-11-07 19:34:53.248389846
2025-11-07 19:34:48.717440,-10241,2025-11-07 19:34:53.256082154
2025-11-07 19:34:48.717440,-1,2025-11-07 19:34:53.263774462
2025-11-07 19:34:48.717440,-44,2025-11-07 19:34:53.271466769
2025-11-07 19:34:48.717440,-11521,2025-11-07 19:34:53.279159077
2025-11-07 19:34:48.717440,-1,2025-11-07 19:34:53.286851385
2025-11-07 19:34:48.717440,-51,2025-11-07 19:34:53.294543692
2025-11-07 19:34:48.717440,-14593,2025-11-07 19:34:53.302236000
2025-11-07 19:34:48.717440,-1,2025-11-07 19:34:53.309928308
2025-11-07 19:34:48.717440,-66,2025-11-07 19:34:53.317620615
2025-11-07 19:34:48.717440,-16641,2025-11-07 19:34:53.325312923
2025-11-07 19:34:48.717440,-1,2025-11-07 19:34:53.333005231
2025-11-07 19:34:48.717440,-68,2025-11-07 19:34:53.340697538
2025-11-07 19:34:48.717440,-18945,2025-11-07 19:34:53.348389846
2025-11-07 19:34:48.717440,-1,2025-11-07 19:34:53.356082154
2025-11-07 19:34:48.717440,-78,2025-11-07 19:34:53.363774462
2025-11-07 19:34:48.717440,-19713,2025-11-07 19:34:53.371466769
2025-11-07 19:34:48.717440,-1,2025-11-07 19:34:53.379159077
2025-11-07 19:34:48.717440,-83,2025-11-07 19:34:53.386851385
2025-11-07 19:34:48.717440,-22273,2025-11-07 19:34:53.394543692
2025-11-07 19:34:48.717440,-1,2025-11-07 19:34:53.402236000
2025-11-07 19:34:48.717440,-90,2025-11-07 19:34:53.409928308
2025-11-07 19:34:48.717440,-24065,2025-11-07 19:34:53.417620615
2025-11-07 19:34:48.717440,-1,2025-11-07 19:34:53.425312923
2025-11-07 19:34:48.717440,-92,2025-11-07 19:34:53.433005231
2025-11-07 19:34:48.717440,-24577,2025-11-07 19:34:53.440697538
2025-11-07 19:34:48.717440,-1,2025-11-07 19:34:53.448389846
2025-11-07 19:34:48.717440,-102,2025-11-07 19:34:53.456082154
2025-11-07 19:34:48.717440,-26625,2025-11-07 19:34:53.463774462
2025-11-07 19:34:48.717440,-1,2025-11-07 19:34:53.471466769
2025-11-07 19:34:48.717440,-105,2025-11-07 19:34:53.479159077
2025-11-07 19:34:48.717440,-25857,2025-11-07 19:34:53.486851385
2025-11-07 19:34:48.717440,-1,2025-11-07 19:34:53.494543692
2025-11-07 19:34:48.717440,-102,2025-11-07 19:34:53.502236000
2025-11-07 19:34:48.717440,-27137,2025-11-07 19:34:53.509928308
2025-11-07 19:34:48.717440,-1,2025-11-07 19:34:53.517620615
2025-11-07 19:34:48.717440,-107,2025-11-07 19:34:53.525312923
2025-11-07 19:34:48.717440,-27905,2025-11-07 19:34:53.533005231
2025-11-07 19:34:48.717440,-1,2025-11-07 19:34:53.540697538
2025-11-07 19:34:48.717440,-112,2025-11-07 19:34:53.548389846
2025-11-07 19:34:48.717440,-28929,2025-11-07 19:34:53.556082154
2025-11-07 19:34:48.717440,-1,2025-11-07 19:34:53.563774462
2025-11-07 19:34:48.717440,-114,2025-11-07 19:34:53.571466769
2025-11-07 19:34:48.717440,-29697,2025-11-07 19:34:53.579159077
2025-11-07 19:34:48.717440,-1,2025-11-07 19:34:53.586851385
2025-11-07 19:34:48.717440,-119,2025-11-07 19:34:53.594543692
2025-11-07 19:34:48.717440,-30977,2025-11-07 19:34:53.602236000
2025-11-07 19:34:48.717440,-1,2025-11-07 19:34:53.609928308
2025-11-07 19:34:48.717440,-119,2025-11-07 19:34:53.617620615
2025-11-07 19:34:48.717440,-30209,2025-11-07 19:34:53.625312923
2025-11-07 19:34:48.717440,-1,2025-11-07 19:34:53.633005231
2025-11-07 19:34:48.717440,-119,2025-11-07 19:34:53.640697538
2025-11-07 19:34:48.717440,-30977,2025-11-07 19:34:53.648389846
2025-11-07 19:34:48.717440,-1,2025-11-07 19:34:53.656082154
2025-11-07 19:34:48.717440,-122,2025-11-07 19:34:53.663774462
2025-11-07 19:34:48.717440,-30977,2025-11-07 19:34:53.671466769
2025-11-07 19:34:48.717440,-1,2025-11-07 19:34:53.679159077
2025-11-07 19:34:48.717440,-122,2025-11-07 19:34:53.686851385
2025-11-07 19:34:48.717440,-30977,2025-11-07 19:34:53.694543692
2025-11-07 19:34:48.717440,-1,2025-11-07 19:34:53.702236000
2025-11-07 19:34:48.717440,-119,2025-11-07 19:34:53.709928308
2025-11-07 19:34:49.256578,-122,2025-11-07 19:34:53.717620615
2025-11-07 19:34:49.256578,-32257,2025-11-07 19:34:53.725312923
2025-11-07 19:34:49.256578,-1,2025-11-07 19:34:53.733005231
2025-11-07 19:34:49.256578,-124,2025-11-07 19:34:53.740697538
2025-11-07 19:34:49.256578,-30977,2025-11-07 19:34:53.748389846
2025-11-07 19:34:49.256578,-1,2025-11-07 19:34:53.756082154
2025-11-07 19:34:49.256578,-124,2025-11-07 19:34:53.763774462
2025-11-07 19:34:49.256578,-31489,2025-11-07 19:34:53.771466769
2025-11-07 19:34:49.256578,-1,2025-11-07 19:34:53.779159077
2025-11-07 19:34:49.256578,-124,2025-11-07 19:34:53.786851385
2025-11-07 19:34:49.256578,-31489,2025-11-07 19:34:53.794543692
2025-11-07 19:34:49.256578,-1,2025-11-07 19:34:53.802236000
2025-11-07 19:34:49.256578,-127,2025-11-07 19:34:53.809928308
2025-11-07 19:34:49.256578,-30977,2025-11-07 19:34:53.817620615
2025-11-07 19:34:49.256578,-1,2025-11-07 19:34:53.825312923
2025-11-07 19:34:49.256578,-114,2025-11-07 19:34:53.833005230
2025-11-07 19:34:49.256578,-28417,2025-11-07 19:34:53.840697538
2025-11-07 19:34:49.256578,-1,2025-11-07 19:34:53.848389846
2025-11-07 19:34:49.256578,-114,2025-11-07 19:34:53.856082154
2025-11-07 19:34:49.256578,-28929,2025-11-07 19:34:53.863774462
2025-11-07 19:34:49.256578,-1,2025-11-07 19:34:53.871466769
2025-11-07 19:34:49.256578,-112,2025-11-07 19:34:53.879159077
2025-11-07 19:34:49.256578,-28417,2025-11-07 19:34:53.886851385
2025-11-07 19:34:49.256578,-1,2025-11-07 19:34:53.894543692
2025-11-07 19:34:49.256578,-112,2025-11-07 19:34:53.902236000
2025-11-07 19:34:49.256578,-28929,2025-11-07 19:34:53.909928308
2025-11-07 19:34:49.256578,-1,2025-11-07 19:34:53.917620615
2025-11-07 19:34:49.256578,-114,2025-11-07 19:34:53.925312923
2025-11-07 19:34:49.256578,-28929,2025-11-07 19:34:53.933005231
2025-11-07 19:34:49.256578,-1,2025-11-07 19:34:53.940697538
2025-11-07 19:34:49.256578,-114,2025-11-07 19:34:53.948389846
2025-11-07 19:34:49.256578,-28417,2025-11-07 19:34:53.956082154
2025-11-07 19:34:49.256578,-1,2025-11-07 19:34:53.963774462
2025-11-07 19:34:49.256578,-107,2025-11-07 19:34:53.971466769
2025-11-07 19:34:49.256578,-28417,2025-11-07 19:34:53.979159077
2025-11-07 19:34:49.256578,-1,2025-11-07 19:34:53.986851385
2025-11-07 19:34:49.256578,-117,2025-11-07 19:34:53.994543692
2025-11-07 19:34:49.256578,-29697,2025-11-07 19:34:54.002236000
2025-11-07 19:34:49.256578,-1,2025-11-07 19:34:54.009928308
2025-11-07 19:34:49.256578,-114,2025-11-07 19:34:54.017620615
2025-11-07 19:34:49.256578,-28929,2025-11-07 19:34:54.025312923
2025-11-07 19:34:49.256578,-1,2025-11-07 19:34:54.033005231
2025-11-07 19:34:49.256578,-117,2025-11-07 19:34:54.040697538
2025-11-07 19:34:49.256578,-29697,2025-11-07 19:34:54.048389846
2025-11-07 19:34:49.256578,-1,2025-11-07 19:34:54.056082154
2025-11-07 19:34:49.256578,-114,2025-11-07 19:34:54.063774462
2025-11-07 19:34:49.256578,-29697,2025-11-07 19:34:54.071466769
2025-11-07 19:34:49.256578,-1,2025-11-07 19:34:54.079159077
2025-11-07 19:34:49.256578,-119,2025-11-07 19:34:54.086851385
2025-11-07 19:34:49.256578,-30209,2025-11-07 19:34:54.094543692
2025-11-07 19:34:49.256578,-1,2025-11-07 19:34:54.102236000
2025-11-07 19:34:49.256578,-117,2025-11-07 19:34:54.109928308
2025-11-07 19:34:49.256578,-27905,2025-11-07 19:34:54.117620615
2025-11-07 19:34:49.256578,-1,2025-11-07 19:34:54.125312923
2025-11-07 19:34:49.256578,-100,2025-11-07 19:34:54.133005231
2025-11-07 19:34:49.256578,-22785,2025-11-07 19:34:54.140697538
2025-11-07 19:34:49.256578,-1,2025-11-07 19:34:54.148389846
2025-11-07 19:34:49.256578,-85,2025-11-07 19:34:54.156082154
2025-11-07 19:34:49.256578,-22785,2025-11-07 19:34:54.163774462
2025-11-07 19:34:49.256578,-1,2025-11-07 19:34:54.171466769
2025-11-07 19:34:49.256578,-100,2025-11-07 19:34:54.179159077
2025-11-07 19:34:49.256578,30207,2025-11-07 19:34:54.186851385
2025-11-07 19:34:49.256578,-1,2025-11-07 19:34:54.194543692
2025-11-07 19:34:49.256578,-168,2025-11-07 19:34:54.202236000
2025-11-07 19:34:49.256578,25855,2025-11-07 19:34:54.209928308
2025-11-07 19:34:49.256578,-1,2025-11-07 19:34:54.217620615
2025-11-07 19:34:49.256578,-132,2025-11-07 19:34:54.225312923
2025-11-07 19:34:49.256578,-30977,2025-11-07 19:34:54.233005231
2025-11-07 19:34:49.256578,-1,2025-11-07 19:34:54.240697538
2025-11-07 19:34:49.256578,-122,2025-11-07 19:34:54.248389846
2025-11-07 19:34:49.256578,-32257,2025-11-07 19:34:54.256082154
2025-11-07 19:34:49.256578,-1,2025-11-07 19:34:54.263774462
2025-11-07 19:34:49.256578,-129,2025-11-07 19:34:54.271466769
2025-11-07 19:34:49.256578,31999,2025-11-07 19:34:54.279159077
2025-11-07 19:34:49.256578,-1,2025-11-07 19:34:54.286851385
2025-11-07 19:34:49.256578,-132,2025-11-07 19:34:54.294543692
2025-11-07 19:34:49.256578,31999,2025-11-07 19:34:54.302236000
2025-11-07 19:34:49.256578,-1,2025-11-07 19:34:54.309928308
2025-11-07 19:34:49.256578,-117,2025-11-07 19:34:54.317620615
2025-11-07 19:34:49.256578,-5889,2025-11-07 19:34:54.325312923
2025-11-07 19:34:49.256578,-1,2025-11-07 19:34:54.333005231
2025-11-07 19:34:49.256578,180,2025-11-07 19:34:54.340697538
2025-11-07 19:34:49.256578,-3584,2025-11-07 19:34:54.348389846
2025-11-07 19:34:49.256578,0,2025-11-07 19:34:54.356082154
2025-11-07 19:34:49.256578,-271,2025-11-07 19:34:54.363774462
2025-11-07 19:34:49.256578,25599,2025-11-07 19:34:54.371466769
2025-11-07 19:34:49.256578,-5,2025-11-07 19:34:54.379159077
2025-11-07 19:34:49.256578,-1775,2025-11-07 19:34:54.386851385
2025-11-07 19:34:49.256578,-5889,2025-11-07 19:34:54.394543692
2025-11-07 19:34:49.256578,-8,2025-11-07 19:34:54.402236000
2025-11-07 19:34:49.256578,-1256,2025-11-07 19:34:54.409928308
2025-11-07 19:34:49.256578,-16641,2025-11-07 19:34:54.417620615
2025-11-07 19:34:49.256578,-2,2025-11-07 19:34:54.425312923
2025-11-07 19:34:49.256578,66,2025-11-07 19:34:54.433005231
2025-11-07 19:34:49.256578,-17408,2025-11-07 19:34:54.440697538
2025-11-07 19:34:49.256578,-1,2025-11-07 19:34:54.448389846
2025-11-07 19:34:49.256578,12,2025-11-07 19:34:54.456082154
2025-11-07 19:34:49.256578,-28672,2025-11-07 19:34:54.463774462
2025-11-07 19:34:49.256578,0,2025-11-07 19:34:54.471466769
2025-11-07 19:34:49.256578,83,2025-11-07 19:34:54.479159077
2025-11-07 19:34:49.256578,14336,2025-11-07 19:34:54.486851385
2025-11-07 19:34:49.256578,0,2025-11-07 19:34:54.494543692
2025-11-07 19:34:49.256578,95,2025-11-07 19:34:54.502236000
2025-11-07 19:34:49.256578,19200,2025-11-07 19:34:54.509928308
2025-11-07 19:34:49.256578,0,2025-11-07 19:34:54.517620615
2025-11-07 19:34:49.256578,46,2025-11-07 19:34:54.525312923
2025-11-07 19:34:49.256578,13056,2025-11-07 19:34:54.533005231
2025-11-07 19:34:49.256578,0,2025-11-07 19:34:54.540697538
2025-11-07 19:34:49.256578,44,2025-11-07 19:34:54.548389846
2025-11-07 19:34:49.842988,26,2025-11-07 19:34:54.556082154
2025-11-07 19:34:49.842988,5632,2025-11-07 19:34:54.563774462
2025-11-07 19:34:49.842988,0,2025-11-07 19:34:54.571466769
2025-11-07 19:34:49.842988,17,2025-11-07 19:34:54.579159077
2025-11-07 19:34:49.842988,2304,2025-11-07 19:34:54.586851385
2025-11-07 19:34:49.842988,0,2025-11-07 19:34:54.594543692
2025-11-07 19:34:49.842988,4,2025-11-07 19:34:54.602236000
2025-11-07 19:34:49.842988,-1024,2025-11-07 19:34:54.609928308
2025-11-07 19:34:49.842988,-1,2025-11-07 19:34:54.617620615
2025-11-07 19:34:49.842988,-17,2025-11-07 19:34:54.625312923
2025-11-07 19:34:49.842988,-5377,2025-11-07 19:34:54.633005231
2025-11-07 19:34:49.842988,-1,2025-11-07 19:34:54.640697538
2025-11-07 19:34:49.842988,-26,2025-11-07 19:34:54.648389846
2025-11-07 19:34:49.842988,-10241,2025-11-07 19:34:54.656082154
2025-11-07 19:34:49.842988,-1,2025-11-07 19:34:54.663774462
2025-11-07 19:34:49.842988,-61,2025-11-07 19:34:54.671466769
2025-11-07 19:34:49.842988,-19713,2025-11-07 19:34:54.679159077
2025-11-07 19:34:49.842988,-1,2025-11-07 19:34:54.686851385
2025-11-07 19:34:49.842988,-102,2025-11-07 19:34:54.694543692
2025-11-07 19:34:49.842988,31999,2025-11-07 19:34:54.702236000
2025-11-07 19:34:49.842988,-1,2025-11-07 19:34:54.709928308
2025-11-07 19:34:49.842988,-158,2025-11-07 19:34:54.717620615
2025-11-07 19:34:49.842988,18943,2025-11-07 19:34:54.725312923
2025-11-07 19:34:49.842988,-1,2025-11-07 19:34:54.733005231
2025-11-07 19:34:49.842988,-200,2025-11-07 19:34:54.740697538
2025-11-07 19:34:49.842988,11519,2025-11-07 19:34:54.748389846
2025-11-07 19:34:49.842988,-1,2025-11-07 19:34:54.756082154
2025-11-07 19:34:49.842988,-217,2025-11-07 19:34:54.763774462
2025-11-07 19:34:49.842988,15871,2025-11-07 19:34:54.771466769
2025-11-07 19:34:49.842988,-1,2025-11-07 19:34:54.779159077
2025-11-07 19:34:49.842988,-156,2025-11-07 19:34:54.786851385
2025-11-07 19:34:49.842988,-27905,2025-11-07 19:34:54.794543692
2025-11-07 19:34:49.842988,-1,2025-11-07 19:34:54.802236000
2025-11-07 19:34:49.842988,-68,2025-11-07 19:34:54.809928308
2025-11-07 19:34:49.842988,-9729,2025-11-07 19:34:54.817620615
2025-11-07 19:34:49.842988,-1,2025-11-07 19:34:54.825312923
2025-11-07 19:34:49.842988,-19,2025-11-07 19:34:54.833005230
2025-11-07 19:34:49.842988,-769,2025-11-07 19:34:54.840697538
2025-11-07 19:34:49.842988,-1,2025-11-07 19:34:54.848389846
2025-11-07 19:34:49.842988,-2,2025-11-07 19:34:54.856082154
2025-11-07 19:34:49.842988,-257,2025-11-07 19:34:54.863774462
2025-11-07 19:34:49.842988,-1,2025-11-07 19:34:54.871466769
2025-11-07 19:34:49.842988,-2,2025-11-07 19:34:54.879159077
2025-11-07 19:34:49.842988,-2049,2025-11-07 19:34:54.886851385
2025-11-07 19:34:49.842988,-1,2025-11-07 19:34:54.894543692
2025-11-07 19:34:49.842988,-17,2025-11-07 19:34:54.902236000
2025-11-07 19:34:49.842988,-5889,2025-11-07 19:34:54.909928308
2025-11-07 19:34:49.842988,-1,2025-11-07 19:34:54.917620615
2025-11-07 19:34:49.842988,-26,2025-11-07 19:34:54.925312923
2025-11-07 19:34:49.842988,-7681,2025-11-07 19:34:54.933005231
2025-11-07 19:34:49.842988,-1,2025-11-07 19:34:54.940697538
2025-11-07 19:34:49.842988,-36,2025-11-07 19:34:54.948389846
2025-11-07 19:34:49.842988,-9729,2025-11-07 19:34:54.956082154
2025-11-07 19:34:49.842988,-1,2025-11-07 19:34:54.963774462
2025-11-07 19:34:49.842988,-41,2025-11-07 19:34:54.971466769
2025-11-07 19:34:49.842988,-11521,2025-11-07 19:34:54.979159077
2025-11-07 19:34:49.842988,-1,2025-11-07 19:34:54.986851385
2025-11-07 19:34:49.842988,-51,2025-11-07 19:34:54.994543692
2025-11-07 19:34:49.842988,-14081,2025-11-07 19:34:55.002236000
2025-11-07 19:34:49.842988,-1,2025-11-07 19:34:55.009928308
2025-11-07 19:34:49.842988,-58,2025-11-07 19:34:55.017620615
2025-11-07 19:34:49.842988,-15361,2025-11-07 19:34:55.025312923
2025-11-07 19:34:49.842988,-1,2025-11-07 19:34:55.033005231
2025-11-07 19:34:49.842988,-63,2025-11-07 19:34:55.040697538
2025-11-07 19:34:49.842988,-16641,2025-11-07 19:34:55.048389846
2025-11-07 19:34:49.842988,-1,2025-11-07 19:34:55.056082154
2025-11-07 19:34:49.842988,-73,2025-11-07 19:34:55.063774462
2025-11-07 19:34:49.842988,-19713,2025-11-07 19:34:55.071466769
2025-11-07 19:34:49.842988,-1,2025-11-07 19:34:55.079159077
2025-11-07 19:34:49.842988,-83,2025-11-07 19:34:55.086851385
2025-11-07 19:34:49.842988,-21505,2025-11-07 19:34:55.094543692
2025-11-07 19:34:49.842988,-1,2025-11-07 19:34:55.102236000
2025-11-07 19:34:49.842988,-88,2025-11-07 19:34:55.109928308
2025-11-07 19:34:49.842988,-24065,2025-11-07 19:34:55.117620615
2025-11-07 19:34:49.842988,-1,2025-11-07 19:34:55.125312923
2025-11-07 19:34:49.842988,-97,2025-11-07 19:34:55.133005231
2025-11-07 19:34:49.842988,-24577,2025-11-07 19:34:55.140697538
2025-11-07 19:34:49.842988,-1,2025-11-07 19:34:55.148389846
2025-11-07 19:34:49.842988,-102,2025-11-07 19:34:55.156082154
2025-11-07 19:34:49.842988,-27137,2025-11-07 19:34:55.163774462
2025-11-07 19:34:49.842988,-1,2025-11-07 19:34:55.171466769
2025-11-07 19:34:49.842988,-110,2025-11-07 19:34:55.179159077
2025-11-07 19:34:49.842988,-27137,2025-11-07 19:34:55.186851385
2025-11-07 19:34:49.842988,-1,2025-11-07 19:34:55.194543692
2025-11-07 19:34:49.842988,-110,2025-11-07 19:34:55.202236000
2025-11-07 19:34:49.842988,-28417,2025-11-07 19:34:55.209928308
2025-11-07 19:34:49.842988,-1,2025-11-07 19:34:55.217620615
2025-11-07 19:34:49.842988,-110,2025-11-07 19:34:55.225312923
2025-11-07 19:34:49.842988,-28417,2025-11-07 19:34:55.233005231
2025-11-07 19:34:49.842988,-1,2025-11-07 19:34:55.240697538
2025-11-07 19:34:49.842988,-117,2025-11-07 19:34:55.248389846
2025-11-07 19:34:49.842988,-29697,2025-11-07 19:34:55.256082154
2025-11-07 19:34:49.842988,-1,2025-11-07 19:34:55.263774462
2025-11-07 19:34:49.842988,-117,2025-11-07 19:34:55.271466769
2025-11-07 19:34:49.842988,-30977,2025-11-07 19:34:55.279159077
