timestamp,ecg
19:34:40.302236,-139
19:34:40.302236,30207
19:34:40.302236,-1
19:34:40.302236,-144
19:34:40.302236,28927
19:34:40.302236,-1
19:34:40.302236,-144
19:34:40.302236,28927
19:34:40.302236,-1
19:34:40.302236,-144
19:34:40.302236,29695
19:34:40.302236,-1
19:34:40.302236,-141
19:34:40.302236,28927
19:34:40.302236,-1
19:34:40.302236,-141
19:34:40.302236,29695
19:34:40.302236,-1
19:34:40.302236,-141
19:34:40.302236,28927
19:34:40.302236,-1
19:34:40.302236,-146
19:34:40.302236,28415
19:34:40.302236,-1
19:34:40.302236,-144
19:34:40.302236,28415
19:34:40.302236,-1
19:34:40.302236,-146
19:34:40.302236,28415
19:34:40.302236,-1
19:34:40.302236,-149
19:34:40.302236,28415
19:34:40.302236,-1
19:34:40.302236,-146
19:34:40.302236,28415
19:34:40.302236,-1
19:34:40.302236,-146
19:34:40.302236,28415
19:34:40.302236,-1
19:34:40.302236,-144
19:34:40.302236,28927
19:34:40.302236,-1
19:34:40.302236,-146
19:34:40.302236,28415
19:34:40.302236,-1
19:34:40.302236,-146
19:34:40.302236,28927
19:34:40.302236,-1
19:34:40.302236,-146
19:34:40.302236,27647
19:34:40.302236,-1
19:34:40.302236,-149
19:34:40.302236,28415
19:34:40.302236,-1
19:34:40.302236,-144
19:34:40.302236,28927
19:34:40.302236,-1
19:34:40.302236,-134
19:34:40.302236,-29697
19:34:40.302236,-1
19:34:40.302236,-112
19:34:40.302236,-28929
19:34:40.302236,-1
19:34:40.302236,-119
19:34:40.302236,28927
19:34:40.302236,-1
19:34:40.302236,-185
19:34:40.302236,15103
19:34:40.302236,-1
19:34:40.302236,-173
19:34:40.302236,25855
19:34:40.302236,-1
19:34:40.302236,-158
19:34:40.302236,24575
19:34:40.302236,-1
19:34:40.302236,-163
19:34:40.302236,23295
19:34:40.302236,-1
19:34:40.302236,-163
19:34:40.302236,23295
19:34:40.302236,-1
19:34:40.302236,-166
19:34:40.302236,31487
19:34:40.302236,-1
19:34:40.302236,7
19:34:40.302236,-9216
19:34:40.302236,0
19:34:40.302236,132
19:34:40.302236,-12288
19:34:40.302236,-3
19:34:40.302236,-1440
19:34:40.302236,-24065
19:34:40.302236,-8
19:34:40.302236,-1790
19:34:40.302236,-11009
19:34:40.302236,-5
19:34:40.302236,-173
19:34:40.302236,4607
19:34:40.302236,0
19:34:40.302236,-114
19:34:40.302236,7679
19:34:40.302236,0
19:34:40.302236,112
19:34:40.302236,7936
19:34:40.302236,0
19:34:40.302236,36
19:34:40.302236,16896
19:34:40.302236,0
19:34:40.302236,36
19:34:40.886820,24
19:34:40.886820,7424
19:34:40.886820,0
19:34:40.886820,17
19:34:40.886820,1024
19:34:40.886820,0
19:34:40.886820,-2
19:34:40.886820,-3329
19:34:40.886820,-1
19:34:40.886820,-24
19:34:40.886820,-7169
19:34:40.886820,-1
19:34:40.886820,-39
19:34:40.886820,-11521
19:34:40.886820,-1
19:34:40.886820,-48
19:34:40.886820,-15873
19:34:40.886820,-1
19:34:40.886820,-85
19:34:40.886820,-25857
19:34:40.886820,-1
19:34:40.886820,-124
19:34:40.886820,27647
19:34:40.886820,-1
19:34:40.886820,-178
19:34:40.886820,14079
19:34:40.886820,-1
19:34:40.886820,-227
19:34:40.886820,3327
19:34:40.886820,-1
19:34:40.886820,-246
19:34:40.886820,4607
19:34:40.886820,-1
19:34:40.886820,-220
19:34:40.886820,19711
19:34:40.886820,-1
19:34:40.886820,-132
19:34:40.886820,-23297
19:34:40.886820,-1
19:34:40.886820,-66
19:34:40.886820,-13313
19:34:40.886820,-1
19:34:40.886820,-41
19:34:40.886820,-8961
19:34:40.886820,-1
19:34:40.886820,-41
19:34:40.886820,-11521
19:34:40.886820,-1
19:34:40.886820,-44
19:34:40.886820,-11009
19:34:40.886820,-1
19:34:40.886820,-53
19:34:40.886820,-15361
19:34:40.886820,-1
19:34:40.886820,-61
19:34:40.886820,-15361
19:34:40.886820,-1
19:34:40.886820,-61
19:34:40.886820,-17153
19:34:40.886820,-1
19:34:40.886820,-73
19:34:40.886820,-17665
19:34:40.886820,-1
19:34:40.886820,-73
19:34:40.886820,-18433
19:34:40.886820,-1
19:34:40.886820,-78
19:34:40.886820,-20225
19:34:40.886820,-1
19:34:40.886820,-80
19:34:40.886820,-21505
19:34:40.886820,-1
19:34:40.886820,-97
19:34:40.886820,-24577
19:34:40.886820,-1
19:34:40.886820,-97
19:34:40.886820,-25857
19:34:40.886820,-1
19:34:40.886820,-105
19:34:40.886820,-26625
19:34:40.886820,-1
19:34:40.886820,-110
19:34:40.886820,-28929
19:34:40.886820,-1
19:34:40.886820,-112
19:34:40.886820,-28417
19:34:40.886820,-1
19:34:40.886820,-119
19:34:40.886820,-30977
19:34:40.886820,-1
19:34:40.886820,-119
19:34:40.886820,-30209
19:34:40.886820,-1
19:34:40.886820,-122
19:34:40.886820,-30977
19:34:40.886820,-1
19:34:40.886820,-122
19:34:40.886820,-30977
19:34:40.886820,-1
19:34:40.886820,-119
19:34:40.886820,-30977
19:34:40.886820,-1
19:34:40.886820,-122
19:34:40.886820,-31489
19:34:40.886820,-1
19:34:40.886820,-127
19:34:40.886820,31999
19:34:40.886820,-1
19:34:40.886820,-132
19:34:41.427107,-129
19:34:41.427107,31999
19:34:41.427107,-1
19:34:41.427107,-134
19:34:41.427107,31487
19:34:41.427107,-1
19:34:41.427107,-134
19:34:41.427107,30975
19:34:41.427107,-1
19:34:41.427107,-136
19:34:41.427107,30207
19:34:41.427107,-1
19:34:41.427107,-149
19:34:41.427107,26367
19:34:41.427107,-1
19:34:41.427107,-139
19:34:41.427107,-32257
19:34:41.427107,-1
19:34:41.427107,-124
19:34:41.427107,-30209
19:34:41.427107,-1
19:34:41.427107,-119
19:34:41.427107,-31489
19:34:41.427107,-1
19:34:41.427107,-124
19:34:41.427107,-30977
19:34:41.427107,-1
19:34:41.427107,-127
19:34:41.427107,32767
19:34:41.427107,-1
19:34:41.427107,-127
19:34:41.427107,-31489
19:34:41.427107,-1
19:34:41.427107,-129
19:34:41.427107,32767
19:34:41.427107,-1
19:34:41.427107,-124
19:34:41.427107,-31489
19:34:41.427107,-1
19:34:41.427107,-129
19:34:41.427107,32767
19:34:41.427107,-1
19:34:41.427107,-122
19:34:41.427107,-27137
19:34:41.427107,-1
19:34:41.427107,-97
19:34:41.427107,-24577
19:34:41.427107,-1
19:34:41.427107,-100
19:34:41.427107,-28417
19:34:41.427107,-1
19:34:41.427107,-154
19:34:41.427107,19711
19:34:41.427107,-1
19:34:41.427107,-158
19:34:41.427107,31487
19:34:41.427107,-1
19:34:41.427107,-139
19:34:41.427107,29695
19:34:41.427107,-1
19:34:41.427107,-139
19:34:41.427107,29695
19:34:41.427107,-1
19:34:41.427107,-139
19:34:41.427107,29695
19:34:41.427107,-1
19:34:41.427107,-141
19:34:41.427107,32767
19:34:41.427107,-1
19:34:41.427107,-51
19:34:41.427107,-27905
19:34:41.427107,0
19:34:41.427107,259
19:34:41.427107,21760
19:34:41.427107,-1
19:34:41.427107,-1061
19:34:41.427107,25343
19:34:41.427107,-7
19:34:41.427107,-1772
19:34:41.427107,-1
19:34:41.427107,-6
19:34:41.427107,-401
19:34:41.427107,767
19:34:41.427107,0
19:34:41.427107,-102
19:34:41.427107,-4097
19:34:41.427107,-1
19:34:41.427107,117
19:34:41.427107,16128
19:34:41.427107,0
19:34:41.427107,41
19:34:41.427107,19200
19:34:41.427107,0
19:34:41.427107,56
19:34:41.427107,7936
19:34:41.427107,0
19:34:41.427107,34
19:34:41.427107,6656
19:34:41.427107,0
19:34:41.427107,12
19:34:41.427107,1792
19:34:41.427107,0
19:34:41.427107,0
19:34:41.427107,-3072
19:34:41.427107,-1
19:34:41.427107,-22
19:34:41.427107,-7681
19:34:41.427107,-1
19:34:41.427107,-44
19:34:41.967491,-56
19:34:41.967491,-17153
19:34:41.967491,-1
19:34:41.967491,-83
19:34:41.967491,-25857
19:34:41.967491,-1
19:34:41.967491,-122
19:34:41.967491,27647
19:34:41.967491,-1
19:34:41.967491,-183
19:34:41.967491,11519
19:34:41.967491,-1
19:34:41.967491,-234
19:34:41.967491,1535
19:34:41.967491,-1
19:34:41.967491,-251
19:34:41.967491,5119
19:34:41.967491,-1
19:34:41.967491,-207
19:34:41.967491,25343
19:34:41.967491,-1
19:34:41.967491,-100
19:34:41.967491,-12033
19:34:41.967491,-1
19:34:41.967491,-17
19:34:41.967491,255
19:34:41.967491,0
19:34:41.967491,12
19:34:41.967491,4352
19:34:41.967491,0
19:34:41.967491,14
19:34:41.967491,3072
19:34:41.967491,0
19:34:41.967491,7
19:34:41.967491,512
19:34:41.967491,0
19:34:41.967491,-2
19:34:41.967491,-1537
19:34:41.967491,-1
19:34:41.967491,-14
19:34:41.967491,-2817
19:34:41.967491,-1
19:34:41.967491,-12
19:34:41.967491,-4097
19:34:41.967491,-1
19:34:41.967491,-22
19:34:41.967491,-5377
19:34:41.967491,-1
19:34:41.967491,-26
19:34:41.967491,-6401
19:34:41.967491,-1
19:34:41.967491,-29
19:34:41.967491,-8961
19:34:41.967491,-1
19:34:41.967491,-44
19:34:41.967491,-12033
19:34:41.967491,-1
19:34:41.967491,-53
19:34:41.967491,-15361
19:34:41.967491,-1
19:34:41.967491,-68
19:34:41.967491,-17665
19:34:41.967491,-1
19:34:41.967491,-73
19:34:41.967491,-18945
19:34:41.967491,-1
19:34:41.967491,-78
19:34:41.967491,-20993
19:34:41.967491,-1
19:34:41.967491,-85
19:34:41.967491,-22273
19:34:41.967491,-1
19:34:41.967491,-90
19:34:41.967491,-24065
19:34:41.967491,-1
19:34:41.967491,-97
19:34:41.967491,-23297
19:34:41.967491,-1
19:34:41.967491,-95
19:34:41.967491,-25345
19:34:41.967491,-1
19:34:41.967491,-100
19:34:41.967491,-25345
19:34:41.967491,-1
19:34:41.967491,-102
19:34:41.967491,-25345
19:34:41.967491,-1
19:34:41.967491,-105
19:34:41.967491,-27137
19:34:41.967491,-1
19:34:41.967491,-107
19:34:41.967491,-27905
19:34:41.967491,-1
19:34:41.967491,-110
19:34:41.967491,-27905
19:34:41.967491,-1
19:34:41.967491,-110
19:34:41.967491,-27905
19:34:41.967491,-1
19:34:41.967491,-110
19:34:41.967491,-28417
19:34:41.967491,-1
19:34:41.967491,-117
19:34:41.967491,-30977
19:34:41.967491,-1
19:34:41.967491,-124
19:34:41.967491,-30977
19:34:41.967491,-1
19:34:41.967491,-117
19:34:42.552568,-117
19:34:42.552568,-29697
19:34:42.552568,-1
19:34:42.552568,-114
19:34:42.552568,-29697
19:34:42.552568,-1
19:34:42.552568,-117
19:34:42.552568,-29697
19:34:42.552568,-1
19:34:42.552568,-117
19:34:42.552568,-27137
19:34:42.552568,-1
19:34:42.552568,-100
19:34:42.552568,-27137
19:34:42.552568,-1
19:34:42.552568,-110
19:34:42.552568,-27137
19:34:42.552568,-1
19:34:42.552568,-110
19:34:42.552568,-28417
19:34:42.552568,-1
19:34:42.552568,-112
19:34:42.552568,-28929
19:34:42.552568,-1
19:34:42.552568,-117
19:34:42.552568,-29697
19:34:42.552568,-1
19:34:42.552568,-117
19:34:42.552568,-30977
19:34:42.552568,-1
19:34:42.552568,-122
19:34:42.552568,-30977
19:34:42.552568,-1
19:34:42.552568,-122
19:34:42.552568,-30209
19:34:42.552568,-1
19:34:42.552568,-119
19:34:42.552568,-29697
19:34:42.552568,-1
19:34:42.552568,-114
19:34:42.552568,-28417
19:34:42.552568,-1
19:34:42.552568,-102
19:34:42.552568,-22785
19:34:42.552568,-1
19:34:42.552568,-83
19:34:42.552568,-22273
19:34:42.552568,-1
19:34:42.552568,-95
19:34:42.552568,-30977
19:34:42.552568,-1
19:34:42.552568,-161
19:34:42.552568,23295
19:34:42.552568,-1
19:34:42.552568,-141
19:34:42.552568,31999
19:34:42.552568,-1
19:34:42.552568,-134
19:34:42.552568,31999
19:34:42.552568,-1
19:34:42.552568,-134
19:34:42.552568,30207
19:34:42.552568,-1
19:34:42.552568,-136
19:34:42.552568,30975
19:34:42.552568,-1
19:34:42.552568,-132
19:34:42.552568,-20993
19:34:42.552568,-1
19:34:42.552568,85
19:34:42.552568,4352
19:34:42.552568,1
19:34:42.552568,53
19:34:42.552568,6400
19:34:42.552568,-3
19:34:42.552568,-1562
19:34:42.552568,-26113
19:34:42.552568,-8
19:34:42.552568,-1675
19:34:42.552568,-13313
19:34:42.552568,-4
19:34:42.552568,-17
19:34:42.552568,4607
19:34:42.552568,0
19:34:42.552568,-75
19:34:42.552568,26367
19:34:42.552568,0
19:34:42.552568,132
19:34:42.552568,13568
19:34:42.552568,0
19:34:42.552568,75
19:34:42.552568,23040
19:34:42.552568,0
19:34:42.552568,51
19:34:42.552568,11264
19:34:42.552568,0
19:34:42.552568,48
19:34:42.552568,7936
19:34:42.552568,0
19:34:42.552568,22
19:34:42.552568,5632
19:34:42.552568,0
19:34:42.552568,9
19:34:42.552568,0
19:34:42.552568,0
19:34:42.552568,-4
19:34:42.552568,-2817
19:34:42.552568,-1
19:34:42.552568,-22
19:34:43.092606,-36
19:34:43.092606,-12801
19:34:43.092606,-1
19:34:43.092606,-66
19:34:43.092606,-21505
19:34:43.092606,-1
19:34:43.092606,-107
19:34:43.092606,31999
19:34:43.092606,-1
19:34:43.092606,-163
19:34:43.092606,16383
19:34:43.092606,-1
19:34:43.092606,-212
19:34:43.092606,8447
19:34:43.092606,-1
19:34:43.092606,-224
19:34:43.092606,12031
19:34:43.092606,-1
19:34:43.092606,-183
19:34:43.092606,29695
19:34:43.092606,-1
19:34:43.092606,-90
19:34:43.092606,-13313
19:34:43.092606,-1
19:34:43.092606,-29
19:34:43.092606,-3329
19:34:43.092606,-1
19:34:43.092606,-4
19:34:43.092606,-769
19:34:43.092606,-1
19:34:43.092606,-7
19:34:43.092606,-2049
19:34:43.092606,-1
19:34:43.092606,-12
19:34:43.092606,-4609
19:34:43.092606,-1
19:34:43.092606,-26
19:34:43.092606,-8449
19:34:43.092606,-1
19:34:43.092606,-36
19:34:43.092606,-10241
19:34:43.092606,-1
19:34:43.092606,-44
19:34:43.092606,-11521
19:34:43.092606,-1
19:34:43.092606,-48
19:34:43.092606,-12801
19:34:43.092606,-1
19:34:43.092606,-56
19:34:43.092606,-14081
19:34:43.092606,-1
19:34:43.092606,-63
19:34:43.092606,-16641
19:34:43.092606,-1
19:34:43.092606,-66
19:34:43.092606,-17665
19:34:43.092606,-1
19:34:43.092606,-75
19:34:43.092606,-19713
19:34:43.092606,-1
19:34:43.092606,-80
19:34:43.092606,-21505
19:34:43.092606,-1
19:34:43.092606,-92
19:34:43.092606,-24065
19:34:43.092606,-1
19:34:43.092606,-95
19:34:43.092606,-25345
19:34:43.092606,-1
19:34:43.092606,-102
19:34:43.092606,-25857
19:34:43.092606,-1
19:34:43.092606,-107
19:34:43.092606,-27905
19:34:43.092606,-1
19:34:43.092606,-112
19:34:43.092606,-28417
19:34:43.092606,-1
19:34:43.092606,-112
19:34:43.092606,-29697
19:34:43.092606,-1
19:34:43.092606,-117
19:34:43.092606,-29697
19:34:43.092606,-1
19:34:43.092606,-119
19:34:43.092606,-30977
19:34:43.092606,-1
19:34:43.092606,-124
19:34:43.092606,-32257
19:34:43.092606,-1
19:34:43.092606,-127
19:34:43.092606,32767
19:34:43.092606,-1
19:34:43.092606,-127
19:34:43.092606,32767
19:34:43.092606,-1
19:34:43.092606,-132
19:34:43.092606,31999
19:34:43.092606,-1
19:34:43.092606,-132
19:34:43.092606,31487
19:34:43.092606,-1
19:34:43.092606,-136
19:34:43.092606,31487
19:34:43.092606,-1
19:34:43.092606,-134
19:34:43.092606,30975
19:34:43.092606,-1
19:34:43.092606,-139
19:34:43.678589,-139
19:34:43.678589,30207
19:34:43.678589,-1
19:34:43.678589,-134
19:34:43.678589,31487
19:34:43.678589,-1
19:34:43.678589,-136
19:34:43.678589,31487
19:34:43.678589,-1
19:34:43.678589,-132
19:34:43.678589,-32257
19:34:43.678589,-1
19:34:43.678589,-119
19:34:43.678589,-29697
19:34:43.678589,-1
19:34:43.678589,-122
19:34:43.678589,-31489
19:34:43.678589,-1
19:34:43.678589,-124
19:34:43.678589,-32257
19:34:43.678589,-1
19:34:43.678589,-127
19:34:43.678589,-31489
19:34:43.678589,-1
19:34:43.678589,-127
19:34:43.678589,32767
19:34:43.678589,-1
19:34:43.678589,-129
19:34:43.678589,-32257
19:34:43.678589,-1
19:34:43.678589,-127
19:34:43.678589,31999
19:34:43.678589,-1
19:34:43.678589,-134
19:34:43.678589,31487
19:34:43.678589,-1
19:34:43.678589,-136
19:34:43.678589,31487
19:34:43.678589,-1
19:34:43.678589,-134
19:34:43.678589,30207
19:34:43.678589,-1
19:34:43.678589,-136
19:34:43.678589,31999
19:34:43.678589,-1
19:34:43.678589,-134
19:34:43.678589,31999
19:34:43.678589,-1
19:34:43.678589,-129
19:34:43.678589,-30977
19:34:43.678589,-1
19:34:43.678589,-114
19:34:43.678589,-26625
19:34:43.678589,-1
19:34:43.678589,-102
19:34:43.678589,-25857
19:34:43.678589,-1
19:34:43.678589,-117
19:34:43.678589,24575
19:34:43.678589,-1
19:34:43.678589,-188
19:34:43.678589,22783
19:34:43.678589,-1
19:34:43.678589,-146
19:34:43.678589,29695
19:34:43.678589,-1
19:34:43.678589,-144
19:34:43.678589,27647
19:34:43.678589,-1
19:34:43.678589,-154
19:34:43.678589,26367
19:34:43.678589,-1
19:34:43.678589,-154
19:34:43.678589,27135
19:34:43.678589,-1
19:34:43.678589,-134
19:34:43.678589,-7169
19:34:43.678589,-1
19:34:43.678589,180
19:34:43.678589,-16896
19:34:43.678589,0
19:34:43.678589,-396
19:34:43.678589,-4353
19:34:43.678589,-6
19:34:43.678589,-1821
19:34:43.678589,-257
19:34:43.678589,-8
19:34:43.678589,-1168
19:34:43.678589,-1793
19:34:43.678589,-2
19:34:43.678589,26
19:34:43.678589,-26880
19:34:43.678589,-1
19:34:43.678589,4
19:34:43.678589,28160
19:34:43.678589,0
19:34:43.678589,44
19:34:43.678589,8704
19:34:43.678589,0
19:34:43.678589,66
19:34:43.678589,10496
19:34:43.678589,0
19:34:43.678589,19
19:34:43.678589,5632
19:34:43.678589,0
19:34:43.678589,14
19:34:43.678589,-512
19:34:43.678589,-1
19:34:43.678589,-7
19:34:44.217077,-12
19:34:44.217077,-5377
19:34:44.217077,-1
19:34:44.217077,-31
19:34:44.217077,-11009
19:34:44.217077,-1
19:34:44.217077,-56
19:34:44.217077,-15873
19:34:44.217077,-1
19:34:44.217077,-78
19:34:44.217077,-24065
19:34:44.217077,-1
19:34:44.217077,-110
19:34:44.217077,31999
19:34:44.217077,-1
19:34:44.217077,-154
19:34:44.217077,21503
19:34:44.217077,-1
19:34:44.217077,-198
19:34:44.217077,7679
19:34:44.217077,-1
19:34:44.217077,-239
19:34:44.217077,3327
19:34:44.217077,-1
19:34:44.217077,-244
19:34:44.217077,8447
19:34:44.217077,-1
19:34:44.217077,-183
19:34:44.217077,31487
19:34:44.217077,-1
19:34:44.217077,-88
19:34:44.217077,-13313
19:34:44.217077,-1
19:34:44.217077,-34
19:34:44.217077,-5377
19:34:44.217077,-1
19:34:44.217077,-17
19:34:44.217077,-4097
19:34:44.217077,-1
19:34:44.217077,-22
19:34:44.217077,-6401
19:34:44.217077,-1
19:34:44.217077,-29
19:34:44.217077,-8449
19:34:44.217077,-1
19:34:44.217077,-36
19:34:44.217077,-9729
19:34:44.217077,-1
19:34:44.217077,-44
19:34:44.217077,-12801
19:34:44.217077,-1
19:34:44.217077,-53
19:34:44.217077,-12801
19:34:44.217077,-1
19:34:44.217077,-53
19:34:44.217077,-15361
19:34:44.217077,-1
19:34:44.217077,-68
19:34:44.217077,-17665
19:34:44.217077,-1
19:34:44.217077,-68
19:34:44.217077,-18433
19:34:44.217077,-1
19:34:44.217077,-85
19:34:44.217077,-22273
19:34:44.217077,-1
19:34:44.217077,-88
19:34:44.217077,-23297
19:34:44.217077,-1
19:34:44.217077,-95
19:34:44.217077,-25345
19:34:44.217077,-1
19:34:44.217077,-102
19:34:44.217077,-25857
19:34:44.217077,-1
19:34:44.217077,-105
19:34:44.217077,-27905
19:34:44.217077,-1
19:34:44.217077,-110
19:34:44.217077,-28929
19:34:44.217077,-1
19:34:44.217077,-114
19:34:44.217077,-29697
19:34:44.217077,-1
19:34:44.217077,-119
19:34:44.217077,-30209
19:34:44.217077,-1
19:34:44.217077,-119
19:34:44.217077,-30977
19:34:44.217077,-1
19:34:44.217077,-122
19:34:44.217077,-30977
19:34:44.217077,-1
19:34:44.217077,-122
19:34:44.217077,-31489
19:34:44.217077,-1
19:34:44.217077,-124
19:34:44.217077,-32257
19:34:44.217077,-1
19:34:44.217077,-132
19:34:44.217077,31487
19:34:44.217077,-1
19:34:44.217077,-134
19:34:44.217077,31487
19:34:44.217077,-1
19:34:44.217077,-136
19:34:44.217077,30207
19:34:44.217077,-1
19:34:44.217077,-132
19:34:44.847112,-129
19:34:44.847112,32767
19:34:44.847112,-1
19:34:44.847112,-129
19:34:44.847112,31999
19:34:44.847112,-1
19:34:44.847112,-134
19:34:44.847112,31999
19:34:44.847112,-1
19:34:44.847112,-129
19:34:44.847112,-32257
19:34:44.847112,-1
19:34:44.847112,-122
19:34:44.847112,-28929
19:34:44.847112,-1
19:34:44.847112,-117
19:34:44.847112,-30977
19:34:44.847112,-1
19:34:44.847112,-117
19:34:44.847112,-29697
19:34:44.847112,-1
19:34:44.847112,-119
19:34:44.847112,-29697
19:34:44.847112,-1
19:34:44.847112,-119
19:34:44.847112,-30209
19:34:44.847112,-1
19:34:44.847112,-119
19:34:44.847112,-30209
19:34:44.847112,-1
19:34:44.847112,-117
19:34:44.847112,-30209
19:34:44.847112,-1
19:34:44.847112,-127
19:34:44.847112,-32257
19:34:44.847112,-1
19:34:44.847112,-122
19:34:44.847112,-29697
19:34:44.847112,-1
19:34:44.847112,-107
19:34:44.847112,-25345
19:34:44.847112,-1
19:34:44.847112,-95
19:34:44.847112,-24065
19:34:44.847112,-1
19:34:44.847112,-95
19:34:44.847112,-29697
19:34:44.847112,-1
19:34:44.847112,-161
19:34:44.847112,21503
19:34:44.847112,-1
19:34:44.847112,-146
19:34:44.847112,32767
19:34:44.847112,-1
19:34:44.847112,-129
19:34:44.847112,31999
19:34:44.847112,-1
19:34:44.847112,-132
19:34:44.847112,31487
19:34:44.847112,-1
19:34:44.847112,-134
19:34:44.847112,31487
19:34:44.847112,-1
19:34:44.847112,-132
19:34:44.847112,-27905
19:34:44.847112,-1
19:34:44.847112,9
19:34:44.847112,-9984
19:34:44.847112,0
19:34:44.847112,168
19:34:44.847112,7168
19:34:44.847112,-2
19:34:44.847112,-1347
19:34:44.847112,8959
19:34:44.847112,-7
19:34:44.847112,-1621
19:34:44.847112,24575
19:34:44.847112,-4
19:34:44.847112,-141
19:34:44.847112,-2049
19:34:44.847112,-1
19:34:44.847112,-100
19:34:44.847112,15103
19:34:44.847112,0
19:34:44.847112,119
19:34:44.847112,13056
19:34:44.847112,0
19:34:44.847112,63
19:34:44.847112,21248
19:34:44.847112,0
19:34:44.847112,53
19:34:44.847112,11264
19:34:44.847112,0
19:34:44.847112,44
19:34:44.847112,7424
19:34:44.847112,0
19:34:44.847112,19
19:34:44.847112,4352
19:34:44.847112,0
19:34:44.847112,4
19:34:44.847112,-1024
19:34:44.847112,-1
19:34:44.847112,-17
19:34:44.847112,-6401
19:34:44.847112,-1
19:34:44.847112,-39
19:34:44.847112,-13313
19:34:44.847112,-1
19:34:44.847112,-66
19:34:45.342119,-80
19:34:45.342119,-24577
19:34:45.342119,-1
19:34:45.342119,-119
19:34:45.342119,28415
19:34:45.342119,-1
19:34:45.342119,-176
19:34:45.342119,13311
19:34:45.342119,-1
19:34:45.342119,-227
19:34:45.342119,4607
19:34:45.342119,-1
19:34:45.342119,-242
19:34:45.342119,6399
19:34:45.342119,-1
19:34:45.342119,-198
19:34:45.342119,28927
19:34:45.342119,-1
19:34:45.342119,-85
19:34:45.342119,-11521
19:34:45.342119,-1
19:34:45.342119,-17
19:34:45.342119,255
19:34:45.342119,0
19:34:45.342119,9
19:34:45.342119,6144
19:34:45.342119,0
19:34:45.342119,29
19:34:45.342119,3584
19:34:45.342119,0
19:34:45.342119,4
19:34:45.342119,1024
19:34:45.342119,0
19:34:45.342119,0
19:34:45.342119,-1792
19:34:45.342119,-1
19:34:45.342119,-9
19:34:45.342119,-2049
19:34:45.342119,-1
19:34:45.342119,-14
19:34:45.342119,-4609
19:34:45.342119,-1
19:34:45.342119,-22
19:34:45.342119,-5889
19:34:45.342119,-1
19:34:45.342119,-26
19:34:45.342119,-7681
19:34:45.342119,-1
19:34:45.342119,-34
19:34:45.342119,-9729
19:34:45.342119,-1
19:34:45.342119,-46
19:34:45.342119,-12801
19:34:45.342119,-1
19:34:45.342119,-53
19:34:45.342119,-15873
19:34:45.342119,-1
19:34:45.342119,-70
19:34:45.342119,-18433
19:34:45.342119,-1
19:34:45.342119,-75
19:34:45.342119,-19713
19:34:45.342119,-1
19:34:45.342119,-83
19:34:45.342119,-21505
19:34:45.342119,-1
19:34:45.342119,-90
19:34:45.342119,-24065
19:34:45.342119,-1
19:34:45.342119,-92
19:34:45.342119,-24065
19:34:45.342119,-1
19:34:45.342119,-97
19:34:45.342119,-25345
19:34:45.342119,-1
19:34:45.342119,-102
19:34:45.342119,-25345
19:34:45.342119,-1
19:34:45.342119,-102
19:34:45.342119,-26625
19:34:45.342119,-1
19:34:45.342119,-102
19:34:45.342119,-26625
19:34:45.342119,-1
19:34:45.342119,-107
19:34:45.342119,-27905
19:34:45.342119,-1
19:34:45.342119,-110
19:34:45.342119,-27905
19:34:45.342119,-1
19:34:45.342119,-110
19:34:45.342119,-28417
19:34:45.342119,-1
19:34:45.342119,-112
19:34:45.342119,-28929
19:34:45.342119,-1
19:34:45.342119,-114
19:34:45.342119,-28929
19:34:45.342119,-1
19:34:45.342119,-117
19:34:45.342119,-30209
19:34:45.342119,-1
19:34:45.342119,-117
19:34:45.342119,-29697
19:34:45.342119,-1
19:34:45.342119,-122
19:34:45.342119,-31489
19:34:45.342119,-1
19:34:45.342119,-117
19:34:45.882092,-114
19:34:45.882092,-30209
19:34:45.882092,-1
19:34:45.882092,-117
19:34:45.882092,-29697
19:34:45.882092,-1
19:34:45.882092,-119
19:34:45.882092,-30209
19:34:45.882092,-1
19:34:45.882092,-119
19:34:45.882092,-30209
19:34:45.882092,-1
19:34:45.882092,-117
19:34:45.882092,-27137
19:34:45.882092,-1
19:34:45.882092,-110
19:34:45.882092,-28417
19:34:45.882092,-1
19:34:45.882092,-112
19:34:45.882092,-28929
19:34:45.882092,-1
19:34:45.882092,-117
19:34:45.882092,-28929
19:34:45.882092,-1
19:34:45.882092,-117
19:34:45.882092,-29697
19:34:45.882092,-1
19:34:45.882092,-117
19:34:45.882092,-30209
19:34:45.882092,-1
19:34:45.882092,-117
19:34:45.882092,-30209
19:34:45.882092,-1
19:34:45.882092,-119
19:34:45.882092,-29697
19:34:45.882092,-1
19:34:45.882092,-117
19:34:45.882092,-30209
19:34:45.882092,-1
19:34:45.882092,-122
19:34:45.882092,-30977
19:34:45.882092,-1
19:34:45.882092,-122
19:34:45.882092,-30209
19:34:45.882092,-1
19:34:45.882092,-110
19:34:45.882092,-25345
19:34:45.882092,-1
19:34:45.882092,-92
19:34:45.882092,-22785
19:34:45.882092,-1
19:34:45.882092,-90
19:34:45.882092,-28929
19:34:45.882092,-1
19:34:45.882092,-156
19:34:45.882092,22015
19:34:45.882092,-1
19:34:45.882092,-146
19:34:45.882092,31999
19:34:45.882092,-1
19:34:45.882092,-134
19:34:45.882092,31999
19:34:45.882092,-1
19:34:45.882092,-134
19:34:45.882092,30975
19:34:45.882092,-1
19:34:45.882092,-136
19:34:45.882092,30207
19:34:45.882092,-1
19:34:45.882092,-136
19:34:45.882092,-25345
19:34:45.882092,-1
19:34:45.882092,46
19:34:45.882092,-1280
19:34:45.882092,0
19:34:45.882092,127
19:34:45.882092,-22272
19:34:45.882092,-3
19:34:45.882092,-1457
19:34:45.882092,-16641
19:34:45.882092,-8
19:34:45.882092,-1716
19:34:45.882092,17663
19:34:45.882092,-4
19:34:45.882092,-97
19:34:45.882092,7679
19:34:45.882092,0
19:34:45.882092,-90
19:34:45.882092,17151
19:34:45.882092,0
19:34:45.882092,124
19:34:45.882092,12288
19:34:45.882092,0
19:34:45.882092,63
19:34:45.882092,21760
19:34:45.882092,0
19:34:45.882092,51
19:34:45.882092,10496
19:34:45.882092,0
19:34:45.882092,51
19:34:45.882092,9984
19:34:45.882092,0
19:34:45.882092,19
19:34:45.882092,4352
19:34:45.882092,0
19:34:45.882092,9
19:34:45.882092,-512
19:34:45.882092,-1
19:34:45.882092,-9
19:34:46.422112,-17
19:34:46.422112,-7681
19:34:46.422112,-1
19:34:46.422112,-48
19:34:46.422112,-14081
19:34:46.422112,-1
19:34:46.422112,-63
19:34:46.422112,-19713
19:34:46.422112,-1
19:34:46.422112,-90
19:34:46.422112,-28417
19:34:46.422112,-1
19:34:46.422112,-149
19:34:46.422112,19711
19:34:46.422112,-1
19:34:46.422112,-200
19:34:46.422112,10751
19:34:46.422112,-1
19:34:46.422112,-222
19:34:46.422112,10751
19:34:46.422112,-1
19:34:46.422112,-190
19:34:46.422112,27647
19:34:46.422112,-1
19:34:46.422112,-100
19:34:46.422112,-15361
19:34:46.422112,-1
19:34:46.422112,-39
19:34:46.422112,-5889
19:34:46.422112,-1
19:34:46.422112,-14
19:34:46.422112,-2817
19:34:46.422112,-1
19:34:46.422112,-9
19:34:46.422112,-2817
19:34:46.422112,-1
19:34:46.422112,-19
19:34:46.422112,-5889
19:34:46.422112,-1
19:34:46.422112,-31
19:34:46.422112,-8961
19:34:46.422112,-1
19:34:46.422112,-41
19:34:46.422112,-11009
19:34:46.422112,-1
19:34:46.422112,-51
19:34:46.422112,-14081
19:34:46.422112,-1
19:34:46.422112,-58
19:34:46.422112,-15361
19:34:46.422112,-1
19:34:46.422112,-66
19:34:46.422112,-15873
19:34:46.422112,-1
19:34:46.422112,-70
19:34:46.422112,-20225
19:34:46.422112,-1
19:34:46.422112,-83
19:34:46.422112,-21505
19:34:46.422112,-1
19:34:46.422112,-95
19:34:46.422112,-25857
19:34:46.422112,-1
19:34:46.422112,-102
19:34:46.422112,-25857
19:34:46.422112,-1
19:34:46.422112,-110
19:34:46.422112,-28417
19:34:46.422112,-1
19:34:46.422112,-110
19:34:46.422112,-28417
19:34:46.422112,-1
19:34:46.422112,-117
19:34:46.422112,-30209
19:34:46.422112,-1
19:34:46.422112,-122
19:34:46.422112,-29697
19:34:46.422112,-1
19:34:46.422112,-122
19:34:46.422112,-32257
19:34:46.422112,-1
19:34:46.422112,-129
19:34:46.422112,31999
19:34:46.422112,-1
19:34:46.422112,-129
19:34:46.422112,32767
19:34:46.422112,-1
19:34:46.422112,-127
19:34:46.422112,31999
19:34:46.422112,-1
19:34:46.422112,-136
19:34:46.422112,31487
19:34:46.422112,-1
19:34:46.422112,-134
19:34:46.422112,30975
19:34:46.422112,-1
19:34:46.422112,-134
19:34:46.422112,31487
19:34:46.422112,-1
19:34:46.422112,-141
19:34:46.422112,28927
19:34:46.422112,-1
19:34:46.422112,-146
19:34:46.422112,28927
19:34:46.422112,-1
19:34:46.422112,-144
19:34:46.422112,28927
19:34:46.422112,-1
19:34:46.422112,-144
19:34:47.051950,-141
19:34:47.051950,29695
19:34:47.051950,-1
19:34:47.051950,-144
19:34:47.051950,30975
19:34:47.051950,-1
19:34:47.051950,-127
19:34:47.051950,32767
19:34:47.051950,-1
19:34:47.051950,-134
19:34:47.051950,31999
19:34:47.051950,-1
19:34:47.051950,-132
19:34:47.051950,31999
19:34:47.051950,-1
19:34:47.051950,-132
19:34:47.051950,31999
19:34:47.051950,-1
19:34:47.051950,-134
19:34:47.051950,31487
19:34:47.051950,-1
19:34:47.051950,-134
19:34:47.051950,31487
19:34:47.051950,-1
19:34:47.051950,-132
19:34:47.051950,31487
19:34:47.051950,-1
19:34:47.051950,-134
19:34:47.051950,31999
19:34:47.051950,-1
19:34:47.051950,-134
19:34:47.051950,30975
19:34:47.051950,-1
19:34:47.051950,-134
19:34:47.051950,30975
19:34:47.051950,-1
19:34:47.051950,-139
19:34:47.051950,30975
19:34:47.051950,-1
19:34:47.051950,-134
19:34:47.051950,30207
19:34:47.051950,-1
19:34:47.051950,-139
19:34:47.051950,32767
19:34:47.051950,-1
19:34:47.051950,-122
19:34:47.051950,-28929
19:34:47.051950,-1
19:34:47.051950,-107
19:34:47.051950,-26625
19:34:47.051950,-1
19:34:47.051950,-112
19:34:47.051950,30207
19:34:47.051950,-1
19:34:47.051950,-178
19:34:47.051950,18943
19:34:47.051950,-1
19:34:47.051950,-154
19:34:47.051950,30207
19:34:47.051950,-1
19:34:47.051950,-146
19:34:47.051950,26367
19:34:47.051950,-1
19:34:47.051950,-154
19:34:47.051950,26367
19:34:47.051950,-1
19:34:47.051950,-156
19:34:47.051950,26367
19:34:47.051950,-1
19:34:47.051950,-146
19:34:47.051950,-23297
19:34:47.051950,-1
19:34:47.051950,85
19:34:47.051950,-1792
19:34:47.051950,0
19:34:47.051950,-44
19:34:47.051950,-27137
19:34:47.051950,-4
19:34:47.051950,-1594
19:34:47.051950,5375
19:34:47.051950,-7
19:34:47.051950,-1398
19:34:47.051950,-12033
19:34:47.051950,-3
19:34:47.051950,-19
19:34:47.051950,-24065
19:34:47.051950,-1
19:34:47.051950,-78
19:34:47.051950,22783
19:34:47.051950,0
19:34:47.051950,66
19:34:47.051950,5632
19:34:47.051950,0
19:34:47.051950,58
19:34:47.051950,13568
19:34:47.051950,0
19:34:47.051950,24
19:34:47.051950,6656
19:34:47.051950,0
19:34:47.051950,26
19:34:47.051950,3072
19:34:47.051950,0
19:34:47.051950,4
19:34:47.051950,-512
19:34:47.051950,-1
19:34:47.051950,-17
19:34:47.051950,-7681
19:34:47.051950,-1
19:34:47.051950,-39
19:34:47.593291,-46
19:34:47.593291,-14081
19:34:47.593291,-1
19:34:47.593291,-66
19:34:47.593291,-20225
19:34:47.593291,-1
19:34:47.593291,-97
19:34:47.593291,-30977
19:34:47.593291,-1
19:34:47.593291,-144
19:34:47.593291,22015
19:34:47.593291,-1
19:34:47.593291,-198
19:34:47.593291,9471
19:34:47.593291,-1
19:34:47.593291,-239
19:34:47.593291,2047
19:34:47.593291,-1
19:34:47.593291,-242
19:34:47.593291,10751
19:34:47.593291,-1
19:34:47.593291,-176
19:34:47.593291,-31489
19:34:47.593291,-1
19:34:47.593291,-73
19:34:47.593291,-8449
19:34:47.593291,-1
19:34:47.593291,-12
19:34:47.593291,255
19:34:47.593291,0
19:34:47.593291,7
19:34:47.593291,1792
19:34:47.593291,0
19:34:47.593291,4
19:34:47.593291,0
19:34:47.593291,0
19:34:47.593291,-4
19:34:47.593291,-2049
19:34:47.593291,-1
19:34:47.593291,-17
19:34:47.593291,-4609
19:34:47.593291,-1
19:34:47.593291,-19
19:34:47.593291,-5377
19:34:47.593291,-1
19:34:47.593291,-24
19:34:47.593291,-5889
19:34:47.593291,-1
19:34:47.593291,-24
19:34:47.593291,-6401
19:34:47.593291,-1
19:34:47.593291,-31
19:34:47.593291,-8961
19:34:47.593291,-1
19:34:47.593291,-41
19:34:47.593291,-11009
19:34:47.593291,-1
19:34:47.593291,-48
19:34:47.593291,-14081
19:34:47.593291,-1
19:34:47.593291,-56
19:34:47.593291,-15361
19:34:47.593291,-1
19:34:47.593291,-68
19:34:47.593291,-16641
19:34:47.593291,-1
19:34:47.593291,-63
19:34:47.593291,-17665
19:34:47.593291,-1
19:34:47.593291,-80
19:34:47.593291,-21505
19:34:47.593291,-1
19:34:47.593291,-85
19:34:47.593291,-22785
19:34:47.593291,-1
19:34:47.593291,-92
19:34:47.593291,-23297
19:34:47.593291,-1
19:34:47.593291,-95
19:34:47.593291,-24577
19:34:47.593291,-1
19:34:47.593291,-97
19:34:47.593291,-25345
19:34:47.593291,-1
19:34:47.593291,-100
19:34:47.593291,-25857
19:34:47.593291,-1
19:34:47.593291,-105
19:34:47.593291,-25857
19:34:47.593291,-1
19:34:47.593291,-105
19:34:47.593291,-27137
19:34:47.593291,-1
19:34:47.593291,-110
19:34:47.593291,-27905
19:34:47.593291,-1
19:34:47.593291,-110
19:34:47.593291,-27905
19:34:47.593291,-1
19:34:47.593291,-110
19:34:47.593291,-28417
19:34:47.593291,-1
19:34:47.593291,-112
19:34:47.593291,-28417
19:34:47.593291,-1
19:34:47.593291,-112
19:34:47.593291,-28417
19:34:47.593291,-1
19:34:47.593291,-112
19:34:48.132546,-114
19:34:48.132546,-29697
19:34:48.132546,-1
19:34:48.132546,-114
19:34:48.132546,-29697
19:34:48.132546,-1
19:34:48.132546,-119
19:34:48.132546,-30209
19:34:48.132546,-1
19:34:48.132546,-119
19:34:48.132546,-30209
19:34:48.132546,-1
19:34:48.132546,-119
19:34:48.132546,-28929
19:34:48.132546,-1
19:34:48.132546,-107
19:34:48.132546,-26625
19:34:48.132546,-1
19:34:48.132546,-110
19:34:48.132546,-27905
19:34:48.132546,-1
19:34:48.132546,-110
19:34:48.132546,-27905
19:34:48.132546,-1
19:34:48.132546,-110
19:34:48.132546,-28417
19:34:48.132546,-1
19:34:48.132546,-117
19:34:48.132546,-29697
19:34:48.132546,-1
19:34:48.132546,-117
19:34:48.132546,-28929
19:34:48.132546,-1
19:34:48.132546,-114
19:34:48.132546,-29697
19:34:48.132546,-1
19:34:48.132546,-119
19:34:48.132546,-30209
19:34:48.132546,-1
19:34:48.132546,-119
19:34:48.132546,-30209
19:34:48.132546,-1
19:34:48.132546,-117
19:34:48.132546,-27137
19:34:48.132546,-1
19:34:48.132546,-95
19:34:48.132546,-22273
19:34:48.132546,-1
19:34:48.132546,-88
19:34:48.132546,-22273
19:34:48.132546,-1
19:34:48.132546,-110
19:34:48.132546,27135
19:34:48.132546,-1
19:34:48.132546,-156
19:34:48.132546,-32257
19:34:48.132546,-1
19:34:48.132546,-110
19:34:48.132546,-28929
19:34:48.132546,-1
19:34:48.132546,-119
19:34:48.132546,-31489
19:34:48.132546,-1
19:34:48.132546,-127
19:34:48.132546,-31489
19:34:48.132546,-1
19:34:48.132546,-127
19:34:48.132546,-31489
19:34:48.132546,-1
19:34:48.132546,-83
19:34:48.132546,20735
19:34:48.132546,0
19:34:48.132546,273
19:34:48.132546,23040
19:34:48.132546,0
19:34:48.132546,-677
19:34:48.132546,6655
19:34:48.132546,-6
19:34:48.132546,-1873
19:34:48.132546,29695
19:34:48.132546,-7
19:34:48.132546,-846
19:34:48.132546,-7169
19:34:48.132546,-1
19:34:48.132546,22
19:34:48.132546,-19200
19:34:48.132546,-1
19:34:48.132546,100
19:34:48.132546,-30720
19:34:48.132546,0
19:34:48.132546,56
19:34:48.132546,20480
19:34:48.132546,0
19:34:48.132546,97
19:34:48.132546,16128
19:34:48.132546,0
19:34:48.132546,53
19:34:48.132546,13568
19:34:48.132546,0
19:34:48.132546,39
19:34:48.132546,6656
19:34:48.132546,0
19:34:48.132546,24
19:34:48.132546,3072
19:34:48.132546,0
19:34:48.132546,2
19:34:48.132546,-512
19:34:48.132546,-1
19:34:48.132546,-9
19:34:48.717440,-24
19:34:48.717440,-8449
19:34:48.717440,-1
19:34:48.717440,-44
19:34:48.717440,-14593
19:34:48.717440,-1
19:34:48.717440,-73
19:34:48.717440,-24065
19:34:48.717440,-1
19:34:48.717440,-117
19:34:48.717440,30975
19:34:48.717440,-1
19:34:48.717440,-158
19:34:48.717440,18943
19:34:48.717440,-1
19:34:48.717440,-200
19:34:48.717440,14079
19:34:48.717440,-1
19:34:48.717440,-195
19:34:48.717440,22015
19:34:48.717440,-1
19:34:48.717440,-132
19:34:48.717440,-21505
19:34:48.717440,-1
19:34:48.717440,-48
19:34:48.717440,-5889
19:34:48.717440,-1
19:34:48.717440,-9
19:34:48.717440,255
19:34:48.717440,0
19:34:48.717440,2
19:34:48.717440,0
19:34:48.717440,0
19:34:48.717440,-2
19:34:48.717440,-1537
19:34:48.717440,-1
19:34:48.717440,-12
19:34:48.717440,-2817
19:34:48.717440,-1
19:34:48.717440,-19
19:34:48.717440,-5889
19:34:48.717440,-1
19:34:48.717440,-24
19:34:48.717440,-5889
19:34:48.717440,-1
19:34:48.717440,-24
19:34:48.717440,-7681
19:34:48.717440,-1
19:34:48.717440,-36
19:34:48.717440,-10241
19:34:48.717440,-1
19:34:48.717440,-44
19:34:48.717440,-11521
19:34:48.717440,-1
19:34:48.717440,-51
19:34:48.717440,-14593
19:34:48.717440,-1
19:34:48.717440,-66
19:34:48.717440,-16641
19:34:48.717440,-1
19:34:48.717440,-68
19:34:48.717440,-18945
19:34:48.717440,-1
19:34:48.717440,-78
19:34:48.717440,-19713
19:34:48.717440,-1
19:34:48.717440,-83
19:34:48.717440,-22273
19:34:48.717440,-1
19:34:48.717440,-90
19:34:48.717440,-24065
19:34:48.717440,-1
19:34:48.717440,-92
19:34:48.717440,-24577
19:34:48.717440,-1
19:34:48.717440,-102
19:34:48.717440,-26625
19:34:48.717440,-1
19:34:48.717440,-105
19:34:48.717440,-25857
19:34:48.717440,-1
19:34:48.717440,-102
19:34:48.717440,-27137
19:34:48.717440,-1
19:34:48.717440,-107
19:34:48.717440,-27905
19:34:48.717440,-1
19:34:48.717440,-112
19:34:48.717440,-28929
19:34:48.717440,-1
19:34:48.717440,-114
19:34:48.717440,-29697
19:34:48.717440,-1
19:34:48.717440,-119
19:34:48.717440,-30977
19:34:48.717440,-1
19:34:48.717440,-119
19:34:48.717440,-30209
19:34:48.717440,-1
19:34:48.717440,-119
19:34:48.717440,-30977
19:34:48.717440,-1
19:34:48.717440,-122
19:34:48.717440,-30977
19:34:48.717440,-1
19:34:48.717440,-122
19:34:48.717440,-30977
19:34:48.717440,-1
19:34:48.717440,-119
19:34:49.256578,-122
19:34:49.256578,-32257
19:34:49.256578,-1
19:34:49.256578,-124
19:34:49.256578,-30977
19:34:49.256578,-1
19:34:49.256578,-124
19:34:49.256578,-31489
19:34:49.256578,-1
19:34:49.256578,-124
19:34:49.256578,-31489
19:34:49.256578,-1
19:34:49.256578,-127
19:34:49.256578,-30977
19:34:49.256578,-1
19:34:49.256578,-114
19:34:49.256578,-28417
19:34:49.256578,-1
19:34:49.256578,-114
19:34:49.256578,-28929
19:34:49.256578,-1
19:34:49.256578,-112
19:34:49.256578,-28417
19:34:49.256578,-1
19:34:49.256578,-112
19:34:49.256578,-28929
19:34:49.256578,-1
19:34:49.256578,-114
19:34:49.256578,-28929
19:34:49.256578,-1
19:34:49.256578,-114
19:34:49.256578,-28417
19:34:49.256578,-1
19:34:49.256578,-107
19:34:49.256578,-28417
19:34:49.256578,-1
19:34:49.256578,-117
19:34:49.256578,-29697
19:34:49.256578,-1
19:34:49.256578,-114
19:34:49.256578,-28929
19:34:49.256578,-1
19:34:49.256578,-117
19:34:49.256578,-29697
19:34:49.256578,-1
19:34:49.256578,-114
19:34:49.256578,-29697
19:34:49.256578,-1
19:34:49.256578,-119
19:34:49.256578,-30209
19:34:49.256578,-1
19:34:49.256578,-117
19:34:49.256578,-27905
19:34:49.256578,-1
19:34:49.256578,-100
19:34:49.256578,-22785
19:34:49.256578,-1
19:34:49.256578,-85
19:34:49.256578,-22785
19:34:49.256578,-1
19:34:49.256578,-100
19:34:49.256578,30207
19:34:49.256578,-1
19:34:49.256578,-168
19:34:49.256578,25855
19:34:49.256578,-1
19:34:49.256578,-132
19:34:49.256578,-30977
19:34:49.256578,-1
19:34:49.256578,-122
19:34:49.256578,-32257
19:34:49.256578,-1
19:34:49.256578,-129
19:34:49.256578,31999
19:34:49.256578,-1
19:34:49.256578,-132
19:34:49.256578,31999
19:34:49.256578,-1
19:34:49.256578,-117
19:34:49.256578,-5889
19:34:49.256578,-1
19:34:49.256578,180
19:34:49.256578,-3584
19:34:49.256578,0
19:34:49.256578,-271
19:34:49.256578,25599
19:34:49.256578,-5
19:34:49.256578,-1775
19:34:49.256578,-5889
19:34:49.256578,-8
19:34:49.256578,-1256
19:34:49.256578,-16641
19:34:49.256578,-2
19:34:49.256578,66
19:34:49.256578,-17408
19:34:49.256578,-1
19:34:49.256578,12
19:34:49.256578,-28672
19:34:49.256578,0
19:34:49.256578,83
19:34:49.256578,14336
19:34:49.256578,0
19:34:49.256578,95
19:34:49.256578,19200
19:34:49.256578,0
19:34:49.256578,46
19:34:49.256578,13056
19:34:49.256578,0
19:34:49.256578,44
19:34:49.842988,26
19:34:49.842988,5632
19:34:49.842988,0
19:34:49.842988,17
19:34:49.842988,2304
19:34:49.842988,0
19:34:49.842988,4
19:34:49.842988,-1024
19:34:49.842988,-1
19:34:49.842988,-17
19:34:49.842988,-5377
19:34:49.842988,-1
19:34:49.842988,-26
19:34:49.842988,-10241
19:34:49.842988,-1
19:34:49.842988,-61
19:34:49.842988,-19713
19:34:49.842988,-1
19:34:49.842988,-102
19:34:49.842988,31999
19:34:49.842988,-1
19:34:49.842988,-158
19:34:49.842988,18943
19:34:49.842988,-1
19:34:49.842988,-200
19:34:49.842988,11519
19:34:49.842988,-1
19:34:49.842988,-217
19:34:49.842988,15871
19:34:49.842988,-1
19:34:49.842988,-156
19:34:49.842988,-27905
19:34:49.842988,-1
19:34:49.842988,-68
19:34:49.842988,-9729
19:34:49.842988,-1
19:34:49.842988,-19
19:34:49.842988,-769
19:34:49.842988,-1
19:34:49.842988,-2
19:34:49.842988,-257
19:34:49.842988,-1
19:34:49.842988,-2
19:34:49.842988,-2049
19:34:49.842988,-1
19:34:49.842988,-17
19:34:49.842988,-5889
19:34:49.842988,-1
19:34:49.842988,-26
19:34:49.842988,-7681
19:34:49.842988,-1
19:34:49.842988,-36
19:34:49.842988,-9729
19:34:49.842988,-1
19:34:49.842988,-41
19:34:49.842988,-11521
19:34:49.842988,-1
19:34:49.842988,-51
19:34:49.842988,-14081
19:34:49.842988,-1
19:34:49.842988,-58
19:34:49.842988,-15361
19:34:49.842988,-1
19:34:49.842988,-63
19:34:49.842988,-16641
19:34:49.842988,-1
19:34:49.842988,-73
19:34:49.842988,-19713
19:34:49.842988,-1
19:34:49.842988,-83
19:34:49.842988,-21505
19:34:49.842988,-1
19:34:49.842988,-88
19:34:49.842988,-24065
19:34:49.842988,-1
19:34:49.842988,-97
19:34:49.842988,-24577
19:34:49.842988,-1
19:34:49.842988,-102
19:34:49.842988,-27137
19:34:49.842988,-1
19:34:49.842988,-110
19:34:49.842988,-27137
19:34:49.842988,-1
19:34:49.842988,-110
19:34:49.842988,-28417
19:34:49.842988,-1
19:34:49.842988,-110
19:34:49.842988,-28417
19:34:49.842988,-1
19:34:49.842988,-117
19:34:49.842988,-29697
19:34:49.842988,-1
19:34:49.842988,-117
19:34:49.842988,-30977
19:34:49.842988,-1
19:34:49.842988,-122
19:34:49.842988,-30977
19:34:49.842988,-1
19:34:49.842988,-124
19:34:49.842988,-32257
19:34:49.842988,-1
19:34:49.842988,-127
19:34:49.842988,-32257
19:34:49.842988,-1
19:34:49.842988,-127
19:34:49.842988,-31489
19:34:49.842988,-1
19:34:49.842988,-124
19:34:50.382149,-127
19:34:50.382149,32767
19:34:50.382149,-1
19:34:50.382149,-132
19:34:50.382149,31999
19:34:50.382149,-1
19:34:50.382149,-129
19:34:50.382149,-32257
19:34:50.382149,-1
19:34:50.382149,-127
19:34:50.382149,32767
19:34:50.382149,-1
19:34:50.382149,-127
19:34:50.382149,-31489
19:34:50.382149,-1
19:34:50.382149,-117
19:34:50.382149,-27905
19:34:50.382149,-1
19:34:50.382149,-110
19:34:50.382149,-28929
19:34:50.382149,-1
19:34:50.382149,-112
19:34:50.382149,-28929
19:34:50.382149,-1
19:34:50.382149,-114
19:34:50.382149,-27905
19:34:50.382149,-1
19:34:50.382149,-112
19:34:50.382149,-28929
19:34:50.382149,-1
19:34:50.382149,-114
19:34:50.382149,-28417
19:34:50.382149,-1
19:34:50.382149,-114
19:34:50.382149,-29697
19:34:50.382149,-1
19:34:50.382149,-114
19:34:50.382149,-28929
19:34:50.382149,-1
19:34:50.382149,-117
19:34:50.382149,-29697
19:34:50.382149,-1
19:34:50.382149,-117
19:34:50.382149,-28417
19:34:50.382149,-1
19:34:50.382149,-107
19:34:50.382149,-25857
19:34:50.382149,-1
19:34:50.382149,-90
19:34:50.382149,-20993
19:34:50.382149,-1
19:34:50.382149,-83
19:34:50.382149,-22785
19:34:50.382149,-1
19:34:50.382149,-119
19:34:50.382149,25343
19:34:50.382149,-1
19:34:50.382149,-158
19:34:50.382149,31999
19:34:50.382149,-1
19:34:50.382149,-122
19:34:50.382149,-31489
19:34:50.382149,-1
19:34:50.382149,-122
19:34:50.382149,-31489
19:34:50.382149,-1
19:34:50.382149,-129
19:34:50.382149,-31489
19:34:50.382149,-1
19:34:50.382149,-122
19:34:50.382149,-30209
19:34:50.382149,-1
19:34:50.382149,-68
19:34:50.382149,27135
19:34:50.382149,0
19:34:50.382149,269
19:34:50.382149,-2304
19:34:50.382149,-1
19:34:50.382149,-836
19:34:50.382149,-5889
19:34:50.382149,-7
19:34:50.382149,-1731
19:34:50.382149,-17409
19:34:50.382149,-6
19:34:50.382149,-530
19:34:50.382149,-257
19:34:50.382149,-1
19:34:50.382149,-61
19:34:50.382149,-9729
19:34:50.382149,-1
19:34:50.382149,119
19:34:50.382149,24320
19:34:50.382149,0
19:34:50.382149,51
19:34:50.382149,21248
19:34:50.382149,0
19:34:50.382149,78
19:34:50.382149,12288
19:34:50.382149,0
19:34:50.382149,48
19:34:50.382149,12288
19:34:50.382149,0
19:34:50.382149,36
19:34:50.382149,7424
19:34:50.382149,0
19:34:50.382149,22
19:34:50.382149,3072
19:34:50.382149,0
19:34:50.382149,2
19:34:50.966995,-7
19:34:50.966995,-3329
19:34:50.966995,-1
19:34:50.966995,-24
19:34:50.966995,-9729
19:34:50.966995,-1
19:34:50.966995,-53
19:34:50.966995,-17665
19:34:50.966995,-1
19:34:50.966995,-92
19:34:50.966995,-28929
19:34:50.966995,-1
19:34:50.966995,-132
19:34:50.966995,25343
19:34:50.966995,-1
19:34:50.966995,-190
19:34:50.966995,12031
19:34:50.966995,-1
19:34:50.966995,-217
19:34:50.966995,9471
19:34:50.966995,-1
19:34:50.966995,-205
19:34:50.966995,22783
19:34:50.966995,-1
19:34:50.966995,-114
19:34:50.966995,-15361
19:34:50.966995,-1
19:34:50.966995,-24
19:34:50.966995,255
19:34:50.966995,0
19:34:50.966995,14
19:34:50.966995,5632
19:34:50.966995,0
19:34:50.966995,19
19:34:50.966995,3584
19:34:50.966995,0
19:34:50.966995,9
19:34:50.966995,1024
19:34:50.966995,0
19:34:50.966995,0
19:34:50.966995,0
19:34:50.966995,0
19:34:50.966995,-7
19:34:50.966995,-3329
19:34:50.966995,-1
19:34:50.966995,-12
19:34:50.966995,-3329
19:34:50.966995,-1
19:34:50.966995,-19
19:34:50.966995,-5889
19:34:50.966995,-1
19:34:50.966995,-26
19:34:50.966995,-8449
19:34:50.966995,-1
19:34:50.966995,-44
19:34:50.966995,-12033
19:34:50.966995,-1
19:34:50.966995,-51
19:34:50.966995,-14593
19:34:50.966995,-1
19:34:50.966995,-66
19:34:50.966995,-17153
19:34:50.966995,-1
19:34:50.966995,-73
19:34:50.966995,-18945
19:34:50.966995,-1
19:34:50.966995,-80
19:34:50.966995,-22273
19:34:50.966995,-1
19:34:50.966995,-90
19:34:50.966995,-23297
19:34:50.966995,-1
19:34:50.966995,-100
19:34:50.966995,-25345
19:34:50.966995,-1
19:34:50.966995,-97
19:34:50.966995,-25345
19:34:50.966995,-1
19:34:50.966995,-105
19:34:50.966995,-26625
19:34:50.966995,-1
19:34:50.966995,-107
19:34:50.966995,-27137
19:34:50.966995,-1
19:34:50.966995,-110
19:34:50.966995,-28417
19:34:50.966995,-1
19:34:50.966995,-112
19:34:50.966995,-28929
19:34:50.966995,-1
19:34:50.966995,-112
19:34:50.966995,-28417
19:34:50.966995,-1
19:34:50.966995,-114
19:34:50.966995,-28417
19:34:50.966995,-1
19:34:50.966995,-110
19:34:50.966995,-28417
19:34:50.966995,-1
19:34:50.966995,-114
19:34:50.966995,-28417
19:34:50.966995,-1
19:34:50.966995,-112
19:34:50.966995,-28417
19:34:50.966995,-1
19:34:50.966995,-114
19:34:50.966995,-28929
19:34:50.966995,-1
19:34:50.966995,-114
19:34:51.506805,-112
19:34:51.506805,-27905
19:34:51.506805,-1
19:34:51.506805,-114
19:34:51.506805,-28929
19:34:51.506805,-1
19:34:51.506805,-117
19:34:51.506805,-29697
19:34:51.506805,-1
19:34:51.506805,-114
19:34:51.506805,-28417
19:34:51.506805,-1
19:34:51.506805,-114
19:34:51.506805,-28417
19:34:51.506805,-1
19:34:51.506805,-107
19:34:51.506805,-24577
19:34:51.506805,-1
19:34:51.506805,-95
19:34:51.506805,-24577
19:34:51.506805,-1
19:34:51.506805,-102
19:34:51.506805,-25857
19:34:51.506805,-1
19:34:51.506805,-102
19:34:51.506805,-25857
19:34:51.506805,-1
19:34:51.506805,-102
19:34:51.506805,-25857
19:34:51.506805,-1
19:34:51.506805,-105
19:34:51.506805,-27137
19:34:51.506805,-1
19:34:51.506805,-105
19:34:51.506805,-26625
19:34:51.506805,-1
19:34:51.506805,-97
19:34:51.506805,-20993
19:34:51.506805,-1
19:34:51.506805,-73
19:34:51.506805,-17665
19:34:51.506805,-1
19:34:51.506805,-73
19:34:51.506805,-20993
19:34:51.506805,-1
19:34:51.506805,-119
19:34:51.506805,26367
19:34:51.506805,-1
19:34:51.506805,-139
19:34:51.506805,-28929
19:34:51.506805,-1
19:34:51.506805,-112
19:34:51.506805,-28417
19:34:51.506805,-1
19:34:51.506805,-114
19:34:51.506805,-30209
19:34:51.506805,-1
19:34:51.506805,-119
19:34:51.506805,-30209
19:34:51.506805,-1
19:34:51.506805,-119
19:34:51.506805,-27137
19:34:51.506805,-1
19:34:51.506805,-14
19:34:51.506805,-15873
19:34:51.506805,0
19:34:51.506805,266
19:34:51.506805,6912
19:34:51.506805,-1
19:34:51.506805,-1151
19:34:51.506805,4607
19:34:51.506805,-7
19:34:51.506805,-1838
19:34:51.506805,1279
19:34:51.506805,-5
19:34:51.506805,-315
19:34:51.506805,22015
19:34:51.506805,0
19:34:51.506805,-53
19:34:51.506805,6399
19:34:51.506805,0
19:34:51.506805,156
19:34:51.506805,24320
19:34:51.506805,0
19:34:51.506805,70
19:34:51.506805,28160
19:34:51.506805,0
19:34:51.506805,90
19:34:51.506805,15616
19:34:51.506805,0
19:34:51.506805,63
19:34:51.506805,14336
19:34:51.506805,0
19:34:51.506805,39
19:34:51.506805,9216
19:34:51.506805,0
19:34:51.506805,29
19:34:51.506805,3584
19:34:51.506805,0
19:34:51.506805,7
19:34:51.506805,512
19:34:51.506805,0
19:34:51.506805,-9
19:34:51.506805,-5377
19:34:51.506805,-1
19:34:51.506805,-36
19:34:51.506805,-12033
19:34:51.506805,-1
19:34:51.506805,-63
19:34:52.047484,-83
19:34:52.047484,-26625
19:34:52.047484,-1
19:34:52.047484,-134
19:34:52.047484,24575
19:34:52.047484,-1
19:34:52.047484,-185
19:34:52.047484,14591
19:34:52.047484,-1
19:34:52.047484,-205
19:34:52.047484,13311
19:34:52.047484,-1
19:34:52.047484,-180
19:34:52.047484,31999
19:34:52.047484,-1
19:34:52.047484,-83
19:34:52.047484,-11009
19:34:52.047484,-1
19:34:52.047484,-12
19:34:52.047484,2559
19:34:52.047484,0
19:34:52.047484,19
19:34:52.047484,5632
19:34:52.047484,0
19:34:52.047484,22
19:34:52.047484,4352
19:34:52.047484,0
19:34:52.047484,12
19:34:52.047484,1792
19:34:52.047484,0
19:34:52.047484,2
19:34:52.047484,0
19:34:52.047484,0
19:34:52.047484,-7
19:34:52.047484,-2049
19:34:52.047484,-1
19:34:52.047484,-9
19:34:52.047484,-2817
19:34:52.047484,-1
19:34:52.047484,-19
19:34:52.047484,-5377
19:34:52.047484,-1
19:34:52.047484,-26
19:34:52.047484,-7681
19:34:52.047484,-1
19:34:52.047484,-34
19:34:52.047484,-8961
19:34:52.047484,-1
19:34:52.047484,-41
19:34:52.047484,-11521
19:34:52.047484,-1
19:34:52.047484,-51
19:34:52.047484,-14081
19:34:52.047484,-1
19:34:52.047484,-58
19:34:52.047484,-15873
19:34:52.047484,-1
19:34:52.047484,-66
19:34:52.047484,-17153
19:34:52.047484,-1
19:34:52.047484,-73
19:34:52.047484,-20225
19:34:52.047484,-1
19:34:52.047484,-80
19:34:52.047484,-20993
19:34:52.047484,-1
19:34:52.047484,-85
19:34:52.047484,-22785
19:34:52.047484,-1
19:34:52.047484,-92
19:34:52.047484,-23297
19:34:52.047484,-1
19:34:52.047484,-90
19:34:52.047484,-22785
19:34:52.047484,-1
19:34:52.047484,-95
19:34:52.047484,-24577
19:34:52.047484,-1
19:34:52.047484,-97
19:34:52.047484,-24577
19:34:52.047484,-1
19:34:52.047484,-100
19:34:52.047484,-25857
19:34:52.047484,-1
19:34:52.047484,-105
19:34:52.047484,-26625
19:34:52.047484,-1
19:34:52.047484,-107
19:34:52.047484,-27905
19:34:52.047484,-1
19:34:52.047484,-107
19:34:52.047484,-27137
19:34:52.047484,-1
19:34:52.047484,-112
19:34:52.047484,-28929
19:34:52.047484,-1
19:34:52.047484,-112
19:34:52.047484,-27905
19:34:52.047484,-1
19:34:52.047484,-107
19:34:52.047484,-28417
19:34:52.047484,-1
19:34:52.047484,-112
19:34:52.047484,-28929
19:34:52.047484,-1
19:34:52.047484,-117
19:34:52.047484,-28929
19:34:52.047484,-1
19:34:52.047484,-114
19:34:52.722081,-117
19:34:52.722081,-28929
19:34:52.722081,-1
19:34:52.722081,-114
19:34:52.722081,-28929
19:34:52.722081,-1
19:34:52.722081,-114
19:34:52.722081,-26625
19:34:52.722081,-1
19:34:52.722081,-95
19:34:52.722081,-25345
19:34:52.722081,-1
19:34:52.722081,-107
19:34:52.722081,-27137
19:34:52.722081,-1
19:34:52.722081,-102
19:34:52.722081,-26625
19:34:52.722081,-1
19:34:52.722081,-110
19:34:52.722081,-27137
19:34:52.722081,-1
19:34:52.722081,-105
19:34:52.722081,-27137
19:34:52.722081,-1
19:34:52.722081,-107
19:34:52.722081,-27905
19:34:52.722081,-1
19:34:52.722081,-110
19:34:52.722081,-27905
19:34:52.722081,-1
19:34:52.722081,-112
19:34:52.722081,-28929
19:34:52.722081,-1
19:34:52.722081,-112
19:34:52.722081,-27905
19:34:52.722081,-1
19:34:52.722081,-105
19:34:52.722081,-23297
19:34:52.722081,-1
19:34:52.722081,-85
19:34:52.722081,-21505
19:34:52.722081,-1
19:34:52.722081,-85
19:34:52.722081,-24577
19:34:52.722081,-1
19:34:52.722081,-136
19:34:52.722081,24063
19:34:52.722081,-1
19:34:52.722081,-149
19:34:52.722081,-32257
19:34:52.722081,-1
19:34:52.722081,-122
19:34:52.722081,-30977
19:34:52.722081,-1
19:34:52.722081,-124
19:34:52.722081,32767
19:34:52.722081,-1
19:34:52.722081,-132
19:34:52.722081,31999
19:34:52.722081,-1
19:34:52.722081,-129
19:34:52.722081,-28417
19:34:52.722081,-1
19:34:52.722081,-4
19:34:52.722081,-12289
19:34:52.722081,0
19:34:52.722081,222
19:34:52.722081,-25088
19:34:52.722081,-2
19:34:52.722081,-1234
19:34:52.722081,20223
19:34:52.722081,-7
19:34:52.722081,-1643
19:34:52.722081,4095
19:34:52.722081,-4
19:34:52.722081,-193
19:34:52.722081,-769
19:34:52.722081,-1
19:34:52.722081,-107
19:34:52.722081,11519
19:34:52.722081,0
19:34:52.722081,117
19:34:52.722081,13056
19:34:52.722081,0
19:34:52.722081,61
19:34:52.722081,21248
19:34:52.722081,0
19:34:52.722081,56
19:34:52.722081,11776
19:34:52.722081,0
19:34:52.722081,46
19:34:52.722081,7936
19:34:52.722081,0
19:34:52.722081,17
19:34:52.722081,3072
19:34:52.722081,0
19:34:52.722081,4
19:34:52.722081,-1792
19:34:52.722081,-1
19:34:52.722081,-14
19:34:52.722081,-5889
19:34:52.722081,-1
19:34:52.722081,-36
19:34:52.722081,-12801
19:34:52.722081,-1
19:34:52.722081,-63
19:34:52.722081,-18945
19:34:52.722081,-1
19:34:52.722081,-95
19:34:53.217399,-117
19:34:53.217399,29695
19:34:53.217399,-1
19:34:53.217399,-171
19:34:53.217399,15871
19:34:53.217399,-1
19:34:53.217399,-215
19:34:53.217399,7679
19:34:53.217399,-1
19:34:53.217399,-232
19:34:53.217399,7679
19:34:53.217399,-1
19:34:53.217399,-200
19:34:53.217399,25855
19:34:53.217399,-1
19:34:53.217399,-102
19:34:53.217399,-14081
19:34:53.217399,-1
19:34:53.217399,-29
19:34:53.217399,-2049
19:34:53.217399,-1
19:34:53.217399,4
19:34:53.217399,3072
19:34:53.217399,0
19:34:53.217399,12
19:34:53.217399,1792
19:34:53.217399,0
19:34:53.217399,0
19:34:53.217399,-512
19:34:53.217399,-1
19:34:53.217399,0
19:34:53.217399,1792
19:34:53.217399,0
19:34:53.217399,4
19:34:53.217399,-1024
19:34:53.217399,-1
19:34:53.217399,-4
19:34:53.217399,-769
19:34:53.217399,-1
19:34:53.217399,-9
19:34:53.217399,-2049
19:34:53.217399,-1
19:34:53.217399,-12
19:34:53.217399,-4097
19:34:53.217399,-1
19:34:53.217399,-22
19:34:53.217399,-6401
19:34:53.217399,-1
19:34:53.217399,-29
19:34:53.217399,-9729
19:34:53.217399,-1
19:34:53.217399,-39
19:34:53.217399,-10241
19:34:53.217399,-1
19:34:53.217399,-46
19:34:53.217399,-12801
19:34:53.217399,-1
19:34:53.217399,-56
19:34:53.217399,-15361
19:34:53.217399,-1
19:34:53.217399,-63
19:34:53.217399,-16641
19:34:53.217399,-1
19:34:53.217399,-70
19:34:53.217399,-17665
19:34:53.217399,-1
19:34:53.217399,-73
19:34:53.217399,-18433
19:34:53.217399,-1
19:34:53.217399,-78
19:34:53.217399,-20225
19:34:53.217399,-1
19:34:53.217399,-80
19:34:53.217399,-20993
19:34:53.217399,-1
19:34:53.217399,-83
19:34:53.217399,-20993
19:34:53.217399,-1
19:34:53.217399,-85
19:34:53.217399,-22273
19:34:53.217399,-1
19:34:53.217399,-90
19:34:53.217399,-22785
19:34:53.217399,-1
19:34:53.217399,-90
19:34:53.217399,-24065
19:34:53.217399,-1
19:34:53.217399,-92
19:34:53.217399,-24065
19:34:53.217399,-1
19:34:53.217399,-97
19:34:53.217399,-24577
19:34:53.217399,-1
19:34:53.217399,-97
19:34:53.217399,-24577
19:34:53.217399,-1
19:34:53.217399,-97
19:34:53.217399,-24577
19:34:53.217399,-1
19:34:53.217399,-100
19:34:53.217399,-25345
19:34:53.217399,-1
19:34:53.217399,-100
19:34:53.217399,-26625
19:34:53.217399,-1
19:34:53.217399,-107
19:34:53.217399,-27137
19:34:53.217399,-1
19:34:53.217399,-110
19:34:53.757178,-107
19:34:53.757178,-27137
19:34:53.757178,-1
19:34:53.757178,-110
19:34:53.757178,-27905
19:34:53.757178,-1
19:34:53.757178,-110
19:34:53.757178,-28417
19:34:53.757178,-1
19:34:53.757178,-112
19:34:53.757178,-27905
19:34:53.757178,-1
19:34:53.757178,-112
19:34:53.757178,-28929
19:34:53.757178,-1
19:34:53.757178,-114
19:34:53.757178,-27137
19:34:53.757178,-1
19:34:53.757178,-102
19:34:53.757178,-25345
19:34:53.757178,-1
19:34:53.757178,-105
19:34:53.757178,-27137
19:34:53.757178,-1
19:34:53.757178,-105
19:34:53.757178,-27137
19:34:53.757178,-1
19:34:53.757178,-110
19:34:53.757178,-27137
19:34:53.757178,-1
19:34:53.757178,-107
19:34:53.757178,-27905
19:34:53.757178,-1
19:34:53.757178,-107
19:34:53.757178,-25857
19:34:53.757178,-1
19:34:53.757178,-95
19:34:53.757178,-21505
19:34:53.757178,-1
19:34:53.757178,-73
19:34:53.757178,-18433
19:34:53.757178,-1
19:34:53.757178,-85
19:34:53.757178,-28929
19:34:53.757178,-1
19:34:53.757178,-149
19:34:53.757178,27135
19:34:53.757178,-1
19:34:53.757178,-127
19:34:53.757178,-29697
19:34:53.757178,-1
19:34:53.757178,-117
19:34:53.757178,-29697
19:34:53.757178,-1
19:34:53.757178,-122
19:34:53.757178,-31489
19:34:53.757178,-1
19:34:53.757178,-124
19:34:53.757178,-31489
19:34:53.757178,-1
19:34:53.757178,-119
19:34:53.757178,-14593
19:34:53.757178,-1
19:34:53.757178,134
19:34:53.757178,5632
19:34:53.757178,1
19:34:53.757178,-80
19:34:53.757178,16383
19:34:53.757178,-4
19:34:53.757178,-1680
19:34:53.757178,-16129
19:34:53.757178,-8
19:34:53.757178,-1447
19:34:53.757178,-1793
19:34:53.757178,-3
19:34:53.757178,61
19:34:53.757178,-8704
19:34:53.757178,-1
19:34:53.757178,-34
19:34:53.757178,-30977
19:34:53.757178,0
19:34:53.757178,105
19:34:53.757178,13056
19:34:53.757178,0
19:34:53.757178,88
19:34:53.757178,21760
19:34:53.757178,0
19:34:53.757178,51
19:34:53.757178,13056
19:34:53.757178,0
19:34:53.757178,46
19:34:53.757178,6656
19:34:53.757178,0
19:34:53.757178,17
19:34:53.757178,4352
19:34:53.757178,0
19:34:53.757178,4
19:34:53.757178,-1024
19:34:53.757178,-1
19:34:53.757178,-12
19:34:53.757178,-5377
19:34:53.757178,-1
19:34:53.757178,-36
19:34:53.757178,-11521
19:34:53.757178,-1
19:34:53.757178,-56
19:34:53.757178,-18433
19:34:53.757178,-1
19:34:53.757178,-95
19:34:54.386990,-112
19:34:54.386990,31487
19:34:54.386990,-1
19:34:54.386990,-166
19:34:54.386990,16383
19:34:54.386990,-1
19:34:54.386990,-210
19:34:54.386990,8959
19:34:54.386990,-1
19:34:54.386990,-222
19:34:54.386990,11519
19:34:54.386990,-1
19:34:54.386990,-180
19:34:54.386990,32767
19:34:54.386990,-1
19:34:54.386990,-75
19:34:54.386990,-9729
19:34:54.386990,-1
19:34:54.386990,-22
19:34:54.386990,-2049
19:34:54.386990,-1
19:34:54.386990,2
19:34:54.386990,1024
19:34:54.386990,0
19:34:54.386990,2
19:34:54.386990,-512
19:34:54.386990,-1
19:34:54.386990,-7
19:34:54.386990,-1537
19:34:54.386990,-1
19:34:54.386990,-7
19:34:54.386990,-2817
19:34:54.386990,-1
19:34:54.386990,-19
19:34:54.386990,-5377
19:34:54.386990,-1
19:34:54.386990,-24
19:34:54.386990,-7169
19:34:54.386990,-1
19:34:54.386990,-31
19:34:54.386990,-8961
19:34:54.386990,-1
19:34:54.386990,-41
19:34:54.386990,-9729
19:34:54.386990,-1
19:34:54.386990,-44
19:34:54.386990,-12033
19:34:54.386990,-1
19:34:54.386990,-53
19:34:54.386990,-15361
19:34:54.386990,-1
19:34:54.386990,-68
19:34:54.386990,-17153
19:34:54.386990,-1
19:34:54.386990,-68
19:34:54.386990,-18945
19:34:54.386990,-1
19:34:54.386990,-80
19:34:54.386990,-20225
19:34:54.386990,-1
19:34:54.386990,-83
19:34:54.386990,-22785
19:34:54.386990,-1
19:34:54.386990,-90
19:34:54.386990,-23297
19:34:54.386990,-1
19:34:54.386990,-97
19:34:54.386990,-25345
19:34:54.386990,-1
19:34:54.386990,-100
19:34:54.386990,-25345
19:34:54.386990,-1
19:34:54.386990,-105
19:34:54.386990,-26625
19:34:54.386990,-1
19:34:54.386990,-105
19:34:54.386990,-27905
19:34:54.386990,-1
19:34:54.386990,-110
19:34:54.386990,-28417
19:34:54.386990,-1
19:34:54.386990,-117
19:34:54.386990,-28929
19:34:54.386990,-1
19:34:54.386990,-117
19:34:54.386990,-30209
19:34:54.386990,-1
19:34:54.386990,-119
19:34:54.386990,-30977
19:34:54.386990,-1
19:34:54.386990,-127
19:34:54.386990,-31489
19:34:54.386990,-1
19:34:54.386990,-122
19:34:54.386990,-31489
19:34:54.386990,-1
19:34:54.386990,-127
19:34:54.386990,32767
19:34:54.386990,-1
19:34:54.386990,-132
19:34:54.386990,32767
19:34:54.386990,-1
19:34:54.386990,-127
19:34:54.386990,32767
19:34:54.386990,-1
19:34:54.386990,-132
19:34:54.386990,31487
19:34:54.386990,-1
19:34:54.386990,-134
19:34:54.882208,-132
19:34:54.882208,31487
19:34:54.882208,-1
19:34:54.882208,-134
19:34:54.882208,31999
19:34:54.882208,-1
19:34:54.882208,-134
19:34:54.882208,30975
19:34:54.882208,-1
19:34:54.882208,-136
19:34:54.882208,31487
19:34:54.882208,-1
19:34:54.882208,-136
19:34:54.882208,30207
19:34:54.882208,-1
19:34:54.882208,-139
19:34:54.882208,29695
19:34:54.882208,-1
19:34:54.882208,-136
19:34:54.882208,32767
19:34:54.882208,-1
19:34:54.882208,-132
19:34:54.882208,30975
19:34:54.882208,-1
19:34:54.882208,-136
19:34:54.882208,31487
19:34:54.882208,-1
19:34:54.882208,-129
19:34:54.882208,-30977
19:34:54.882208,-1
19:34:54.882208,-122
19:34:54.882208,-31489
19:34:54.882208,-1
19:34:54.882208,-127
19:34:54.882208,-32257
19:34:54.882208,-1
19:34:54.882208,-127
19:34:54.882208,-31489
19:34:54.882208,-1
19:34:54.882208,-117
19:34:54.882208,-27137
19:34:54.882208,-1
19:34:54.882208,-100
19:34:54.882208,-24577
19:34:54.882208,-1
19:34:54.882208,-100
19:34:54.882208,-30977
19:34:54.882208,-1
19:34:54.882208,-161
19:34:54.882208,20735
19:34:54.882208,-1
19:34:54.882208,-151
19:34:54.882208,30975
19:34:54.882208,-1
19:34:54.882208,-136
19:34:54.882208,30975
19:34:54.882208,-1
19:34:54.882208,-141
19:34:54.882208,28415
19:34:54.882208,-1
19:34:54.882208,-146
19:34:54.882208,28927
19:34:54.882208,-1
19:34:54.882208,-139
19:34:54.882208,-25857
19:34:54.882208,-1
19:34:54.882208,56
19:34:54.882208,-2560
19:34:54.882208,0
19:34:54.882208,53
19:34:54.882208,10240
19:34:54.882208,-3
19:34:54.882208,-1521
19:34:54.882208,3327
19:34:54.882208,-7
19:34:54.882208,-1484
19:34:54.882208,23039
19:34:54.882208,-3
19:34:54.882208,-44
19:34:54.882208,-15873
19:34:54.882208,-1
19:34:54.882208,-88
19:34:54.882208,22015
19:34:54.882208,0
19:34:54.882208,83
19:34:54.882208,6656
19:34:54.882208,0
19:34:54.882208,53
19:34:54.882208,11776
19:34:54.882208,0
19:34:54.882208,12
19:34:54.882208,3072
19:34:54.882208,0
19:34:54.882208,14
19:34:54.882208,0
19:34:54.882208,0
19:34:54.882208,-4
19:34:54.882208,-769
19:34:54.882208,-1
19:34:54.882208,-14
19:34:54.882208,-7681
19:34:54.882208,-1
19:34:54.882208,-39
19:34:54.882208,-11521
19:34:54.882208,-1
19:34:54.882208,-61
19:34:54.882208,-18433
19:34:54.882208,-1
19:34:54.882208,-83
19:34:55.422749,-100
19:34:55.422749,-30977
19:34:55.422749,-1
19:34:55.422749,-146
19:34:55.422749,23295
19:34:55.422749,-1
19:34:55.422749,-190
19:34:55.422749,10751
19:34:55.422749,-1
19:34:55.422749,-224
19:34:55.422749,5887
19:34:55.422749,-1
19:34:55.422749,-239
19:34:55.422749,8447
19:34:55.422749,-1
19:34:55.422749,-183
19:34:55.422749,32767
19:34:55.422749,-1
19:34:55.422749,-83
19:34:55.422749,-12033
19:34:55.422749,-1
19:34:55.422749,-22
19:34:55.422749,-769
19:34:55.422749,-1
19:34:55.422749,4
19:34:55.422749,1024
19:34:55.422749,0
19:34:55.422749,2
19:34:55.422749,-512
19:34:55.422749,-1
19:34:55.422749,-7
19:34:55.422749,-2817
19:34:55.422749,-1
19:34:55.422749,-17
19:34:55.422749,-4609
19:34:55.422749,-1
19:34:55.422749,-19
19:34:55.422749,-5377
19:34:55.422749,-1
19:34:55.422749,-26
19:34:55.422749,-7681
19:34:55.422749,-1
19:34:55.422749,-31
19:34:55.422749,-7681
19:34:55.422749,-1
19:34:55.422749,-39
19:34:55.422749,-10241
19:34:55.422749,-1
19:34:55.422749,-44
19:34:55.422749,-12801
19:34:55.422749,-1
19:34:55.422749,-58
19:34:55.422749,-15361
19:34:55.422749,-1
19:34:55.422749,-66
19:34:55.422749,-17665
19:34:55.422749,-1
19:34:55.422749,-75
19:34:55.422749,-18433
19:34:55.422749,-1
19:34:55.422749,-78
19:34:55.422749,-20225
19:34:55.422749,-1
19:34:55.422749,-83
19:34:55.422749,-21505
19:34:55.422749,-1
19:34:55.422749,-83
19:34:55.422749,-20993
19:34:55.422749,-1
19:34:55.422749,-88
19:34:55.422749,-22273
19:34:55.422749,-1
19:34:55.422749,-88
19:34:55.422749,-23297
19:34:55.422749,-1
19:34:55.422749,-95
19:34:55.422749,-24065
19:34:55.422749,-1
19:34:55.422749,-95
19:34:55.422749,-24577
19:34:55.422749,-1
19:34:55.422749,-97
19:34:55.422749,-24577
19:34:55.422749,-1
19:34:55.422749,-97
19:34:55.422749,-24577
19:34:55.422749,-1
19:34:55.422749,-100
19:34:55.422749,-26625
19:34:55.422749,-1
19:34:55.422749,-102
19:34:55.422749,-26625
19:34:55.422749,-1
19:34:55.422749,-107
19:34:55.422749,-26625
19:34:55.422749,-1
19:34:55.422749,-105
19:34:55.422749,-27137
19:34:55.422749,-1
19:34:55.422749,-110
19:34:55.422749,-27905
19:34:55.422749,-1
19:34:55.422749,-110
19:34:55.422749,-27137
19:34:55.422749,-1
19:34:55.422749,-107
19:34:55.422749,-27137
19:34:55.422749,-1
19:34:55.422749,-107
19:34:55.961962,-105
19:34:55.961962,-27137
19:34:55.961962,-1
19:34:55.961962,-110
19:34:55.961962,-27137
19:34:55.961962,-1
19:34:55.961962,-105
19:34:55.961962,-26625
19:34:55.961962,-1
19:34:55.961962,-100
19:34:55.961962,-22273
19:34:55.961962,-1
19:34:55.961962,-70
19:34:55.961962,-15873
19:34:55.961962,-1
19:34:55.961962,-63
19:34:55.961962,-16641
19:34:55.961962,-1
19:34:55.961962,-75
19:34:55.961962,-26625
19:34:55.961962,-1
19:34:55.961962,-139
19:34:55.961962,30975
19:34:55.961962,-1
19:34:55.961962,-112
19:34:55.961962,-26625
19:34:55.961962,-1
19:34:55.961962,-107
19:34:55.961962,-27905
19:34:55.961962,-1
19:34:55.961962,-112
19:34:55.961962,-28929
19:34:55.961962,-1
19:34:55.961962,-114
19:34:55.961962,-28929
19:34:55.961962,-1
19:34:55.961962,-107
19:34:55.961962,-6401
19:34:55.961962,-1
19:34:55.961962,176
19:34:55.961962,4352
19:34:55.961962,1
19:34:55.961962,-176
19:34:55.961962,-11009
19:34:55.961962,-5
19:34:55.961962,-1702
19:34:55.961962,1535
19:34:55.961962,-7
19:34:55.961962,-1271
19:34:55.961962,-22273
19:34:55.961962,-2
19:34:55.961962,73
19:34:55.961962,-13568
19:34:55.961962,-1
19:34:55.961962,17
19:34:55.961962,-26880
19:34:55.961962,0
19:34:55.961962,95
19:34:55.961962,17408
19:34:55.961962,0
19:34:55.961962,105
19:34:55.961962,21760
19:34:55.961962,0
19:34:55.961962,61
19:34:55.961962,16896
19:34:55.961962,0
19:34:55.961962,56
19:34:55.961962,9984
19:34:55.961962,0
19:34:55.961962,34
19:34:55.961962,7424
19:34:55.961962,0
19:34:55.961962,19
19:34:55.961962,1792
19:34:55.961962,0
19:34:55.961962,-2
19:34:55.961962,-2817
19:34:55.961962,-1
19:34:55.961962,-22
19:34:55.961962,-8449
19:34:55.961962,-1
19:34:55.961962,-46
19:34:55.961962,-15873
19:34:55.961962,-1
19:34:55.961962,-85
19:34:55.961962,-28417
19:34:55.961962,-1
19:34:55.961962,-139
19:34:55.961962,24063
19:34:55.961962,-1
19:34:55.961962,-185
19:34:55.961962,13311
19:34:55.961962,-1
19:34:55.961962,-215
19:34:55.961962,12799
19:34:55.961962,-1
19:34:55.961962,-185
19:34:55.961962,28927
19:34:55.961962,-1
19:34:55.961962,-95
19:34:55.961962,-12033
19:34:55.961962,-1
19:34:55.961962,-17
19:34:55.961962,-257
19:34:55.961962,-1
19:34:55.961962,7
19:34:55.961962,3584
19:34:55.961962,0
19:34:55.961962,14
19:34:56.547540,12
19:34:56.547540,1024
19:34:56.547540,0
19:34:56.547540,0
19:34:56.547540,0
19:34:56.547540,0
19:34:56.547540,2
19:34:56.547540,2304
19:34:56.547540,0
19:34:56.547540,4
19:34:56.547540,-1792
19:34:56.547540,-1
19:34:56.547540,-9
19:34:56.547540,-2049
19:34:56.547540,-1
19:34:56.547540,-14
19:34:56.547540,-4609
19:34:56.547540,-1
19:34:56.547540,-24
19:34:56.547540,-7169
19:34:56.547540,-1
19:34:56.547540,-34
19:34:56.547540,-8449
19:34:56.547540,-1
19:34:56.547540,-39
19:34:56.547540,-12033
19:34:56.547540,-1
19:34:56.547540,-56
19:34:56.547540,-14593
19:34:56.547540,-1
19:34:56.547540,-61
19:34:56.547540,-16641
19:34:56.547540,-1
19:34:56.547540,-66
19:34:56.547540,-17153
19:34:56.547540,-1
19:34:56.547540,-73
19:34:56.547540,-19713
19:34:56.547540,-1
19:34:56.547540,-78
19:34:56.547540,-20225
19:34:56.547540,-1
19:34:56.547540,-83
19:34:56.547540,-21505
19:34:56.547540,-1
19:34:56.547540,-88
19:34:56.547540,-22273
19:34:56.547540,-1
19:34:56.547540,-90
19:34:56.547540,-23297
19:34:56.547540,-1
19:34:56.547540,-92
19:34:56.547540,-24577
19:34:56.547540,-1
19:34:56.547540,-100
19:34:56.547540,-25345
19:34:56.547540,-1
19:34:56.547540,-102
19:34:56.547540,-26625
19:34:56.547540,-1
19:34:56.547540,-105
19:34:56.547540,-27137
19:34:56.547540,-1
19:34:56.547540,-105
19:34:56.547540,-27137
19:34:56.547540,-1
19:34:56.547540,-110
19:34:56.547540,-27905
19:34:56.547540,-1
19:34:56.547540,-110
19:34:56.547540,-28417
19:34:56.547540,-1
19:34:56.547540,-114
19:34:56.547540,-29697
19:34:56.547540,-1
19:34:56.547540,-117
19:34:56.547540,-29697
19:34:56.547540,-1
19:34:56.547540,-114
19:34:56.547540,-28929
19:34:56.547540,-1
19:34:56.547540,-117
19:34:56.547540,-29697
19:34:56.547540,-1
19:34:56.547540,-117
19:34:56.547540,-29697
19:34:56.547540,-1
19:34:56.547540,-114
19:34:56.547540,-28929
19:34:56.547540,-1
19:34:56.547540,-114
19:34:56.547540,-29697
19:34:56.547540,-1
19:34:56.547540,-119
19:34:56.547540,-29697
19:34:56.547540,-1
19:34:56.547540,-119
19:34:56.547540,-30209
19:34:56.547540,-1
19:34:56.547540,-122
19:34:56.547540,-30977
19:34:56.547540,-1
19:34:56.547540,-119
19:34:56.547540,-30209
19:34:56.547540,-1
19:34:56.547540,-119
19:34:56.547540,-30977
19:34:56.547540,-1
19:34:56.547540,-124
19:34:57.129173,-124
19:34:57.129173,-31489
19:34:57.129173,-1
19:34:57.129173,-124
19:34:57.129173,-30209
19:34:57.129173,-1
19:34:57.129173,-119
19:34:57.129173,-28929
19:34:57.129173,-1
19:34:57.129173,-102
19:34:57.129173,-22273
19:34:57.129173,-1
19:34:57.129173,-75
19:34:57.129173,-19713
19:34:57.129173,-1
19:34:57.129173,-100
19:34:57.129173,29695
19:34:57.129173,-1
19:34:57.129173,-166
19:34:57.129173,28415
19:34:57.129173,-1
19:34:57.129173,-122
19:34:57.129173,-30977
19:34:57.129173,-1
19:34:57.129173,-127
19:34:57.129173,-32257
19:34:57.129173,-1
19:34:57.129173,-127
19:34:57.129173,32767
19:34:57.129173,-1
19:34:57.129173,-132
19:34:57.129173,32767
19:34:57.129173,-1
19:34:57.129173,-107
19:34:57.129173,3839
19:34:57.129173,0
19:34:57.129173,227
19:34:57.129173,-21248
19:34:57.129173,0
19:34:57.129173,-493
19:34:57.129173,-26881
19:34:57.129173,-6
19:34:57.129173,-1829
19:34:57.129173,20223
19:34:57.129173,-7
19:34:57.129173,-1005
19:34:57.129173,31999
19:34:57.129173,-1
19:34:57.129173,48
19:34:57.129173,-21760
19:34:57.129173,-1
19:34:57.129173,53
19:34:57.129173,-31744
19:34:57.129173,0
19:34:57.129173,58
19:34:57.129173,16128
19:34:57.129173,0
19:34:57.129173,85
19:34:57.129173,13568
19:34:57.129173,0
19:34:57.129173,36
19:34:57.129173,10496
19:34:57.129173,0
19:34:57.129173,29
19:34:57.129173,3584
19:34:57.129173,0
19:34:57.129173,12
19:34:57.129173,1792
19:34:57.129173,0
19:34:57.129173,-4
19:34:57.129173,-3329
19:34:57.129173,-1
19:34:57.129173,-22
19:34:57.129173,-7681
19:34:57.129173,-1
19:34:57.129173,-41
19:34:57.129173,-14081
19:34:57.129173,-1
19:34:57.129173,-68
19:34:57.129173,-21505
19:34:57.129173,-1
19:34:57.129173,-107
19:34:57.129173,32767
19:34:57.129173,-1
19:34:57.129173,-158
19:34:57.129173,18943
19:34:57.129173,-1
19:34:57.129173,-205
19:34:57.129173,9471
19:34:57.129173,-1
19:34:57.129173,-222
19:34:57.129173,10239
19:34:57.129173,-1
19:34:57.129173,-195
19:34:57.129173,26367
19:34:57.129173,-1
19:34:57.129173,-105
19:34:57.129173,-15873
19:34:57.129173,-1
19:34:57.129173,-41
19:34:57.129173,-5377
19:34:57.129173,-1
19:34:57.129173,-9
19:34:57.129173,-1537
19:34:57.129173,-1
19:34:57.129173,-7
19:34:57.129173,-2049
19:34:57.129173,-1
19:34:57.129173,-14
19:34:57.671985,-17
19:34:57.671985,-5377
19:34:57.671985,-1
19:34:57.671985,-24
19:34:57.671985,-6401
19:34:57.671985,-1
19:34:57.671985,-31
19:34:57.671985,-7681
19:34:57.671985,-1
19:34:57.671985,-31
19:34:57.671985,-9729
19:34:57.671985,-1
19:34:57.671985,-41
19:34:57.671985,-10241
19:34:57.671985,-1
19:34:57.671985,-39
19:34:57.671985,-8449
19:34:57.671985,-1
19:34:57.671985,-36
19:34:57.671985,-11521
19:34:57.671985,-1
19:34:57.671985,-53
19:34:57.671985,-14081
19:34:57.671985,-1
19:34:57.671985,-61
19:34:57.671985,-16641
19:34:57.671985,-1
19:34:57.671985,-68
19:34:57.671985,-18433
19:34:57.671985,-1
19:34:57.671985,-75
19:34:57.671985,-18945
19:34:57.671985,-1
19:34:57.671985,-78
19:34:57.671985,-20993
19:34:57.671985,-1
19:34:57.671985,-85
19:34:57.671985,-22785
19:34:57.671985,-1
19:34:57.671985,-92
19:34:57.671985,-24065
19:34:57.671985,-1
19:34:57.671985,-95
19:34:57.671985,-24577
19:34:57.671985,-1
19:34:57.671985,-102
19:34:57.671985,-25345
19:34:57.671985,-1
19:34:57.671985,-102
19:34:57.671985,-27137
19:34:57.671985,-1
19:34:57.671985,-107
19:34:57.671985,-27905
19:34:57.671985,-1
19:34:57.671985,-112
19:34:57.671985,-28417
19:34:57.671985,-1
19:34:57.671985,-117
19:34:57.671985,-30209
19:34:57.671985,-1
19:34:57.671985,-119
19:34:57.671985,-28929
19:34:57.671985,-1
19:34:57.671985,-112
19:34:57.671985,-28929
19:34:57.671985,-1
19:34:57.671985,-117
19:34:57.671985,-30209
19:34:57.671985,-1
19:34:57.671985,-117
19:34:57.671985,-30209
19:34:57.671985,-1
19:34:57.671985,-124
19:34:57.671985,-31489
19:34:57.671985,-1
19:34:57.671985,-122
19:34:57.671985,-30977
19:34:57.671985,-1
19:34:57.671985,-127
19:34:57.671985,-32257
19:34:57.671985,-1
19:34:57.671985,-127
19:34:57.671985,32767
19:34:57.671985,-1
19:34:57.671985,-129
19:34:57.671985,31999
19:34:57.671985,-1
19:34:57.671985,-132
19:34:57.671985,32767
19:34:57.671985,-1
19:34:57.671985,-132
19:34:57.671985,31487
19:34:57.671985,-1
19:34:57.671985,-134
19:34:57.671985,31487
19:34:57.671985,-1
19:34:57.671985,-136
19:34:57.671985,30975
19:34:57.671985,-1
19:34:57.671985,-139
19:34:57.671985,30207
19:34:57.671985,-1
19:34:57.671985,-136
19:34:57.671985,30975
19:34:57.671985,-1
19:34:57.671985,-139
19:34:57.671985,29695
19:34:57.671985,-1
19:34:57.671985,-136
19:34:58.256953,-134
19:34:58.256953,30975
19:34:58.256953,-1
19:34:58.256953,-132
19:34:58.256953,-32257
19:34:58.256953,-1
19:34:58.256953,-122
19:34:58.256953,-28929
19:34:58.256953,-1
19:34:58.256953,-110
19:34:58.256953,-25857
19:34:58.256953,-1
19:34:58.256953,-95
19:34:58.256953,-29697
19:34:58.256953,-1
19:34:58.256953,-163
19:34:58.256953,22015
19:34:58.256953,-1
19:34:58.256953,-144
19:34:58.256953,31487
19:34:58.256953,-1
19:34:58.256953,-139
19:34:58.256953,30975
19:34:58.256953,-1
19:34:58.256953,-139
19:34:58.256953,29695
19:34:58.256953,-1
19:34:58.256953,-141
19:34:58.256953,28927
19:34:58.256953,-1
19:34:58.256953,-141
19:34:58.256953,-24577
19:34:58.256953,-1
19:34:58.256953,56
19:34:58.256953,-4352
19:34:58.256953,0
19:34:58.256953,36
19:34:58.256953,6400
19:34:58.256953,-3
19:34:58.256953,-1523
19:34:58.256953,5375
19:34:58.256953,-7
19:34:58.256953,-1467
19:34:58.256953,24319
19:34:58.256953,-3
19:34:58.256953,-51
19:34:58.256953,-15873
19:34:58.256953,-1
19:34:58.256953,-90
19:34:58.256953,18175
19:34:58.256953,0
19:34:58.256953,75
19:34:58.256953,5632
19:34:58.256953,0
19:34:58.256953,46
19:34:58.256953,13056
19:34:58.256953,0
19:34:58.256953,22
19:34:58.256953,3584
19:34:58.256953,0
19:34:58.256953,14
19:34:58.256953,-512
19:34:58.256953,-1
19:34:58.256953,-12
19:34:58.256953,-3329
19:34:58.256953,-1
19:34:58.256953,-22
19:34:58.256953,-8961
19:34:58.256953,-1
19:34:58.256953,-48
19:34:58.256953,-15873
19:34:58.256953,-1
19:34:58.256953,-73
19:34:58.256953,-20993
19:34:58.256953,-1
19:34:58.256953,-102
19:34:58.256953,-30977
19:34:58.256953,-1
19:34:58.256953,-139
19:34:58.256953,24063
19:34:58.256953,-1
19:34:58.256953,-193
19:34:58.256953,10239
19:34:58.256953,-1
19:34:58.256953,-239
19:34:58.256953,-1025
19:34:58.256953,-2
19:34:58.256953,-273
19:34:58.256953,-4097
19:34:58.256953,-2
19:34:58.256953,-256
19:34:58.256953,10239
19:34:58.256953,-1
19:34:58.256953,-161
19:34:58.256953,-26625
19:34:58.256953,-1
19:34:58.256953,-66
19:34:58.256953,-9729
19:34:58.256953,-1
19:34:58.256953,-19
19:34:58.256953,-2049
19:34:58.256953,-1
19:34:58.256953,-9
19:34:58.256953,-2049
19:34:58.256953,-1
19:34:58.256953,-12
19:34:58.256953,-3329
19:34:58.256953,-1
19:34:58.256953,-17
19:34:58.796730,-17
19:34:58.796730,-5377
19:34:58.796730,-1
19:34:58.796730,-24
19:34:58.796730,-5889
19:34:58.796730,-1
19:34:58.796730,-26
19:34:58.796730,-6401
19:34:58.796730,-1
19:34:58.796730,-26
19:34:58.796730,-7169
19:34:58.796730,-1
19:34:58.796730,-36
19:34:58.796730,-10241
19:34:58.796730,-1
19:34:58.796730,-41
19:34:58.796730,-8961
19:34:58.796730,-1
19:34:58.796730,-34
19:34:58.796730,-10241
19:34:58.796730,-1
19:34:58.796730,-48
19:34:58.796730,-12801
19:34:58.796730,-1
19:34:58.796730,-56
19:34:58.796730,-15361
19:34:58.796730,-1
19:34:58.796730,-63
19:34:58.796730,-16641
19:34:58.796730,-1
19:34:58.796730,-70
19:34:58.796730,-18433
19:34:58.796730,-1
19:34:58.796730,-78
19:34:58.796730,-19713
19:34:58.796730,-1
19:34:58.796730,-78
19:34:58.796730,-20225
19:34:58.796730,-1
19:34:58.796730,-80
19:34:58.796730,-20225
19:34:58.796730,-1
19:34:58.796730,-78
19:34:58.796730,-20225
19:34:58.796730,-1
19:34:58.796730,-85
19:34:58.796730,-21505
19:34:58.796730,-1
19:34:58.796730,-88
19:34:58.796730,-22273
19:34:58.796730,-1
19:34:58.796730,-90
19:34:58.796730,-23297
19:34:58.796730,-1
19:34:58.796730,-92
19:34:58.796730,-22785
19:34:58.796730,-1
19:34:58.796730,-95
19:34:58.796730,-24577
19:34:58.796730,-1
19:34:58.796730,-97
19:34:58.796730,-24577
19:34:58.796730,-1
19:34:58.796730,-100
19:34:58.796730,-26625
19:34:58.796730,-1
19:34:58.796730,-102
19:34:58.796730,-26625
19:34:58.796730,-1
19:34:58.796730,-102
19:34:58.796730,-25857
19:34:58.796730,-1
19:34:58.796730,-105
19:34:58.796730,-27137
19:34:58.796730,-1
19:34:58.796730,-105
19:34:58.796730,-25857
19:34:58.796730,-1
19:34:58.796730,-105
19:34:58.796730,-27137
19:34:58.796730,-1
19:34:58.796730,-105
19:34:58.796730,-25857
19:34:58.796730,-1
19:34:58.796730,-102
19:34:58.796730,-26625
19:34:58.796730,-1
19:34:58.796730,-107
19:34:58.796730,-27137
19:34:58.796730,-1
19:34:58.796730,-105
19:34:58.796730,-27905
19:34:58.796730,-1
19:34:58.796730,-112
19:34:58.796730,-27905
19:34:58.796730,-1
19:34:58.796730,-110
19:34:58.796730,-27137
19:34:58.796730,-1
19:34:58.796730,-110
19:34:58.796730,-27905
19:34:58.796730,-1
19:34:58.796730,-107
19:34:58.796730,-25345
19:34:58.796730,-1
19:34:58.796730,-85
19:34:58.796730,-19713
19:34:58.796730,-1
19:34:58.796730,-80
19:34:59.337018,-83
19:34:59.337018,-27137
19:34:59.337018,-1
19:34:59.337018,-149
19:34:59.337018,24575
19:34:59.337018,-1
19:34:59.337018,-134
19:34:59.337018,-29697
19:34:59.337018,-1
19:34:59.337018,-122
19:34:59.337018,-31489
19:34:59.337018,-1
19:34:59.337018,-119
19:34:59.337018,-28417
19:34:59.337018,-1
19:34:59.337018,-112
19:34:59.337018,-30209
19:34:59.337018,-1
19:34:59.337018,-119
19:34:59.337018,-23297
19:34:59.337018,-1
19:34:59.337018,26
19:34:59.337018,-3584
19:34:59.337018,0
19:34:59.337018,200
19:34:59.337018,16128
19:34:59.337018,-2
19:34:59.337018,-1340
19:34:59.337018,-1025
19:34:59.337018,-8
19:34:59.337018,-1697
19:34:59.337018,8447
19:34:59.337018,-4
19:34:59.337018,-129
19:34:59.337018,13823
19:34:59.337018,0
19:34:59.337018,-70
19:34:59.337018,17151
19:34:59.337018,0
19:34:59.337018,141
19:34:59.337018,17408
19:34:59.337018,0
19:34:59.337018,70
19:34:59.337018,24320
19:34:59.337018,0
19:34:59.337018,63
19:34:59.337018,12288
19:34:59.337018,0
19:34:59.337018,56
19:34:59.337018,11264
19:34:59.337018,0
19:34:59.337018,26
19:34:59.337018,5632
19:34:59.337018,0
19:34:59.337018,17
19:34:59.337018,1024
19:34:59.337018,0
19:34:59.337018,-2
19:34:59.337018,-2817
19:34:59.337018,-1
19:34:59.337018,-26
19:34:59.337018,-8961
19:34:59.337018,-1
19:34:59.337018,-51
19:34:59.337018,-16641
19:34:59.337018,-1
19:34:59.337018,-83
19:34:59.337018,-26625
19:34:59.337018,-1
19:34:59.337018,-129
19:34:59.337018,25343
19:34:59.337018,-1
19:34:59.337018,-188
19:34:59.337018,12799
19:34:59.337018,-1
19:34:59.337018,-220
19:34:59.337018,8447
19:34:59.337018,-1
19:34:59.337018,-220
19:34:59.337018,17151
19:34:59.337018,-1
19:34:59.337018,-144
19:34:59.337018,-23297
19:34:59.337018,-1
19:34:59.337018,-51
19:34:59.337018,-5889
19:34:59.337018,-1
19:34:59.337018,-4
19:34:59.337018,1279
19:34:59.337018,0
19:34:59.337018,4
19:34:59.337018,512
19:34:59.337018,0
19:34:59.337018,2
19:34:59.337018,-1024
19:34:59.337018,-1
19:34:59.337018,-9
19:34:59.337018,-2817
19:34:59.337018,-1
19:34:59.337018,-17
19:34:59.337018,-4609
19:34:59.337018,-1
19:34:59.337018,-22
19:34:59.337018,-6401
19:34:59.337018,-1
19:34:59.337018,-31
19:34:59.337018,-7681
19:34:59.337018,-1
19:34:59.337018,-36
19:34:59.878140,-39
19:34:59.878140,-10241
19:34:59.878140,-1
19:34:59.878140,-44
19:34:59.878140,-12033
19:34:59.878140,-1
19:34:59.878140,-48
19:34:59.878140,-12033
19:34:59.878140,-1
19:34:59.878140,-44
19:34:59.878140,-11521
19:34:59.878140,-1
19:34:59.878140,-56
19:34:59.878140,-15361
19:34:59.878140,-1
19:34:59.878140,-61
19:34:59.878140,-16641
19:34:59.878140,-1
19:34:59.878140,-70
19:34:59.878140,-17665
19:34:59.878140,-1
19:34:59.878140,-73
19:34:59.878140,-18945
19:34:59.878140,-1
19:34:59.878140,-78
19:34:59.878140,-20225
19:34:59.878140,-1
19:34:59.878140,-83
19:34:59.878140,-22273
19:34:59.878140,-1
19:34:59.878140,-88
19:34:59.878140,-22785
19:34:59.878140,-1
19:34:59.878140,-90
19:34:59.878140,-23297
19:34:59.878140,-1
19:34:59.878140,-97
19:34:59.878140,-25345
19:34:59.878140,-1
19:34:59.878140,-100
19:34:59.878140,-25857
19:34:59.878140,-1
19:34:59.878140,-102
19:34:59.878140,-26625
19:34:59.878140,-1
19:34:59.878140,-105
19:34:59.878140,-27137
19:34:59.878140,-1
19:34:59.878140,-110
19:34:59.878140,-27905
19:34:59.878140,-1
19:34:59.878140,-110
19:34:59.878140,-27905
19:34:59.878140,-1
19:34:59.878140,-110
19:34:59.878140,-28417
19:34:59.878140,-1
19:34:59.878140,-112
19:34:59.878140,-27905
19:34:59.878140,-1
19:34:59.878140,-110
19:34:59.878140,-27905
19:34:59.878140,-1
19:34:59.878140,-112
19:34:59.878140,-28417
19:34:59.878140,-1
19:34:59.878140,-112
19:34:59.878140,-28417
19:34:59.878140,-1
19:34:59.878140,-114
19:34:59.878140,-28929
19:34:59.878140,-1
19:34:59.878140,-114
19:34:59.878140,-28929
19:34:59.878140,-1
19:34:59.878140,-117
19:34:59.878140,-29697
19:34:59.878140,-1
19:34:59.878140,-114
19:34:59.878140,-28929
19:34:59.878140,-1
19:34:59.878140,-119
19:34:59.878140,-30209
19:34:59.878140,-1
19:34:59.878140,-119
19:34:59.878140,-30977
19:34:59.878140,-1
19:34:59.878140,-122
19:34:59.878140,-30209
19:34:59.878140,-1
19:34:59.878140,-122
19:34:59.878140,-31489
19:34:59.878140,-1
19:34:59.878140,-122
19:34:59.878140,-30977
19:34:59.878140,-1
19:34:59.878140,-122
19:34:59.878140,-30209
19:34:59.878140,-1
19:34:59.878140,-122
19:34:59.878140,-30977
19:34:59.878140,-1
19:34:59.878140,-122
19:34:59.878140,-29697
19:34:59.878140,-1
19:34:59.878140,-105
19:34:59.878140,-24065
19:34:59.878140,-1
19:34:59.878140,-90
19:35:00.507011,-88
19:35:00.507011,-22785
19:35:00.507011,-1
19:35:00.507011,-105
19:35:00.507011,30975
19:35:00.507011,-1
19:35:00.507011,-154
19:35:00.507011,31487
19:35:00.507011,-1
19:35:00.507011,-114
19:35:00.507011,-27905
19:35:00.507011,-1
19:35:00.507011,-114
19:35:00.507011,-30209
19:35:00.507011,-1
19:35:00.507011,-117
19:35:00.507011,-30209
19:35:00.507011,-1
19:35:00.507011,-122
19:35:00.507011,-30977
19:35:00.507011,-1
19:35:00.507011,-107
19:35:00.507011,-3329
19:35:00.507011,-1
19:35:00.507011,190
19:35:00.507011,-3072
19:35:00.507011,0
19:35:00.507011,-283
19:35:00.507011,22015
19:35:00.507011,-5
19:35:00.507011,-1765
19:35:00.507011,8959
19:35:00.507011,-7
19:35:00.507011,-1166
19:35:00.507011,-4097
19:35:00.507011,-2
19:35:00.507011,58
19:35:00.507011,-17408
19:35:00.507011,-1
19:35:00.507011,22
19:35:00.507011,-30720
19:35:00.507011,0
19:35:00.507011,78
19:35:00.507011,14848
19:35:00.507011,0
19:35:00.507011,90
19:35:00.507011,17920
19:35:00.507011,0
19:35:00.507011,51
19:35:00.507011,13056
19:35:00.507011,0
19:35:00.507011,39
19:35:00.507011,6144
19:35:00.507011,0
19:35:00.507011,19
19:35:00.507011,2304
19:35:00.507011,0
19:35:00.507011,-2
19:35:00.507011,-2049
19:35:00.507011,-1
19:35:00.507011,-19
19:35:00.507011,-7169
19:35:00.507011,-1
19:35:00.507011,-44
19:35:00.507011,-14593
19:35:00.507011,-1
19:35:00.507011,-73
19:35:00.507011,-22273
19:35:00.507011,-1
19:35:00.507011,-105
19:35:00.507011,32767
19:35:00.507011,-1
19:35:00.507011,-158
19:35:00.507011,17663
19:35:00.507011,-1
19:35:00.507011,-207
19:35:00.507011,8959
19:35:00.507011,-1
19:35:00.507011,-229
19:35:00.507011,7167
19:35:00.507011,-1
19:35:00.507011,-205
19:35:00.507011,23295
19:35:00.507011,-1
19:35:00.507011,-119
19:35:00.507011,-17153
19:35:00.507011,-1
19:35:00.507011,-34
19:35:00.507011,-4097
19:35:00.507011,-1
19:35:00.507011,-7
19:35:00.507011,255
19:35:00.507011,0
19:35:00.507011,0
19:35:00.507011,-1024
19:35:00.507011,-1
19:35:00.507011,-7
19:35:00.507011,-2817
19:35:00.507011,-1
19:35:00.507011,-19
19:35:00.507011,-6401
19:35:00.507011,-1
19:35:00.507011,-29
19:35:00.507011,-8449
19:35:00.507011,-1
19:35:00.507011,-36
19:35:00.507011,-10241
19:35:00.507011,-1
19:35:00.507011,-44
19:35:01.093328,-46
19:35:01.093328,-12033
19:35:01.093328,-1
19:35:01.093328,-51
19:35:01.093328,-14081
19:35:01.093328,-1
19:35:01.093328,-63
19:35:01.093328,-17665
19:35:01.093328,-1
19:35:01.093328,-73
19:35:01.093328,-18945
19:35:01.093328,-1
19:35:01.093328,-78
19:35:01.093328,-22273
19:35:01.093328,-1
19:35:01.093328,-92
19:35:01.093328,-22785
19:35:01.093328,-1
19:35:01.093328,-83
19:35:01.093328,-20993
19:35:01.093328,-1
19:35:01.093328,-85
19:35:01.093328,-22785
19:35:01.093328,-1
19:35:01.093328,-97
19:35:01.093328,-24577
19:35:01.093328,-1
19:35:01.093328,-92
19:35:01.093328,-24577
19:35:01.093328,-1
19:35:01.093328,-100
19:35:01.093328,-25857
19:35:01.093328,-1
19:35:01.093328,-105
19:35:01.093328,-26625
19:35:01.093328,-1
19:35:01.093328,-105
19:35:01.093328,-27137
19:35:01.093328,-1
19:35:01.093328,-110
19:35:01.093328,-28417
19:35:01.093328,-1
19:35:01.093328,-114
19:35:01.093328,-28929
19:35:01.093328,-1
19:35:01.093328,-114
19:35:01.093328,-29697
19:35:01.093328,-1
19:35:01.093328,-117
19:35:01.093328,-29697
19:35:01.093328,-1
19:35:01.093328,-122
19:35:01.093328,-30977
19:35:01.093328,-1
19:35:01.093328,-117
19:35:01.093328,-30209
19:35:01.093328,-1
19:35:01.093328,-124
19:35:01.093328,-31489
19:35:01.093328,-1
19:35:01.093328,-127
19:35:01.093328,-31489
19:35:01.093328,-1
19:35:01.093328,-124
19:35:01.093328,-32257
19:35:01.093328,-1
19:35:01.093328,-127
19:35:01.093328,-31489
19:35:01.093328,-1
19:35:01.093328,-127
19:35:01.093328,-32257
19:35:01.093328,-1
19:35:01.093328,-129
19:35:01.093328,31999
19:35:01.093328,-1
19:35:01.093328,-129
19:35:01.093328,-31489
19:35:01.093328,-1
19:35:01.093328,-124
19:35:01.093328,32767
19:35:01.093328,-1
19:35:01.093328,-127
19:35:01.093328,-32257
19:35:01.093328,-1
19:35:01.093328,-129
19:35:01.093328,32767
19:35:01.093328,-1
19:35:01.093328,-127
19:35:01.093328,-32257
19:35:01.093328,-1
19:35:01.093328,-132
19:35:01.093328,-32257
19:35:01.093328,-1
19:35:01.093328,-124
19:35:01.093328,32767
19:35:01.093328,-1
19:35:01.093328,-129
19:35:01.093328,-32257
19:35:01.093328,-1
19:35:01.093328,-124
19:35:01.093328,-30977
19:35:01.093328,-1
19:35:01.093328,-119
19:35:01.093328,-27137
19:35:01.093328,-1
19:35:01.093328,-97
19:35:01.093328,-24577
19:35:01.093328,-1
19:35:01.093328,-97
19:35:01.586924,-105
19:35:01.586924,28927
19:35:01.586924,-1
19:35:01.586924,-176
19:35:01.586924,24575
19:35:01.586924,-1
19:35:01.586924,-132
19:35:01.586924,-32257
19:35:01.586924,-1
19:35:01.586924,-136
19:35:01.586924,31487
19:35:01.586924,-1
19:35:01.586924,-134
19:35:01.586924,29695
19:35:01.586924,-1
19:35:01.586924,-139
19:35:01.586924,31999
19:35:01.586924,-1
19:35:01.586924,-122
19:35:01.586924,-13313
19:35:01.586924,-1
19:35:01.586924,141
19:35:01.586924,-1280
19:35:01.586924,0
19:35:01.586924,-168
19:35:01.586924,-2305
19:35:01.586924,-5
19:35:01.586924,-1621
19:35:01.586924,-25857
19:35:01.586924,-7
19:35:01.586924,-1120
19:35:01.586924,-16641
19:35:01.586924,-2
19:35:01.586924,-12
19:35:01.586924,-24577
19:35:01.586924,-1
19:35:01.586924,9
19:35:01.586924,29184
19:35:01.586924,0
19:35:01.586924,63
19:35:01.586924,14336
19:35:01.586924,0
19:35:01.586924,80
19:35:01.586924,15616
19:35:01.586924,0
19:35:01.586924,44
19:35:01.586924,11776
19:35:01.586924,0
19:35:01.586924,36
19:35:01.586924,6144
19:35:01.586924,0
19:35:01.586924,14
19:35:01.586924,1024
19:35:01.586924,0
19:35:01.586924,-4
19:35:01.586924,-4097
19:35:01.586924,-1
19:35:01.586924,-29
19:35:01.586924,-9729
19:35:01.586924,-1
19:35:01.586924,-51
19:35:01.586924,-16641
19:35:01.586924,-1
19:35:01.586924,-80
19:35:01.586924,-23297
19:35:01.586924,-1
19:35:01.586924,-112
19:35:01.586924,30207
19:35:01.586924,-1
19:35:01.586924,-166
19:35:01.586924,16383
19:35:01.586924,-1
19:35:01.586924,-220
19:35:01.586924,4607
19:35:01.586924,-1
19:35:01.586924,-244
19:35:01.586924,5119
19:35:01.586924,-1
19:35:01.586924,-215
19:35:01.586924,22015
19:35:01.586924,-1
19:35:01.586924,-110
19:35:01.586924,-14593
19:35:01.586924,-1
19:35:01.586924,-22
19:35:01.586924,2047
19:35:01.586924,0
19:35:01.586924,22
19:35:01.586924,6144
19:35:01.586924,0
19:35:01.586924,24
19:35:01.586924,5632
19:35:01.586924,0
19:35:01.586924,17
19:35:01.586924,2304
19:35:01.586924,0
19:35:01.586924,4
19:35:01.586924,0
19:35:01.586924,0
19:35:01.586924,-2
19:35:01.586924,255
19:35:01.586924,0
19:35:01.586924,-2
19:35:01.586924,-1537
19:35:01.586924,-1
19:35:01.586924,-9
19:35:01.586924,-3329
19:35:01.586924,-1
19:35:01.586924,-17
19:35:02.172268,-19
19:35:02.172268,-5889
19:35:02.172268,-1
19:35:02.172268,-26
19:35:02.172268,-7681
19:35:02.172268,-1
19:35:02.172268,-36
19:35:02.172268,-10241
19:35:02.172268,-1
19:35:02.172268,-41
19:35:02.172268,-7681
19:35:02.172268,-1
19:35:02.172268,-36
19:35:02.172268,-12033
19:35:02.172268,-1
19:35:02.172268,-53
19:35:02.172268,-13313
19:35:02.172268,-1
19:35:02.172268,-58
19:35:02.172268,-14593
19:35:02.172268,-1
19:35:02.172268,-61
19:35:02.172268,-15873
19:35:02.172268,-1
19:35:02.172268,-66
19:35:02.172268,-17153
19:35:02.172268,-1
19:35:02.172268,-70
19:35:02.172268,-18433
19:35:02.172268,-1
19:35:02.172268,-73
19:35:02.172268,-18945
19:35:02.172268,-1
19:35:02.172268,-78
19:35:02.172268,-19713
19:35:02.172268,-1
19:35:02.172268,-78
19:35:02.172268,-19713
19:35:02.172268,-1
19:35:02.172268,-85
19:35:02.172268,-22273
19:35:02.172268,-1
19:35:02.172268,-85
19:35:02.172268,-22273
19:35:02.172268,-1
19:35:02.172268,-88
19:35:02.172268,-22785
19:35:02.172268,-1
19:35:02.172268,-92
19:35:02.172268,-23297
19:35:02.172268,-1
19:35:02.172268,-92
19:35:02.172268,-24065
19:35:02.172268,-1
19:35:02.172268,-92
19:35:02.172268,-24065
19:35:02.172268,-1
19:35:02.172268,-95
19:35:02.172268,-24577
19:35:02.172268,-1
19:35:02.172268,-100
19:35:02.172268,-25345
19:35:02.172268,-1
19:35:02.172268,-97
19:35:02.172268,-24577
19:35:02.172268,-1
19:35:02.172268,-102
19:35:02.172268,-25857
19:35:02.172268,-1
19:35:02.172268,-100
19:35:02.172268,-25857
19:35:02.172268,-1
19:35:02.172268,-102
19:35:02.172268,-25345
19:35:02.172268,-1
19:35:02.172268,-97
19:35:02.172268,-24065
19:35:02.172268,-1
19:35:02.172268,-95
19:35:02.172268,-24577
19:35:02.172268,-1
19:35:02.172268,-97
19:35:02.172268,-25345
19:35:02.172268,-1
19:35:02.172268,-100
19:35:02.172268,-24065
19:35:02.172268,-1
19:35:02.172268,-85
19:35:02.172268,-17665
19:35:02.172268,-1
19:35:02.172268,-61
19:35:02.172268,-16641
19:35:02.172268,-1
19:35:02.172268,-75
19:35:02.172268,-25857
19:35:02.172268,-1
19:35:02.172268,-141
19:35:02.172268,28927
19:35:02.172268,-1
19:35:02.172268,-117
19:35:02.172268,-26625
19:35:02.172268,-1
19:35:02.172268,-107
19:35:02.172268,-28929
19:35:02.172268,-1
19:35:02.172268,-114
19:35:02.172268,-28417
19:35:02.172268,-1
19:35:02.172268,-112
19:35:02.712010,-117
19:35:02.712010,-28929
19:35:02.712010,-1
19:35:02.712010,-70
19:35:02.712010,24575
19:35:02.712010,0
19:35:02.712010,286
19:35:02.712010,16128
19:35:02.712010,0
19:35:02.712010,-758
19:35:02.712010,-10241
19:35:02.712010,-7
19:35:02.712010,-1878
19:35:02.712010,-18433
19:35:02.712010,-7
19:35:02.712010,-726
19:35:02.712010,10751
19:35:02.712010,0
19:35:02.712010,34
19:35:02.712010,-13056
19:35:02.712010,-1
19:35:02.712010,127
19:35:02.712010,-28672
19:35:02.712010,0
19:35:02.712010,70
19:35:02.712010,24832
19:35:02.712010,0
19:35:02.712010,107
19:35:02.712010,17920
19:35:02.712010,0
19:35:02.712010,63
19:35:02.712010,17408
19:35:02.712010,0
19:35:02.712010,51
19:35:02.712010,9984
19:35:02.712010,0
19:35:02.712010,34
19:35:02.712010,6656
19:35:02.712010,0
19:35:02.712010,19
19:35:02.712010,2304
19:35:02.712010,0
19:35:02.712010,-2
19:35:02.712010,-2817
19:35:02.712010,-1
19:35:02.712010,-24
19:35:02.712010,-8961
19:35:02.712010,-1
19:35:02.712010,-53
19:35:02.712010,-17665
19:35:02.712010,-1
19:35:02.712010,-92
19:35:02.712010,-30977
19:35:02.712010,-1
19:35:02.712010,-149
19:35:02.712010,20735
19:35:02.712010,-1
19:35:02.712010,-198
19:35:02.712010,11519
19:35:02.712010,-1
19:35:02.712010,-212
19:35:02.712010,14591
19:35:02.712010,-1
19:35:02.712010,-168
19:35:02.712010,-30209
19:35:02.712010,-1
19:35:02.712010,-68
19:35:02.712010,-7169
19:35:02.712010,-1
19:35:02.712010,-7
19:35:02.712010,1279
19:35:02.712010,0
19:35:02.712010,14
19:35:02.712010,4864
19:35:02.712010,0
19:35:02.712010,17
19:35:02.712010,3584
19:35:02.712010,0
19:35:02.712010,12
19:35:02.712010,1792
19:35:02.712010,0
19:35:02.712010,2
19:35:02.712010,0
19:35:02.712010,0
19:35:02.712010,-7
19:35:02.712010,-2049
19:35:02.712010,-1
19:35:02.712010,-14
19:35:02.712010,-4097
19:35:02.712010,-1
19:35:02.712010,-19
19:35:02.712010,-5377
19:35:02.712010,-1
19:35:02.712010,-24
19:35:02.712010,-6401
19:35:02.712010,-1
19:35:02.712010,-26
19:35:02.712010,-7681
19:35:02.712010,-1
19:35:02.712010,-41
19:35:02.712010,-11521
19:35:02.712010,-1
19:35:02.712010,-48
19:35:02.712010,-12801
19:35:02.712010,-1
19:35:02.712010,-58
19:35:02.712010,-15361
19:35:02.712010,-1
19:35:02.712010,-66
19:35:03.253478,-70
19:35:03.253478,-18433
19:35:03.253478,-1
19:35:03.253478,-73
19:35:03.253478,-18945
19:35:03.253478,-1
19:35:03.253478,-80
19:35:03.253478,-20993
19:35:03.253478,-1
19:35:03.253478,-83
19:35:03.253478,-19713
19:35:03.253478,-1
19:35:03.253478,-70
19:35:03.253478,-18433
19:35:03.253478,-1
19:35:03.253478,-80
19:35:03.253478,-20993
19:35:03.253478,-1
19:35:03.253478,-83
19:35:03.253478,-20993
19:35:03.253478,-1
19:35:03.253478,-85
19:35:03.253478,-22273
19:35:03.253478,-1
19:35:03.253478,-90
19:35:03.253478,-22785
19:35:03.253478,-1
19:35:03.253478,-90
19:35:03.253478,-23297
19:35:03.253478,-1
19:35:03.253478,-95
19:35:03.253478,-24577
19:35:03.253478,-1
19:35:03.253478,-97
19:35:03.253478,-25857
19:35:03.253478,-1
19:35:03.253478,-105
19:35:03.253478,-25857
19:35:03.253478,-1
19:35:03.253478,-102
19:35:03.253478,-26625
19:35:03.253478,-1
19:35:03.253478,-105
19:35:03.253478,-26625
19:35:03.253478,-1
19:35:03.253478,-107
19:35:03.253478,-27137
19:35:03.253478,-1
19:35:03.253478,-105
19:35:03.253478,-27137
19:35:03.253478,-1
19:35:03.253478,-107
19:35:03.253478,-27905
19:35:03.253478,-1
19:35:03.253478,-112
19:35:03.253478,-27137
19:35:03.253478,-1
19:35:03.253478,-105
19:35:03.253478,-28417
19:35:03.253478,-1
19:35:03.253478,-114
19:35:03.253478,-28417
19:35:03.253478,-1
19:35:03.253478,-110
19:35:03.253478,-28417
19:35:03.253478,-1
19:35:03.253478,-114
19:35:03.253478,-30209
19:35:03.253478,-1
19:35:03.253478,-117
19:35:03.253478,-30209
19:35:03.253478,-1
19:35:03.253478,-119
19:35:03.253478,-29697
19:35:03.253478,-1
19:35:03.253478,-117
19:35:03.253478,-30209
19:35:03.253478,-1
19:35:03.253478,-122
19:35:03.253478,-32257
19:35:03.253478,-1
19:35:03.253478,-122
19:35:03.253478,-28929
19:35:03.253478,-1
19:35:03.253478,-105
19:35:03.253478,-24577
19:35:03.253478,-1
19:35:03.253478,-95
19:35:03.253478,-25345
19:35:03.253478,-1
19:35:03.253478,-112
19:35:03.253478,27135
19:35:03.253478,-1
19:35:03.253478,-180
19:35:03.253478,24063
19:35:03.253478,-1
19:35:03.253478,-139
19:35:03.253478,30975
19:35:03.253478,-1
19:35:03.253478,-141
19:35:03.253478,29695
19:35:03.253478,-1
19:35:03.253478,-144
19:35:03.253478,28415
19:35:03.253478,-1
19:35:03.253478,-144
19:35:03.253478,29695
19:35:03.253478,-1
19:35:03.253478,-124
19:35:03.837185,-24
19:35:03.837185,-19201
19:35:03.837185,0
19:35:03.837185,205
19:35:03.837185,-23296
19:35:03.837185,-2
19:35:03.837185,-1239
19:35:03.837185,8959
19:35:03.837185,-7
19:35:03.837185,-1687
19:35:03.837185,-7169
19:35:03.837185,-5
19:35:03.837185,-222
19:35:03.837185,3327
19:35:03.837185,0
19:35:03.837185,-92
19:35:03.837185,9471
19:35:03.837185,0
19:35:03.837185,124
19:35:03.837185,14336
19:35:03.837185,0
19:35:03.837185,53
19:35:03.837185,21248
19:35:03.837185,0
19:35:03.837185,53
19:35:03.837185,8704
19:35:03.837185,0
19:35:03.837185,39
19:35:03.837185,6656
19:35:03.837185,0
19:35:03.837185,12
19:35:03.837185,1792
19:35:03.837185,0
19:35:03.837185,-2
19:35:03.837185,-4097
19:35:03.837185,-1
19:35:03.837185,-26
19:35:03.837185,-8961
19:35:03.837185,-1
19:35:03.837185,-48
19:35:03.837185,-15361
19:35:03.837185,-1
19:35:03.837185,-73
19:35:03.837185,-21505
19:35:03.837185,-1
19:35:03.837185,-100
19:35:03.837185,-31489
19:35:03.837185,-1
19:35:03.837185,-151
19:35:03.837185,20735
19:35:03.837185,-1
19:35:03.837185,-198
19:35:03.837185,8959
19:35:03.837185,-1
19:35:03.837185,-242
19:35:03.837185,2047
19:35:03.837185,-1
19:35:03.837185,-239
19:35:03.837185,11519
19:35:03.837185,-1
19:35:03.837185,-168
19:35:03.837185,-28929
19:35:03.837185,-1
19:35:03.837185,-66
19:35:03.837185,-7681
19:35:03.837185,-1
19:35:03.837185,-14
19:35:03.837185,255
19:35:03.837185,0
19:35:03.837185,7
19:35:03.837185,1024
19:35:03.837185,0
19:35:03.837185,2
19:35:03.837185,512
19:35:03.837185,0
19:35:03.837185,-2
19:35:03.837185,-2049
19:35:03.837185,-1
19:35:03.837185,-14
19:35:03.837185,-5377
19:35:03.837185,-1
19:35:03.837185,-26
19:35:03.837185,-5889
19:35:03.837185,-1
19:35:03.837185,-22
19:35:03.837185,-7681
19:35:03.837185,-1
19:35:03.837185,-36
19:35:03.837185,-8449
19:35:03.837185,-1
19:35:03.837185,-39
19:35:03.837185,-11009
19:35:03.837185,-1
19:35:03.837185,-48
19:35:03.837185,-13313
19:35:03.837185,-1
19:35:03.837185,-58
19:35:03.837185,-16641
19:35:03.837185,-1
19:35:03.837185,-70
19:35:03.837185,-18433
19:35:03.837185,-1
19:35:03.837185,-73
19:35:03.837185,-18433
19:35:03.837185,-1
19:35:03.837185,-75
19:35:03.837185,-18945
19:35:03.837185,-1
19:35:03.837185,-78
19:35:04.421753,-83
19:35:04.421753,-20225
19:35:04.421753,-1
19:35:04.421753,-80
19:35:04.421753,-20993
19:35:04.421753,-1
19:35:04.421753,-83
19:35:04.421753,-21505
19:35:04.421753,-1
19:35:04.421753,-90
19:35:04.421753,-21505
19:35:04.421753,-1
19:35:04.421753,-75
19:35:04.421753,-18433
19:35:04.421753,-1
19:35:04.421753,-80
19:35:04.421753,-21505
19:35:04.421753,-1
19:35:04.421753,-83
19:35:04.421753,-21505
19:35:04.421753,-1
19:35:04.421753,-90
19:35:04.421753,-22273
19:35:04.421753,-1
19:35:04.421753,-85
19:35:04.421753,-22273
19:35:04.421753,-1
19:35:04.421753,-92
19:35:04.421753,-23297
19:35:04.421753,-1
19:35:04.421753,-90
19:35:04.421753,-22785
19:35:04.421753,-1
19:35:04.421753,-88
19:35:04.421753,-22273
19:35:04.421753,-1
19:35:04.421753,-92
19:35:04.421753,-23297
19:35:04.421753,-1
19:35:04.421753,-92
19:35:04.421753,-23297
19:35:04.421753,-1
19:35:04.421753,-95
19:35:04.421753,-24577
19:35:04.421753,-1
19:35:04.421753,-95
19:35:04.421753,-23297
19:35:04.421753,-1
19:35:04.421753,-92
19:35:04.421753,-24065
19:35:04.421753,-1
19:35:04.421753,-95
19:35:04.421753,-22785
19:35:04.421753,-1
19:35:04.421753,-83
19:35:04.421753,-17665
19:35:04.421753,-1
19:35:04.421753,-66
19:35:04.421753,-17153
19:35:04.421753,-1
19:35:04.421753,-70
19:35:04.421753,-22273
19:35:04.421753,-1
19:35:04.421753,-132
19:35:04.421753,28927
19:35:04.421753,-1
19:35:04.421753,-119
19:35:04.421753,-26625
19:35:04.421753,-1
19:35:04.421753,-105
19:35:04.421753,-27137
19:35:04.421753,-1
19:35:04.421753,-107
19:35:04.421753,-27905
19:35:04.421753,-1
19:35:04.421753,-110
19:35:04.421753,-27905
19:35:04.421753,-1
19:35:04.421753,-110
19:35:04.421753,-20993
19:35:04.421753,-1
19:35:04.421753,44
19:35:04.421753,-2560
19:35:04.421753,0
19:35:04.421753,173
19:35:04.421753,1536
19:35:04.421753,-2
19:35:04.421753,-1357
19:35:04.421753,15359
19:35:04.421753,-7
19:35:04.421753,-1565
19:35:04.421753,-18433
19:35:04.421753,-4
19:35:04.421753,-78
19:35:04.421753,767
19:35:04.421753,0
19:35:04.421753,-78
19:35:04.421753,23295
19:35:04.421753,0
19:35:04.421753,129
19:35:04.421753,16128
19:35:04.421753,0
19:35:04.421753,85
19:35:04.421753,25600
19:35:04.421753,0
19:35:04.421753,68
19:35:04.421753,14336
19:35:04.421753,0
19:35:04.421753,58
19:35:04.962218,48
19:35:04.962218,9216
19:35:04.962218,0
19:35:04.962218,29
19:35:04.962218,5632
19:35:04.962218,0
19:35:04.962218,12
19:35:04.962218,512
19:35:04.962218,0
19:35:04.962218,-7
19:35:04.962218,-4609
19:35:04.962218,-1
19:35:04.962218,-36
19:35:04.962218,-14081
19:35:04.962218,-1
19:35:04.962218,-63
19:35:04.962218,-17665
19:35:04.962218,-1
19:35:04.962218,-90
19:35:04.962218,-30209
19:35:04.962218,-1
19:35:04.962218,-149
19:35:04.962218,20735
19:35:04.962218,-1
19:35:04.962218,-198
19:35:04.962218,12031
19:35:04.962218,-1
19:35:04.962218,-212
19:35:04.962218,14079
19:35:04.962218,-1
19:35:04.962218,-168
19:35:04.962218,-28417
19:35:04.962218,-1
19:35:04.962218,-51
19:35:04.962218,-2817
19:35:04.962218,-1
19:35:04.962218,9
19:35:04.962218,6144
19:35:04.962218,0
19:35:04.962218,34
19:35:04.962218,8704
19:35:04.962218,0
19:35:04.962218,29
19:35:04.962218,6144
19:35:04.962218,0
19:35:04.962218,22
19:35:04.962218,4352
19:35:04.962218,0
19:35:04.962218,7
19:35:04.962218,1024
19:35:04.962218,0
19:35:04.962218,4
19:35:04.962218,1024
19:35:04.962218,0
19:35:04.962218,2
19:35:04.962218,0
19:35:04.962218,0
19:35:04.962218,0
19:35:04.962218,-1024
19:35:04.962218,-1
19:35:04.962218,-12
19:35:04.962218,-4097
19:35:04.962218,-1
19:35:04.962218,-17
19:35:04.962218,-5377
19:35:04.962218,-1
19:35:04.962218,-31
19:35:04.962218,-8961
19:35:04.962218,-1
19:35:04.962218,-36
19:35:04.962218,-10241
19:35:04.962218,-1
19:35:04.962218,-46
19:35:04.962218,-12033
19:35:04.962218,-1
19:35:04.962218,-53
19:35:04.962218,-14593
19:35:04.962218,-1
19:35:04.962218,-66
19:35:04.962218,-16641
19:35:04.962218,-1
19:35:04.962218,-63
19:35:04.962218,-16641
19:35:04.962218,-1
19:35:04.962218,-68
19:35:04.962218,-18433
19:35:04.962218,-1
19:35:04.962218,-75
19:35:04.962218,-19713
19:35:04.962218,-1
19:35:04.962218,-83
19:35:04.962218,-22273
19:35:04.962218,-1
19:35:04.962218,-90
19:35:04.962218,-21505
19:35:04.962218,-1
19:35:04.962218,-83
19:35:04.962218,-20993
19:35:04.962218,-1
19:35:04.962218,-83
19:35:04.962218,-20993
19:35:04.962218,-1
19:35:04.962218,-85
19:35:04.962218,-22273
19:35:04.962218,-1
19:35:04.962218,-88
19:35:04.962218,-21505
19:35:04.962218,-1
19:35:04.962218,-88
19:35:05.502358,-90
19:35:05.502358,-23297
19:35:05.502358,-1
19:35:05.502358,-92
19:35:05.502358,-22785
19:35:05.502358,-1
19:35:05.502358,-92
19:35:05.502358,-24065
19:35:05.502358,-1
19:35:05.502358,-88
19:35:05.502358,-21505
19:35:05.502358,-1
19:35:05.502358,-85
19:35:05.502358,-19713
19:35:05.502358,-1
19:35:05.502358,-78
19:35:05.502358,-21505
19:35:05.502358,-1
19:35:05.502358,-83
19:35:05.502358,-20993
19:35:05.502358,-1
19:35:05.502358,-83
19:35:05.502358,-20993
19:35:05.502358,-1
19:35:05.502358,-88
19:35:05.502358,-22785
19:35:05.502358,-1
19:35:05.502358,-90
19:35:05.502358,-22273
19:35:05.502358,-1
19:35:05.502358,-88
19:35:05.502358,-23297
19:35:05.502358,-1
19:35:05.502358,-92
19:35:05.502358,-23297
19:35:05.502358,-1
19:35:05.502358,-92
19:35:05.502358,-23297
19:35:05.502358,-1
19:35:05.502358,-92
19:35:05.502358,-24065
19:35:05.502358,-1
19:35:05.502358,-97
19:35:05.502358,-23297
19:35:05.502358,-1
19:35:05.502358,-85
19:35:05.502358,-18945
19:35:05.502358,-1
19:35:05.502358,-66
19:35:05.502358,-16641
19:35:05.502358,-1
19:35:05.502358,-68
19:35:05.502358,-20225
19:35:05.502358,-1
19:35:05.502358,-119
19:35:05.502358,28415
19:35:05.502358,-1
19:35:05.502358,-127
19:35:05.502358,-27137
19:35:05.502358,-1
19:35:05.502358,-110
19:35:05.502358,-28417
19:35:05.502358,-1
19:35:05.502358,-112
19:35:05.502358,-28417
19:35:05.502358,-1
19:35:05.502358,-114
19:35:05.502358,-28929
19:35:05.502358,-1
19:35:05.502358,-112
19:35:05.502358,-24065
19:35:05.502358,-1
19:35:05.502358,14
19:35:05.502358,-6144
19:35:05.502358,0
19:35:05.502358,256
19:35:05.502358,-13824
19:35:05.502358,-2
19:35:05.502358,-1225
19:35:05.502358,-2305
19:35:05.502358,-8
19:35:05.502358,-1836
19:35:05.502358,14335
19:35:05.502358,-5
19:35:05.502358,-251
19:35:05.502358,25855
19:35:05.502358,0
19:35:05.502358,-53
19:35:05.502358,9471
19:35:05.502358,0
19:35:05.502358,163
19:35:05.502358,24832
19:35:05.502358,0
19:35:05.502358,75
19:35:05.502358,28160
19:35:05.502358,0
19:35:05.502358,88
19:35:05.502358,16128
19:35:05.502358,0
19:35:05.502358,68
19:35:05.502358,14848
19:35:05.502358,0
19:35:05.502358,39
19:35:05.502358,8704
19:35:05.502358,0
19:35:05.502358,29
19:35:05.502358,5632
19:35:05.502358,0
19:35:05.502358,14
19:35:06.087336,2
19:35:06.087336,-1792
19:35:06.087336,-1
19:35:06.087336,-19
19:35:06.087336,-7681
19:35:06.087336,-1
19:35:06.087336,-41
19:35:06.087336,-12801
19:35:06.087336,-1
19:35:06.087336,-66
19:35:06.087336,-22273
19:35:06.087336,-1
19:35:06.087336,-117
19:35:06.087336,28415
19:35:06.087336,-1
19:35:06.087336,-168
19:35:06.087336,17663
19:35:06.087336,-1
19:35:06.087336,-198
19:35:06.087336,15103
19:35:06.087336,-1
19:35:06.087336,-178
19:35:06.087336,29695
19:35:06.087336,-1
19:35:06.087336,-92
19:35:06.087336,-11521
19:35:06.087336,-1
19:35:06.087336,-17
19:35:06.087336,255
19:35:06.087336,0
19:35:06.087336,12
19:35:06.087336,4864
19:35:06.087336,0
19:35:06.087336,19
19:35:06.087336,3584
19:35:06.087336,0
19:35:06.087336,12
19:35:06.087336,1792
19:35:06.087336,0
19:35:06.087336,0
19:35:06.087336,-1792
19:35:06.087336,-1
19:35:06.087336,-12
19:35:06.087336,-3329
19:35:06.087336,-1
19:35:06.087336,-17
19:35:06.087336,-5889
19:35:06.087336,-1
19:35:06.087336,-26
19:35:06.087336,-6401
19:35:06.087336,-1
19:35:06.087336,-26
19:35:06.087336,-7169
19:35:06.087336,-1
19:35:06.087336,-36
19:35:06.087336,-9729
19:35:06.087336,-1
19:35:06.087336,-41
19:35:06.087336,-11521
19:35:06.087336,-1
19:35:06.087336,-51
19:35:06.087336,-13313
19:35:06.087336,-1
19:35:06.087336,-58
19:35:06.087336,-15873
19:35:06.087336,-1
19:35:06.087336,-66
19:35:06.087336,-16641
19:35:06.087336,-1
19:35:06.087336,-70
19:35:06.087336,-17665
19:35:06.087336,-1
19:35:06.087336,-73
19:35:06.087336,-20225
19:35:06.087336,-1
19:35:06.087336,-83
19:35:06.087336,-20993
19:35:06.087336,-1
19:35:06.087336,-85
19:35:06.087336,-21505
19:35:06.087336,-1
19:35:06.087336,-88
19:35:06.087336,-23297
19:35:06.087336,-1
19:35:06.087336,-92
19:35:06.087336,-23297
19:35:06.087336,-1
19:35:06.087336,-97
19:35:06.087336,-24577
19:35:06.087336,-1
19:35:06.087336,-100
19:35:06.087336,-25857
19:35:06.087336,-1
19:35:06.087336,-105
19:35:06.087336,-27137
19:35:06.087336,-1
19:35:06.087336,-105
19:35:06.087336,-25857
19:35:06.087336,-1
19:35:06.087336,-105
19:35:06.087336,-27905
19:35:06.087336,-1
19:35:06.087336,-107
19:35:06.087336,-27137
19:35:06.087336,-1
19:35:06.087336,-112
19:35:06.087336,-27905
19:35:06.087336,-1
19:35:06.087336,-110
19:35:06.627452,-114
19:35:06.627452,-29697
19:35:06.627452,-1
19:35:06.627452,-114
19:35:06.627452,-28929
19:35:06.627452,-1
19:35:06.627452,-117
19:35:06.627452,-29697
19:35:06.627452,-1
19:35:06.627452,-119
19:35:06.627452,-29697
19:35:06.627452,-1
19:35:06.627452,-112
19:35:06.627452,-27137
19:35:06.627452,-1
19:35:06.627452,-105
19:35:06.627452,-27137
19:35:06.627452,-1
19:35:06.627452,-112
19:35:06.627452,-28417
19:35:06.627452,-1
19:35:06.627452,-112
19:35:06.627452,-28417
19:35:06.627452,-1
19:35:06.627452,-112
19:35:06.627452,-27905
19:35:06.627452,-1
19:35:06.627452,-114
19:35:06.627452,-29697
19:35:06.627452,-1
19:35:06.627452,-117
19:35:06.627452,-29697
19:35:06.627452,-1
19:35:06.627452,-119
19:35:06.627452,-31489
19:35:06.627452,-1
19:35:06.627452,-124
19:35:06.627452,-30977
19:35:06.627452,-1
19:35:06.627452,-122
19:35:06.627452,-29697
19:35:06.627452,-1
19:35:06.627452,-117
19:35:06.627452,-30977
19:35:06.627452,-1
19:35:06.627452,-122
19:35:06.627452,-30977
19:35:06.627452,-1
19:35:06.627452,-117
19:35:06.627452,-27137
19:35:06.627452,-1
19:35:06.627452,-92
19:35:06.627452,-22273
19:35:06.627452,-1
19:35:06.627452,-90
19:35:06.627452,-24065
19:35:06.627452,-1
19:35:06.627452,-122
19:35:06.627452,24575
19:35:06.627452,-1
19:35:06.627452,-166
19:35:06.627452,30207
19:35:06.627452,-1
19:35:06.627452,-129
19:35:06.627452,31999
19:35:06.627452,-1
19:35:06.627452,-132
19:35:06.627452,31487
19:35:06.627452,-1
19:35:06.627452,-136
19:35:06.627452,31487
19:35:06.627452,-1
19:35:06.627452,-136
19:35:06.627452,32767
19:35:06.627452,-1
19:35:06.627452,-68
19:35:06.627452,28927
19:35:06.627452,0
19:35:06.627452,269
19:35:06.627452,-6656
19:35:06.627452,-1
19:35:06.627452,-855
19:35:06.627452,-12033
19:35:06.627452,-7
19:35:06.627452,-1785
19:35:06.627452,30463
19:35:06.627452,-6
19:35:06.627452,-557
19:35:06.627452,767
19:35:06.627452,0
19:35:06.627452,-66
19:35:06.627452,-12801
19:35:06.627452,-1
19:35:06.627452,110
19:35:06.627452,22528
19:35:06.627452,0
19:35:06.627452,41
19:35:06.627452,19200
19:35:06.627452,0
19:35:06.627452,70
19:35:06.627452,9984
19:35:06.627452,0
19:35:06.627452,41
19:35:06.627452,10496
19:35:06.627452,0
19:35:06.627452,19
19:35:06.627452,1792
19:35:06.627452,0
19:35:06.627452,4
19:35:07.257653,-4
19:35:07.257653,-4097
19:35:07.257653,-1
19:35:07.257653,-26
19:35:07.257653,-8961
19:35:07.257653,-1
19:35:07.257653,-48
19:35:07.257653,-15873
19:35:07.257653,-1
19:35:07.257653,-68
19:35:07.257653,-18945
19:35:07.257653,-1
19:35:07.257653,-97
19:35:07.257653,-32257
19:35:07.257653,-1
19:35:07.257653,-154
19:35:07.257653,19711
19:35:07.257653,-1
19:35:07.257653,-202
19:35:07.257653,8447
19:35:07.257653,-1
19:35:07.257653,-237
19:35:07.257653,5119
19:35:07.257653,-1
19:35:07.257653,-222
19:35:07.257653,18431
19:35:07.257653,-1
19:35:07.257653,-132
19:35:07.257653,-20225
19:35:07.257653,-1
19:35:07.257653,-39
19:35:07.257653,-1537
19:35:07.257653,-1
19:35:07.257653,9
19:35:07.257653,4352
19:35:07.257653,0
19:35:07.257653,17
19:35:07.257653,3072
19:35:07.257653,0
19:35:07.257653,7
19:35:07.257653,1792
19:35:07.257653,0
19:35:07.257653,0
19:35:07.257653,-1024
19:35:07.257653,-1
19:35:07.257653,-7
19:35:07.257653,-2817
19:35:07.257653,-1
19:35:07.257653,-12
19:35:07.257653,-2049
19:35:07.257653,-1
19:35:07.257653,-9
19:35:07.257653,-2817
19:35:07.257653,-1
19:35:07.257653,-14
19:35:07.257653,-4097
19:35:07.257653,-1
19:35:07.257653,-22
19:35:07.257653,-5889
19:35:07.257653,-1
19:35:07.257653,-29
19:35:07.257653,-8449
19:35:07.257653,-1
19:35:07.257653,-39
19:35:07.257653,-11009
19:35:07.257653,-1
19:35:07.257653,-51
19:35:07.257653,-12801
19:35:07.257653,-1
19:35:07.257653,-53
19:35:07.257653,-14593
19:35:07.257653,-1
19:35:07.257653,-61
19:35:07.257653,-15873
19:35:07.257653,-1
19:35:07.257653,-66
19:35:07.257653,-17153
19:35:07.257653,-1
19:35:07.257653,-68
19:35:07.257653,-17153
19:35:07.257653,-1
19:35:07.257653,-73
19:35:07.257653,-18945
19:35:07.257653,-1
19:35:07.257653,-75
19:35:07.257653,-18945
19:35:07.257653,-1
19:35:07.257653,-78
19:35:07.257653,-19713
19:35:07.257653,-1
19:35:07.257653,-80
19:35:07.257653,-21505
19:35:07.257653,-1
19:35:07.257653,-88
19:35:07.257653,-21505
19:35:07.257653,-1
19:35:07.257653,-88
19:35:07.257653,-22785
19:35:07.257653,-1
19:35:07.257653,-88
19:35:07.257653,-22273
19:35:07.257653,-1
19:35:07.257653,-92
19:35:07.257653,-22785
19:35:07.257653,-1
19:35:07.257653,-90
19:35:07.257653,-23297
19:35:07.257653,-1
19:35:07.257653,-92
19:35:07.797186,-95
19:35:07.797186,-24065
19:35:07.797186,-1
19:35:07.797186,-95
19:35:07.797186,-24065
19:35:07.797186,-1
19:35:07.797186,-95
19:35:07.797186,-24065
19:35:07.797186,-1
19:35:07.797186,-97
19:35:07.797186,-24577
19:35:07.797186,-1
19:35:07.797186,-95
19:35:07.797186,-23297
19:35:07.797186,-1
19:35:07.797186,-95
19:35:07.797186,-24577
19:35:07.797186,-1
19:35:07.797186,-97
19:35:07.797186,-24065
19:35:07.797186,-1
19:35:07.797186,-92
19:35:07.797186,-22273
19:35:07.797186,-1
19:35:07.797186,-78
19:35:07.797186,-18945
19:35:07.797186,-1
19:35:07.797186,-73
19:35:07.797186,-15361
19:35:07.797186,-1
19:35:07.797186,-53
19:35:07.797186,-14081
19:35:07.797186,-1
19:35:07.797186,-61
19:35:07.797186,-20225
19:35:07.797186,-1
19:35:07.797186,-122
19:35:07.797186,31487
19:35:07.797186,-1
19:35:07.797186,-110
19:35:07.797186,-24065
19:35:07.797186,-1
19:35:07.797186,-100
19:35:07.797186,-25857
19:35:07.797186,-1
19:35:07.797186,-102
19:35:07.797186,-27137
19:35:07.797186,-1
19:35:07.797186,-110
19:35:07.797186,-27137
19:35:07.797186,-1
19:35:07.797186,-107
19:35:07.797186,-21505
19:35:07.797186,-1
19:35:07.797186,34
19:35:07.797186,-1792
19:35:07.797186,0
19:35:07.797186,198
19:35:07.797186,11008
19:35:07.797186,-2
19:35:07.797186,-1359
19:35:07.797186,-7169
19:35:07.797186,-8
19:35:07.797186,-1716
19:35:07.797186,13311
19:35:07.797186,-4
19:35:07.797186,-88
19:35:07.797186,17663
19:35:07.797186,0
19:35:07.797186,-63
19:35:07.797186,23295
19:35:07.797186,0
19:35:07.797186,158
19:35:07.797186,20480
19:35:07.797186,0
19:35:07.797186,90
19:35:07.797186,29952
19:35:07.797186,0
19:35:07.797186,83
19:35:07.797186,17920
19:35:07.797186,0
19:35:07.797186,73
19:35:07.797186,14336
19:35:07.797186,0
19:35:07.797186,46
19:35:07.797186,9984
19:35:07.797186,0
19:35:07.797186,29
19:35:07.797186,4352
19:35:07.797186,0
19:35:07.797186,9
19:35:07.797186,512
19:35:07.797186,0
19:35:07.797186,-9
19:35:07.797186,-5377
19:35:07.797186,-1
19:35:07.797186,-34
19:35:07.797186,-12033
19:35:07.797186,-1
19:35:07.797186,-68
19:35:07.797186,-23297
19:35:07.797186,-1
19:35:07.797186,-117
19:35:07.797186,27647
19:35:07.797186,-1
19:35:07.797186,-180
19:35:07.797186,13311
19:35:07.797186,-1
19:35:07.797186,-222
19:35:08.337291,-229
19:35:08.337291,10239
19:35:08.337291,-1
19:35:08.337291,-190
19:35:08.337291,29695
19:35:08.337291,-1
19:35:08.337291,-88
19:35:08.337291,-11521
19:35:08.337291,-1
19:35:08.337291,-19
19:35:08.337291,255
19:35:08.337291,0
19:35:08.337291,12
19:35:08.337291,2304
19:35:08.337291,0
19:35:08.337291,4
19:35:08.337291,512
19:35:08.337291,0
19:35:08.337291,7
19:35:08.337291,3072
19:35:08.337291,0
19:35:08.337291,4
19:35:08.337291,-1024
19:35:08.337291,-1
19:35:08.337291,-7
19:35:08.337291,-2049
19:35:08.337291,-1
19:35:08.337291,-12
19:35:08.337291,-2817
19:35:08.337291,-1
19:35:08.337291,-14
19:35:08.337291,-4097
19:35:08.337291,-1
19:35:08.337291,-19
19:35:08.337291,-5889
19:35:08.337291,-1
19:35:08.337291,-26
19:35:08.337291,-7681
19:35:08.337291,-1
19:35:08.337291,-36
19:35:08.337291,-10241
19:35:08.337291,-1
19:35:08.337291,-44
19:35:08.337291,-12033
19:35:08.337291,-1
19:35:08.337291,-56
19:35:08.337291,-14081
19:35:08.337291,-1
19:35:08.337291,-56
19:35:08.337291,-14593
19:35:08.337291,-1
19:35:08.337291,-61
19:35:08.337291,-15361
19:35:08.337291,-1
19:35:08.337291,-61
19:35:08.337291,-16641
19:35:08.337291,-1
19:35:08.337291,-70
19:35:08.337291,-18433
19:35:08.337291,-1
19:35:08.337291,-73
19:35:08.337291,-18945
19:35:08.337291,-1
19:35:08.337291,-78
19:35:08.337291,-19713
19:35:08.337291,-1
19:35:08.337291,-80
19:35:08.337291,-20993
19:35:08.337291,-1
19:35:08.337291,-88
19:35:08.337291,-21505
19:35:08.337291,-1
19:35:08.337291,-85
19:35:08.337291,-22273
19:35:08.337291,-1
19:35:08.337291,-90
19:35:08.337291,-22785
19:35:08.337291,-1
19:35:08.337291,-90
19:35:08.337291,-23297
19:35:08.337291,-1
19:35:08.337291,-92
19:35:08.337291,-24065
19:35:08.337291,-1
19:35:08.337291,-97
19:35:08.337291,-25345
19:35:08.337291,-1
19:35:08.337291,-97
19:35:08.337291,-24577
19:35:08.337291,-1
19:35:08.337291,-100
19:35:08.337291,-25345
19:35:08.337291,-1
19:35:08.337291,-100
19:35:08.337291,-25345
19:35:08.337291,-1
19:35:08.337291,-100
19:35:08.337291,-24065
19:35:08.337291,-1
19:35:08.337291,-95
19:35:08.337291,-25345
19:35:08.337291,-1
19:35:08.337291,-102
19:35:08.337291,-25345
19:35:08.337291,-1
19:35:08.337291,-100
19:35:08.337291,-25345
19:35:08.337291,-1
19:35:08.337291,-102
19:35:08.919996,-102
19:35:08.919996,-26625
19:35:08.919996,-1
19:35:08.919996,-105
19:35:08.919996,-26625
19:35:08.919996,-1
19:35:08.919996,-105
19:35:08.919996,-26625
19:35:08.919996,-1
19:35:08.919996,-102
19:35:08.919996,-26625
19:35:08.919996,-1
19:35:08.919996,-107
19:35:08.919996,-25857
19:35:08.919996,-1
19:35:08.919996,-92
19:35:08.919996,-22785
19:35:08.919996,-1
19:35:08.919996,-92
19:35:08.919996,-24065
19:35:08.919996,-1
19:35:08.919996,-95
19:35:08.919996,-24065
19:35:08.919996,-1
19:35:08.919996,-97
19:35:08.919996,-24577
19:35:08.919996,-1
19:35:08.919996,-97
19:35:08.919996,-24577
19:35:08.919996,-1
19:35:08.919996,-100
19:35:08.919996,-24577
19:35:08.919996,-1
19:35:08.919996,-90
19:35:08.919996,-20225
19:35:08.919996,-1
19:35:08.919996,-68
19:35:08.919996,-15873
19:35:08.919996,-1
19:35:08.919996,-66
19:35:08.919996,-18945
19:35:08.919996,-1
19:35:08.919996,-107
19:35:08.919996,29695
19:35:08.919996,-1
19:35:08.919996,-134
19:35:08.919996,-27905
19:35:08.919996,-1
19:35:08.919996,-105
19:35:08.919996,-27137
19:35:08.919996,-1
19:35:08.919996,-110
19:35:08.919996,-28417
19:35:08.919996,-1
19:35:08.919996,-112
19:35:08.919996,-27905
19:35:08.919996,-1
19:35:08.919996,-112
19:35:08.919996,-27137
19:35:08.919996,-1
19:35:08.919996,-41
19:35:08.919996,-27137
19:35:08.919996,0
19:35:08.919996,298
19:35:08.919996,-11776
19:35:08.919996,-1
19:35:08.919996,-919
19:35:08.919996,-31489
19:35:08.919996,-7
19:35:08.919996,-1868
19:35:08.919996,12287
19:35:08.919996,-6
19:35:08.919996,-560
19:35:08.919996,18943
19:35:08.919996,0
19:35:08.919996,-7
19:35:08.919996,-7169
19:35:08.919996,-1
19:35:08.919996,139
19:35:08.919996,31232
19:35:08.919996,0
19:35:08.919996,63
19:35:08.919996,26880
19:35:08.919996,0
19:35:08.919996,105
19:35:08.919996,17408
19:35:08.919996,0
19:35:08.919996,68
19:35:08.919996,17408
19:35:08.919996,0
19:35:08.919996,48
19:35:08.919996,9984
19:35:08.919996,0
19:35:08.919996,36
19:35:08.919996,7424
19:35:08.919996,0
19:35:08.919996,17
19:35:08.919996,1024
19:35:08.919996,0
19:35:08.919996,-4
19:35:08.919996,-4097
19:35:08.919996,-1
19:35:08.919996,-29
19:35:08.919996,-9729
19:35:08.919996,-1
19:35:08.919996,-56
19:35:08.919996,-18945
19:35:08.919996,-1
19:35:08.919996,-97
19:35:09.416950,-124
19:35:09.416950,27135
19:35:09.416950,-1
19:35:09.416950,-180
19:35:09.416950,14079
19:35:09.416950,-1
19:35:09.416950,-217
19:35:09.416950,9471
19:35:09.416950,-1
19:35:09.416950,-205
19:35:09.416950,20735
19:35:09.416950,-1
19:35:09.416950,-127
19:35:09.416950,-18945
19:35:09.416950,-1
19:35:09.416950,-39
19:35:09.416950,-2817
19:35:09.416950,-1
19:35:09.416950,7
19:35:09.416950,6144
19:35:09.416950,0
19:35:09.416950,34
19:35:09.416950,7424
19:35:09.416950,0
19:35:09.416950,24
19:35:09.416950,4864
19:35:09.416950,0
19:35:09.416950,12
19:35:09.416950,1792
19:35:09.416950,0
19:35:09.416950,4
19:35:09.416950,512
19:35:09.416950,0
19:35:09.416950,-2
19:35:09.416950,-2049
19:35:09.416950,-1
19:35:09.416950,-12
19:35:09.416950,-3329
19:35:09.416950,-1
19:35:09.416950,-19
19:35:09.416950,-5889
19:35:09.416950,-1
19:35:09.416950,-31
19:35:09.416950,-8961
19:35:09.416950,-1
19:35:09.416950,-39
19:35:09.416950,-10241
19:35:09.416950,-1
19:35:09.416950,-44
19:35:09.416950,-13313
19:35:09.416950,-1
19:35:09.416950,-56
19:35:09.416950,-14081
19:35:09.416950,-1
19:35:09.416950,-58
19:35:09.416950,-16641
19:35:09.416950,-1
19:35:09.416950,-73
19:35:09.416950,-19713
19:35:09.416950,-1
19:35:09.416950,-80
19:35:09.416950,-20993
19:35:09.416950,-1
19:35:09.416950,-80
19:35:09.416950,-21505
19:35:09.416950,-1
19:35:09.416950,-90
19:35:09.416950,-22785
19:35:09.416950,-1
19:35:09.416950,-90
19:35:09.416950,-23297
19:35:09.416950,-1
19:35:09.416950,-92
19:35:09.416950,-24065
19:35:09.416950,-1
19:35:09.416950,-97
19:35:09.416950,-24577
19:35:09.416950,-1
19:35:09.416950,-100
19:35:09.416950,-24577
19:35:09.416950,-1
19:35:09.416950,-100
19:35:09.416950,-25857
19:35:09.416950,-1
19:35:09.416950,-105
19:35:09.416950,-25857
19:35:09.416950,-1
19:35:09.416950,-102
19:35:09.416950,-26625
19:35:09.416950,-1
19:35:09.416950,-105
19:35:09.416950,-26625
19:35:09.416950,-1
19:35:09.416950,-107
19:35:09.416950,-27905
19:35:09.416950,-1
19:35:09.416950,-110
19:35:09.416950,-28417
19:35:09.416950,-1
19:35:09.416950,-110
19:35:09.416950,-27905
19:35:09.416950,-1
19:35:09.416950,-110
19:35:09.416950,-28417
19:35:09.416950,-1
19:35:09.416950,-114
19:35:09.416950,-27905
19:35:09.416950,-1
19:35:09.416950,-114
19:35:10.002622,-117
19:35:10.002622,-28417
19:35:10.002622,-1
19:35:10.002622,-112
19:35:10.002622,-29697
19:35:10.002622,-1
19:35:10.002622,-110
19:35:10.002622,-23297
19:35:10.002622,-1
19:35:10.002622,-92
19:35:10.002622,-25857
19:35:10.002622,-1
19:35:10.002622,-105
19:35:10.002622,-25345
19:35:10.002622,-1
19:35:10.002622,-100
19:35:10.002622,-26625
19:35:10.002622,-1
19:35:10.002622,-107
19:35:10.002622,-26625
19:35:10.002622,-1
19:35:10.002622,-97
19:35:10.002622,-25345
19:35:10.002622,-1
19:35:10.002622,-105
19:35:10.002622,-25857
19:35:10.002622,-1
19:35:10.002622,-102
19:35:10.002622,-26625
19:35:10.002622,-1
19:35:10.002622,-107
19:35:10.002622,-27137
19:35:10.002622,-1
19:35:10.002622,-107
19:35:10.002622,-25857
19:35:10.002622,-1
19:35:10.002622,-95
19:35:10.002622,-22273
19:35:10.002622,-1
19:35:10.002622,-83
19:35:10.002622,-20225
19:35:10.002622,-1
19:35:10.002622,-78
19:35:10.002622,-22273
19:35:10.002622,-1
19:35:10.002622,-129
19:35:10.002622,25343
19:35:10.002622,-1
19:35:10.002622,-139
19:35:10.002622,-28929
19:35:10.002622,-1
19:35:10.002622,-112
19:35:10.002622,-29697
19:35:10.002622,-1
19:35:10.002622,-122
19:35:10.002622,-30209
19:35:10.002622,-1
19:35:10.002622,-117
19:35:10.002622,-29697
19:35:10.002622,-1
19:35:10.002622,-117
19:35:10.002622,-26625
19:35:10.002622,-1
19:35:10.002622,-2
19:35:10.002622,-11521
19:35:10.002622,0
19:35:10.002622,244
