timestamp,ecg,reconstructed_time
2025-11-07 14:57:40.738280,26,2025-11-07 14:57:40.738280000
2025-11-07 14:57:40.738280,8448,2025-11-07 14:57:40.745972308
2025-11-07 14:57:40.738280,0,2025-11-07 14:57:40.753664615
2025-11-07 14:57:40.738280,36,2025-11-07 14:57:40.761356923
2025-11-07 14:57:40.738280,1792,2025-11-07 14:57:40.769049231
2025-11-07 14:57:40.738280,0,2025-11-07 14:57:40.776741538
2025-11-07 14:57:40.738280,-9,2025-11-07 14:57:40.784433846
2025-11-07 14:57:40.738280,-257,2025-11-07 14:57:40.792126154
2025-11-07 14:57:40.738280,-1,2025-11-07 14:57:40.799818462
2025-11-07 14:57:40.738280,14,2025-11-07 14:57:40.807510769
2025-11-07 14:57:40.738280,6144,2025-11-07 14:57:40.815203077
2025-11-07 14:57:40.738280,0,2025-11-07 14:57:40.822895385
2025-11-07 14:57:40.738280,7,2025-11-07 14:57:40.830587692
2025-11-07 14:57:40.738280,1792,2025-11-07 14:57:40.838280000
2025-11-07 14:57:40.738280,0,2025-11-07 14:57:40.845972308
2025-11-07 14:57:40.738280,33,2025-11-07 14:57:40.853664615
2025-11-07 14:57:40.738280,4864,2025-11-07 14:57:40.861356923
2025-11-07 14:57:40.738280,0,2025-11-07 14:57:40.869049231
2025-11-07 14:57:40.738280,-16,2025-11-07 14:57:40.876741538
2025-11-07 14:57:40.738280,-6401,2025-11-07 14:57:40.884433846
2025-11-07 14:57:40.738280,-1,2025-11-07 14:57:40.892126154
2025-11-07 14:57:40.738280,-29,2025-11-07 14:57:40.899818462
2025-11-07 14:57:40.738280,-7169,2025-11-07 14:57:40.907510769
2025-11-07 14:57:40.738280,-1,2025-11-07 14:57:40.915203077
2025-11-07 14:57:40.738280,-7,2025-11-07 14:57:40.922895385
2025-11-07 14:57:40.738280,767,2025-11-07 14:57:40.930587692
2025-11-07 14:57:40.738280,0,2025-11-07 14:57:40.938280000
2025-11-07 14:57:40.738280,0,2025-11-07 14:57:40.945972308
2025-11-07 14:57:40.738280,6656,2025-11-07 14:57:40.953664615
2025-11-07 14:57:40.738280,0,2025-11-07 14:57:40.961356923
2025-11-07 14:57:40.738280,14,2025-11-07 14:57:40.969049231
2025-11-07 14:57:40.738280,-8448,2025-11-07 14:57:40.976741538
2025-11-07 14:57:40.738280,-1,2025-11-07 14:57:40.984433846
2025-11-07 14:57:40.738280,-19,2025-11-07 14:57:40.992126154
2025-11-07 14:57:40.738280,6911,2025-11-07 14:57:40.999818462
2025-11-07 14:57:40.738280,0,2025-11-07 14:57:41.007510769
2025-11-07 14:57:40.738280,113,2025-11-07 14:57:41.015203077
2025-11-07 14:57:40.738280,-16640,2025-11-07 14:57:41.022895385
2025-11-07 14:57:40.738280,0,2025-11-07 14:57:41.030587692
2025-11-07 14:57:40.738280,-48,2025-11-07 14:57:41.038280000
2025-11-07 14:57:40.738280,-15105,2025-11-07 14:57:41.045972308
2025-11-07 14:57:40.738280,-3,2025-11-07 14:57:41.053664615
2025-11-07 14:57:40.738280,-708,2025-11-07 14:57:41.061356923
2025-11-07 14:57:40.738280,-6145,2025-11-07 14:57:41.069049231
2025-11-07 14:57:40.738280,-2,2025-11-07 14:57:41.076741538
2025-11-07 14:57:40.738280,-43,2025-11-07 14:57:41.084433846
2025-11-07 14:57:40.738280,-29953,2025-11-07 14:57:41.092126154
2025-11-07 14:57:40.738280,-1,2025-11-07 14:57:41.099818462
2025-11-07 14:57:40.738280,-16,2025-11-07 14:57:41.107510769
2025-11-07 14:57:40.738280,-31233,2025-11-07 14:57:41.115203077
2025-11-07 14:57:40.738280,0,2025-11-07 14:57:41.122895385
2025-11-07 14:57:40.738280,106,2025-11-07 14:57:41.130587692
2025-11-07 14:57:40.738280,25344,2025-11-07 14:57:41.138280000
2025-11-07 14:57:40.738280,0,2025-11-07 14:57:41.145972308
2025-11-07 14:57:40.738280,145,2025-11-07 14:57:41.153664615
2025-11-07 14:57:40.738280,28928,2025-11-07 14:57:41.161356923
2025-11-07 14:57:40.738280,0,2025-11-07 14:57:41.169049231
2025-11-07 14:57:40.738280,72,2025-11-07 14:57:41.176741538
2025-11-07 14:57:40.738280,19712,2025-11-07 14:57:41.184433846
2025-11-07 14:57:40.738280,0,2025-11-07 14:57:41.192126154
2025-11-07 14:57:40.738280,70,2025-11-07 14:57:41.199818462
2025-11-07 14:57:40.738280,12288,2025-11-07 14:57:41.207510769
2025-11-07 14:57:40.738280,0,2025-11-07 14:57:41.215203077
2025-11-07 14:57:40.738280,46,2025-11-07 14:57:41.222895385
2025-11-07 14:57:40.738280,12288,2025-11-07 14:57:41.230587692
2025-11-07 14:57:40.738280,0,2025-11-07 14:57:41.238280000
2025-11-07 14:57:40.738280,55,2025-11-07 14:57:41.245972308
2025-11-07 14:57:40.738280,7424,2025-11-07 14:57:41.253664615
2025-11-07 14:57:40.738280,0,2025-11-07 14:57:41.261356923
2025-11-07 14:57:40.738280,-14,2025-11-07 14:57:41.269049230
2025-11-07 14:57:40.738280,-257,2025-11-07 14:57:41.276741538
2025-11-07 14:57:40.738280,-1,2025-11-07 14:57:41.284433846
2025-11-07 14:57:40.738280,12,2025-11-07 14:57:41.292126154
2025-11-07 14:57:40.738280,-2304,2025-11-07 14:57:41.299818462
2025-11-07 14:57:40.738280,-1,2025-11-07 14:57:41.307510769
2025-11-07 14:57:40.738280,-19,2025-11-07 14:57:41.315203077
2025-11-07 14:57:40.738280,-3841,2025-11-07 14:57:41.322895385
2025-11-07 14:57:40.738280,-1,2025-11-07 14:57:41.330587692
2025-11-07 14:57:40.738280,-9,2025-11-07 14:57:41.338280000
2025-11-07 14:57:40.738280,-3329,2025-11-07 14:57:41.345972308
2025-11-07 14:57:40.738280,-1,2025-11-07 14:57:41.353664615
2025-11-07 14:57:40.738280,-29,2025-11-07 14:57:41.361356923
2025-11-07 14:57:40.738280,-6401,2025-11-07 14:57:41.369049231
2025-11-07 14:57:40.738280,-1,2025-11-07 14:57:41.376741538
2025-11-07 14:57:40.738280,-19,2025-11-07 14:57:41.384433846
2025-11-07 14:57:40.738280,-8193,2025-11-07 14:57:41.392126154
2025-11-07 14:57:40.738280,-1,2025-11-07 14:57:41.399818462
2025-11-07 14:57:40.738280,-50,2025-11-07 14:57:41.407510769
2025-11-07 14:57:40.738280,-7169,2025-11-07 14:57:41.415203077
2025-11-07 14:57:40.738280,-1,2025-11-07 14:57:41.422895385
2025-11-07 14:57:40.738280,-4,2025-11-07 14:57:41.430587692
2025-11-07 14:57:40.738280,-3841,2025-11-07 14:57:41.438280000
2025-11-07 14:57:40.738280,-1,2025-11-07 14:57:41.445972308
2025-11-07 14:57:40.738280,-24,2025-11-07 14:57:41.453664615
2025-11-07 14:57:40.738280,-5889,2025-11-07 14:57:41.461356923
2025-11-07 14:57:40.738280,-1,2025-11-07 14:57:41.469049231
2025-11-07 14:57:40.738280,-4,2025-11-07 14:57:41.476741538
2025-11-07 14:57:40.738280,-257,2025-11-07 14:57:41.484433846
2025-11-07 14:57:40.738280,-1,2025-11-07 14:57:41.492126154
2025-11-07 14:57:40.738280,-24,2025-11-07 14:57:41.499818462
2025-11-07 14:57:40.738280,767,2025-11-07 14:57:41.507510769
2025-11-07 14:57:40.738280,0,2025-11-07 14:57:41.515203077
2025-11-07 14:57:40.738280,9,2025-11-07 14:57:41.522895385
2025-11-07 14:57:40.738280,-9728,2025-11-07 14:57:41.530587692
2025-11-07 14:57:40.738280,-1,2025-11-07 14:57:41.538280000
2025-11-07 14:57:40.738280,-19,2025-11-07 14:57:41.545972308
2025-11-07 14:57:40.738280,2047,2025-11-07 14:57:41.553664615
2025-11-07 14:57:40.738280,0,2025-11-07 14:57:41.561356923
2025-11-07 14:57:40.738280,4,2025-11-07 14:57:41.569049231
2025-11-07 14:57:41.280336,14,2025-11-07 14:57:41.576741538
2025-11-07 14:57:41.280336,-512,2025-11-07 14:57:41.584433846
2025-11-07 14:57:41.280336,-1,2025-11-07 14:57:41.592126154
2025-11-07 14:57:41.280336,-4,2025-11-07 14:57:41.599818462
2025-11-07 14:57:41.280336,1279,2025-11-07 14:57:41.607510769
2025-11-07 14:57:41.280336,0,2025-11-07 14:57:41.615203077
2025-11-07 14:57:41.280336,7,2025-11-07 14:57:41.622895385
2025-11-07 14:57:41.280336,3584,2025-11-07 14:57:41.630587692
2025-11-07 14:57:41.280336,0,2025-11-07 14:57:41.638280000
2025-11-07 14:57:41.280336,-31,2025-11-07 14:57:41.645972308
2025-11-07 14:57:41.280336,-13825,2025-11-07 14:57:41.653664615
2025-11-07 14:57:41.280336,-1,2025-11-07 14:57:41.661356923
2025-11-07 14:57:41.280336,-24,2025-11-07 14:57:41.669049231
2025-11-07 14:57:41.280336,-5889,2025-11-07 14:57:41.676741538
2025-11-07 14:57:41.280336,-1,2025-11-07 14:57:41.684433846
2025-11-07 14:57:41.280336,-26,2025-11-07 14:57:41.692126154
2025-11-07 14:57:41.280336,-3841,2025-11-07 14:57:41.699818462
2025-11-07 14:57:41.280336,-1,2025-11-07 14:57:41.707510769
2025-11-07 14:57:41.280336,-19,2025-11-07 14:57:41.715203077
2025-11-07 14:57:41.280336,-4609,2025-11-07 14:57:41.722895385
2025-11-07 14:57:41.280336,-1,2025-11-07 14:57:41.730587692
2025-11-07 14:57:41.280336,-14,2025-11-07 14:57:41.738280000
2025-11-07 14:57:41.280336,-5889,2025-11-07 14:57:41.745972308
2025-11-07 14:57:41.280336,-1,2025-11-07 14:57:41.753664615
2025-11-07 14:57:41.280336,-58,2025-11-07 14:57:41.761356923
2025-11-07 14:57:41.280336,-13313,2025-11-07 14:57:41.769049231
2025-11-07 14:57:41.280336,-1,2025-11-07 14:57:41.776741538
2025-11-07 14:57:41.280336,-21,2025-11-07 14:57:41.784433846
2025-11-07 14:57:41.280336,-8193,2025-11-07 14:57:41.792126154
2025-11-07 14:57:41.280336,-1,2025-11-07 14:57:41.799818462
2025-11-07 14:57:41.280336,-43,2025-11-07 14:57:41.807510769
2025-11-07 14:57:41.280336,-5889,2025-11-07 14:57:41.815203077
2025-11-07 14:57:41.280336,-1,2025-11-07 14:57:41.822895385
2025-11-07 14:57:41.280336,-2,2025-11-07 14:57:41.830587692
2025-11-07 14:57:41.280336,8703,2025-11-07 14:57:41.838280000
2025-11-07 14:57:41.280336,0,2025-11-07 14:57:41.845972308
2025-11-07 14:57:41.280336,36,2025-11-07 14:57:41.853664615
2025-11-07 14:57:41.280336,7936,2025-11-07 14:57:41.861356923
2025-11-07 14:57:41.280336,0,2025-11-07 14:57:41.869049231
2025-11-07 14:57:41.280336,63,2025-11-07 14:57:41.876741538
2025-11-07 14:57:41.280336,13568,2025-11-07 14:57:41.884433846
2025-11-07 14:57:41.280336,0,2025-11-07 14:57:41.892126154
2025-11-07 14:57:41.280336,36,2025-11-07 14:57:41.899818462
2025-11-07 14:57:41.280336,13568,2025-11-07 14:57:41.907510769
2025-11-07 14:57:41.280336,0,2025-11-07 14:57:41.915203077
2025-11-07 14:57:41.280336,92,2025-11-07 14:57:41.922895385
2025-11-07 14:57:41.280336,20992,2025-11-07 14:57:41.930587692
2025-11-07 14:57:41.280336,0,2025-11-07 14:57:41.938280000
2025-11-07 14:57:41.280336,29,2025-11-07 14:57:41.945972308
2025-11-07 14:57:41.280336,7936,2025-11-07 14:57:41.953664615
2025-11-07 14:57:41.280336,0,2025-11-07 14:57:41.961356923
2025-11-07 14:57:41.280336,43,2025-11-07 14:57:41.969049231
2025-11-07 14:57:41.280336,4096,2025-11-07 14:57:41.976741538
2025-11-07 14:57:41.280336,0,2025-11-07 14:57:41.984433846
2025-11-07 14:57:41.280336,26,2025-11-07 14:57:41.992126154
2025-11-07 14:57:41.280336,14080,2025-11-07 14:57:41.999818462
2025-11-07 14:57:41.280336,0,2025-11-07 14:57:42.007510769
2025-11-07 14:57:41.280336,143,2025-11-07 14:57:42.015203077
2025-11-07 14:57:41.280336,-512,2025-11-07 14:57:42.022895385
2025-11-07 14:57:41.280336,0,2025-11-07 14:57:42.030587692
2025-11-07 14:57:41.280336,31,2025-11-07 14:57:42.038280000
2025-11-07 14:57:41.280336,-9216,2025-11-07 14:57:42.045972308
2025-11-07 14:57:41.280336,-3,2025-11-07 14:57:42.053664615
2025-11-07 14:57:41.280336,-785,2025-11-07 14:57:42.061356923
2025-11-07 14:57:41.280336,-28417,2025-11-07 14:57:42.069049231
2025-11-07 14:57:41.280336,-2,2025-11-07 14:57:42.076741538
2025-11-07 14:57:41.280336,-41,2025-11-07 14:57:42.084433846
2025-11-07 14:57:41.280336,-28161,2025-11-07 14:57:42.092126154
2025-11-07 14:57:41.280336,-1,2025-11-07 14:57:42.099818462
2025-11-07 14:57:41.280336,-55,2025-11-07 14:57:42.107510769
2025-11-07 14:57:41.280336,28671,2025-11-07 14:57:42.115203077
2025-11-07 14:57:41.280336,0,2025-11-07 14:57:42.122895385
2025-11-07 14:57:41.280336,106,2025-11-07 14:57:42.130587692
2025-11-07 14:57:41.280336,16128,2025-11-07 14:57:42.138280000
2025-11-07 14:57:41.280336,0,2025-11-07 14:57:42.145972308
2025-11-07 14:57:41.280336,67,2025-11-07 14:57:42.153664615
2025-11-07 14:57:41.280336,19200,2025-11-07 14:57:42.161356923
2025-11-07 14:57:41.280336,0,2025-11-07 14:57:42.169049231
2025-11-07 14:57:41.280336,67,2025-11-07 14:57:42.176741538
2025-11-07 14:57:41.280336,12800,2025-11-07 14:57:42.184433846
2025-11-07 14:57:41.280336,0,2025-11-07 14:57:42.192126154
2025-11-07 14:57:41.280336,58,2025-11-07 14:57:42.199818462
2025-11-07 14:57:41.280336,13568,2025-11-07 14:57:42.207510769
2025-11-07 14:57:41.280336,0,2025-11-07 14:57:42.215203077
2025-11-07 14:57:41.280336,46,2025-11-07 14:57:42.222895385
2025-11-07 14:57:41.280336,13568,2025-11-07 14:57:42.230587692
2025-11-07 14:57:41.280336,0,2025-11-07 14:57:42.238280000
2025-11-07 14:57:41.280336,43,2025-11-07 14:57:42.245972308
2025-11-07 14:57:41.280336,10496,2025-11-07 14:57:42.253664615
2025-11-07 14:57:41.280336,0,2025-11-07 14:57:42.261356923
2025-11-07 14:57:41.280336,36,2025-11-07 14:57:42.269049230
2025-11-07 14:57:41.280336,4096,2025-11-07 14:57:42.276741538
2025-11-07 14:57:41.280336,0,2025-11-07 14:57:42.284433846
2025-11-07 14:57:41.280336,21,2025-11-07 14:57:42.292126154
2025-11-07 14:57:41.280336,7936,2025-11-07 14:57:42.299818462
2025-11-07 14:57:41.280336,0,2025-11-07 14:57:42.307510769
2025-11-07 14:57:41.280336,26,2025-11-07 14:57:42.315203077
2025-11-07 14:57:41.280336,3584,2025-11-07 14:57:42.322895385
2025-11-07 14:57:41.280336,0,2025-11-07 14:57:42.330587692
2025-11-07 14:57:41.280336,-2,2025-11-07 14:57:42.338280000
2025-11-07 14:57:41.280336,-2817,2025-11-07 14:57:42.345972308
2025-11-07 14:57:41.280336,-1,2025-11-07 14:57:42.353664615
2025-11-07 14:57:41.280336,-19,2025-11-07 14:57:42.361356923
2025-11-07 14:57:41.280336,-3841,2025-11-07 14:57:42.369049231
2025-11-07 14:57:41.280336,-1,2025-11-07 14:57:42.376741538
2025-11-07 14:57:41.280336,-7,2025-11-07 14:57:42.384433846
2025-11-07 14:57:41.280336,-3841,2025-11-07 14:57:42.392126154
2025-11-07 14:57:41.280336,-1,2025-11-07 14:57:42.399818462
2025-11-07 14:57:41.280336,-16,2025-11-07 14:57:42.407510769
2025-11-07 14:57:41.819558,0,2025-11-07 14:57:42.415203077
2025-11-07 14:57:41.819558,1792,2025-11-07 14:57:42.422895385
2025-11-07 14:57:41.819558,0,2025-11-07 14:57:42.430587692
2025-11-07 14:57:41.819558,16,2025-11-07 14:57:42.438280000
2025-11-07 14:57:41.819558,7424,2025-11-07 14:57:42.445972308
2025-11-07 14:57:41.819558,0,2025-11-07 14:57:42.453664615
2025-11-07 14:57:41.819558,46,2025-11-07 14:57:42.461356923
2025-11-07 14:57:41.819558,11008,2025-11-07 14:57:42.469049231
2025-11-07 14:57:41.819558,0,2025-11-07 14:57:42.476741538
2025-11-07 14:57:41.819558,33,2025-11-07 14:57:42.484433846
2025-11-07 14:57:41.819558,14080,2025-11-07 14:57:42.492126154
2025-11-07 14:57:41.819558,0,2025-11-07 14:57:42.499818462
2025-11-07 14:57:41.819558,60,2025-11-07 14:57:42.507510769
2025-11-07 14:57:41.819558,11776,2025-11-07 14:57:42.515203077
2025-11-07 14:57:41.819558,0,2025-11-07 14:57:42.522895385
2025-11-07 14:57:41.819558,46,2025-11-07 14:57:42.530587692
2025-11-07 14:57:41.819558,10496,2025-11-07 14:57:42.538280000
2025-11-07 14:57:41.819558,0,2025-11-07 14:57:42.545972308
2025-11-07 14:57:41.819558,41,2025-11-07 14:57:42.553664615
2025-11-07 14:57:41.819558,9216,2025-11-07 14:57:42.561356923
2025-11-07 14:57:41.819558,0,2025-11-07 14:57:42.569049231
2025-11-07 14:57:41.819558,21,2025-11-07 14:57:42.576741538
2025-11-07 14:57:41.819558,6656,2025-11-07 14:57:42.584433846
2025-11-07 14:57:41.819558,0,2025-11-07 14:57:42.592126154
2025-11-07 14:57:41.819558,24,2025-11-07 14:57:42.599818462
2025-11-07 14:57:41.819558,4096,2025-11-07 14:57:42.607510769
2025-11-07 14:57:41.819558,0,2025-11-07 14:57:42.615203077
2025-11-07 14:57:41.819558,29,2025-11-07 14:57:42.622895385
2025-11-07 14:57:41.819558,7424,2025-11-07 14:57:42.630587692
2025-11-07 14:57:41.819558,0,2025-11-07 14:57:42.638280000
2025-11-07 14:57:41.819558,7,2025-11-07 14:57:42.645972308
2025-11-07 14:57:41.819558,0,2025-11-07 14:57:42.653664615
2025-11-07 14:57:41.819558,0,2025-11-07 14:57:42.661356923
2025-11-07 14:57:41.819558,9,2025-11-07 14:57:42.669049231
2025-11-07 14:57:41.819558,512,2025-11-07 14:57:42.676741538
2025-11-07 14:57:41.819558,0,2025-11-07 14:57:42.684433846
2025-11-07 14:57:41.819558,-2,2025-11-07 14:57:42.692126154
2025-11-07 14:57:41.819558,3327,2025-11-07 14:57:42.699818462
2025-11-07 14:57:41.819558,0,2025-11-07 14:57:42.707510769
2025-11-07 14:57:41.819558,16,2025-11-07 14:57:42.715203077
2025-11-07 14:57:41.819558,1024,2025-11-07 14:57:42.722895385
2025-11-07 14:57:41.819558,0,2025-11-07 14:57:42.730587692
2025-11-07 14:57:41.819558,-7,2025-11-07 14:57:42.738280000
2025-11-07 14:57:41.819558,-1537,2025-11-07 14:57:42.745972308
2025-11-07 14:57:41.819558,-1,2025-11-07 14:57:42.753664615
2025-11-07 14:57:41.819558,-4,2025-11-07 14:57:42.761356923
2025-11-07 14:57:41.819558,-257,2025-11-07 14:57:42.769049231
2025-11-07 14:57:41.819558,-1,2025-11-07 14:57:42.776741538
2025-11-07 14:57:41.819558,2,2025-11-07 14:57:42.784433846
2025-11-07 14:57:41.819558,4864,2025-11-07 14:57:42.792126154
2025-11-07 14:57:41.819558,0,2025-11-07 14:57:42.799818462
2025-11-07 14:57:41.819558,19,2025-11-07 14:57:42.807510769
2025-11-07 14:57:41.819558,3584,2025-11-07 14:57:42.815203077
2025-11-07 14:57:41.819558,0,2025-11-07 14:57:42.822895385
2025-11-07 14:57:41.819558,29,2025-11-07 14:57:42.830587692
2025-11-07 14:57:41.819558,5376,2025-11-07 14:57:42.838280000
2025-11-07 14:57:41.819558,0,2025-11-07 14:57:42.845972308
2025-11-07 14:57:41.819558,-12,2025-11-07 14:57:42.853664615
2025-11-07 14:57:41.819558,-6401,2025-11-07 14:57:42.861356923
2025-11-07 14:57:41.819558,-1,2025-11-07 14:57:42.869049231
2025-11-07 14:57:41.819558,-16,2025-11-07 14:57:42.876741538
2025-11-07 14:57:41.819558,-1537,2025-11-07 14:57:42.884433846
2025-11-07 14:57:41.819558,-1,2025-11-07 14:57:42.892126154
2025-11-07 14:57:41.819558,-4,2025-11-07 14:57:42.899818462
2025-11-07 14:57:41.819558,-769,2025-11-07 14:57:42.907510769
2025-11-07 14:57:41.819558,-1,2025-11-07 14:57:42.915203077
2025-11-07 14:57:41.819558,0,2025-11-07 14:57:42.922895385
2025-11-07 14:57:41.819558,512,2025-11-07 14:57:42.930587692
2025-11-07 14:57:41.819558,0,2025-11-07 14:57:42.938280000
2025-11-07 14:57:41.819558,-7,2025-11-07 14:57:42.945972308
2025-11-07 14:57:41.819558,-2817,2025-11-07 14:57:42.953664615
2025-11-07 14:57:41.819558,-1,2025-11-07 14:57:42.961356923
2025-11-07 14:57:41.819558,-7,2025-11-07 14:57:42.969049231
2025-11-07 14:57:41.819558,3839,2025-11-07 14:57:42.976741538
2025-11-07 14:57:41.819558,0,2025-11-07 14:57:42.984433846
2025-11-07 14:57:41.819558,106,2025-11-07 14:57:42.992126154
2025-11-07 14:57:41.819558,-10496,2025-11-07 14:57:42.999818462
2025-11-07 14:57:41.819558,0,2025-11-07 14:57:43.007510769
2025-11-07 14:57:41.819558,50,2025-11-07 14:57:43.015203077
2025-11-07 14:57:41.819558,6400,2025-11-07 14:57:43.022895385
2025-11-07 14:57:41.819558,-2,2025-11-07 14:57:43.030587692
2025-11-07 14:57:41.819558,-841,2025-11-07 14:57:43.038280000
2025-11-07 14:57:41.819558,-1281,2025-11-07 14:57:43.045972308
2025-11-07 14:57:41.819558,-3,2025-11-07 14:57:43.053664615
2025-11-07 14:57:41.819558,-97,2025-11-07 14:57:43.061356923
2025-11-07 14:57:41.819558,-21249,2025-11-07 14:57:43.069049231
2025-11-07 14:57:41.819558,-1,2025-11-07 14:57:43.076741538
2025-11-07 14:57:41.819558,-60,2025-11-07 14:57:43.084433846
2025-11-07 14:57:41.819558,27391,2025-11-07 14:57:43.092126154
2025-11-07 14:57:41.819558,0,2025-11-07 14:57:43.099818462
2025-11-07 14:57:41.819558,113,2025-11-07 14:57:43.107510769
2025-11-07 14:57:41.819558,14848,2025-11-07 14:57:43.115203077
2025-11-07 14:57:41.819558,0,2025-11-07 14:57:43.122895385
2025-11-07 14:57:41.819558,77,2025-11-07 14:57:43.130587692
2025-11-07 14:57:41.819558,19200,2025-11-07 14:57:43.138280000
2025-11-07 14:57:41.819558,0,2025-11-07 14:57:43.145972308
2025-11-07 14:57:41.819558,53,2025-11-07 14:57:43.153664615
2025-11-07 14:57:41.819558,16128,2025-11-07 14:57:43.161356923
2025-11-07 14:57:41.819558,0,2025-11-07 14:57:43.169049231
2025-11-07 14:57:41.819558,70,2025-11-07 14:57:43.176741538
2025-11-07 14:57:41.819558,14080,2025-11-07 14:57:43.184433846
2025-11-07 14:57:41.819558,0,2025-11-07 14:57:43.192126154
2025-11-07 14:57:41.819558,43,2025-11-07 14:57:43.199818462
2025-11-07 14:57:41.819558,12288,2025-11-07 14:57:43.207510769
2025-11-07 14:57:41.819558,0,2025-11-07 14:57:43.215203077
2025-11-07 14:57:41.819558,48,2025-11-07 14:57:43.222895385
2025-11-07 14:57:41.819558,10496,2025-11-07 14:57:43.230587692
2025-11-07 14:57:41.819558,0,2025-11-07 14:57:43.238280000
2025-11-07 14:57:41.819558,38,2025-11-07 14:57:43.245972308
2025-11-07 14:57:42.404297,36,2025-11-07 14:57:43.253664615
2025-11-07 14:57:42.404297,8448,2025-11-07 14:57:43.261356923
2025-11-07 14:57:42.404297,0,2025-11-07 14:57:43.269049230
2025-11-07 14:57:42.404297,24,2025-11-07 14:57:43.276741538
2025-11-07 14:57:42.404297,3584,2025-11-07 14:57:43.284433846
2025-11-07 14:57:42.404297,0,2025-11-07 14:57:43.292126154
2025-11-07 14:57:42.404297,31,2025-11-07 14:57:43.299818462
2025-11-07 14:57:42.404297,12288,2025-11-07 14:57:43.307510769
2025-11-07 14:57:42.404297,0,2025-11-07 14:57:43.315203077
2025-11-07 14:57:42.404297,31,2025-11-07 14:57:43.322895385
2025-11-07 14:57:42.404297,2304,2025-11-07 14:57:43.330587692
2025-11-07 14:57:42.404297,0,2025-11-07 14:57:43.338280000
2025-11-07 14:57:42.404297,14,2025-11-07 14:57:43.345972308
2025-11-07 14:57:42.404297,4096,2025-11-07 14:57:43.353664615
2025-11-07 14:57:42.404297,0,2025-11-07 14:57:43.361356923
2025-11-07 14:57:42.404297,4,2025-11-07 14:57:43.369049231
2025-11-07 14:57:42.404297,1792,2025-11-07 14:57:43.376741538
2025-11-07 14:57:42.404297,0,2025-11-07 14:57:43.384433846
2025-11-07 14:57:42.404297,12,2025-11-07 14:57:43.392126154
2025-11-07 14:57:42.404297,4096,2025-11-07 14:57:43.399818462
2025-11-07 14:57:42.404297,0,2025-11-07 14:57:43.407510769
2025-11-07 14:57:42.404297,24,2025-11-07 14:57:43.415203077
2025-11-07 14:57:42.404297,3584,2025-11-07 14:57:43.422895385
2025-11-07 14:57:42.404297,0,2025-11-07 14:57:43.430587692
2025-11-07 14:57:42.404297,24,2025-11-07 14:57:43.438280000
2025-11-07 14:57:42.404297,11776,2025-11-07 14:57:43.445972308
2025-11-07 14:57:42.404297,0,2025-11-07 14:57:43.453664615
2025-11-07 14:57:42.404297,36,2025-11-07 14:57:43.461356923
2025-11-07 14:57:42.404297,6144,2025-11-07 14:57:43.469049231
2025-11-07 14:57:42.404297,0,2025-11-07 14:57:43.476741538
2025-11-07 14:57:42.404297,26,2025-11-07 14:57:43.484433846
2025-11-07 14:57:42.404297,6144,2025-11-07 14:57:43.492126154
2025-11-07 14:57:42.404297,0,2025-11-07 14:57:43.499818462
2025-11-07 14:57:42.404297,19,2025-11-07 14:57:43.507510769
2025-11-07 14:57:42.404297,4864,2025-11-07 14:57:43.515203077
2025-11-07 14:57:42.404297,0,2025-11-07 14:57:43.522895385
2025-11-07 14:57:42.404297,29,2025-11-07 14:57:43.530587692
2025-11-07 14:57:42.404297,9728,2025-11-07 14:57:43.538280000
2025-11-07 14:57:42.404297,0,2025-11-07 14:57:43.545972308
2025-11-07 14:57:42.404297,31,2025-11-07 14:57:43.553664615
2025-11-07 14:57:42.404297,4864,2025-11-07 14:57:43.561356923
2025-11-07 14:57:42.404297,0,2025-11-07 14:57:43.569049231
2025-11-07 14:57:42.404297,29,2025-11-07 14:57:43.576741538
2025-11-07 14:57:42.404297,8448,2025-11-07 14:57:43.584433846
2025-11-07 14:57:42.404297,0,2025-11-07 14:57:43.592126154
2025-11-07 14:57:42.404297,14,2025-11-07 14:57:43.599818462
2025-11-07 14:57:42.404297,1792,2025-11-07 14:57:43.607510769
2025-11-07 14:57:42.404297,0,2025-11-07 14:57:43.615203077
2025-11-07 14:57:42.404297,24,2025-11-07 14:57:43.622895385
2025-11-07 14:57:42.404297,8448,2025-11-07 14:57:43.630587692
2025-11-07 14:57:42.404297,0,2025-11-07 14:57:43.638280000
2025-11-07 14:57:42.404297,26,2025-11-07 14:57:43.645972308
2025-11-07 14:57:42.404297,3584,2025-11-07 14:57:43.653664615
2025-11-07 14:57:42.404297,0,2025-11-07 14:57:43.661356923
2025-11-07 14:57:42.404297,4,2025-11-07 14:57:43.669049231
2025-11-07 14:57:42.404297,-512,2025-11-07 14:57:43.676741538
2025-11-07 14:57:42.404297,-1,2025-11-07 14:57:43.684433846
2025-11-07 14:57:42.404297,0,2025-11-07 14:57:43.692126154
2025-11-07 14:57:42.404297,1024,2025-11-07 14:57:43.699818462
2025-11-07 14:57:42.404297,0,2025-11-07 14:57:43.707510769
2025-11-07 14:57:42.404297,12,2025-11-07 14:57:43.715203077
2025-11-07 14:57:42.404297,5376,2025-11-07 14:57:43.722895385
2025-11-07 14:57:42.404297,0,2025-11-07 14:57:43.730587692
2025-11-07 14:57:42.404297,12,2025-11-07 14:57:43.738280000
2025-11-07 14:57:42.404297,-3072,2025-11-07 14:57:43.745972308
2025-11-07 14:57:42.404297,-1,2025-11-07 14:57:43.753664615
2025-11-07 14:57:42.404297,-19,2025-11-07 14:57:43.761356923
2025-11-07 14:57:42.404297,-769,2025-11-07 14:57:43.769049231
2025-11-07 14:57:42.404297,-1,2025-11-07 14:57:43.776741538
2025-11-07 14:57:42.404297,-4,2025-11-07 14:57:43.784433846
2025-11-07 14:57:42.404297,-2817,2025-11-07 14:57:43.792126154
2025-11-07 14:57:42.404297,-1,2025-11-07 14:57:43.799818462
2025-11-07 14:57:42.404297,9,2025-11-07 14:57:43.807510769
2025-11-07 14:57:42.404297,6656,2025-11-07 14:57:43.815203077
2025-11-07 14:57:42.404297,0,2025-11-07 14:57:43.822895385
2025-11-07 14:57:42.404297,7,2025-11-07 14:57:43.830587692
2025-11-07 14:57:42.404297,4096,2025-11-07 14:57:43.838280000
2025-11-07 14:57:42.404297,0,2025-11-07 14:57:43.845972308
2025-11-07 14:57:42.404297,36,2025-11-07 14:57:43.853664615
2025-11-07 14:57:42.404297,1024,2025-11-07 14:57:43.861356923
2025-11-07 14:57:42.404297,0,2025-11-07 14:57:43.869049231
2025-11-07 14:57:42.404297,-26,2025-11-07 14:57:43.876741538
2025-11-07 14:57:42.404297,-6401,2025-11-07 14:57:43.884433846
2025-11-07 14:57:42.404297,-1,2025-11-07 14:57:43.892126154
2025-11-07 14:57:42.404297,-29,2025-11-07 14:57:43.899818462
2025-11-07 14:57:42.404297,-7681,2025-11-07 14:57:43.907510769
2025-11-07 14:57:42.404297,-1,2025-11-07 14:57:43.915203077
2025-11-07 14:57:42.404297,-16,2025-11-07 14:57:43.922895385
2025-11-07 14:57:42.404297,-2049,2025-11-07 14:57:43.930587692
2025-11-07 14:57:42.404297,-1,2025-11-07 14:57:43.938280000
2025-11-07 14:57:42.404297,-16,2025-11-07 14:57:43.945972308
2025-11-07 14:57:42.404297,-3841,2025-11-07 14:57:43.953664615
2025-11-07 14:57:42.404297,-1,2025-11-07 14:57:43.961356923
2025-11-07 14:57:42.404297,-14,2025-11-07 14:57:43.969049231
2025-11-07 14:57:42.404297,-4609,2025-11-07 14:57:43.976741538
2025-11-07 14:57:42.404297,-1,2025-11-07 14:57:43.984433846
2025-11-07 14:57:42.404297,-9,2025-11-07 14:57:43.992126154
2025-11-07 14:57:42.404297,8191,2025-11-07 14:57:43.999818462
2025-11-07 14:57:42.404297,0,2025-11-07 14:57:44.007510769
2025-11-07 14:57:42.404297,123,2025-11-07 14:57:44.015203077
2025-11-07 14:57:42.404297,-19200,2025-11-07 14:57:44.022895385
2025-11-07 14:57:42.404297,0,2025-11-07 14:57:44.030587692
2025-11-07 14:57:42.404297,-92,2025-11-07 14:57:44.038280000
2025-11-07 14:57:42.404297,26367,2025-11-07 14:57:44.045972308
2025-11-07 14:57:42.404297,-3,2025-11-07 14:57:44.053664615
2025-11-07 14:57:42.404297,-843,2025-11-07 14:57:44.061356923
2025-11-07 14:57:42.404297,28415,2025-11-07 14:57:44.069049231
2025-11-07 14:57:42.404297,-2,2025-11-07 14:57:44.076741538
2025-11-07 14:57:42.404297,-77,2025-11-07 14:57:44.084433846
2025-11-07 14:57:42.944153,-72,2025-11-07 14:57:44.092126154
2025-11-07 14:57:42.944153,2559,2025-11-07 14:57:44.099818462
2025-11-07 14:57:42.944153,0,2025-11-07 14:57:44.107510769
2025-11-07 14:57:42.944153,118,2025-11-07 14:57:44.115203077
2025-11-07 14:57:42.944153,24064,2025-11-07 14:57:44.122895385
2025-11-07 14:57:42.944153,0,2025-11-07 14:57:44.130587692
2025-11-07 14:57:42.944153,65,2025-11-07 14:57:44.138280000
2025-11-07 14:57:42.944153,20480,2025-11-07 14:57:44.145972308
2025-11-07 14:57:42.944153,0,2025-11-07 14:57:44.153664615
2025-11-07 14:57:42.944153,72,2025-11-07 14:57:44.161356923
2025-11-07 14:57:42.944153,16640,2025-11-07 14:57:44.169049231
2025-11-07 14:57:42.944153,0,2025-11-07 14:57:44.176741538
2025-11-07 14:57:42.944153,84,2025-11-07 14:57:44.184433846
2025-11-07 14:57:42.944153,24064,2025-11-07 14:57:44.192126154
2025-11-07 14:57:42.944153,0,2025-11-07 14:57:44.199818462
2025-11-07 14:57:42.944153,77,2025-11-07 14:57:44.207510769
2025-11-07 14:57:42.944153,15360,2025-11-07 14:57:44.215203077
2025-11-07 14:57:42.944153,0,2025-11-07 14:57:44.222895385
2025-11-07 14:57:42.944153,63,2025-11-07 14:57:44.230587692
2025-11-07 14:57:42.944153,16640,2025-11-07 14:57:44.238280000
2025-11-07 14:57:42.944153,0,2025-11-07 14:57:44.245972308
2025-11-07 14:57:42.944153,60,2025-11-07 14:57:44.253664615
2025-11-07 14:57:42.944153,12800,2025-11-07 14:57:44.261356923
2025-11-07 14:57:42.944153,0,2025-11-07 14:57:44.269049230
2025-11-07 14:57:42.944153,46,2025-11-07 14:57:44.276741538
2025-11-07 14:57:42.944153,12800,2025-11-07 14:57:44.284433846
2025-11-07 14:57:42.944153,0,2025-11-07 14:57:44.292126154
2025-11-07 14:57:42.944153,48,2025-11-07 14:57:44.299818462
2025-11-07 14:57:42.944153,8448,2025-11-07 14:57:44.307510769
2025-11-07 14:57:42.944153,0,2025-11-07 14:57:44.315203077
2025-11-07 14:57:42.944153,29,2025-11-07 14:57:44.322895385
2025-11-07 14:57:42.944153,6144,2025-11-07 14:57:44.330587692
2025-11-07 14:57:42.944153,0,2025-11-07 14:57:44.338280000
2025-11-07 14:57:42.944153,12,2025-11-07 14:57:44.345972308
2025-11-07 14:57:42.944153,1024,2025-11-07 14:57:44.353664615
2025-11-07 14:57:42.944153,0,2025-11-07 14:57:44.361356923
2025-11-07 14:57:42.944153,0,2025-11-07 14:57:44.369049231
2025-11-07 14:57:42.944153,0,2025-11-07 14:57:44.376741538
2025-11-07 14:57:42.944153,0,2025-11-07 14:57:44.384433846
2025-11-07 14:57:42.944153,-2,2025-11-07 14:57:44.392126154
2025-11-07 14:57:42.944153,-769,2025-11-07 14:57:44.399818462
2025-11-07 14:57:42.944153,-1,2025-11-07 14:57:44.407510769
2025-11-07 14:57:42.944153,-2,2025-11-07 14:57:44.415203077
2025-11-07 14:57:42.944153,767,2025-11-07 14:57:44.422895385
2025-11-07 14:57:42.944153,0,2025-11-07 14:57:44.430587692
2025-11-07 14:57:42.944153,12,2025-11-07 14:57:44.438280000
2025-11-07 14:57:42.944153,6144,2025-11-07 14:57:44.445972308
2025-11-07 14:57:42.944153,0,2025-11-07 14:57:44.453664615
2025-11-07 14:57:42.944153,29,2025-11-07 14:57:44.461356923
2025-11-07 14:57:42.944153,8448,2025-11-07 14:57:44.469049231
2025-11-07 14:57:42.944153,0,2025-11-07 14:57:44.476741538
2025-11-07 14:57:42.944153,31,2025-11-07 14:57:44.484433846
2025-11-07 14:57:42.944153,7936,2025-11-07 14:57:44.492126154
2025-11-07 14:57:42.944153,0,2025-11-07 14:57:44.499818462
2025-11-07 14:57:42.944153,36,2025-11-07 14:57:44.507510769
2025-11-07 14:57:42.944153,10496,2025-11-07 14:57:44.515203077
2025-11-07 14:57:42.944153,0,2025-11-07 14:57:44.522895385
2025-11-07 14:57:42.944153,53,2025-11-07 14:57:44.530587692
2025-11-07 14:57:42.944153,15360,2025-11-07 14:57:44.538280000
2025-11-07 14:57:42.944153,0,2025-11-07 14:57:44.545972308
2025-11-07 14:57:42.944153,60,2025-11-07 14:57:44.553664615
2025-11-07 14:57:42.944153,12800,2025-11-07 14:57:44.561356923
2025-11-07 14:57:42.944153,0,2025-11-07 14:57:44.569049231
2025-11-07 14:57:42.944153,41,2025-11-07 14:57:44.576741538
2025-11-07 14:57:42.944153,10496,2025-11-07 14:57:44.584433846
2025-11-07 14:57:42.944153,0,2025-11-07 14:57:44.592126154
2025-11-07 14:57:42.944153,38,2025-11-07 14:57:44.599818462
2025-11-07 14:57:42.944153,7424,2025-11-07 14:57:44.607510769
2025-11-07 14:57:42.944153,0,2025-11-07 14:57:44.615203077
2025-11-07 14:57:42.944153,29,2025-11-07 14:57:44.622895385
2025-11-07 14:57:42.944153,6144,2025-11-07 14:57:44.630587692
2025-11-07 14:57:42.944153,0,2025-11-07 14:57:44.638280000
2025-11-07 14:57:42.944153,19,2025-11-07 14:57:44.645972308
2025-11-07 14:57:42.944153,5376,2025-11-07 14:57:44.653664615
2025-11-07 14:57:42.944153,0,2025-11-07 14:57:44.661356923
2025-11-07 14:57:42.944153,12,2025-11-07 14:57:44.669049231
2025-11-07 14:57:42.944153,2304,2025-11-07 14:57:44.676741538
2025-11-07 14:57:42.944153,0,2025-11-07 14:57:44.684433846
2025-11-07 14:57:42.944153,9,2025-11-07 14:57:44.692126154
2025-11-07 14:57:42.944153,1792,2025-11-07 14:57:44.699818462
2025-11-07 14:57:42.944153,0,2025-11-07 14:57:44.707510769
2025-11-07 14:57:42.944153,4,2025-11-07 14:57:44.715203077
2025-11-07 14:57:42.944153,512,2025-11-07 14:57:44.722895385
2025-11-07 14:57:42.944153,0,2025-11-07 14:57:44.730587692
2025-11-07 14:57:42.944153,2,2025-11-07 14:57:44.738280000
2025-11-07 14:57:42.944153,512,2025-11-07 14:57:44.745972308
2025-11-07 14:57:42.944153,0,2025-11-07 14:57:44.753664615
2025-11-07 14:57:42.944153,-2,2025-11-07 14:57:44.761356923
2025-11-07 14:57:42.944153,-1537,2025-11-07 14:57:44.769049231
2025-11-07 14:57:42.944153,-1,2025-11-07 14:57:44.776741538
2025-11-07 14:57:42.944153,-9,2025-11-07 14:57:44.784433846
2025-11-07 14:57:42.944153,-1537,2025-11-07 14:57:44.792126154
2025-11-07 14:57:42.944153,-1,2025-11-07 14:57:44.799818462
2025-11-07 14:57:42.944153,-9,2025-11-07 14:57:44.807510769
2025-11-07 14:57:42.944153,-2817,2025-11-07 14:57:44.815203077
2025-11-07 14:57:42.944153,-1,2025-11-07 14:57:44.822895385
2025-11-07 14:57:42.944153,-7,2025-11-07 14:57:44.830587692
2025-11-07 14:57:42.944153,-2817,2025-11-07 14:57:44.838280000
2025-11-07 14:57:42.944153,-1,2025-11-07 14:57:44.845972308
2025-11-07 14:57:42.944153,-14,2025-11-07 14:57:44.853664615
2025-11-07 14:57:42.944153,-2817,2025-11-07 14:57:44.861356923
2025-11-07 14:57:42.944153,-1,2025-11-07 14:57:44.869049231
2025-11-07 14:57:42.944153,-12,2025-11-07 14:57:44.876741538
2025-11-07 14:57:42.944153,-1537,2025-11-07 14:57:44.884433846
2025-11-07 14:57:42.944153,-1,2025-11-07 14:57:44.892126154
2025-11-07 14:57:42.944153,4,2025-11-07 14:57:44.899818462
2025-11-07 14:57:42.944153,3072,2025-11-07 14:57:44.907510769
2025-11-07 14:57:42.944153,0,2025-11-07 14:57:44.915203077
2025-11-07 14:57:42.944153,16,2025-11-07 14:57:44.922895385
2025-11-07 14:57:43.530632,19,2025-11-07 14:57:44.930587692
2025-11-07 14:57:43.530632,2304,2025-11-07 14:57:44.938280000
2025-11-07 14:57:43.530632,0,2025-11-07 14:57:44.945972308
2025-11-07 14:57:43.530632,-12,2025-11-07 14:57:44.953664615
2025-11-07 14:57:43.530632,-7169,2025-11-07 14:57:44.961356923
2025-11-07 14:57:43.530632,-1,2025-11-07 14:57:44.969049231
2025-11-07 14:57:43.530632,-31,2025-11-07 14:57:44.976741538
2025-11-07 14:57:43.530632,-5889,2025-11-07 14:57:44.984433846
2025-11-07 14:57:43.530632,-1,2025-11-07 14:57:44.992126154
2025-11-07 14:57:43.530632,-2,2025-11-07 14:57:44.999818462
2025-11-07 14:57:43.530632,2047,2025-11-07 14:57:45.007510769
2025-11-07 14:57:43.530632,0,2025-11-07 14:57:45.015203077
2025-11-07 14:57:43.530632,2,2025-11-07 14:57:45.022895385
2025-11-07 14:57:43.530632,512,2025-11-07 14:57:45.030587692
2025-11-07 14:57:43.530632,0,2025-11-07 14:57:45.038280000
2025-11-07 14:57:43.530632,4,2025-11-07 14:57:45.045972308
2025-11-07 14:57:43.530632,2304,2025-11-07 14:57:45.053664615
2025-11-07 14:57:43.530632,0,2025-11-07 14:57:45.061356923
2025-11-07 14:57:43.530632,7,2025-11-07 14:57:45.069049231
2025-11-07 14:57:43.530632,3072,2025-11-07 14:57:45.076741538
2025-11-07 14:57:43.530632,0,2025-11-07 14:57:45.084433846
2025-11-07 14:57:43.530632,80,2025-11-07 14:57:45.092126154
2025-11-07 14:57:43.530632,-15360,2025-11-07 14:57:45.099818462
2025-11-07 14:57:43.530632,0,2025-11-07 14:57:45.107510769
2025-11-07 14:57:43.530632,118,2025-11-07 14:57:45.115203077
2025-11-07 14:57:43.530632,-31744,2025-11-07 14:57:45.122895385
2025-11-07 14:57:43.530632,-2,2025-11-07 14:57:45.130587692
2025-11-07 14:57:43.530632,-892,2025-11-07 14:57:45.138280000
2025-11-07 14:57:43.530632,4607,2025-11-07 14:57:45.145972308
2025-11-07 14:57:43.530632,-3,2025-11-07 14:57:45.153664615
2025-11-07 14:57:43.530632,-264,2025-11-07 14:57:45.161356923
2025-11-07 14:57:43.530632,-14593,2025-11-07 14:57:45.169049231
2025-11-07 14:57:43.530632,-1,2025-11-07 14:57:45.176741538
2025-11-07 14:57:43.530632,0,2025-11-07 14:57:45.184433846
2025-11-07 14:57:43.530632,27136,2025-11-07 14:57:45.192126154
2025-11-07 14:57:43.530632,0,2025-11-07 14:57:45.199818462
2025-11-07 14:57:43.530632,135,2025-11-07 14:57:45.207510769
2025-11-07 14:57:43.530632,24832,2025-11-07 14:57:45.215203077
2025-11-07 14:57:43.530632,0,2025-11-07 14:57:45.222895385
2025-11-07 14:57:43.530632,92,2025-11-07 14:57:45.230587692
2025-11-07 14:57:43.530632,24832,2025-11-07 14:57:45.238280000
2025-11-07 14:57:43.530632,0,2025-11-07 14:57:45.245972308
2025-11-07 14:57:43.530632,82,2025-11-07 14:57:45.253664615
2025-11-07 14:57:43.530632,19200,2025-11-07 14:57:45.261356923
2025-11-07 14:57:43.530632,0,2025-11-07 14:57:45.269049230
2025-11-07 14:57:43.530632,70,2025-11-07 14:57:45.276741538
2025-11-07 14:57:43.530632,16128,2025-11-07 14:57:45.284433846
2025-11-07 14:57:43.530632,0,2025-11-07 14:57:45.292126154
2025-11-07 14:57:43.530632,63,2025-11-07 14:57:45.299818462
2025-11-07 14:57:43.530632,16640,2025-11-07 14:57:45.307510769
2025-11-07 14:57:43.530632,0,2025-11-07 14:57:45.315203077
2025-11-07 14:57:43.530632,60,2025-11-07 14:57:45.322895385
2025-11-07 14:57:43.530632,14848,2025-11-07 14:57:45.330587692
2025-11-07 14:57:43.530632,0,2025-11-07 14:57:45.338280000
2025-11-07 14:57:43.530632,50,2025-11-07 14:57:45.345972308
2025-11-07 14:57:43.530632,12800,2025-11-07 14:57:45.353664615
2025-11-07 14:57:43.530632,0,2025-11-07 14:57:45.361356923
2025-11-07 14:57:43.530632,50,2025-11-07 14:57:45.369049231
2025-11-07 14:57:43.530632,12800,2025-11-07 14:57:45.376741538
2025-11-07 14:57:43.530632,0,2025-11-07 14:57:45.384433846
2025-11-07 14:57:43.530632,53,2025-11-07 14:57:45.392126154
2025-11-07 14:57:43.530632,12800,2025-11-07 14:57:45.399818462
2025-11-07 14:57:43.530632,0,2025-11-07 14:57:45.407510769
2025-11-07 14:57:43.530632,38,2025-11-07 14:57:45.415203077
2025-11-07 14:57:43.530632,7936,2025-11-07 14:57:45.422895385
2025-11-07 14:57:43.530632,0,2025-11-07 14:57:45.430587692
2025-11-07 14:57:43.530632,33,2025-11-07 14:57:45.438280000
2025-11-07 14:57:43.530632,7936,2025-11-07 14:57:45.445972308
2025-11-07 14:57:43.530632,0,2025-11-07 14:57:45.453664615
2025-11-07 14:57:43.530632,26,2025-11-07 14:57:45.461356923
2025-11-07 14:57:43.530632,5376,2025-11-07 14:57:45.469049231
2025-11-07 14:57:43.530632,0,2025-11-07 14:57:45.476741538
2025-11-07 14:57:43.530632,19,2025-11-07 14:57:45.484433846
2025-11-07 14:57:43.530632,4096,2025-11-07 14:57:45.492126154
2025-11-07 14:57:43.530632,0,2025-11-07 14:57:45.499818462
2025-11-07 14:57:43.530632,16,2025-11-07 14:57:45.507510769
2025-11-07 14:57:43.530632,6144,2025-11-07 14:57:45.515203077
2025-11-07 14:57:43.530632,0,2025-11-07 14:57:45.522895385
2025-11-07 14:57:43.530632,29,2025-11-07 14:57:45.530587692
2025-11-07 14:57:43.530632,7424,2025-11-07 14:57:45.538280000
2025-11-07 14:57:43.530632,0,2025-11-07 14:57:45.545972308
2025-11-07 14:57:43.530632,29,2025-11-07 14:57:45.553664615
2025-11-07 14:57:43.530632,8448,2025-11-07 14:57:45.561356923
2025-11-07 14:57:43.530632,0,2025-11-07 14:57:45.569049231
2025-11-07 14:57:43.530632,33,2025-11-07 14:57:45.576741538
2025-11-07 14:57:43.530632,7424,2025-11-07 14:57:45.584433846
2025-11-07 14:57:43.530632,0,2025-11-07 14:57:45.592126154
2025-11-07 14:57:43.530632,31,2025-11-07 14:57:45.599818462
2025-11-07 14:57:43.530632,7936,2025-11-07 14:57:45.607510769
2025-11-07 14:57:43.530632,0,2025-11-07 14:57:45.615203077
2025-11-07 14:57:43.530632,19,2025-11-07 14:57:45.622895385
2025-11-07 14:57:43.530632,4096,2025-11-07 14:57:45.630587692
2025-11-07 14:57:43.530632,0,2025-11-07 14:57:45.638280000
2025-11-07 14:57:43.530632,24,2025-11-07 14:57:45.645972308
2025-11-07 14:57:43.530632,6144,2025-11-07 14:57:45.653664615
2025-11-07 14:57:43.530632,0,2025-11-07 14:57:45.661356923
2025-11-07 14:57:43.530632,21,2025-11-07 14:57:45.669049231
2025-11-07 14:57:43.530632,5376,2025-11-07 14:57:45.676741538
2025-11-07 14:57:43.530632,0,2025-11-07 14:57:45.684433846
2025-11-07 14:57:43.530632,24,2025-11-07 14:57:45.692126154
2025-11-07 14:57:43.530632,4864,2025-11-07 14:57:45.699818462
2025-11-07 14:57:43.530632,0,2025-11-07 14:57:45.707510769
2025-11-07 14:57:43.530632,14,2025-11-07 14:57:45.715203077
2025-11-07 14:57:43.530632,4864,2025-11-07 14:57:45.722895385
2025-11-07 14:57:43.530632,0,2025-11-07 14:57:45.730587692
2025-11-07 14:57:43.530632,21,2025-11-07 14:57:45.738280000
2025-11-07 14:57:43.530632,3584,2025-11-07 14:57:45.745972308
2025-11-07 14:57:43.530632,0,2025-11-07 14:57:45.753664615
2025-11-07 14:57:43.530632,9,2025-11-07 14:57:45.761356923
2025-11-07 14:57:44.114451,12,2025-11-07 14:57:45.769049231
2025-11-07 14:57:44.114451,4096,2025-11-07 14:57:45.776741538
2025-11-07 14:57:44.114451,0,2025-11-07 14:57:45.784433846
2025-11-07 14:57:44.114451,21,2025-11-07 14:57:45.792126154
2025-11-07 14:57:44.114451,6144,2025-11-07 14:57:45.799818462
2025-11-07 14:57:44.114451,0,2025-11-07 14:57:45.807510769
2025-11-07 14:57:44.114451,14,2025-11-07 14:57:45.815203077
2025-11-07 14:57:44.114451,2304,2025-11-07 14:57:45.822895385
2025-11-07 14:57:44.114451,0,2025-11-07 14:57:45.830587692
2025-11-07 14:57:44.114451,12,2025-11-07 14:57:45.838280000
2025-11-07 14:57:44.114451,3072,2025-11-07 14:57:45.845972308
2025-11-07 14:57:44.114451,0,2025-11-07 14:57:45.853664615
2025-11-07 14:57:44.114451,24,2025-11-07 14:57:45.861356923
2025-11-07 14:57:44.114451,11776,2025-11-07 14:57:45.869049231
2025-11-07 14:57:44.114451,0,2025-11-07 14:57:45.876741538
2025-11-07 14:57:44.114451,33,2025-11-07 14:57:45.884433846
2025-11-07 14:57:44.114451,3584,2025-11-07 14:57:45.892126154
2025-11-07 14:57:44.114451,0,2025-11-07 14:57:45.899818462
2025-11-07 14:57:44.114451,16,2025-11-07 14:57:45.907510769
2025-11-07 14:57:44.114451,5376,2025-11-07 14:57:45.915203077
2025-11-07 14:57:44.114451,0,2025-11-07 14:57:45.922895385
2025-11-07 14:57:44.114451,19,2025-11-07 14:57:45.930587692
2025-11-07 14:57:44.114451,4096,2025-11-07 14:57:45.938280000
2025-11-07 14:57:44.114451,0,2025-11-07 14:57:45.945972308
2025-11-07 14:57:44.114451,9,2025-11-07 14:57:45.953664615
2025-11-07 14:57:44.114451,2304,2025-11-07 14:57:45.961356923
2025-11-07 14:57:44.114451,0,2025-11-07 14:57:45.969049231
2025-11-07 14:57:44.114451,9,2025-11-07 14:57:45.976741538
2025-11-07 14:57:44.114451,3072,2025-11-07 14:57:45.984433846
2025-11-07 14:57:44.114451,0,2025-11-07 14:57:45.992126154
2025-11-07 14:57:44.114451,14,2025-11-07 14:57:45.999818462
2025-11-07 14:57:44.114451,3072,2025-11-07 14:57:46.007510769
2025-11-07 14:57:44.114451,0,2025-11-07 14:57:46.015203077
2025-11-07 14:57:44.114451,14,2025-11-07 14:57:46.022895385
2025-11-07 14:57:44.114451,5376,2025-11-07 14:57:46.030587692
2025-11-07 14:57:44.114451,0,2025-11-07 14:57:46.038280000
2025-11-07 14:57:44.114451,31,2025-11-07 14:57:46.045972308
2025-11-07 14:57:44.114451,6144,2025-11-07 14:57:46.053664615
2025-11-07 14:57:44.114451,0,2025-11-07 14:57:46.061356923
2025-11-07 14:57:44.114451,2,2025-11-07 14:57:46.069049231
2025-11-07 14:57:44.114451,-4864,2025-11-07 14:57:46.076741538
2025-11-07 14:57:44.114451,-1,2025-11-07 14:57:46.084433846
2025-11-07 14:57:44.114451,-26,2025-11-07 14:57:46.092126154
2025-11-07 14:57:44.114451,-8961,2025-11-07 14:57:46.099818462
2025-11-07 14:57:44.114451,-1,2025-11-07 14:57:46.107510769
2025-11-07 14:57:44.114451,-36,2025-11-07 14:57:46.115203077
2025-11-07 14:57:44.114451,-4609,2025-11-07 14:57:46.122895385
2025-11-07 14:57:44.114451,-1,2025-11-07 14:57:46.130587692
2025-11-07 14:57:44.114451,-4,2025-11-07 14:57:46.138280000
2025-11-07 14:57:44.114451,-3329,2025-11-07 14:57:46.145972308
2025-11-07 14:57:44.114451,-1,2025-11-07 14:57:46.153664615
2025-11-07 14:57:44.114451,-24,2025-11-07 14:57:46.161356923
2025-11-07 14:57:44.114451,-5121,2025-11-07 14:57:46.169049231
2025-11-07 14:57:44.114451,-1,2025-11-07 14:57:46.176741538
2025-11-07 14:57:44.114451,-19,2025-11-07 14:57:46.184433846
2025-11-07 14:57:44.114451,-3329,2025-11-07 14:57:46.192126154
2025-11-07 14:57:44.114451,-1,2025-11-07 14:57:46.199818462
2025-11-07 14:57:44.114451,50,2025-11-07 14:57:46.207510769
2025-11-07 14:57:44.114451,-20224,2025-11-07 14:57:46.215203077
2025-11-07 14:57:44.114451,0,2025-11-07 14:57:46.222895385
2025-11-07 14:57:44.114451,135,2025-11-07 14:57:46.230587692
2025-11-07 14:57:44.114451,-18176,2025-11-07 14:57:46.238280000
2025-11-07 14:57:44.114451,-2,2025-11-07 14:57:46.245972308
2025-11-07 14:57:44.114451,-834,2025-11-07 14:57:46.253664615
2025-11-07 14:57:44.114451,13311,2025-11-07 14:57:46.261356923
2025-11-07 14:57:44.114451,-3,2025-11-07 14:57:46.269049230
2025-11-07 14:57:44.114451,-244,2025-11-07 14:57:46.276741538
2025-11-07 14:57:44.114451,-22529,2025-11-07 14:57:46.284433846
2025-11-07 14:57:44.114451,-1,2025-11-07 14:57:46.292126154
2025-11-07 14:57:44.114451,-84,2025-11-07 14:57:46.299818462
2025-11-07 14:57:44.114451,13823,2025-11-07 14:57:46.307510769
2025-11-07 14:57:44.114451,0,2025-11-07 14:57:46.315203077
2025-11-07 14:57:44.114451,113,2025-11-07 14:57:46.322895385
2025-11-07 14:57:44.114451,15360,2025-11-07 14:57:46.330587692
2025-11-07 14:57:44.114451,0,2025-11-07 14:57:46.338280000
2025-11-07 14:57:44.114451,60,2025-11-07 14:57:46.345972308
2025-11-07 14:57:44.114451,19712,2025-11-07 14:57:46.353664615
2025-11-07 14:57:44.114451,0,2025-11-07 14:57:46.361356923
2025-11-07 14:57:44.114451,48,2025-11-07 14:57:46.369049231
2025-11-07 14:57:44.114451,11776,2025-11-07 14:57:46.376741538
2025-11-07 14:57:44.114451,0,2025-11-07 14:57:46.384433846
2025-11-07 14:57:44.114451,58,2025-11-07 14:57:46.392126154
2025-11-07 14:57:44.114451,10496,2025-11-07 14:57:46.399818462
2025-11-07 14:57:44.114451,0,2025-11-07 14:57:46.407510769
2025-11-07 14:57:44.114451,33,2025-11-07 14:57:46.415203077
2025-11-07 14:57:44.114451,9728,2025-11-07 14:57:46.422895385
2025-11-07 14:57:44.114451,0,2025-11-07 14:57:46.430587692
2025-11-07 14:57:44.114451,36,2025-11-07 14:57:46.438280000
2025-11-07 14:57:44.114451,6144,2025-11-07 14:57:46.445972308
2025-11-07 14:57:44.114451,0,2025-11-07 14:57:46.453664615
2025-11-07 14:57:44.114451,16,2025-11-07 14:57:46.461356923
2025-11-07 14:57:44.114451,6144,2025-11-07 14:57:46.469049231
2025-11-07 14:57:44.114451,0,2025-11-07 14:57:46.476741538
2025-11-07 14:57:44.114451,21,2025-11-07 14:57:46.484433846
2025-11-07 14:57:44.114451,2304,2025-11-07 14:57:46.492126154
2025-11-07 14:57:44.114451,0,2025-11-07 14:57:46.499818462
2025-11-07 14:57:44.114451,7,2025-11-07 14:57:46.507510769
2025-11-07 14:57:44.114451,1792,2025-11-07 14:57:46.515203077
2025-11-07 14:57:44.114451,0,2025-11-07 14:57:46.522895385
2025-11-07 14:57:44.114451,4,2025-11-07 14:57:46.530587692
2025-11-07 14:57:44.114451,0,2025-11-07 14:57:46.538280000
2025-11-07 14:57:44.114451,0,2025-11-07 14:57:46.545972308
2025-11-07 14:57:44.114451,-2,2025-11-07 14:57:46.553664615
2025-11-07 14:57:44.114451,-1537,2025-11-07 14:57:46.561356923
2025-11-07 14:57:44.114451,-1,2025-11-07 14:57:46.569049231
2025-11-07 14:57:44.114451,-14,2025-11-07 14:57:46.576741538
2025-11-07 14:57:44.114451,-3329,2025-11-07 14:57:46.584433846
2025-11-07 14:57:44.114451,-1,2025-11-07 14:57:46.592126154
2025-11-07 14:57:44.114451,-16,2025-11-07 14:57:46.599818462
2025-11-07 14:57:44.654296,-19,2025-11-07 14:57:46.607510769
2025-11-07 14:57:44.654296,-3329,2025-11-07 14:57:46.615203077
2025-11-07 14:57:44.654296,-1,2025-11-07 14:57:46.622895385
2025-11-07 14:57:44.654296,-9,2025-11-07 14:57:46.630587692
2025-11-07 14:57:44.654296,-2817,2025-11-07 14:57:46.638280000
2025-11-07 14:57:44.654296,-1,2025-11-07 14:57:46.645972308
2025-11-07 14:57:44.654296,-9,2025-11-07 14:57:46.653664615
2025-11-07 14:57:44.654296,1279,2025-11-07 14:57:46.661356923
2025-11-07 14:57:44.654296,0,2025-11-07 14:57:46.669049231
2025-11-07 14:57:44.654296,7,2025-11-07 14:57:46.676741538
2025-11-07 14:57:44.654296,-1792,2025-11-07 14:57:46.684433846
2025-11-07 14:57:44.654296,-1,2025-11-07 14:57:46.692126154
2025-11-07 14:57:44.654296,-9,2025-11-07 14:57:46.699818462
2025-11-07 14:57:44.654296,-257,2025-11-07 14:57:46.707510769
2025-11-07 14:57:44.654296,-1,2025-11-07 14:57:46.715203077
2025-11-07 14:57:44.654296,-4,2025-11-07 14:57:46.722895385
2025-11-07 14:57:44.654296,255,2025-11-07 14:57:46.730587692
2025-11-07 14:57:44.654296,0,2025-11-07 14:57:46.738280000
2025-11-07 14:57:44.654296,21,2025-11-07 14:57:46.745972308
2025-11-07 14:57:44.654296,5376,2025-11-07 14:57:46.753664615
2025-11-07 14:57:44.654296,0,2025-11-07 14:57:46.761356923
2025-11-07 14:57:44.654296,2,2025-11-07 14:57:46.769049231
2025-11-07 14:57:44.654296,-512,2025-11-07 14:57:46.776741538
2025-11-07 14:57:44.654296,-1,2025-11-07 14:57:46.784433846
2025-11-07 14:57:44.654296,2,2025-11-07 14:57:46.792126154
2025-11-07 14:57:44.654296,512,2025-11-07 14:57:46.799818462
2025-11-07 14:57:44.654296,0,2025-11-07 14:57:46.807510769
2025-11-07 14:57:44.654296,-2,2025-11-07 14:57:46.815203077
2025-11-07 14:57:44.654296,-1537,2025-11-07 14:57:46.822895385
2025-11-07 14:57:44.654296,-1,2025-11-07 14:57:46.830587692
2025-11-07 14:57:44.654296,-7,2025-11-07 14:57:46.838280000
2025-11-07 14:57:44.654296,-3329,2025-11-07 14:57:46.845972308
2025-11-07 14:57:44.654296,-1,2025-11-07 14:57:46.853664615
2025-11-07 14:57:44.654296,-16,2025-11-07 14:57:46.861356923
2025-11-07 14:57:44.654296,-2817,2025-11-07 14:57:46.869049231
2025-11-07 14:57:44.654296,-1,2025-11-07 14:57:46.876741538
2025-11-07 14:57:44.654296,-12,2025-11-07 14:57:46.884433846
2025-11-07 14:57:44.654296,-4609,2025-11-07 14:57:46.892126154
2025-11-07 14:57:44.654296,-1,2025-11-07 14:57:46.899818462
2025-11-07 14:57:44.654296,-19,2025-11-07 14:57:46.907510769
2025-11-07 14:57:44.654296,-3841,2025-11-07 14:57:46.915203077
2025-11-07 14:57:44.654296,-1,2025-11-07 14:57:46.922895385
2025-11-07 14:57:44.654296,-19,2025-11-07 14:57:46.930587692
2025-11-07 14:57:44.654296,-3841,2025-11-07 14:57:46.938280000
2025-11-07 14:57:44.654296,-1,2025-11-07 14:57:46.945972308
2025-11-07 14:57:44.654296,-19,2025-11-07 14:57:46.953664615
2025-11-07 14:57:44.654296,-4609,2025-11-07 14:57:46.961356923
2025-11-07 14:57:44.654296,-1,2025-11-07 14:57:46.969049231
2025-11-07 14:57:44.654296,-12,2025-11-07 14:57:46.976741538
2025-11-07 14:57:44.654296,-3329,2025-11-07 14:57:46.984433846
2025-11-07 14:57:44.654296,-1,2025-11-07 14:57:46.992126154
2025-11-07 14:57:44.654296,-26,2025-11-07 14:57:46.999818462
2025-11-07 14:57:44.654296,-5121,2025-11-07 14:57:47.007510769
2025-11-07 14:57:44.654296,-1,2025-11-07 14:57:47.015203077
2025-11-07 14:57:44.654296,-9,2025-11-07 14:57:47.022895385
2025-11-07 14:57:44.654296,-2049,2025-11-07 14:57:47.030587692
2025-11-07 14:57:44.654296,-1,2025-11-07 14:57:47.038280000
2025-11-07 14:57:44.654296,-16,2025-11-07 14:57:47.045972308
2025-11-07 14:57:44.654296,-3329,2025-11-07 14:57:47.053664615
2025-11-07 14:57:44.654296,-1,2025-11-07 14:57:47.061356923
2025-11-07 14:57:44.654296,-7,2025-11-07 14:57:47.069049231
2025-11-07 14:57:44.654296,-2817,2025-11-07 14:57:47.076741538
2025-11-07 14:57:44.654296,-1,2025-11-07 14:57:47.084433846
2025-11-07 14:57:44.654296,-12,2025-11-07 14:57:47.092126154
2025-11-07 14:57:44.654296,-769,2025-11-07 14:57:47.099818462
2025-11-07 14:57:44.654296,-1,2025-11-07 14:57:47.107510769
2025-11-07 14:57:44.654296,0,2025-11-07 14:57:47.115203077
2025-11-07 14:57:44.654296,512,2025-11-07 14:57:47.122895385
2025-11-07 14:57:44.654296,0,2025-11-07 14:57:47.130587692
2025-11-07 14:57:44.654296,7,2025-11-07 14:57:47.138280000
2025-11-07 14:57:44.654296,1024,2025-11-07 14:57:47.145972308
2025-11-07 14:57:44.654296,0,2025-11-07 14:57:47.153664615
2025-11-07 14:57:44.654296,-14,2025-11-07 14:57:47.161356923
2025-11-07 14:57:44.654296,-8193,2025-11-07 14:57:47.169049231
2025-11-07 14:57:44.654296,-1,2025-11-07 14:57:47.176741538
2025-11-07 14:57:44.654296,-43,2025-11-07 14:57:47.184433846
2025-11-07 14:57:44.654296,-12545,2025-11-07 14:57:47.192126154
2025-11-07 14:57:44.654296,-1,2025-11-07 14:57:47.199818462
2025-11-07 14:57:44.654296,-46,2025-11-07 14:57:47.207510769
2025-11-07 14:57:44.654296,-7169,2025-11-07 14:57:47.215203077
2025-11-07 14:57:44.654296,-1,2025-11-07 14:57:47.222895385
2025-11-07 14:57:44.654296,-21,2025-11-07 14:57:47.230587692
2025-11-07 14:57:44.654296,-7169,2025-11-07 14:57:47.238280000
2025-11-07 14:57:44.654296,-1,2025-11-07 14:57:47.245972308
2025-11-07 14:57:44.654296,-26,2025-11-07 14:57:47.253664615
2025-11-07 14:57:44.654296,-4609,2025-11-07 14:57:47.261356923
2025-11-07 14:57:44.654296,-1,2025-11-07 14:57:47.269049230
2025-11-07 14:57:44.654296,-26,2025-11-07 14:57:47.276741538
2025-11-07 14:57:44.654296,-5121,2025-11-07 14:57:47.284433846
2025-11-07 14:57:44.654296,-1,2025-11-07 14:57:47.292126154
2025-11-07 14:57:44.654296,33,2025-11-07 14:57:47.299818462
2025-11-07 14:57:44.654296,-23552,2025-11-07 14:57:47.307510769
2025-11-07 14:57:44.654296,0,2025-11-07 14:57:47.315203077
2025-11-07 14:57:44.654296,181,2025-11-07 14:57:47.322895385
2025-11-07 14:57:44.654296,12800,2025-11-07 14:57:47.330587692
2025-11-07 14:57:44.654296,-1,2025-11-07 14:57:47.338280000
2025-11-07 14:57:44.654296,-766,2025-11-07 14:57:47.345972308
2025-11-07 14:57:44.654296,-7937,2025-11-07 14:57:47.353664615
2025-11-07 14:57:44.654296,-4,2025-11-07 14:57:47.361356923
2025-11-07 14:57:44.654296,-344,2025-11-07 14:57:47.369049231
2025-11-07 14:57:44.654296,-29441,2025-11-07 14:57:47.376741538
2025-11-07 14:57:44.654296,-1,2025-11-07 14:57:47.384433846
2025-11-07 14:57:44.654296,-109,2025-11-07 14:57:47.392126154
2025-11-07 14:57:44.654296,6911,2025-11-07 14:57:47.399818462
2025-11-07 14:57:44.654296,0,2025-11-07 14:57:47.407510769
2025-11-07 14:57:44.654296,121,2025-11-07 14:57:47.415203077
2025-11-07 14:57:44.654296,17152,2025-11-07 14:57:47.422895385
2025-11-07 14:57:44.654296,0,2025-11-07 14:57:47.430587692
2025-11-07 14:57:44.654296,55,2025-11-07 14:57:47.438280000
2025-11-07 14:57:45.193677,82,2025-11-07 14:57:47.445972308
2025-11-07 14:57:45.193677,15360,2025-11-07 14:57:47.453664615
2025-11-07 14:57:45.193677,0,2025-11-07 14:57:47.461356923
2025-11-07 14:57:45.193677,41,2025-11-07 14:57:47.469049231
2025-11-07 14:57:45.193677,15360,2025-11-07 14:57:47.476741538
2025-11-07 14:57:45.193677,0,2025-11-07 14:57:47.484433846
2025-11-07 14:57:45.193677,58,2025-11-07 14:57:47.492126154
2025-11-07 14:57:45.193677,9216,2025-11-07 14:57:47.499818462
2025-11-07 14:57:45.193677,0,2025-11-07 14:57:47.507510769
2025-11-07 14:57:45.193677,41,2025-11-07 14:57:47.515203077
2025-11-07 14:57:45.193677,9216,2025-11-07 14:57:47.522895385
2025-11-07 14:57:45.193677,0,2025-11-07 14:57:47.530587692
2025-11-07 14:57:45.193677,31,2025-11-07 14:57:47.538280000
2025-11-07 14:57:45.193677,14080,2025-11-07 14:57:47.545972308
2025-11-07 14:57:45.193677,0,2025-11-07 14:57:47.553664615
2025-11-07 14:57:45.193677,63,2025-11-07 14:57:47.561356923
2025-11-07 14:57:45.193677,11008,2025-11-07 14:57:47.569049231
2025-11-07 14:57:45.193677,0,2025-11-07 14:57:47.576741538
2025-11-07 14:57:45.193677,36,2025-11-07 14:57:47.584433846
2025-11-07 14:57:45.193677,7936,2025-11-07 14:57:47.592126154
2025-11-07 14:57:45.193677,0,2025-11-07 14:57:47.599818462
2025-11-07 14:57:45.193677,24,2025-11-07 14:57:47.607510769
2025-11-07 14:57:45.193677,6144,2025-11-07 14:57:47.615203077
2025-11-07 14:57:45.193677,0,2025-11-07 14:57:47.622895385
2025-11-07 14:57:45.193677,29,2025-11-07 14:57:47.630587692
2025-11-07 14:57:45.193677,4864,2025-11-07 14:57:47.638280000
2025-11-07 14:57:45.193677,0,2025-11-07 14:57:47.645972308
2025-11-07 14:57:45.193677,7,2025-11-07 14:57:47.653664615
2025-11-07 14:57:45.193677,3072,2025-11-07 14:57:47.661356923
2025-11-07 14:57:45.193677,0,2025-11-07 14:57:47.669049231
2025-11-07 14:57:45.193677,12,2025-11-07 14:57:47.676741538
2025-11-07 14:57:45.193677,-512,2025-11-07 14:57:47.684433846
2025-11-07 14:57:45.193677,-1,2025-11-07 14:57:47.692126154
2025-11-07 14:57:45.193677,-2,2025-11-07 14:57:47.699818462
2025-11-07 14:57:45.193677,3327,2025-11-07 14:57:47.707510769
2025-11-07 14:57:45.193677,0,2025-11-07 14:57:47.715203077
2025-11-07 14:57:45.193677,9,2025-11-07 14:57:47.722895385
2025-11-07 14:57:45.193677,1024,2025-11-07 14:57:47.730587692
2025-11-07 14:57:45.193677,0,2025-11-07 14:57:47.738280000
2025-11-07 14:57:45.193677,14,2025-11-07 14:57:47.745972308
2025-11-07 14:57:45.193677,4864,2025-11-07 14:57:47.753664615
2025-11-07 14:57:45.193677,0,2025-11-07 14:57:47.761356923
2025-11-07 14:57:45.193677,14,2025-11-07 14:57:47.769049231
2025-11-07 14:57:45.193677,4864,2025-11-07 14:57:47.776741538
2025-11-07 14:57:45.193677,0,2025-11-07 14:57:47.784433846
2025-11-07 14:57:45.193677,29,2025-11-07 14:57:47.792126154
2025-11-07 14:57:45.193677,5376,2025-11-07 14:57:47.799818462
2025-11-07 14:57:45.193677,0,2025-11-07 14:57:47.807510769
2025-11-07 14:57:45.193677,7,2025-11-07 14:57:47.815203077
2025-11-07 14:57:45.193677,1792,2025-11-07 14:57:47.822895385
2025-11-07 14:57:45.193677,0,2025-11-07 14:57:47.830587692
2025-11-07 14:57:45.193677,12,2025-11-07 14:57:47.838280000
2025-11-07 14:57:45.193677,3072,2025-11-07 14:57:47.845972308
2025-11-07 14:57:45.193677,0,2025-11-07 14:57:47.853664615
2025-11-07 14:57:45.193677,7,2025-11-07 14:57:47.861356923
2025-11-07 14:57:45.193677,1792,2025-11-07 14:57:47.869049231
2025-11-07 14:57:45.193677,0,2025-11-07 14:57:47.876741538
2025-11-07 14:57:45.193677,9,2025-11-07 14:57:47.884433846
2025-11-07 14:57:45.193677,2304,2025-11-07 14:57:47.892126154
2025-11-07 14:57:45.193677,0,2025-11-07 14:57:47.899818462
2025-11-07 14:57:45.193677,9,2025-11-07 14:57:47.907510769
2025-11-07 14:57:45.193677,512,2025-11-07 14:57:47.915203077
2025-11-07 14:57:45.193677,0,2025-11-07 14:57:47.922895385
2025-11-07 14:57:45.193677,0,2025-11-07 14:57:47.930587692
2025-11-07 14:57:45.193677,0,2025-11-07 14:57:47.938280000
2025-11-07 14:57:45.193677,0,2025-11-07 14:57:47.945972308
2025-11-07 14:57:45.193677,-2,2025-11-07 14:57:47.953664615
2025-11-07 14:57:45.193677,-257,2025-11-07 14:57:47.961356923
2025-11-07 14:57:45.193677,-1,2025-11-07 14:57:47.969049231
2025-11-07 14:57:45.193677,-4,2025-11-07 14:57:47.976741538
2025-11-07 14:57:45.193677,-2817,2025-11-07 14:57:47.984433846
2025-11-07 14:57:45.193677,-1,2025-11-07 14:57:47.992126154
2025-11-07 14:57:45.193677,-9,2025-11-07 14:57:47.999818462
2025-11-07 14:57:45.193677,-1537,2025-11-07 14:57:48.007510769
2025-11-07 14:57:45.193677,-1,2025-11-07 14:57:48.015203077
2025-11-07 14:57:45.193677,-4,2025-11-07 14:57:48.022895385
2025-11-07 14:57:45.193677,-257,2025-11-07 14:57:48.030587692
2025-11-07 14:57:45.193677,-1,2025-11-07 14:57:48.038280000
2025-11-07 14:57:45.193677,0,2025-11-07 14:57:48.045972308
2025-11-07 14:57:45.193677,512,2025-11-07 14:57:48.053664615
2025-11-07 14:57:45.193677,0,2025-11-07 14:57:48.061356923
2025-11-07 14:57:45.193677,7,2025-11-07 14:57:48.069049231
2025-11-07 14:57:45.193677,1792,2025-11-07 14:57:48.076741538
2025-11-07 14:57:45.193677,0,2025-11-07 14:57:48.084433846
2025-11-07 14:57:45.193677,0,2025-11-07 14:57:48.092126154
2025-11-07 14:57:45.193677,-1024,2025-11-07 14:57:48.099818462
2025-11-07 14:57:45.193677,-1,2025-11-07 14:57:48.107510769
2025-11-07 14:57:45.193677,0,2025-11-07 14:57:48.115203077
2025-11-07 14:57:45.193677,512,2025-11-07 14:57:48.122895385
2025-11-07 14:57:45.193677,0,2025-11-07 14:57:48.130587692
2025-11-07 14:57:45.193677,2,2025-11-07 14:57:48.138280000
2025-11-07 14:57:45.193677,1024,2025-11-07 14:57:48.145972308
2025-11-07 14:57:45.193677,0,2025-11-07 14:57:48.153664615
2025-11-07 14:57:45.193677,0,2025-11-07 14:57:48.161356923
2025-11-07 14:57:45.193677,-1024,2025-11-07 14:57:48.169049231
2025-11-07 14:57:45.193677,-1,2025-11-07 14:57:48.176741538
2025-11-07 14:57:45.193677,-2,2025-11-07 14:57:48.184433846
2025-11-07 14:57:45.193677,-257,2025-11-07 14:57:48.192126154
2025-11-07 14:57:45.193677,-1,2025-11-07 14:57:48.199818462
2025-11-07 14:57:45.193677,-2,2025-11-07 14:57:48.207510769
2025-11-07 14:57:45.193677,2047,2025-11-07 14:57:48.215203077
2025-11-07 14:57:45.193677,0,2025-11-07 14:57:48.222895385
2025-11-07 14:57:45.193677,19,2025-11-07 14:57:48.230587692
2025-11-07 14:57:45.193677,6656,2025-11-07 14:57:48.238280000
2025-11-07 14:57:45.193677,0,2025-11-07 14:57:48.245972308
2025-11-07 14:57:45.193677,31,2025-11-07 14:57:48.253664615
2025-11-07 14:57:45.193677,7936,2025-11-07 14:57:48.261356923
2025-11-07 14:57:45.193677,0,2025-11-07 14:57:48.269049230
2025-11-07 14:57:45.193677,14,2025-11-07 14:57:48.276741538
2025-11-07 14:57:45.824933,-12,2025-11-07 14:57:48.284433846
2025-11-07 14:57:45.824933,-5121,2025-11-07 14:57:48.292126154
2025-11-07 14:57:45.824933,-1,2025-11-07 14:57:48.299818462
2025-11-07 14:57:45.824933,-26,2025-11-07 14:57:48.307510769
2025-11-07 14:57:45.824933,-7169,2025-11-07 14:57:48.315203077
2025-11-07 14:57:45.824933,-1,2025-11-07 14:57:48.322895385
2025-11-07 14:57:45.824933,-16,2025-11-07 14:57:48.330587692
2025-11-07 14:57:45.824933,-257,2025-11-07 14:57:48.338280000
2025-11-07 14:57:45.824933,-1,2025-11-07 14:57:48.345972308
2025-11-07 14:57:45.824933,9,2025-11-07 14:57:48.353664615
2025-11-07 14:57:45.824933,4096,2025-11-07 14:57:48.361356923
2025-11-07 14:57:45.824933,0,2025-11-07 14:57:48.369049231
2025-11-07 14:57:45.824933,7,2025-11-07 14:57:48.376741538
2025-11-07 14:57:45.824933,0,2025-11-07 14:57:48.384433846
2025-11-07 14:57:45.824933,0,2025-11-07 14:57:48.392126154
2025-11-07 14:57:45.824933,7,2025-11-07 14:57:48.399818462
2025-11-07 14:57:45.824933,14848,2025-11-07 14:57:48.407510769
2025-11-07 14:57:45.824933,0,2025-11-07 14:57:48.415203077
2025-11-07 14:57:45.824933,184,2025-11-07 14:57:48.422895385
2025-11-07 14:57:45.824933,-12288,2025-11-07 14:57:48.430587692
2025-11-07 14:57:45.824933,0,2025-11-07 14:57:48.438280000
2025-11-07 14:57:45.824933,-179,2025-11-07 14:57:48.445972308
2025-11-07 14:57:45.824933,-7169,2025-11-07 14:57:48.453664615
2025-11-07 14:57:45.824933,-4,2025-11-07 14:57:48.461356923
2025-11-07 14:57:45.824933,-894,2025-11-07 14:57:48.469049231
2025-11-07 14:57:45.824933,22783,2025-11-07 14:57:48.476741538
2025-11-07 14:57:45.824933,-2,2025-11-07 14:57:48.484433846
2025-11-07 14:57:45.824933,-118,2025-11-07 14:57:48.492126154
2025-11-07 14:57:45.824933,-15105,2025-11-07 14:57:48.499818462
2025-11-07 14:57:45.824933,-1,2025-11-07 14:57:48.507510769
2025-11-07 14:57:45.824933,67,2025-11-07 14:57:48.515203077
2025-11-07 14:57:45.824933,-27904,2025-11-07 14:57:48.522895385
2025-11-07 14:57:45.824933,0,2025-11-07 14:57:48.530587692
2025-11-07 14:57:45.824933,101,2025-11-07 14:57:48.538280000
2025-11-07 14:57:45.824933,22272,2025-11-07 14:57:48.545972308
2025-11-07 14:57:45.824933,0,2025-11-07 14:57:48.553664615
2025-11-07 14:57:45.824933,109,2025-11-07 14:57:48.561356923
2025-11-07 14:57:45.824933,22784,2025-11-07 14:57:48.569049231
2025-11-07 14:57:45.824933,0,2025-11-07 14:57:48.576741538
2025-11-07 14:57:45.824933,72,2025-11-07 14:57:48.584433846
2025-11-07 14:57:45.824933,20992,2025-11-07 14:57:48.592126154
2025-11-07 14:57:45.824933,0,2025-11-07 14:57:48.599818462
2025-11-07 14:57:45.824933,77,2025-11-07 14:57:48.607510769
2025-11-07 14:57:45.824933,16640,2025-11-07 14:57:48.615203077
2025-11-07 14:57:45.824933,0,2025-11-07 14:57:48.622895385
2025-11-07 14:57:45.824933,58,2025-11-07 14:57:48.630587692
2025-11-07 14:57:45.824933,14848,2025-11-07 14:57:48.638280000
2025-11-07 14:57:45.824933,0,2025-11-07 14:57:48.645972308
2025-11-07 14:57:45.824933,58,2025-11-07 14:57:48.653664615
2025-11-07 14:57:45.824933,13568,2025-11-07 14:57:48.661356923
2025-11-07 14:57:45.824933,0,2025-11-07 14:57:48.669049231
2025-11-07 14:57:45.824933,53,2025-11-07 14:57:48.676741538
2025-11-07 14:57:45.824933,15360,2025-11-07 14:57:48.684433846
2025-11-07 14:57:45.824933,0,2025-11-07 14:57:48.692126154
2025-11-07 14:57:45.824933,60,2025-11-07 14:57:48.699818462
2025-11-07 14:57:45.824933,13568,2025-11-07 14:57:48.707510769
2025-11-07 14:57:45.824933,0,2025-11-07 14:57:48.715203077
2025-11-07 14:57:45.824933,46,2025-11-07 14:57:48.722895385
2025-11-07 14:57:45.824933,9728,2025-11-07 14:57:48.730587692
2025-11-07 14:57:45.824933,0,2025-11-07 14:57:48.738280000
2025-11-07 14:57:45.824933,38,2025-11-07 14:57:48.745972308
2025-11-07 14:57:45.824933,9216,2025-11-07 14:57:48.753664615
2025-11-07 14:57:45.824933,0,2025-11-07 14:57:48.761356923
2025-11-07 14:57:45.824933,29,2025-11-07 14:57:48.769049231
2025-11-07 14:57:45.824933,6144,2025-11-07 14:57:48.776741538
2025-11-07 14:57:45.824933,0,2025-11-07 14:57:48.784433846
2025-11-07 14:57:45.824933,19,2025-11-07 14:57:48.792126154
2025-11-07 14:57:45.824933,4864,2025-11-07 14:57:48.799818462
2025-11-07 14:57:45.824933,0,2025-11-07 14:57:48.807510769
2025-11-07 14:57:45.824933,19,2025-11-07 14:57:48.815203077
2025-11-07 14:57:45.824933,3584,2025-11-07 14:57:48.822895385
2025-11-07 14:57:45.824933,0,2025-11-07 14:57:48.830587692
2025-11-07 14:57:45.824933,14,2025-11-07 14:57:48.838280000
2025-11-07 14:57:45.824933,3584,2025-11-07 14:57:48.845972308
2025-11-07 14:57:45.824933,0,2025-11-07 14:57:48.853664615
2025-11-07 14:57:45.824933,16,2025-11-07 14:57:48.861356923
2025-11-07 14:57:45.824933,5376,2025-11-07 14:57:48.869049231
2025-11-07 14:57:45.824933,0,2025-11-07 14:57:48.876741538
2025-11-07 14:57:45.824933,24,2025-11-07 14:57:48.884433846
2025-11-07 14:57:45.824933,4864,2025-11-07 14:57:48.892126154
2025-11-07 14:57:45.824933,0,2025-11-07 14:57:48.899818462
2025-11-07 14:57:45.824933,12,2025-11-07 14:57:48.907510769
2025-11-07 14:57:45.824933,3072,2025-11-07 14:57:48.915203077
2025-11-07 14:57:45.824933,0,2025-11-07 14:57:48.922895385
2025-11-07 14:57:45.824933,14,2025-11-07 14:57:48.930587692
2025-11-07 14:57:45.824933,2304,2025-11-07 14:57:48.938280000
2025-11-07 14:57:45.824933,0,2025-11-07 14:57:48.945972308
2025-11-07 14:57:45.824933,12,2025-11-07 14:57:48.953664615
2025-11-07 14:57:45.824933,3584,2025-11-07 14:57:48.961356923
2025-11-07 14:57:45.824933,0,2025-11-07 14:57:48.969049231
2025-11-07 14:57:45.824933,7,2025-11-07 14:57:48.976741538
2025-11-07 14:57:45.824933,512,2025-11-07 14:57:48.984433846
2025-11-07 14:57:45.824933,0,2025-11-07 14:57:48.992126154
2025-11-07 14:57:45.824933,4,2025-11-07 14:57:48.999818462
2025-11-07 14:57:45.824933,1792,2025-11-07 14:57:49.007510769
2025-11-07 14:57:45.824933,0,2025-11-07 14:57:49.015203077
2025-11-07 14:57:45.824933,2,2025-11-07 14:57:49.022895385
2025-11-07 14:57:45.824933,512,2025-11-07 14:57:49.030587692
2025-11-07 14:57:45.824933,0,2025-11-07 14:57:49.038280000
2025-11-07 14:57:45.824933,7,2025-11-07 14:57:49.045972308
2025-11-07 14:57:45.824933,1024,2025-11-07 14:57:49.053664615
2025-11-07 14:57:45.824933,0,2025-11-07 14:57:49.061356923
2025-11-07 14:57:45.824933,4,2025-11-07 14:57:49.069049231
2025-11-07 14:57:45.824933,1024,2025-11-07 14:57:49.076741538
2025-11-07 14:57:45.824933,0,2025-11-07 14:57:49.084433846
2025-11-07 14:57:45.824933,2,2025-11-07 14:57:49.092126154
2025-11-07 14:57:45.824933,1024,2025-11-07 14:57:49.099818462
2025-11-07 14:57:45.824933,0,2025-11-07 14:57:49.107510769
2025-11-07 14:57:45.824933,0,2025-11-07 14:57:49.115203077
2025-11-07 14:57:46.317918,-7,2025-11-07 14:57:49.122895385
2025-11-07 14:57:46.317918,-769,2025-11-07 14:57:49.130587692
2025-11-07 14:57:46.317918,-1,2025-11-07 14:57:49.138280000
2025-11-07 14:57:46.317918,-4,2025-11-07 14:57:49.145972308
2025-11-07 14:57:46.317918,-769,2025-11-07 14:57:49.153664615
2025-11-07 14:57:46.317918,-1,2025-11-07 14:57:49.161356923
2025-11-07 14:57:46.317918,-2,2025-11-07 14:57:49.169049231
2025-11-07 14:57:46.317918,-257,2025-11-07 14:57:49.176741538
2025-11-07 14:57:46.317918,-1,2025-11-07 14:57:49.184433846
2025-11-07 14:57:46.317918,-2,2025-11-07 14:57:49.192126154
2025-11-07 14:57:46.317918,-257,2025-11-07 14:57:49.199818462
2025-11-07 14:57:46.317918,-1,2025-11-07 14:57:49.207510769
2025-11-07 14:57:46.317918,-4,2025-11-07 14:57:49.215203077
2025-11-07 14:57:46.317918,-1537,2025-11-07 14:57:49.222895385
2025-11-07 14:57:46.317918,-1,2025-11-07 14:57:49.230587692
2025-11-07 14:57:46.317918,-7,2025-11-07 14:57:49.238280000
2025-11-07 14:57:46.317918,2047,2025-11-07 14:57:49.245972308
2025-11-07 14:57:46.317918,0,2025-11-07 14:57:49.253664615
2025-11-07 14:57:46.317918,7,2025-11-07 14:57:49.261356923
2025-11-07 14:57:46.317918,-1024,2025-11-07 14:57:49.269049230
2025-11-07 14:57:46.317918,-1,2025-11-07 14:57:49.276741538
2025-11-07 14:57:46.317918,2,2025-11-07 14:57:49.284433846
2025-11-07 14:57:46.317918,6144,2025-11-07 14:57:49.292126154
2025-11-07 14:57:46.317918,0,2025-11-07 14:57:49.299818462
2025-11-07 14:57:46.317918,29,2025-11-07 14:57:49.307510769
2025-11-07 14:57:46.317918,4096,2025-11-07 14:57:49.315203077
2025-11-07 14:57:46.317918,0,2025-11-07 14:57:49.322895385
2025-11-07 14:57:46.317918,9,2025-11-07 14:57:49.330587692
2025-11-07 14:57:46.317918,4864,2025-11-07 14:57:49.338280000
2025-11-07 14:57:46.317918,0,2025-11-07 14:57:49.345972308
2025-11-07 14:57:46.317918,26,2025-11-07 14:57:49.353664615
2025-11-07 14:57:46.317918,7424,2025-11-07 14:57:49.361356923
2025-11-07 14:57:46.317918,0,2025-11-07 14:57:49.369049231
2025-11-07 14:57:46.317918,36,2025-11-07 14:57:49.376741538
2025-11-07 14:57:46.317918,9728,2025-11-07 14:57:49.384433846
2025-11-07 14:57:46.317918,0,2025-11-07 14:57:49.392126154
2025-11-07 14:57:46.317918,24,2025-11-07 14:57:49.399818462
2025-11-07 14:57:46.317918,-512,2025-11-07 14:57:49.407510769
2025-11-07 14:57:46.317918,-1,2025-11-07 14:57:49.415203077
2025-11-07 14:57:46.317918,-19,2025-11-07 14:57:49.422895385
2025-11-07 14:57:46.317918,-4609,2025-11-07 14:57:49.430587692
2025-11-07 14:57:46.317918,-1,2025-11-07 14:57:49.438280000
2025-11-07 14:57:46.317918,-21,2025-11-07 14:57:49.445972308
2025-11-07 14:57:46.317918,-5121,2025-11-07 14:57:49.453664615
2025-11-07 14:57:46.317918,-1,2025-11-07 14:57:49.461356923
2025-11-07 14:57:46.317918,-7,2025-11-07 14:57:49.469049231
2025-11-07 14:57:46.317918,767,2025-11-07 14:57:49.476741538
2025-11-07 14:57:46.317918,0,2025-11-07 14:57:49.484433846
2025-11-07 14:57:46.317918,-7,2025-11-07 14:57:49.492126154
2025-11-07 14:57:46.317918,-2817,2025-11-07 14:57:49.499818462
2025-11-07 14:57:46.317918,-1,2025-11-07 14:57:49.507510769
2025-11-07 14:57:46.317918,-4,2025-11-07 14:57:49.515203077
2025-11-07 14:57:46.317918,-769,2025-11-07 14:57:49.522895385
2025-11-07 14:57:46.317918,-1,2025-11-07 14:57:49.530587692
2025-11-07 14:57:46.317918,2,2025-11-07 14:57:49.538280000
2025-11-07 14:57:46.317918,24832,2025-11-07 14:57:49.545972308
2025-11-07 14:57:46.317918,0,2025-11-07 14:57:49.553664615
2025-11-07 14:57:46.317918,220,2025-11-07 14:57:49.561356923
2025-11-07 14:57:46.317918,17152,2025-11-07 14:57:49.569049231
2025-11-07 14:57:46.317918,0,2025-11-07 14:57:49.576741538
2025-11-07 14:57:46.317918,-511,2025-11-07 14:57:49.584433846
2025-11-07 14:57:46.317918,19711,2025-11-07 14:57:49.592126154
2025-11-07 14:57:46.317918,-4,2025-11-07 14:57:49.599818462
2025-11-07 14:57:46.317918,-686,2025-11-07 14:57:49.607510769
2025-11-07 14:57:46.317918,8191,2025-11-07 14:57:49.615203077
2025-11-07 14:57:46.317918,-1,2025-11-07 14:57:49.622895385
2025-11-07 14:57:46.317918,-84,2025-11-07 14:57:49.630587692
2025-11-07 14:57:46.317918,255,2025-11-07 14:57:49.638280000
2025-11-07 14:57:46.317918,0,2025-11-07 14:57:49.645972308
2025-11-07 14:57:46.317918,128,2025-11-07 14:57:49.653664615
2025-11-07 14:57:46.317918,-32256,2025-11-07 14:57:49.661356923
2025-11-07 14:57:46.317918,0,2025-11-07 14:57:49.669049231
2025-11-07 14:57:46.317918,82,2025-11-07 14:57:49.676741538
2025-11-07 14:57:46.317918,22272,2025-11-07 14:57:49.684433846
2025-11-07 14:57:46.317918,0,2025-11-07 14:57:49.692126154
2025-11-07 14:57:46.317918,94,2025-11-07 14:57:49.699818462
2025-11-07 14:57:46.317918,20992,2025-11-07 14:57:49.707510769
2025-11-07 14:57:46.317918,0,2025-11-07 14:57:49.715203077
2025-11-07 14:57:46.317918,82,2025-11-07 14:57:49.722895385
2025-11-07 14:57:46.317918,19712,2025-11-07 14:57:49.730587692
2025-11-07 14:57:46.317918,0,2025-11-07 14:57:49.738280000
2025-11-07 14:57:46.317918,60,2025-11-07 14:57:49.745972308
2025-11-07 14:57:46.317918,14848,2025-11-07 14:57:49.753664615
2025-11-07 14:57:46.317918,0,2025-11-07 14:57:49.761356923
2025-11-07 14:57:46.317918,65,2025-11-07 14:57:49.769049231
2025-11-07 14:57:46.317918,16640,2025-11-07 14:57:49.776741538
2025-11-07 14:57:46.317918,0,2025-11-07 14:57:49.784433846
2025-11-07 14:57:46.317918,58,2025-11-07 14:57:49.792126154
2025-11-07 14:57:46.317918,13568,2025-11-07 14:57:49.799818462
2025-11-07 14:57:46.317918,0,2025-11-07 14:57:49.807510769
2025-11-07 14:57:46.317918,53,2025-11-07 14:57:49.815203077
2025-11-07 14:57:46.317918,14080,2025-11-07 14:57:49.822895385
2025-11-07 14:57:46.317918,0,2025-11-07 14:57:49.830587692
2025-11-07 14:57:46.317918,53,2025-11-07 14:57:49.838280000
2025-11-07 14:57:46.317918,12800,2025-11-07 14:57:49.845972308
2025-11-07 14:57:46.317918,0,2025-11-07 14:57:49.853664615
2025-11-07 14:57:46.317918,43,2025-11-07 14:57:49.861356923
2025-11-07 14:57:46.317918,10496,2025-11-07 14:57:49.869049231
2025-11-07 14:57:46.317918,0,2025-11-07 14:57:49.876741538
2025-11-07 14:57:46.317918,38,2025-11-07 14:57:49.884433846
2025-11-07 14:57:46.317918,7424,2025-11-07 14:57:49.892126154
2025-11-07 14:57:46.317918,0,2025-11-07 14:57:49.899818462
2025-11-07 14:57:46.317918,26,2025-11-07 14:57:49.907510769
2025-11-07 14:57:46.317918,7424,2025-11-07 14:57:49.915203077
2025-11-07 14:57:46.317918,0,2025-11-07 14:57:49.922895385
2025-11-07 14:57:46.317918,21,2025-11-07 14:57:49.930587692
2025-11-07 14:57:46.317918,3072,2025-11-07 14:57:49.938280000
2025-11-07 14:57:46.317918,0,2025-11-07 14:57:49.945972308
2025-11-07 14:57:46.317918,9,2025-11-07 14:57:49.953664615
2025-11-07 14:57:46.904815,14,2025-11-07 14:57:49.961356923
2025-11-07 14:57:46.904815,3584,2025-11-07 14:57:49.969049231
2025-11-07 14:57:46.904815,0,2025-11-07 14:57:49.976741538
2025-11-07 14:57:46.904815,12,2025-11-07 14:57:49.984433846
2025-11-07 14:57:46.904815,3584,2025-11-07 14:57:49.992126154
2025-11-07 14:57:46.904815,0,2025-11-07 14:57:49.999818462
2025-11-07 14:57:46.904815,16,2025-11-07 14:57:50.007510769
2025-11-07 14:57:46.904815,3584,2025-11-07 14:57:50.015203077
2025-11-07 14:57:46.904815,0,2025-11-07 14:57:50.022895385
2025-11-07 14:57:46.904815,21,2025-11-07 14:57:50.030587692
2025-11-07 14:57:46.904815,9728,2025-11-07 14:57:50.038280000
2025-11-07 14:57:46.904815,0,2025-11-07 14:57:50.045972308
2025-11-07 14:57:46.904815,36,2025-11-07 14:57:50.053664615
2025-11-07 14:57:46.904815,5376,2025-11-07 14:57:50.061356923
2025-11-07 14:57:46.904815,0,2025-11-07 14:57:50.069049231
2025-11-07 14:57:46.904815,16,2025-11-07 14:57:50.076741538
2025-11-07 14:57:46.904815,4096,2025-11-07 14:57:50.084433846
2025-11-07 14:57:46.904815,0,2025-11-07 14:57:50.092126154
2025-11-07 14:57:46.904815,21,2025-11-07 14:57:50.099818462
2025-11-07 14:57:46.904815,4864,2025-11-07 14:57:50.107510769
2025-11-07 14:57:46.904815,0,2025-11-07 14:57:50.115203077
2025-11-07 14:57:46.904815,14,2025-11-07 14:57:50.122895385
2025-11-07 14:57:46.904815,4864,2025-11-07 14:57:50.130587692
2025-11-07 14:57:46.904815,0,2025-11-07 14:57:50.138280000
2025-11-07 14:57:46.904815,21,2025-11-07 14:57:50.145972308
2025-11-07 14:57:46.904815,4864,2025-11-07 14:57:50.153664615
2025-11-07 14:57:46.904815,0,2025-11-07 14:57:50.161356923
2025-11-07 14:57:46.904815,16,2025-11-07 14:57:50.169049231
2025-11-07 14:57:46.904815,3072,2025-11-07 14:57:50.176741538
2025-11-07 14:57:46.904815,0,2025-11-07 14:57:50.184433846
2025-11-07 14:57:46.904815,7,2025-11-07 14:57:50.192126154
2025-11-07 14:57:46.904815,2304,2025-11-07 14:57:50.199818462
2025-11-07 14:57:46.904815,0,2025-11-07 14:57:50.207510769
2025-11-07 14:57:46.904815,9,2025-11-07 14:57:50.215203077
2025-11-07 14:57:46.904815,512,2025-11-07 14:57:50.222895385
2025-11-07 14:57:46.904815,0,2025-11-07 14:57:50.230587692
2025-11-07 14:57:46.904815,2,2025-11-07 14:57:50.238280000
2025-11-07 14:57:46.904815,1024,2025-11-07 14:57:50.245972308
2025-11-07 14:57:46.904815,0,2025-11-07 14:57:50.253664615
2025-11-07 14:57:46.904815,2,2025-11-07 14:57:50.261356923
2025-11-07 14:57:46.904815,512,2025-11-07 14:57:50.269049230
2025-11-07 14:57:46.904815,0,2025-11-07 14:57:50.276741538
2025-11-07 14:57:46.904815,2,2025-11-07 14:57:50.284433846
2025-11-07 14:57:46.904815,1024,2025-11-07 14:57:50.292126154
2025-11-07 14:57:46.904815,0,2025-11-07 14:57:50.299818462
2025-11-07 14:57:46.904815,4,2025-11-07 14:57:50.307510769
2025-11-07 14:57:46.904815,512,2025-11-07 14:57:50.315203077
2025-11-07 14:57:46.904815,0,2025-11-07 14:57:50.322895385
2025-11-07 14:57:46.904815,4,2025-11-07 14:57:50.330587692
2025-11-07 14:57:46.904815,4864,2025-11-07 14:57:50.338280000
2025-11-07 14:57:46.904815,0,2025-11-07 14:57:50.345972308
2025-11-07 14:57:46.904815,19,2025-11-07 14:57:50.353664615
2025-11-07 14:57:46.904815,2304,2025-11-07 14:57:50.361356923
2025-11-07 14:57:46.904815,0,2025-11-07 14:57:50.369049231
2025-11-07 14:57:46.904815,14,2025-11-07 14:57:50.376741538
2025-11-07 14:57:46.904815,3584,2025-11-07 14:57:50.384433846
2025-11-07 14:57:46.904815,0,2025-11-07 14:57:50.392126154
2025-11-07 14:57:46.904815,7,2025-11-07 14:57:50.399818462
2025-11-07 14:57:46.904815,1792,2025-11-07 14:57:50.407510769
2025-11-07 14:57:46.904815,0,2025-11-07 14:57:50.415203077
2025-11-07 14:57:46.904815,7,2025-11-07 14:57:50.422895385
2025-11-07 14:57:46.904815,1792,2025-11-07 14:57:50.430587692
2025-11-07 14:57:46.904815,0,2025-11-07 14:57:50.438280000
2025-11-07 14:57:46.904815,9,2025-11-07 14:57:50.445972308
2025-11-07 14:57:46.904815,1024,2025-11-07 14:57:50.453664615
2025-11-07 14:57:46.904815,0,2025-11-07 14:57:50.461356923
2025-11-07 14:57:46.904815,4,2025-11-07 14:57:50.469049231
2025-11-07 14:57:46.904815,2304,2025-11-07 14:57:50.476741538
2025-11-07 14:57:46.904815,0,2025-11-07 14:57:50.484433846
2025-11-07 14:57:46.904815,9,2025-11-07 14:57:50.492126154
2025-11-07 14:57:46.904815,4864,2025-11-07 14:57:50.499818462
2025-11-07 14:57:46.904815,0,2025-11-07 14:57:50.507510769
2025-11-07 14:57:46.904815,26,2025-11-07 14:57:50.515203077
2025-11-07 14:57:46.904815,6656,2025-11-07 14:57:50.522895385
2025-11-07 14:57:46.904815,0,2025-11-07 14:57:50.530587692
2025-11-07 14:57:46.904815,31,2025-11-07 14:57:50.538280000
2025-11-07 14:57:46.904815,4096,2025-11-07 14:57:50.545972308
2025-11-07 14:57:46.904815,0,2025-11-07 14:57:50.553664615
2025-11-07 14:57:46.904815,-12,2025-11-07 14:57:50.561356923
2025-11-07 14:57:46.904815,-3841,2025-11-07 14:57:50.569049231
2025-11-07 14:57:46.904815,-1,2025-11-07 14:57:50.576741538
2025-11-07 14:57:46.904815,-19,2025-11-07 14:57:50.584433846
2025-11-07 14:57:46.904815,-7169,2025-11-07 14:57:50.592126154
2025-11-07 14:57:46.904815,-1,2025-11-07 14:57:50.599818462
2025-11-07 14:57:46.904815,-19,2025-11-07 14:57:50.607510769
2025-11-07 14:57:46.904815,-257,2025-11-07 14:57:50.615203077
2025-11-07 14:57:46.904815,-1,2025-11-07 14:57:50.622895385
2025-11-07 14:57:46.904815,-4,2025-11-07 14:57:50.630587692
2025-11-07 14:57:46.904815,-2049,2025-11-07 14:57:50.638280000
2025-11-07 14:57:46.904815,-1,2025-11-07 14:57:50.645972308
2025-11-07 14:57:46.904815,-4,2025-11-07 14:57:50.653664615
2025-11-07 14:57:46.904815,-2049,2025-11-07 14:57:50.661356923
2025-11-07 14:57:46.904815,-1,2025-11-07 14:57:50.669049231
2025-11-07 14:57:46.904815,-14,2025-11-07 14:57:50.676741538
2025-11-07 14:57:46.904815,5631,2025-11-07 14:57:50.684433846
2025-11-07 14:57:46.904815,0,2025-11-07 14:57:50.692126154
2025-11-07 14:57:46.904815,130,2025-11-07 14:57:50.699818462
2025-11-07 14:57:46.904815,-10496,2025-11-07 14:57:50.707510769
2025-11-07 14:57:46.904815,0,2025-11-07 14:57:50.715203077
2025-11-07 14:57:46.904815,-29,2025-11-07 14:57:50.722895385
2025-11-07 14:57:46.904815,-29953,2025-11-07 14:57:50.730587692
2025-11-07 14:57:46.904815,-3,2025-11-07 14:57:50.738280000
2025-11-07 14:57:46.904815,-919,2025-11-07 14:57:50.745972308
2025-11-07 14:57:46.904815,-5633,2025-11-07 14:57:50.753664615
2025-11-07 14:57:46.904815,-3,2025-11-07 14:57:50.761356923
2025-11-07 14:57:46.904815,-147,2025-11-07 14:57:50.769049231
2025-11-07 14:57:46.904815,-21249,2025-11-07 14:57:50.776741538
2025-11-07 14:57:46.904815,-1,2025-11-07 14:57:50.784433846
2025-11-07 14:57:46.904815,9,2025-11-07 14:57:50.792126154
2025-11-07 14:57:47.444864,130,2025-11-07 14:57:50.799818462
2025-11-07 14:57:47.444864,28928,2025-11-07 14:57:50.807510769
2025-11-07 14:57:47.444864,0,2025-11-07 14:57:50.815203077
2025-11-07 14:57:47.444864,72,2025-11-07 14:57:50.822895385
2025-11-07 14:57:47.444864,22784,2025-11-07 14:57:50.830587692
2025-11-07 14:57:47.444864,0,2025-11-07 14:57:50.838280000
2025-11-07 14:57:47.444864,89,2025-11-07 14:57:50.845972308
2025-11-07 14:57:47.444864,17152,2025-11-07 14:57:50.853664615
2025-11-07 14:57:47.444864,0,2025-11-07 14:57:50.861356923
2025-11-07 14:57:47.444864,67,2025-11-07 14:57:50.869049231
2025-11-07 14:57:47.444864,17920,2025-11-07 14:57:50.876741538
2025-11-07 14:57:47.444864,0,2025-11-07 14:57:50.884433846
2025-11-07 14:57:47.444864,60,2025-11-07 14:57:50.892126154
2025-11-07 14:57:47.444864,15360,2025-11-07 14:57:50.899818462
2025-11-07 14:57:47.444864,0,2025-11-07 14:57:50.907510769
2025-11-07 14:57:47.444864,80,2025-11-07 14:57:50.915203077
2025-11-07 14:57:47.444864,21504,2025-11-07 14:57:50.922895385
2025-11-07 14:57:47.444864,0,2025-11-07 14:57:50.930587692
2025-11-07 14:57:47.444864,65,2025-11-07 14:57:50.938280000
2025-11-07 14:57:47.444864,16128,2025-11-07 14:57:50.945972308
2025-11-07 14:57:47.444864,0,2025-11-07 14:57:50.953664615
2025-11-07 14:57:47.444864,67,2025-11-07 14:57:50.961356923
2025-11-07 14:57:47.444864,14080,2025-11-07 14:57:50.969049231
2025-11-07 14:57:47.444864,0,2025-11-07 14:57:50.976741538
2025-11-07 14:57:47.444864,50,2025-11-07 14:57:50.984433846
2025-11-07 14:57:47.444864,12800,2025-11-07 14:57:50.992126154
2025-11-07 14:57:47.444864,0,2025-11-07 14:57:50.999818462
2025-11-07 14:57:47.444864,43,2025-11-07 14:57:51.007510769
2025-11-07 14:57:47.444864,11008,2025-11-07 14:57:51.015203077
2025-11-07 14:57:47.444864,0,2025-11-07 14:57:51.022895385
2025-11-07 14:57:47.444864,41,2025-11-07 14:57:51.030587692
2025-11-07 14:57:47.444864,8448,2025-11-07 14:57:51.038280000
2025-11-07 14:57:47.444864,0,2025-11-07 14:57:51.045972308
2025-11-07 14:57:47.444864,31,2025-11-07 14:57:51.053664615
2025-11-07 14:57:47.444864,6656,2025-11-07 14:57:51.061356923
2025-11-07 14:57:47.444864,0,2025-11-07 14:57:51.069049231
2025-11-07 14:57:47.444864,26,2025-11-07 14:57:51.076741538
2025-11-07 14:57:47.444864,8448,2025-11-07 14:57:51.084433846
2025-11-07 14:57:47.444864,0,2025-11-07 14:57:51.092126154
2025-11-07 14:57:47.444864,33,2025-11-07 14:57:51.099818462
2025-11-07 14:57:47.444864,6656,2025-11-07 14:57:51.107510769
2025-11-07 14:57:47.444864,0,2025-11-07 14:57:51.115203077
2025-11-07 14:57:47.444864,21,2025-11-07 14:57:51.122895385
2025-11-07 14:57:47.444864,6144,2025-11-07 14:57:51.130587692
2025-11-07 14:57:47.444864,0,2025-11-07 14:57:51.138280000
2025-11-07 14:57:47.444864,24,2025-11-07 14:57:51.145972308
2025-11-07 14:57:47.444864,6144,2025-11-07 14:57:51.153664615
2025-11-07 14:57:47.444864,0,2025-11-07 14:57:51.161356923
2025-11-07 14:57:47.444864,24,2025-11-07 14:57:51.169049231
2025-11-07 14:57:47.444864,5376,2025-11-07 14:57:51.176741538
2025-11-07 14:57:47.444864,0,2025-11-07 14:57:51.184433846
2025-11-07 14:57:47.444864,24,2025-11-07 14:57:51.192126154
2025-11-07 14:57:47.444864,6144,2025-11-07 14:57:51.199818462
2025-11-07 14:57:47.444864,0,2025-11-07 14:57:51.207510769
2025-11-07 14:57:47.444864,19,2025-11-07 14:57:51.215203077
2025-11-07 14:57:47.444864,4864,2025-11-07 14:57:51.222895385
2025-11-07 14:57:47.444864,0,2025-11-07 14:57:51.230587692
2025-11-07 14:57:47.444864,19,2025-11-07 14:57:51.238280000
2025-11-07 14:57:47.444864,4096,2025-11-07 14:57:51.245972308
2025-11-07 14:57:47.444864,0,2025-11-07 14:57:51.253664615
2025-11-07 14:57:47.444864,24,2025-11-07 14:57:51.261356923
2025-11-07 14:57:47.444864,6656,2025-11-07 14:57:51.269049230
2025-11-07 14:57:47.444864,0,2025-11-07 14:57:51.276741538
2025-11-07 14:57:47.444864,19,2025-11-07 14:57:51.284433846
2025-11-07 14:57:47.444864,3072,2025-11-07 14:57:51.292126154
2025-11-07 14:57:47.444864,0,2025-11-07 14:57:51.299818462
2025-11-07 14:57:47.444864,12,2025-11-07 14:57:51.307510769
2025-11-07 14:57:47.444864,3584,2025-11-07 14:57:51.315203077
2025-11-07 14:57:47.444864,0,2025-11-07 14:57:51.322895385
2025-11-07 14:57:47.444864,12,2025-11-07 14:57:51.330587692
2025-11-07 14:57:47.444864,2304,2025-11-07 14:57:51.338280000
2025-11-07 14:57:47.444864,0,2025-11-07 14:57:51.345972308
2025-11-07 14:57:47.444864,9,2025-11-07 14:57:51.353664615
2025-11-07 14:57:47.444864,1792,2025-11-07 14:57:51.361356923
2025-11-07 14:57:47.444864,0,2025-11-07 14:57:51.369049231
2025-11-07 14:57:47.444864,9,2025-11-07 14:57:51.376741538
2025-11-07 14:57:47.444864,3072,2025-11-07 14:57:51.384433846
2025-11-07 14:57:47.444864,0,2025-11-07 14:57:51.392126154
2025-11-07 14:57:47.444864,7,2025-11-07 14:57:51.399818462
2025-11-07 14:57:47.444864,1024,2025-11-07 14:57:51.407510769
2025-11-07 14:57:47.444864,0,2025-11-07 14:57:51.415203077
2025-11-07 14:57:47.444864,7,2025-11-07 14:57:51.422895385
2025-11-07 14:57:47.444864,3072,2025-11-07 14:57:51.430587692
2025-11-07 14:57:47.444864,0,2025-11-07 14:57:51.438280000
2025-11-07 14:57:47.444864,14,2025-11-07 14:57:51.445972308
2025-11-07 14:57:47.444864,4096,2025-11-07 14:57:51.453664615
2025-11-07 14:57:47.444864,0,2025-11-07 14:57:51.461356923
2025-11-07 14:57:47.444864,16,2025-11-07 14:57:51.469049231
2025-11-07 14:57:47.444864,4096,2025-11-07 14:57:51.476741538
2025-11-07 14:57:47.444864,0,2025-11-07 14:57:51.484433846
2025-11-07 14:57:47.444864,19,2025-11-07 14:57:51.492126154
2025-11-07 14:57:47.444864,3584,2025-11-07 14:57:51.499818462
2025-11-07 14:57:47.444864,0,2025-11-07 14:57:51.507510769
2025-11-07 14:57:47.444864,14,2025-11-07 14:57:51.515203077
2025-11-07 14:57:47.444864,4864,2025-11-07 14:57:51.522895385
2025-11-07 14:57:47.444864,0,2025-11-07 14:57:51.530587692
2025-11-07 14:57:47.444864,16,2025-11-07 14:57:51.538280000
2025-11-07 14:57:47.444864,1792,2025-11-07 14:57:51.545972308
2025-11-07 14:57:47.444864,0,2025-11-07 14:57:51.553664615
2025-11-07 14:57:47.444864,12,2025-11-07 14:57:51.561356923
2025-11-07 14:57:47.444864,3584,2025-11-07 14:57:51.569049231
2025-11-07 14:57:47.444864,0,2025-11-07 14:57:51.576741538
2025-11-07 14:57:47.444864,14,2025-11-07 14:57:51.584433846
2025-11-07 14:57:47.444864,3584,2025-11-07 14:57:51.592126154
2025-11-07 14:57:47.444864,0,2025-11-07 14:57:51.599818462
2025-11-07 14:57:47.444864,14,2025-11-07 14:57:51.607510769
2025-11-07 14:57:47.444864,3072,2025-11-07 14:57:51.615203077
2025-11-07 14:57:47.444864,0,2025-11-07 14:57:51.622895385
2025-11-07 14:57:47.444864,12,2025-11-07 14:57:51.630587692
2025-11-07 14:57:48.074387,9,2025-11-07 14:57:51.638280000
2025-11-07 14:57:48.074387,4096,2025-11-07 14:57:51.645972308
2025-11-07 14:57:48.074387,0,2025-11-07 14:57:51.653664615
2025-11-07 14:57:48.074387,24,2025-11-07 14:57:51.661356923
2025-11-07 14:57:48.074387,6656,2025-11-07 14:57:51.669049231
2025-11-07 14:57:48.074387,0,2025-11-07 14:57:51.676741538
2025-11-07 14:57:48.074387,31,2025-11-07 14:57:51.684433846
2025-11-07 14:57:48.074387,9728,2025-11-07 14:57:51.692126154
2025-11-07 14:57:48.074387,0,2025-11-07 14:57:51.699818462
2025-11-07 14:57:48.074387,38,2025-11-07 14:57:51.707510769
2025-11-07 14:57:48.074387,8448,2025-11-07 14:57:51.715203077
2025-11-07 14:57:48.074387,0,2025-11-07 14:57:51.722895385
2025-11-07 14:57:48.074387,21,2025-11-07 14:57:51.730587692
2025-11-07 14:57:48.074387,512,2025-11-07 14:57:51.738280000
2025-11-07 14:57:48.074387,0,2025-11-07 14:57:51.745972308
2025-11-07 14:57:48.074387,-9,2025-11-07 14:57:51.753664615
2025-11-07 14:57:48.074387,-769,2025-11-07 14:57:51.761356923
2025-11-07 14:57:48.074387,-1,2025-11-07 14:57:51.769049231
2025-11-07 14:57:48.074387,12,2025-11-07 14:57:51.776741538
2025-11-07 14:57:48.074387,5376,2025-11-07 14:57:51.784433846
2025-11-07 14:57:48.074387,0,2025-11-07 14:57:51.792126154
2025-11-07 14:57:48.074387,14,2025-11-07 14:57:51.799818462
2025-11-07 14:57:48.074387,2304,2025-11-07 14:57:51.807510769
2025-11-07 14:57:48.074387,0,2025-11-07 14:57:51.815203077
2025-11-07 14:57:48.074387,14,2025-11-07 14:57:51.822895385
2025-11-07 14:57:48.074387,4096,2025-11-07 14:57:51.830587692
2025-11-07 14:57:48.074387,0,2025-11-07 14:57:51.838280000
2025-11-07 14:57:48.074387,29,2025-11-07 14:57:51.845972308
2025-11-07 14:57:48.074387,22272,2025-11-07 14:57:51.853664615
2025-11-07 14:57:48.074387,0,2025-11-07 14:57:51.861356923
2025-11-07 14:57:48.074387,203,2025-11-07 14:57:51.869049231
2025-11-07 14:57:48.074387,-19200,2025-11-07 14:57:51.876741538
2025-11-07 14:57:48.074387,0,2025-11-07 14:57:51.884433846
2025-11-07 14:57:48.074387,-252,2025-11-07 14:57:51.892126154
2025-11-07 14:57:48.074387,-11521,2025-11-07 14:57:51.899818462
2025-11-07 14:57:48.074387,-4,2025-11-07 14:57:51.907510769
2025-11-07 14:57:48.074387,-788,2025-11-07 14:57:51.915203077
2025-11-07 14:57:48.074387,-11777,2025-11-07 14:57:51.922895385
2025-11-07 14:57:48.074387,-2,2025-11-07 14:57:51.930587692
2025-11-07 14:57:48.074387,-65,2025-11-07 14:57:51.938280000
2025-11-07 14:57:48.074387,-7681,2025-11-07 14:57:51.945972308
2025-11-07 14:57:48.074387,-1,2025-11-07 14:57:51.953664615
2025-11-07 14:57:48.074387,92,2025-11-07 14:57:51.961356923
2025-11-07 14:57:48.074387,-26624,2025-11-07 14:57:51.969049231
2025-11-07 14:57:48.074387,0,2025-11-07 14:57:51.976741538
2025-11-07 14:57:48.074387,106,2025-11-07 14:57:51.984433846
2025-11-07 14:57:48.074387,24832,2025-11-07 14:57:51.992126154
2025-11-07 14:57:48.074387,0,2025-11-07 14:57:51.999818462
2025-11-07 14:57:48.074387,111,2025-11-07 14:57:52.007510769
2025-11-07 14:57:48.074387,24064,2025-11-07 14:57:52.015203077
2025-11-07 14:57:48.074387,0,2025-11-07 14:57:52.022895385
2025-11-07 14:57:48.074387,82,2025-11-07 14:57:52.030587692
2025-11-07 14:57:48.074387,20992,2025-11-07 14:57:52.038280000
2025-11-07 14:57:48.074387,0,2025-11-07 14:57:52.045972308
2025-11-07 14:57:48.074387,80,2025-11-07 14:57:52.053664615
2025-11-07 14:57:48.074387,19712,2025-11-07 14:57:52.061356923
2025-11-07 14:57:48.074387,0,2025-11-07 14:57:52.069049231
2025-11-07 14:57:48.074387,72,2025-11-07 14:57:52.076741538
2025-11-07 14:57:48.074387,16640,2025-11-07 14:57:52.084433846
2025-11-07 14:57:48.074387,0,2025-11-07 14:57:52.092126154
2025-11-07 14:57:48.074387,63,2025-11-07 14:57:52.099818462
2025-11-07 14:57:48.074387,16128,2025-11-07 14:57:52.107510769
2025-11-07 14:57:48.074387,0,2025-11-07 14:57:52.115203077
2025-11-07 14:57:48.074387,67,2025-11-07 14:57:52.122895385
2025-11-07 14:57:48.074387,17152,2025-11-07 14:57:52.130587692
2025-11-07 14:57:48.074387,0,2025-11-07 14:57:52.138280000
2025-11-07 14:57:48.074387,60,2025-11-07 14:57:52.145972308
2025-11-07 14:57:48.074387,13568,2025-11-07 14:57:52.153664615
2025-11-07 14:57:48.074387,0,2025-11-07 14:57:52.161356923
2025-11-07 14:57:48.074387,50,2025-11-07 14:57:52.169049231
2025-11-07 14:57:48.074387,14080,2025-11-07 14:57:52.176741538
2025-11-07 14:57:48.074387,0,2025-11-07 14:57:52.184433846
2025-11-07 14:57:48.074387,53,2025-11-07 14:57:52.192126154
2025-11-07 14:57:48.074387,11008,2025-11-07 14:57:52.199818462
2025-11-07 14:57:48.074387,0,2025-11-07 14:57:52.207510769
2025-11-07 14:57:48.074387,36,2025-11-07 14:57:52.215203077
2025-11-07 14:57:48.074387,8448,2025-11-07 14:57:52.222895385
2025-11-07 14:57:48.074387,0,2025-11-07 14:57:52.230587692
2025-11-07 14:57:48.074387,33,2025-11-07 14:57:52.238280000
2025-11-07 14:57:48.074387,8448,2025-11-07 14:57:52.245972308
2025-11-07 14:57:48.074387,0,2025-11-07 14:57:52.253664615
2025-11-07 14:57:48.074387,36,2025-11-07 14:57:52.261356923
2025-11-07 14:57:48.074387,9216,2025-11-07 14:57:52.269049230
2025-11-07 14:57:48.074387,0,2025-11-07 14:57:52.276741538
2025-11-07 14:57:48.074387,29,2025-11-07 14:57:52.284433846
2025-11-07 14:57:48.074387,6656,2025-11-07 14:57:52.292126154
2025-11-07 14:57:48.074387,0,2025-11-07 14:57:52.299818462
2025-11-07 14:57:48.074387,31,2025-11-07 14:57:52.307510769
2025-11-07 14:57:48.074387,8448,2025-11-07 14:57:52.315203077
2025-11-07 14:57:48.074387,0,2025-11-07 14:57:52.322895385
2025-11-07 14:57:48.074387,36,2025-11-07 14:57:52.330587692
2025-11-07 14:57:48.074387,9728,2025-11-07 14:57:52.338280000
2025-11-07 14:57:48.074387,0,2025-11-07 14:57:52.345972308
2025-11-07 14:57:48.074387,33,2025-11-07 14:57:52.353664615
2025-11-07 14:57:48.074387,9216,2025-11-07 14:57:52.361356923
2025-11-07 14:57:48.074387,0,2025-11-07 14:57:52.369049231
2025-11-07 14:57:48.074387,36,2025-11-07 14:57:52.376741538
2025-11-07 14:57:48.074387,7936,2025-11-07 14:57:52.384433846
2025-11-07 14:57:48.074387,0,2025-11-07 14:57:52.392126154
2025-11-07 14:57:48.074387,33,2025-11-07 14:57:52.399818462
2025-11-07 14:57:48.074387,8448,2025-11-07 14:57:52.407510769
2025-11-07 14:57:48.074387,0,2025-11-07 14:57:52.415203077
2025-11-07 14:57:48.074387,26,2025-11-07 14:57:52.422895385
2025-11-07 14:57:48.074387,5376,2025-11-07 14:57:52.430587692
2025-11-07 14:57:48.074387,0,2025-11-07 14:57:52.438280000
2025-11-07 14:57:48.074387,26,2025-11-07 14:57:52.445972308
2025-11-07 14:57:48.074387,7936,2025-11-07 14:57:52.453664615
2025-11-07 14:57:48.074387,0,2025-11-07 14:57:52.461356923
2025-11-07 14:57:48.074387,31,2025-11-07 14:57:52.469049231
2025-11-07 14:57:48.569148,29,2025-11-07 14:57:52.476741538
2025-11-07 14:57:48.569148,5376,2025-11-07 14:57:52.484433846
2025-11-07 14:57:48.569148,0,2025-11-07 14:57:52.492126154
2025-11-07 14:57:48.569148,19,2025-11-07 14:57:52.499818462
2025-11-07 14:57:48.569148,4864,2025-11-07 14:57:52.507510769
2025-11-07 14:57:48.569148,0,2025-11-07 14:57:52.515203077
2025-11-07 14:57:48.569148,21,2025-11-07 14:57:52.522895385
2025-11-07 14:57:48.569148,6656,2025-11-07 14:57:52.530587692
2025-11-07 14:57:48.569148,0,2025-11-07 14:57:52.538280000
2025-11-07 14:57:48.569148,31,2025-11-07 14:57:52.545972308
2025-11-07 14:57:48.569148,7936,2025-11-07 14:57:52.553664615
2025-11-07 14:57:48.569148,0,2025-11-07 14:57:52.561356923
2025-11-07 14:57:48.569148,29,2025-11-07 14:57:52.569049231
2025-11-07 14:57:48.569148,7936,2025-11-07 14:57:52.576741538
2025-11-07 14:57:48.569148,0,2025-11-07 14:57:52.584433846
2025-11-07 14:57:48.569148,31,2025-11-07 14:57:52.592126154
2025-11-07 14:57:48.569148,7936,2025-11-07 14:57:52.599818462
2025-11-07 14:57:48.569148,0,2025-11-07 14:57:52.607510769
2025-11-07 14:57:48.569148,33,2025-11-07 14:57:52.615203077
2025-11-07 14:57:48.569148,7424,2025-11-07 14:57:52.622895385
2025-11-07 14:57:48.569148,0,2025-11-07 14:57:52.630587692
2025-11-07 14:57:48.569148,24,2025-11-07 14:57:52.638280000
2025-11-07 14:57:48.569148,7936,2025-11-07 14:57:52.645972308
2025-11-07 14:57:48.569148,0,2025-11-07 14:57:52.653664615
2025-11-07 14:57:48.569148,50,2025-11-07 14:57:52.661356923
2025-11-07 14:57:48.569148,15360,2025-11-07 14:57:52.669049231
2025-11-07 14:57:48.569148,0,2025-11-07 14:57:52.676741538
2025-11-07 14:57:48.569148,46,2025-11-07 14:57:52.684433846
2025-11-07 14:57:48.569148,7936,2025-11-07 14:57:52.692126154
2025-11-07 14:57:48.569148,0,2025-11-07 14:57:52.699818462
2025-11-07 14:57:48.569148,33,2025-11-07 14:57:52.707510769
2025-11-07 14:57:48.569148,8448,2025-11-07 14:57:52.715203077
2025-11-07 14:57:48.569148,0,2025-11-07 14:57:52.722895385
2025-11-07 14:57:48.569148,33,2025-11-07 14:57:52.730587692
2025-11-07 14:57:48.569148,8448,2025-11-07 14:57:52.738280000
2025-11-07 14:57:48.569148,0,2025-11-07 14:57:52.745972308
2025-11-07 14:57:48.569148,33,2025-11-07 14:57:52.753664615
2025-11-07 14:57:48.569148,7424,2025-11-07 14:57:52.761356923
2025-11-07 14:57:48.569148,0,2025-11-07 14:57:52.769049231
2025-11-07 14:57:48.569148,26,2025-11-07 14:57:52.776741538
2025-11-07 14:57:48.569148,7424,2025-11-07 14:57:52.784433846
2025-11-07 14:57:48.569148,0,2025-11-07 14:57:52.792126154
2025-11-07 14:57:48.569148,29,2025-11-07 14:57:52.799818462
2025-11-07 14:57:48.569148,8448,2025-11-07 14:57:52.807510769
2025-11-07 14:57:48.569148,0,2025-11-07 14:57:52.815203077
2025-11-07 14:57:48.569148,38,2025-11-07 14:57:52.822895385
2025-11-07 14:57:48.569148,10496,2025-11-07 14:57:52.830587692
2025-11-07 14:57:48.569148,0,2025-11-07 14:57:52.838280000
2025-11-07 14:57:48.569148,46,2025-11-07 14:57:52.845972308
2025-11-07 14:57:48.569148,13568,2025-11-07 14:57:52.853664615
2025-11-07 14:57:48.569148,0,2025-11-07 14:57:52.861356923
2025-11-07 14:57:48.569148,50,2025-11-07 14:57:52.869049231
2025-11-07 14:57:48.569148,6144,2025-11-07 14:57:52.876741538
2025-11-07 14:57:48.569148,0,2025-11-07 14:57:52.884433846
2025-11-07 14:57:48.569148,0,2025-11-07 14:57:52.892126154
2025-11-07 14:57:48.569148,-1024,2025-11-07 14:57:52.899818462
2025-11-07 14:57:48.569148,-1,2025-11-07 14:57:52.907510769
2025-11-07 14:57:48.569148,-12,2025-11-07 14:57:52.915203077
2025-11-07 14:57:48.569148,-2817,2025-11-07 14:57:52.922895385
2025-11-07 14:57:48.569148,-1,2025-11-07 14:57:52.930587692
2025-11-07 14:57:48.569148,9,2025-11-07 14:57:52.938280000
2025-11-07 14:57:48.569148,6144,2025-11-07 14:57:52.945972308
2025-11-07 14:57:48.569148,0,2025-11-07 14:57:52.953664615
2025-11-07 14:57:48.569148,19,2025-11-07 14:57:52.961356923
2025-11-07 14:57:48.569148,3072,2025-11-07 14:57:52.969049231
2025-11-07 14:57:48.569148,0,2025-11-07 14:57:52.976741538
2025-11-07 14:57:48.569148,12,2025-11-07 14:57:52.984433846
2025-11-07 14:57:48.569148,3584,2025-11-07 14:57:52.992126154
2025-11-07 14:57:48.569148,0,2025-11-07 14:57:52.999818462
2025-11-07 14:57:48.569148,19,2025-11-07 14:57:53.007510769
2025-11-07 14:57:48.569148,18432,2025-11-07 14:57:53.015203077
2025-11-07 14:57:48.569148,0,2025-11-07 14:57:53.022895385
2025-11-07 14:57:48.569148,189,2025-11-07 14:57:53.030587692
2025-11-07 14:57:48.569148,-21504,2025-11-07 14:57:53.038280000
2025-11-07 14:57:48.569148,0,2025-11-07 14:57:53.045972308
2025-11-07 14:57:48.569148,-247,2025-11-07 14:57:53.053664615
2025-11-07 14:57:48.569148,-6145,2025-11-07 14:57:53.061356923
2025-11-07 14:57:48.569148,-4,2025-11-07 14:57:53.069049231
2025-11-07 14:57:48.569148,-776,2025-11-07 14:57:53.076741538
2025-11-07 14:57:48.569148,-12289,2025-11-07 14:57:53.084433846
2025-11-07 14:57:48.569148,-2,2025-11-07 14:57:53.092126154
2025-11-07 14:57:48.569148,-58,2025-11-07 14:57:53.099818462
2025-11-07 14:57:48.569148,-3841,2025-11-07 14:57:53.107510769
2025-11-07 14:57:48.569148,-1,2025-11-07 14:57:53.115203077
2025-11-07 14:57:48.569148,87,2025-11-07 14:57:53.122895385
2025-11-07 14:57:48.569148,-29696,2025-11-07 14:57:53.130587692
2025-11-07 14:57:48.569148,0,2025-11-07 14:57:53.138280000
2025-11-07 14:57:48.569148,99,2025-11-07 14:57:53.145972308
2025-11-07 14:57:48.569148,22784,2025-11-07 14:57:53.153664615
2025-11-07 14:57:48.569148,0,2025-11-07 14:57:53.161356923
2025-11-07 14:57:48.569148,104,2025-11-07 14:57:53.169049231
2025-11-07 14:57:48.569148,23552,2025-11-07 14:57:53.176741538
2025-11-07 14:57:48.569148,0,2025-11-07 14:57:53.184433846
2025-11-07 14:57:48.569148,80,2025-11-07 14:57:53.192126154
2025-11-07 14:57:48.569148,20992,2025-11-07 14:57:53.199818462
2025-11-07 14:57:48.569148,0,2025-11-07 14:57:53.207510769
2025-11-07 14:57:48.569148,77,2025-11-07 14:57:53.215203077
2025-11-07 14:57:48.569148,17920,2025-11-07 14:57:53.222895385
2025-11-07 14:57:48.569148,0,2025-11-07 14:57:53.230587692
2025-11-07 14:57:48.569148,70,2025-11-07 14:57:53.238280000
2025-11-07 14:57:48.569148,17152,2025-11-07 14:57:53.245972308
2025-11-07 14:57:48.569148,0,2025-11-07 14:57:53.253664615
2025-11-07 14:57:48.569148,63,2025-11-07 14:57:53.261356923
2025-11-07 14:57:48.569148,16128,2025-11-07 14:57:53.269049230
2025-11-07 14:57:48.569148,0,2025-11-07 14:57:53.276741538
2025-11-07 14:57:48.569148,63,2025-11-07 14:57:53.284433846
2025-11-07 14:57:48.569148,16128,2025-11-07 14:57:53.292126154
2025-11-07 14:57:48.569148,0,2025-11-07 14:57:53.299818462
2025-11-07 14:57:48.569148,58,2025-11-07 14:57:53.307510769
2025-11-07 14:57:49.109151,50,2025-11-07 14:57:53.315203077
2025-11-07 14:57:49.109151,11776,2025-11-07 14:57:53.322895385
2025-11-07 14:57:49.109151,0,2025-11-07 14:57:53.330587692
2025-11-07 14:57:49.109151,48,2025-11-07 14:57:53.338280000
2025-11-07 14:57:49.109151,12800,2025-11-07 14:57:53.345972308
2025-11-07 14:57:49.109151,0,2025-11-07 14:57:53.353664615
2025-11-07 14:57:49.109151,43,2025-11-07 14:57:53.361356923
2025-11-07 14:57:49.109151,9728,2025-11-07 14:57:53.369049231
2025-11-07 14:57:49.109151,0,2025-11-07 14:57:53.376741538
2025-11-07 14:57:49.109151,41,2025-11-07 14:57:53.384433846
2025-11-07 14:57:49.109151,12288,2025-11-07 14:57:53.392126154
2025-11-07 14:57:49.109151,0,2025-11-07 14:57:53.399818462
2025-11-07 14:57:49.109151,60,2025-11-07 14:57:53.407510769
2025-11-07 14:57:49.109151,14848,2025-11-07 14:57:53.415203077
2025-11-07 14:57:49.109151,0,2025-11-07 14:57:53.422895385
2025-11-07 14:57:49.109151,38,2025-11-07 14:57:53.430587692
2025-11-07 14:57:49.109151,8448,2025-11-07 14:57:53.438280000
2025-11-07 14:57:49.109151,0,2025-11-07 14:57:53.445972308
2025-11-07 14:57:49.109151,38,2025-11-07 14:57:53.453664615
2025-11-07 14:57:49.109151,11776,2025-11-07 14:57:53.461356923
2025-11-07 14:57:49.109151,0,2025-11-07 14:57:53.469049231
2025-11-07 14:57:49.109151,50,2025-11-07 14:57:53.476741538
2025-11-07 14:57:49.109151,10496,2025-11-07 14:57:53.484433846
2025-11-07 14:57:49.109151,0,2025-11-07 14:57:53.492126154
2025-11-07 14:57:49.109151,36,2025-11-07 14:57:53.499818462
2025-11-07 14:57:49.109151,9728,2025-11-07 14:57:53.507510769
2025-11-07 14:57:49.109151,0,2025-11-07 14:57:53.515203077
2025-11-07 14:57:49.109151,41,2025-11-07 14:57:53.522895385
2025-11-07 14:57:49.109151,9216,2025-11-07 14:57:53.530587692
2025-11-07 14:57:49.109151,0,2025-11-07 14:57:53.538280000
2025-11-07 14:57:49.109151,29,2025-11-07 14:57:53.545972308
2025-11-07 14:57:49.109151,7424,2025-11-07 14:57:53.553664615
2025-11-07 14:57:49.109151,0,2025-11-07 14:57:53.561356923
2025-11-07 14:57:49.109151,36,2025-11-07 14:57:53.569049231
2025-11-07 14:57:49.109151,8448,2025-11-07 14:57:53.576741538
2025-11-07 14:57:49.109151,0,2025-11-07 14:57:53.584433846
2025-11-07 14:57:49.109151,29,2025-11-07 14:57:53.592126154
2025-11-07 14:57:49.109151,7424,2025-11-07 14:57:53.599818462
2025-11-07 14:57:49.109151,0,2025-11-07 14:57:53.607510769
2025-11-07 14:57:49.109151,29,2025-11-07 14:57:53.615203077
2025-11-07 14:57:49.109151,5376,2025-11-07 14:57:53.622895385
2025-11-07 14:57:49.109151,0,2025-11-07 14:57:53.630587692
2025-11-07 14:57:49.109151,16,2025-11-07 14:57:53.638280000
2025-11-07 14:57:49.109151,4096,2025-11-07 14:57:53.645972308
2025-11-07 14:57:49.109151,0,2025-11-07 14:57:53.653664615
2025-11-07 14:57:49.109151,26,2025-11-07 14:57:53.661356923
2025-11-07 14:57:49.109151,7936,2025-11-07 14:57:53.669049231
2025-11-07 14:57:49.109151,0,2025-11-07 14:57:53.676741538
2025-11-07 14:57:49.109151,21,2025-11-07 14:57:53.684433846
2025-11-07 14:57:49.109151,6144,2025-11-07 14:57:53.692126154
2025-11-07 14:57:49.109151,0,2025-11-07 14:57:53.699818462
2025-11-07 14:57:49.109151,29,2025-11-07 14:57:53.707510769
2025-11-07 14:57:49.109151,4096,2025-11-07 14:57:53.715203077
2025-11-07 14:57:49.109151,0,2025-11-07 14:57:53.722895385
2025-11-07 14:57:49.109151,12,2025-11-07 14:57:53.730587692
2025-11-07 14:57:49.109151,4096,2025-11-07 14:57:53.738280000
2025-11-07 14:57:49.109151,0,2025-11-07 14:57:53.745972308
2025-11-07 14:57:49.109151,16,2025-11-07 14:57:53.753664615
2025-11-07 14:57:49.109151,2304,2025-11-07 14:57:53.761356923
2025-11-07 14:57:49.109151,0,2025-11-07 14:57:53.769049231
2025-11-07 14:57:49.109151,9,2025-11-07 14:57:53.776741538
2025-11-07 14:57:49.109151,1792,2025-11-07 14:57:53.784433846
2025-11-07 14:57:49.109151,0,2025-11-07 14:57:53.792126154
2025-11-07 14:57:49.109151,4,2025-11-07 14:57:53.799818462
2025-11-07 14:57:49.109151,1792,2025-11-07 14:57:53.807510769
2025-11-07 14:57:49.109151,0,2025-11-07 14:57:53.815203077
2025-11-07 14:57:49.109151,9,2025-11-07 14:57:53.822895385
2025-11-07 14:57:49.109151,1024,2025-11-07 14:57:53.830587692
2025-11-07 14:57:49.109151,0,2025-11-07 14:57:53.838280000
2025-11-07 14:57:49.109151,2,2025-11-07 14:57:53.845972308
2025-11-07 14:57:49.109151,1024,2025-11-07 14:57:53.853664615
2025-11-07 14:57:49.109151,0,2025-11-07 14:57:53.861356923
2025-11-07 14:57:49.109151,9,2025-11-07 14:57:53.869049231
2025-11-07 14:57:49.109151,1792,2025-11-07 14:57:53.876741538
2025-11-07 14:57:49.109151,0,2025-11-07 14:57:53.884433846
2025-11-07 14:57:49.109151,2,2025-11-07 14:57:53.892126154
2025-11-07 14:57:49.109151,-512,2025-11-07 14:57:53.899818462
2025-11-07 14:57:49.109151,-1,2025-11-07 14:57:53.907510769
2025-11-07 14:57:49.109151,-2,2025-11-07 14:57:53.915203077
2025-11-07 14:57:49.109151,255,2025-11-07 14:57:53.922895385
2025-11-07 14:57:49.109151,0,2025-11-07 14:57:53.930587692
2025-11-07 14:57:49.109151,9,2025-11-07 14:57:53.938280000
2025-11-07 14:57:49.109151,3584,2025-11-07 14:57:53.945972308
2025-11-07 14:57:49.109151,0,2025-11-07 14:57:53.953664615
2025-11-07 14:57:49.109151,14,2025-11-07 14:57:53.961356923
2025-11-07 14:57:49.109151,4864,2025-11-07 14:57:53.969049231
2025-11-07 14:57:49.109151,0,2025-11-07 14:57:53.976741538
2025-11-07 14:57:49.109151,21,2025-11-07 14:57:53.984433846
2025-11-07 14:57:49.109151,1792,2025-11-07 14:57:53.992126154
2025-11-07 14:57:49.109151,0,2025-11-07 14:57:53.999818462
2025-11-07 14:57:49.109151,-16,2025-11-07 14:57:54.007510769
2025-11-07 14:57:49.109151,-6401,2025-11-07 14:57:54.015203077
2025-11-07 14:57:49.109151,-1,2025-11-07 14:57:54.022895385
2025-11-07 14:57:49.109151,-26,2025-11-07 14:57:54.030587692
2025-11-07 14:57:49.109151,-7681,2025-11-07 14:57:54.038280000
2025-11-07 14:57:49.109151,-1,2025-11-07 14:57:54.045972308
2025-11-07 14:57:49.109151,-26,2025-11-07 14:57:54.053664615
2025-11-07 14:57:49.109151,-2817,2025-11-07 14:57:54.061356923
2025-11-07 14:57:49.109151,-1,2025-11-07 14:57:54.069049231
2025-11-07 14:57:49.109151,-12,2025-11-07 14:57:54.076741538
2025-11-07 14:57:49.109151,-5121,2025-11-07 14:57:54.084433846
2025-11-07 14:57:49.109151,-1,2025-11-07 14:57:54.092126154
2025-11-07 14:57:49.109151,-24,2025-11-07 14:57:54.099818462
2025-11-07 14:57:49.109151,-5121,2025-11-07 14:57:54.107510769
2025-11-07 14:57:49.109151,-1,2025-11-07 14:57:54.115203077
2025-11-07 14:57:49.109151,-14,2025-11-07 14:57:54.122895385
2025-11-07 14:57:49.109151,3839,2025-11-07 14:57:54.130587692
2025-11-07 14:57:49.109151,0,2025-11-07 14:57:54.138280000
2025-11-07 14:57:49.109151,113,2025-11-07 14:57:54.145972308
2025-11-07 14:57:49.693778,191,2025-11-07 14:57:54.153664615
2025-11-07 14:57:49.693778,-12800,2025-11-07 14:57:54.161356923
2025-11-07 14:57:49.693778,-1,2025-11-07 14:57:54.169049231
2025-11-07 14:57:49.693778,-603,2025-11-07 14:57:54.176741538
2025-11-07 14:57:49.693778,-11009,2025-11-07 14:57:54.184433846
2025-11-07 14:57:49.693778,-4,2025-11-07 14:57:54.192126154
2025-11-07 14:57:49.693778,-409,2025-11-07 14:57:54.199818462
2025-11-07 14:57:49.693778,-20737,2025-11-07 14:57:54.207510769
2025-11-07 14:57:49.693778,-1,2025-11-07 14:57:54.215203077
2025-11-07 14:57:49.693778,-89,2025-11-07 14:57:54.222895385
2025-11-07 14:57:49.693778,-5889,2025-11-07 14:57:54.230587692
2025-11-07 14:57:49.693778,-1,2025-11-07 14:57:54.238280000
2025-11-07 14:57:49.693778,106,2025-11-07 14:57:54.245972308
2025-11-07 14:57:49.693778,24064,2025-11-07 14:57:54.253664615
2025-11-07 14:57:49.693778,0,2025-11-07 14:57:54.261356923
2025-11-07 14:57:49.693778,50,2025-11-07 14:57:54.269049230
2025-11-07 14:57:49.693778,17920,2025-11-07 14:57:54.276741538
2025-11-07 14:57:49.693778,0,2025-11-07 14:57:54.284433846
2025-11-07 14:57:49.693778,67,2025-11-07 14:57:54.292126154
2025-11-07 14:57:49.693778,11776,2025-11-07 14:57:54.299818462
2025-11-07 14:57:49.693778,0,2025-11-07 14:57:54.307510769
2025-11-07 14:57:49.693778,50,2025-11-07 14:57:54.315203077
2025-11-07 14:57:49.693778,13568,2025-11-07 14:57:54.322895385
2025-11-07 14:57:49.693778,0,2025-11-07 14:57:54.330587692
2025-11-07 14:57:49.693778,43,2025-11-07 14:57:54.338280000
2025-11-07 14:57:49.693778,8448,2025-11-07 14:57:54.345972308
2025-11-07 14:57:49.693778,0,2025-11-07 14:57:54.353664615
2025-11-07 14:57:49.693778,29,2025-11-07 14:57:54.361356923
2025-11-07 14:57:49.693778,7424,2025-11-07 14:57:54.369049231
2025-11-07 14:57:49.693778,0,2025-11-07 14:57:54.376741538
2025-11-07 14:57:49.693778,31,2025-11-07 14:57:54.384433846
2025-11-07 14:57:49.693778,7424,2025-11-07 14:57:54.392126154
2025-11-07 14:57:49.693778,0,2025-11-07 14:57:54.399818462
2025-11-07 14:57:49.693778,26,2025-11-07 14:57:54.407510769
2025-11-07 14:57:49.693778,6144,2025-11-07 14:57:54.415203077
2025-11-07 14:57:49.693778,0,2025-11-07 14:57:54.422895385
2025-11-07 14:57:49.693778,21,2025-11-07 14:57:54.430587692
2025-11-07 14:57:49.693778,3072,2025-11-07 14:57:54.438280000
2025-11-07 14:57:49.693778,0,2025-11-07 14:57:54.445972308
2025-11-07 14:57:49.693778,7,2025-11-07 14:57:54.453664615
2025-11-07 14:57:49.693778,1792,2025-11-07 14:57:54.461356923
2025-11-07 14:57:49.693778,0,2025-11-07 14:57:54.469049231
2025-11-07 14:57:49.693778,2,2025-11-07 14:57:54.476741538
2025-11-07 14:57:49.693778,-2304,2025-11-07 14:57:54.484433846
2025-11-07 14:57:49.693778,-1,2025-11-07 14:57:54.492126154
2025-11-07 14:57:49.693778,-12,2025-11-07 14:57:54.499818462
2025-11-07 14:57:49.693778,-1537,2025-11-07 14:57:54.507510769
2025-11-07 14:57:49.693778,-1,2025-11-07 14:57:54.515203077
2025-11-07 14:57:49.693778,-9,2025-11-07 14:57:54.522895385
2025-11-07 14:57:49.693778,-3329,2025-11-07 14:57:54.530587692
2025-11-07 14:57:49.693778,-1,2025-11-07 14:57:54.538280000
2025-11-07 14:57:49.693778,-12,2025-11-07 14:57:54.545972308
2025-11-07 14:57:49.693778,-2049,2025-11-07 14:57:54.553664615
2025-11-07 14:57:49.693778,-1,2025-11-07 14:57:54.561356923
2025-11-07 14:57:49.693778,-12,2025-11-07 14:57:54.569049231
2025-11-07 14:57:49.693778,-2049,2025-11-07 14:57:54.576741538
2025-11-07 14:57:49.693778,-1,2025-11-07 14:57:54.584433846
2025-11-07 14:57:49.693778,-7,2025-11-07 14:57:54.592126154
2025-11-07 14:57:49.693778,767,2025-11-07 14:57:54.599818462
2025-11-07 14:57:49.693778,0,2025-11-07 14:57:54.607510769
2025-11-07 14:57:49.693778,4,2025-11-07 14:57:54.615203077
2025-11-07 14:57:49.693778,-512,2025-11-07 14:57:54.622895385
2025-11-07 14:57:49.693778,-1,2025-11-07 14:57:54.630587692
2025-11-07 14:57:49.693778,-4,2025-11-07 14:57:54.638280000
2025-11-07 14:57:49.693778,-257,2025-11-07 14:57:54.645972308
2025-11-07 14:57:49.693778,-1,2025-11-07 14:57:54.653664615
2025-11-07 14:57:49.693778,0,2025-11-07 14:57:54.661356923
2025-11-07 14:57:49.693778,0,2025-11-07 14:57:54.669049231
2025-11-07 14:57:49.693778,0,2025-11-07 14:57:54.676741538
2025-11-07 14:57:49.693778,2,2025-11-07 14:57:54.684433846
2025-11-07 14:57:49.693778,0,2025-11-07 14:57:54.692126154
2025-11-07 14:57:49.693778,0,2025-11-07 14:57:54.699818462
2025-11-07 14:57:49.693778,-7,2025-11-07 14:57:54.707510769
2025-11-07 14:57:49.693778,-2049,2025-11-07 14:57:54.715203077
2025-11-07 14:57:49.693778,-1,2025-11-07 14:57:54.722895385
2025-11-07 14:57:49.693778,-2,2025-11-07 14:57:54.730587692
2025-11-07 14:57:49.693778,-257,2025-11-07 14:57:54.738280000
2025-11-07 14:57:49.693778,-1,2025-11-07 14:57:54.745972308
2025-11-07 14:57:49.693778,-2,2025-11-07 14:57:54.753664615
2025-11-07 14:57:49.693778,-1537,2025-11-07 14:57:54.761356923
2025-11-07 14:57:49.693778,-1,2025-11-07 14:57:54.769049231
2025-11-07 14:57:49.693778,-9,2025-11-07 14:57:54.776741538
2025-11-07 14:57:49.693778,-769,2025-11-07 14:57:54.784433846
2025-11-07 14:57:49.693778,-1,2025-11-07 14:57:54.792126154
2025-11-07 14:57:49.693778,-2,2025-11-07 14:57:54.799818462
2025-11-07 14:57:49.693778,-769,2025-11-07 14:57:54.807510769
2025-11-07 14:57:49.693778,-1,2025-11-07 14:57:54.815203077
2025-11-07 14:57:49.693778,-4,2025-11-07 14:57:54.822895385
2025-11-07 14:57:49.693778,-769,2025-11-07 14:57:54.830587692
2025-11-07 14:57:49.693778,-1,2025-11-07 14:57:54.838280000
2025-11-07 14:57:49.693778,-7,2025-11-07 14:57:54.845972308
2025-11-07 14:57:49.693778,-769,2025-11-07 14:57:54.853664615
2025-11-07 14:57:49.693778,-1,2025-11-07 14:57:54.861356923
2025-11-07 14:57:49.693778,2,2025-11-07 14:57:54.869049231
2025-11-07 14:57:49.693778,1792,2025-11-07 14:57:54.876741538
2025-11-07 14:57:49.693778,0,2025-11-07 14:57:54.884433846
2025-11-07 14:57:49.693778,0,2025-11-07 14:57:54.892126154
2025-11-07 14:57:49.693778,-1024,2025-11-07 14:57:54.899818462
2025-11-07 14:57:49.693778,-1,2025-11-07 14:57:54.907510769
2025-11-07 14:57:49.693778,-4,2025-11-07 14:57:54.915203077
2025-11-07 14:57:49.693778,-2049,2025-11-07 14:57:54.922895385
2025-11-07 14:57:49.693778,-1,2025-11-07 14:57:54.930587692
2025-11-07 14:57:49.693778,-9,2025-11-07 14:57:54.938280000
2025-11-07 14:57:49.693778,255,2025-11-07 14:57:54.945972308
2025-11-07 14:57:49.693778,0,2025-11-07 14:57:54.953664615
2025-11-07 14:57:49.693778,2,2025-11-07 14:57:54.961356923
2025-11-07 14:57:49.693778,-1024,2025-11-07 14:57:54.969049231
2025-11-07 14:57:49.693778,-1,2025-11-07 14:57:54.976741538
2025-11-07 14:57:49.693778,-9,2025-11-07 14:57:54.984433846
2025-11-07 14:57:50.279399,-9,2025-11-07 14:57:54.992126154
2025-11-07 14:57:50.279399,-2817,2025-11-07 14:57:54.999818462
2025-11-07 14:57:50.279399,-1,2025-11-07 14:57:55.007510769
2025-11-07 14:57:50.279399,-4,2025-11-07 14:57:55.015203077
2025-11-07 14:57:50.279399,2559,2025-11-07 14:57:55.022895385
2025-11-07 14:57:50.279399,0,2025-11-07 14:57:55.030587692
2025-11-07 14:57:50.279399,9,2025-11-07 14:57:55.038280000
2025-11-07 14:57:50.279399,1024,2025-11-07 14:57:55.045972308
2025-11-07 14:57:50.279399,0,2025-11-07 14:57:55.053664615
2025-11-07 14:57:50.279399,12,2025-11-07 14:57:55.061356923
2025-11-07 14:57:50.279399,5376,2025-11-07 14:57:55.069049231
2025-11-07 14:57:50.279399,0,2025-11-07 14:57:55.076741538
2025-11-07 14:57:50.279399,29,2025-11-07 14:57:55.084433846
2025-11-07 14:57:50.279399,4864,2025-11-07 14:57:55.092126154
2025-11-07 14:57:50.279399,0,2025-11-07 14:57:55.099818462
2025-11-07 14:57:50.279399,-9,2025-11-07 14:57:55.107510769
2025-11-07 14:57:50.279399,-7169,2025-11-07 14:57:55.115203077
2025-11-07 14:57:50.279399,-1,2025-11-07 14:57:55.122895385
2025-11-07 14:57:50.279399,-26,2025-11-07 14:57:55.130587692
2025-11-07 14:57:50.279399,-3841,2025-11-07 14:57:55.138280000
2025-11-07 14:57:50.279399,-1,2025-11-07 14:57:55.145972308
2025-11-07 14:57:50.279399,0,2025-11-07 14:57:55.153664615
2025-11-07 14:57:50.279399,512,2025-11-07 14:57:55.161356923
2025-11-07 14:57:50.279399,0,2025-11-07 14:57:55.169049231
2025-11-07 14:57:50.279399,-4,2025-11-07 14:57:55.176741538
2025-11-07 14:57:50.279399,-2049,2025-11-07 14:57:55.184433846
2025-11-07 14:57:50.279399,-1,2025-11-07 14:57:55.192126154
2025-11-07 14:57:50.279399,-7,2025-11-07 14:57:55.199818462
2025-11-07 14:57:50.279399,-257,2025-11-07 14:57:55.207510769
2025-11-07 14:57:50.279399,-1,2025-11-07 14:57:55.215203077
2025-11-07 14:57:50.279399,21,2025-11-07 14:57:55.222895385
2025-11-07 14:57:50.279399,30208,2025-11-07 14:57:55.230587692
2025-11-07 14:57:50.279399,0,2025-11-07 14:57:55.238280000
2025-11-07 14:57:50.279399,210,2025-11-07 14:57:55.245972308
2025-11-07 14:57:50.279399,1792,2025-11-07 14:57:55.253664615
2025-11-07 14:57:50.279399,0,2025-11-07 14:57:55.261356923
2025-11-07 14:57:50.279399,-545,2025-11-07 14:57:55.269049230
2025-11-07 14:57:50.279399,-20225,2025-11-07 14:57:55.276741538
2025-11-07 14:57:50.279399,-4,2025-11-07 14:57:55.284433846
2025-11-07 14:57:50.279399,-509,2025-11-07 14:57:55.292126154
2025-11-07 14:57:50.279399,-32513,2025-11-07 14:57:55.299818462
2025-11-07 14:57:50.279399,-1,2025-11-07 14:57:55.307510769
2025-11-07 14:57:50.279399,-84,2025-11-07 14:57:55.315203077
2025-11-07 14:57:50.279399,-2817,2025-11-07 14:57:55.322895385
2025-11-07 14:57:50.279399,-1,2025-11-07 14:57:55.330587692
2025-11-07 14:57:50.279399,118,2025-11-07 14:57:55.338280000
2025-11-07 14:57:50.279399,28416,2025-11-07 14:57:55.345972308
2025-11-07 14:57:50.279399,0,2025-11-07 14:57:55.353664615
2025-11-07 14:57:50.279399,67,2025-11-07 14:57:55.361356923
2025-11-07 14:57:50.279399,22272,2025-11-07 14:57:55.369049231
2025-11-07 14:57:50.279399,0,2025-11-07 14:57:55.376741538
2025-11-07 14:57:50.279399,89,2025-11-07 14:57:55.384433846
2025-11-07 14:57:50.279399,17152,2025-11-07 14:57:55.392126154
2025-11-07 14:57:50.279399,0,2025-11-07 14:57:55.399818462
2025-11-07 14:57:50.279399,60,2025-11-07 14:57:55.407510769
2025-11-07 14:57:50.279399,17152,2025-11-07 14:57:55.415203077
2025-11-07 14:57:50.279399,0,2025-11-07 14:57:55.422895385
2025-11-07 14:57:50.279399,63,2025-11-07 14:57:55.430587692
2025-11-07 14:57:50.279399,14848,2025-11-07 14:57:55.438280000
2025-11-07 14:57:50.279399,0,2025-11-07 14:57:55.445972308
2025-11-07 14:57:50.279399,50,2025-11-07 14:57:55.453664615
2025-11-07 14:57:50.279399,11776,2025-11-07 14:57:55.461356923
2025-11-07 14:57:50.279399,0,2025-11-07 14:57:55.469049231
2025-11-07 14:57:50.279399,46,2025-11-07 14:57:55.476741538
2025-11-07 14:57:50.279399,12288,2025-11-07 14:57:55.484433846
2025-11-07 14:57:50.279399,0,2025-11-07 14:57:55.492126154
2025-11-07 14:57:50.279399,48,2025-11-07 14:57:55.499818462
2025-11-07 14:57:50.279399,11776,2025-11-07 14:57:55.507510769
2025-11-07 14:57:50.279399,0,2025-11-07 14:57:55.515203077
2025-11-07 14:57:50.279399,41,2025-11-07 14:57:55.522895385
2025-11-07 14:57:50.279399,9216,2025-11-07 14:57:55.530587692
2025-11-07 14:57:50.279399,0,2025-11-07 14:57:55.538280000
2025-11-07 14:57:50.279399,36,2025-11-07 14:57:55.545972308
2025-11-07 14:57:50.279399,8448,2025-11-07 14:57:55.553664615
2025-11-07 14:57:50.279399,0,2025-11-07 14:57:55.561356923
2025-11-07 14:57:50.279399,31,2025-11-07 14:57:55.569049231
2025-11-07 14:57:50.279399,6656,2025-11-07 14:57:55.576741538
2025-11-07 14:57:50.279399,0,2025-11-07 14:57:55.584433846
2025-11-07 14:57:50.279399,21,2025-11-07 14:57:55.592126154
2025-11-07 14:57:50.279399,5376,2025-11-07 14:57:55.599818462
2025-11-07 14:57:50.279399,0,2025-11-07 14:57:55.607510769
2025-11-07 14:57:50.279399,24,2025-11-07 14:57:55.615203077
2025-11-07 14:57:50.279399,7936,2025-11-07 14:57:55.622895385
2025-11-07 14:57:50.279399,0,2025-11-07 14:57:55.630587692
2025-11-07 14:57:50.279399,24,2025-11-07 14:57:55.638280000
2025-11-07 14:57:50.279399,5376,2025-11-07 14:57:55.645972308
2025-11-07 14:57:50.279399,0,2025-11-07 14:57:55.653664615
2025-11-07 14:57:50.279399,29,2025-11-07 14:57:55.661356923
2025-11-07 14:57:50.279399,6656,2025-11-07 14:57:55.669049231
2025-11-07 14:57:50.279399,0,2025-11-07 14:57:55.676741538
2025-11-07 14:57:50.279399,26,2025-11-07 14:57:55.684433846
2025-11-07 14:57:50.279399,7936,2025-11-07 14:57:55.692126154
2025-11-07 14:57:50.279399,0,2025-11-07 14:57:55.699818462
2025-11-07 14:57:50.279399,31,2025-11-07 14:57:55.707510769
2025-11-07 14:57:50.279399,6656,2025-11-07 14:57:55.715203077
2025-11-07 14:57:50.279399,0,2025-11-07 14:57:55.722895385
2025-11-07 14:57:50.279399,26,2025-11-07 14:57:55.730587692
2025-11-07 14:57:50.279399,7424,2025-11-07 14:57:55.738280000
2025-11-07 14:57:50.279399,0,2025-11-07 14:57:55.745972308
2025-11-07 14:57:50.279399,36,2025-11-07 14:57:55.753664615
2025-11-07 14:57:50.279399,8448,2025-11-07 14:57:55.761356923
2025-11-07 14:57:50.279399,0,2025-11-07 14:57:55.769049231
2025-11-07 14:57:50.279399,29,2025-11-07 14:57:55.776741538
2025-11-07 14:57:50.279399,6656,2025-11-07 14:57:55.784433846
2025-11-07 14:57:50.279399,0,2025-11-07 14:57:55.792126154
2025-11-07 14:57:50.279399,24,2025-11-07 14:57:55.799818462
2025-11-07 14:57:50.279399,6144,2025-11-07 14:57:55.807510769
2025-11-07 14:57:50.279399,0,2025-11-07 14:57:55.815203077
2025-11-07 14:57:50.279399,21,2025-11-07 14:57:55.822895385
2025-11-07 14:57:50.820443,21,2025-11-07 14:57:55.830587692
2025-11-07 14:57:50.820443,4864,2025-11-07 14:57:55.838280000
2025-11-07 14:57:50.820443,0,2025-11-07 14:57:55.845972308
2025-11-07 14:57:50.820443,19,2025-11-07 14:57:55.853664615
2025-11-07 14:57:50.820443,5376,2025-11-07 14:57:55.861356923
2025-11-07 14:57:50.820443,0,2025-11-07 14:57:55.869049231
2025-11-07 14:57:50.820443,21,2025-11-07 14:57:55.876741538
2025-11-07 14:57:50.820443,4864,2025-11-07 14:57:55.884433846
2025-11-07 14:57:50.820443,0,2025-11-07 14:57:55.892126154
2025-11-07 14:57:50.820443,19,2025-11-07 14:57:55.899818462
2025-11-07 14:57:50.820443,3584,2025-11-07 14:57:55.907510769
2025-11-07 14:57:50.820443,0,2025-11-07 14:57:55.915203077
2025-11-07 14:57:50.820443,16,2025-11-07 14:57:55.922895385
2025-11-07 14:57:50.820443,5376,2025-11-07 14:57:55.930587692
2025-11-07 14:57:50.820443,0,2025-11-07 14:57:55.938280000
2025-11-07 14:57:50.820443,24,2025-11-07 14:57:55.945972308
2025-11-07 14:57:50.820443,9728,2025-11-07 14:57:55.953664615
