timestamp,ecg
12:27:55.955599,-85
12:27:55.955599,-21505
12:27:55.955599,-1
12:27:55.955599,-80
12:27:55.955599,-17921
12:27:55.955599,-1
12:27:55.955599,-68
12:27:55.955599,-18433
12:27:55.955599,-1
12:27:55.955599,-71
12:27:55.955599,-15361
12:27:55.955599,-1
12:27:55.955599,-52
12:27:55.955599,-10497
12:27:55.955599,-1
12:27:55.955599,-26
12:27:55.955599,-769
12:27:55.955599,-1
12:27:55.955599,9
12:27:55.955599,4608
12:27:55.955599,0
12:27:55.955599,23
12:27:55.955599,1792
12:27:55.955599,0
12:27:55.955599,-18
12:27:55.955599,-6401
12:27:55.955599,-1
12:27:55.955599,-23
12:27:55.955599,-8193
12:27:55.955599,-1
12:27:55.955599,-75
12:27:55.955599,-31233
12:27:55.955599,-1
12:27:55.955599,-23
12:27:55.955599,24831
12:27:55.955599,1
12:27:55.955599,729
12:27:55.955599,-14848
12:27:55.955599,2
12:27:55.955599,203
12:27:55.955599,-26368
12:27:55.955599,-2
12:27:55.955599,-241
12:27:55.955599,-15617
12:27:55.955599,0
12:27:55.955599,118
12:27:55.955599,-18688
12:27:55.955599,-1
12:27:55.955599,14
12:27:55.955599,10752
12:27:55.955599,0
12:27:55.955599,-14
12:27:55.955599,3839
12:27:55.955599,0
12:27:55.955599,47
12:27:55.955599,7168
12:27:55.955599,0
12:27:55.955599,33
12:27:55.955599,14336
12:27:55.955599,0
12:27:55.955599,63
12:27:55.955599,19968
12:27:55.955599,0
12:27:55.955599,106
12:27:55.955599,32000
12:27:55.955599,0
12:27:55.955599,151
12:27:55.955599,-17152
12:27:55.955599,0
12:27:55.955599,224
12:27:55.955599,2304
12:27:55.955599,1
12:27:55.955599,303
12:27:55.955599,21760
12:27:55.955599,1
12:27:55.955599,388
12:27:55.955599,-20224
12:27:55.955599,1
12:27:55.955599,464
12:27:55.955599,-6400
12:27:55.955599,1
12:27:55.955599,492
12:27:55.955599,-11776
12:27:55.955599,1
12:27:55.955599,390
12:27:55.955599,4096
12:27:55.955599,1
12:27:55.955599,139
12:27:55.955599,4096
12:27:55.955599,0
12:27:55.955599,-82
12:27:55.955599,26623
12:27:55.955599,-1
12:27:55.955599,-198
12:27:55.955599,7679
12:27:55.955599,-1
12:27:55.955599,-239
12:27:55.955599,6399
12:27:55.955599,-1
12:27:55.955599,-224
12:27:55.955599,7679
12:27:55.955599,-1
12:27:55.955599,-215
12:27:55.955599,15103
12:27:55.955599,-1
12:27:55.955599,-196
12:27:55.955599,16127
12:27:55.955599,-1
12:27:55.955599,-187
12:27:56.495604,-182
12:27:56.495604,21759
12:27:56.495604,-1
12:27:56.495604,-161
12:27:56.495604,24063
12:27:56.495604,-1
12:27:56.495604,-165
12:27:56.495604,22783
12:27:56.495604,-1
12:27:56.495604,-165
12:27:56.495604,25343
12:27:56.495604,-1
12:27:56.495604,-158
12:27:56.495604,24575
12:27:56.495604,-1
12:27:56.495604,-163
12:27:56.495604,25855
12:27:56.495604,-1
12:27:56.495604,-137
12:27:56.495604,31999
12:27:56.495604,-1
12:27:56.495604,-134
12:27:56.495604,-32257
12:27:56.495604,-1
12:27:56.495604,-120
12:27:56.495604,-31233
12:27:56.495604,-1
12:27:56.495604,-127
12:27:56.495604,32511
12:27:56.495604,-1
12:27:56.495604,-130
12:27:56.495604,-31745
12:27:56.495604,-1
12:27:56.495604,-130
12:27:56.495604,31487
12:27:56.495604,-1
12:27:56.495604,-134
12:27:56.495604,28927
12:27:56.495604,-1
12:27:56.495604,-142
12:27:56.495604,-29441
12:27:56.495604,-1
12:27:56.495604,-104
12:27:56.495604,-25089
12:27:56.495604,-1
12:27:56.495604,-78
12:27:56.495604,-14849
12:27:56.495604,-1
12:27:56.495604,-54
12:27:56.495604,-15361
12:27:56.495604,-1
12:27:56.495604,-73
12:27:56.495604,-22529
12:27:56.495604,-1
12:27:56.495604,-94
12:27:56.495604,-21505
12:27:56.495604,-1
12:27:56.495604,-97
12:27:56.495604,23551
12:27:56.495604,-1
12:27:56.495604,-220
12:27:56.495604,-15873
12:27:56.495604,-1
12:27:56.495604,367
12:27:56.495604,-1024
12:27:56.495604,2
12:27:56.495604,731
12:27:56.495604,30208
12:27:56.495604,0
12:27:56.495604,-395
12:27:56.495604,-28161
12:27:56.495604,-1
12:27:56.495604,196
12:27:56.495604,-5888
12:27:56.495604,-1
12:27:56.495604,-132
12:27:56.495604,-7425
12:27:56.495604,-1
12:27:56.495604,-47
12:27:56.495604,-20225
12:27:56.495604,-1
12:27:56.495604,-42
12:27:56.495604,-8705
12:27:56.495604,-1
12:27:56.495604,-40
12:27:56.495604,-3841
12:27:56.495604,-1
12:27:56.495604,4
12:27:56.495604,3584
12:27:56.495604,0
12:27:56.495604,35
12:27:56.495604,16896
12:27:56.495604,0
12:27:56.495604,92
12:27:56.495604,31488
12:27:56.495604,0
12:27:56.495604,158
12:27:56.495604,-16640
12:27:56.495604,0
12:27:56.495604,232
12:27:56.495604,8192
12:27:56.495604,1
12:27:56.495604,345
12:27:56.495604,-31744
12:27:56.495604,1
12:27:56.495604,428
12:27:56.495604,-8704
12:27:56.495604,1
12:27:56.495604,513
12:27:57.035614,516
12:27:57.035614,-5120
12:27:57.035614,1
12:27:57.035614,421
12:27:57.035614,15616
12:27:57.035614,1
12:27:57.035614,201
12:27:57.035614,20992
12:27:57.035614,0
12:27:57.035614,-16
12:27:57.035614,-20737
12:27:57.035614,-1
12:27:57.035614,-125
12:27:57.035614,26623
12:27:57.035614,-1
12:27:57.035614,-187
12:27:57.035614,12031
12:27:57.035614,-1
12:27:57.035614,-220
12:27:57.035614,6399
12:27:57.035614,-1
12:27:57.035614,-246
12:27:57.035614,3583
12:27:57.035614,-1
12:27:57.035614,-243
12:27:57.035614,-769
12:27:57.035614,-2
12:27:57.035614,-258
12:27:57.035614,5887
12:27:57.035614,-1
12:27:57.035614,-232
12:27:57.035614,511
12:27:57.035614,-1
12:27:57.035614,-260
12:27:57.035614,1535
12:27:57.035614,-1
12:27:57.035614,-253
12:27:57.035614,-1281
12:27:57.035614,-2
12:27:57.035614,-269
12:27:57.035614,-5121
12:27:57.035614,-2
12:27:57.035614,-281
12:27:57.035614,-6145
12:27:57.035614,-2
12:27:57.035614,-291
12:27:57.035614,-12289
12:27:57.035614,-2
12:27:57.035614,-312
12:27:57.035614,-15873
12:27:57.035614,-2
12:27:57.035614,-326
12:27:57.035614,-18945
12:27:57.035614,-2
12:27:57.035614,-333
12:27:57.035614,-18945
12:27:57.035614,-2
12:27:57.035614,-329
12:27:57.035614,-20225
12:27:57.035614,-2
12:27:57.035614,-345
12:27:57.035614,-23297
12:27:57.035614,-2
12:27:57.035614,-343
12:27:57.035614,-14081
12:27:57.035614,-2
12:27:57.035614,-274
12:27:57.035614,1023
12:27:57.035614,-1
12:27:57.035614,-236
12:27:57.035614,10239
12:27:57.035614,-1
12:27:57.035614,-215
12:27:57.035614,6399
12:27:57.035614,-1
12:27:57.035614,-239
12:27:57.035614,6399
12:27:57.035614,-1
12:27:57.035614,-234
12:27:57.035614,-2049
12:27:57.035614,-2
12:27:57.035614,-331
12:27:57.035614,-14593
12:27:57.035614,-2
12:27:57.035614,-18
12:27:57.035614,-18689
12:27:57.035614,1
12:27:57.035614,691
12:27:57.035614,-26880
12:27:57.035614,1
12:27:57.035614,-274
12:27:57.035614,16383
12:27:57.035614,-2
12:27:57.035614,-47
12:27:57.035614,-5121
12:27:57.035614,-1
12:27:57.035614,-265
12:27:57.035614,3583
12:27:57.035614,-1
12:27:57.035614,-189
12:27:57.035614,4607
12:27:57.035614,-1
12:27:57.035614,-234
12:27:57.035614,13055
12:27:57.035614,-1
12:27:57.035614,-210
12:27:57.035614,15103
12:27:57.035614,-1
12:27:57.035614,-172
12:27:57.605567,-158
12:27:57.605567,30719
12:27:57.605567,-1
12:27:57.605567,-113
12:27:57.605567,-22017
12:27:57.605567,-1
12:27:57.605567,-52
12:27:57.605567,-2049
12:27:57.605567,-1
12:27:57.605567,42
12:27:57.605567,23552
12:27:57.605567,0
12:27:57.605567,137
12:27:57.605567,-15360
12:27:57.605567,0
12:27:57.605567,260
12:27:57.605567,13824
12:27:57.605567,1
12:27:57.605567,350
12:27:57.605567,-32256
12:27:57.605567,1
12:27:57.605567,419
12:27:57.605567,-26880
12:27:57.605567,1
12:27:57.605567,317
12:27:57.605567,-18432
12:27:57.605567,0
12:27:57.605567,7
12:27:57.605567,-31488
12:27:57.605567,-1
12:27:57.605567,-23
12:27:57.605567,32767
12:27:57.605567,0
12:27:57.605567,54
12:27:57.605567,-8448
12:27:57.605567,-1
12:27:57.605567,-23
12:27:57.605567,-2049
12:27:57.605567,-1
12:27:57.605567,97
12:27:57.605567,-6144
12:27:57.605567,0
12:27:57.605567,258
12:27:57.605567,17920
12:27:57.605567,1
12:27:57.605567,478
12:27:57.605567,5120
12:27:57.605567,2
12:27:57.605567,528
12:27:57.605567,22784
12:27:57.605567,2
12:27:57.605567,660
12:27:57.605567,-17408
12:27:57.605567,2
12:27:57.605567,805
12:27:57.605567,8704
12:27:57.605567,3
12:27:57.605567,641
12:27:57.605567,32512
12:27:57.605567,2
12:27:57.605567,800
12:27:57.605567,2048
12:27:57.605567,3
12:27:57.605567,710
12:27:57.605567,14336
12:27:57.605567,3
12:27:57.605567,812
12:27:57.605567,-31744
12:27:57.605567,2
12:27:57.605567,660
12:27:57.605567,8704
12:27:57.605567,3
12:27:57.605567,798
12:27:57.605567,-17408
12:27:57.605567,2
12:27:57.605567,715
12:27:57.605567,-5888
12:27:57.605567,2
12:27:57.605567,627
12:27:57.605567,20480
12:27:57.605567,2
12:27:57.605567,686
12:27:57.605567,29440
12:27:57.605567,2
12:27:57.605567,530
12:27:57.605567,8192
12:27:57.605567,2
12:27:57.605567,554
12:27:57.605567,10752
12:27:57.605567,2
12:27:57.605567,528
12:27:57.605567,-18944
12:27:57.605567,1
12:27:57.605567,402
12:27:57.605567,-17920
12:27:57.605567,1
12:27:57.605567,468
12:27:57.605567,-22784
12:27:57.605567,1
12:27:57.605567,314
12:27:57.605567,13824
12:27:57.605567,1
12:27:57.605567,620
12:27:57.605567,18432
12:27:57.605567,4
12:27:57.605567,1314
12:27:57.605567,-13824
12:27:57.605567,3
12:27:57.605567,300
12:27:58.145576,165
12:27:58.145576,13056
12:27:58.145576,2
12:27:58.145576,594
12:27:58.145576,-30464
12:27:58.145576,1
12:27:58.145576,419
12:27:58.145576,-13056
12:27:58.145576,1
12:27:58.145576,426
12:27:58.145576,-13568
12:27:58.145576,1
12:27:58.145576,513
12:27:58.145576,-6912
12:27:58.145576,1
12:27:58.145576,449
12:27:58.145576,-20736
12:27:58.145576,1
12:27:58.145576,378
12:27:58.145576,20480
12:27:58.145576,1
12:27:58.145576,324
12:27:58.145576,12544
12:27:58.145576,1
12:27:58.145576,291
12:27:58.145576,6400
12:27:58.145576,1
12:27:58.145576,272
12:27:58.145576,5376
12:27:58.145576,1
12:27:58.145576,298
12:27:58.145576,19712
12:27:58.145576,1
12:27:58.145576,386
12:27:58.145576,-16640
12:27:58.145576,1
12:27:58.145576,513
12:27:58.145576,13568
12:27:58.145576,2
12:27:58.145576,584
12:27:58.145576,14848
12:27:58.145576,2
12:27:58.145576,509
12:27:58.145576,32000
12:27:58.145576,1
12:27:58.145576,224
12:27:58.145576,20992
12:27:58.145576,0
12:27:58.145576,-42
12:27:58.145576,26623
12:27:58.145576,-1
12:27:58.145576,-229
12:27:58.145576,-3073
12:27:58.145576,-2
12:27:58.145576,-293
12:27:58.145576,-11009
12:27:58.145576,-2
12:27:58.145576,-310
12:27:58.145576,-23809
12:27:58.145576,-2
12:27:58.145576,-386
12:27:58.145576,30207
12:27:58.145576,-2
12:27:58.145576,-407
12:27:58.145576,22271
12:27:58.145576,-2
12:27:58.145576,-428
12:27:58.145576,23039
12:27:58.145576,-2
12:27:58.145576,-421
12:27:58.145576,26623
12:27:58.145576,-2
12:27:58.145576,-393
12:27:58.145576,-30977
12:27:58.145576,-2
12:27:58.145576,-359
12:27:58.145576,-20737
12:27:58.145576,-2
12:27:58.145576,-317
12:27:58.145576,-10497
12:27:58.145576,-2
12:27:58.145576,-286
12:27:58.145576,-3841
12:27:58.145576,-2
12:27:58.145576,-253
12:27:58.145576,5375
12:27:58.145576,-1
12:27:58.145576,-224
12:27:58.145576,10239
12:27:58.145576,-1
12:27:58.145576,-222
12:27:58.145576,6399
12:27:58.145576,-1
12:27:58.145576,-234
12:27:58.145576,4095
12:27:58.145576,-1
12:27:58.145576,-253
12:27:58.145576,4095
12:27:58.145576,-1
12:27:58.145576,-210
12:27:58.145576,16895
12:27:58.145576,-1
12:27:58.145576,-175
12:27:58.145576,27647
12:27:58.145576,-1
12:27:58.145576,-142
12:27:58.145576,26623
12:27:58.145576,-1
12:27:58.145576,-161
12:27:58.715565,-163
12:27:58.715565,23551
12:27:58.715565,-1
12:27:58.715565,-184
12:27:58.715565,4095
12:27:58.715565,-1
12:27:58.715565,-251
12:27:58.715565,-769
12:27:58.715565,-1
12:27:58.715565,442
12:27:58.715565,-9472
12:27:58.715565,2
12:27:58.715565,542
12:27:58.715565,-25856
12:27:58.715565,-1
12:27:58.715565,-390
12:27:58.715565,3071
12:27:58.715565,0
12:27:58.715565,156
12:27:58.715565,-23552
12:27:58.715565,-1
12:27:58.715565,-99
12:27:58.715565,-4353
12:27:58.715565,-1
12:27:58.715565,-66
12:27:58.715565,-19713
12:27:58.715565,-1
12:27:58.715565,-40
12:27:58.715565,-8705
12:27:58.715565,-1
12:27:58.715565,-40
12:27:58.715565,-3841
12:27:58.715565,-1
12:27:58.715565,2
12:27:58.715565,3584
12:27:58.715565,0
12:27:58.715565,37
12:27:58.715565,15616
12:27:58.715565,0
12:27:58.715565,80
12:27:58.715565,27648
12:27:58.715565,0
12:27:58.715565,142
12:27:58.715565,-20736
12:27:58.715565,0
12:27:58.715565,213
12:27:58.715565,1024
12:27:58.715565,1
12:27:58.715565,300
12:27:58.715565,19200
12:27:58.715565,1
12:27:58.715565,367
12:27:58.715565,-28672
12:27:58.715565,1
12:27:58.715565,416
12:27:58.715565,-28672
12:27:58.715565,1
12:27:58.715565,338
12:27:58.715565,-2048
12:27:58.715565,0
12:27:58.715565,137
12:27:58.715565,1792
12:27:58.715565,0
12:27:58.715565,-108
12:27:58.715565,17919
12:27:58.715565,-1
12:27:58.715565,-229
12:27:58.715565,1535
12:27:58.715565,-1
12:27:58.715565,-269
12:27:58.715565,-2561
12:27:58.715565,-2
12:27:58.715565,-255
12:27:58.715565,2303
12:27:58.715565,-1
12:27:58.715565,-241
12:27:58.715565,7167
12:27:58.715565,-1
12:27:58.715565,-210
12:27:58.715565,16127
12:27:58.715565,-1
12:27:58.715565,-189
12:27:58.715565,19967
12:27:58.715565,-1
12:27:58.715565,-170
12:27:58.715565,23551
12:27:58.715565,-1
12:27:58.715565,-153
12:27:58.715565,30207
12:27:58.715565,-1
12:27:58.715565,-134
12:27:58.715565,32511
12:27:58.715565,-1
12:27:58.715565,-120
12:27:58.715565,-28161
12:27:58.715565,-1
12:27:58.715565,-108
12:27:58.715565,-28161
12:27:58.715565,-1
12:27:58.715565,-106
12:27:58.715565,-23297
12:27:58.715565,-1
12:27:58.715565,-82
12:27:58.715565,-20737
12:27:58.715565,-1
12:27:58.715565,-85
12:27:58.715565,-23297
12:27:58.715565,-1
12:27:58.715565,-104
12:27:59.315600,-111
12:27:59.315600,-26881
12:27:59.315600,-1
12:27:59.315600,-87
12:27:59.315600,-13569
12:27:59.315600,-1
12:27:59.315600,-40
12:27:59.315600,-6913
12:27:59.315600,-1
12:27:59.315600,7
12:27:59.315600,4608
12:27:59.315600,0
12:27:59.315600,-9
12:27:59.315600,-3841
12:27:59.315600,-1
12:27:59.315600,-9
12:27:59.315600,-3841
12:27:59.315600,-1
12:27:59.315600,-54
12:27:59.315600,-32257
12:27:59.315600,-1
12:27:59.315600,-73
12:27:59.315600,4863
12:27:59.315600,1
12:27:59.315600,705
12:27:59.315600,24576
12:27:59.315600,3
12:27:59.315600,492
12:27:59.315600,-30720
12:27:59.315600,-1
12:27:59.315600,-123
12:27:59.315600,-3073
12:27:59.315600,0
12:27:59.315600,158
12:27:59.315600,-9472
12:27:59.315600,-1
12:27:59.315600,33
12:27:59.315600,15104
12:27:59.315600,0
12:27:59.315600,-2
12:27:59.315600,3071
12:27:59.315600,0
12:27:59.315600,49
12:27:59.315600,13312
12:27:59.315600,0
12:27:59.315600,56
12:27:59.315600,20480
12:27:59.315600,0
12:27:59.315600,99
12:27:59.315600,27136
12:27:59.315600,0
12:27:59.315600,123
12:27:59.315600,-27392
12:27:59.315600,0
12:27:59.315600,172
12:27:59.315600,-13568
12:27:59.315600,0
12:27:59.315600,236
12:27:59.315600,4608
12:27:59.315600,1
12:27:59.315600,319
12:27:59.315600,27648
12:27:59.315600,1
12:27:59.315600,402
12:27:59.315600,-18944
12:27:59.315600,1
12:27:59.315600,476
12:27:59.315600,-2048
12:27:59.315600,1
12:27:59.315600,506
12:27:59.315600,-11776
12:27:59.315600,1
12:27:59.315600,393
12:27:59.315600,8960
12:27:59.315600,1
12:27:59.315600,168
12:27:59.315600,11264
12:27:59.315600,0
12:27:59.315600,-52
12:27:59.315600,-28161
12:27:59.315600,-1
12:27:59.315600,-139
12:27:59.315600,24575
12:27:59.315600,-1
12:27:59.315600,-165
12:27:59.315600,28927
12:27:59.315600,-1
12:27:59.315600,-134
12:27:59.315600,26623
12:27:59.315600,-1
12:27:59.315600,-144
12:27:59.315600,-23809
12:27:59.315600,-1
12:27:59.315600,-89
12:27:59.315600,-27393
12:27:59.315600,-1
12:27:59.315600,-75
12:27:59.315600,-13057
12:27:59.315600,-1
12:27:59.315600,-68
12:27:59.315600,-13057
12:27:59.315600,-1
12:27:59.315600,-23
12:27:59.315600,-4353
12:27:59.315600,-1
12:27:59.315600,-9
12:27:59.315600,3839
12:27:59.315600,0
12:27:59.315600,35
12:27:59.855330,49
12:27:59.855330,15616
12:27:59.855330,0
12:27:59.855330,68
12:27:59.855330,20480
12:27:59.855330,0
12:27:59.855330,87
12:27:59.855330,20480
12:27:59.855330,0
12:27:59.855330,89
12:27:59.855330,25856
12:27:59.855330,0
12:27:59.855330,87
12:27:59.855330,22272
12:27:59.855330,0
12:27:59.855330,108
12:27:59.855330,29696
12:27:59.855330,0
12:27:59.855330,123
12:27:59.855330,-31744
12:27:59.855330,0
12:27:59.855330,146
12:27:59.855330,-15360
12:27:59.855330,0
12:27:59.855330,248
12:27:59.855330,4608
12:27:59.855330,1
12:27:59.855330,284
12:27:59.855330,8192
12:27:59.855330,1
12:27:59.855330,303
12:27:59.855330,10752
12:27:59.855330,1
12:27:59.855330,279
12:27:59.855330,6400
12:27:59.855330,1
12:27:59.855330,272
12:27:59.855330,-17152
12:27:59.855330,0
12:27:59.855330,142
12:27:59.855330,21760
12:27:59.855330,1
12:27:59.855330,757
12:27:59.855330,18432
12:27:59.855330,4
12:27:59.855330,989
12:27:59.855330,18688
12:27:59.855330,1
12:27:59.855330,-61
12:27:59.855330,8447
12:27:59.855330,1
12:27:59.855330,464
12:27:59.855330,-7424
12:27:59.855330,0
12:27:59.855330,203
12:27:59.855330,12032
12:27:59.855330,1
12:27:59.855330,253
12:27:59.855330,-10496
12:27:59.855330,0
12:27:59.855330,243
12:27:59.855330,-9216
12:27:59.855330,0
12:27:59.855330,187
12:27:59.855330,-14080
12:27:59.855330,0
12:27:59.855330,215
12:27:59.855330,-10496
12:27:59.855330,0
12:27:59.855330,241
12:27:59.855330,5376
12:27:59.855330,1
12:27:59.855330,298
12:27:59.855330,18688
12:27:59.855330,1
12:27:59.855330,369
12:27:59.855330,-26880
12:27:59.855330,1
12:27:59.855330,442
12:27:59.855330,-8192
12:27:59.855330,1
12:27:59.855330,511
12:27:59.855330,8960
12:27:59.855330,2
12:27:59.855330,584
12:27:59.855330,22272
12:27:59.855330,2
12:27:59.855330,610
12:27:59.855330,24064
12:27:59.855330,2
12:27:59.855330,558
12:27:59.855330,-9216
12:27:59.855330,1
12:27:59.855330,362
12:27:59.855330,-3840
12:27:59.855330,0
12:27:59.855330,132
12:27:59.855330,12544
12:27:59.855330,0
12:27:59.855330,0
12:27:59.855330,-7680
12:27:59.855330,-1
12:27:59.855330,-47
12:27:59.855330,-13569
12:27:59.855330,-1
12:27:59.855330,-56
12:27:59.855330,-14081
12:27:59.855330,-1
12:27:59.855330,-54
12:28:00.425600,-49
12:28:00.425600,-10497
12:28:00.425600,-1
12:28:00.425600,-40
12:28:00.425600,-8705
12:28:00.425600,-1
12:28:00.425600,-30
12:28:00.425600,-6913
12:28:00.425600,-1
12:28:00.425600,-23
12:28:00.425600,-4353
12:28:00.425600,-1
12:28:00.425600,-2
12:28:00.425600,3839
12:28:00.425600,0
12:28:00.425600,9
12:28:00.425600,1792
12:28:00.425600,0
12:28:00.425600,14
12:28:00.425600,4096
12:28:00.425600,0
12:28:00.425600,18
12:28:00.425600,4096
12:28:00.425600,0
12:28:00.425600,21
12:28:00.425600,5376
12:28:00.425600,0
12:28:00.425600,21
12:28:00.425600,5888
12:28:00.425600,0
12:28:00.425600,23
12:28:00.425600,6656
12:28:00.425600,0
12:28:00.425600,28
12:28:00.425600,5888
12:28:00.425600,0
12:28:00.425600,18
12:28:00.425600,2304
12:28:00.425600,0
12:28:00.425600,2
12:28:00.425600,3584
12:28:00.425600,0
12:28:00.425600,47
12:28:00.425600,22272
12:28:00.425600,0
12:28:00.425600,111
12:28:00.425600,-31744
12:28:00.425600,0
12:28:00.425600,151
12:28:00.425600,-29184
12:28:00.425600,0
12:28:00.425600,130
12:28:00.425600,-31744
12:28:00.425600,0
12:28:00.425600,127
12:28:00.425600,27136
12:28:00.425600,0
12:28:00.425600,42
12:28:00.425600,1024
12:28:00.425600,0
12:28:00.425600,187
12:28:00.425600,24576
12:28:00.425600,2
12:28:00.425600,978
12:28:00.425600,-28928
12:28:00.425600,3
12:28:00.425600,262
12:28:00.425600,5632
12:28:00.425600,-1
12:28:00.425600,44
12:28:00.425600,9472
12:28:00.425600,1
12:28:00.425600,75
12:28:00.425600,-1792
12:28:00.425600,-1
12:28:00.425600,78
12:28:00.425600,10752
12:28:00.425600,0
12:28:00.425600,11
12:28:00.425600,10240
12:28:00.425600,0
12:28:00.425600,30
12:28:00.425600,3584
12:28:00.425600,0
12:28:00.425600,26
12:28:00.425600,9472
12:28:00.425600,0
12:28:00.425600,52
12:28:00.425600,18176
12:28:00.425600,0
12:28:00.425600,97
12:28:00.425600,32000
12:28:00.425600,0
12:28:00.425600,149
12:28:00.425600,-20224
12:28:00.425600,0
12:28:00.425600,201
12:28:00.425600,-6144
12:28:00.425600,0
12:28:00.425600,269
12:28:00.425600,10752
12:28:00.425600,1
12:28:00.425600,322
12:28:00.425600,23552
12:28:00.425600,1
12:28:00.425600,371
12:28:00.425600,-31744
12:28:00.425600,1
12:28:00.425600,376
12:28:00.966830,329
12:28:00.966830,-3328
12:28:00.966830,0
12:28:00.966830,118
12:28:00.966830,-1792
12:28:00.966830,-1
12:28:00.966830,-120
12:28:00.966830,12543
12:28:00.966830,-1
12:28:00.966830,-262
12:28:00.966830,-11009
12:28:00.966830,-2
12:28:00.966830,-322
12:28:00.966830,-15873
12:28:00.966830,-2
12:28:00.966830,-307
12:28:00.966830,-9985
12:28:00.966830,-2
12:28:00.966830,-298
12:28:00.966830,-7937
12:28:00.966830,-2
12:28:00.966830,-272
12:28:00.966830,-2561
12:28:00.966830,-2
12:28:00.966830,-260
12:28:00.966830,2815
12:28:00.966830,-1
12:28:00.966830,-234
12:28:00.966830,8959
12:28:00.966830,-1
12:28:00.966830,-215
12:28:00.966830,13823
12:28:00.966830,-1
12:28:00.966830,-198
12:28:00.966830,15615
12:28:00.966830,-1
12:28:00.966830,-184
12:28:00.966830,18687
12:28:00.966830,-1
12:28:00.966830,-187
12:28:00.966830,18687
12:28:00.966830,-1
12:28:00.966830,-184
12:28:00.966830,19967
12:28:00.966830,-1
12:28:00.966830,-177
12:28:00.966830,21759
12:28:00.966830,-1
12:28:00.966830,-161
12:28:00.966830,25343
12:28:00.966830,-1
12:28:00.966830,-153
12:28:00.966830,27647
12:28:00.966830,-1
12:28:00.966830,-146
12:28:00.966830,29439
12:28:00.966830,-1
12:28:00.966830,-149
12:28:00.966830,24575
12:28:00.966830,-1
12:28:00.966830,-163
12:28:00.966830,24575
12:28:00.966830,-1
12:28:00.966830,-139
12:28:00.966830,-27393
12:28:00.966830,-1
12:28:00.966830,-89
12:28:00.966830,-17153
12:28:00.966830,-1
12:28:00.966830,-49
12:28:00.966830,-11777
12:28:00.966830,-1
12:28:00.966830,-66
12:28:00.966830,-20225
12:28:00.966830,-1
12:28:00.966830,-71
12:28:00.966830,-15873
12:28:00.966830,-1
12:28:00.966830,-97
12:28:00.966830,24063
12:28:00.966830,-1
12:28:00.966830,-99
12:28:00.966830,-1793
12:28:00.966830,0
12:28:00.966830,686
12:28:00.966830,24064
12:28:00.966830,3
12:28:00.966830,483
12:28:00.966830,20736
12:28:00.966830,-1
12:28:00.966830,-196
12:28:00.966830,-13825
12:28:00.966830,0
12:28:00.966830,127
12:28:00.966830,-18176
12:28:00.966830,-1
12:28:00.966830,0
12:28:00.966830,4608
12:28:00.966830,0
12:28:00.966830,-26
12:28:00.966830,767
12:28:00.966830,0
12:28:00.966830,21
12:28:00.966830,4096
12:28:00.966830,0
12:28:00.966830,35
12:28:00.966830,13824
12:28:00.966830,0
12:28:00.966830,61
12:28:01.536260,82
12:28:01.536260,26624
12:28:01.536260,0
12:28:01.536260,123
12:28:01.536260,-25600
12:28:01.536260,0
12:28:01.536260,182
12:28:01.536260,-12800
12:28:01.536260,0
12:28:01.536260,248
12:28:01.536260,10752
12:28:01.536260,1
12:28:01.536260,336
12:28:01.536260,26368
12:28:01.536260,1
12:28:01.536260,397
12:28:01.536260,-18944
12:28:01.536260,1
12:28:01.536260,454
12:28:01.536260,-13056
12:28:01.536260,1
12:28:01.536260,452
12:28:01.536260,-29952
12:28:01.536260,1
12:28:01.536260,305
12:28:01.536260,-15872
12:28:01.536260,0
12:28:01.536260,85
12:28:01.536260,-1024
12:28:01.536260,-1
12:28:01.536260,-78
12:28:01.536260,-29953
12:28:01.536260,-1
12:28:01.536260,-137
12:28:01.536260,28415
12:28:01.536260,-1
12:28:01.536260,-144
12:28:01.536260,29439
12:28:01.536260,-1
12:28:01.536260,-134
12:28:01.536260,-32257
12:28:01.536260,-1
12:28:01.536260,-127
12:28:01.536260,-31233
12:28:01.536260,-1
12:28:01.536260,-118
12:28:01.536260,-28673
12:28:01.536260,-1
12:28:01.536260,-108
12:28:01.536260,-28161
12:28:01.536260,-1
12:28:01.536260,-104
12:28:01.536260,-25601
12:28:01.536260,-1
12:28:01.536260,-108
12:28:01.536260,-25601
12:28:01.536260,-1
12:28:01.536260,-101
12:28:01.536260,-26881
12:28:01.536260,-1
12:28:01.536260,-104
12:28:01.536260,-26369
12:28:01.536260,-1
12:28:01.536260,-101
12:28:01.536260,-25089
12:28:01.536260,-1
12:28:01.536260,-99
12:28:01.536260,-24577
12:28:01.536260,-1
12:28:01.536260,-97
12:28:01.536260,-23297
12:28:01.536260,-1
12:28:01.536260,-92
12:28:01.536260,-23809
12:28:01.536260,-1
12:28:01.536260,-87
12:28:01.536260,-22017
12:28:01.536260,-1
12:28:01.536260,-87
12:28:01.536260,-22017
12:28:01.536260,-1
12:28:01.536260,-101
12:28:01.536260,-27393
12:28:01.536260,-1
12:28:01.536260,-113
12:28:01.536260,-27393
12:28:01.536260,-1
12:28:01.536260,-82
12:28:01.536260,-13569
12:28:01.536260,-1
12:28:01.536260,-37
12:28:01.536260,-5633
12:28:01.536260,-1
12:28:01.536260,-16
12:28:01.536260,-6913
12:28:01.536260,-1
12:28:01.536260,-42
12:28:01.536260,-9217
12:28:01.536260,-1
12:28:01.536260,-35
12:28:01.536260,-15361
12:28:01.536260,-1
12:28:01.536260,-120
12:28:01.536260,32511
12:28:01.536260,-1
12:28:01.536260,97
12:28:01.536260,5120
12:28:01.536260,2
12:28:01.536260,862
12:28:02.075613,717
12:28:02.075613,13824
12:28:02.075613,0
12:28:02.075613,-274
12:28:02.075613,23807
12:28:02.075613,0
12:28:02.075613,210
12:28:02.075613,-8448
12:28:02.075613,-1
12:28:02.075613,-44
12:28:02.075613,8703
12:28:02.075613,0
12:28:02.075613,9
12:28:02.075613,2304
12:28:02.075613,0
12:28:02.075613,40
12:28:02.075613,9472
12:28:02.075613,0
12:28:02.075613,33
12:28:02.075613,13824
12:28:02.075613,0
12:28:02.075613,68
12:28:02.075613,20480
12:28:02.075613,0
12:28:02.075613,108
12:28:02.075613,-32256
12:28:02.075613,0
12:28:02.075613,146
12:28:02.075613,-21504
12:28:02.075613,0
12:28:02.075613,198
12:28:02.075613,-7424
12:28:02.075613,0
12:28:02.075613,255
12:28:02.075613,8192
12:28:02.075613,1
12:28:02.075613,324
12:28:02.075613,24064
12:28:02.075613,1
12:28:02.075613,381
12:28:02.075613,-26880
12:28:02.075613,1
12:28:02.075613,416
12:28:02.075613,-25600
12:28:02.075613,1
12:28:02.075613,371
12:28:02.075613,10240
12:28:02.075613,1
12:28:02.075613,191
12:28:02.075613,17408
12:28:02.075613,0
12:28:02.075613,-33
12:28:02.075613,-26881
12:28:02.075613,-1
12:28:02.075613,-163
12:28:02.075613,16127
12:28:02.075613,-1
12:28:02.075613,-210
12:28:02.075613,12031
12:28:02.075613,-1
12:28:02.075613,-203
12:28:02.075613,15103
12:28:02.075613,-1
12:28:02.075613,-184
12:28:02.075613,22271
12:28:02.075613,-1
12:28:02.075613,-156
12:28:02.075613,30207
12:28:02.075613,-1
12:28:02.075613,-127
12:28:02.075613,-28673
12:28:02.075613,-1
12:28:02.075613,-104
12:28:02.075613,-24577
12:28:02.075613,-1
12:28:02.075613,-87
12:28:02.075613,-20737
12:28:02.075613,-1
12:28:02.075613,-78
12:28:02.075613,-18433
12:28:02.075613,-1
12:28:02.075613,-71
12:28:02.075613,-15873
12:28:02.075613,-1
12:28:02.075613,-59
12:28:02.075613,-13569
12:28:02.075613,-1
12:28:02.075613,-42
12:28:02.075613,-9217
12:28:02.075613,-1
12:28:02.075613,-30
12:28:02.075613,-6401
12:28:02.075613,-1
12:28:02.075613,-23
12:28:02.075613,-4353
12:28:02.075613,-1
12:28:02.075613,-21
12:28:02.075613,-3841
12:28:02.075613,-1
12:28:02.075613,-7
12:28:02.075613,-1537
12:28:02.075613,-1
12:28:02.075613,-14
12:28:02.075613,-5121
12:28:02.075613,-1
12:28:02.075613,-28
12:28:02.075613,-8705
12:28:02.075613,-1
12:28:02.075613,-35
12:28:02.675604,-11
12:28:02.675604,4351
12:28:02.675604,0
12:28:02.675604,33
12:28:02.675604,13312
12:28:02.675604,0
12:28:02.675604,61
12:28:02.675604,15104
12:28:02.675604,0
12:28:02.675604,56
12:28:02.675604,12544
12:28:02.675604,0
12:28:02.675604,44
12:28:02.675604,7168
12:28:02.675604,0
12:28:02.675604,-35
12:28:02.675604,-12289
12:28:02.675604,-1
12:28:02.675604,194
12:28:02.675604,-31232
12:28:02.675604,2
12:28:02.675604,949
12:28:02.675604,-2048
12:28:02.675604,2
12:28:02.675604,78
12:28:02.675604,-4096
12:28:02.675604,-2
12:28:02.675604,94
12:28:02.675604,-1280
12:28:02.675604,0
12:28:02.675604,7
12:28:02.675604,-2816
12:28:02.675604,-1
12:28:02.675604,63
12:28:02.675604,3584
12:28:02.675604,0
12:28:02.675604,4
12:28:02.675604,10752
12:28:02.675604,0
12:28:02.675604,47
12:28:02.675604,10752
12:28:02.675604,0
12:28:02.675604,61
12:28:02.675604,20480
12:28:02.675604,0
12:28:02.675604,89
12:28:02.675604,27648
12:28:02.675604,0
12:28:02.675604,134
12:28:02.675604,-26368
12:28:02.675604,0
12:28:02.675604,179
12:28:02.675604,-12800
12:28:02.675604,0
12:28:02.675604,236
12:28:02.675604,3328
12:28:02.675604,1
12:28:02.675604,303
12:28:02.675604,22784
12:28:02.675604,1
12:28:02.675604,376
12:28:02.675604,-28672
12:28:02.675604,1
12:28:02.675604,431
12:28:02.675604,-17920
12:28:02.675604,1
12:28:02.675604,442
12:28:02.675604,-26368
12:28:02.675604,1
12:28:02.675604,324
12:28:02.675604,-11776
12:28:02.675604,0
12:28:02.675604,92
12:28:02.675604,-3584
12:28:02.675604,-1
12:28:02.675604,-89
12:28:02.675604,28927
12:28:02.675604,-1
12:28:02.675604,-172
12:28:02.675604,17407
12:28:02.675604,-1
12:28:02.675604,-196
12:28:02.675604,17407
12:28:02.675604,-1
12:28:02.675604,-179
12:28:02.675604,23551
12:28:02.675604,-1
12:28:02.675604,-153
12:28:02.675604,27647
12:28:02.675604,-1
12:28:02.675604,-137
12:28:02.675604,-31745
12:28:02.675604,-1
12:28:02.675604,-120
12:28:02.675604,-28161
12:28:02.675604,-1
12:28:02.675604,-104
12:28:02.675604,-26369
12:28:02.675604,-1
12:28:02.675604,-104
12:28:02.675604,-27393
12:28:02.675604,-1
12:28:02.675604,-108
12:28:02.675604,-28673
12:28:02.675604,-1
12:28:02.675604,-111
12:28:02.675604,-26881
12:28:02.675604,-1
12:28:02.675604,-108
12:28:03.245657,-104
12:28:03.245657,-26881
12:28:03.245657,-1
12:28:03.245657,-106
12:28:03.245657,-24577
12:28:03.245657,-1
12:28:03.245657,-94
12:28:03.245657,-23809
12:28:03.245657,-1
12:28:03.245657,-94
12:28:03.245657,-24577
12:28:03.245657,-1
12:28:03.245657,-101
12:28:03.245657,-29953
12:28:03.245657,-1
12:28:03.245657,-106
12:28:03.245657,-19713
12:28:03.245657,-1
12:28:03.245657,-71
12:28:03.245657,-13057
12:28:03.245657,-1
12:28:03.245657,-16
12:28:03.245657,3839
12:28:03.245657,0
12:28:03.245657,26
12:28:03.245657,4096
12:28:03.245657,0
12:28:03.245657,11
12:28:03.245657,2816
12:28:03.245657,0
12:28:03.245657,-14
12:28:03.245657,-9985
12:28:03.245657,-1
12:28:03.245657,-89
12:28:03.245657,-27393
12:28:03.245657,-1
12:28:03.245657,113
12:28:03.245657,11776
12:28:03.245657,2
12:28:03.245657,873
12:28:03.245657,-11776
12:28:03.245657,2
12:28:03.245657,85
12:28:03.245657,-2304
12:28:03.245657,-2
12:28:03.245657,75
12:28:03.245657,-3840
12:28:03.245657,0
12:28:03.245657,11
12:28:03.245657,-5888
12:28:03.245657,-1
12:28:03.245657,59
12:28:03.245657,5376
12:28:03.245657,0
12:28:03.245657,7
12:28:03.245657,12544
12:28:03.245657,0
12:28:03.245657,56
12:28:03.245657,13312
12:28:03.245657,0
12:28:03.245657,56
12:28:03.245657,18176
12:28:03.245657,0
12:28:03.245657,97
12:28:03.245657,28928
12:28:03.245657,0
12:28:03.245657,132
12:28:03.245657,-25088
12:28:03.245657,0
12:28:03.245657,179
12:28:03.245657,-12800
12:28:03.245657,0
12:28:03.245657,236
12:28:03.245657,4608
12:28:03.245657,1
12:28:03.245657,310
12:28:03.245657,20480
12:28:03.245657,1
12:28:03.245657,359
12:28:03.245657,-31744
12:28:03.245657,1
12:28:03.245657,414
12:28:03.245657,-20224
12:28:03.245657,1
12:28:03.245657,423
12:28:03.245657,-32256
12:28:03.245657,1
12:28:03.245657,307
12:28:03.245657,-16640
12:28:03.245657,0
12:28:03.245657,75
12:28:03.245657,-5888
12:28:03.245657,-1
12:28:03.245657,-101
12:28:03.245657,27135
12:28:03.245657,-1
12:28:03.245657,-182
12:28:03.245657,16127
12:28:03.245657,-1
12:28:03.245657,-201
12:28:03.245657,14335
12:28:03.245657,-1
12:28:03.245657,-189
12:28:03.245657,19199
12:28:03.245657,-1
12:28:03.245657,-175
12:28:03.245657,23551
12:28:03.245657,-1
12:28:03.245657,-163
12:28:03.785602,-151
12:28:03.785602,28927
12:28:03.785602,-1
12:28:03.785602,-139
12:28:03.785602,31999
12:28:03.785602,-1
12:28:03.785602,-127
12:28:03.785602,-31233
12:28:03.785602,-1
12:28:03.785602,-118
12:28:03.785602,-29441
12:28:03.785602,-1
12:28:03.785602,-111
12:28:03.785602,-28673
12:28:03.785602,-1
12:28:03.785602,-116
12:28:03.785602,-25601
12:28:03.785602,-1
12:28:03.785602,-87
12:28:03.785602,-20225
12:28:03.785602,-1
12:28:03.785602,-89
12:28:03.785602,-21505
12:28:03.785602,-1
12:28:03.785602,-78
12:28:03.785602,-21505
12:28:03.785602,-1
12:28:03.785602,-82
12:28:03.785602,-18433
12:28:03.785602,-1
12:28:03.785602,-78
12:28:03.785602,-22529
12:28:03.785602,-1
12:28:03.785602,-101
12:28:03.785602,-26369
12:28:03.785602,-1
12:28:03.785602,-99
12:28:03.785602,-20737
12:28:03.785602,-1
12:28:03.785602,-49
12:28:03.785602,-6913
12:28:03.785602,-1
12:28:03.785602,-14
12:28:03.785602,255
12:28:03.785602,0
12:28:03.785602,-11
12:28:03.785602,-6913
12:28:03.785602,-1
12:28:03.785602,-33
12:28:03.785602,-8193
12:28:03.785602,-1
12:28:03.785602,-47
12:28:03.785602,-28673
12:28:03.785602,-1
12:28:03.785602,-134
12:28:03.785602,22527
12:28:03.785602,0
12:28:03.785602,511
12:28:03.785602,17152
12:28:03.785602,3
12:28:03.785602,700
12:28:03.785602,16128
12:28:03.785602,0
12:28:03.785602,-274
12:28:03.785602,18943
12:28:03.785602,0
12:28:03.785602,220
12:28:03.785602,-4096
12:28:03.785602,-1
12:28:03.785602,-42
12:28:03.785602,9727
12:28:03.785602,0
12:28:03.785602,-7
12:28:03.785602,-5121
12:28:03.785602,-1
12:28:03.785602,23
12:28:03.785602,5376
12:28:03.785602,0
12:28:03.785602,14
12:28:03.785602,8448
12:28:03.785602,0
12:28:03.785602,49
12:28:03.785602,16128
12:28:03.785602,0
12:28:03.785602,78
12:28:03.785602,25344
12:28:03.785602,0
12:28:03.785602,120
12:28:03.785602,-29952
12:28:03.785602,0
12:28:03.785602,170
12:28:03.785602,-13568
12:28:03.785602,0
12:28:03.785602,241
12:28:03.785602,4608
12:28:03.785602,1
12:28:03.785602,303
12:28:03.785602,22272
12:28:03.785602,1
12:28:03.785602,374
12:28:03.785602,-29952
12:28:03.785602,1
12:28:03.785602,412
12:28:03.785602,-25088
12:28:03.785602,1
12:28:03.785602,381
12:28:03.785602,12032
12:28:03.785602,1
12:28:03.785602,196
12:28:04.325603,80
12:28:04.325603,-7168
12:28:04.325603,-1
12:28:04.325603,-106
12:28:04.325603,25855
12:28:04.325603,-1
12:28:04.325603,-182
12:28:04.325603,16895
12:28:04.325603,-1
12:28:04.325603,-198
12:28:04.325603,15103
12:28:04.325603,-1
12:28:04.325603,-177
12:28:04.325603,25855
12:28:04.325603,-1
12:28:04.325603,-144
12:28:04.325603,28927
12:28:04.325603,-1
12:28:04.325603,-139
12:28:04.325603,-29953
12:28:04.325603,-1
12:28:04.325603,-111
12:28:04.325603,-29441
12:28:04.325603,-1
12:28:04.325603,-113
12:28:04.325603,-27393
12:28:04.325603,-1
12:28:04.325603,-101
12:28:04.325603,-24577
12:28:04.325603,-1
12:28:04.325603,-87
12:28:04.325603,-20737
12:28:04.325603,-1
12:28:04.325603,-89
12:28:04.325603,-20225
12:28:04.325603,-1
12:28:04.325603,-75
12:28:04.325603,-22017
12:28:04.325603,-1
12:28:04.325603,-82
12:28:04.325603,-19713
12:28:04.325603,-1
12:28:04.325603,-80
12:28:04.325603,-20225
12:28:04.325603,-1
12:28:04.325603,-75
12:28:04.325603,-18433
12:28:04.325603,-1
12:28:04.325603,-92
12:28:04.325603,-26881
12:28:04.325603,-1
12:28:04.325603,-101
12:28:04.325603,-25601
12:28:04.325603,-1
12:28:04.325603,-80
12:28:04.325603,-11777
12:28:04.325603,-1
12:28:04.325603,-33
12:28:04.325603,-2561
12:28:04.325603,-1
12:28:04.325603,-2
12:28:04.325603,-3329
12:28:04.325603,-1
12:28:04.325603,-21
12:28:04.325603,-5633
12:28:04.325603,-1
12:28:04.325603,-26
12:28:04.325603,-14849
12:28:04.325603,-1
12:28:04.325603,-132
12:28:04.325603,-28161
12:28:04.325603,-1
12:28:04.325603,191
12:28:04.325603,32512
12:28:04.325603,2
12:28:04.325603,852
12:28:04.325603,7680
12:28:04.325603,2
12:28:04.325603,-123
12:28:04.325603,-10497
12:28:04.325603,-2
12:28:04.325603,123
12:28:04.325603,-18432
12:28:04.325603,0
12:28:04.325603,-56
12:28:04.325603,-8705
12:28:04.325603,-1
12:28:04.325603,26
12:28:04.325603,-7680
12:28:04.325603,-1
12:28:04.325603,-28
12:28:04.325603,767
12:28:04.325603,0
12:28:04.325603,-9
12:28:04.325603,-2561
12:28:04.325603,-1
12:28:04.325603,7
12:28:04.325603,5376
12:28:04.325603,0
12:28:04.325603,30
12:28:04.325603,12544
12:28:04.325603,0
12:28:04.325603,71
12:28:04.325603,21760
12:28:04.325603,0
12:28:04.325603,111
12:28:04.325603,-29952
12:28:04.325603,0
12:28:04.325603,168
12:28:04.896617,203
12:28:04.896617,-5632
12:28:04.896617,0
12:28:04.896617,269
12:28:04.896617,11264
12:28:04.896617,1
12:28:04.896617,322
12:28:04.896617,24064
12:28:04.896617,1
12:28:04.896617,378
12:28:04.896617,28928
12:28:04.896617,1
12:28:04.896617,307
12:28:04.896617,-11776
12:28:04.896617,0
12:28:04.896617,99
12:28:04.896617,-4096
12:28:04.896617,-1
12:28:04.896617,-116
12:28:04.896617,20991
12:28:04.896617,-1
12:28:04.896617,-220
12:28:04.896617,2815
12:28:04.896617,-1
12:28:04.896617,-253
12:28:04.896617,1535
12:28:04.896617,-1
12:28:04.896617,-236
12:28:04.896617,7167
12:28:04.896617,-1
12:28:04.896617,-222
12:28:04.896617,13055
12:28:04.896617,-1
12:28:04.896617,-194
12:28:04.896617,19199
12:28:04.896617,-1
12:28:04.896617,-172
12:28:04.896617,24063
12:28:04.896617,-1
12:28:04.896617,-153
12:28:04.896617,27135
12:28:04.896617,-1
12:28:04.896617,-146
12:28:04.896617,30719
12:28:04.896617,-1
12:28:04.896617,-130
12:28:04.896617,-31233
12:28:04.896617,-1
12:28:04.896617,-118
12:28:04.896617,-28161
12:28:04.896617,-1
12:28:04.896617,-99
12:28:04.896617,-23809
12:28:04.896617,-1
12:28:04.896617,-94
12:28:04.896617,-25089
12:28:04.896617,-1
12:28:04.896617,-85
12:28:04.896617,-17921
12:28:04.896617,-1
12:28:04.896617,-97
12:28:04.896617,-29441
12:28:04.896617,-1
12:28:04.896617,-99
12:28:04.896617,-25089
12:28:04.896617,-1
12:28:04.896617,-85
12:28:04.896617,-8705
12:28:04.896617,-1
12:28:04.896617,-9
12:28:04.896617,-769
12:28:04.896617,-1
12:28:04.896617,11
12:28:04.896617,4096
12:28:04.896617,0
12:28:04.896617,-2
12:28:04.896617,-769
12:28:04.896617,-1
12:28:04.896617,4
12:28:04.896617,-3584
12:28:04.896617,-1
12:28:04.896617,-80
12:28:04.896617,-24577
12:28:04.896617,-1
12:28:04.896617,132
12:28:04.896617,14848
12:28:04.896617,2
12:28:04.896617,866
12:28:04.896617,-18432
12:28:04.896617,2
12:28:04.896617,75
12:28:04.896617,8704
12:28:04.896617,-1
12:28:04.896617,125
12:28:04.896617,-3328
12:28:04.896617,0
12:28:04.896617,11
12:28:04.896617,-1024
12:28:04.896617,-1
12:28:04.896617,56
12:28:04.896617,2304
12:28:04.896617,0
12:28:04.896617,9
12:28:04.896617,12032
12:28:04.896617,0
12:28:04.896617,49
12:28:04.896617,11264
12:28:04.896617,0
12:28:04.896617,61
12:28:05.435745,80
12:28:05.435745,22272
12:28:05.435745,0
12:28:05.435745,104
12:28:05.435745,-31744
12:28:05.435745,0
12:28:05.435745,156
12:28:05.435745,-20224
12:28:05.435745,0
12:28:05.435745,210
12:28:05.435745,1024
12:28:05.435745,1
12:28:05.435745,307
12:28:05.435745,20992
12:28:05.435745,1
12:28:05.435745,371
12:28:05.435745,-26368
12:28:05.435745,1
12:28:05.435745,435
12:28:05.435745,-13568
12:28:05.435745,1
12:28:05.435745,466
12:28:05.435745,-14080
12:28:05.435745,1
12:28:05.435745,407
12:28:05.435745,13824
12:28:05.435745,1
12:28:05.435745,201
12:28:05.435745,22272
12:28:05.435745,0
12:28:05.435745,-11
12:28:05.435745,-20225
12:28:05.435745,-1
12:28:05.435745,-125
12:28:05.435745,28415
12:28:05.435745,-1
12:28:05.435745,-161
12:28:05.435745,23551
12:28:05.435745,-1
12:28:05.435745,-158
12:28:05.435745,27135
12:28:05.435745,-1
12:28:05.435745,-142
12:28:05.435745,32511
12:28:05.435745,-1
12:28:05.435745,-123
12:28:05.435745,-28161
12:28:05.435745,-1
12:28:05.435745,-106
12:28:05.435745,-25601
12:28:05.435745,-1
12:28:05.435745,-87
12:28:05.435745,-20225
12:28:05.435745,-1
12:28:05.435745,-75
12:28:05.435745,-18945
12:28:05.435745,-1
12:28:05.435745,-73
12:28:05.435745,-15873
12:28:05.435745,-1
12:28:05.435745,-56
12:28:05.435745,-13569
12:28:05.435745,-1
12:28:05.435745,-56
12:28:05.435745,-14081
12:28:05.435745,-1
12:28:05.435745,-49
12:28:05.435745,-12289
12:28:05.435745,-1
12:28:05.435745,-47
12:28:05.435745,-9985
12:28:05.435745,-1
12:28:05.435745,-49
12:28:05.435745,-15361
12:28:05.435745,-1
12:28:05.435745,-66
12:28:05.435745,-17921
12:28:05.435745,-1
12:28:05.435745,-56
12:28:05.435745,-6401
12:28:05.435745,-1
12:28:05.435745,0
12:28:05.435745,3584
12:28:05.435745,0
12:28:05.435745,21
12:28:05.435745,5376
12:28:05.435745,0
12:28:05.435745,7
12:28:05.435745,512
12:28:05.435745,0
12:28:05.435745,9
12:28:05.435745,-2304
12:28:05.435745,-1
12:28:05.435745,-61
12:28:05.435745,-29953
12:28:05.435745,-1
12:28:05.435745,4
12:28:05.435745,-28672
12:28:05.435745,1
12:28:05.435745,795
12:28:05.435745,14848
12:28:05.435745,3
12:28:05.435745,291
12:28:05.435745,4352
12:28:05.435745,-1
12:28:05.435745,-26
12:28:05.435745,4351
12:28:05.435745,1
12:28:05.435745,75
12:28:06.035597,-44
12:28:06.035597,11007
12:28:06.035597,0
12:28:06.035597,28
12:28:06.035597,-2816
12:28:06.035597,-1
12:28:06.035597,33
12:28:06.035597,16896
12:28:06.035597,0
12:28:06.035597,56
12:28:06.035597,16128
12:28:06.035597,0
12:28:06.035597,85
12:28:06.035597,24064
12:28:06.035597,0
12:28:06.035597,106
12:28:06.035597,31488
12:28:06.035597,0
12:28:06.035597,142
12:28:06.035597,-24320
12:28:06.035597,0
12:28:06.035597,182
12:28:06.035597,-11776
12:28:06.035597,0
12:28:06.035597,243
12:28:06.035597,4608
12:28:06.035597,1
12:28:06.035597,310
12:28:06.035597,21760
12:28:06.035597,1
12:28:06.035597,371
12:28:06.035597,-30464
12:28:06.035597,1
12:28:06.035597,404
12:28:06.035597,-26368
12:28:06.035597,1
12:28:06.035597,376
12:28:06.035597,10752
12:28:06.035597,1
12:28:06.035597,196
12:28:06.035597,19200
12:28:06.035597,0
12:28:06.035597,-30
12:28:06.035597,-27393
12:28:06.035597,-1
12:28:06.035597,-168
12:28:06.035597,14335
12:28:06.035597,-1
12:28:06.035597,-213
12:28:06.035597,12543
12:28:06.035597,-1
12:28:06.035597,-206
12:28:06.035597,13823
12:28:06.035597,-1
12:28:06.035597,-191
12:28:06.035597,19199
12:28:06.035597,-1
12:28:06.035597,-175
12:28:06.035597,24575
12:28:06.035597,-1
12:28:06.035597,-151
12:28:06.035597,28415
12:28:06.035597,-1
12:28:06.035597,-139
12:28:06.035597,31487
12:28:06.035597,-1
12:28:06.035597,-125
12:28:06.035597,-31233
12:28:06.035597,-1
12:28:06.035597,-123
12:28:06.035597,-30465
12:28:06.035597,-1
12:28:06.035597,-123
12:28:06.035597,-31233
12:28:06.035597,-1
12:28:06.035597,-125
12:28:06.035597,-31233
12:28:06.035597,-1
12:28:06.035597,-116
12:28:06.035597,-30465
12:28:06.035597,-1
12:28:06.035597,-130
12:28:06.035597,30207
12:28:06.035597,-1
12:28:06.035597,-146
12:28:06.035597,27647
12:28:06.035597,-1
12:28:06.035597,-149
12:28:06.035597,-31745
12:28:06.035597,-1
12:28:06.035597,-94
12:28:06.035597,-20225
12:28:06.035597,-1
12:28:06.035597,-63
12:28:06.035597,-15361
12:28:06.035597,-1
12:28:06.035597,-78
12:28:06.035597,-20737
12:28:06.035597,-1
12:28:06.035597,-80
12:28:06.035597,-21505
12:28:06.035597,-1
12:28:06.035597,-123
12:28:06.035597,16127
12:28:06.035597,-1
12:28:06.035597,-120
12:28:06.035597,-4097
12:28:06.035597,0
12:28:06.035597,667
12:28:06.576086,783
12:28:06.576086,26368
12:28:06.576086,1
12:28:06.576086,-265
12:28:06.576086,-769
12:28:06.576086,-2
12:28:06.576086,139
12:28:06.576086,22272
12:28:06.576086,0
12:28:06.576086,-111
12:28:06.576086,-10497
12:28:06.576086,-1
12:28:06.576086,-9
12:28:06.576086,-14081
12:28:06.576086,-1
12:28:06.576086,-14
12:28:06.576086,5631
12:28:06.576086,0
12:28:06.576086,-7
12:28:06.576086,-2049
12:28:06.576086,-1
12:28:06.576086,18
12:28:06.576086,10752
12:28:06.576086,0
12:28:06.576086,49
12:28:06.576086,16128
12:28:06.576086,0
12:28:06.576086,99
12:28:06.576086,30720
12:28:06.576086,0
12:28:06.576086,134
12:28:06.576086,-23296
12:28:06.576086,0
12:28:06.576086,206
12:28:06.576086,-3328
12:28:06.576086,0
12:28:06.576086,277
12:28:06.576086,15616
12:28:06.576086,1
12:28:06.576086,359
12:28:06.576086,32000
12:28:06.576086,1
12:28:06.576086,402
12:28:06.576086,-26880
12:28:06.576086,1
12:28:06.576086,374
12:28:06.576086,10752
12:28:06.576086,1
12:28:06.576086,189
12:28:06.576086,19968
12:28:06.576086,0
12:28:06.576086,-30
12:28:06.576086,-30465
12:28:06.576086,-1
12:28:06.576086,-172
12:28:06.576086,13055
12:28:06.576086,-1
12:28:06.576086,-222
12:28:06.576086,7679
12:28:06.576086,-1
12:28:06.576086,-227
12:28:06.576086,10751
12:28:06.576086,-1
12:28:06.576086,-203
12:28:06.576086,16127
12:28:06.576086,-1
12:28:06.576086,-177
12:28:06.576086,23551
12:28:06.576086,-1
12:28:06.576086,-151
12:28:06.576086,30719
12:28:06.576086,-1
12:28:06.576086,-130
12:28:06.576086,-29441
12:28:06.576086,-1
12:28:06.576086,-106
12:28:06.576086,-25089
12:28:06.576086,-1
12:28:06.576086,-97
12:28:06.576086,-23809
12:28:06.576086,-1
12:28:06.576086,-92
12:28:06.576086,-23297
12:28:06.576086,-1
12:28:06.576086,-89
12:28:06.576086,-22017
12:28:06.576086,-1
12:28:06.576086,-89
12:28:06.576086,-22017
12:28:06.576086,-1
12:28:06.576086,-92
12:28:06.576086,-26881
12:28:06.576086,-1
12:28:06.576086,-116
12:28:06.576086,-31233
12:28:06.576086,-1
12:28:06.576086,-116
12:28:06.576086,-20225
12:28:06.576086,-1
12:28:06.576086,-61
12:28:06.576086,-11009
12:28:06.576086,-1
12:28:06.576086,-28
12:28:06.576086,-8193
12:28:06.576086,-1
12:28:06.576086,-47
12:28:06.576086,-13057
12:28:06.576086,-1
12:28:06.576086,-44
12:28:07.175657,-52
12:28:07.175657,-27393
12:28:07.175657,-1
12:28:07.175657,-175
12:28:07.175657,-14849
12:28:07.175657,-1
12:28:07.175657,329
12:28:07.175657,-8704
12:28:07.175657,2
12:28:07.175657,814
12:28:07.175657,25344
12:28:07.175657,1
12:28:07.175657,-189
12:28:07.175657,-15873
12:28:07.175657,-1
12:28:07.175657,241
12:28:07.175657,20480
12:28:07.175657,0
12:28:07.175657,-59
12:28:07.175657,5631
12:28:07.175657,0
12:28:07.175657,14
12:28:07.175657,-6656
12:28:07.175657,-1
12:28:07.175657,9
12:28:07.175657,7680
12:28:07.175657,0
12:28:07.175657,30
12:28:07.175657,11264
12:28:07.175657,0
12:28:07.175657,61
12:28:07.175657,18176
12:28:07.175657,0
12:28:07.175657,87
12:28:07.175657,29696
12:28:07.175657,0
12:28:07.175657,134
12:28:07.175657,-25600
12:28:07.175657,0
12:28:07.175657,187
12:28:07.175657,-11008
12:28:07.175657,0
12:28:07.175657,246
12:28:07.175657,5888
12:28:07.175657,1
12:28:07.175657,312
12:28:07.175657,22784
12:28:07.175657,1
12:28:07.175657,371
12:28:07.175657,-27648
12:28:07.175657,1
12:28:07.175657,423
12:28:07.175657,-24576
12:28:07.175657,1
12:28:07.175657,388
12:28:07.175657,15616
12:28:07.175657,1
12:28:07.175657,208
12:28:07.175657,23552
12:28:07.175657,0
12:28:07.175657,-14
12:28:07.175657,-22017
12:28:07.175657,-1
12:28:07.175657,-134
12:28:07.175657,24063
12:28:07.175657,-1
12:28:07.175657,-177
12:28:07.175657,19199
12:28:07.175657,-1
12:28:07.175657,-177
12:28:07.175657,22783
12:28:07.175657,-1
12:28:07.175657,-161
12:28:07.175657,28927
12:28:07.175657,-1
12:28:07.175657,-134
12:28:07.175657,-32257
12:28:07.175657,-1
12:28:07.175657,-116
12:28:07.175657,-27393
12:28:07.175657,-1
12:28:07.175657,-97
12:28:07.175657,-22017
12:28:07.175657,-1
12:28:07.175657,-87
12:28:07.175657,-20737
12:28:07.175657,-1
12:28:07.175657,-80
12:28:07.175657,-19713
12:28:07.175657,-1
12:28:07.175657,-73
12:28:07.175657,-20737
12:28:07.175657,-1
12:28:07.175657,-87
12:28:07.175657,-20225
12:28:07.175657,-1
12:28:07.175657,-68
12:28:07.175657,-17153
12:28:07.175657,-1
12:28:07.175657,-71
12:28:07.175657,-17921
12:28:07.175657,-1
12:28:07.175657,-82
12:28:07.175657,-24577
12:28:07.175657,-1
12:28:07.175657,-101
12:28:07.175657,-26369
12:28:07.175657,-1
12:28:07.175657,-78
12:28:07.715570,-42
12:28:07.715570,-6913
12:28:07.715570,-1
12:28:07.715570,-9
12:28:07.715570,255
12:28:07.715570,0
12:28:07.715570,-11
12:28:07.715570,-5121
12:28:07.715570,-1
12:28:07.715570,-21
12:28:07.715570,-3841
12:28:07.715570,-1
12:28:07.715570,-42
12:28:07.715570,-28161
12:28:07.715570,-1
12:28:07.715570,-108
12:28:07.715570,-26113
12:28:07.715570,0
12:28:07.715570,610
12:28:07.715570,-29440
12:28:07.715570,3
12:28:07.715570,679
12:28:07.715570,7680
12:28:07.715570,0
12:28:07.715570,-184
12:28:07.715570,-15617
12:28:07.715570,0
12:28:07.715570,253
12:28:07.715570,4608
12:28:07.715570,0
12:28:07.715570,40
12:28:07.715570,26624
12:28:07.715570,0
12:28:07.715570,54
12:28:07.715570,15616
12:28:07.715570,0
12:28:07.715570,94
12:28:07.715570,21760
12:28:07.715570,0
12:28:07.715570,85
12:28:07.715570,26624
12:28:07.715570,0
12:28:07.715570,118
12:28:07.715570,32512
12:28:07.715570,0
12:28:07.715570,146
12:28:07.715570,-22528
12:28:07.715570,0
12:28:07.715570,182
12:28:07.715570,-12288
12:28:07.715570,0
12:28:07.715570,232
12:28:07.715570,1024
12:28:07.715570,1
12:28:07.715570,296
12:28:07.715570,17408
12:28:07.715570,1
12:28:07.715570,350
12:28:07.715570,32000
12:28:07.715570,1
12:28:07.715570,404
12:28:07.715570,-21504
12:28:07.715570,1
12:28:07.715570,438
12:28:07.715570,-21504
12:28:07.715570,1
12:28:07.715570,378
12:28:07.715570,7168
12:28:07.715570,1
12:28:07.715570,175
12:28:07.715570,16128
12:28:07.715570,0
12:28:07.715570,-35
12:28:07.715570,-26369
12:28:07.715570,-1
12:28:07.715570,-151
12:28:07.715570,20991
12:28:07.715570,-1
12:28:07.715570,-184
12:28:07.715570,16895
12:28:07.715570,-1
12:28:07.715570,-187
12:28:07.715570,19199
12:28:07.715570,-1
12:28:07.715570,-175
12:28:07.715570,24063
12:28:07.715570,-1
12:28:07.715570,-156
12:28:07.715570,28415
12:28:07.715570,-1
12:28:07.715570,-142
12:28:07.715570,30719
12:28:07.715570,-1
12:28:07.715570,-123
12:28:07.715570,-29953
12:28:07.715570,-1
12:28:07.715570,-118
12:28:07.715570,-28673
12:28:07.715570,-1
12:28:07.715570,-113
12:28:07.715570,-27393
12:28:07.715570,-1
12:28:07.715570,-108
12:28:07.715570,-28673
12:28:07.715570,-1
12:28:07.715570,-111
12:28:07.715570,-28161
12:28:07.715570,-1
12:28:07.715570,-106
12:28:08.255605,-101
12:28:08.255605,-25601
12:28:08.255605,-1
12:28:08.255605,-97
12:28:08.255605,-24577
12:28:08.255605,-1
12:28:08.255605,-89
12:28:08.255605,-23297
12:28:08.255605,-1
12:28:08.255605,-111
12:28:08.255605,-30465
12:28:08.255605,-1
12:28:08.255605,-125
12:28:08.255605,-26369
12:28:08.255605,-1
12:28:08.255605,-52
12:28:08.255605,-6913
12:28:08.255605,-1
12:28:08.255605,-18
12:28:08.255605,-257
12:28:08.255605,-1
12:28:08.255605,-9
12:28:08.255605,-8193
12:28:08.255605,-1
12:28:08.255605,-42
12:28:08.255605,-8705
12:28:08.255605,-1
12:28:08.255605,-49
12:28:08.255605,-28673
12:28:08.255605,-1
12:28:08.255605,-170
12:28:08.255605,-5633
12:28:08.255605,-1
12:28:08.255605,388
12:28:08.255605,-1024
12:28:08.255605,2
12:28:08.255605,750
12:28:08.255605,-15872
12:28:08.255605,0
12:28:08.255605,-329
12:28:08.255605,-28161
12:28:08.255605,-1
12:28:08.255605,194
12:28:08.255605,1024
12:28:08.255605,0
12:28:08.255605,-111
12:28:08.255605,-5121
12:28:08.255605,-1
12:28:08.255605,-42
12:28:08.255605,-19713
12:28:08.255605,-1
12:28:08.255605,-40
12:28:08.255605,-7425
12:28:08.255605,-1
12:28:08.255605,-42
12:28:08.255605,-6913
12:28:08.255605,-1
12:28:08.255605,-9
12:28:08.255605,-257
12:28:08.255605,-1
12:28:08.255605,14
12:28:08.255605,10752
12:28:08.255605,0
12:28:08.255605,52
12:28:08.255605,17408
12:28:08.255605,0
12:28:08.255605,101
12:28:08.255605,-31744
12:28:08.255605,0
12:28:08.255605,165
12:28:08.255605,-14848
12:28:08.255605,0
12:28:08.255605,227
12:28:08.255605,1536
12:28:08.255605,1
12:28:08.255605,298
12:28:08.255605,17920
12:28:08.255605,1
12:28:08.255605,343
12:28:08.255605,23552
12:28:08.255605,1
12:28:08.255605,324
12:28:08.255605,512
12:28:08.255605,1
12:28:08.255605,161
12:28:08.255605,12544
12:28:08.255605,0
12:28:08.255605,-61
12:28:08.255605,28415
12:28:08.255605,-1
12:28:08.255605,-206
12:28:08.255605,2815
12:28:08.255605,-1
12:28:08.255605,-262
12:28:08.255605,-3841
12:28:08.255605,-2
12:28:08.255605,-265
12:28:08.255605,1535
12:28:08.255605,-1
12:28:08.255605,-241
12:28:08.255605,6399
12:28:08.255605,-1
12:28:08.255605,-222
12:28:08.255605,13055
12:28:08.255605,-1
12:28:08.255605,-191
12:28:08.255605,17919
12:28:08.255605,-1
12:28:08.255605,-172
12:28:08.795599,-163
12:28:08.795599,24575
12:28:08.795599,-1
12:28:08.795599,-153
12:28:08.795599,27647
12:28:08.795599,-1
12:28:08.795599,-146
12:28:08.795599,27647
12:28:08.795599,-1
12:28:08.795599,-142
12:28:08.795599,-30465
12:28:08.795599,-1
12:28:08.795599,-113
12:28:08.795599,-31233
12:28:08.795599,-1
12:28:08.795599,-125
12:28:08.795599,-31745
12:28:08.795599,-1
12:28:08.795599,-132
12:28:08.795599,28927
12:28:08.795599,-1
12:28:08.795599,-146
12:28:08.795599,-32257
12:28:08.795599,-1
12:28:08.795599,-99
12:28:08.795599,-16641
12:28:08.795599,-1
12:28:08.795599,-33
12:28:08.795599,-6401
12:28:08.795599,-1
12:28:08.795599,-42
12:28:08.795599,-14081
12:28:08.795599,-1
12:28:08.795599,-54
12:28:08.795599,-12289
12:28:08.795599,-1
12:28:08.795599,-59
12:28:08.795599,-26369
12:28:08.795599,-1
12:28:08.795599,-172
12:28:08.795599,-18433
12:28:08.795599,-1
12:28:08.795599,317
12:28:08.795599,-13568
12:28:08.795599,2
12:28:08.795599,776
12:28:08.795599,15616
12:28:08.795599,1
12:28:08.795599,-253
12:28:08.795599,28927
12:28:08.795599,-1
12:28:08.795599,215
12:28:08.795599,24064
12:28:08.795599,0
12:28:08.795599,-63
12:28:08.795599,4351
12:28:08.795599,0
12:28:08.795599,30
12:28:08.795599,-3584
12:28:08.795599,-1
12:28:08.795599,11
12:28:08.795599,9472
12:28:08.795599,0
12:28:08.795599,26
12:28:08.795599,8448
12:28:08.795599,0
12:28:08.795599,52
12:28:08.795599,15616
12:28:08.795599,0
12:28:08.795599,78
12:28:08.795599,24064
12:28:08.795599,0
12:28:08.795599,111
12:28:08.795599,-29952
12:28:08.795599,0
12:28:08.795599,168
12:28:08.795599,-15360
12:28:08.795599,0
12:28:08.795599,229
12:28:08.795599,2304
12:28:08.795599,1
12:28:08.795599,307
12:28:08.795599,20992
12:28:08.795599,1
12:28:08.795599,374
12:28:08.795599,-26880
12:28:08.795599,1
12:28:08.795599,421
12:28:08.795599,-21504
12:28:08.795599,1
12:28:08.795599,414
12:28:08.795599,25856
12:28:08.795599,1
12:28:08.795599,260
12:28:08.795599,-28672
12:28:08.795599,0
12:28:08.795599,40
12:28:08.795599,-9472
12:28:08.795599,-1
12:28:08.795599,-99
12:28:08.795599,31999
12:28:08.795599,-1
12:28:08.795599,-151
12:28:08.795599,27647
12:28:08.795599,-1
12:28:08.795599,-146
12:28:08.795599,27647
12:28:08.795599,-1
12:28:08.795599,-132
12:28:09.396111,-116
12:28:09.396111,-28673
12:28:09.396111,-1
12:28:09.396111,-108
12:28:09.396111,-25089
12:28:09.396111,-1
12:28:09.396111,-73
12:28:09.396111,-13569
12:28:09.396111,-1
12:28:09.396111,-54
12:28:09.396111,-13057
12:28:09.396111,-1
12:28:09.396111,-47
12:28:09.396111,-10497
12:28:09.396111,-1
12:28:09.396111,-42
12:28:09.396111,-10497
12:28:09.396111,-1
12:28:09.396111,-37
12:28:09.396111,-8193
12:28:09.396111,-1
12:28:09.396111,-33
12:28:09.396111,-6913
12:28:09.396111,-1
12:28:09.396111,-28
12:28:09.396111,-6401
12:28:09.396111,-1
12:28:09.396111,-23
12:28:09.396111,-5121
12:28:09.396111,-1
12:28:09.396111,-14
12:28:09.396111,-3841
12:28:09.396111,-1
12:28:09.396111,-16
12:28:09.396111,-2561
12:28:09.396111,-1
12:28:09.396111,-11
12:28:09.396111,-1537
12:28:09.396111,-1
12:28:09.396111,-7
12:28:09.396111,-257
12:28:09.396111,-1
12:28:09.396111,2
12:28:09.396111,-1792
12:28:09.396111,-1
12:28:09.396111,-14
12:28:09.396111,-4353
12:28:09.396111,-1
12:28:09.396111,-28
12:28:09.396111,-3329
12:28:09.396111,-1
12:28:09.396111,16
12:28:09.396111,9472
12:28:09.396111,0
12:28:09.396111,54
12:28:09.396111,17408
12:28:09.396111,0
12:28:09.396111,71
12:28:09.396111,12544
12:28:09.396111,0
12:28:09.396111,40
12:28:09.396111,12032
12:28:09.396111,0
12:28:09.396111,28
12:28:09.396111,-8448
12:28:09.396111,-1
12:28:09.396111,-80
12:28:09.396111,13567
12:28:09.396111,0
12:28:09.396111,423
12:28:09.396111,11264
12:28:09.396111,3
12:28:09.396111,892
12:28:09.396111,32512
12:28:09.396111,1
12:28:09.396111,-156
12:28:09.396111,8703
12:28:09.396111,0
12:28:09.396111,286
12:28:09.396111,20992
12:28:09.396111,0
12:28:09.396111,-9
12:28:09.396111,20223
12:28:09.396111,0
12:28:09.396111,56
12:28:09.396111,5888
12:28:09.396111,0
12:28:09.396111,54
12:28:09.396111,16128
12:28:09.396111,0
12:28:09.396111,56
12:28:09.396111,18176
12:28:09.396111,0
12:28:09.396111,92
12:28:09.396111,26624
12:28:09.396111,0
12:28:09.396111,123
12:28:09.396111,-29952
12:28:09.396111,0
12:28:09.396111,153
12:28:09.396111,-20736
12:28:09.396111,0
12:28:09.396111,196
12:28:09.396111,-8704
12:28:09.396111,0
12:28:09.396111,251
12:28:09.396111,4608
12:28:09.396111,1
12:28:09.396111,305
12:28:09.966774,333
12:28:09.966774,27136
12:28:09.966774,1
12:28:09.966774,383
12:28:09.966774,-29952
12:28:09.966774,1
12:28:09.966774,414
12:28:09.966774,-23808
12:28:09.966774,1
12:28:09.966774,397
12:28:09.966774,22272
12:28:09.966774,1
12:28:09.966774,253
12:28:09.966774,-21504
12:28:09.966774,0
12:28:09.966774,101
12:28:09.966774,6656
12:28:09.966774,0
12:28:09.966774,-16
12:28:09.966774,-8193
12:28:09.966774,-1
12:28:09.966774,-44
12:28:09.966774,-13057
12:28:09.966774,-1
12:28:09.966774,-49
12:28:09.966774,-9217
12:28:09.966774,-1
12:28:09.966774,-28
12:28:09.966774,-3841
12:28:09.966774,-1
12:28:09.966774,-4
12:28:09.966774,-1537
12:28:09.966774,-1
12:28:09.966774,0
12:28:09.966774,4096
12:28:09.966774,0
12:28:09.966774,26
12:28:09.966774,8960
12:28:09.966774,0
12:28:09.966774,37
12:28:09.966774,9472
12:28:09.966774,0
12:28:09.966774,44
12:28:09.966774,10752
12:28:09.966774,0
12:28:09.966774,40
12:28:09.966774,9472
12:28:09.966774,0
12:28:09.966774,40
12:28:09.966774,11264
12:28:09.966774,0
12:28:09.966774,40
12:28:09.966774,9472
12:28:09.966774,0
12:28:09.966774,42
12:28:09.966774,11264
12:28:09.966774,0
12:28:09.966774,42
12:28:09.966774,8448
12:28:09.966774,0
12:28:09.966774,30
12:28:09.966774,8960
12:28:09.966774,0
12:28:09.966774,28
12:28:09.966774,7168
12:28:09.966774,0
12:28:09.966774,21
12:28:09.966774,512
12:28:09.966774,0
12:28:09.966774,-4
12:28:09.966774,2047
12:28:09.966774,0
12:28:09.966774,30
12:28:09.966774,12032
12:28:09.966774,0
12:28:09.966774,52
12:28:09.966774,18688
12:28:09.966774,0
12:28:09.966774,82
12:28:09.966774,17408
12:28:09.966774,0
12:28:09.966774,40
12:28:09.966774,4608
12:28:09.966774,0
12:28:09.966774,23
12:28:09.966774,5888
12:28:09.966774,0
12:28:09.966774,-9
12:28:09.966774,-19713
12:28:09.966774,-1
12:28:09.966774,-97
12:28:09.966774,-28417
12:28:09.966774,0
12:28:09.966774,575
12:28:09.966774,21504
12:28:09.966774,3
12:28:09.966774,674
12:28:09.966774,6656
12:28:09.966774,0
12:28:09.966774,-298
12:28:09.966774,18431
12:28:09.966774,0
12:28:09.966774,208
12:28:09.966774,-8960
12:28:09.966774,-1
12:28:09.966774,-59
12:28:09.966774,4863
12:28:09.966774,0
12:28:09.966774,-21
12:28:10.505954,-33
12:28:10.505954,2047
12:28:10.505954,0
12:28:10.505954,9
12:28:10.505954,1024
12:28:10.505954,0
12:28:10.505954,28
12:28:10.505954,10240
12:28:10.505954,0
12:28:10.505954,47
12:28:10.505954,18176
12:28:10.505954,0
12:28:10.505954,85
12:28:10.505954,25344
12:28:10.505954,0
12:28:10.505954,125
12:28:10.505954,-26368
12:28:10.505954,0
12:28:10.505954,177
12:28:10.505954,-15360
12:28:10.505954,0
12:28:10.505954,224
12:28:10.505954,1024
12:28:10.505954,1
12:28:10.505954,284
12:28:10.505954,13824
12:28:10.505954,1
12:28:10.505954,331
12:28:10.505954,22784
12:28:10.505954,1
12:28:10.505954,352
12:28:10.505954,20480
12:28:10.505954,1
12:28:10.505954,288
12:28:10.505954,-14848
12:28:10.505954,0
12:28:10.505954,87
12:28:10.505954,-2304
12:28:10.505954,-1
12:28:10.505954,-99
12:28:10.505954,22271
12:28:10.505954,-1
12:28:10.505954,-210
12:28:10.505954,6399
12:28:10.505954,-1
12:28:10.505954,-234
12:28:10.505954,5375
12:28:10.505954,-1
12:28:10.505954,-239
12:28:10.505954,7679
12:28:10.505954,-1
12:28:10.505954,-217
12:28:10.505954,12543
12:28:10.505954,-1
12:28:10.505954,-194
12:28:10.505954,19967
12:28:10.505954,-1
12:28:10.505954,-168
12:28:10.505954,24575
12:28:10.505954,-1
12:28:10.505954,-149
12:28:10.505954,30719
12:28:10.505954,-1
12:28:10.505954,-139
12:28:10.505954,32511
12:28:10.505954,-1
12:28:10.505954,-125
12:28:10.505954,-31745
12:28:10.505954,-1
12:28:10.505954,-120
12:28:10.505954,-30465
12:28:10.505954,-1
12:28:10.505954,-116
12:28:10.505954,-27393
12:28:10.505954,-1
12:28:10.505954,-108
12:28:10.505954,-26881
12:28:10.505954,-1
12:28:10.505954,-104
12:28:10.505954,-25601
12:28:10.505954,-1
12:28:10.505954,-97
12:28:10.505954,-25601
12:28:10.505954,-1
12:28:10.505954,-106
12:28:10.505954,-28161
12:28:10.505954,-1
12:28:10.505954,-113
12:28:10.505954,-23297
12:28:10.505954,-1
12:28:10.505954,-71
12:28:10.505954,-9985
12:28:10.505954,-1
12:28:10.505954,-11
12:28:10.505954,-769
12:28:10.505954,-1
12:28:10.505954,-14
12:28:10.505954,-9217
12:28:10.505954,-1
12:28:10.505954,-42
12:28:10.505954,-8193
12:28:10.505954,-1
12:28:10.505954,-35
12:28:10.505954,-17921
12:28:10.505954,-1
12:28:10.505954,-156
12:28:10.505954,28927
12:28:10.505954,-1
12:28:10.505954,151
12:28:11.046080,573
12:28:11.046080,8192
12:28:11.046080,3
12:28:11.046080,568
12:28:11.046080,-14336
12:28:11.046080,-1
12:28:11.046080,-262
12:28:11.046080,30975
12:28:11.046080,0
12:28:11.046080,189
12:28:11.046080,-8448
12:28:11.046080,-1
12:28:11.046080,-2
12:28:11.046080,18431
12:28:11.046080,0
12:28:11.046080,14
12:28:11.046080,1792
12:28:11.046080,0
12:28:11.046080,54
12:28:11.046080,11264
12:28:11.046080,0
12:28:11.046080,40
12:28:11.046080,16896
12:28:11.046080,0
12:28:11.046080,78
12:28:11.046080,21760
12:28:11.046080,0
12:28:11.046080,101
12:28:11.046080,32000
12:28:11.046080,0
12:28:11.046080,146
12:28:11.046080,-24320
12:28:11.046080,0
12:28:11.046080,187
12:28:11.046080,-9984
12:28:11.046080,0
12:28:11.046080,248
12:28:11.046080,6400
12:28:11.046080,1
12:28:11.046080,312
12:28:11.046080,22784
12:28:11.046080,1
12:28:11.046080,374
12:28:11.046080,-31744
12:28:11.046080,1
12:28:11.046080,404
12:28:11.046080,-26368
12:28:11.046080,1
12:28:11.046080,393
12:28:11.046080,20992
12:28:11.046080,1
12:28:11.046080,243
12:28:11.046080,-29184
12:28:11.046080,0
12:28:11.046080,44
12:28:11.046080,-10240
12:28:11.046080,-1
12:28:11.046080,-94
12:28:11.046080,32511
12:28:11.046080,-1
12:28:11.046080,-146
12:28:11.046080,26623
12:28:11.046080,-1
12:28:11.046080,-151
12:28:11.046080,30207
12:28:11.046080,-1
12:28:11.046080,-134
12:28:11.046080,-32257
12:28:11.046080,-1
12:28:11.046080,-108
12:28:11.046080,-24577
12:28:11.046080,-1
12:28:11.046080,-82
12:28:11.046080,-17921
12:28:11.046080,-1
12:28:11.046080,-63
12:28:11.046080,-13057
12:28:11.046080,-1
12:28:11.046080,-49
12:28:11.046080,-12289
12:28:11.046080,-1
12:28:11.046080,-44
12:28:11.046080,-11777
12:28:11.046080,-1
12:28:11.046080,-47
12:28:11.046080,-11777
12:28:11.046080,-1
12:28:11.046080,-47
12:28:11.046080,-10497
12:28:11.046080,-1
12:28:11.046080,-44
12:28:11.046080,-11009
12:28:11.046080,-1
12:28:11.046080,-44
12:28:11.046080,-12289
12:28:11.046080,-1
12:28:11.046080,-47
12:28:11.046080,-11777
12:28:11.046080,-1
12:28:11.046080,-42
12:28:11.046080,-10497
12:28:11.046080,-1
12:28:11.046080,-44
12:28:11.046080,-9217
12:28:11.046080,-1
12:28:11.046080,-35
12:28:11.046080,-8193
12:28:11.046080,-1
12:28:11.046080,-28
12:28:11.615598,-28
12:28:11.615598,-6401
12:28:11.615598,-1
12:28:11.615598,-23
12:28:11.615598,-6913
12:28:11.615598,-1
12:28:11.615598,-23
12:28:11.615598,-5121
12:28:11.615598,-1
12:28:11.615598,-18
12:28:11.615598,-4353
12:28:11.615598,-1
12:28:11.615598,-11
12:28:11.615598,4351
12:28:11.615598,0
12:28:11.615598,37
12:28:11.615598,13312
12:28:11.615598,0
12:28:11.615598,71
12:28:11.615598,18688
12:28:11.615598,0
12:28:11.615598,56
12:28:11.615598,10240
12:28:11.615598,0
12:28:11.615598,40
12:28:11.615598,12032
12:28:11.615598,0
12:28:11.615598,18
12:28:11.615598,-14336
12:28:11.615598,-1
12:28:11.615598,-63
12:28:11.615598,-24065
12:28:11.615598,0
12:28:11.615598,575
12:28:11.615598,-30720
12:28:11.615598,3
12:28:11.615598,779
12:28:11.615598,-28672
12:28:11.615598,0
12:28:11.615598,-149
12:28:11.615598,-16897
12:28:11.615598,0
12:28:11.615598,260
12:28:11.615598,7168
12:28:11.615598,0
12:28:11.615598,37
12:28:11.615598,25856
12:28:11.615598,0
12:28:11.615598,63
12:28:11.615598,16128
12:28:11.615598,0
12:28:11.615598,92
12:28:11.615598,22272
12:28:11.615598,0
12:28:11.615598,89
12:28:11.615598,28416
12:28:11.615598,0
12:28:11.615598,125
12:28:11.615598,-32256
12:28:11.615598,0
12:28:11.615598,161
12:28:11.615598,-12800
12:28:11.615598,0
12:28:11.615598,210
12:28:11.615598,-16640
12:28:11.615598,0
12:28:11.615598,210
12:28:11.615598,-3328
12:28:11.615598,0
12:28:11.615598,248
12:28:11.615598,2304
12:28:11.615598,1
12:28:11.615598,300
12:28:11.615598,16128
12:28:11.615598,1
12:28:11.615598,336
12:28:11.615598,27648
12:28:11.615598,1
12:28:11.615598,374
12:28:11.615598,32000
12:28:11.615598,1
12:28:11.615598,381
12:28:11.615598,24576
12:28:11.615598,1
12:28:11.615598,298
12:28:11.615598,-11776
12:28:11.615598,0
12:28:11.615598,113
12:28:11.615598,6656
12:28:11.615598,0
12:28:11.615598,-49
12:28:11.615598,-23809
12:28:11.615598,-1
12:28:11.615598,-125
12:28:11.615598,29439
12:28:11.615598,-1
12:28:11.615598,-146
12:28:11.615598,27135
12:28:11.615598,-1
12:28:11.615598,-151
12:28:11.615598,28927
12:28:11.615598,-1
12:28:11.615598,-142
12:28:11.615598,31999
12:28:11.615598,-1
12:28:11.615598,-125
12:28:11.615598,-29953
12:28:11.615598,-1
12:28:11.615598,-111
12:28:12.155598,-113
12:28:12.155598,-27393
12:28:12.155598,-1
12:28:12.155598,-99
12:28:12.155598,-23809
12:28:12.155598,-1
12:28:12.155598,-89
12:28:12.155598,-23809
12:28:12.155598,-1
12:28:12.155598,-80
12:28:12.155598,-15873
12:28:12.155598,-1
12:28:12.155598,-71
12:28:12.155598,-18433
12:28:12.155598,-1
12:28:12.155598,-68
12:28:12.155598,-16641
12:28:12.155598,-1
12:28:12.155598,-68
12:28:12.155598,-17921
12:28:12.155598,-1
12:28:12.155598,-66
12:28:12.155598,-17153
12:28:12.155598,-1
12:28:12.155598,-71
12:28:12.155598,-15873
12:28:12.155598,-1
12:28:12.155598,-59
12:28:12.155598,-14081
12:28:12.155598,-1
12:28:12.155598,-54
12:28:12.155598,-13569
12:28:12.155598,-1
12:28:12.155598,-44
12:28:12.155598,-11777
12:28:12.155598,-1
12:28:12.155598,-52
12:28:12.155598,-13057
12:28:12.155598,-1
12:28:12.155598,-61
12:28:12.155598,-16641
12:28:12.155598,-1
12:28:12.155598,-61
12:28:12.155598,-11009
12:28:12.155598,-1
12:28:12.155598,-23
12:28:12.155598,-1537
12:28:12.155598,-1
12:28:12.155598,14
12:28:12.155598,6656
12:28:12.155598,0
12:28:12.155598,21
12:28:12.155598,2304
12:28:12.155598,0
12:28:12.155598,-18
12:28:12.155598,-7425
12:28:12.155598,-1
12:28:12.155598,-21
12:28:12.155598,-9985
12:28:12.155598,-1
12:28:12.155598,-106
12:28:12.155598,27647
12:28:12.155598,-1
12:28:12.155598,30
12:28:12.155598,-17920
12:28:12.155598,1
12:28:12.155598,786
12:28:12.155598,-6400
12:28:12.155598,2
12:28:12.155598,168
12:28:12.155598,-15616
12:28:12.155598,-2
12:28:12.155598,-54
12:28:12.155598,-12545
12:28:12.155598,0
12:28:12.155598,-4
12:28:12.155598,-22529
12:28:12.155598,-1
12:28:12.155598,-4
12:28:12.155598,-6913
12:28:12.155598,-1
12:28:12.155598,-61
12:28:12.155598,-6913
12:28:12.155598,-1
12:28:12.155598,-16
12:28:12.155598,-6913
12:28:12.155598,-1
12:28:12.155598,-16
12:28:12.155598,255
12:28:12.155598,0
12:28:12.155598,2
12:28:12.155598,4608
12:28:12.155598,0
12:28:12.155598,33
12:28:12.155598,11264
12:28:12.155598,0
12:28:12.155598,66
12:28:12.155598,21760
12:28:12.155598,0
12:28:12.155598,108
12:28:12.155598,-30464
12:28:12.155598,0
12:28:12.155598,163
12:28:12.155598,-17152
12:28:12.155598,0
12:28:12.155598,213
12:28:12.155598,-5120
12:28:12.155598,0
12:28:12.155598,258
12:28:12.755651,269
12:28:12.755651,5888
12:28:12.755651,1
12:28:12.755651,284
12:28:12.755651,7168
12:28:12.755651,1
12:28:12.755651,253
12:28:12.755651,-23808
12:28:12.755651,0
12:28:12.755651,63
12:28:12.755651,-5888
12:28:12.755651,-1
12:28:12.755651,-104
12:28:12.755651,24575
12:28:12.755651,-1
12:28:12.755651,-191
12:28:12.755651,14335
12:28:12.755651,-1
12:28:12.755651,-201
12:28:12.755651,13055
12:28:12.755651,-1
12:28:12.755651,-194
12:28:12.755651,20479
12:28:12.755651,-1
12:28:12.755651,-168
12:28:12.755651,25855
12:28:12.755651,-1
12:28:12.755651,-146
12:28:12.755651,32511
12:28:12.755651,-1
12:28:12.755651,-118
12:28:12.755651,-29441
12:28:12.755651,-1
12:28:12.755651,-108
12:28:12.755651,-26881
12:28:12.755651,-1
12:28:12.755651,-104
12:28:12.755651,-24577
12:28:12.755651,-1
12:28:12.755651,-92
12:28:12.755651,-22017
12:28:12.755651,-1
12:28:12.755651,-92
12:28:12.755651,-23809
12:28:12.755651,-1
12:28:12.755651,-82
12:28:12.755651,-20225
12:28:12.755651,-1
12:28:12.755651,-78
12:28:12.755651,-18433
12:28:12.755651,-1
12:28:12.755651,-71
12:28:12.755651,-15873
12:28:12.755651,-1
12:28:12.755651,-63
12:28:12.755651,-15361
12:28:12.755651,-1
12:28:12.755651,-59
12:28:12.755651,-14081
12:28:12.755651,-1
12:28:12.755651,-47
12:28:12.755651,-11009
12:28:12.755651,-1
12:28:12.755651,-44
12:28:12.755651,-9217
12:28:12.755651,-1
12:28:12.755651,-40
12:28:12.755651,-11009
12:28:12.755651,-1
12:28:12.755651,-49
12:28:12.755651,-14849
12:28:12.755651,-1
12:28:12.755651,-63
12:28:12.755651,-14081
12:28:12.755651,-1
12:28:12.755651,-35
12:28:12.755651,-2561
12:28:12.755651,-1
12:28:12.755651,4
12:28:12.755651,5376
12:28:12.755651,0
12:28:12.755651,28
12:28:12.755651,4608
12:28:12.755651,0
12:28:12.755651,2
12:28:12.755651,-2816
12:28:12.755651,-1
12:28:12.755651,-4
12:28:12.755651,-2049
12:28:12.755651,-1
12:28:12.755651,-54
12:28:12.755651,32511
12:28:12.755651,-1
12:28:12.755651,-101
12:28:12.755651,-16897
12:28:12.755651,0
12:28:12.755651,615
12:28:12.755651,24064
12:28:12.755651,3
12:28:12.755651,599
12:28:12.755651,-10752
12:28:12.755651,-1
12:28:12.755651,-177
12:28:12.755651,-19969
12:28:12.755651,0
12:28:12.755651,144
12:28:12.755651,-16128
12:28:12.755651,-1
12:28:12.755651,-16
12:28:13.325593,21
12:28:13.325593,-5888
12:28:13.325593,-1
12:28:13.325593,-16
12:28:13.325593,3071
12:28:13.325593,0
12:28:13.325593,11
12:28:13.325593,3584
12:28:13.325593,0
12:28:13.325593,33
12:28:13.325593,12032
12:28:13.325593,0
12:28:13.325593,63
12:28:13.325593,24064
12:28:13.325593,0
12:28:13.325593,104
12:28:13.325593,27648
12:28:13.325593,0
12:28:13.325593,130
12:28:13.325593,-27392
12:28:13.325593,0
12:28:13.325593,170
12:28:13.325593,-14080
12:28:13.325593,0
12:28:13.325593,234
12:28:13.325593,512
12:28:13.325593,1
12:28:13.325593,274
12:28:13.325593,11264
12:28:13.325593,1
12:28:13.325593,322
12:28:13.325593,19200
12:28:13.325593,1
12:28:13.325593,341
12:28:13.325593,20480
12:28:13.325593,1
12:28:13.325593,307
12:28:13.325593,-768
12:28:13.325593,0
12:28:13.325593,165
12:28:13.325593,17408
12:28:13.325593,0
12:28:13.325593,-16
12:28:13.325593,-20225
12:28:13.325593,-1
12:28:13.325593,-127
12:28:13.325593,24575
12:28:13.325593,-1
12:28:13.325593,-165
12:28:13.325593,23551
12:28:13.325593,-1
12:28:13.325593,-163
12:28:13.325593,27135
12:28:13.325593,-1
12:28:13.325593,-142
12:28:13.325593,-32257
12:28:13.325593,-1
12:28:13.325593,-113
12:28:13.325593,-25601
12:28:13.325593,-1
12:28:13.325593,-87
12:28:13.325593,-19713
12:28:13.325593,-1
12:28:13.325593,-73
12:28:13.325593,-15873
12:28:13.325593,-1
12:28:13.325593,-63
12:28:13.325593,-15873
12:28:13.325593,-1
12:28:13.325593,-61
12:28:13.325593,-15361
12:28:13.325593,-1
12:28:13.325593,-54
12:28:13.325593,-13057
12:28:13.325593,-1
12:28:13.325593,-52
12:28:13.325593,-13057
12:28:13.325593,-1
12:28:13.325593,-54
12:28:13.325593,-11009
12:28:13.325593,-1
12:28:13.325593,-42
12:28:13.325593,-9217
12:28:13.325593,-1
12:28:13.325593,-30
12:28:13.325593,-7425
12:28:13.325593,-1
12:28:13.325593,-26
12:28:13.325593,-5121
12:28:13.325593,-1
12:28:13.325593,-23
12:28:13.325593,-4353
12:28:13.325593,-1
12:28:13.325593,-18
12:28:13.325593,-4353
12:28:13.325593,-1
12:28:13.325593,-14
12:28:13.325593,-3329
12:28:13.325593,-1
12:28:13.325593,-7
12:28:13.325593,-1537
12:28:13.325593,-1
12:28:13.325593,-9
12:28:13.325593,255
12:28:13.325593,0
12:28:13.325593,4
12:28:13.325593,1792
12:28:13.325593,0
12:28:13.325593,2
12:28:13.865602,-2
12:28:13.865602,-257
12:28:13.865602,-1
12:28:13.865602,-11
12:28:13.865602,-5121
12:28:13.865602,-1
12:28:13.865602,-9
12:28:13.865602,2047
12:28:13.865602,0
12:28:13.865602,28
12:28:13.865602,12544
12:28:13.865602,0
12:28:13.865602,66
12:28:13.865602,21760
12:28:13.865602,0
12:28:13.865602,89
12:28:13.865602,19200
12:28:13.865602,0
12:28:13.865602,54
12:28:13.865602,13312
12:28:13.865602,0
12:28:13.865602,54
12:28:13.865602,2304
12:28:13.865602,0
12:28:13.865602,-73
12:28:13.865602,-11777
12:28:13.865602,-1
12:28:13.865602,227
12:28:13.865602,-29952
12:28:13.865602,2
12:28:13.865602,923
12:28:13.865602,-27648
12:28:13.865602,2
12:28:13.865602,-2
12:28:13.865602,27647
12:28:13.865602,-1
12:28:13.865602,213
12:28:13.865602,-16640
12:28:13.865602,0
12:28:13.865602,-28
12:28:13.865602,4351
12:28:13.865602,0
12:28:13.865602,59
12:28:13.865602,1792
12:28:13.865602,0
12:28:13.865602,16
12:28:13.865602,9472
12:28:13.865602,0
12:28:13.865602,28
12:28:13.865602,8448
12:28:13.865602,0
12:28:13.865602,52
12:28:13.865602,16128
12:28:13.865602,0
12:28:13.865602,71
12:28:13.865602,22784
12:28:13.865602,0
12:28:13.865602,106
12:28:13.865602,28416
12:28:13.865602,0
12:28:13.865602,130
12:28:13.865602,-28160
12:28:13.865602,0
12:28:13.865602,163
12:28:13.865602,-18432
12:28:13.865602,0
12:28:13.865602,203
12:28:13.865602,-6912
12:28:13.865602,0
12:28:13.865602,248
12:28:13.865602,2304
12:28:13.865602,1
12:28:13.865602,281
12:28:13.865602,8960
12:28:13.865602,1
12:28:13.865602,296
12:28:13.865602,9472
12:28:13.865602,1
12:28:13.865602,274
12:28:13.865602,-4352
12:28:13.865602,0
12:28:13.865602,168
12:28:13.865602,20992
12:28:13.865602,0
12:28:13.865602,-2
12:28:13.865602,-18433
12:28:13.865602,-1
12:28:13.865602,-120
12:28:13.865602,27135
12:28:13.865602,-1
12:28:13.865602,-168
12:28:13.865602,22783
12:28:13.865602,-1
12:28:13.865602,-165
12:28:13.865602,25855
12:28:13.865602,-1
12:28:13.865602,-144
12:28:13.865602,29439
12:28:13.865602,-1
12:28:13.865602,-130
12:28:13.865602,-30465
12:28:13.865602,-1
12:28:13.865602,-111
12:28:13.865602,-25601
12:28:13.865602,-1
12:28:13.865602,-104
12:28:13.865602,-25601
12:28:13.865602,-1
12:28:13.865602,-92
12:28:14.435596,-92
12:28:14.435596,-23809
12:28:14.435596,-1
12:28:14.435596,-97
12:28:14.435596,-23809
12:28:14.435596,-1
12:28:14.435596,-94
12:28:14.435596,-25601
12:28:14.435596,-1
12:28:14.435596,-94
12:28:14.435596,-20225
12:28:14.435596,-1
12:28:14.435596,-71
12:28:14.435596,-20225
12:28:14.435596,-1
12:28:14.435596,-89
12:28:14.435596,-20225
12:28:14.435596,-1
12:28:14.435596,-78
12:28:14.435596,-21505
12:28:14.435596,-1
12:28:14.435596,-80
12:28:14.435596,-20225
12:28:14.435596,-1
12:28:14.435596,-85
12:28:14.435596,-20225
12:28:14.435596,-1
12:28:14.435596,-78
12:28:14.435596,-19713
12:28:14.435596,-1
12:28:14.435596,-85
12:28:14.435596,-22529
12:28:14.435596,-1
12:28:14.435596,-87
12:28:14.435596,-22017
12:28:14.435596,-1
12:28:14.435596,-82
12:28:14.435596,-21505
12:28:14.435596,-1
12:28:14.435596,-89
12:28:14.435596,-22529
12:28:14.435596,-1
12:28:14.435596,-94
12:28:14.435596,-25601
12:28:14.435596,-1
12:28:14.435596,-111
12:28:14.435596,-28673
12:28:14.435596,-1
12:28:14.435596,-89
12:28:14.435596,-17921
12:28:14.435596,-1
12:28:14.435596,-52
12:28:14.435596,-6913
12:28:14.435596,-1
12:28:14.435596,-14
12:28:14.435596,-2561
12:28:14.435596,-1
12:28:14.435596,-23
12:28:14.435596,-11777
12:28:14.435596,-1
12:28:14.435596,-52
12:28:14.435596,-12289
12:28:14.435596,-1
12:28:14.435596,-56
12:28:14.435596,-26369
12:28:14.435596,-1
12:28:14.435596,-168
12:28:14.435596,-7425
12:28:14.435596,-1
12:28:14.435596,367
12:28:14.435596,-7680
12:28:14.435596,2
12:28:14.435596,764
12:28:14.435596,3328
12:28:14.435596,1
12:28:14.435596,-284
12:28:14.435596,28927
12:28:14.435596,-1
12:28:14.435596,194
12:28:14.435596,13824
12:28:14.435596,0
12:28:14.435596,-85
12:28:14.435596,767
12:28:14.435596,0
12:28:14.435596,2
12:28:14.435596,-11264
12:28:14.435596,-1
12:28:14.435596,-7
12:28:14.435596,3839
12:28:14.435596,0
12:28:14.435596,2
12:28:14.435596,4608
12:28:14.435596,0
12:28:14.435596,33
12:28:14.435596,10752
12:28:14.435596,0
12:28:14.435596,56
12:28:14.435596,18176
12:28:14.435596,0
12:28:14.435596,92
12:28:14.435596,27136
12:28:14.435596,0
12:28:14.435596,123
12:28:14.435596,-29184
12:28:14.435596,0
12:28:14.435596,163
12:28:14.435596,-16640
12:28:14.435596,0
12:28:14.435596,215
12:28:14.975619,236
12:28:14.975619,1536
12:28:14.975619,1
12:28:14.975619,277
12:28:14.975619,8192
12:28:14.975619,1
12:28:14.975619,300
12:28:14.975619,12032
12:28:14.975619,1
12:28:14.975619,296
12:28:14.975619,4608
12:28:14.975619,1
12:28:14.975619,241
12:28:14.975619,-20736
12:28:14.975619,0
12:28:14.975619,73
12:28:14.975619,-2816
12:28:14.975619,-1
12:28:14.975619,-73
12:28:14.975619,-29953
12:28:14.975619,-1
12:28:14.975619,-139
12:28:14.975619,26623
12:28:14.975619,-1
12:28:14.975619,-153
12:28:14.975619,28415
12:28:14.975619,-1
12:28:14.975619,-142
12:28:14.975619,-32257
12:28:14.975619,-1
12:28:14.975619,-118
12:28:14.975619,-27393
12:28:14.975619,-1
12:28:14.975619,-94
12:28:14.975619,-20737
12:28:14.975619,-1
12:28:14.975619,-75
12:28:14.975619,-18433
12:28:14.975619,-1
12:28:14.975619,-73
12:28:14.975619,-17153
12:28:14.975619,-1
12:28:14.975619,-66
12:28:14.975619,-15873
12:28:14.975619,-1
12:28:14.975619,-63
12:28:14.975619,-17153
12:28:14.975619,-1
12:28:14.975619,-61
12:28:14.975619,-15873
12:28:14.975619,-1
12:28:14.975619,-63
12:28:14.975619,-14849
12:28:14.975619,-1
12:28:14.975619,-59
12:28:14.975619,-14081
12:28:14.975619,-1
12:28:14.975619,-56
12:28:14.975619,-13057
12:28:14.975619,-1
12:28:14.975619,-44
12:28:14.975619,-11777
12:28:14.975619,-1
12:28:14.975619,-47
12:28:14.975619,-11009
12:28:14.975619,-1
12:28:14.975619,-44
12:28:14.975619,-9985
12:28:14.975619,-1
12:28:14.975619,-37
12:28:14.975619,-9217
12:28:14.975619,-1
12:28:14.975619,-30
12:28:14.975619,-6913
12:28:14.975619,-1
12:28:14.975619,-28
12:28:14.975619,-8193
12:28:14.975619,-1
12:28:14.975619,-33
12:28:14.975619,-6913
12:28:14.975619,-1
12:28:14.975619,-37
12:28:14.975619,-11009
12:28:14.975619,-1
12:28:14.975619,-52
12:28:14.975619,-14081
12:28:14.975619,-1
12:28:14.975619,-37
12:28:14.975619,-4353
12:28:14.975619,-1
12:28:14.975619,-7
12:28:14.975619,3839
12:28:14.975619,0
12:28:14.975619,28
12:28:14.975619,8448
12:28:14.975619,0
12:28:14.975619,18
12:28:14.975619,-512
12:28:14.975619,-1
12:28:14.975619,0
12:28:14.975619,0
12:28:14.975619,0
12:28:14.975619,-16
12:28:14.975619,-19713
12:28:14.975619,-1
12:28:14.975619,-139
12:28:14.975619,-2049
12:28:14.975619,-1
12:28:14.975619,357
12:28:15.515626,750
12:28:15.515626,23296
12:28:15.515626,3
12:28:15.515626,374
12:28:15.515626,17664
12:28:15.515626,-1
12:28:15.515626,-42
12:28:15.515626,-5377
12:28:15.515626,0
12:28:15.515626,61
12:28:15.515626,-15616
12:28:15.515626,-1
12:28:15.515626,28
12:28:15.515626,7680
12:28:15.515626,0
12:28:15.515626,-11
12:28:15.515626,4863
12:28:15.515626,0
12:28:15.515626,33
12:28:15.515626,7168
12:28:15.515626,0
12:28:15.515626,47
12:28:15.515626,14336
12:28:15.515626,0
12:28:15.515626,63
12:28:15.515626,19968
12:28:15.515626,0
12:28:15.515626,94
12:28:15.515626,28416
12:28:15.515626,0
12:28:15.515626,123
12:28:15.515626,-28160
12:28:15.515626,0
12:28:15.515626,172
12:28:15.515626,-18432
12:28:15.515626,0
12:28:15.515626,206
12:28:15.515626,-5632
12:28:15.515626,0
12:28:15.515626,260
12:28:15.515626,6400
12:28:15.515626,1
12:28:15.515626,296
12:28:15.515626,14336
12:28:15.515626,1
12:28:15.515626,319
12:28:15.515626,16128
12:28:15.515626,1
12:28:15.515626,326
12:28:15.515626,14336
12:28:15.515626,1
12:28:15.515626,262
12:28:15.515626,-17152
12:28:15.515626,0
12:28:15.515626,106
12:28:15.515626,8448
12:28:15.515626,0
12:28:15.515626,-26
12:28:15.515626,-15361
12:28:15.515626,-1
12:28:15.515626,-71
12:28:15.515626,-19713
12:28:15.515626,-1
12:28:15.515626,-80
12:28:15.515626,-17921
12:28:15.515626,-1
12:28:15.515626,-63
12:28:15.515626,-11777
12:28:15.515626,-1
12:28:15.515626,-33
12:28:15.515626,-5121
12:28:15.515626,-1
12:28:15.515626,-7
12:28:15.515626,1279
12:28:15.515626,0
12:28:15.515626,9
12:28:15.515626,2816
12:28:15.515626,0
12:28:15.515626,18
12:28:15.515626,5888
12:28:15.515626,0
12:28:15.515626,18
12:28:15.515626,5376
12:28:15.515626,0
12:28:15.515626,26
12:28:15.515626,4608
12:28:15.515626,0
12:28:15.515626,18
12:28:15.515626,4608
12:28:15.515626,0
12:28:15.515626,21
12:28:15.515626,4608
12:28:15.515626,0
12:28:15.515626,14
12:28:15.515626,4096
12:28:15.515626,0
12:28:15.515626,18
12:28:15.515626,4096
12:28:15.515626,0
12:28:15.515626,18
12:28:15.515626,3584
12:28:15.515626,0
12:28:15.515626,11
12:28:15.515626,1792
12:28:15.515626,0
12:28:15.515626,7
12:28:15.515626,2304
12:28:15.515626,0
12:28:15.515626,4
12:28:16.115578,2
12:28:16.115578,1024
12:28:16.115578,0
12:28:16.115578,7
12:28:16.115578,5888
12:28:16.115578,0
12:28:16.115578,33
12:28:16.115578,5888
12:28:16.115578,0
12:28:16.115578,18
12:28:16.115578,4608
12:28:16.115578,0
12:28:16.115578,18
12:28:16.115578,4096
12:28:16.115578,0
12:28:16.115578,14
12:28:16.115578,3584
12:28:16.115578,0
12:28:16.115578,7
12:28:16.115578,1024
12:28:16.115578,0
12:28:16.115578,2
12:28:16.115578,-2816
12:28:16.115578,-1
12:28:16.115578,-21
12:28:16.115578,-4353
12:28:16.115578,-1
12:28:16.115578,-9
12:28:16.115578,1279
12:28:16.115578,0
12:28:16.115578,23
12:28:16.115578,12032
12:28:16.115578,0
12:28:16.115578,56
12:28:16.115578,12032
12:28:16.115578,0
12:28:16.115578,30
12:28:16.115578,1792
12:28:16.115578,0
12:28:16.115578,0
12:28:16.115578,512
12:28:16.115578,0
12:28:16.115578,-30
12:28:16.115578,-25601
12:28:16.115578,-1
12:28:16.115578,-120
12:28:16.115578,26879
12:28:16.115578,0
12:28:16.115578,535
12:28:16.115578,24576
12:28:16.115578,3
12:28:16.115578,741
12:28:16.115578,21760
12:28:16.115578,0
12:28:16.115578,-279
12:28:16.115578,16383
12:28:16.115578,0
12:28:16.115578,201
12:28:16.115578,-10240
12:28:16.115578,-1
12:28:16.115578,-61
12:28:16.115578,3071
12:28:16.115578,0
12:28:16.115578,-28
12:28:16.115578,-11777
12:28:16.115578,-1
12:28:16.115578,-14
12:28:16.115578,-1537
12:28:16.115578,-1
12:28:16.115578,-9
12:28:16.115578,1279
12:28:16.115578,0
12:28:16.115578,9
12:28:16.115578,2816
12:28:16.115578,0
12:28:16.115578,28
12:28:16.115578,10752
12:28:16.115578,0
12:28:16.115578,54
12:28:16.115578,18688
12:28:16.115578,0
12:28:16.115578,92
12:28:16.115578,28416
12:28:16.115578,0
12:28:16.115578,127
12:28:16.115578,-27392
12:28:16.115578,0
12:28:16.115578,179
12:28:16.115578,-14848
12:28:16.115578,0
12:28:16.115578,215
12:28:16.115578,-5120
12:28:16.115578,0
12:28:16.115578,248
12:28:16.115578,512
12:28:16.115578,1
12:28:16.115578,258
12:28:16.115578,-1280
12:28:16.115578,0
12:28:16.115578,224
12:28:16.115578,-21504
12:28:16.115578,0
12:28:16.115578,101
12:28:16.115578,3584
12:28:16.115578,0
12:28:16.115578,-71
12:28:16.115578,31999
12:28:16.115578,-1
12:28:16.115578,-168
12:28:16.715587,-187
12:28:16.715587,14335
12:28:16.715587,-1
12:28:16.715587,-208
12:28:16.715587,15103
12:28:16.715587,-1
12:28:16.715587,-189
12:28:16.715587,20479
12:28:16.715587,-1
12:28:16.715587,-161
12:28:16.715587,27647
12:28:16.715587,-1
12:28:16.715587,-125
12:28:16.715587,-28161
12:28:16.715587,-1
12:28:16.715587,-108
12:28:16.715587,-25089
12:28:16.715587,-1
12:28:16.715587,-89
12:28:16.715587,-21505
12:28:16.715587,-1
12:28:16.715587,-82
12:28:16.715587,-21505
12:28:16.715587,-1
12:28:16.715587,-82
12:28:16.715587,-20225
12:28:16.715587,-1
12:28:16.715587,-78
12:28:16.715587,-17921
12:28:16.715587,-1
12:28:16.715587,-71
12:28:16.715587,-16641
12:28:16.715587,-1
12:28:16.715587,-63
12:28:16.715587,-16641
12:28:16.715587,-1
12:28:16.715587,-61
12:28:16.715587,-13569
12:28:16.715587,-1
12:28:16.715587,-42
12:28:16.715587,-9985
12:28:16.715587,-1
12:28:16.715587,-47
12:28:16.715587,-9217
12:28:16.715587,-1
12:28:16.715587,-33
12:28:16.715587,-8193
12:28:16.715587,-1
12:28:16.715587,-28
12:28:16.715587,-6401
12:28:16.715587,-1
12:28:16.715587,-23
12:28:16.715587,-3841
12:28:16.715587,-1
12:28:16.715587,-14
12:28:16.715587,-2049
12:28:16.715587,-1
12:28:16.715587,-14
12:28:16.715587,-3329
12:28:16.715587,-1
12:28:16.715587,-14
12:28:16.715587,-6913
12:28:16.715587,-1
12:28:16.715587,-30
12:28:16.715587,-4353
12:28:16.715587,-1
12:28:16.715587,-2
12:28:16.715587,3839
12:28:16.715587,0
12:28:16.715587,33
12:28:16.715587,14336
12:28:16.715587,0
12:28:16.715587,68
12:28:16.715587,15104
12:28:16.715587,0
12:28:16.715587,40
12:28:16.715587,5888
12:28:16.715587,0
12:28:16.715587,28
12:28:16.715587,7168
12:28:16.715587,0
12:28:16.715587,-4
12:28:16.715587,-17921
12:28:16.715587,-1
12:28:16.715587,-80
12:28:16.715587,-23553
12:28:16.715587,0
12:28:16.715587,594
12:28:16.715587,27648
12:28:16.715587,3
12:28:16.715587,705
12:28:16.715587,19200
12:28:16.715587,0
12:28:16.715587,-222
12:28:16.715587,32255
12:28:16.715587,0
12:28:16.715587,217
12:28:16.715587,-4608
12:28:16.715587,-1
12:28:16.715587,-21
12:28:16.715587,11007
12:28:16.715587,0
12:28:16.715587,-4
12:28:16.715587,-2561
12:28:16.715587,-1
12:28:16.715587,23
12:28:16.715587,5888
12:28:16.715587,0
12:28:16.715587,18
12:28:17.226311,40
12:28:17.226311,13312
12:28:17.226311,0
12:28:17.226311,56
12:28:17.226311,18176
12:28:17.226311,0
12:28:17.226311,85
12:28:17.226311,24832
12:28:17.226311,0
12:28:17.226311,118
12:28:17.226311,-31232
12:28:17.226311,0
12:28:17.226311,156
12:28:17.226311,-20736
12:28:17.226311,0
12:28:17.226311,194
12:28:17.226311,-8704
12:28:17.226311,0
12:28:17.226311,248
12:28:17.226311,6400
12:28:17.226311,1
12:28:17.226311,303
12:28:17.226311,12544
12:28:17.226311,1
12:28:17.226311,307
12:28:17.226311,13056
12:28:17.226311,1
12:28:17.226311,300
12:28:17.226311,3328
12:28:17.226311,1
12:28:17.226311,196
12:28:17.226311,27648
12:28:17.226311,0
12:28:17.226311,21
12:28:17.226311,-13824
12:28:17.226311,-1
12:28:17.226311,-104
12:28:17.226311,30719
12:28:17.226311,-1
12:28:17.226311,-153
12:28:17.226311,25343
12:28:17.226311,-1
12:28:17.226311,-156
12:28:17.226311,29439
12:28:17.226311,-1
12:28:17.226311,-134
12:28:17.226311,-32257
12:28:17.226311,-1
12:28:17.226311,-113
12:28:17.226311,-26369
12:28:17.226311,-1
12:28:17.226311,-94
12:28:17.226311,-22017
12:28:17.226311,-1
12:28:17.226311,-80
12:28:17.226311,-17921
12:28:17.226311,-1
12:28:17.226311,-71
12:28:17.226311,-17153
12:28:17.226311,-1
12:28:17.226311,-66
12:28:17.226311,-17153
12:28:17.226311,-1
12:28:17.226311,-63
12:28:17.226311,-15873
12:28:17.226311,-1
12:28:17.226311,-66
12:28:17.226311,-15361
12:28:17.226311,-1
12:28:17.226311,-61
12:28:17.226311,-14849
12:28:17.226311,-1
12:28:17.226311,-56
12:28:17.226311,-13569
12:28:17.226311,-1
12:28:17.226311,-52
12:28:17.226311,-12289
12:28:17.226311,-1
12:28:17.226311,-44
12:28:17.226311,-11009
12:28:17.226311,-1
12:28:17.226311,-47
12:28:17.226311,-9217
12:28:17.226311,-1
12:28:17.226311,-37
12:28:17.226311,-9985
12:28:17.226311,-1
12:28:17.226311,-35
12:28:17.226311,-8705
12:28:17.226311,-1
12:28:17.226311,-30
12:28:17.226311,-6401
12:28:17.226311,-1
12:28:17.226311,-28
12:28:17.226311,-6913
12:28:17.226311,-1
12:28:17.226311,-21
12:28:17.226311,-2561
12:28:17.226311,-1
12:28:17.226311,-16
12:28:17.226311,-6401
12:28:17.226311,-1
12:28:17.226311,-18
12:28:17.226311,-5121
12:28:17.226311,-1
12:28:17.226311,-35
12:28:17.226311,-10497
12:28:17.226311,-1
12:28:17.226311,-44
12:28:17.795570,-23
12:28:17.795570,2047
12:28:17.795570,0
12:28:17.795570,14
12:28:17.795570,4096
12:28:17.795570,0
12:28:17.795570,40
12:28:17.795570,17408
12:28:17.795570,0
12:28:17.795570,61
12:28:17.795570,7680
12:28:17.795570,0
12:28:17.795570,28
12:28:17.795570,10752
12:28:17.795570,0
12:28:17.795570,37
12:28:17.795570,-3584
12:28:17.795570,-1
12:28:17.795570,-78
12:28:17.795570,10495
12:28:17.795570,0
12:28:17.795570,402
12:28:17.795570,5632
12:28:17.795570,3
12:28:17.795570,888
12:28:17.795570,-29952
12:28:17.795570,1
12:28:17.795570,-161
12:28:17.795570,-769
12:28:17.795570,-1
12:28:17.795570,265
12:28:17.795570,20992
12:28:17.795570,0
12:28:17.795570,-26
12:28:17.795570,14591
12:28:17.795570,0
12:28:17.795570,44
12:28:17.795570,1792
12:28:17.795570,0
12:28:17.795570,42
12:28:17.795570,15104
12:28:17.795570,0
12:28:17.795570,47
12:28:17.795570,16128
12:28:17.795570,0
12:28:17.795570,80
12:28:17.795570,22272
12:28:17.795570,0
12:28:17.795570,97
12:28:17.795570,27648
12:28:17.795570,0
12:28:17.795570,125
12:28:17.795570,-30464
12:28:17.795570,0
12:28:17.795570,153
12:28:17.795570,-20224
12:28:17.795570,0
12:28:17.795570,194
12:28:17.795570,-11776
12:28:17.795570,0
12:28:17.795570,232
12:28:17.795570,-768
12:28:17.795570,0
12:28:17.795570,277
12:28:17.795570,8192
12:28:17.795570,1
12:28:17.795570,298
12:28:17.795570,13824
12:28:17.795570,1
12:28:17.795570,310
12:28:17.795570,12544
12:28:17.795570,1
12:28:17.795570,286
12:28:17.795570,-3328
12:28:17.795570,0
12:28:17.795570,170
12:28:17.795570,19968
12:28:17.795570,0
12:28:17.795570,-2
12:28:17.795570,-16641
12:28:17.795570,-1
12:28:17.795570,-111
12:28:17.795570,30719
12:28:17.795570,-1
12:28:17.795570,-151
12:28:17.795570,27135
12:28:17.795570,-1
12:28:17.795570,-144
12:28:17.795570,29439
12:28:17.795570,-1
12:28:17.795570,-132
12:28:17.795570,-30465
12:28:17.795570,-1
12:28:17.795570,-111
12:28:17.795570,-25089
12:28:17.795570,-1
12:28:17.795570,-97
12:28:17.795570,-23297
12:28:17.795570,-1
12:28:17.795570,-92
12:28:17.795570,-23809
12:28:17.795570,-1
12:28:17.795570,-87
12:28:17.795570,-22017
12:28:17.795570,-1
12:28:17.795570,-89
12:28:17.795570,-22529
12:28:17.795570,-1
12:28:17.795570,-92
12:28:18.335576,-82
12:28:18.335576,-21505
12:28:18.335576,-1
12:28:18.335576,-99
12:28:18.335576,-24577
12:28:18.335576,-1
12:28:18.335576,-85
12:28:18.335576,-19713
12:28:18.335576,-1
12:28:18.335576,-85
12:28:18.335576,-22017
12:28:18.335576,-1
12:28:18.335576,-66
12:28:18.335576,-14849
12:28:18.335576,-1
12:28:18.335576,-68
12:28:18.335576,-16641
12:28:18.335576,-1
12:28:18.335576,-63
12:28:18.335576,-16641
12:28:18.335576,-1
12:28:18.335576,-71
12:28:18.335576,-17153
12:28:18.335576,-1
12:28:18.335576,-63
12:28:18.335576,-17153
12:28:18.335576,-1
12:28:18.335576,-66
12:28:18.335576,-16641
12:28:18.335576,-1
12:28:18.335576,-71
12:28:18.335576,-18433
12:28:18.335576,-1
12:28:18.335576,-82
12:28:18.335576,-23809
12:28:18.335576,-1
12:28:18.335576,-94
12:28:18.335576,-20737
12:28:18.335576,-1
12:28:18.335576,-63
12:28:18.335576,-10497
12:28:18.335576,-1
12:28:18.335576,-23
12:28:18.335576,-769
12:28:18.335576,-1
12:28:18.335576,2
12:28:18.335576,-1024
12:28:18.335576,-1
12:28:18.335576,-26
12:28:18.335576,-8193
12:28:18.335576,-1
12:28:18.335576,-18
12:28:18.335576,-6401
12:28:18.335576,-1
12:28:18.335576,-73
12:28:18.335576,30207
12:28:18.335576,-1
12:28:18.335576,-82
12:28:18.335576,767
12:28:18.335576,1
12:28:18.335576,677
12:28:18.335576,14336
12:28:18.335576,3
12:28:18.335576,461
12:28:18.335576,21504
12:28:18.335576,-1
12:28:18.335576,-229
12:28:18.335576,-21761
12:28:18.335576,0
12:28:18.335576,142
12:28:18.335576,-16128
12:28:18.335576,-1
12:28:18.335576,-16
12:28:18.335576,5631
12:28:18.335576,0
12:28:18.335576,-26
12:28:18.335576,-3329
12:28:18.335576,-1
12:28:18.335576,16
12:28:18.335576,2304
12:28:18.335576,0
12:28:18.335576,14
12:28:18.335576,8960
12:28:18.335576,0
12:28:18.335576,40
12:28:18.335576,12544
12:28:18.335576,0
12:28:18.335576,71
12:28:18.335576,21760
12:28:18.335576,0
12:28:18.335576,99
12:28:18.335576,30208
12:28:18.335576,0
12:28:18.335576,139
12:28:18.335576,-24320
12:28:18.335576,0
12:28:18.335576,184
12:28:18.335576,-9984
12:28:18.335576,0
12:28:18.335576,243
12:28:18.335576,512
12:28:18.335576,1
12:28:18.335576,279
12:28:18.335576,9472
12:28:18.335576,1
12:28:18.335576,307
12:28:18.335576,14336
12:28:18.335576,1
12:28:18.335576,303
12:28:18.906598,286
12:28:18.906598,-4352
12:28:18.906598,0
12:28:18.906598,161
12:28:18.906598,19200
12:28:18.906598,0
12:28:18.906598,-4
12:28:18.906598,-13057
12:28:18.906598,-1
12:28:18.906598,-85
12:28:18.906598,-31233
12:28:18.906598,-1
12:28:18.906598,-137
12:28:18.906598,32511
12:28:18.906598,-1
12:28:18.906598,-118
12:28:18.906598,-31233
12:28:18.906598,-1
12:28:18.906598,-116
12:28:18.906598,-22017
12:28:18.906598,-1
12:28:18.906598,-85
12:28:18.906598,-22017
12:28:18.906598,-1
12:28:18.906598,-68
12:28:18.906598,-15361
12:28:18.906598,-1
12:28:18.906598,-59
12:28:18.906598,-13569
12:28:18.906598,-1
12:28:18.906598,-54
12:28:18.906598,-14081
12:28:18.906598,-1
12:28:18.906598,-59
12:28:18.906598,-13057
12:28:18.906598,-1
12:28:18.906598,-49
12:28:18.906598,-14081
12:28:18.906598,-1
12:28:18.906598,-54
12:28:18.906598,-11777
12:28:18.906598,-1
12:28:18.906598,-47
12:28:18.906598,-11009
12:28:18.906598,-1
12:28:18.906598,-52
12:28:18.906598,-11777
12:28:18.906598,-1
12:28:18.906598,-37
12:28:18.906598,-11009
12:28:18.906598,-1
12:28:18.906598,-44
12:28:18.906598,-9217
12:28:18.906598,-1
12:28:18.906598,-35
12:28:18.906598,-8705
12:28:18.906598,-1
12:28:18.906598,-35
12:28:18.906598,-6401
12:28:18.906598,-1
12:28:18.906598,-23
12:28:18.906598,-6913
12:28:18.906598,-1
12:28:18.906598,-26
12:28:18.906598,-6401
12:28:18.906598,-1
12:28:18.906598,-28
12:28:18.906598,-6401
12:28:18.906598,-1
12:28:18.906598,-26
12:28:18.906598,-5121
12:28:18.906598,-1
12:28:18.906598,-28
12:28:18.906598,-8705
12:28:18.906598,-1
12:28:18.906598,-42
12:28:18.906598,-12289
12:28:18.906598,-1
12:28:18.906598,-33
12:28:18.906598,-3329
12:28:18.906598,-1
12:28:18.906598,0
12:28:18.906598,5376
12:28:18.906598,0
12:28:18.906598,35
12:28:18.906598,12544
12:28:18.906598,0
12:28:18.906598,44
12:28:18.906598,5376
12:28:18.906598,0
12:28:18.906598,18
12:28:18.906598,4608
12:28:18.906598,0
12:28:18.906598,11
12:28:18.906598,-4608
12:28:18.906598,-1
12:28:18.906598,-97
12:28:18.906598,-13569
12:28:18.906598,-1
12:28:18.906598,255
12:28:18.906598,-24064
12:28:18.906598,2
12:28:18.906598,899
12:28:18.906598,16128
12:28:18.906598,2
12:28:18.906598,-68
12:28:18.906598,32511
12:28:18.906598,-1
12:28:18.906598,208
12:28:19.506475,134
12:28:19.506475,-15104
12:28:19.506475,-1
12:28:19.506475,2
12:28:19.506475,8448
12:28:19.506475,0
12:28:19.506475,-18
12:28:19.506475,767
12:28:19.506475,0
12:28:19.506475,44
12:28:19.506475,12544
12:28:19.506475,0
12:28:19.506475,54
12:28:19.506475,16128
12:28:19.506475,0
12:28:19.506475,78
12:28:19.506475,22784
12:28:19.506475,0
12:28:19.506475,94
12:28:19.506475,28416
12:28:19.506475,0
12:28:19.506475,127
12:28:19.506475,-28672
12:28:19.506475,0
12:28:19.506475,161
12:28:19.506475,-20224
12:28:19.506475,0
12:28:19.506475,201
12:28:19.506475,-9216
12:28:19.506475,0
12:28:19.506475,239
12:28:19.506475,1536
12:28:19.506475,1
12:28:19.506475,277
12:28:19.506475,8192
12:28:19.506475,1
12:28:19.506475,293
12:28:19.506475,10240
12:28:19.506475,1
12:28:19.506475,293
12:28:19.506475,3328
12:28:19.506475,1
12:28:19.506475,227
12:28:19.506475,-23808
12:28:19.506475,0
12:28:19.506475,71
12:28:19.506475,-2304
12:28:19.506475,-1
12:28:19.506475,-73
12:28:19.506475,-29953
12:28:19.506475,-1
12:28:19.506475,-142
12:28:19.506475,25855
12:28:19.506475,-1
12:28:19.506475,-153
12:28:19.506475,28415
12:28:19.506475,-1
12:28:19.506475,-144
12:28:19.506475,31999
12:28:19.506475,-1
12:28:19.506475,-123
12:28:19.506475,-28673
12:28:19.506475,-1
12:28:19.506475,-104
12:28:19.506475,-25089
12:28:19.506475,-1
12:28:19.506475,-87
12:28:19.506475,-20225
12:28:19.506475,-1
12:28:19.506475,-80
12:28:19.506475,-18945
12:28:19.506475,-1
12:28:19.506475,-71
12:28:19.506475,-17153
12:28:19.506475,-1
12:28:19.506475,-71
12:28:19.506475,-18433
12:28:19.506475,-1
12:28:19.506475,-71
12:28:19.506475,-17153
12:28:19.506475,-1
12:28:19.506475,-66
12:28:19.506475,-14849
12:28:19.506475,-1
12:28:19.506475,-56
12:28:19.506475,-13569
12:28:19.506475,-1
12:28:19.506475,-56
12:28:19.506475,-14849
12:28:19.506475,-1
12:28:19.506475,-54
12:28:19.506475,-14081
12:28:19.506475,-1
12:28:19.506475,-56
12:28:19.506475,-13569
12:28:19.506475,-1
12:28:19.506475,-54
12:28:19.506475,-11777
12:28:19.506475,-1
12:28:19.506475,-47
12:28:19.506475,-12289
12:28:19.506475,-1
12:28:19.506475,-47
12:28:19.506475,-11777
12:28:19.506475,-1
12:28:19.506475,-47
12:28:19.506475,-11009
12:28:19.506475,-1
12:28:19.506475,-44
12:28:20.045873,-40
12:28:20.045873,-9217
12:28:20.045873,-1
12:28:20.045873,-35
12:28:20.045873,-8193
12:28:20.045873,-1
12:28:20.045873,-35
12:28:20.045873,-7425
12:28:20.045873,-1
12:28:20.045873,-33
12:28:20.045873,-8705
12:28:20.045873,-1
12:28:20.045873,-28
12:28:20.045873,-7425
12:28:20.045873,-1
12:28:20.045873,-30
12:28:20.045873,-6913
12:28:20.045873,-1
12:28:20.045873,-26
12:28:20.045873,-4353
12:28:20.045873,-1
12:28:20.045873,-11
12:28:20.045873,2047
12:28:20.045873,0
12:28:20.045873,35
12:28:20.045873,11264
12:28:20.045873,0
12:28:20.045873,52
12:28:20.045873,13824
12:28:20.045873,0
12:28:20.045873,33
12:28:20.045873,2816
12:28:20.045873,0
12:28:20.045873,9
12:28:20.045873,4096
12:28:20.045873,0
12:28:20.045873,-14
12:28:20.045873,-23809
12:28:20.045873,-1
12:28:20.045873,-111
12:28:20.045873,27903
12:28:20.045873,0
12:28:20.045873,523
12:28:20.045873,20992
12:28:20.045873,3
12:28:20.045873,748
12:28:20.045873,32512
12:28:20.045873,0
12:28:20.045873,-260
12:28:20.045873,12287
12:28:20.045873,0
12:28:20.045873,210
12:28:20.045873,-4096
12:28:20.045873,-1
12:28:20.045873,-52
12:28:20.045873,7423
12:28:20.045873,0
12:28:20.045873,-7
12:28:20.045873,-4353
12:28:20.045873,-1
12:28:20.045873,18
12:28:20.045873,4608
12:28:20.045873,0
12:28:20.045873,9
12:28:20.045873,6656
12:28:20.045873,0
12:28:20.045873,42
12:28:20.045873,10752
12:28:20.045873,0
12:28:20.045873,52
12:28:20.045873,19200
12:28:20.045873,0
12:28:20.045873,92
12:28:20.045873,27136
12:28:20.045873,0
12:28:20.045873,125
12:28:20.045873,-29184
12:28:20.045873,0
12:28:20.045873,163
12:28:20.045873,-18432
12:28:20.045873,0
12:28:20.045873,203
12:28:20.045873,-7424
12:28:20.045873,0
12:28:20.045873,243
12:28:20.045873,1024
12:28:20.045873,1
12:28:20.045873,269
12:28:20.045873,3328
12:28:20.045873,1
12:28:20.045873,272
12:28:20.045873,2304
12:28:20.045873,1
12:28:20.045873,236
12:28:20.045873,-20224
12:28:20.045873,0
12:28:20.045873,92
12:28:20.045873,2304
12:28:20.045873,0
12:28:20.045873,-71
12:28:20.045873,32511
12:28:20.045873,-1
12:28:20.045873,-161
12:28:20.045873,19199
12:28:20.045873,-1
12:28:20.045873,-187
12:28:20.045873,18687
12:28:20.045873,-1
12:28:20.045873,-177
12:28:20.585564,-168
12:28:20.585564,25343
12:28:20.585564,-1
12:28:20.585564,-146
12:28:20.585564,30719
12:28:20.585564,-1
12:28:20.585564,-134
12:28:20.585564,-31233
12:28:20.585564,-1
12:28:20.585564,-116
12:28:20.585564,-28673
12:28:20.585564,-1
12:28:20.585564,-104
12:28:20.585564,-22529
12:28:20.585564,-1
12:28:20.585564,-82
12:28:20.585564,-21505
12:28:20.585564,-1
12:28:20.585564,-87
12:28:20.585564,-20737
12:28:20.585564,-1
12:28:20.585564,-87
12:28:20.585564,-22017
12:28:20.585564,-1
12:28:20.585564,-85
12:28:20.585564,-21505
12:28:20.585564,-1
12:28:20.585564,-85
12:28:20.585564,-21505
12:28:20.585564,-1
12:28:20.585564,-82
12:28:20.585564,-19713
12:28:20.585564,-1
12:28:20.585564,-78
12:28:20.585564,-18433
12:28:20.585564,-1
12:28:20.585564,-71
12:28:20.585564,-17153
12:28:20.585564,-1
12:28:20.585564,-66
12:28:20.585564,-15873
12:28:20.585564,-1
12:28:20.585564,-52
12:28:20.585564,-11777
12:28:20.585564,-1
12:28:20.585564,-49
12:28:20.585564,-9985
12:28:20.585564,-1
12:28:20.585564,-37
12:28:20.585564,-9217
12:28:20.585564,-1
12:28:20.585564,-30
12:28:20.585564,-8193
12:28:20.585564,-1
12:28:20.585564,-28
12:28:20.585564,-6401
12:28:20.585564,-1
12:28:20.585564,-33
12:28:20.585564,-9985
12:28:20.585564,-1
12:28:20.585564,-47
12:28:20.585564,-11009
12:28:20.585564,-1
12:28:20.585564,-28
12:28:20.585564,-2049
12:28:20.585564,-1
12:28:20.585564,16
12:28:20.585564,8448
12:28:20.585564,0
12:28:20.585564,47
12:28:20.585564,15104
12:28:20.585564,0
12:28:20.585564,49
12:28:20.585564,7168
12:28:20.585564,0
12:28:20.585564,14
12:28:20.585564,4608
12:28:20.585564,0
12:28:20.585564,16
12:28:20.585564,-8960
12:28:20.585564,-1
12:28:20.585564,-113
12:28:20.585564,-13057
12:28:20.585564,-1
12:28:20.585564,272
12:28:20.585564,-19200
12:28:20.585564,2
12:28:20.585564,890
12:28:20.585564,8192
12:28:20.585564,2
12:28:20.585564,-92
12:28:20.585564,30719
12:28:20.585564,-1
12:28:20.585564,217
12:28:20.585564,-29184
12:28:20.585564,0
12:28:20.585564,-54
12:28:20.585564,2559
12:28:20.585564,0
12:28:20.585564,33
12:28:20.585564,-2304
12:28:20.585564,-1
12:28:20.585564,11
12:28:20.585564,7680
12:28:20.585564,0
12:28:20.585564,26
12:28:20.585564,8960
12:28:20.585564,0
12:28:20.585564,52
12:28:21.155566,61
12:28:21.155566,16896
12:28:21.155566,0
12:28:21.155566,82
12:28:21.155566,24832
12:28:21.155566,0
12:28:21.155566,106
12:28:21.155566,-30464
12:28:21.155566,0
12:28:21.155566,172
12:28:21.155566,-15360
12:28:21.155566,0
12:28:21.155566,210
12:28:21.155566,-5632
12:28:21.155566,0
12:28:21.155566,265
12:28:21.155566,5376
12:28:21.155566,1
12:28:21.155566,288
12:28:21.155566,12544
12:28:21.155566,1
12:28:21.155566,310
12:28:21.155566,13056
12:28:21.155566,1
12:28:21.155566,303
12:28:21.155566,6400
12:28:21.155566,1
12:28:21.155566,234
12:28:21.155566,-26880
12:28:21.155566,0
12:28:21.155566,61
12:28:21.155566,-3584
12:28:21.155566,-1
12:28:21.155566,-82
12:28:21.155566,-31233
12:28:21.155566,-1
12:28:21.155566,-146
12:28:21.155566,25855
12:28:21.155566,-1
12:28:21.155566,-156
12:28:21.155566,25855
12:28:21.155566,-1
12:28:21.155566,-146
12:28:21.155566,31487
12:28:21.155566,-1
12:28:21.155566,-125
12:28:21.155566,-28673
12:28:21.155566,-1
12:28:21.155566,-104
12:28:21.155566,-22529
12:28:21.155566,-1
12:28:21.155566,-78
12:28:21.155566,-18945
12:28:21.155566,-1
12:28:21.155566,-71
12:28:21.155566,-17153
12:28:21.155566,-1
12:28:21.155566,-68
12:28:21.155566,-15361
12:28:21.155566,-1
12:28:21.155566,-66
12:28:21.155566,-15873
12:28:21.155566,-1
12:28:21.155566,-59
12:28:21.155566,-15361
12:28:21.155566,-1
12:28:21.155566,-59
12:28:21.155566,-13569
12:28:21.155566,-1
12:28:21.155566,-54
12:28:21.155566,-14081
12:28:21.155566,-1
12:28:21.155566,-59
12:28:21.155566,-13569
12:28:21.155566,-1
12:28:21.155566,-52
12:28:21.155566,-13057
12:28:21.155566,-1
12:28:21.155566,-44
12:28:21.155566,-10497
12:28:21.155566,-1
12:28:21.155566,-40
12:28:21.155566,-9985
12:28:21.155566,-1
12:28:21.155566,-40
12:28:21.155566,-8705
12:28:21.155566,-1
12:28:21.155566,-42
12:28:21.155566,-10497
12:28:21.155566,-1
12:28:21.155566,-35
12:28:21.155566,-8705
12:28:21.155566,-1
12:28:21.155566,-33
12:28:21.155566,-9217
12:28:21.155566,-1
12:28:21.155566,-37
12:28:21.155566,-8193
12:28:21.155566,-1
12:28:21.155566,-33
12:28:21.155566,-8193
12:28:21.155566,-1
12:28:21.155566,-30
12:28:21.155566,-7425
12:28:21.155566,-1
12:28:21.155566,-30
12:28:21.155566,-10497
12:28:21.155566,-1
12:28:21.155566,-52
12:28:21.696404,-44
12:28:21.696404,-8193
12:28:21.696404,-1
12:28:21.696404,-16
12:28:21.696404,-257
12:28:21.696404,-1
12:28:21.696404,16
12:28:21.696404,8448
12:28:21.696404,0
12:28:21.696404,33
12:28:21.696404,7168
12:28:21.696404,0
12:28:21.696404,21
12:28:21.696404,2304
12:28:21.696404,0
12:28:21.696404,7
12:28:21.696404,-1792
12:28:21.696404,-1
12:28:21.696404,-71
12:28:21.696404,-29441
12:28:21.696404,-1
12:28:21.696404,56
12:28:21.696404,-11264
12:28:21.696404,1
12:28:21.696404,828
12:28:21.696404,5632
12:28:21.696404,3
12:28:21.696404,203
12:28:21.696404,-2304
12:28:21.696404,-2
12:28:21.696404,-2
12:28:21.696404,-8961
12:28:21.696404,0
12:28:21.696404,2
12:28:21.696404,-15616
12:28:21.696404,-1
12:28:21.696404,21
12:28:21.696404,-1792
12:28:21.696404,-1
12:28:21.696404,-23
12:28:21.696404,2559
12:28:21.696404,0
12:28:21.696404,14
12:28:21.696404,2304
12:28:21.696404,0
12:28:21.696404,26
12:28:21.696404,10240
12:28:21.696404,0
12:28:21.696404,40
12:28:21.696404,11264
12:28:21.696404,0
12:28:21.696404,61
12:28:21.696404,20992
12:28:21.696404,0
12:28:21.696404,101
12:28:21.696404,28928
12:28:21.696404,0
12:28:21.696404,137
12:28:21.696404,-23808
12:28:21.696404,0
12:28:21.696404,177
12:28:21.696404,-13568
12:28:21.696404,0
12:28:21.696404,234
12:28:21.696404,512
12:28:21.696404,1
12:28:21.696404,272
12:28:21.696404,5376
12:28:21.696404,1
12:28:21.696404,286
12:28:21.696404,8960
12:28:21.696404,1
12:28:21.696404,277
12:28:21.696404,-2048
12:28:21.696404,0
12:28:21.696404,191
12:28:21.696404,25856
12:28:21.696404,0
12:28:21.696404,7
12:28:21.696404,-18688
12:28:21.696404,-1
12:28:21.696404,-118
12:28:21.696404,28415
12:28:21.696404,-1
12:28:21.696404,-170
12:28:21.696404,20479
12:28:21.696404,-1
12:28:21.696404,-177
12:28:21.696404,22783
12:28:21.696404,-1
12:28:21.696404,-151
12:28:21.696404,30207
12:28:21.696404,-1
12:28:21.696404,-139
12:28:21.696404,28927
12:28:21.696404,-1
12:28:21.696404,-137
12:28:21.696404,-30465
12:28:21.696404,-1
12:28:21.696404,-118
12:28:21.696404,-29441
12:28:21.696404,-1
12:28:21.696404,-113
12:28:21.696404,-26881
12:28:21.696404,-1
12:28:21.696404,-101
12:28:21.696404,-25601
12:28:21.696404,-1
12:28:21.696404,-99
12:28:22.265628,-94
12:28:22.265628,-23297
12:28:22.265628,-1
12:28:22.265628,-87
12:28:22.265628,-20737
12:28:22.265628,-1
12:28:22.265628,-71
12:28:22.265628,-12289
12:28:22.265628,-1
12:28:22.265628,-49
12:28:22.265628,-11777
12:28:22.265628,-1
12:28:22.265628,-37
12:28:22.265628,-9985
12:28:22.265628,-1
12:28:22.265628,-40
12:28:22.265628,-8705
12:28:22.265628,-1
12:28:22.265628,-26
12:28:22.265628,-5633
12:28:22.265628,-1
12:28:22.265628,-28
12:28:22.265628,-5633
12:28:22.265628,-1
12:28:22.265628,-21
12:28:22.265628,-5121
12:28:22.265628,-1
12:28:22.265628,-9
12:28:22.265628,-769
12:28:22.265628,-1
12:28:22.265628,-9
12:28:22.265628,-1537
12:28:22.265628,-1
12:28:22.265628,-4
12:28:22.265628,-769
12:28:22.265628,-1
12:28:22.265628,-7
12:28:22.265628,-2561
12:28:22.265628,-1
12:28:22.265628,-4
12:28:22.265628,4351
12:28:22.265628,0
12:28:22.265628,37
12:28:22.265628,12032
12:28:22.265628,0
12:28:22.265628,63
12:28:22.265628,20480
12:28:22.265628,0
12:28:22.265628,71
12:28:22.265628,11264
12:28:22.265628,0
12:28:22.265628,37
12:28:22.265628,12032
12:28:22.265628,0
12:28:22.265628,49
12:28:22.265628,4608
12:28:22.265628,0
12:28:22.265628,-52
12:28:22.265628,-17921
12:28:22.265628,-1
12:28:22.265628,156
12:28:22.265628,19712
12:28:22.265628,2
12:28:22.265628,897
12:28:22.265628,-3840
12:28:22.265628,2
12:28:22.265628,125
12:28:22.265628,10496
12:28:22.265628,-1
12:28:22.265628,123
12:28:22.265628,2304
12:28:22.265628,1
12:28:22.265628,30
12:28:22.265628,1792
12:28:22.265628,0
12:28:22.265628,80
12:28:22.265628,11264
12:28:22.265628,0
12:28:22.265628,33
12:28:22.265628,16128
12:28:22.265628,0
12:28:22.265628,68
12:28:22.265628,16896
12:28:22.265628,0
12:28:22.265628,82
12:28:22.265628,25344
12:28:22.265628,0
12:28:22.265628,104
12:28:22.265628,30208
12:28:22.265628,0
12:28:22.265628,134
12:28:22.265628,-27392
12:28:22.265628,0
12:28:22.265628,170
12:28:22.265628,-17152
12:28:22.265628,0
12:28:22.265628,208
12:28:22.265628,-5632
12:28:22.265628,0
12:28:22.265628,258
12:28:22.265628,7680
12:28:22.265628,1
12:28:22.265628,307
12:28:22.265628,16896
12:28:22.265628,1
12:28:22.265628,338
12:28:22.265628,21760
12:28:22.265628,1
12:28:22.265628,341
12:28:22.865569,341
12:28:22.865569,15616
12:28:22.865569,1
12:28:22.865569,267
12:28:22.865569,-18432
12:28:22.865569,0
12:28:22.865569,92
12:28:22.865569,4096
12:28:22.865569,0
12:28:22.865569,-42
12:28:22.865569,-21505
12:28:22.865569,-1
12:28:22.865569,-120
12:28:22.865569,30719
12:28:22.865569,-1
12:28:22.865569,-132
12:28:22.865569,-32257
12:28:22.865569,-1
12:28:22.865569,-120
12:28:22.865569,-27393
12:28:22.865569,-1
12:28:22.865569,-99
12:28:22.865569,-21505
12:28:22.865569,-1
12:28:22.865569,-80
12:28:22.865569,-18945
12:28:22.865569,-1
12:28:22.865569,-66
12:28:22.865569,-15873
12:28:22.865569,-1
12:28:22.865569,-61
12:28:22.865569,-15361
12:28:22.865569,-1
12:28:22.865569,-63
12:28:22.865569,-15361
12:28:22.865569,-1
12:28:22.865569,-61
12:28:22.865569,-14849
12:28:22.865569,-1
12:28:22.865569,-59
12:28:22.865569,-14849
12:28:22.865569,-1
12:28:22.865569,-56
12:28:22.865569,-14081
12:28:22.865569,-1
12:28:22.865569,-59
12:28:22.865569,-13569
12:28:22.865569,-1
12:28:22.865569,-54
12:28:22.865569,-13057
12:28:22.865569,-1
12:28:22.865569,-47
12:28:22.865569,-11009
12:28:22.865569,-1
12:28:22.865569,-40
12:28:22.865569,-11009
12:28:22.865569,-1
12:28:22.865569,-44
12:28:22.865569,-9985
12:28:22.865569,-1
12:28:22.865569,-40
12:28:22.865569,-9217
12:28:22.865569,-1
12:28:22.865569,-37
12:28:22.865569,-8705
12:28:22.865569,-1
12:28:22.865569,-30
12:28:22.865569,-8193
12:28:22.865569,-1
12:28:22.865569,-33
12:28:22.865569,-7425
12:28:22.865569,-1
12:28:22.865569,-30
12:28:22.865569,-5633
12:28:22.865569,-1
12:28:22.865569,-21
12:28:22.865569,-4353
12:28:22.865569,-1
12:28:22.865569,-18
12:28:22.865569,-6913
12:28:22.865569,-1
12:28:22.865569,-35
12:28:22.865569,-9985
12:28:22.865569,-1
12:28:22.865569,-28
12:28:22.865569,-257
12:28:22.865569,-1
12:28:22.865569,18
12:28:22.865569,10752
12:28:22.865569,0
12:28:22.865569,56
12:28:22.865569,13824
12:28:22.865569,0
12:28:22.865569,42
12:28:22.865569,4608
12:28:22.865569,0
12:28:22.865569,14
12:28:22.865569,4608
12:28:22.865569,0
12:28:22.865569,2
12:28:22.865569,-12544
12:28:22.865569,-1
12:28:22.865569,-111
12:28:22.865569,255
12:28:22.865569,0
12:28:22.865569,364
12:28:22.865569,-1024
12:28:22.865569,2
12:28:22.865569,862
12:28:23.435569,362
12:28:23.435569,12288
12:28:23.435569,-1
12:28:23.435569,-42
12:28:23.435569,-1793
12:28:23.435569,0
12:28:23.435569,63
12:28:23.435569,-15104
12:28:23.435569,-1
12:28:23.435569,23
12:28:23.435569,4608
12:28:23.435569,0
12:28:23.435569,-18
12:28:23.435569,4351
12:28:23.435569,0
12:28:23.435569,52
12:28:23.435569,10752
12:28:23.435569,0
12:28:23.435569,47
12:28:23.435569,18176
12:28:23.435569,0
12:28:23.435569,85
12:28:23.435569,24064
12:28:23.435569,0
12:28:23.435569,101
12:28:23.435569,30208
12:28:23.435569,0
12:28:23.435569,134
12:28:23.435569,-26880
12:28:23.435569,0
12:28:23.435569,172
12:28:23.435569,-15872
12:28:23.435569,0
12:28:23.435569,220
12:28:23.435569,-2560
12:28:23.435569,0
12:28:23.435569,258
12:28:23.435569,4608
12:28:23.435569,1
12:28:23.435569,298
12:28:23.435569,13824
12:28:23.435569,1
12:28:23.435569,307
12:28:23.435569,13824
12:28:23.435569,1
12:28:23.435569,307
12:28:23.435569,4096
12:28:23.435569,1
12:28:23.435569,201
12:28:23.435569,30208
12:28:23.435569,0
12:28:23.435569,28
12:28:23.435569,-13312
12:28:23.435569,-1
12:28:23.435569,-108
12:28:23.435569,28415
12:28:23.435569,-1
12:28:23.435569,-165
12:28:23.435569,22271
12:28:23.435569,-1
12:28:23.435569,-172
12:28:23.435569,23551
12:28:23.435569,-1
12:28:23.435569,-161
12:28:23.435569,26623
12:28:23.435569,-1
12:28:23.435569,-142
12:28:23.435569,30719
12:28:23.435569,-1
12:28:23.435569,-130
12:28:23.435569,-32257
12:28:23.435569,-1
12:28:23.435569,-127
12:28:23.435569,-29441
12:28:23.435569,-1
12:28:23.435569,-111
12:28:23.435569,-26881
12:28:23.435569,-1
12:28:23.435569,-104
12:28:23.435569,-26881
12:28:23.435569,-1
12:28:23.435569,-101
12:28:23.435569,-26369
12:28:23.435569,-1
12:28:23.435569,-106
12:28:23.435569,-25601
12:28:23.435569,-1
12:28:23.435569,-104
12:28:23.435569,-24577
12:28:23.435569,-1
12:28:23.435569,-89
12:28:23.435569,-24577
12:28:23.435569,-1
12:28:23.435569,-99
12:28:23.435569,-24577
12:28:23.435569,-1
12:28:23.435569,-89
12:28:23.435569,-20737
12:28:23.435569,-1
12:28:23.435569,-85
12:28:23.435569,-22017
12:28:23.435569,-1
12:28:23.435569,-87
12:28:23.435569,-19713
12:28:23.435569,-1
12:28:23.435569,-73
12:28:23.435569,-18945
12:28:23.435569,-1
12:28:23.435569,-66
12:28:23.975564,-59
12:28:23.975564,-15361
12:28:23.975564,-1
12:28:23.975564,-61
12:28:23.975564,-14849
12:28:23.975564,-1
12:28:23.975564,-54
12:28:23.975564,-13569
12:28:23.975564,-1
12:28:23.975564,-61
12:28:23.975564,-16641
12:28:23.975564,-1
12:28:23.975564,-75
12:28:23.975564,-18433
12:28:23.975564,-1
12:28:23.975564,-54
12:28:23.975564,-8193
12:28:23.975564,-1
12:28:23.975564,2
12:28:23.975564,7168
12:28:23.975564,0
12:28:23.975564,33
12:28:23.975564,8960
12:28:23.975564,0
12:28:23.975564,18
12:28:23.975564,-1792
12:28:23.975564,-1
12:28:23.975564,-9
12:28:23.975564,-769
12:28:23.975564,-1
12:28:23.975564,-14
12:28:23.975564,-17921
12:28:23.975564,-1
12:28:23.975564,-132
12:28:23.975564,-2049
12:28:23.975564,-1
12:28:23.975564,381
12:28:23.975564,1536
12:28:23.975564,3
12:28:23.975564,807
12:28:23.975564,10752
12:28:23.975564,1
12:28:23.975564,-272
12:28:23.975564,31487
12:28:23.975564,-1
12:28:23.975564,220
12:28:23.975564,20480
12:28:23.975564,0
12:28:23.975564,-73
12:28:23.975564,3071
12:28:23.975564,0
12:28:23.975564,11
12:28:23.975564,-8448
12:28:23.975564,-1
12:28:23.975564,2
12:28:23.975564,4608
12:28:23.975564,0
12:28:23.975564,4
12:28:23.975564,4608
12:28:23.975564,0
12:28:23.975564,37
12:28:23.975564,12032
12:28:23.975564,0
12:28:23.975564,56
12:28:23.975564,19968
12:28:23.975564,0
12:28:23.975564,94
12:28:23.975564,27648
12:28:23.975564,0
12:28:23.975564,132
12:28:23.975564,-26368
12:28:23.975564,0
12:28:23.975564,177
12:28:23.975564,-13568
12:28:23.975564,0
12:28:23.975564,229
12:28:23.975564,512
12:28:23.975564,1
12:28:23.975564,279
12:28:23.975564,8192
12:28:23.975564,1
12:28:23.975564,303
12:28:23.975564,13824
12:28:23.975564,1
12:28:23.975564,310
12:28:23.975564,10240
12:28:23.975564,1
12:28:23.975564,255
12:28:23.975564,-15872
12:28:23.975564,0
12:28:23.975564,104
12:28:23.975564,3584
12:28:23.975564,0
12:28:23.975564,-54
12:28:23.975564,-27393
12:28:23.975564,-1
12:28:23.975564,-142
12:28:23.975564,26623
12:28:23.975564,-1
12:28:23.975564,-158
12:28:23.975564,26623
12:28:23.975564,-1
12:28:23.975564,-149
12:28:23.975564,30719
12:28:23.975564,-1
12:28:23.975564,-123
12:28:23.975564,-29441
12:28:23.975564,-1
12:28:23.975564,-104
12:28:24.515574,-89
12:28:24.515574,-20737
12:28:24.515574,-1
12:28:24.515574,-75
12:28:24.515574,-18433
12:28:24.515574,-1
12:28:24.515574,-68
12:28:24.515574,-15873
12:28:24.515574,-1
12:28:24.515574,-63
12:28:24.515574,-14849
12:28:24.515574,-1
12:28:24.515574,-59
12:28:24.515574,-11777
12:28:24.515574,-1
12:28:24.515574,-30
12:28:24.515574,-9217
12:28:24.515574,-1
12:28:24.515574,-37
12:28:24.515574,-8705
12:28:24.515574,-1
12:28:24.515574,-35
12:28:24.515574,-9217
12:28:24.515574,-1
12:28:24.515574,-42
12:28:24.515574,-9217
12:28:24.515574,-1
12:28:24.515574,-30
12:28:24.515574,-8193
12:28:24.515574,-1
12:28:24.515574,-30
12:28:24.515574,-7425
12:28:24.515574,-1
12:28:24.515574,-28
12:28:24.515574,-5633
12:28:24.515574,-1
12:28:24.515574,-26
12:28:24.515574,-5121
12:28:24.515574,-1
12:28:24.515574,-18
12:28:24.515574,-5121
12:28:24.515574,-1
12:28:24.515574,-21
12:28:24.515574,-5121
12:28:24.515574,-1
12:28:24.515574,-11
12:28:24.515574,-2049
12:28:24.515574,-1
12:28:24.515574,-11
12:28:24.515574,-1537
12:28:24.515574,-1
12:28:24.515574,-7
12:28:24.515574,-2049
12:28:24.515574,-1
12:28:24.515574,-11
12:28:24.515574,-5633
12:28:24.515574,-1
12:28:24.515574,-28
12:28:24.515574,-6401
12:28:24.515574,-1
12:28:24.515574,-14
12:28:24.515574,2559
12:28:24.515574,0
12:28:24.515574,28
12:28:24.515574,11264
12:28:24.515574,0
12:28:24.515574,59
12:28:24.515574,16128
12:28:24.515574,0
12:28:24.515574,54
12:28:24.515574,7680
12:28:24.515574,0
12:28:24.515574,26
12:28:24.515574,7168
12:28:24.515574,0
12:28:24.515574,14
12:28:24.515574,-8960
12:28:24.515574,-1
12:28:24.515574,-104
12:28:24.515574,-2561
12:28:24.515574,-1
12:28:24.515574,348
12:28:24.515574,-1536
12:28:24.515574,2
12:28:24.515574,909
12:28:24.515574,-13056
12:28:24.515574,1
12:28:24.515574,-139
12:28:24.515574,-10497
12:28:24.515574,-1
12:28:24.515574,262
12:28:24.515574,26624
12:28:24.515574,0
12:28:24.515574,-44
12:28:24.515574,8703
12:28:24.515574,0
12:28:24.515574,40
12:28:24.515574,-512
12:28:24.515574,-1
12:28:24.515574,18
12:28:24.515574,10752
12:28:24.515574,0
12:28:24.515574,35
12:28:24.515574,11264
12:28:24.515574,0
12:28:24.515574,61
12:28:24.515574,16128
12:28:24.515574,0
12:28:24.515574,80
12:28:25.055630,94
12:28:25.055630,27136
12:28:25.055630,0
12:28:25.055630,125
12:28:25.055630,-28672
12:28:25.055630,0
12:28:25.055630,163
12:28:25.055630,-18432
12:28:25.055630,0
12:28:25.055630,220
12:28:25.055630,1536
12:28:25.055630,1
12:28:25.055630,284
12:28:25.055630,10240
12:28:25.055630,1
12:28:25.055630,317
12:28:25.055630,18688
12:28:25.055630,1
12:28:25.055630,331
12:28:25.055630,17408
12:28:25.055630,1
12:28:25.055630,319
12:28:25.055630,7680
12:28:25.055630,1
12:28:25.055630,215
12:28:25.055630,-31232
12:28:25.055630,0
12:28:25.055630,47
12:28:25.055630,-9472
12:28:25.055630,-1
12:28:25.055630,-94
12:28:25.055630,31487
12:28:25.055630,-1
12:28:25.055630,-151
12:28:25.055630,25855
12:28:25.055630,-1
12:28:25.055630,-161
12:28:25.055630,27135
12:28:25.055630,-1
12:28:25.055630,-144
12:28:25.055630,31999
12:28:25.055630,-1
12:28:25.055630,-120
12:28:25.055630,-29441
12:28:25.055630,-1
12:28:25.055630,-104
12:28:25.055630,-22529
12:28:25.055630,-1
12:28:25.055630,-87
12:28:25.055630,-19713
12:28:25.055630,-1
12:28:25.055630,-73
12:28:25.055630,-18433
12:28:25.055630,-1
12:28:25.055630,-73
12:28:25.055630,-18945
12:28:25.055630,-1
12:28:25.055630,-68
12:28:25.055630,-17921
12:28:25.055630,-1
12:28:25.055630,-71
12:28:25.055630,-16641
12:28:25.055630,-1
12:28:25.055630,-71
12:28:25.055630,-17153
12:28:25.055630,-1
12:28:25.055630,-68
12:28:25.055630,-18433
12:28:25.055630,-1
12:28:25.055630,-71
12:28:25.055630,-17153
12:28:25.055630,-1
12:28:25.055630,-61
12:28:25.055630,-14081
12:28:25.055630,-1
12:28:25.055630,-61
12:28:25.055630,-15361
12:28:25.055630,-1
12:28:25.055630,-59
12:28:25.055630,-13569
12:28:25.055630,-1
12:28:25.055630,-49
12:28:25.055630,-13569
12:28:25.055630,-1
12:28:25.055630,-54
12:28:25.055630,-12289
12:28:25.055630,-1
12:28:25.055630,-47
12:28:25.055630,-12289
12:28:25.055630,-1
12:28:25.055630,-54
12:28:25.055630,-12289
12:28:25.055630,-1
12:28:25.055630,-49
12:28:25.055630,-15361
12:28:25.055630,-1
12:28:25.055630,-59
12:28:25.055630,-17153
12:28:25.055630,-1
12:28:25.055630,-87
12:28:25.055630,-20225
12:28:25.055630,-1
12:28:25.055630,-59
12:28:25.055630,-9217
12:28:25.055630,-1
12:28:25.055630,-18
12:28:25.055630,255
12:28:25.055630,0
12:28:25.055630,18
12:28:25.655564,14
12:28:25.655564,-1024
12:28:25.655564,-1
12:28:25.655564,-21
12:28:25.655564,-3841
12:28:25.655564,-1
12:28:25.655564,2
12:28:25.655564,-3584
12:28:25.655564,-1
12:28:25.655564,-87
12:28:25.655564,-32257
12:28:25.655564,-1
12:28:25.655564,61
12:28:25.655564,-6912
12:28:25.655564,1
12:28:25.655564,831
12:28:25.655564,-1536
12:28:25.655564,2
12:28:25.655564,161
12:28:25.655564,-10752
12:28:25.655564,-2
12:28:25.655564,-16
12:28:25.655564,-6657
12:28:25.655564,0
12:28:25.655564,14
12:28:25.655564,-16896
12:28:25.655564,-1
12:28:25.655564,14
12:28:25.655564,-2816
12:28:25.655564,-1
12:28:25.655564,-33
12:28:25.655564,-257
12:28:25.655564,-1
12:28:25.655564,9
12:28:25.655564,1024
12:28:25.655564,0
12:28:25.655564,11
12:28:25.655564,5888
12:28:25.655564,0
12:28:25.655564,26
12:28:25.655564,10752
12:28:25.655564,0
12:28:25.655564,68
12:28:25.655564,22272
12:28:25.655564,0
12:28:25.655564,104
12:28:25.655564,30208
12:28:25.655564,0
12:28:25.655564,144
12:28:25.655564,-20224
12:28:25.655564,0
12:28:25.655564,206
12:28:25.655564,-5632
12:28:25.655564,0
12:28:25.655564,255
12:28:25.655564,4608
12:28:25.655564,1
12:28:25.655564,293
12:28:25.655564,11264
12:28:25.655564,1
12:28:25.655564,305
12:28:25.655564,13824
12:28:25.655564,1
12:28:25.655564,288
12:28:25.655564,-5120
12:28:25.655564,0
12:28:25.655564,151
12:28:25.655564,14336
12:28:25.655564,0
12:28:25.655564,-28
12:28:25.655564,-25601
12:28:25.655564,-1
12:28:25.655564,-153
12:28:25.655564,19199
12:28:25.655564,-1
12:28:25.655564,-194
12:28:25.655564,16127
12:28:25.655564,-1
12:28:25.655564,-191
12:28:25.655564,19967
12:28:25.655564,-1
12:28:25.655564,-168
12:28:25.655564,24575
12:28:25.655564,-1
12:28:25.655564,-151
12:28:25.655564,30207
12:28:25.655564,-1
12:28:25.655564,-127
12:28:25.655564,-29441
12:28:25.655564,-1
12:28:25.655564,-116
12:28:25.655564,-27393
12:28:25.655564,-1
12:28:25.655564,-101
12:28:25.655564,-25601
12:28:25.655564,-1
12:28:25.655564,-94
12:28:25.655564,-23297
12:28:25.655564,-1
12:28:25.655564,-89
12:28:25.655564,-21505
12:28:25.655564,-1
12:28:25.655564,-87
12:28:25.655564,-20737
12:28:25.655564,-1
12:28:25.655564,-78
12:28:25.655564,-18945
12:28:25.655564,-1
12:28:25.655564,-68
12:28:26.225568,-73
12:28:26.225568,-20225
12:28:26.225568,-1
12:28:26.225568,-73
12:28:26.225568,-16641
12:28:26.225568,-1
12:28:26.225568,-61
12:28:26.225568,-14081
12:28:26.225568,-1
12:28:26.225568,-54
12:28:26.225568,-13057
12:28:26.225568,-1
12:28:26.225568,-44
12:28:26.225568,-5121
12:28:26.225568,-1
12:28:26.225568,-11
12:28:26.225568,-5633
12:28:26.225568,-1
12:28:26.225568,-21
12:28:26.225568,-5121
12:28:26.225568,-1
12:28:26.225568,-26
12:28:26.225568,-9217
12:28:26.225568,-1
12:28:26.225568,-47
12:28:26.225568,-8705
12:28:26.225568,-1
12:28:26.225568,-18
12:28:26.225568,255
12:28:26.225568,0
12:28:26.225568,18
12:28:26.225568,8960
12:28:26.225568,0
12:28:26.225568,44
12:28:26.225568,10240
12:28:26.225568,0
12:28:26.225568,18
12:28:26.225568,2304
12:28:26.225568,0
12:28:26.225568,7
12:28:26.225568,2304
12:28:26.225568,0
