timestamp,ecg,reconstructed_time
2025-11-07 12:27:55.955599,-85,2025-11-07 12:27:55.955599000
2025-11-07 12:27:55.955599,-21505,2025-11-07 12:27:55.963291308
2025-11-07 12:27:55.955599,-1,2025-11-07 12:27:55.970983615
2025-11-07 12:27:55.955599,-80,2025-11-07 12:27:55.978675923
2025-11-07 12:27:55.955599,-17921,2025-11-07 12:27:55.986368231
2025-11-07 12:27:55.955599,-1,2025-11-07 12:27:55.994060538
2025-11-07 12:27:55.955599,-68,2025-11-07 12:27:56.001752846
2025-11-07 12:27:55.955599,-18433,2025-11-07 12:27:56.009445154
2025-11-07 12:27:55.955599,-1,2025-11-07 12:27:56.017137462
2025-11-07 12:27:55.955599,-71,2025-11-07 12:27:56.024829769
2025-11-07 12:27:55.955599,-15361,2025-11-07 12:27:56.032522077
2025-11-07 12:27:55.955599,-1,2025-11-07 12:27:56.040214385
2025-11-07 12:27:55.955599,-52,2025-11-07 12:27:56.047906692
2025-11-07 12:27:55.955599,-10497,2025-11-07 12:27:56.055599000
2025-11-07 12:27:55.955599,-1,2025-11-07 12:27:56.063291308
2025-11-07 12:27:55.955599,-26,2025-11-07 12:27:56.070983615
2025-11-07 12:27:55.955599,-769,2025-11-07 12:27:56.078675923
2025-11-07 12:27:55.955599,-1,2025-11-07 12:27:56.086368231
2025-11-07 12:27:55.955599,9,2025-11-07 12:27:56.094060538
2025-11-07 12:27:55.955599,4608,2025-11-07 12:27:56.101752846
2025-11-07 12:27:55.955599,0,2025-11-07 12:27:56.109445154
2025-11-07 12:27:55.955599,23,2025-11-07 12:27:56.117137462
2025-11-07 12:27:55.955599,1792,2025-11-07 12:27:56.124829769
2025-11-07 12:27:55.955599,0,2025-11-07 12:27:56.132522077
2025-11-07 12:27:55.955599,-18,2025-11-07 12:27:56.140214385
2025-11-07 12:27:55.955599,-6401,2025-11-07 12:27:56.147906692
2025-11-07 12:27:55.955599,-1,2025-11-07 12:27:56.155599000
2025-11-07 12:27:55.955599,-23,2025-11-07 12:27:56.163291308
2025-11-07 12:27:55.955599,-8193,2025-11-07 12:27:56.170983615
2025-11-07 12:27:55.955599,-1,2025-11-07 12:27:56.178675923
2025-11-07 12:27:55.955599,-75,2025-11-07 12:27:56.186368231
2025-11-07 12:27:55.955599,-31233,2025-11-07 12:27:56.194060538
2025-11-07 12:27:55.955599,-1,2025-11-07 12:27:56.201752846
2025-11-07 12:27:55.955599,-23,2025-11-07 12:27:56.209445154
2025-11-07 12:27:55.955599,24831,2025-11-07 12:27:56.217137462
2025-11-07 12:27:55.955599,1,2025-11-07 12:27:56.224829769
2025-11-07 12:27:55.955599,729,2025-11-07 12:27:56.232522077
2025-11-07 12:27:55.955599,-14848,2025-11-07 12:27:56.240214385
2025-11-07 12:27:55.955599,2,2025-11-07 12:27:56.247906692
2025-11-07 12:27:55.955599,203,2025-11-07 12:27:56.255599000
2025-11-07 12:27:55.955599,-26368,2025-11-07 12:27:56.263291308
2025-11-07 12:27:55.955599,-2,2025-11-07 12:27:56.270983615
2025-11-07 12:27:55.955599,-241,2025-11-07 12:27:56.278675923
2025-11-07 12:27:55.955599,-15617,2025-11-07 12:27:56.286368231
2025-11-07 12:27:55.955599,0,2025-11-07 12:27:56.294060538
2025-11-07 12:27:55.955599,118,2025-11-07 12:27:56.301752846
2025-11-07 12:27:55.955599,-18688,2025-11-07 12:27:56.309445154
2025-11-07 12:27:55.955599,-1,2025-11-07 12:27:56.317137462
2025-11-07 12:27:55.955599,14,2025-11-07 12:27:56.324829769
2025-11-07 12:27:55.955599,10752,2025-11-07 12:27:56.332522077
2025-11-07 12:27:55.955599,0,2025-11-07 12:27:56.340214385
2025-11-07 12:27:55.955599,-14,2025-11-07 12:27:56.347906692
2025-11-07 12:27:55.955599,3839,2025-11-07 12:27:56.355599000
2025-11-07 12:27:55.955599,0,2025-11-07 12:27:56.363291308
2025-11-07 12:27:55.955599,47,2025-11-07 12:27:56.370983615
2025-11-07 12:27:55.955599,7168,2025-11-07 12:27:56.378675923
2025-11-07 12:27:55.955599,0,2025-11-07 12:27:56.386368231
2025-11-07 12:27:55.955599,33,2025-11-07 12:27:56.394060538
2025-11-07 12:27:55.955599,14336,2025-11-07 12:27:56.401752846
2025-11-07 12:27:55.955599,0,2025-11-07 12:27:56.409445154
2025-11-07 12:27:55.955599,63,2025-11-07 12:27:56.417137462
2025-11-07 12:27:55.955599,19968,2025-11-07 12:27:56.424829769
2025-11-07 12:27:55.955599,0,2025-11-07 12:27:56.432522077
2025-11-07 12:27:55.955599,106,2025-11-07 12:27:56.440214385
2025-11-07 12:27:55.955599,32000,2025-11-07 12:27:56.447906692
2025-11-07 12:27:55.955599,0,2025-11-07 12:27:56.455599000
2025-11-07 12:27:55.955599,151,2025-11-07 12:27:56.463291308
2025-11-07 12:27:55.955599,-17152,2025-11-07 12:27:56.470983615
2025-11-07 12:27:55.955599,0,2025-11-07 12:27:56.478675923
2025-11-07 12:27:55.955599,224,2025-11-07 12:27:56.486368230
2025-11-07 12:27:55.955599,2304,2025-11-07 12:27:56.494060538
2025-11-07 12:27:55.955599,1,2025-11-07 12:27:56.501752846
2025-11-07 12:27:55.955599,303,2025-11-07 12:27:56.509445154
2025-11-07 12:27:55.955599,21760,2025-11-07 12:27:56.517137462
2025-11-07 12:27:55.955599,1,2025-11-07 12:27:56.524829769
2025-11-07 12:27:55.955599,388,2025-11-07 12:27:56.532522077
2025-11-07 12:27:55.955599,-20224,2025-11-07 12:27:56.540214385
2025-11-07 12:27:55.955599,1,2025-11-07 12:27:56.547906692
2025-11-07 12:27:55.955599,464,2025-11-07 12:27:56.555599000
2025-11-07 12:27:55.955599,-6400,2025-11-07 12:27:56.563291308
2025-11-07 12:27:55.955599,1,2025-11-07 12:27:56.570983615
2025-11-07 12:27:55.955599,492,2025-11-07 12:27:56.578675923
2025-11-07 12:27:55.955599,-11776,2025-11-07 12:27:56.586368231
2025-11-07 12:27:55.955599,1,2025-11-07 12:27:56.594060538
2025-11-07 12:27:55.955599,390,2025-11-07 12:27:56.601752846
2025-11-07 12:27:55.955599,4096,2025-11-07 12:27:56.609445154
2025-11-07 12:27:55.955599,1,2025-11-07 12:27:56.617137462
2025-11-07 12:27:55.955599,139,2025-11-07 12:27:56.624829769
2025-11-07 12:27:55.955599,4096,2025-11-07 12:27:56.632522077
2025-11-07 12:27:55.955599,0,2025-11-07 12:27:56.640214385
2025-11-07 12:27:55.955599,-82,2025-11-07 12:27:56.647906692
2025-11-07 12:27:55.955599,26623,2025-11-07 12:27:56.655599000
2025-11-07 12:27:55.955599,-1,2025-11-07 12:27:56.663291308
2025-11-07 12:27:55.955599,-198,2025-11-07 12:27:56.670983615
2025-11-07 12:27:55.955599,7679,2025-11-07 12:27:56.678675923
2025-11-07 12:27:55.955599,-1,2025-11-07 12:27:56.686368231
2025-11-07 12:27:55.955599,-239,2025-11-07 12:27:56.694060538
2025-11-07 12:27:55.955599,6399,2025-11-07 12:27:56.701752846
2025-11-07 12:27:55.955599,-1,2025-11-07 12:27:56.709445154
2025-11-07 12:27:55.955599,-224,2025-11-07 12:27:56.717137462
2025-11-07 12:27:55.955599,7679,2025-11-07 12:27:56.724829769
2025-11-07 12:27:55.955599,-1,2025-11-07 12:27:56.732522077
2025-11-07 12:27:55.955599,-215,2025-11-07 12:27:56.740214385
2025-11-07 12:27:55.955599,15103,2025-11-07 12:27:56.747906692
2025-11-07 12:27:55.955599,-1,2025-11-07 12:27:56.755599000
2025-11-07 12:27:55.955599,-196,2025-11-07 12:27:56.763291308
2025-11-07 12:27:55.955599,16127,2025-11-07 12:27:56.770983615
2025-11-07 12:27:55.955599,-1,2025-11-07 12:27:56.778675923
2025-11-07 12:27:55.955599,-187,2025-11-07 12:27:56.786368231
2025-11-07 12:27:56.495604,-182,2025-11-07 12:27:56.794060538
2025-11-07 12:27:56.495604,21759,2025-11-07 12:27:56.801752846
2025-11-07 12:27:56.495604,-1,2025-11-07 12:27:56.809445154
2025-11-07 12:27:56.495604,-161,2025-11-07 12:27:56.817137462
2025-11-07 12:27:56.495604,24063,2025-11-07 12:27:56.824829769
2025-11-07 12:27:56.495604,-1,2025-11-07 12:27:56.832522077
2025-11-07 12:27:56.495604,-165,2025-11-07 12:27:56.840214385
2025-11-07 12:27:56.495604,22783,2025-11-07 12:27:56.847906692
2025-11-07 12:27:56.495604,-1,2025-11-07 12:27:56.855599000
2025-11-07 12:27:56.495604,-165,2025-11-07 12:27:56.863291308
2025-11-07 12:27:56.495604,25343,2025-11-07 12:27:56.870983615
2025-11-07 12:27:56.495604,-1,2025-11-07 12:27:56.878675923
2025-11-07 12:27:56.495604,-158,2025-11-07 12:27:56.886368231
2025-11-07 12:27:56.495604,24575,2025-11-07 12:27:56.894060538
2025-11-07 12:27:56.495604,-1,2025-11-07 12:27:56.901752846
2025-11-07 12:27:56.495604,-163,2025-11-07 12:27:56.909445154
2025-11-07 12:27:56.495604,25855,2025-11-07 12:27:56.917137462
2025-11-07 12:27:56.495604,-1,2025-11-07 12:27:56.924829769
2025-11-07 12:27:56.495604,-137,2025-11-07 12:27:56.932522077
2025-11-07 12:27:56.495604,31999,2025-11-07 12:27:56.940214385
2025-11-07 12:27:56.495604,-1,2025-11-07 12:27:56.947906692
2025-11-07 12:27:56.495604,-134,2025-11-07 12:27:56.955599000
2025-11-07 12:27:56.495604,-32257,2025-11-07 12:27:56.963291308
2025-11-07 12:27:56.495604,-1,2025-11-07 12:27:56.970983615
2025-11-07 12:27:56.495604,-120,2025-11-07 12:27:56.978675923
2025-11-07 12:27:56.495604,-31233,2025-11-07 12:27:56.986368231
2025-11-07 12:27:56.495604,-1,2025-11-07 12:27:56.994060538
2025-11-07 12:27:56.495604,-127,2025-11-07 12:27:57.001752846
2025-11-07 12:27:56.495604,32511,2025-11-07 12:27:57.009445154
2025-11-07 12:27:56.495604,-1,2025-11-07 12:27:57.017137462
2025-11-07 12:27:56.495604,-130,2025-11-07 12:27:57.024829769
2025-11-07 12:27:56.495604,-31745,2025-11-07 12:27:57.032522077
2025-11-07 12:27:56.495604,-1,2025-11-07 12:27:57.040214385
2025-11-07 12:27:56.495604,-130,2025-11-07 12:27:57.047906692
2025-11-07 12:27:56.495604,31487,2025-11-07 12:27:57.055599000
2025-11-07 12:27:56.495604,-1,2025-11-07 12:27:57.063291308
2025-11-07 12:27:56.495604,-134,2025-11-07 12:27:57.070983615
2025-11-07 12:27:56.495604,28927,2025-11-07 12:27:57.078675923
2025-11-07 12:27:56.495604,-1,2025-11-07 12:27:57.086368231
2025-11-07 12:27:56.495604,-142,2025-11-07 12:27:57.094060538
2025-11-07 12:27:56.495604,-29441,2025-11-07 12:27:57.101752846
2025-11-07 12:27:56.495604,-1,2025-11-07 12:27:57.109445154
2025-11-07 12:27:56.495604,-104,2025-11-07 12:27:57.117137462
2025-11-07 12:27:56.495604,-25089,2025-11-07 12:27:57.124829769
2025-11-07 12:27:56.495604,-1,2025-11-07 12:27:57.132522077
2025-11-07 12:27:56.495604,-78,2025-11-07 12:27:57.140214385
2025-11-07 12:27:56.495604,-14849,2025-11-07 12:27:57.147906692
2025-11-07 12:27:56.495604,-1,2025-11-07 12:27:57.155599000
2025-11-07 12:27:56.495604,-54,2025-11-07 12:27:57.163291308
2025-11-07 12:27:56.495604,-15361,2025-11-07 12:27:57.170983615
2025-11-07 12:27:56.495604,-1,2025-11-07 12:27:57.178675923
2025-11-07 12:27:56.495604,-73,2025-11-07 12:27:57.186368231
2025-11-07 12:27:56.495604,-22529,2025-11-07 12:27:57.194060538
2025-11-07 12:27:56.495604,-1,2025-11-07 12:27:57.201752846
2025-11-07 12:27:56.495604,-94,2025-11-07 12:27:57.209445154
2025-11-07 12:27:56.495604,-21505,2025-11-07 12:27:57.217137462
2025-11-07 12:27:56.495604,-1,2025-11-07 12:27:57.224829769
2025-11-07 12:27:56.495604,-97,2025-11-07 12:27:57.232522077
2025-11-07 12:27:56.495604,23551,2025-11-07 12:27:57.240214385
2025-11-07 12:27:56.495604,-1,2025-11-07 12:27:57.247906692
2025-11-07 12:27:56.495604,-220,2025-11-07 12:27:57.255599000
2025-11-07 12:27:56.495604,-15873,2025-11-07 12:27:57.263291308
2025-11-07 12:27:56.495604,-1,2025-11-07 12:27:57.270983615
2025-11-07 12:27:56.495604,367,2025-11-07 12:27:57.278675923
2025-11-07 12:27:56.495604,-1024,2025-11-07 12:27:57.286368231
2025-11-07 12:27:56.495604,2,2025-11-07 12:27:57.294060538
2025-11-07 12:27:56.495604,731,2025-11-07 12:27:57.301752846
2025-11-07 12:27:56.495604,30208,2025-11-07 12:27:57.309445154
2025-11-07 12:27:56.495604,0,2025-11-07 12:27:57.317137462
2025-11-07 12:27:56.495604,-395,2025-11-07 12:27:57.324829769
2025-11-07 12:27:56.495604,-28161,2025-11-07 12:27:57.332522077
2025-11-07 12:27:56.495604,-1,2025-11-07 12:27:57.340214385
2025-11-07 12:27:56.495604,196,2025-11-07 12:27:57.347906692
2025-11-07 12:27:56.495604,-5888,2025-11-07 12:27:57.355599000
2025-11-07 12:27:56.495604,-1,2025-11-07 12:27:57.363291308
2025-11-07 12:27:56.495604,-132,2025-11-07 12:27:57.370983615
2025-11-07 12:27:56.495604,-7425,2025-11-07 12:27:57.378675923
2025-11-07 12:27:56.495604,-1,2025-11-07 12:27:57.386368231
2025-11-07 12:27:56.495604,-47,2025-11-07 12:27:57.394060538
2025-11-07 12:27:56.495604,-20225,2025-11-07 12:27:57.401752846
2025-11-07 12:27:56.495604,-1,2025-11-07 12:27:57.409445154
2025-11-07 12:27:56.495604,-42,2025-11-07 12:27:57.417137462
2025-11-07 12:27:56.495604,-8705,2025-11-07 12:27:57.424829769
2025-11-07 12:27:56.495604,-1,2025-11-07 12:27:57.432522077
2025-11-07 12:27:56.495604,-40,2025-11-07 12:27:57.440214385
2025-11-07 12:27:56.495604,-3841,2025-11-07 12:27:57.447906692
2025-11-07 12:27:56.495604,-1,2025-11-07 12:27:57.455599000
2025-11-07 12:27:56.495604,4,2025-11-07 12:27:57.463291308
2025-11-07 12:27:56.495604,3584,2025-11-07 12:27:57.470983615
2025-11-07 12:27:56.495604,0,2025-11-07 12:27:57.478675923
2025-11-07 12:27:56.495604,35,2025-11-07 12:27:57.486368230
2025-11-07 12:27:56.495604,16896,2025-11-07 12:27:57.494060538
2025-11-07 12:27:56.495604,0,2025-11-07 12:27:57.501752846
2025-11-07 12:27:56.495604,92,2025-11-07 12:27:57.509445154
2025-11-07 12:27:56.495604,31488,2025-11-07 12:27:57.517137462
2025-11-07 12:27:56.495604,0,2025-11-07 12:27:57.524829769
2025-11-07 12:27:56.495604,158,2025-11-07 12:27:57.532522077
2025-11-07 12:27:56.495604,-16640,2025-11-07 12:27:57.540214385
2025-11-07 12:27:56.495604,0,2025-11-07 12:27:57.547906692
2025-11-07 12:27:56.495604,232,2025-11-07 12:27:57.555599000
2025-11-07 12:27:56.495604,8192,2025-11-07 12:27:57.563291308
2025-11-07 12:27:56.495604,1,2025-11-07 12:27:57.570983615
2025-11-07 12:27:56.495604,345,2025-11-07 12:27:57.578675923
2025-11-07 12:27:56.495604,-31744,2025-11-07 12:27:57.586368231
2025-11-07 12:27:56.495604,1,2025-11-07 12:27:57.594060538
2025-11-07 12:27:56.495604,428,2025-11-07 12:27:57.601752846
2025-11-07 12:27:56.495604,-8704,2025-11-07 12:27:57.609445154
2025-11-07 12:27:56.495604,1,2025-11-07 12:27:57.617137462
2025-11-07 12:27:56.495604,513,2025-11-07 12:27:57.624829769
2025-11-07 12:27:57.035614,516,2025-11-07 12:27:57.632522077
2025-11-07 12:27:57.035614,-5120,2025-11-07 12:27:57.640214385
2025-11-07 12:27:57.035614,1,2025-11-07 12:27:57.647906692
2025-11-07 12:27:57.035614,421,2025-11-07 12:27:57.655599000
2025-11-07 12:27:57.035614,15616,2025-11-07 12:27:57.663291308
2025-11-07 12:27:57.035614,1,2025-11-07 12:27:57.670983615
2025-11-07 12:27:57.035614,201,2025-11-07 12:27:57.678675923
2025-11-07 12:27:57.035614,20992,2025-11-07 12:27:57.686368231
2025-11-07 12:27:57.035614,0,2025-11-07 12:27:57.694060538
2025-11-07 12:27:57.035614,-16,2025-11-07 12:27:57.701752846
2025-11-07 12:27:57.035614,-20737,2025-11-07 12:27:57.709445154
2025-11-07 12:27:57.035614,-1,2025-11-07 12:27:57.717137462
2025-11-07 12:27:57.035614,-125,2025-11-07 12:27:57.724829769
2025-11-07 12:27:57.035614,26623,2025-11-07 12:27:57.732522077
2025-11-07 12:27:57.035614,-1,2025-11-07 12:27:57.740214385
2025-11-07 12:27:57.035614,-187,2025-11-07 12:27:57.747906692
2025-11-07 12:27:57.035614,12031,2025-11-07 12:27:57.755599000
2025-11-07 12:27:57.035614,-1,2025-11-07 12:27:57.763291308
2025-11-07 12:27:57.035614,-220,2025-11-07 12:27:57.770983615
2025-11-07 12:27:57.035614,6399,2025-11-07 12:27:57.778675923
2025-11-07 12:27:57.035614,-1,2025-11-07 12:27:57.786368231
2025-11-07 12:27:57.035614,-246,2025-11-07 12:27:57.794060538
2025-11-07 12:27:57.035614,3583,2025-11-07 12:27:57.801752846
2025-11-07 12:27:57.035614,-1,2025-11-07 12:27:57.809445154
2025-11-07 12:27:57.035614,-243,2025-11-07 12:27:57.817137462
2025-11-07 12:27:57.035614,-769,2025-11-07 12:27:57.824829769
2025-11-07 12:27:57.035614,-2,2025-11-07 12:27:57.832522077
2025-11-07 12:27:57.035614,-258,2025-11-07 12:27:57.840214385
2025-11-07 12:27:57.035614,5887,2025-11-07 12:27:57.847906692
2025-11-07 12:27:57.035614,-1,2025-11-07 12:27:57.855599000
2025-11-07 12:27:57.035614,-232,2025-11-07 12:27:57.863291308
2025-11-07 12:27:57.035614,511,2025-11-07 12:27:57.870983615
2025-11-07 12:27:57.035614,-1,2025-11-07 12:27:57.878675923
2025-11-07 12:27:57.035614,-260,2025-11-07 12:27:57.886368231
2025-11-07 12:27:57.035614,1535,2025-11-07 12:27:57.894060538
2025-11-07 12:27:57.035614,-1,2025-11-07 12:27:57.901752846
2025-11-07 12:27:57.035614,-253,2025-11-07 12:27:57.909445154
2025-11-07 12:27:57.035614,-1281,2025-11-07 12:27:57.917137462
2025-11-07 12:27:57.035614,-2,2025-11-07 12:27:57.924829769
2025-11-07 12:27:57.035614,-269,2025-11-07 12:27:57.932522077
2025-11-07 12:27:57.035614,-5121,2025-11-07 12:27:57.940214385
2025-11-07 12:27:57.035614,-2,2025-11-07 12:27:57.947906692
2025-11-07 12:27:57.035614,-281,2025-11-07 12:27:57.955599000
2025-11-07 12:27:57.035614,-6145,2025-11-07 12:27:57.963291308
2025-11-07 12:27:57.035614,-2,2025-11-07 12:27:57.970983615
2025-11-07 12:27:57.035614,-291,2025-11-07 12:27:57.978675923
2025-11-07 12:27:57.035614,-12289,2025-11-07 12:27:57.986368231
2025-11-07 12:27:57.035614,-2,2025-11-07 12:27:57.994060538
2025-11-07 12:27:57.035614,-312,2025-11-07 12:27:58.001752846
2025-11-07 12:27:57.035614,-15873,2025-11-07 12:27:58.009445154
2025-11-07 12:27:57.035614,-2,2025-11-07 12:27:58.017137462
2025-11-07 12:27:57.035614,-326,2025-11-07 12:27:58.024829769
2025-11-07 12:27:57.035614,-18945,2025-11-07 12:27:58.032522077
2025-11-07 12:27:57.035614,-2,2025-11-07 12:27:58.040214385
2025-11-07 12:27:57.035614,-333,2025-11-07 12:27:58.047906692
2025-11-07 12:27:57.035614,-18945,2025-11-07 12:27:58.055599000
2025-11-07 12:27:57.035614,-2,2025-11-07 12:27:58.063291308
2025-11-07 12:27:57.035614,-329,2025-11-07 12:27:58.070983615
2025-11-07 12:27:57.035614,-20225,2025-11-07 12:27:58.078675923
2025-11-07 12:27:57.035614,-2,2025-11-07 12:27:58.086368231
2025-11-07 12:27:57.035614,-345,2025-11-07 12:27:58.094060538
2025-11-07 12:27:57.035614,-23297,2025-11-07 12:27:58.101752846
2025-11-07 12:27:57.035614,-2,2025-11-07 12:27:58.109445154
2025-11-07 12:27:57.035614,-343,2025-11-07 12:27:58.117137462
2025-11-07 12:27:57.035614,-14081,2025-11-07 12:27:58.124829769
2025-11-07 12:27:57.035614,-2,2025-11-07 12:27:58.132522077
2025-11-07 12:27:57.035614,-274,2025-11-07 12:27:58.140214385
2025-11-07 12:27:57.035614,1023,2025-11-07 12:27:58.147906692
2025-11-07 12:27:57.035614,-1,2025-11-07 12:27:58.155599000
2025-11-07 12:27:57.035614,-236,2025-11-07 12:27:58.163291308
2025-11-07 12:27:57.035614,10239,2025-11-07 12:27:58.170983615
2025-11-07 12:27:57.035614,-1,2025-11-07 12:27:58.178675923
2025-11-07 12:27:57.035614,-215,2025-11-07 12:27:58.186368231
2025-11-07 12:27:57.035614,6399,2025-11-07 12:27:58.194060538
2025-11-07 12:27:57.035614,-1,2025-11-07 12:27:58.201752846
2025-11-07 12:27:57.035614,-239,2025-11-07 12:27:58.209445154
2025-11-07 12:27:57.035614,6399,2025-11-07 12:27:58.217137462
2025-11-07 12:27:57.035614,-1,2025-11-07 12:27:58.224829769
2025-11-07 12:27:57.035614,-234,2025-11-07 12:27:58.232522077
2025-11-07 12:27:57.035614,-2049,2025-11-07 12:27:58.240214385
2025-11-07 12:27:57.035614,-2,2025-11-07 12:27:58.247906692
2025-11-07 12:27:57.035614,-331,2025-11-07 12:27:58.255599000
2025-11-07 12:27:57.035614,-14593,2025-11-07 12:27:58.263291308
2025-11-07 12:27:57.035614,-2,2025-11-07 12:27:58.270983615
2025-11-07 12:27:57.035614,-18,2025-11-07 12:27:58.278675923
2025-11-07 12:27:57.035614,-18689,2025-11-07 12:27:58.286368231
2025-11-07 12:27:57.035614,1,2025-11-07 12:27:58.294060538
2025-11-07 12:27:57.035614,691,2025-11-07 12:27:58.301752846
2025-11-07 12:27:57.035614,-26880,2025-11-07 12:27:58.309445154
2025-11-07 12:27:57.035614,1,2025-11-07 12:27:58.317137462
2025-11-07 12:27:57.035614,-274,2025-11-07 12:27:58.324829769
2025-11-07 12:27:57.035614,16383,2025-11-07 12:27:58.332522077
2025-11-07 12:27:57.035614,-2,2025-11-07 12:27:58.340214385
2025-11-07 12:27:57.035614,-47,2025-11-07 12:27:58.347906692
2025-11-07 12:27:57.035614,-5121,2025-11-07 12:27:58.355599000
2025-11-07 12:27:57.035614,-1,2025-11-07 12:27:58.363291308
2025-11-07 12:27:57.035614,-265,2025-11-07 12:27:58.370983615
2025-11-07 12:27:57.035614,3583,2025-11-07 12:27:58.378675923
2025-11-07 12:27:57.035614,-1,2025-11-07 12:27:58.386368231
2025-11-07 12:27:57.035614,-189,2025-11-07 12:27:58.394060538
2025-11-07 12:27:57.035614,4607,2025-11-07 12:27:58.401752846
2025-11-07 12:27:57.035614,-1,2025-11-07 12:27:58.409445154
2025-11-07 12:27:57.035614,-234,2025-11-07 12:27:58.417137462
2025-11-07 12:27:57.035614,13055,2025-11-07 12:27:58.424829769
2025-11-07 12:27:57.035614,-1,2025-11-07 12:27:58.432522077
2025-11-07 12:27:57.035614,-210,2025-11-07 12:27:58.440214385
2025-11-07 12:27:57.035614,15103,2025-11-07 12:27:58.447906692
2025-11-07 12:27:57.035614,-1,2025-11-07 12:27:58.455599000
2025-11-07 12:27:57.035614,-172,2025-11-07 12:27:58.463291308
2025-11-07 12:27:57.605567,-158,2025-11-07 12:27:58.470983615
2025-11-07 12:27:57.605567,30719,2025-11-07 12:27:58.478675923
2025-11-07 12:27:57.605567,-1,2025-11-07 12:27:58.486368230
2025-11-07 12:27:57.605567,-113,2025-11-07 12:27:58.494060538
2025-11-07 12:27:57.605567,-22017,2025-11-07 12:27:58.501752846
2025-11-07 12:27:57.605567,-1,2025-11-07 12:27:58.509445154
2025-11-07 12:27:57.605567,-52,2025-11-07 12:27:58.517137462
2025-11-07 12:27:57.605567,-2049,2025-11-07 12:27:58.524829769
2025-11-07 12:27:57.605567,-1,2025-11-07 12:27:58.532522077
2025-11-07 12:27:57.605567,42,2025-11-07 12:27:58.540214385
2025-11-07 12:27:57.605567,23552,2025-11-07 12:27:58.547906692
2025-11-07 12:27:57.605567,0,2025-11-07 12:27:58.555599000
2025-11-07 12:27:57.605567,137,2025-11-07 12:27:58.563291308
2025-11-07 12:27:57.605567,-15360,2025-11-07 12:27:58.570983615
2025-11-07 12:27:57.605567,0,2025-11-07 12:27:58.578675923
2025-11-07 12:27:57.605567,260,2025-11-07 12:27:58.586368231
2025-11-07 12:27:57.605567,13824,2025-11-07 12:27:58.594060538
2025-11-07 12:27:57.605567,1,2025-11-07 12:27:58.601752846
2025-11-07 12:27:57.605567,350,2025-11-07 12:27:58.609445154
2025-11-07 12:27:57.605567,-32256,2025-11-07 12:27:58.617137462
2025-11-07 12:27:57.605567,1,2025-11-07 12:27:58.624829769
2025-11-07 12:27:57.605567,419,2025-11-07 12:27:58.632522077
2025-11-07 12:27:57.605567,-26880,2025-11-07 12:27:58.640214385
2025-11-07 12:27:57.605567,1,2025-11-07 12:27:58.647906692
2025-11-07 12:27:57.605567,317,2025-11-07 12:27:58.655599000
2025-11-07 12:27:57.605567,-18432,2025-11-07 12:27:58.663291308
2025-11-07 12:27:57.605567,0,2025-11-07 12:27:58.670983615
2025-11-07 12:27:57.605567,7,2025-11-07 12:27:58.678675923
2025-11-07 12:27:57.605567,-31488,2025-11-07 12:27:58.686368231
2025-11-07 12:27:57.605567,-1,2025-11-07 12:27:58.694060538
2025-11-07 12:27:57.605567,-23,2025-11-07 12:27:58.701752846
2025-11-07 12:27:57.605567,32767,2025-11-07 12:27:58.709445154
2025-11-07 12:27:57.605567,0,2025-11-07 12:27:58.717137462
2025-11-07 12:27:57.605567,54,2025-11-07 12:27:58.724829769
2025-11-07 12:27:57.605567,-8448,2025-11-07 12:27:58.732522077
2025-11-07 12:27:57.605567,-1,2025-11-07 12:27:58.740214385
2025-11-07 12:27:57.605567,-23,2025-11-07 12:27:58.747906692
2025-11-07 12:27:57.605567,-2049,2025-11-07 12:27:58.755599000
2025-11-07 12:27:57.605567,-1,2025-11-07 12:27:58.763291308
2025-11-07 12:27:57.605567,97,2025-11-07 12:27:58.770983615
2025-11-07 12:27:57.605567,-6144,2025-11-07 12:27:58.778675923
2025-11-07 12:27:57.605567,0,2025-11-07 12:27:58.786368231
2025-11-07 12:27:57.605567,258,2025-11-07 12:27:58.794060538
2025-11-07 12:27:57.605567,17920,2025-11-07 12:27:58.801752846
2025-11-07 12:27:57.605567,1,2025-11-07 12:27:58.809445154
2025-11-07 12:27:57.605567,478,2025-11-07 12:27:58.817137462
2025-11-07 12:27:57.605567,5120,2025-11-07 12:27:58.824829769
2025-11-07 12:27:57.605567,2,2025-11-07 12:27:58.832522077
2025-11-07 12:27:57.605567,528,2025-11-07 12:27:58.840214385
2025-11-07 12:27:57.605567,22784,2025-11-07 12:27:58.847906692
2025-11-07 12:27:57.605567,2,2025-11-07 12:27:58.855599000
2025-11-07 12:27:57.605567,660,2025-11-07 12:27:58.863291308
2025-11-07 12:27:57.605567,-17408,2025-11-07 12:27:58.870983615
2025-11-07 12:27:57.605567,2,2025-11-07 12:27:58.878675923
2025-11-07 12:27:57.605567,805,2025-11-07 12:27:58.886368231
2025-11-07 12:27:57.605567,8704,2025-11-07 12:27:58.894060538
2025-11-07 12:27:57.605567,3,2025-11-07 12:27:58.901752846
2025-11-07 12:27:57.605567,641,2025-11-07 12:27:58.909445154
2025-11-07 12:27:57.605567,32512,2025-11-07 12:27:58.917137462
2025-11-07 12:27:57.605567,2,2025-11-07 12:27:58.924829769
2025-11-07 12:27:57.605567,800,2025-11-07 12:27:58.932522077
2025-11-07 12:27:57.605567,2048,2025-11-07 12:27:58.940214385
2025-11-07 12:27:57.605567,3,2025-11-07 12:27:58.947906692
2025-11-07 12:27:57.605567,710,2025-11-07 12:27:58.955599000
2025-11-07 12:27:57.605567,14336,2025-11-07 12:27:58.963291308
2025-11-07 12:27:57.605567,3,2025-11-07 12:27:58.970983615
2025-11-07 12:27:57.605567,812,2025-11-07 12:27:58.978675923
2025-11-07 12:27:57.605567,-31744,2025-11-07 12:27:58.986368231
2025-11-07 12:27:57.605567,2,2025-11-07 12:27:58.994060538
2025-11-07 12:27:57.605567,660,2025-11-07 12:27:59.001752846
2025-11-07 12:27:57.605567,8704,2025-11-07 12:27:59.009445154
2025-11-07 12:27:57.605567,3,2025-11-07 12:27:59.017137462
2025-11-07 12:27:57.605567,798,2025-11-07 12:27:59.024829769
2025-11-07 12:27:57.605567,-17408,2025-11-07 12:27:59.032522077
2025-11-07 12:27:57.605567,2,2025-11-07 12:27:59.040214385
2025-11-07 12:27:57.605567,715,2025-11-07 12:27:59.047906692
2025-11-07 12:27:57.605567,-5888,2025-11-07 12:27:59.055599000
2025-11-07 12:27:57.605567,2,2025-11-07 12:27:59.063291308
2025-11-07 12:27:57.605567,627,2025-11-07 12:27:59.070983615
2025-11-07 12:27:57.605567,20480,2025-11-07 12:27:59.078675923
2025-11-07 12:27:57.605567,2,2025-11-07 12:27:59.086368231
2025-11-07 12:27:57.605567,686,2025-11-07 12:27:59.094060538
2025-11-07 12:27:57.605567,29440,2025-11-07 12:27:59.101752846
2025-11-07 12:27:57.605567,2,2025-11-07 12:27:59.109445154
2025-11-07 12:27:57.605567,530,2025-11-07 12:27:59.117137462
2025-11-07 12:27:57.605567,8192,2025-11-07 12:27:59.124829769
2025-11-07 12:27:57.605567,2,2025-11-07 12:27:59.132522077
2025-11-07 12:27:57.605567,554,2025-11-07 12:27:59.140214385
2025-11-07 12:27:57.605567,10752,2025-11-07 12:27:59.147906692
2025-11-07 12:27:57.605567,2,2025-11-07 12:27:59.155599000
2025-11-07 12:27:57.605567,528,2025-11-07 12:27:59.163291308
2025-11-07 12:27:57.605567,-18944,2025-11-07 12:27:59.170983615
2025-11-07 12:27:57.605567,1,2025-11-07 12:27:59.178675923
2025-11-07 12:27:57.605567,402,2025-11-07 12:27:59.186368231
2025-11-07 12:27:57.605567,-17920,2025-11-07 12:27:59.194060538
2025-11-07 12:27:57.605567,1,2025-11-07 12:27:59.201752846
2025-11-07 12:27:57.605567,468,2025-11-07 12:27:59.209445154
2025-11-07 12:27:57.605567,-22784,2025-11-07 12:27:59.217137462
2025-11-07 12:27:57.605567,1,2025-11-07 12:27:59.224829769
2025-11-07 12:27:57.605567,314,2025-11-07 12:27:59.232522077
2025-11-07 12:27:57.605567,13824,2025-11-07 12:27:59.240214385
2025-11-07 12:27:57.605567,1,2025-11-07 12:27:59.247906692
2025-11-07 12:27:57.605567,620,2025-11-07 12:27:59.255599000
2025-11-07 12:27:57.605567,18432,2025-11-07 12:27:59.263291308
2025-11-07 12:27:57.605567,4,2025-11-07 12:27:59.270983615
2025-11-07 12:27:57.605567,1314,2025-11-07 12:27:59.278675923
2025-11-07 12:27:57.605567,-13824,2025-11-07 12:27:59.286368231
2025-11-07 12:27:57.605567,3,2025-11-07 12:27:59.294060538
2025-11-07 12:27:57.605567,300,2025-11-07 12:27:59.301752846
2025-11-07 12:27:58.145576,165,2025-11-07 12:27:59.309445154
2025-11-07 12:27:58.145576,13056,2025-11-07 12:27:59.317137462
2025-11-07 12:27:58.145576,2,2025-11-07 12:27:59.324829769
2025-11-07 12:27:58.145576,594,2025-11-07 12:27:59.332522077
2025-11-07 12:27:58.145576,-30464,2025-11-07 12:27:59.340214385
2025-11-07 12:27:58.145576,1,2025-11-07 12:27:59.347906692
2025-11-07 12:27:58.145576,419,2025-11-07 12:27:59.355599000
2025-11-07 12:27:58.145576,-13056,2025-11-07 12:27:59.363291308
2025-11-07 12:27:58.145576,1,2025-11-07 12:27:59.370983615
2025-11-07 12:27:58.145576,426,2025-11-07 12:27:59.378675923
2025-11-07 12:27:58.145576,-13568,2025-11-07 12:27:59.386368231
2025-11-07 12:27:58.145576,1,2025-11-07 12:27:59.394060538
2025-11-07 12:27:58.145576,513,2025-11-07 12:27:59.401752846
2025-11-07 12:27:58.145576,-6912,2025-11-07 12:27:59.409445154
2025-11-07 12:27:58.145576,1,2025-11-07 12:27:59.417137462
2025-11-07 12:27:58.145576,449,2025-11-07 12:27:59.424829769
2025-11-07 12:27:58.145576,-20736,2025-11-07 12:27:59.432522077
2025-11-07 12:27:58.145576,1,2025-11-07 12:27:59.440214385
2025-11-07 12:27:58.145576,378,2025-11-07 12:27:59.447906692
2025-11-07 12:27:58.145576,20480,2025-11-07 12:27:59.455599000
2025-11-07 12:27:58.145576,1,2025-11-07 12:27:59.463291308
2025-11-07 12:27:58.145576,324,2025-11-07 12:27:59.470983615
2025-11-07 12:27:58.145576,12544,2025-11-07 12:27:59.478675923
2025-11-07 12:27:58.145576,1,2025-11-07 12:27:59.486368230
2025-11-07 12:27:58.145576,291,2025-11-07 12:27:59.494060538
2025-11-07 12:27:58.145576,6400,2025-11-07 12:27:59.501752846
2025-11-07 12:27:58.145576,1,2025-11-07 12:27:59.509445154
2025-11-07 12:27:58.145576,272,2025-11-07 12:27:59.517137462
2025-11-07 12:27:58.145576,5376,2025-11-07 12:27:59.524829769
2025-11-07 12:27:58.145576,1,2025-11-07 12:27:59.532522077
2025-11-07 12:27:58.145576,298,2025-11-07 12:27:59.540214385
2025-11-07 12:27:58.145576,19712,2025-11-07 12:27:59.547906692
2025-11-07 12:27:58.145576,1,2025-11-07 12:27:59.555599000
2025-11-07 12:27:58.145576,386,2025-11-07 12:27:59.563291308
2025-11-07 12:27:58.145576,-16640,2025-11-07 12:27:59.570983615
2025-11-07 12:27:58.145576,1,2025-11-07 12:27:59.578675923
2025-11-07 12:27:58.145576,513,2025-11-07 12:27:59.586368231
2025-11-07 12:27:58.145576,13568,2025-11-07 12:27:59.594060538
2025-11-07 12:27:58.145576,2,2025-11-07 12:27:59.601752846
2025-11-07 12:27:58.145576,584,2025-11-07 12:27:59.609445154
2025-11-07 12:27:58.145576,14848,2025-11-07 12:27:59.617137462
2025-11-07 12:27:58.145576,2,2025-11-07 12:27:59.624829769
2025-11-07 12:27:58.145576,509,2025-11-07 12:27:59.632522077
2025-11-07 12:27:58.145576,32000,2025-11-07 12:27:59.640214385
2025-11-07 12:27:58.145576,1,2025-11-07 12:27:59.647906692
2025-11-07 12:27:58.145576,224,2025-11-07 12:27:59.655599000
2025-11-07 12:27:58.145576,20992,2025-11-07 12:27:59.663291308
2025-11-07 12:27:58.145576,0,2025-11-07 12:27:59.670983615
2025-11-07 12:27:58.145576,-42,2025-11-07 12:27:59.678675923
2025-11-07 12:27:58.145576,26623,2025-11-07 12:27:59.686368231
2025-11-07 12:27:58.145576,-1,2025-11-07 12:27:59.694060538
2025-11-07 12:27:58.145576,-229,2025-11-07 12:27:59.701752846
2025-11-07 12:27:58.145576,-3073,2025-11-07 12:27:59.709445154
2025-11-07 12:27:58.145576,-2,2025-11-07 12:27:59.717137462
2025-11-07 12:27:58.145576,-293,2025-11-07 12:27:59.724829769
2025-11-07 12:27:58.145576,-11009,2025-11-07 12:27:59.732522077
2025-11-07 12:27:58.145576,-2,2025-11-07 12:27:59.740214385
2025-11-07 12:27:58.145576,-310,2025-11-07 12:27:59.747906692
2025-11-07 12:27:58.145576,-23809,2025-11-07 12:27:59.755599000
2025-11-07 12:27:58.145576,-2,2025-11-07 12:27:59.763291308
2025-11-07 12:27:58.145576,-386,2025-11-07 12:27:59.770983615
2025-11-07 12:27:58.145576,30207,2025-11-07 12:27:59.778675923
2025-11-07 12:27:58.145576,-2,2025-11-07 12:27:59.786368231
2025-11-07 12:27:58.145576,-407,2025-11-07 12:27:59.794060538
2025-11-07 12:27:58.145576,22271,2025-11-07 12:27:59.801752846
2025-11-07 12:27:58.145576,-2,2025-11-07 12:27:59.809445154
2025-11-07 12:27:58.145576,-428,2025-11-07 12:27:59.817137462
2025-11-07 12:27:58.145576,23039,2025-11-07 12:27:59.824829769
2025-11-07 12:27:58.145576,-2,2025-11-07 12:27:59.832522077
2025-11-07 12:27:58.145576,-421,2025-11-07 12:27:59.840214385
2025-11-07 12:27:58.145576,26623,2025-11-07 12:27:59.847906692
2025-11-07 12:27:58.145576,-2,2025-11-07 12:27:59.855599000
2025-11-07 12:27:58.145576,-393,2025-11-07 12:27:59.863291308
2025-11-07 12:27:58.145576,-30977,2025-11-07 12:27:59.870983615
2025-11-07 12:27:58.145576,-2,2025-11-07 12:27:59.878675923
2025-11-07 12:27:58.145576,-359,2025-11-07 12:27:59.886368231
2025-11-07 12:27:58.145576,-20737,2025-11-07 12:27:59.894060538
2025-11-07 12:27:58.145576,-2,2025-11-07 12:27:59.901752846
2025-11-07 12:27:58.145576,-317,2025-11-07 12:27:59.909445154
2025-11-07 12:27:58.145576,-10497,2025-11-07 12:27:59.917137462
2025-11-07 12:27:58.145576,-2,2025-11-07 12:27:59.924829769
2025-11-07 12:27:58.145576,-286,2025-11-07 12:27:59.932522077
2025-11-07 12:27:58.145576,-3841,2025-11-07 12:27:59.940214385
2025-11-07 12:27:58.145576,-2,2025-11-07 12:27:59.947906692
2025-11-07 12:27:58.145576,-253,2025-11-07 12:27:59.955599000
2025-11-07 12:27:58.145576,5375,2025-11-07 12:27:59.963291308
2025-11-07 12:27:58.145576,-1,2025-11-07 12:27:59.970983615
2025-11-07 12:27:58.145576,-224,2025-11-07 12:27:59.978675923
2025-11-07 12:27:58.145576,10239,2025-11-07 12:27:59.986368231
2025-11-07 12:27:58.145576,-1,2025-11-07 12:27:59.994060538
2025-11-07 12:27:58.145576,-222,2025-11-07 12:28:00.001752846
2025-11-07 12:27:58.145576,6399,2025-11-07 12:28:00.009445154
2025-11-07 12:27:58.145576,-1,2025-11-07 12:28:00.017137462
2025-11-07 12:27:58.145576,-234,2025-11-07 12:28:00.024829769
2025-11-07 12:27:58.145576,4095,2025-11-07 12:28:00.032522077
2025-11-07 12:27:58.145576,-1,2025-11-07 12:28:00.040214385
2025-11-07 12:27:58.145576,-253,2025-11-07 12:28:00.047906692
2025-11-07 12:27:58.145576,4095,2025-11-07 12:28:00.055599000
2025-11-07 12:27:58.145576,-1,2025-11-07 12:28:00.063291308
2025-11-07 12:27:58.145576,-210,2025-11-07 12:28:00.070983615
2025-11-07 12:27:58.145576,16895,2025-11-07 12:28:00.078675923
2025-11-07 12:27:58.145576,-1,2025-11-07 12:28:00.086368231
2025-11-07 12:27:58.145576,-175,2025-11-07 12:28:00.094060538
2025-11-07 12:27:58.145576,27647,2025-11-07 12:28:00.101752846
2025-11-07 12:27:58.145576,-1,2025-11-07 12:28:00.109445154
2025-11-07 12:27:58.145576,-142,2025-11-07 12:28:00.117137462
2025-11-07 12:27:58.145576,26623,2025-11-07 12:28:00.124829769
2025-11-07 12:27:58.145576,-1,2025-11-07 12:28:00.132522077
2025-11-07 12:27:58.145576,-161,2025-11-07 12:28:00.140214385
2025-11-07 12:27:58.715565,-163,2025-11-07 12:28:00.147906692
2025-11-07 12:27:58.715565,23551,2025-11-07 12:28:00.155599000
2025-11-07 12:27:58.715565,-1,2025-11-07 12:28:00.163291308
2025-11-07 12:27:58.715565,-184,2025-11-07 12:28:00.170983615
2025-11-07 12:27:58.715565,4095,2025-11-07 12:28:00.178675923
2025-11-07 12:27:58.715565,-1,2025-11-07 12:28:00.186368231
2025-11-07 12:27:58.715565,-251,2025-11-07 12:28:00.194060538
2025-11-07 12:27:58.715565,-769,2025-11-07 12:28:00.201752846
2025-11-07 12:27:58.715565,-1,2025-11-07 12:28:00.209445154
2025-11-07 12:27:58.715565,442,2025-11-07 12:28:00.217137462
2025-11-07 12:27:58.715565,-9472,2025-11-07 12:28:00.224829769
2025-11-07 12:27:58.715565,2,2025-11-07 12:28:00.232522077
2025-11-07 12:27:58.715565,542,2025-11-07 12:28:00.240214385
2025-11-07 12:27:58.715565,-25856,2025-11-07 12:28:00.247906692
2025-11-07 12:27:58.715565,-1,2025-11-07 12:28:00.255599000
2025-11-07 12:27:58.715565,-390,2025-11-07 12:28:00.263291308
2025-11-07 12:27:58.715565,3071,2025-11-07 12:28:00.270983615
2025-11-07 12:27:58.715565,0,2025-11-07 12:28:00.278675923
2025-11-07 12:27:58.715565,156,2025-11-07 12:28:00.286368231
2025-11-07 12:27:58.715565,-23552,2025-11-07 12:28:00.294060538
2025-11-07 12:27:58.715565,-1,2025-11-07 12:28:00.301752846
2025-11-07 12:27:58.715565,-99,2025-11-07 12:28:00.309445154
2025-11-07 12:27:58.715565,-4353,2025-11-07 12:28:00.317137462
2025-11-07 12:27:58.715565,-1,2025-11-07 12:28:00.324829769
2025-11-07 12:27:58.715565,-66,2025-11-07 12:28:00.332522077
2025-11-07 12:27:58.715565,-19713,2025-11-07 12:28:00.340214385
2025-11-07 12:27:58.715565,-1,2025-11-07 12:28:00.347906692
2025-11-07 12:27:58.715565,-40,2025-11-07 12:28:00.355599000
2025-11-07 12:27:58.715565,-8705,2025-11-07 12:28:00.363291308
2025-11-07 12:27:58.715565,-1,2025-11-07 12:28:00.370983615
2025-11-07 12:27:58.715565,-40,2025-11-07 12:28:00.378675923
2025-11-07 12:27:58.715565,-3841,2025-11-07 12:28:00.386368231
2025-11-07 12:27:58.715565,-1,2025-11-07 12:28:00.394060538
2025-11-07 12:27:58.715565,2,2025-11-07 12:28:00.401752846
2025-11-07 12:27:58.715565,3584,2025-11-07 12:28:00.409445154
2025-11-07 12:27:58.715565,0,2025-11-07 12:28:00.417137462
2025-11-07 12:27:58.715565,37,2025-11-07 12:28:00.424829769
2025-11-07 12:27:58.715565,15616,2025-11-07 12:28:00.432522077
2025-11-07 12:27:58.715565,0,2025-11-07 12:28:00.440214385
2025-11-07 12:27:58.715565,80,2025-11-07 12:28:00.447906692
2025-11-07 12:27:58.715565,27648,2025-11-07 12:28:00.455599000
2025-11-07 12:27:58.715565,0,2025-11-07 12:28:00.463291308
2025-11-07 12:27:58.715565,142,2025-11-07 12:28:00.470983615
2025-11-07 12:27:58.715565,-20736,2025-11-07 12:28:00.478675923
2025-11-07 12:27:58.715565,0,2025-11-07 12:28:00.486368230
2025-11-07 12:27:58.715565,213,2025-11-07 12:28:00.494060538
2025-11-07 12:27:58.715565,1024,2025-11-07 12:28:00.501752846
2025-11-07 12:27:58.715565,1,2025-11-07 12:28:00.509445154
2025-11-07 12:27:58.715565,300,2025-11-07 12:28:00.517137462
2025-11-07 12:27:58.715565,19200,2025-11-07 12:28:00.524829769
2025-11-07 12:27:58.715565,1,2025-11-07 12:28:00.532522077
2025-11-07 12:27:58.715565,367,2025-11-07 12:28:00.540214385
2025-11-07 12:27:58.715565,-28672,2025-11-07 12:28:00.547906692
2025-11-07 12:27:58.715565,1,2025-11-07 12:28:00.555599000
2025-11-07 12:27:58.715565,416,2025-11-07 12:28:00.563291308
2025-11-07 12:27:58.715565,-28672,2025-11-07 12:28:00.570983615
2025-11-07 12:27:58.715565,1,2025-11-07 12:28:00.578675923
2025-11-07 12:27:58.715565,338,2025-11-07 12:28:00.586368231
2025-11-07 12:27:58.715565,-2048,2025-11-07 12:28:00.594060538
2025-11-07 12:27:58.715565,0,2025-11-07 12:28:00.601752846
2025-11-07 12:27:58.715565,137,2025-11-07 12:28:00.609445154
2025-11-07 12:27:58.715565,1792,2025-11-07 12:28:00.617137462
2025-11-07 12:27:58.715565,0,2025-11-07 12:28:00.624829769
2025-11-07 12:27:58.715565,-108,2025-11-07 12:28:00.632522077
2025-11-07 12:27:58.715565,17919,2025-11-07 12:28:00.640214385
2025-11-07 12:27:58.715565,-1,2025-11-07 12:28:00.647906692
2025-11-07 12:27:58.715565,-229,2025-11-07 12:28:00.655599000
2025-11-07 12:27:58.715565,1535,2025-11-07 12:28:00.663291308
2025-11-07 12:27:58.715565,-1,2025-11-07 12:28:00.670983615
2025-11-07 12:27:58.715565,-269,2025-11-07 12:28:00.678675923
2025-11-07 12:27:58.715565,-2561,2025-11-07 12:28:00.686368231
2025-11-07 12:27:58.715565,-2,2025-11-07 12:28:00.694060538
2025-11-07 12:27:58.715565,-255,2025-11-07 12:28:00.701752846
2025-11-07 12:27:58.715565,2303,2025-11-07 12:28:00.709445154
2025-11-07 12:27:58.715565,-1,2025-11-07 12:28:00.717137462
2025-11-07 12:27:58.715565,-241,2025-11-07 12:28:00.724829769
2025-11-07 12:27:58.715565,7167,2025-11-07 12:28:00.732522077
2025-11-07 12:27:58.715565,-1,2025-11-07 12:28:00.740214385
2025-11-07 12:27:58.715565,-210,2025-11-07 12:28:00.747906692
2025-11-07 12:27:58.715565,16127,2025-11-07 12:28:00.755599000
2025-11-07 12:27:58.715565,-1,2025-11-07 12:28:00.763291308
2025-11-07 12:27:58.715565,-189,2025-11-07 12:28:00.770983615
2025-11-07 12:27:58.715565,19967,2025-11-07 12:28:00.778675923
2025-11-07 12:27:58.715565,-1,2025-11-07 12:28:00.786368231
2025-11-07 12:27:58.715565,-170,2025-11-07 12:28:00.794060538
2025-11-07 12:27:58.715565,23551,2025-11-07 12:28:00.801752846
2025-11-07 12:27:58.715565,-1,2025-11-07 12:28:00.809445154
2025-11-07 12:27:58.715565,-153,2025-11-07 12:28:00.817137462
2025-11-07 12:27:58.715565,30207,2025-11-07 12:28:00.824829769
2025-11-07 12:27:58.715565,-1,2025-11-07 12:28:00.832522077
2025-11-07 12:27:58.715565,-134,2025-11-07 12:28:00.840214385
2025-11-07 12:27:58.715565,32511,2025-11-07 12:28:00.847906692
2025-11-07 12:27:58.715565,-1,2025-11-07 12:28:00.855599000
2025-11-07 12:27:58.715565,-120,2025-11-07 12:28:00.863291308
2025-11-07 12:27:58.715565,-28161,2025-11-07 12:28:00.870983615
2025-11-07 12:27:58.715565,-1,2025-11-07 12:28:00.878675923
2025-11-07 12:27:58.715565,-108,2025-11-07 12:28:00.886368231
2025-11-07 12:27:58.715565,-28161,2025-11-07 12:28:00.894060538
2025-11-07 12:27:58.715565,-1,2025-11-07 12:28:00.901752846
2025-11-07 12:27:58.715565,-106,2025-11-07 12:28:00.909445154
2025-11-07 12:27:58.715565,-23297,2025-11-07 12:28:00.917137462
2025-11-07 12:27:58.715565,-1,2025-11-07 12:28:00.924829769
2025-11-07 12:27:58.715565,-82,2025-11-07 12:28:00.932522077
2025-11-07 12:27:58.715565,-20737,2025-11-07 12:28:00.940214385
2025-11-07 12:27:58.715565,-1,2025-11-07 12:28:00.947906692
2025-11-07 12:27:58.715565,-85,2025-11-07 12:28:00.955599000
2025-11-07 12:27:58.715565,-23297,2025-11-07 12:28:00.963291308
2025-11-07 12:27:58.715565,-1,2025-11-07 12:28:00.970983615
2025-11-07 12:27:58.715565,-104,2025-11-07 12:28:00.978675923
2025-11-07 12:27:59.315600,-111,2025-11-07 12:28:00.986368231
2025-11-07 12:27:59.315600,-26881,2025-11-07 12:28:00.994060538
2025-11-07 12:27:59.315600,-1,2025-11-07 12:28:01.001752846
2025-11-07 12:27:59.315600,-87,2025-11-07 12:28:01.009445154
2025-11-07 12:27:59.315600,-13569,2025-11-07 12:28:01.017137462
2025-11-07 12:27:59.315600,-1,2025-11-07 12:28:01.024829769
2025-11-07 12:27:59.315600,-40,2025-11-07 12:28:01.032522077
2025-11-07 12:27:59.315600,-6913,2025-11-07 12:28:01.040214385
2025-11-07 12:27:59.315600,-1,2025-11-07 12:28:01.047906692
2025-11-07 12:27:59.315600,7,2025-11-07 12:28:01.055599000
2025-11-07 12:27:59.315600,4608,2025-11-07 12:28:01.063291308
2025-11-07 12:27:59.315600,0,2025-11-07 12:28:01.070983615
2025-11-07 12:27:59.315600,-9,2025-11-07 12:28:01.078675923
2025-11-07 12:27:59.315600,-3841,2025-11-07 12:28:01.086368231
2025-11-07 12:27:59.315600,-1,2025-11-07 12:28:01.094060538
2025-11-07 12:27:59.315600,-9,2025-11-07 12:28:01.101752846
2025-11-07 12:27:59.315600,-3841,2025-11-07 12:28:01.109445154
2025-11-07 12:27:59.315600,-1,2025-11-07 12:28:01.117137462
2025-11-07 12:27:59.315600,-54,2025-11-07 12:28:01.124829769
2025-11-07 12:27:59.315600,-32257,2025-11-07 12:28:01.132522077
2025-11-07 12:27:59.315600,-1,2025-11-07 12:28:01.140214385
2025-11-07 12:27:59.315600,-73,2025-11-07 12:28:01.147906692
2025-11-07 12:27:59.315600,4863,2025-11-07 12:28:01.155599000
2025-11-07 12:27:59.315600,1,2025-11-07 12:28:01.163291308
2025-11-07 12:27:59.315600,705,2025-11-07 12:28:01.170983615
2025-11-07 12:27:59.315600,24576,2025-11-07 12:28:01.178675923
2025-11-07 12:27:59.315600,3,2025-11-07 12:28:01.186368231
2025-11-07 12:27:59.315600,492,2025-11-07 12:28:01.194060538
2025-11-07 12:27:59.315600,-30720,2025-11-07 12:28:01.201752846
2025-11-07 12:27:59.315600,-1,2025-11-07 12:28:01.209445154
2025-11-07 12:27:59.315600,-123,2025-11-07 12:28:01.217137462
2025-11-07 12:27:59.315600,-3073,2025-11-07 12:28:01.224829769
2025-11-07 12:27:59.315600,0,2025-11-07 12:28:01.232522077
2025-11-07 12:27:59.315600,158,2025-11-07 12:28:01.240214385
2025-11-07 12:27:59.315600,-9472,2025-11-07 12:28:01.247906692
2025-11-07 12:27:59.315600,-1,2025-11-07 12:28:01.255599000
2025-11-07 12:27:59.315600,33,2025-11-07 12:28:01.263291308
2025-11-07 12:27:59.315600,15104,2025-11-07 12:28:01.270983615
2025-11-07 12:27:59.315600,0,2025-11-07 12:28:01.278675923
2025-11-07 12:27:59.315600,-2,2025-11-07 12:28:01.286368231
2025-11-07 12:27:59.315600,3071,2025-11-07 12:28:01.294060538
2025-11-07 12:27:59.315600,0,2025-11-07 12:28:01.301752846
2025-11-07 12:27:59.315600,49,2025-11-07 12:28:01.309445154
2025-11-07 12:27:59.315600,13312,2025-11-07 12:28:01.317137462
2025-11-07 12:27:59.315600,0,2025-11-07 12:28:01.324829769
2025-11-07 12:27:59.315600,56,2025-11-07 12:28:01.332522077
2025-11-07 12:27:59.315600,20480,2025-11-07 12:28:01.340214385
2025-11-07 12:27:59.315600,0,2025-11-07 12:28:01.347906692
2025-11-07 12:27:59.315600,99,2025-11-07 12:28:01.355599000
2025-11-07 12:27:59.315600,27136,2025-11-07 12:28:01.363291308
2025-11-07 12:27:59.315600,0,2025-11-07 12:28:01.370983615
2025-11-07 12:27:59.315600,123,2025-11-07 12:28:01.378675923
2025-11-07 12:27:59.315600,-27392,2025-11-07 12:28:01.386368231
2025-11-07 12:27:59.315600,0,2025-11-07 12:28:01.394060538
2025-11-07 12:27:59.315600,172,2025-11-07 12:28:01.401752846
2025-11-07 12:27:59.315600,-13568,2025-11-07 12:28:01.409445154
2025-11-07 12:27:59.315600,0,2025-11-07 12:28:01.417137462
2025-11-07 12:27:59.315600,236,2025-11-07 12:28:01.424829769
2025-11-07 12:27:59.315600,4608,2025-11-07 12:28:01.432522077
2025-11-07 12:27:59.315600,1,2025-11-07 12:28:01.440214385
2025-11-07 12:27:59.315600,319,2025-11-07 12:28:01.447906692
2025-11-07 12:27:59.315600,27648,2025-11-07 12:28:01.455599000
2025-11-07 12:27:59.315600,1,2025-11-07 12:28:01.463291308
2025-11-07 12:27:59.315600,402,2025-11-07 12:28:01.470983615
2025-11-07 12:27:59.315600,-18944,2025-11-07 12:28:01.478675923
2025-11-07 12:27:59.315600,1,2025-11-07 12:28:01.486368230
2025-11-07 12:27:59.315600,476,2025-11-07 12:28:01.494060538
2025-11-07 12:27:59.315600,-2048,2025-11-07 12:28:01.501752846
2025-11-07 12:27:59.315600,1,2025-11-07 12:28:01.509445154
2025-11-07 12:27:59.315600,506,2025-11-07 12:28:01.517137462
2025-11-07 12:27:59.315600,-11776,2025-11-07 12:28:01.524829769
2025-11-07 12:27:59.315600,1,2025-11-07 12:28:01.532522077
2025-11-07 12:27:59.315600,393,2025-11-07 12:28:01.540214385
2025-11-07 12:27:59.315600,8960,2025-11-07 12:28:01.547906692
2025-11-07 12:27:59.315600,1,2025-11-07 12:28:01.555599000
2025-11-07 12:27:59.315600,168,2025-11-07 12:28:01.563291308
2025-11-07 12:27:59.315600,11264,2025-11-07 12:28:01.570983615
2025-11-07 12:27:59.315600,0,2025-11-07 12:28:01.578675923
2025-11-07 12:27:59.315600,-52,2025-11-07 12:28:01.586368231
2025-11-07 12:27:59.315600,-28161,2025-11-07 12:28:01.594060538
2025-11-07 12:27:59.315600,-1,2025-11-07 12:28:01.601752846
2025-11-07 12:27:59.315600,-139,2025-11-07 12:28:01.609445154
2025-11-07 12:27:59.315600,24575,2025-11-07 12:28:01.617137462
2025-11-07 12:27:59.315600,-1,2025-11-07 12:28:01.624829769
2025-11-07 12:27:59.315600,-165,2025-11-07 12:28:01.632522077
2025-11-07 12:27:59.315600,28927,2025-11-07 12:28:01.640214385
2025-11-07 12:27:59.315600,-1,2025-11-07 12:28:01.647906692
2025-11-07 12:27:59.315600,-134,2025-11-07 12:28:01.655599000
2025-11-07 12:27:59.315600,26623,2025-11-07 12:28:01.663291308
2025-11-07 12:27:59.315600,-1,2025-11-07 12:28:01.670983615
2025-11-07 12:27:59.315600,-144,2025-11-07 12:28:01.678675923
2025-11-07 12:27:59.315600,-23809,2025-11-07 12:28:01.686368231
2025-11-07 12:27:59.315600,-1,2025-11-07 12:28:01.694060538
2025-11-07 12:27:59.315600,-89,2025-11-07 12:28:01.701752846
2025-11-07 12:27:59.315600,-27393,2025-11-07 12:28:01.709445154
2025-11-07 12:27:59.315600,-1,2025-11-07 12:28:01.717137462
2025-11-07 12:27:59.315600,-75,2025-11-07 12:28:01.724829769
2025-11-07 12:27:59.315600,-13057,2025-11-07 12:28:01.732522077
2025-11-07 12:27:59.315600,-1,2025-11-07 12:28:01.740214385
2025-11-07 12:27:59.315600,-68,2025-11-07 12:28:01.747906692
2025-11-07 12:27:59.315600,-13057,2025-11-07 12:28:01.755599000
2025-11-07 12:27:59.315600,-1,2025-11-07 12:28:01.763291308
2025-11-07 12:27:59.315600,-23,2025-11-07 12:28:01.770983615
2025-11-07 12:27:59.315600,-4353,2025-11-07 12:28:01.778675923
2025-11-07 12:27:59.315600,-1,2025-11-07 12:28:01.786368231
2025-11-07 12:27:59.315600,-9,2025-11-07 12:28:01.794060538
2025-11-07 12:27:59.315600,3839,2025-11-07 12:28:01.801752846
2025-11-07 12:27:59.315600,0,2025-11-07 12:28:01.809445154
2025-11-07 12:27:59.315600,35,2025-11-07 12:28:01.817137462
2025-11-07 12:27:59.855330,49,2025-11-07 12:28:01.824829769
2025-11-07 12:27:59.855330,15616,2025-11-07 12:28:01.832522077
2025-11-07 12:27:59.855330,0,2025-11-07 12:28:01.840214385
2025-11-07 12:27:59.855330,68,2025-11-07 12:28:01.847906692
2025-11-07 12:27:59.855330,20480,2025-11-07 12:28:01.855599000
2025-11-07 12:27:59.855330,0,2025-11-07 12:28:01.863291308
2025-11-07 12:27:59.855330,87,2025-11-07 12:28:01.870983615
2025-11-07 12:27:59.855330,20480,2025-11-07 12:28:01.878675923
2025-11-07 12:27:59.855330,0,2025-11-07 12:28:01.886368231
2025-11-07 12:27:59.855330,89,2025-11-07 12:28:01.894060538
2025-11-07 12:27:59.855330,25856,2025-11-07 12:28:01.901752846
2025-11-07 12:27:59.855330,0,2025-11-07 12:28:01.909445154
2025-11-07 12:27:59.855330,87,2025-11-07 12:28:01.917137462
2025-11-07 12:27:59.855330,22272,2025-11-07 12:28:01.924829769
2025-11-07 12:27:59.855330,0,2025-11-07 12:28:01.932522077
2025-11-07 12:27:59.855330,108,2025-11-07 12:28:01.940214385
2025-11-07 12:27:59.855330,29696,2025-11-07 12:28:01.947906692
2025-11-07 12:27:59.855330,0,2025-11-07 12:28:01.955599000
2025-11-07 12:27:59.855330,123,2025-11-07 12:28:01.963291308
2025-11-07 12:27:59.855330,-31744,2025-11-07 12:28:01.970983615
2025-11-07 12:27:59.855330,0,2025-11-07 12:28:01.978675923
2025-11-07 12:27:59.855330,146,2025-11-07 12:28:01.986368231
2025-11-07 12:27:59.855330,-15360,2025-11-07 12:28:01.994060538
2025-11-07 12:27:59.855330,0,2025-11-07 12:28:02.001752846
2025-11-07 12:27:59.855330,248,2025-11-07 12:28:02.009445154
2025-11-07 12:27:59.855330,4608,2025-11-07 12:28:02.017137462
2025-11-07 12:27:59.855330,1,2025-11-07 12:28:02.024829769
2025-11-07 12:27:59.855330,284,2025-11-07 12:28:02.032522077
2025-11-07 12:27:59.855330,8192,2025-11-07 12:28:02.040214385
2025-11-07 12:27:59.855330,1,2025-11-07 12:28:02.047906692
2025-11-07 12:27:59.855330,303,2025-11-07 12:28:02.055599000
2025-11-07 12:27:59.855330,10752,2025-11-07 12:28:02.063291308
2025-11-07 12:27:59.855330,1,2025-11-07 12:28:02.070983615
2025-11-07 12:27:59.855330,279,2025-11-07 12:28:02.078675923
2025-11-07 12:27:59.855330,6400,2025-11-07 12:28:02.086368231
2025-11-07 12:27:59.855330,1,2025-11-07 12:28:02.094060538
2025-11-07 12:27:59.855330,272,2025-11-07 12:28:02.101752846
2025-11-07 12:27:59.855330,-17152,2025-11-07 12:28:02.109445154
2025-11-07 12:27:59.855330,0,2025-11-07 12:28:02.117137462
2025-11-07 12:27:59.855330,142,2025-11-07 12:28:02.124829769
2025-11-07 12:27:59.855330,21760,2025-11-07 12:28:02.132522077
2025-11-07 12:27:59.855330,1,2025-11-07 12:28:02.140214385
2025-11-07 12:27:59.855330,757,2025-11-07 12:28:02.147906692
2025-11-07 12:27:59.855330,18432,2025-11-07 12:28:02.155599000
2025-11-07 12:27:59.855330,4,2025-11-07 12:28:02.163291308
2025-11-07 12:27:59.855330,989,2025-11-07 12:28:02.170983615
2025-11-07 12:27:59.855330,18688,2025-11-07 12:28:02.178675923
2025-11-07 12:27:59.855330,1,2025-11-07 12:28:02.186368231
2025-11-07 12:27:59.855330,-61,2025-11-07 12:28:02.194060538
2025-11-07 12:27:59.855330,8447,2025-11-07 12:28:02.201752846
2025-11-07 12:27:59.855330,1,2025-11-07 12:28:02.209445154
2025-11-07 12:27:59.855330,464,2025-11-07 12:28:02.217137462
2025-11-07 12:27:59.855330,-7424,2025-11-07 12:28:02.224829769
2025-11-07 12:27:59.855330,0,2025-11-07 12:28:02.232522077
2025-11-07 12:27:59.855330,203,2025-11-07 12:28:02.240214385
2025-11-07 12:27:59.855330,12032,2025-11-07 12:28:02.247906692
2025-11-07 12:27:59.855330,1,2025-11-07 12:28:02.255599000
2025-11-07 12:27:59.855330,253,2025-11-07 12:28:02.263291308
2025-11-07 12:27:59.855330,-10496,2025-11-07 12:28:02.270983615
2025-11-07 12:27:59.855330,0,2025-11-07 12:28:02.278675923
2025-11-07 12:27:59.855330,243,2025-11-07 12:28:02.286368231
2025-11-07 12:27:59.855330,-9216,2025-11-07 12:28:02.294060538
2025-11-07 12:27:59.855330,0,2025-11-07 12:28:02.301752846
2025-11-07 12:27:59.855330,187,2025-11-07 12:28:02.309445154
2025-11-07 12:27:59.855330,-14080,2025-11-07 12:28:02.317137462
2025-11-07 12:27:59.855330,0,2025-11-07 12:28:02.324829769
2025-11-07 12:27:59.855330,215,2025-11-07 12:28:02.332522077
2025-11-07 12:27:59.855330,-10496,2025-11-07 12:28:02.340214385
2025-11-07 12:27:59.855330,0,2025-11-07 12:28:02.347906692
2025-11-07 12:27:59.855330,241,2025-11-07 12:28:02.355599000
2025-11-07 12:27:59.855330,5376,2025-11-07 12:28:02.363291308
2025-11-07 12:27:59.855330,1,2025-11-07 12:28:02.370983615
2025-11-07 12:27:59.855330,298,2025-11-07 12:28:02.378675923
2025-11-07 12:27:59.855330,18688,2025-11-07 12:28:02.386368231
2025-11-07 12:27:59.855330,1,2025-11-07 12:28:02.394060538
2025-11-07 12:27:59.855330,369,2025-11-07 12:28:02.401752846
2025-11-07 12:27:59.855330,-26880,2025-11-07 12:28:02.409445154
2025-11-07 12:27:59.855330,1,2025-11-07 12:28:02.417137462
2025-11-07 12:27:59.855330,442,2025-11-07 12:28:02.424829769
2025-11-07 12:27:59.855330,-8192,2025-11-07 12:28:02.432522077
2025-11-07 12:27:59.855330,1,2025-11-07 12:28:02.440214385
2025-11-07 12:27:59.855330,511,2025-11-07 12:28:02.447906692
2025-11-07 12:27:59.855330,8960,2025-11-07 12:28:02.455599000
2025-11-07 12:27:59.855330,2,2025-11-07 12:28:02.463291308
2025-11-07 12:27:59.855330,584,2025-11-07 12:28:02.470983615
2025-11-07 12:27:59.855330,22272,2025-11-07 12:28:02.478675923
2025-11-07 12:27:59.855330,2,2025-11-07 12:28:02.486368230
2025-11-07 12:27:59.855330,610,2025-11-07 12:28:02.494060538
2025-11-07 12:27:59.855330,24064,2025-11-07 12:28:02.501752846
2025-11-07 12:27:59.855330,2,2025-11-07 12:28:02.509445154
2025-11-07 12:27:59.855330,558,2025-11-07 12:28:02.517137462
2025-11-07 12:27:59.855330,-9216,2025-11-07 12:28:02.524829769
2025-11-07 12:27:59.855330,1,2025-11-07 12:28:02.532522077
2025-11-07 12:27:59.855330,362,2025-11-07 12:28:02.540214385
2025-11-07 12:27:59.855330,-3840,2025-11-07 12:28:02.547906692
2025-11-07 12:27:59.855330,0,2025-11-07 12:28:02.555599000
2025-11-07 12:27:59.855330,132,2025-11-07 12:28:02.563291308
2025-11-07 12:27:59.855330,12544,2025-11-07 12:28:02.570983615
2025-11-07 12:27:59.855330,0,2025-11-07 12:28:02.578675923
2025-11-07 12:27:59.855330,0,2025-11-07 12:28:02.586368231
2025-11-07 12:27:59.855330,-7680,2025-11-07 12:28:02.594060538
2025-11-07 12:27:59.855330,-1,2025-11-07 12:28:02.601752846
2025-11-07 12:27:59.855330,-47,2025-11-07 12:28:02.609445154
2025-11-07 12:27:59.855330,-13569,2025-11-07 12:28:02.617137462
2025-11-07 12:27:59.855330,-1,2025-11-07 12:28:02.624829769
2025-11-07 12:27:59.855330,-56,2025-11-07 12:28:02.632522077
2025-11-07 12:27:59.855330,-14081,2025-11-07 12:28:02.640214385
2025-11-07 12:27:59.855330,-1,2025-11-07 12:28:02.647906692
2025-11-07 12:27:59.855330,-54,2025-11-07 12:28:02.655599000
2025-11-07 12:28:00.425600,-49,2025-11-07 12:28:02.663291308
2025-11-07 12:28:00.425600,-10497,2025-11-07 12:28:02.670983615
2025-11-07 12:28:00.425600,-1,2025-11-07 12:28:02.678675923
2025-11-07 12:28:00.425600,-40,2025-11-07 12:28:02.686368231
2025-11-07 12:28:00.425600,-8705,2025-11-07 12:28:02.694060538
2025-11-07 12:28:00.425600,-1,2025-11-07 12:28:02.701752846
2025-11-07 12:28:00.425600,-30,2025-11-07 12:28:02.709445154
2025-11-07 12:28:00.425600,-6913,2025-11-07 12:28:02.717137462
2025-11-07 12:28:00.425600,-1,2025-11-07 12:28:02.724829769
2025-11-07 12:28:00.425600,-23,2025-11-07 12:28:02.732522077
2025-11-07 12:28:00.425600,-4353,2025-11-07 12:28:02.740214385
2025-11-07 12:28:00.425600,-1,2025-11-07 12:28:02.747906692
2025-11-07 12:28:00.425600,-2,2025-11-07 12:28:02.755599000
2025-11-07 12:28:00.425600,3839,2025-11-07 12:28:02.763291308
2025-11-07 12:28:00.425600,0,2025-11-07 12:28:02.770983615
2025-11-07 12:28:00.425600,9,2025-11-07 12:28:02.778675923
2025-11-07 12:28:00.425600,1792,2025-11-07 12:28:02.786368231
2025-11-07 12:28:00.425600,0,2025-11-07 12:28:02.794060538
2025-11-07 12:28:00.425600,14,2025-11-07 12:28:02.801752846
2025-11-07 12:28:00.425600,4096,2025-11-07 12:28:02.809445154
2025-11-07 12:28:00.425600,0,2025-11-07 12:28:02.817137462
2025-11-07 12:28:00.425600,18,2025-11-07 12:28:02.824829769
2025-11-07 12:28:00.425600,4096,2025-11-07 12:28:02.832522077
2025-11-07 12:28:00.425600,0,2025-11-07 12:28:02.840214385
2025-11-07 12:28:00.425600,21,2025-11-07 12:28:02.847906692
2025-11-07 12:28:00.425600,5376,2025-11-07 12:28:02.855599000
2025-11-07 12:28:00.425600,0,2025-11-07 12:28:02.863291308
2025-11-07 12:28:00.425600,21,2025-11-07 12:28:02.870983615
2025-11-07 12:28:00.425600,5888,2025-11-07 12:28:02.878675923
2025-11-07 12:28:00.425600,0,2025-11-07 12:28:02.886368231
2025-11-07 12:28:00.425600,23,2025-11-07 12:28:02.894060538
2025-11-07 12:28:00.425600,6656,2025-11-07 12:28:02.901752846
2025-11-07 12:28:00.425600,0,2025-11-07 12:28:02.909445154
2025-11-07 12:28:00.425600,28,2025-11-07 12:28:02.917137462
2025-11-07 12:28:00.425600,5888,2025-11-07 12:28:02.924829769
2025-11-07 12:28:00.425600,0,2025-11-07 12:28:02.932522077
2025-11-07 12:28:00.425600,18,2025-11-07 12:28:02.940214385
2025-11-07 12:28:00.425600,2304,2025-11-07 12:28:02.947906692
2025-11-07 12:28:00.425600,0,2025-11-07 12:28:02.955599000
2025-11-07 12:28:00.425600,2,2025-11-07 12:28:02.963291308
2025-11-07 12:28:00.425600,3584,2025-11-07 12:28:02.970983615
2025-11-07 12:28:00.425600,0,2025-11-07 12:28:02.978675923
2025-11-07 12:28:00.425600,47,2025-11-07 12:28:02.986368231
2025-11-07 12:28:00.425600,22272,2025-11-07 12:28:02.994060538
2025-11-07 12:28:00.425600,0,2025-11-07 12:28:03.001752846
2025-11-07 12:28:00.425600,111,2025-11-07 12:28:03.009445154
2025-11-07 12:28:00.425600,-31744,2025-11-07 12:28:03.017137462
2025-11-07 12:28:00.425600,0,2025-11-07 12:28:03.024829769
2025-11-07 12:28:00.425600,151,2025-11-07 12:28:03.032522077
2025-11-07 12:28:00.425600,-29184,2025-11-07 12:28:03.040214385
2025-11-07 12:28:00.425600,0,2025-11-07 12:28:03.047906692
2025-11-07 12:28:00.425600,130,2025-11-07 12:28:03.055599000
2025-11-07 12:28:00.425600,-31744,2025-11-07 12:28:03.063291308
2025-11-07 12:28:00.425600,0,2025-11-07 12:28:03.070983615
2025-11-07 12:28:00.425600,127,2025-11-07 12:28:03.078675923
2025-11-07 12:28:00.425600,27136,2025-11-07 12:28:03.086368231
2025-11-07 12:28:00.425600,0,2025-11-07 12:28:03.094060538
2025-11-07 12:28:00.425600,42,2025-11-07 12:28:03.101752846
2025-11-07 12:28:00.425600,1024,2025-11-07 12:28:03.109445154
2025-11-07 12:28:00.425600,0,2025-11-07 12:28:03.117137462
2025-11-07 12:28:00.425600,187,2025-11-07 12:28:03.124829769
2025-11-07 12:28:00.425600,24576,2025-11-07 12:28:03.132522077
2025-11-07 12:28:00.425600,2,2025-11-07 12:28:03.140214385
2025-11-07 12:28:00.425600,978,2025-11-07 12:28:03.147906692
2025-11-07 12:28:00.425600,-28928,2025-11-07 12:28:03.155599000
2025-11-07 12:28:00.425600,3,2025-11-07 12:28:03.163291308
2025-11-07 12:28:00.425600,262,2025-11-07 12:28:03.170983615
2025-11-07 12:28:00.425600,5632,2025-11-07 12:28:03.178675923
2025-11-07 12:28:00.425600,-1,2025-11-07 12:28:03.186368231
2025-11-07 12:28:00.425600,44,2025-11-07 12:28:03.194060538
2025-11-07 12:28:00.425600,9472,2025-11-07 12:28:03.201752846
2025-11-07 12:28:00.425600,1,2025-11-07 12:28:03.209445154
2025-11-07 12:28:00.425600,75,2025-11-07 12:28:03.217137462
2025-11-07 12:28:00.425600,-1792,2025-11-07 12:28:03.224829769
2025-11-07 12:28:00.425600,-1,2025-11-07 12:28:03.232522077
2025-11-07 12:28:00.425600,78,2025-11-07 12:28:03.240214385
2025-11-07 12:28:00.425600,10752,2025-11-07 12:28:03.247906692
2025-11-07 12:28:00.425600,0,2025-11-07 12:28:03.255599000
2025-11-07 12:28:00.425600,11,2025-11-07 12:28:03.263291308
2025-11-07 12:28:00.425600,10240,2025-11-07 12:28:03.270983615
2025-11-07 12:28:00.425600,0,2025-11-07 12:28:03.278675923
2025-11-07 12:28:00.425600,30,2025-11-07 12:28:03.286368231
2025-11-07 12:28:00.425600,3584,2025-11-07 12:28:03.294060538
2025-11-07 12:28:00.425600,0,2025-11-07 12:28:03.301752846
2025-11-07 12:28:00.425600,26,2025-11-07 12:28:03.309445154
2025-11-07 12:28:00.425600,9472,2025-11-07 12:28:03.317137462
2025-11-07 12:28:00.425600,0,2025-11-07 12:28:03.324829769
2025-11-07 12:28:00.425600,52,2025-11-07 12:28:03.332522077
2025-11-07 12:28:00.425600,18176,2025-11-07 12:28:03.340214385
2025-11-07 12:28:00.425600,0,2025-11-07 12:28:03.347906692
2025-11-07 12:28:00.425600,97,2025-11-07 12:28:03.355599000
2025-11-07 12:28:00.425600,32000,2025-11-07 12:28:03.363291308
2025-11-07 12:28:00.425600,0,2025-11-07 12:28:03.370983615
2025-11-07 12:28:00.425600,149,2025-11-07 12:28:03.378675923
2025-11-07 12:28:00.425600,-20224,2025-11-07 12:28:03.386368231
2025-11-07 12:28:00.425600,0,2025-11-07 12:28:03.394060538
2025-11-07 12:28:00.425600,201,2025-11-07 12:28:03.401752846
2025-11-07 12:28:00.425600,-6144,2025-11-07 12:28:03.409445154
2025-11-07 12:28:00.425600,0,2025-11-07 12:28:03.417137462
2025-11-07 12:28:00.425600,269,2025-11-07 12:28:03.424829769
2025-11-07 12:28:00.425600,10752,2025-11-07 12:28:03.432522077
2025-11-07 12:28:00.425600,1,2025-11-07 12:28:03.440214385
2025-11-07 12:28:00.425600,322,2025-11-07 12:28:03.447906692
2025-11-07 12:28:00.425600,23552,2025-11-07 12:28:03.455599000
2025-11-07 12:28:00.425600,1,2025-11-07 12:28:03.463291308
2025-11-07 12:28:00.425600,371,2025-11-07 12:28:03.470983615
2025-11-07 12:28:00.425600,-31744,2025-11-07 12:28:03.478675923
2025-11-07 12:28:00.425600,1,2025-11-07 12:28:03.486368230
2025-11-07 12:28:00.425600,376,2025-11-07 12:28:03.494060538
2025-11-07 12:28:00.966830,329,2025-11-07 12:28:03.501752846
2025-11-07 12:28:00.966830,-3328,2025-11-07 12:28:03.509445154
2025-11-07 12:28:00.966830,0,2025-11-07 12:28:03.517137462
2025-11-07 12:28:00.966830,118,2025-11-07 12:28:03.524829769
2025-11-07 12:28:00.966830,-1792,2025-11-07 12:28:03.532522077
2025-11-07 12:28:00.966830,-1,2025-11-07 12:28:03.540214385
2025-11-07 12:28:00.966830,-120,2025-11-07 12:28:03.547906692
2025-11-07 12:28:00.966830,12543,2025-11-07 12:28:03.555599000
2025-11-07 12:28:00.966830,-1,2025-11-07 12:28:03.563291308
2025-11-07 12:28:00.966830,-262,2025-11-07 12:28:03.570983615
2025-11-07 12:28:00.966830,-11009,2025-11-07 12:28:03.578675923
2025-11-07 12:28:00.966830,-2,2025-11-07 12:28:03.586368231
2025-11-07 12:28:00.966830,-322,2025-11-07 12:28:03.594060538
2025-11-07 12:28:00.966830,-15873,2025-11-07 12:28:03.601752846
2025-11-07 12:28:00.966830,-2,2025-11-07 12:28:03.609445154
2025-11-07 12:28:00.966830,-307,2025-11-07 12:28:03.617137462
2025-11-07 12:28:00.966830,-9985,2025-11-07 12:28:03.624829769
2025-11-07 12:28:00.966830,-2,2025-11-07 12:28:03.632522077
2025-11-07 12:28:00.966830,-298,2025-11-07 12:28:03.640214385
2025-11-07 12:28:00.966830,-7937,2025-11-07 12:28:03.647906692
2025-11-07 12:28:00.966830,-2,2025-11-07 12:28:03.655599000
2025-11-07 12:28:00.966830,-272,2025-11-07 12:28:03.663291308
2025-11-07 12:28:00.966830,-2561,2025-11-07 12:28:03.670983615
2025-11-07 12:28:00.966830,-2,2025-11-07 12:28:03.678675923
2025-11-07 12:28:00.966830,-260,2025-11-07 12:28:03.686368231
2025-11-07 12:28:00.966830,2815,2025-11-07 12:28:03.694060538
2025-11-07 12:28:00.966830,-1,2025-11-07 12:28:03.701752846
2025-11-07 12:28:00.966830,-234,2025-11-07 12:28:03.709445154
2025-11-07 12:28:00.966830,8959,2025-11-07 12:28:03.717137462
2025-11-07 12:28:00.966830,-1,2025-11-07 12:28:03.724829769
2025-11-07 12:28:00.966830,-215,2025-11-07 12:28:03.732522077
2025-11-07 12:28:00.966830,13823,2025-11-07 12:28:03.740214385
2025-11-07 12:28:00.966830,-1,2025-11-07 12:28:03.747906692
2025-11-07 12:28:00.966830,-198,2025-11-07 12:28:03.755599000
2025-11-07 12:28:00.966830,15615,2025-11-07 12:28:03.763291308
2025-11-07 12:28:00.966830,-1,2025-11-07 12:28:03.770983615
2025-11-07 12:28:00.966830,-184,2025-11-07 12:28:03.778675923
2025-11-07 12:28:00.966830,18687,2025-11-07 12:28:03.786368231
2025-11-07 12:28:00.966830,-1,2025-11-07 12:28:03.794060538
2025-11-07 12:28:00.966830,-187,2025-11-07 12:28:03.801752846
2025-11-07 12:28:00.966830,18687,2025-11-07 12:28:03.809445154
2025-11-07 12:28:00.966830,-1,2025-11-07 12:28:03.817137462
2025-11-07 12:28:00.966830,-184,2025-11-07 12:28:03.824829769
2025-11-07 12:28:00.966830,19967,2025-11-07 12:28:03.832522077
2025-11-07 12:28:00.966830,-1,2025-11-07 12:28:03.840214385
2025-11-07 12:28:00.966830,-177,2025-11-07 12:28:03.847906692
2025-11-07 12:28:00.966830,21759,2025-11-07 12:28:03.855599000
2025-11-07 12:28:00.966830,-1,2025-11-07 12:28:03.863291308
2025-11-07 12:28:00.966830,-161,2025-11-07 12:28:03.870983615
2025-11-07 12:28:00.966830,25343,2025-11-07 12:28:03.878675923
2025-11-07 12:28:00.966830,-1,2025-11-07 12:28:03.886368231
2025-11-07 12:28:00.966830,-153,2025-11-07 12:28:03.894060538
2025-11-07 12:28:00.966830,27647,2025-11-07 12:28:03.901752846
2025-11-07 12:28:00.966830,-1,2025-11-07 12:28:03.909445154
2025-11-07 12:28:00.966830,-146,2025-11-07 12:28:03.917137462
2025-11-07 12:28:00.966830,29439,2025-11-07 12:28:03.924829769
2025-11-07 12:28:00.966830,-1,2025-11-07 12:28:03.932522077
2025-11-07 12:28:00.966830,-149,2025-11-07 12:28:03.940214385
2025-11-07 12:28:00.966830,24575,2025-11-07 12:28:03.947906692
2025-11-07 12:28:00.966830,-1,2025-11-07 12:28:03.955599000
2025-11-07 12:28:00.966830,-163,2025-11-07 12:28:03.963291308
2025-11-07 12:28:00.966830,24575,2025-11-07 12:28:03.970983615
2025-11-07 12:28:00.966830,-1,2025-11-07 12:28:03.978675923
2025-11-07 12:28:00.966830,-139,2025-11-07 12:28:03.986368231
2025-11-07 12:28:00.966830,-27393,2025-11-07 12:28:03.994060538
2025-11-07 12:28:00.966830,-1,2025-11-07 12:28:04.001752846
2025-11-07 12:28:00.966830,-89,2025-11-07 12:28:04.009445154
2025-11-07 12:28:00.966830,-17153,2025-11-07 12:28:04.017137462
2025-11-07 12:28:00.966830,-1,2025-11-07 12:28:04.024829769
2025-11-07 12:28:00.966830,-49,2025-11-07 12:28:04.032522077
2025-11-07 12:28:00.966830,-11777,2025-11-07 12:28:04.040214385
2025-11-07 12:28:00.966830,-1,2025-11-07 12:28:04.047906692
2025-11-07 12:28:00.966830,-66,2025-11-07 12:28:04.055599000
2025-11-07 12:28:00.966830,-20225,2025-11-07 12:28:04.063291308
2025-11-07 12:28:00.966830,-1,2025-11-07 12:28:04.070983615
2025-11-07 12:28:00.966830,-71,2025-11-07 12:28:04.078675923
2025-11-07 12:28:00.966830,-15873,2025-11-07 12:28:04.086368231
2025-11-07 12:28:00.966830,-1,2025-11-07 12:28:04.094060538
2025-11-07 12:28:00.966830,-97,2025-11-07 12:28:04.101752846
2025-11-07 12:28:00.966830,24063,2025-11-07 12:28:04.109445154
2025-11-07 12:28:00.966830,-1,2025-11-07 12:28:04.117137462
2025-11-07 12:28:00.966830,-99,2025-11-07 12:28:04.124829769
2025-11-07 12:28:00.966830,-1793,2025-11-07 12:28:04.132522077
2025-11-07 12:28:00.966830,0,2025-11-07 12:28:04.140214385
2025-11-07 12:28:00.966830,686,2025-11-07 12:28:04.147906692
2025-11-07 12:28:00.966830,24064,2025-11-07 12:28:04.155599000
2025-11-07 12:28:00.966830,3,2025-11-07 12:28:04.163291308
2025-11-07 12:28:00.966830,483,2025-11-07 12:28:04.170983615
2025-11-07 12:28:00.966830,20736,2025-11-07 12:28:04.178675923
2025-11-07 12:28:00.966830,-1,2025-11-07 12:28:04.186368231
2025-11-07 12:28:00.966830,-196,2025-11-07 12:28:04.194060538
2025-11-07 12:28:00.966830,-13825,2025-11-07 12:28:04.201752846
2025-11-07 12:28:00.966830,0,2025-11-07 12:28:04.209445154
2025-11-07 12:28:00.966830,127,2025-11-07 12:28:04.217137462
2025-11-07 12:28:00.966830,-18176,2025-11-07 12:28:04.224829769
2025-11-07 12:28:00.966830,-1,2025-11-07 12:28:04.232522077
2025-11-07 12:28:00.966830,0,2025-11-07 12:28:04.240214385
2025-11-07 12:28:00.966830,4608,2025-11-07 12:28:04.247906692
2025-11-07 12:28:00.966830,0,2025-11-07 12:28:04.255599000
2025-11-07 12:28:00.966830,-26,2025-11-07 12:28:04.263291308
2025-11-07 12:28:00.966830,767,2025-11-07 12:28:04.270983615
2025-11-07 12:28:00.966830,0,2025-11-07 12:28:04.278675923
2025-11-07 12:28:00.966830,21,2025-11-07 12:28:04.286368231
2025-11-07 12:28:00.966830,4096,2025-11-07 12:28:04.294060538
2025-11-07 12:28:00.966830,0,2025-11-07 12:28:04.301752846
2025-11-07 12:28:00.966830,35,2025-11-07 12:28:04.309445154
2025-11-07 12:28:00.966830,13824,2025-11-07 12:28:04.317137462
2025-11-07 12:28:00.966830,0,2025-11-07 12:28:04.324829769
2025-11-07 12:28:00.966830,61,2025-11-07 12:28:04.332522077
2025-11-07 12:28:01.536260,82,2025-11-07 12:28:04.340214385
2025-11-07 12:28:01.536260,26624,2025-11-07 12:28:04.347906692
2025-11-07 12:28:01.536260,0,2025-11-07 12:28:04.355599000
2025-11-07 12:28:01.536260,123,2025-11-07 12:28:04.363291308
2025-11-07 12:28:01.536260,-25600,2025-11-07 12:28:04.370983615
2025-11-07 12:28:01.536260,0,2025-11-07 12:28:04.378675923
2025-11-07 12:28:01.536260,182,2025-11-07 12:28:04.386368231
2025-11-07 12:28:01.536260,-12800,2025-11-07 12:28:04.394060538
2025-11-07 12:28:01.536260,0,2025-11-07 12:28:04.401752846
2025-11-07 12:28:01.536260,248,2025-11-07 12:28:04.409445154
2025-11-07 12:28:01.536260,10752,2025-11-07 12:28:04.417137462
2025-11-07 12:28:01.536260,1,2025-11-07 12:28:04.424829769
2025-11-07 12:28:01.536260,336,2025-11-07 12:28:04.432522077
2025-11-07 12:28:01.536260,26368,2025-11-07 12:28:04.440214385
2025-11-07 12:28:01.536260,1,2025-11-07 12:28:04.447906692
2025-11-07 12:28:01.536260,397,2025-11-07 12:28:04.455599000
2025-11-07 12:28:01.536260,-18944,2025-11-07 12:28:04.463291308
2025-11-07 12:28:01.536260,1,2025-11-07 12:28:04.470983615
2025-11-07 12:28:01.536260,454,2025-11-07 12:28:04.478675923
2025-11-07 12:28:01.536260,-13056,2025-11-07 12:28:04.486368230
2025-11-07 12:28:01.536260,1,2025-11-07 12:28:04.494060538
2025-11-07 12:28:01.536260,452,2025-11-07 12:28:04.501752846
2025-11-07 12:28:01.536260,-29952,2025-11-07 12:28:04.509445154
2025-11-07 12:28:01.536260,1,2025-11-07 12:28:04.517137462
2025-11-07 12:28:01.536260,305,2025-11-07 12:28:04.524829769
2025-11-07 12:28:01.536260,-15872,2025-11-07 12:28:04.532522077
2025-11-07 12:28:01.536260,0,2025-11-07 12:28:04.540214385
2025-11-07 12:28:01.536260,85,2025-11-07 12:28:04.547906692
2025-11-07 12:28:01.536260,-1024,2025-11-07 12:28:04.555599000
2025-11-07 12:28:01.536260,-1,2025-11-07 12:28:04.563291308
2025-11-07 12:28:01.536260,-78,2025-11-07 12:28:04.570983615
2025-11-07 12:28:01.536260,-29953,2025-11-07 12:28:04.578675923
2025-11-07 12:28:01.536260,-1,2025-11-07 12:28:04.586368231
2025-11-07 12:28:01.536260,-137,2025-11-07 12:28:04.594060538
2025-11-07 12:28:01.536260,28415,2025-11-07 12:28:04.601752846
2025-11-07 12:28:01.536260,-1,2025-11-07 12:28:04.609445154
2025-11-07 12:28:01.536260,-144,2025-11-07 12:28:04.617137462
2025-11-07 12:28:01.536260,29439,2025-11-07 12:28:04.624829769
2025-11-07 12:28:01.536260,-1,2025-11-07 12:28:04.632522077
2025-11-07 12:28:01.536260,-134,2025-11-07 12:28:04.640214385
2025-11-07 12:28:01.536260,-32257,2025-11-07 12:28:04.647906692
2025-11-07 12:28:01.536260,-1,2025-11-07 12:28:04.655599000
2025-11-07 12:28:01.536260,-127,2025-11-07 12:28:04.663291308
2025-11-07 12:28:01.536260,-31233,2025-11-07 12:28:04.670983615
2025-11-07 12:28:01.536260,-1,2025-11-07 12:28:04.678675923
2025-11-07 12:28:01.536260,-118,2025-11-07 12:28:04.686368231
2025-11-07 12:28:01.536260,-28673,2025-11-07 12:28:04.694060538
2025-11-07 12:28:01.536260,-1,2025-11-07 12:28:04.701752846
2025-11-07 12:28:01.536260,-108,2025-11-07 12:28:04.709445154
2025-11-07 12:28:01.536260,-28161,2025-11-07 12:28:04.717137462
2025-11-07 12:28:01.536260,-1,2025-11-07 12:28:04.724829769
2025-11-07 12:28:01.536260,-104,2025-11-07 12:28:04.732522077
2025-11-07 12:28:01.536260,-25601,2025-11-07 12:28:04.740214385
2025-11-07 12:28:01.536260,-1,2025-11-07 12:28:04.747906692
2025-11-07 12:28:01.536260,-108,2025-11-07 12:28:04.755599000
2025-11-07 12:28:01.536260,-25601,2025-11-07 12:28:04.763291308
2025-11-07 12:28:01.536260,-1,2025-11-07 12:28:04.770983615
2025-11-07 12:28:01.536260,-101,2025-11-07 12:28:04.778675923
2025-11-07 12:28:01.536260,-26881,2025-11-07 12:28:04.786368231
2025-11-07 12:28:01.536260,-1,2025-11-07 12:28:04.794060538
2025-11-07 12:28:01.536260,-104,2025-11-07 12:28:04.801752846
2025-11-07 12:28:01.536260,-26369,2025-11-07 12:28:04.809445154
2025-11-07 12:28:01.536260,-1,2025-11-07 12:28:04.817137462
2025-11-07 12:28:01.536260,-101,2025-11-07 12:28:04.824829769
2025-11-07 12:28:01.536260,-25089,2025-11-07 12:28:04.832522077
2025-11-07 12:28:01.536260,-1,2025-11-07 12:28:04.840214385
2025-11-07 12:28:01.536260,-99,2025-11-07 12:28:04.847906692
2025-11-07 12:28:01.536260,-24577,2025-11-07 12:28:04.855599000
2025-11-07 12:28:01.536260,-1,2025-11-07 12:28:04.863291308
2025-11-07 12:28:01.536260,-97,2025-11-07 12:28:04.870983615
2025-11-07 12:28:01.536260,-23297,2025-11-07 12:28:04.878675923
2025-11-07 12:28:01.536260,-1,2025-11-07 12:28:04.886368231
2025-11-07 12:28:01.536260,-92,2025-11-07 12:28:04.894060538
2025-11-07 12:28:01.536260,-23809,2025-11-07 12:28:04.901752846
2025-11-07 12:28:01.536260,-1,2025-11-07 12:28:04.909445154
2025-11-07 12:28:01.536260,-87,2025-11-07 12:28:04.917137462
2025-11-07 12:28:01.536260,-22017,2025-11-07 12:28:04.924829769
2025-11-07 12:28:01.536260,-1,2025-11-07 12:28:04.932522077
2025-11-07 12:28:01.536260,-87,2025-11-07 12:28:04.940214385
2025-11-07 12:28:01.536260,-22017,2025-11-07 12:28:04.947906692
2025-11-07 12:28:01.536260,-1,2025-11-07 12:28:04.955599000
2025-11-07 12:28:01.536260,-101,2025-11-07 12:28:04.963291308
2025-11-07 12:28:01.536260,-27393,2025-11-07 12:28:04.970983615
2025-11-07 12:28:01.536260,-1,2025-11-07 12:28:04.978675923
2025-11-07 12:28:01.536260,-113,2025-11-07 12:28:04.986368231
2025-11-07 12:28:01.536260,-27393,2025-11-07 12:28:04.994060538
2025-11-07 12:28:01.536260,-1,2025-11-07 12:28:05.001752846
2025-11-07 12:28:01.536260,-82,2025-11-07 12:28:05.009445154
2025-11-07 12:28:01.536260,-13569,2025-11-07 12:28:05.017137462
2025-11-07 12:28:01.536260,-1,2025-11-07 12:28:05.024829769
2025-11-07 12:28:01.536260,-37,2025-11-07 12:28:05.032522077
2025-11-07 12:28:01.536260,-5633,2025-11-07 12:28:05.040214385
2025-11-07 12:28:01.536260,-1,2025-11-07 12:28:05.047906692
2025-11-07 12:28:01.536260,-16,2025-11-07 12:28:05.055599000
2025-11-07 12:28:01.536260,-6913,2025-11-07 12:28:05.063291308
2025-11-07 12:28:01.536260,-1,2025-11-07 12:28:05.070983615
2025-11-07 12:28:01.536260,-42,2025-11-07 12:28:05.078675923
2025-11-07 12:28:01.536260,-9217,2025-11-07 12:28:05.086368231
2025-11-07 12:28:01.536260,-1,2025-11-07 12:28:05.094060538
2025-11-07 12:28:01.536260,-35,2025-11-07 12:28:05.101752846
2025-11-07 12:28:01.536260,-15361,2025-11-07 12:28:05.109445154
2025-11-07 12:28:01.536260,-1,2025-11-07 12:28:05.117137462
2025-11-07 12:28:01.536260,-120,2025-11-07 12:28:05.124829769
2025-11-07 12:28:01.536260,32511,2025-11-07 12:28:05.132522077
2025-11-07 12:28:01.536260,-1,2025-11-07 12:28:05.140214385
2025-11-07 12:28:01.536260,97,2025-11-07 12:28:05.147906692
2025-11-07 12:28:01.536260,5120,2025-11-07 12:28:05.155599000
2025-11-07 12:28:01.536260,2,2025-11-07 12:28:05.163291308
2025-11-07 12:28:01.536260,862,2025-11-07 12:28:05.170983615
2025-11-07 12:28:02.075613,717,2025-11-07 12:28:05.178675923
2025-11-07 12:28:02.075613,13824,2025-11-07 12:28:05.186368231
2025-11-07 12:28:02.075613,0,2025-11-07 12:28:05.194060538
2025-11-07 12:28:02.075613,-274,2025-11-07 12:28:05.201752846
2025-11-07 12:28:02.075613,23807,2025-11-07 12:28:05.209445154
2025-11-07 12:28:02.075613,0,2025-11-07 12:28:05.217137462
2025-11-07 12:28:02.075613,210,2025-11-07 12:28:05.224829769
2025-11-07 12:28:02.075613,-8448,2025-11-07 12:28:05.232522077
2025-11-07 12:28:02.075613,-1,2025-11-07 12:28:05.240214385
2025-11-07 12:28:02.075613,-44,2025-11-07 12:28:05.247906692
2025-11-07 12:28:02.075613,8703,2025-11-07 12:28:05.255599000
2025-11-07 12:28:02.075613,0,2025-11-07 12:28:05.263291308
2025-11-07 12:28:02.075613,9,2025-11-07 12:28:05.270983615
2025-11-07 12:28:02.075613,2304,2025-11-07 12:28:05.278675923
2025-11-07 12:28:02.075613,0,2025-11-07 12:28:05.286368231
2025-11-07 12:28:02.075613,40,2025-11-07 12:28:05.294060538
2025-11-07 12:28:02.075613,9472,2025-11-07 12:28:05.301752846
2025-11-07 12:28:02.075613,0,2025-11-07 12:28:05.309445154
2025-11-07 12:28:02.075613,33,2025-11-07 12:28:05.317137462
2025-11-07 12:28:02.075613,13824,2025-11-07 12:28:05.324829769
2025-11-07 12:28:02.075613,0,2025-11-07 12:28:05.332522077
2025-11-07 12:28:02.075613,68,2025-11-07 12:28:05.340214385
2025-11-07 12:28:02.075613,20480,2025-11-07 12:28:05.347906692
2025-11-07 12:28:02.075613,0,2025-11-07 12:28:05.355599000
2025-11-07 12:28:02.075613,108,2025-11-07 12:28:05.363291308
2025-11-07 12:28:02.075613,-32256,2025-11-07 12:28:05.370983615
2025-11-07 12:28:02.075613,0,2025-11-07 12:28:05.378675923
2025-11-07 12:28:02.075613,146,2025-11-07 12:28:05.386368231
2025-11-07 12:28:02.075613,-21504,2025-11-07 12:28:05.394060538
2025-11-07 12:28:02.075613,0,2025-11-07 12:28:05.401752846
2025-11-07 12:28:02.075613,198,2025-11-07 12:28:05.409445154
2025-11-07 12:28:02.075613,-7424,2025-11-07 12:28:05.417137462
2025-11-07 12:28:02.075613,0,2025-11-07 12:28:05.424829769
2025-11-07 12:28:02.075613,255,2025-11-07 12:28:05.432522077
2025-11-07 12:28:02.075613,8192,2025-11-07 12:28:05.440214385
2025-11-07 12:28:02.075613,1,2025-11-07 12:28:05.447906692
2025-11-07 12:28:02.075613,324,2025-11-07 12:28:05.455599000
2025-11-07 12:28:02.075613,24064,2025-11-07 12:28:05.463291308
2025-11-07 12:28:02.075613,1,2025-11-07 12:28:05.470983615
2025-11-07 12:28:02.075613,381,2025-11-07 12:28:05.478675923
2025-11-07 12:28:02.075613,-26880,2025-11-07 12:28:05.486368230
2025-11-07 12:28:02.075613,1,2025-11-07 12:28:05.494060538
2025-11-07 12:28:02.075613,416,2025-11-07 12:28:05.501752846
2025-11-07 12:28:02.075613,-25600,2025-11-07 12:28:05.509445154
2025-11-07 12:28:02.075613,1,2025-11-07 12:28:05.517137462
2025-11-07 12:28:02.075613,371,2025-11-07 12:28:05.524829769
2025-11-07 12:28:02.075613,10240,2025-11-07 12:28:05.532522077
2025-11-07 12:28:02.075613,1,2025-11-07 12:28:05.540214385
2025-11-07 12:28:02.075613,191,2025-11-07 12:28:05.547906692
2025-11-07 12:28:02.075613,17408,2025-11-07 12:28:05.555599000
2025-11-07 12:28:02.075613,0,2025-11-07 12:28:05.563291308
2025-11-07 12:28:02.075613,-33,2025-11-07 12:28:05.570983615
2025-11-07 12:28:02.075613,-26881,2025-11-07 12:28:05.578675923
2025-11-07 12:28:02.075613,-1,2025-11-07 12:28:05.586368231
2025-11-07 12:28:02.075613,-163,2025-11-07 12:28:05.594060538
2025-11-07 12:28:02.075613,16127,2025-11-07 12:28:05.601752846
2025-11-07 12:28:02.075613,-1,2025-11-07 12:28:05.609445154
2025-11-07 12:28:02.075613,-210,2025-11-07 12:28:05.617137462
2025-11-07 12:28:02.075613,12031,2025-11-07 12:28:05.624829769
2025-11-07 12:28:02.075613,-1,2025-11-07 12:28:05.632522077
2025-11-07 12:28:02.075613,-203,2025-11-07 12:28:05.640214385
2025-11-07 12:28:02.075613,15103,2025-11-07 12:28:05.647906692
2025-11-07 12:28:02.075613,-1,2025-11-07 12:28:05.655599000
2025-11-07 12:28:02.075613,-184,2025-11-07 12:28:05.663291308
2025-11-07 12:28:02.075613,22271,2025-11-07 12:28:05.670983615
2025-11-07 12:28:02.075613,-1,2025-11-07 12:28:05.678675923
2025-11-07 12:28:02.075613,-156,2025-11-07 12:28:05.686368231
2025-11-07 12:28:02.075613,30207,2025-11-07 12:28:05.694060538
2025-11-07 12:28:02.075613,-1,2025-11-07 12:28:05.701752846
2025-11-07 12:28:02.075613,-127,2025-11-07 12:28:05.709445154
2025-11-07 12:28:02.075613,-28673,2025-11-07 12:28:05.717137462
2025-11-07 12:28:02.075613,-1,2025-11-07 12:28:05.724829769
2025-11-07 12:28:02.075613,-104,2025-11-07 12:28:05.732522077
2025-11-07 12:28:02.075613,-24577,2025-11-07 12:28:05.740214385
2025-11-07 12:28:02.075613,-1,2025-11-07 12:28:05.747906692
2025-11-07 12:28:02.075613,-87,2025-11-07 12:28:05.755599000
2025-11-07 12:28:02.075613,-20737,2025-11-07 12:28:05.763291308
2025-11-07 12:28:02.075613,-1,2025-11-07 12:28:05.770983615
2025-11-07 12:28:02.075613,-78,2025-11-07 12:28:05.778675923
2025-11-07 12:28:02.075613,-18433,2025-11-07 12:28:05.786368231
2025-11-07 12:28:02.075613,-1,2025-11-07 12:28:05.794060538
2025-11-07 12:28:02.075613,-71,2025-11-07 12:28:05.801752846
2025-11-07 12:28:02.075613,-15873,2025-11-07 12:28:05.809445154
2025-11-07 12:28:02.075613,-1,2025-11-07 12:28:05.817137462
2025-11-07 12:28:02.075613,-59,2025-11-07 12:28:05.824829769
2025-11-07 12:28:02.075613,-13569,2025-11-07 12:28:05.832522077
2025-11-07 12:28:02.075613,-1,2025-11-07 12:28:05.840214385
2025-11-07 12:28:02.075613,-42,2025-11-07 12:28:05.847906692
2025-11-07 12:28:02.075613,-9217,2025-11-07 12:28:05.855599000
2025-11-07 12:28:02.075613,-1,2025-11-07 12:28:05.863291308
2025-11-07 12:28:02.075613,-30,2025-11-07 12:28:05.870983615
2025-11-07 12:28:02.075613,-6401,2025-11-07 12:28:05.878675923
2025-11-07 12:28:02.075613,-1,2025-11-07 12:28:05.886368231
2025-11-07 12:28:02.075613,-23,2025-11-07 12:28:05.894060538
2025-11-07 12:28:02.075613,-4353,2025-11-07 12:28:05.901752846
2025-11-07 12:28:02.075613,-1,2025-11-07 12:28:05.909445154
2025-11-07 12:28:02.075613,-21,2025-11-07 12:28:05.917137462
2025-11-07 12:28:02.075613,-3841,2025-11-07 12:28:05.924829769
2025-11-07 12:28:02.075613,-1,2025-11-07 12:28:05.932522077
2025-11-07 12:28:02.075613,-7,2025-11-07 12:28:05.940214385
2025-11-07 12:28:02.075613,-1537,2025-11-07 12:28:05.947906692
2025-11-07 12:28:02.075613,-1,2025-11-07 12:28:05.955599000
2025-11-07 12:28:02.075613,-14,2025-11-07 12:28:05.963291308
2025-11-07 12:28:02.075613,-5121,2025-11-07 12:28:05.970983615
2025-11-07 12:28:02.075613,-1,2025-11-07 12:28:05.978675923
2025-11-07 12:28:02.075613,-28,2025-11-07 12:28:05.986368231
2025-11-07 12:28:02.075613,-8705,2025-11-07 12:28:05.994060538
2025-11-07 12:28:02.075613,-1,2025-11-07 12:28:06.001752846
2025-11-07 12:28:02.075613,-35,2025-11-07 12:28:06.009445154
2025-11-07 12:28:02.675604,-11,2025-11-07 12:28:06.017137462
2025-11-07 12:28:02.675604,4351,2025-11-07 12:28:06.024829769
2025-11-07 12:28:02.675604,0,2025-11-07 12:28:06.032522077
2025-11-07 12:28:02.675604,33,2025-11-07 12:28:06.040214385
2025-11-07 12:28:02.675604,13312,2025-11-07 12:28:06.047906692
2025-11-07 12:28:02.675604,0,2025-11-07 12:28:06.055599000
2025-11-07 12:28:02.675604,61,2025-11-07 12:28:06.063291308
2025-11-07 12:28:02.675604,15104,2025-11-07 12:28:06.070983615
2025-11-07 12:28:02.675604,0,2025-11-07 12:28:06.078675923
2025-11-07 12:28:02.675604,56,2025-11-07 12:28:06.086368231
2025-11-07 12:28:02.675604,12544,2025-11-07 12:28:06.094060538
2025-11-07 12:28:02.675604,0,2025-11-07 12:28:06.101752846
2025-11-07 12:28:02.675604,44,2025-11-07 12:28:06.109445154
2025-11-07 12:28:02.675604,7168,2025-11-07 12:28:06.117137462
2025-11-07 12:28:02.675604,0,2025-11-07 12:28:06.124829769
2025-11-07 12:28:02.675604,-35,2025-11-07 12:28:06.132522077
2025-11-07 12:28:02.675604,-12289,2025-11-07 12:28:06.140214385
2025-11-07 12:28:02.675604,-1,2025-11-07 12:28:06.147906692
2025-11-07 12:28:02.675604,194,2025-11-07 12:28:06.155599000
2025-11-07 12:28:02.675604,-31232,2025-11-07 12:28:06.163291308
2025-11-07 12:28:02.675604,2,2025-11-07 12:28:06.170983615
2025-11-07 12:28:02.675604,949,2025-11-07 12:28:06.178675923
2025-11-07 12:28:02.675604,-2048,2025-11-07 12:28:06.186368231
2025-11-07 12:28:02.675604,2,2025-11-07 12:28:06.194060538
2025-11-07 12:28:02.675604,78,2025-11-07 12:28:06.201752846
2025-11-07 12:28:02.675604,-4096,2025-11-07 12:28:06.209445154
2025-11-07 12:28:02.675604,-2,2025-11-07 12:28:06.217137462
2025-11-07 12:28:02.675604,94,2025-11-07 12:28:06.224829769
2025-11-07 12:28:02.675604,-1280,2025-11-07 12:28:06.232522077
2025-11-07 12:28:02.675604,0,2025-11-07 12:28:06.240214385
2025-11-07 12:28:02.675604,7,2025-11-07 12:28:06.247906692
2025-11-07 12:28:02.675604,-2816,2025-11-07 12:28:06.255599000
2025-11-07 12:28:02.675604,-1,2025-11-07 12:28:06.263291308
2025-11-07 12:28:02.675604,63,2025-11-07 12:28:06.270983615
2025-11-07 12:28:02.675604,3584,2025-11-07 12:28:06.278675923
2025-11-07 12:28:02.675604,0,2025-11-07 12:28:06.286368231
2025-11-07 12:28:02.675604,4,2025-11-07 12:28:06.294060538
2025-11-07 12:28:02.675604,10752,2025-11-07 12:28:06.301752846
2025-11-07 12:28:02.675604,0,2025-11-07 12:28:06.309445154
2025-11-07 12:28:02.675604,47,2025-11-07 12:28:06.317137462
2025-11-07 12:28:02.675604,10752,2025-11-07 12:28:06.324829769
2025-11-07 12:28:02.675604,0,2025-11-07 12:28:06.332522077
2025-11-07 12:28:02.675604,61,2025-11-07 12:28:06.340214385
2025-11-07 12:28:02.675604,20480,2025-11-07 12:28:06.347906692
2025-11-07 12:28:02.675604,0,2025-11-07 12:28:06.355599000
2025-11-07 12:28:02.675604,89,2025-11-07 12:28:06.363291308
2025-11-07 12:28:02.675604,27648,2025-11-07 12:28:06.370983615
2025-11-07 12:28:02.675604,0,2025-11-07 12:28:06.378675923
2025-11-07 12:28:02.675604,134,2025-11-07 12:28:06.386368231
2025-11-07 12:28:02.675604,-26368,2025-11-07 12:28:06.394060538
2025-11-07 12:28:02.675604,0,2025-11-07 12:28:06.401752846
2025-11-07 12:28:02.675604,179,2025-11-07 12:28:06.409445154
2025-11-07 12:28:02.675604,-12800,2025-11-07 12:28:06.417137462
2025-11-07 12:28:02.675604,0,2025-11-07 12:28:06.424829769
2025-11-07 12:28:02.675604,236,2025-11-07 12:28:06.432522077
2025-11-07 12:28:02.675604,3328,2025-11-07 12:28:06.440214385
2025-11-07 12:28:02.675604,1,2025-11-07 12:28:06.447906692
2025-11-07 12:28:02.675604,303,2025-11-07 12:28:06.455599000
2025-11-07 12:28:02.675604,22784,2025-11-07 12:28:06.463291308
2025-11-07 12:28:02.675604,1,2025-11-07 12:28:06.470983615
2025-11-07 12:28:02.675604,376,2025-11-07 12:28:06.478675923
2025-11-07 12:28:02.675604,-28672,2025-11-07 12:28:06.486368230
2025-11-07 12:28:02.675604,1,2025-11-07 12:28:06.494060538
2025-11-07 12:28:02.675604,431,2025-11-07 12:28:06.501752846
2025-11-07 12:28:02.675604,-17920,2025-11-07 12:28:06.509445154
2025-11-07 12:28:02.675604,1,2025-11-07 12:28:06.517137462
2025-11-07 12:28:02.675604,442,2025-11-07 12:28:06.524829769
2025-11-07 12:28:02.675604,-26368,2025-11-07 12:28:06.532522077
2025-11-07 12:28:02.675604,1,2025-11-07 12:28:06.540214385
2025-11-07 12:28:02.675604,324,2025-11-07 12:28:06.547906692
2025-11-07 12:28:02.675604,-11776,2025-11-07 12:28:06.555599000
2025-11-07 12:28:02.675604,0,2025-11-07 12:28:06.563291308
2025-11-07 12:28:02.675604,92,2025-11-07 12:28:06.570983615
2025-11-07 12:28:02.675604,-3584,2025-11-07 12:28:06.578675923
2025-11-07 12:28:02.675604,-1,2025-11-07 12:28:06.586368231
2025-11-07 12:28:02.675604,-89,2025-11-07 12:28:06.594060538
2025-11-07 12:28:02.675604,28927,2025-11-07 12:28:06.601752846
2025-11-07 12:28:02.675604,-1,2025-11-07 12:28:06.609445154
2025-11-07 12:28:02.675604,-172,2025-11-07 12:28:06.617137462
2025-11-07 12:28:02.675604,17407,2025-11-07 12:28:06.624829769
2025-11-07 12:28:02.675604,-1,2025-11-07 12:28:06.632522077
2025-11-07 12:28:02.675604,-196,2025-11-07 12:28:06.640214385
2025-11-07 12:28:02.675604,17407,2025-11-07 12:28:06.647906692
2025-11-07 12:28:02.675604,-1,2025-11-07 12:28:06.655599000
2025-11-07 12:28:02.675604,-179,2025-11-07 12:28:06.663291308
2025-11-07 12:28:02.675604,23551,2025-11-07 12:28:06.670983615
2025-11-07 12:28:02.675604,-1,2025-11-07 12:28:06.678675923
2025-11-07 12:28:02.675604,-153,2025-11-07 12:28:06.686368231
2025-11-07 12:28:02.675604,27647,2025-11-07 12:28:06.694060538
2025-11-07 12:28:02.675604,-1,2025-11-07 12:28:06.701752846
2025-11-07 12:28:02.675604,-137,2025-11-07 12:28:06.709445154
2025-11-07 12:28:02.675604,-31745,2025-11-07 12:28:06.717137462
2025-11-07 12:28:02.675604,-1,2025-11-07 12:28:06.724829769
2025-11-07 12:28:02.675604,-120,2025-11-07 12:28:06.732522077
2025-11-07 12:28:02.675604,-28161,2025-11-07 12:28:06.740214385
2025-11-07 12:28:02.675604,-1,2025-11-07 12:28:06.747906692
2025-11-07 12:28:02.675604,-104,2025-11-07 12:28:06.755599000
2025-11-07 12:28:02.675604,-26369,2025-11-07 12:28:06.763291308
2025-11-07 12:28:02.675604,-1,2025-11-07 12:28:06.770983615
2025-11-07 12:28:02.675604,-104,2025-11-07 12:28:06.778675923
2025-11-07 12:28:02.675604,-27393,2025-11-07 12:28:06.786368231
2025-11-07 12:28:02.675604,-1,2025-11-07 12:28:06.794060538
2025-11-07 12:28:02.675604,-108,2025-11-07 12:28:06.801752846
2025-11-07 12:28:02.675604,-28673,2025-11-07 12:28:06.809445154
2025-11-07 12:28:02.675604,-1,2025-11-07 12:28:06.817137462
2025-11-07 12:28:02.675604,-111,2025-11-07 12:28:06.824829769
2025-11-07 12:28:02.675604,-26881,2025-11-07 12:28:06.832522077
2025-11-07 12:28:02.675604,-1,2025-11-07 12:28:06.840214385
2025-11-07 12:28:02.675604,-108,2025-11-07 12:28:06.847906692
2025-11-07 12:28:03.245657,-104,2025-11-07 12:28:06.855599000
2025-11-07 12:28:03.245657,-26881,2025-11-07 12:28:06.863291308
2025-11-07 12:28:03.245657,-1,2025-11-07 12:28:06.870983615
2025-11-07 12:28:03.245657,-106,2025-11-07 12:28:06.878675923
2025-11-07 12:28:03.245657,-24577,2025-11-07 12:28:06.886368231
2025-11-07 12:28:03.245657,-1,2025-11-07 12:28:06.894060538
2025-11-07 12:28:03.245657,-94,2025-11-07 12:28:06.901752846
2025-11-07 12:28:03.245657,-23809,2025-11-07 12:28:06.909445154
2025-11-07 12:28:03.245657,-1,2025-11-07 12:28:06.917137462
2025-11-07 12:28:03.245657,-94,2025-11-07 12:28:06.924829769
2025-11-07 12:28:03.245657,-24577,2025-11-07 12:28:06.932522077
2025-11-07 12:28:03.245657,-1,2025-11-07 12:28:06.940214385
2025-11-07 12:28:03.245657,-101,2025-11-07 12:28:06.947906692
2025-11-07 12:28:03.245657,-29953,2025-11-07 12:28:06.955599000
2025-11-07 12:28:03.245657,-1,2025-11-07 12:28:06.963291308
2025-11-07 12:28:03.245657,-106,2025-11-07 12:28:06.970983615
2025-11-07 12:28:03.245657,-19713,2025-11-07 12:28:06.978675923
2025-11-07 12:28:03.245657,-1,2025-11-07 12:28:06.986368231
2025-11-07 12:28:03.245657,-71,2025-11-07 12:28:06.994060538
2025-11-07 12:28:03.245657,-13057,2025-11-07 12:28:07.001752846
2025-11-07 12:28:03.245657,-1,2025-11-07 12:28:07.009445154
2025-11-07 12:28:03.245657,-16,2025-11-07 12:28:07.017137462
2025-11-07 12:28:03.245657,3839,2025-11-07 12:28:07.024829769
2025-11-07 12:28:03.245657,0,2025-11-07 12:28:07.032522077
2025-11-07 12:28:03.245657,26,2025-11-07 12:28:07.040214385
2025-11-07 12:28:03.245657,4096,2025-11-07 12:28:07.047906692
2025-11-07 12:28:03.245657,0,2025-11-07 12:28:07.055599000
2025-11-07 12:28:03.245657,11,2025-11-07 12:28:07.063291308
2025-11-07 12:28:03.245657,2816,2025-11-07 12:28:07.070983615
2025-11-07 12:28:03.245657,0,2025-11-07 12:28:07.078675923
2025-11-07 12:28:03.245657,-14,2025-11-07 12:28:07.086368231
2025-11-07 12:28:03.245657,-9985,2025-11-07 12:28:07.094060538
2025-11-07 12:28:03.245657,-1,2025-11-07 12:28:07.101752846
2025-11-07 12:28:03.245657,-89,2025-11-07 12:28:07.109445154
2025-11-07 12:28:03.245657,-27393,2025-11-07 12:28:07.117137462
2025-11-07 12:28:03.245657,-1,2025-11-07 12:28:07.124829769
2025-11-07 12:28:03.245657,113,2025-11-07 12:28:07.132522077
2025-11-07 12:28:03.245657,11776,2025-11-07 12:28:07.140214385
2025-11-07 12:28:03.245657,2,2025-11-07 12:28:07.147906692
2025-11-07 12:28:03.245657,873,2025-11-07 12:28:07.155599000
2025-11-07 12:28:03.245657,-11776,2025-11-07 12:28:07.163291308
2025-11-07 12:28:03.245657,2,2025-11-07 12:28:07.170983615
2025-11-07 12:28:03.245657,85,2025-11-07 12:28:07.178675923
2025-11-07 12:28:03.245657,-2304,2025-11-07 12:28:07.186368231
2025-11-07 12:28:03.245657,-2,2025-11-07 12:28:07.194060538
2025-11-07 12:28:03.245657,75,2025-11-07 12:28:07.201752846
2025-11-07 12:28:03.245657,-3840,2025-11-07 12:28:07.209445154
2025-11-07 12:28:03.245657,0,2025-11-07 12:28:07.217137462
2025-11-07 12:28:03.245657,11,2025-11-07 12:28:07.224829769
2025-11-07 12:28:03.245657,-5888,2025-11-07 12:28:07.232522077
2025-11-07 12:28:03.245657,-1,2025-11-07 12:28:07.240214385
2025-11-07 12:28:03.245657,59,2025-11-07 12:28:07.247906692
2025-11-07 12:28:03.245657,5376,2025-11-07 12:28:07.255599000
2025-11-07 12:28:03.245657,0,2025-11-07 12:28:07.263291308
2025-11-07 12:28:03.245657,7,2025-11-07 12:28:07.270983615
2025-11-07 12:28:03.245657,12544,2025-11-07 12:28:07.278675923
2025-11-07 12:28:03.245657,0,2025-11-07 12:28:07.286368231
2025-11-07 12:28:03.245657,56,2025-11-07 12:28:07.294060538
2025-11-07 12:28:03.245657,13312,2025-11-07 12:28:07.301752846
2025-11-07 12:28:03.245657,0,2025-11-07 12:28:07.309445154
2025-11-07 12:28:03.245657,56,2025-11-07 12:28:07.317137462
2025-11-07 12:28:03.245657,18176,2025-11-07 12:28:07.324829769
2025-11-07 12:28:03.245657,0,2025-11-07 12:28:07.332522077
2025-11-07 12:28:03.245657,97,2025-11-07 12:28:07.340214385
2025-11-07 12:28:03.245657,28928,2025-11-07 12:28:07.347906692
2025-11-07 12:28:03.245657,0,2025-11-07 12:28:07.355599000
2025-11-07 12:28:03.245657,132,2025-11-07 12:28:07.363291308
2025-11-07 12:28:03.245657,-25088,2025-11-07 12:28:07.370983615
2025-11-07 12:28:03.245657,0,2025-11-07 12:28:07.378675923
2025-11-07 12:28:03.245657,179,2025-11-07 12:28:07.386368231
2025-11-07 12:28:03.245657,-12800,2025-11-07 12:28:07.394060538
2025-11-07 12:28:03.245657,0,2025-11-07 12:28:07.401752846
2025-11-07 12:28:03.245657,236,2025-11-07 12:28:07.409445154
2025-11-07 12:28:03.245657,4608,2025-11-07 12:28:07.417137462
2025-11-07 12:28:03.245657,1,2025-11-07 12:28:07.424829769
2025-11-07 12:28:03.245657,310,2025-11-07 12:28:07.432522077
2025-11-07 12:28:03.245657,20480,2025-11-07 12:28:07.440214385
2025-11-07 12:28:03.245657,1,2025-11-07 12:28:07.447906692
2025-11-07 12:28:03.245657,359,2025-11-07 12:28:07.455599000
2025-11-07 12:28:03.245657,-31744,2025-11-07 12:28:07.463291308
2025-11-07 12:28:03.245657,1,2025-11-07 12:28:07.470983615
2025-11-07 12:28:03.245657,414,2025-11-07 12:28:07.478675923
2025-11-07 12:28:03.245657,-20224,2025-11-07 12:28:07.486368230
2025-11-07 12:28:03.245657,1,2025-11-07 12:28:07.494060538
2025-11-07 12:28:03.245657,423,2025-11-07 12:28:07.501752846
2025-11-07 12:28:03.245657,-32256,2025-11-07 12:28:07.509445154
2025-11-07 12:28:03.245657,1,2025-11-07 12:28:07.517137462
2025-11-07 12:28:03.245657,307,2025-11-07 12:28:07.524829769
2025-11-07 12:28:03.245657,-16640,2025-11-07 12:28:07.532522077
2025-11-07 12:28:03.245657,0,2025-11-07 12:28:07.540214385
2025-11-07 12:28:03.245657,75,2025-11-07 12:28:07.547906692
2025-11-07 12:28:03.245657,-5888,2025-11-07 12:28:07.555599000
2025-11-07 12:28:03.245657,-1,2025-11-07 12:28:07.563291308
2025-11-07 12:28:03.245657,-101,2025-11-07 12:28:07.570983615
2025-11-07 12:28:03.245657,27135,2025-11-07 12:28:07.578675923
2025-11-07 12:28:03.245657,-1,2025-11-07 12:28:07.586368231
2025-11-07 12:28:03.245657,-182,2025-11-07 12:28:07.594060538
2025-11-07 12:28:03.245657,16127,2025-11-07 12:28:07.601752846
2025-11-07 12:28:03.245657,-1,2025-11-07 12:28:07.609445154
2025-11-07 12:28:03.245657,-201,2025-11-07 12:28:07.617137462
2025-11-07 12:28:03.245657,14335,2025-11-07 12:28:07.624829769
2025-11-07 12:28:03.245657,-1,2025-11-07 12:28:07.632522077
2025-11-07 12:28:03.245657,-189,2025-11-07 12:28:07.640214385
2025-11-07 12:28:03.245657,19199,2025-11-07 12:28:07.647906692
2025-11-07 12:28:03.245657,-1,2025-11-07 12:28:07.655599000
2025-11-07 12:28:03.245657,-175,2025-11-07 12:28:07.663291308
2025-11-07 12:28:03.245657,23551,2025-11-07 12:28:07.670983615
2025-11-07 12:28:03.245657,-1,2025-11-07 12:28:07.678675923
2025-11-07 12:28:03.245657,-163,2025-11-07 12:28:07.686368231
2025-11-07 12:28:03.785602,-151,2025-11-07 12:28:07.694060538
2025-11-07 12:28:03.785602,28927,2025-11-07 12:28:07.701752846
2025-11-07 12:28:03.785602,-1,2025-11-07 12:28:07.709445154
2025-11-07 12:28:03.785602,-139,2025-11-07 12:28:07.717137462
2025-11-07 12:28:03.785602,31999,2025-11-07 12:28:07.724829769
2025-11-07 12:28:03.785602,-1,2025-11-07 12:28:07.732522077
2025-11-07 12:28:03.785602,-127,2025-11-07 12:28:07.740214385
2025-11-07 12:28:03.785602,-31233,2025-11-07 12:28:07.747906692
2025-11-07 12:28:03.785602,-1,2025-11-07 12:28:07.755599000
2025-11-07 12:28:03.785602,-118,2025-11-07 12:28:07.763291308
2025-11-07 12:28:03.785602,-29441,2025-11-07 12:28:07.770983615
2025-11-07 12:28:03.785602,-1,2025-11-07 12:28:07.778675923
2025-11-07 12:28:03.785602,-111,2025-11-07 12:28:07.786368231
2025-11-07 12:28:03.785602,-28673,2025-11-07 12:28:07.794060538
2025-11-07 12:28:03.785602,-1,2025-11-07 12:28:07.801752846
2025-11-07 12:28:03.785602,-116,2025-11-07 12:28:07.809445154
2025-11-07 12:28:03.785602,-25601,2025-11-07 12:28:07.817137462
2025-11-07 12:28:03.785602,-1,2025-11-07 12:28:07.824829769
2025-11-07 12:28:03.785602,-87,2025-11-07 12:28:07.832522077
2025-11-07 12:28:03.785602,-20225,2025-11-07 12:28:07.840214385
2025-11-07 12:28:03.785602,-1,2025-11-07 12:28:07.847906692
2025-11-07 12:28:03.785602,-89,2025-11-07 12:28:07.855599000
2025-11-07 12:28:03.785602,-21505,2025-11-07 12:28:07.863291308
2025-11-07 12:28:03.785602,-1,2025-11-07 12:28:07.870983615
2025-11-07 12:28:03.785602,-78,2025-11-07 12:28:07.878675923
2025-11-07 12:28:03.785602,-21505,2025-11-07 12:28:07.886368231
2025-11-07 12:28:03.785602,-1,2025-11-07 12:28:07.894060538
2025-11-07 12:28:03.785602,-82,2025-11-07 12:28:07.901752846
2025-11-07 12:28:03.785602,-18433,2025-11-07 12:28:07.909445154
2025-11-07 12:28:03.785602,-1,2025-11-07 12:28:07.917137462
2025-11-07 12:28:03.785602,-78,2025-11-07 12:28:07.924829769
2025-11-07 12:28:03.785602,-22529,2025-11-07 12:28:07.932522077
2025-11-07 12:28:03.785602,-1,2025-11-07 12:28:07.940214385
2025-11-07 12:28:03.785602,-101,2025-11-07 12:28:07.947906692
2025-11-07 12:28:03.785602,-26369,2025-11-07 12:28:07.955599000
2025-11-07 12:28:03.785602,-1,2025-11-07 12:28:07.963291308
2025-11-07 12:28:03.785602,-99,2025-11-07 12:28:07.970983615
2025-11-07 12:28:03.785602,-20737,2025-11-07 12:28:07.978675923
2025-11-07 12:28:03.785602,-1,2025-11-07 12:28:07.986368231
2025-11-07 12:28:03.785602,-49,2025-11-07 12:28:07.994060538
2025-11-07 12:28:03.785602,-6913,2025-11-07 12:28:08.001752846
2025-11-07 12:28:03.785602,-1,2025-11-07 12:28:08.009445154
2025-11-07 12:28:03.785602,-14,2025-11-07 12:28:08.017137462
2025-11-07 12:28:03.785602,255,2025-11-07 12:28:08.024829769
2025-11-07 12:28:03.785602,0,2025-11-07 12:28:08.032522077
2025-11-07 12:28:03.785602,-11,2025-11-07 12:28:08.040214385
2025-11-07 12:28:03.785602,-6913,2025-11-07 12:28:08.047906692
2025-11-07 12:28:03.785602,-1,2025-11-07 12:28:08.055599000
2025-11-07 12:28:03.785602,-33,2025-11-07 12:28:08.063291308
2025-11-07 12:28:03.785602,-8193,2025-11-07 12:28:08.070983615
2025-11-07 12:28:03.785602,-1,2025-11-07 12:28:08.078675923
2025-11-07 12:28:03.785602,-47,2025-11-07 12:28:08.086368231
2025-11-07 12:28:03.785602,-28673,2025-11-07 12:28:08.094060538
2025-11-07 12:28:03.785602,-1,2025-11-07 12:28:08.101752846
2025-11-07 12:28:03.785602,-134,2025-11-07 12:28:08.109445154
2025-11-07 12:28:03.785602,22527,2025-11-07 12:28:08.117137462
2025-11-07 12:28:03.785602,0,2025-11-07 12:28:08.124829769
2025-11-07 12:28:03.785602,511,2025-11-07 12:28:08.132522077
2025-11-07 12:28:03.785602,17152,2025-11-07 12:28:08.140214385
2025-11-07 12:28:03.785602,3,2025-11-07 12:28:08.147906692
2025-11-07 12:28:03.785602,700,2025-11-07 12:28:08.155599000
2025-11-07 12:28:03.785602,16128,2025-11-07 12:28:08.163291308
2025-11-07 12:28:03.785602,0,2025-11-07 12:28:08.170983615
2025-11-07 12:28:03.785602,-274,2025-11-07 12:28:08.178675923
2025-11-07 12:28:03.785602,18943,2025-11-07 12:28:08.186368231
2025-11-07 12:28:03.785602,0,2025-11-07 12:28:08.194060538
2025-11-07 12:28:03.785602,220,2025-11-07 12:28:08.201752846
2025-11-07 12:28:03.785602,-4096,2025-11-07 12:28:08.209445154
2025-11-07 12:28:03.785602,-1,2025-11-07 12:28:08.217137462
2025-11-07 12:28:03.785602,-42,2025-11-07 12:28:08.224829769
2025-11-07 12:28:03.785602,9727,2025-11-07 12:28:08.232522077
2025-11-07 12:28:03.785602,0,2025-11-07 12:28:08.240214385
2025-11-07 12:28:03.785602,-7,2025-11-07 12:28:08.247906692
2025-11-07 12:28:03.785602,-5121,2025-11-07 12:28:08.255599000
2025-11-07 12:28:03.785602,-1,2025-11-07 12:28:08.263291308
2025-11-07 12:28:03.785602,23,2025-11-07 12:28:08.270983615
2025-11-07 12:28:03.785602,5376,2025-11-07 12:28:08.278675923
2025-11-07 12:28:03.785602,0,2025-11-07 12:28:08.286368231
2025-11-07 12:28:03.785602,14,2025-11-07 12:28:08.294060538
2025-11-07 12:28:03.785602,8448,2025-11-07 12:28:08.301752846
2025-11-07 12:28:03.785602,0,2025-11-07 12:28:08.309445154
2025-11-07 12:28:03.785602,49,2025-11-07 12:28:08.317137462
2025-11-07 12:28:03.785602,16128,2025-11-07 12:28:08.324829769
2025-11-07 12:28:03.785602,0,2025-11-07 12:28:08.332522077
2025-11-07 12:28:03.785602,78,2025-11-07 12:28:08.340214385
2025-11-07 12:28:03.785602,25344,2025-11-07 12:28:08.347906692
2025-11-07 12:28:03.785602,0,2025-11-07 12:28:08.355599000
2025-11-07 12:28:03.785602,120,2025-11-07 12:28:08.363291308
2025-11-07 12:28:03.785602,-29952,2025-11-07 12:28:08.370983615
2025-11-07 12:28:03.785602,0,2025-11-07 12:28:08.378675923
2025-11-07 12:28:03.785602,170,2025-11-07 12:28:08.386368231
2025-11-07 12:28:03.785602,-13568,2025-11-07 12:28:08.394060538
2025-11-07 12:28:03.785602,0,2025-11-07 12:28:08.401752846
2025-11-07 12:28:03.785602,241,2025-11-07 12:28:08.409445154
2025-11-07 12:28:03.785602,4608,2025-11-07 12:28:08.417137462
2025-11-07 12:28:03.785602,1,2025-11-07 12:28:08.424829769
2025-11-07 12:28:03.785602,303,2025-11-07 12:28:08.432522077
2025-11-07 12:28:03.785602,22272,2025-11-07 12:28:08.440214385
2025-11-07 12:28:03.785602,1,2025-11-07 12:28:08.447906692
2025-11-07 12:28:03.785602,374,2025-11-07 12:28:08.455599000
2025-11-07 12:28:03.785602,-29952,2025-11-07 12:28:08.463291308
2025-11-07 12:28:03.785602,1,2025-11-07 12:28:08.470983615
2025-11-07 12:28:03.785602,412,2025-11-07 12:28:08.478675923
2025-11-07 12:28:03.785602,-25088,2025-11-07 12:28:08.486368230
2025-11-07 12:28:03.785602,1,2025-11-07 12:28:08.494060538
2025-11-07 12:28:03.785602,381,2025-11-07 12:28:08.501752846
2025-11-07 12:28:03.785602,12032,2025-11-07 12:28:08.509445154
2025-11-07 12:28:03.785602,1,2025-11-07 12:28:08.517137462
2025-11-07 12:28:03.785602,196,2025-11-07 12:28:08.524829769
2025-11-07 12:28:04.325603,80,2025-11-07 12:28:08.532522077
2025-11-07 12:28:04.325603,-7168,2025-11-07 12:28:08.540214385
2025-11-07 12:28:04.325603,-1,2025-11-07 12:28:08.547906692
2025-11-07 12:28:04.325603,-106,2025-11-07 12:28:08.555599000
2025-11-07 12:28:04.325603,25855,2025-11-07 12:28:08.563291308
2025-11-07 12:28:04.325603,-1,2025-11-07 12:28:08.570983615
2025-11-07 12:28:04.325603,-182,2025-11-07 12:28:08.578675923
2025-11-07 12:28:04.325603,16895,2025-11-07 12:28:08.586368231
2025-11-07 12:28:04.325603,-1,2025-11-07 12:28:08.594060538
2025-11-07 12:28:04.325603,-198,2025-11-07 12:28:08.601752846
2025-11-07 12:28:04.325603,15103,2025-11-07 12:28:08.609445154
2025-11-07 12:28:04.325603,-1,2025-11-07 12:28:08.617137462
2025-11-07 12:28:04.325603,-177,2025-11-07 12:28:08.624829769
2025-11-07 12:28:04.325603,25855,2025-11-07 12:28:08.632522077
2025-11-07 12:28:04.325603,-1,2025-11-07 12:28:08.640214385
2025-11-07 12:28:04.325603,-144,2025-11-07 12:28:08.647906692
2025-11-07 12:28:04.325603,28927,2025-11-07 12:28:08.655599000
2025-11-07 12:28:04.325603,-1,2025-11-07 12:28:08.663291308
2025-11-07 12:28:04.325603,-139,2025-11-07 12:28:08.670983615
2025-11-07 12:28:04.325603,-29953,2025-11-07 12:28:08.678675923
2025-11-07 12:28:04.325603,-1,2025-11-07 12:28:08.686368231
2025-11-07 12:28:04.325603,-111,2025-11-07 12:28:08.694060538
2025-11-07 12:28:04.325603,-29441,2025-11-07 12:28:08.701752846
2025-11-07 12:28:04.325603,-1,2025-11-07 12:28:08.709445154
2025-11-07 12:28:04.325603,-113,2025-11-07 12:28:08.717137462
2025-11-07 12:28:04.325603,-27393,2025-11-07 12:28:08.724829769
2025-11-07 12:28:04.325603,-1,2025-11-07 12:28:08.732522077
2025-11-07 12:28:04.325603,-101,2025-11-07 12:28:08.740214385
2025-11-07 12:28:04.325603,-24577,2025-11-07 12:28:08.747906692
2025-11-07 12:28:04.325603,-1,2025-11-07 12:28:08.755599000
2025-11-07 12:28:04.325603,-87,2025-11-07 12:28:08.763291308
2025-11-07 12:28:04.325603,-20737,2025-11-07 12:28:08.770983615
2025-11-07 12:28:04.325603,-1,2025-11-07 12:28:08.778675923
2025-11-07 12:28:04.325603,-89,2025-11-07 12:28:08.786368231
2025-11-07 12:28:04.325603,-20225,2025-11-07 12:28:08.794060538
2025-11-07 12:28:04.325603,-1,2025-11-07 12:28:08.801752846
2025-11-07 12:28:04.325603,-75,2025-11-07 12:28:08.809445154
2025-11-07 12:28:04.325603,-22017,2025-11-07 12:28:08.817137462
2025-11-07 12:28:04.325603,-1,2025-11-07 12:28:08.824829769
2025-11-07 12:28:04.325603,-82,2025-11-07 12:28:08.832522077
2025-11-07 12:28:04.325603,-19713,2025-11-07 12:28:08.840214385
2025-11-07 12:28:04.325603,-1,2025-11-07 12:28:08.847906692
2025-11-07 12:28:04.325603,-80,2025-11-07 12:28:08.855599000
2025-11-07 12:28:04.325603,-20225,2025-11-07 12:28:08.863291308
2025-11-07 12:28:04.325603,-1,2025-11-07 12:28:08.870983615
2025-11-07 12:28:04.325603,-75,2025-11-07 12:28:08.878675923
2025-11-07 12:28:04.325603,-18433,2025-11-07 12:28:08.886368231
2025-11-07 12:28:04.325603,-1,2025-11-07 12:28:08.894060538
2025-11-07 12:28:04.325603,-92,2025-11-07 12:28:08.901752846
2025-11-07 12:28:04.325603,-26881,2025-11-07 12:28:08.909445154
2025-11-07 12:28:04.325603,-1,2025-11-07 12:28:08.917137462
2025-11-07 12:28:04.325603,-101,2025-11-07 12:28:08.924829769
2025-11-07 12:28:04.325603,-25601,2025-11-07 12:28:08.932522077
2025-11-07 12:28:04.325603,-1,2025-11-07 12:28:08.940214385
2025-11-07 12:28:04.325603,-80,2025-11-07 12:28:08.947906692
2025-11-07 12:28:04.325603,-11777,2025-11-07 12:28:08.955599000
2025-11-07 12:28:04.325603,-1,2025-11-07 12:28:08.963291308
2025-11-07 12:28:04.325603,-33,2025-11-07 12:28:08.970983615
2025-11-07 12:28:04.325603,-2561,2025-11-07 12:28:08.978675923
2025-11-07 12:28:04.325603,-1,2025-11-07 12:28:08.986368231
2025-11-07 12:28:04.325603,-2,2025-11-07 12:28:08.994060538
2025-11-07 12:28:04.325603,-3329,2025-11-07 12:28:09.001752846
2025-11-07 12:28:04.325603,-1,2025-11-07 12:28:09.009445154
2025-11-07 12:28:04.325603,-21,2025-11-07 12:28:09.017137462
2025-11-07 12:28:04.325603,-5633,2025-11-07 12:28:09.024829769
2025-11-07 12:28:04.325603,-1,2025-11-07 12:28:09.032522077
2025-11-07 12:28:04.325603,-26,2025-11-07 12:28:09.040214385
2025-11-07 12:28:04.325603,-14849,2025-11-07 12:28:09.047906692
2025-11-07 12:28:04.325603,-1,2025-11-07 12:28:09.055599000
2025-11-07 12:28:04.325603,-132,2025-11-07 12:28:09.063291308
2025-11-07 12:28:04.325603,-28161,2025-11-07 12:28:09.070983615
2025-11-07 12:28:04.325603,-1,2025-11-07 12:28:09.078675923
2025-11-07 12:28:04.325603,191,2025-11-07 12:28:09.086368231
2025-11-07 12:28:04.325603,32512,2025-11-07 12:28:09.094060538
2025-11-07 12:28:04.325603,2,2025-11-07 12:28:09.101752846
2025-11-07 12:28:04.325603,852,2025-11-07 12:28:09.109445154
2025-11-07 12:28:04.325603,7680,2025-11-07 12:28:09.117137462
2025-11-07 12:28:04.325603,2,2025-11-07 12:28:09.124829769
2025-11-07 12:28:04.325603,-123,2025-11-07 12:28:09.132522077
2025-11-07 12:28:04.325603,-10497,2025-11-07 12:28:09.140214385
2025-11-07 12:28:04.325603,-2,2025-11-07 12:28:09.147906692
2025-11-07 12:28:04.325603,123,2025-11-07 12:28:09.155599000
2025-11-07 12:28:04.325603,-18432,2025-11-07 12:28:09.163291308
2025-11-07 12:28:04.325603,0,2025-11-07 12:28:09.170983615
2025-11-07 12:28:04.325603,-56,2025-11-07 12:28:09.178675923
2025-11-07 12:28:04.325603,-8705,2025-11-07 12:28:09.186368231
2025-11-07 12:28:04.325603,-1,2025-11-07 12:28:09.194060538
2025-11-07 12:28:04.325603,26,2025-11-07 12:28:09.201752846
2025-11-07 12:28:04.325603,-7680,2025-11-07 12:28:09.209445154
2025-11-07 12:28:04.325603,-1,2025-11-07 12:28:09.217137462
2025-11-07 12:28:04.325603,-28,2025-11-07 12:28:09.224829769
2025-11-07 12:28:04.325603,767,2025-11-07 12:28:09.232522077
2025-11-07 12:28:04.325603,0,2025-11-07 12:28:09.240214385
2025-11-07 12:28:04.325603,-9,2025-11-07 12:28:09.247906692
2025-11-07 12:28:04.325603,-2561,2025-11-07 12:28:09.255599000
2025-11-07 12:28:04.325603,-1,2025-11-07 12:28:09.263291308
2025-11-07 12:28:04.325603,7,2025-11-07 12:28:09.270983615
2025-11-07 12:28:04.325603,5376,2025-11-07 12:28:09.278675923
2025-11-07 12:28:04.325603,0,2025-11-07 12:28:09.286368231
2025-11-07 12:28:04.325603,30,2025-11-07 12:28:09.294060538
2025-11-07 12:28:04.325603,12544,2025-11-07 12:28:09.301752846
2025-11-07 12:28:04.325603,0,2025-11-07 12:28:09.309445154
2025-11-07 12:28:04.325603,71,2025-11-07 12:28:09.317137462
2025-11-07 12:28:04.325603,21760,2025-11-07 12:28:09.324829769
2025-11-07 12:28:04.325603,0,2025-11-07 12:28:09.332522077
2025-11-07 12:28:04.325603,111,2025-11-07 12:28:09.340214385
2025-11-07 12:28:04.325603,-29952,2025-11-07 12:28:09.347906692
2025-11-07 12:28:04.325603,0,2025-11-07 12:28:09.355599000
2025-11-07 12:28:04.325603,168,2025-11-07 12:28:09.363291308
2025-11-07 12:28:04.896617,203,2025-11-07 12:28:09.370983615
2025-11-07 12:28:04.896617,-5632,2025-11-07 12:28:09.378675923
2025-11-07 12:28:04.896617,0,2025-11-07 12:28:09.386368231
2025-11-07 12:28:04.896617,269,2025-11-07 12:28:09.394060538
2025-11-07 12:28:04.896617,11264,2025-11-07 12:28:09.401752846
2025-11-07 12:28:04.896617,1,2025-11-07 12:28:09.409445154
2025-11-07 12:28:04.896617,322,2025-11-07 12:28:09.417137462
2025-11-07 12:28:04.896617,24064,2025-11-07 12:28:09.424829769
2025-11-07 12:28:04.896617,1,2025-11-07 12:28:09.432522077
2025-11-07 12:28:04.896617,378,2025-11-07 12:28:09.440214385
2025-11-07 12:28:04.896617,28928,2025-11-07 12:28:09.447906692
2025-11-07 12:28:04.896617,1,2025-11-07 12:28:09.455599000
2025-11-07 12:28:04.896617,307,2025-11-07 12:28:09.463291308
2025-11-07 12:28:04.896617,-11776,2025-11-07 12:28:09.470983615
2025-11-07 12:28:04.896617,0,2025-11-07 12:28:09.478675923
2025-11-07 12:28:04.896617,99,2025-11-07 12:28:09.486368230
2025-11-07 12:28:04.896617,-4096,2025-11-07 12:28:09.494060538
2025-11-07 12:28:04.896617,-1,2025-11-07 12:28:09.501752846
2025-11-07 12:28:04.896617,-116,2025-11-07 12:28:09.509445154
2025-11-07 12:28:04.896617,20991,2025-11-07 12:28:09.517137462
2025-11-07 12:28:04.896617,-1,2025-11-07 12:28:09.524829769
2025-11-07 12:28:04.896617,-220,2025-11-07 12:28:09.532522077
2025-11-07 12:28:04.896617,2815,2025-11-07 12:28:09.540214385
2025-11-07 12:28:04.896617,-1,2025-11-07 12:28:09.547906692
2025-11-07 12:28:04.896617,-253,2025-11-07 12:28:09.555599000
2025-11-07 12:28:04.896617,1535,2025-11-07 12:28:09.563291308
2025-11-07 12:28:04.896617,-1,2025-11-07 12:28:09.570983615
2025-11-07 12:28:04.896617,-236,2025-11-07 12:28:09.578675923
2025-11-07 12:28:04.896617,7167,2025-11-07 12:28:09.586368231
2025-11-07 12:28:04.896617,-1,2025-11-07 12:28:09.594060538
2025-11-07 12:28:04.896617,-222,2025-11-07 12:28:09.601752846
2025-11-07 12:28:04.896617,13055,2025-11-07 12:28:09.609445154
2025-11-07 12:28:04.896617,-1,2025-11-07 12:28:09.617137462
2025-11-07 12:28:04.896617,-194,2025-11-07 12:28:09.624829769
2025-11-07 12:28:04.896617,19199,2025-11-07 12:28:09.632522077
2025-11-07 12:28:04.896617,-1,2025-11-07 12:28:09.640214385
2025-11-07 12:28:04.896617,-172,2025-11-07 12:28:09.647906692
2025-11-07 12:28:04.896617,24063,2025-11-07 12:28:09.655599000
2025-11-07 12:28:04.896617,-1,2025-11-07 12:28:09.663291308
2025-11-07 12:28:04.896617,-153,2025-11-07 12:28:09.670983615
2025-11-07 12:28:04.896617,27135,2025-11-07 12:28:09.678675923
2025-11-07 12:28:04.896617,-1,2025-11-07 12:28:09.686368231
2025-11-07 12:28:04.896617,-146,2025-11-07 12:28:09.694060538
2025-11-07 12:28:04.896617,30719,2025-11-07 12:28:09.701752846
2025-11-07 12:28:04.896617,-1,2025-11-07 12:28:09.709445154
2025-11-07 12:28:04.896617,-130,2025-11-07 12:28:09.717137462
2025-11-07 12:28:04.896617,-31233,2025-11-07 12:28:09.724829769
2025-11-07 12:28:04.896617,-1,2025-11-07 12:28:09.732522077
2025-11-07 12:28:04.896617,-118,2025-11-07 12:28:09.740214385
2025-11-07 12:28:04.896617,-28161,2025-11-07 12:28:09.747906692
2025-11-07 12:28:04.896617,-1,2025-11-07 12:28:09.755599000
2025-11-07 12:28:04.896617,-99,2025-11-07 12:28:09.763291308
2025-11-07 12:28:04.896617,-23809,2025-11-07 12:28:09.770983615
2025-11-07 12:28:04.896617,-1,2025-11-07 12:28:09.778675923
2025-11-07 12:28:04.896617,-94,2025-11-07 12:28:09.786368231
2025-11-07 12:28:04.896617,-25089,2025-11-07 12:28:09.794060538
2025-11-07 12:28:04.896617,-1,2025-11-07 12:28:09.801752846
2025-11-07 12:28:04.896617,-85,2025-11-07 12:28:09.809445154
2025-11-07 12:28:04.896617,-17921,2025-11-07 12:28:09.817137462
2025-11-07 12:28:04.896617,-1,2025-11-07 12:28:09.824829769
2025-11-07 12:28:04.896617,-97,2025-11-07 12:28:09.832522077
2025-11-07 12:28:04.896617,-29441,2025-11-07 12:28:09.840214385
2025-11-07 12:28:04.896617,-1,2025-11-07 12:28:09.847906692
2025-11-07 12:28:04.896617,-99,2025-11-07 12:28:09.855599000
2025-11-07 12:28:04.896617,-25089,2025-11-07 12:28:09.863291308
2025-11-07 12:28:04.896617,-1,2025-11-07 12:28:09.870983615
2025-11-07 12:28:04.896617,-85,2025-11-07 12:28:09.878675923
2025-11-07 12:28:04.896617,-8705,2025-11-07 12:28:09.886368231
2025-11-07 12:28:04.896617,-1,2025-11-07 12:28:09.894060538
2025-11-07 12:28:04.896617,-9,2025-11-07 12:28:09.901752846
2025-11-07 12:28:04.896617,-769,2025-11-07 12:28:09.909445154
2025-11-07 12:28:04.896617,-1,2025-11-07 12:28:09.917137462
2025-11-07 12:28:04.896617,11,2025-11-07 12:28:09.924829769
2025-11-07 12:28:04.896617,4096,2025-11-07 12:28:09.932522077
2025-11-07 12:28:04.896617,0,2025-11-07 12:28:09.940214385
2025-11-07 12:28:04.896617,-2,2025-11-07 12:28:09.947906692
2025-11-07 12:28:04.896617,-769,2025-11-07 12:28:09.955599000
2025-11-07 12:28:04.896617,-1,2025-11-07 12:28:09.963291308
2025-11-07 12:28:04.896617,4,2025-11-07 12:28:09.970983615
2025-11-07 12:28:04.896617,-3584,2025-11-07 12:28:09.978675923
2025-11-07 12:28:04.896617,-1,2025-11-07 12:28:09.986368231
2025-11-07 12:28:04.896617,-80,2025-11-07 12:28:09.994060538
2025-11-07 12:28:04.896617,-24577,2025-11-07 12:28:10.001752846
2025-11-07 12:28:04.896617,-1,2025-11-07 12:28:10.009445154
2025-11-07 12:28:04.896617,132,2025-11-07 12:28:10.017137462
2025-11-07 12:28:04.896617,14848,2025-11-07 12:28:10.024829769
2025-11-07 12:28:04.896617,2,2025-11-07 12:28:10.032522077
2025-11-07 12:28:04.896617,866,2025-11-07 12:28:10.040214385
2025-11-07 12:28:04.896617,-18432,2025-11-07 12:28:10.047906692
2025-11-07 12:28:04.896617,2,2025-11-07 12:28:10.055599000
2025-11-07 12:28:04.896617,75,2025-11-07 12:28:10.063291308
2025-11-07 12:28:04.896617,8704,2025-11-07 12:28:10.070983615
2025-11-07 12:28:04.896617,-1,2025-11-07 12:28:10.078675923
2025-11-07 12:28:04.896617,125,2025-11-07 12:28:10.086368231
2025-11-07 12:28:04.896617,-3328,2025-11-07 12:28:10.094060538
2025-11-07 12:28:04.896617,0,2025-11-07 12:28:10.101752846
2025-11-07 12:28:04.896617,11,2025-11-07 12:28:10.109445154
2025-11-07 12:28:04.896617,-1024,2025-11-07 12:28:10.117137462
2025-11-07 12:28:04.896617,-1,2025-11-07 12:28:10.124829769
2025-11-07 12:28:04.896617,56,2025-11-07 12:28:10.132522077
2025-11-07 12:28:04.896617,2304,2025-11-07 12:28:10.140214385
2025-11-07 12:28:04.896617,0,2025-11-07 12:28:10.147906692
2025-11-07 12:28:04.896617,9,2025-11-07 12:28:10.155599000
2025-11-07 12:28:04.896617,12032,2025-11-07 12:28:10.163291308
2025-11-07 12:28:04.896617,0,2025-11-07 12:28:10.170983615
2025-11-07 12:28:04.896617,49,2025-11-07 12:28:10.178675923
2025-11-07 12:28:04.896617,11264,2025-11-07 12:28:10.186368231
2025-11-07 12:28:04.896617,0,2025-11-07 12:28:10.194060538
2025-11-07 12:28:04.896617,61,2025-11-07 12:28:10.201752846
2025-11-07 12:28:05.435745,80,2025-11-07 12:28:10.209445154
2025-11-07 12:28:05.435745,22272,2025-11-07 12:28:10.217137462
2025-11-07 12:28:05.435745,0,2025-11-07 12:28:10.224829769
2025-11-07 12:28:05.435745,104,2025-11-07 12:28:10.232522077
2025-11-07 12:28:05.435745,-31744,2025-11-07 12:28:10.240214385
2025-11-07 12:28:05.435745,0,2025-11-07 12:28:10.247906692
2025-11-07 12:28:05.435745,156,2025-11-07 12:28:10.255599000
2025-11-07 12:28:05.435745,-20224,2025-11-07 12:28:10.263291308
2025-11-07 12:28:05.435745,0,2025-11-07 12:28:10.270983615
2025-11-07 12:28:05.435745,210,2025-11-07 12:28:10.278675923
2025-11-07 12:28:05.435745,1024,2025-11-07 12:28:10.286368231
2025-11-07 12:28:05.435745,1,2025-11-07 12:28:10.294060538
2025-11-07 12:28:05.435745,307,2025-11-07 12:28:10.301752846
2025-11-07 12:28:05.435745,20992,2025-11-07 12:28:10.309445154
2025-11-07 12:28:05.435745,1,2025-11-07 12:28:10.317137462
2025-11-07 12:28:05.435745,371,2025-11-07 12:28:10.324829769
2025-11-07 12:28:05.435745,-26368,2025-11-07 12:28:10.332522077
2025-11-07 12:28:05.435745,1,2025-11-07 12:28:10.340214385
2025-11-07 12:28:05.435745,435,2025-11-07 12:28:10.347906692
2025-11-07 12:28:05.435745,-13568,2025-11-07 12:28:10.355599000
2025-11-07 12:28:05.435745,1,2025-11-07 12:28:10.363291308
2025-11-07 12:28:05.435745,466,2025-11-07 12:28:10.370983615
2025-11-07 12:28:05.435745,-14080,2025-11-07 12:28:10.378675923
2025-11-07 12:28:05.435745,1,2025-11-07 12:28:10.386368231
2025-11-07 12:28:05.435745,407,2025-11-07 12:28:10.394060538
2025-11-07 12:28:05.435745,13824,2025-11-07 12:28:10.401752846
2025-11-07 12:28:05.435745,1,2025-11-07 12:28:10.409445154
2025-11-07 12:28:05.435745,201,2025-11-07 12:28:10.417137462
2025-11-07 12:28:05.435745,22272,2025-11-07 12:28:10.424829769
2025-11-07 12:28:05.435745,0,2025-11-07 12:28:10.432522077
2025-11-07 12:28:05.435745,-11,2025-11-07 12:28:10.440214385
2025-11-07 12:28:05.435745,-20225,2025-11-07 12:28:10.447906692
2025-11-07 12:28:05.435745,-1,2025-11-07 12:28:10.455599000
2025-11-07 12:28:05.435745,-125,2025-11-07 12:28:10.463291308
2025-11-07 12:28:05.435745,28415,2025-11-07 12:28:10.470983615
2025-11-07 12:28:05.435745,-1,2025-11-07 12:28:10.478675923
2025-11-07 12:28:05.435745,-161,2025-11-07 12:28:10.486368230
2025-11-07 12:28:05.435745,23551,2025-11-07 12:28:10.494060538
2025-11-07 12:28:05.435745,-1,2025-11-07 12:28:10.501752846
2025-11-07 12:28:05.435745,-158,2025-11-07 12:28:10.509445154
2025-11-07 12:28:05.435745,27135,2025-11-07 12:28:10.517137462
2025-11-07 12:28:05.435745,-1,2025-11-07 12:28:10.524829769
2025-11-07 12:28:05.435745,-142,2025-11-07 12:28:10.532522077
2025-11-07 12:28:05.435745,32511,2025-11-07 12:28:10.540214385
2025-11-07 12:28:05.435745,-1,2025-11-07 12:28:10.547906692
2025-11-07 12:28:05.435745,-123,2025-11-07 12:28:10.555599000
2025-11-07 12:28:05.435745,-28161,2025-11-07 12:28:10.563291308
2025-11-07 12:28:05.435745,-1,2025-11-07 12:28:10.570983615
2025-11-07 12:28:05.435745,-106,2025-11-07 12:28:10.578675923
2025-11-07 12:28:05.435745,-25601,2025-11-07 12:28:10.586368231
2025-11-07 12:28:05.435745,-1,2025-11-07 12:28:10.594060538
2025-11-07 12:28:05.435745,-87,2025-11-07 12:28:10.601752846
2025-11-07 12:28:05.435745,-20225,2025-11-07 12:28:10.609445154
2025-11-07 12:28:05.435745,-1,2025-11-07 12:28:10.617137462
2025-11-07 12:28:05.435745,-75,2025-11-07 12:28:10.624829769
2025-11-07 12:28:05.435745,-18945,2025-11-07 12:28:10.632522077
2025-11-07 12:28:05.435745,-1,2025-11-07 12:28:10.640214385
2025-11-07 12:28:05.435745,-73,2025-11-07 12:28:10.647906692
2025-11-07 12:28:05.435745,-15873,2025-11-07 12:28:10.655599000
2025-11-07 12:28:05.435745,-1,2025-11-07 12:28:10.663291308
2025-11-07 12:28:05.435745,-56,2025-11-07 12:28:10.670983615
2025-11-07 12:28:05.435745,-13569,2025-11-07 12:28:10.678675923
2025-11-07 12:28:05.435745,-1,2025-11-07 12:28:10.686368231
2025-11-07 12:28:05.435745,-56,2025-11-07 12:28:10.694060538
2025-11-07 12:28:05.435745,-14081,2025-11-07 12:28:10.701752846
2025-11-07 12:28:05.435745,-1,2025-11-07 12:28:10.709445154
2025-11-07 12:28:05.435745,-49,2025-11-07 12:28:10.717137462
2025-11-07 12:28:05.435745,-12289,2025-11-07 12:28:10.724829769
2025-11-07 12:28:05.435745,-1,2025-11-07 12:28:10.732522077
2025-11-07 12:28:05.435745,-47,2025-11-07 12:28:10.740214385
2025-11-07 12:28:05.435745,-9985,2025-11-07 12:28:10.747906692
2025-11-07 12:28:05.435745,-1,2025-11-07 12:28:10.755599000
2025-11-07 12:28:05.435745,-49,2025-11-07 12:28:10.763291308
2025-11-07 12:28:05.435745,-15361,2025-11-07 12:28:10.770983615
2025-11-07 12:28:05.435745,-1,2025-11-07 12:28:10.778675923
2025-11-07 12:28:05.435745,-66,2025-11-07 12:28:10.786368231
2025-11-07 12:28:05.435745,-17921,2025-11-07 12:28:10.794060538
2025-11-07 12:28:05.435745,-1,2025-11-07 12:28:10.801752846
2025-11-07 12:28:05.435745,-56,2025-11-07 12:28:10.809445154
2025-11-07 12:28:05.435745,-6401,2025-11-07 12:28:10.817137462
2025-11-07 12:28:05.435745,-1,2025-11-07 12:28:10.824829769
2025-11-07 12:28:05.435745,0,2025-11-07 12:28:10.832522077
2025-11-07 12:28:05.435745,3584,2025-11-07 12:28:10.840214385
2025-11-07 12:28:05.435745,0,2025-11-07 12:28:10.847906692
2025-11-07 12:28:05.435745,21,2025-11-07 12:28:10.855599000
2025-11-07 12:28:05.435745,5376,2025-11-07 12:28:10.863291308
2025-11-07 12:28:05.435745,0,2025-11-07 12:28:10.870983615
2025-11-07 12:28:05.435745,7,2025-11-07 12:28:10.878675923
2025-11-07 12:28:05.435745,512,2025-11-07 12:28:10.886368231
2025-11-07 12:28:05.435745,0,2025-11-07 12:28:10.894060538
2025-11-07 12:28:05.435745,9,2025-11-07 12:28:10.901752846
2025-11-07 12:28:05.435745,-2304,2025-11-07 12:28:10.909445154
2025-11-07 12:28:05.435745,-1,2025-11-07 12:28:10.917137462
2025-11-07 12:28:05.435745,-61,2025-11-07 12:28:10.924829769
2025-11-07 12:28:05.435745,-29953,2025-11-07 12:28:10.932522077
2025-11-07 12:28:05.435745,-1,2025-11-07 12:28:10.940214385
2025-11-07 12:28:05.435745,4,2025-11-07 12:28:10.947906692
2025-11-07 12:28:05.435745,-28672,2025-11-07 12:28:10.955599000
2025-11-07 12:28:05.435745,1,2025-11-07 12:28:10.963291308
2025-11-07 12:28:05.435745,795,2025-11-07 12:28:10.970983615
2025-11-07 12:28:05.435745,14848,2025-11-07 12:28:10.978675923
2025-11-07 12:28:05.435745,3,2025-11-07 12:28:10.986368231
2025-11-07 12:28:05.435745,291,2025-11-07 12:28:10.994060538
2025-11-07 12:28:05.435745,4352,2025-11-07 12:28:11.001752846
