timestamp,ecg
19:40:09.987519,117
19:40:09.987519,28160
19:40:09.987519,0
19:40:09.987519,127
19:40:09.987519,-29952
19:40:09.987519,0
19:40:09.987519,90
19:40:09.987519,17920
19:40:09.987519,0
19:40:09.987519,95
19:40:09.987519,12288
19:40:09.987519,0
19:40:09.987519,22
19:40:09.987519,17920
19:40:09.987519,0
19:40:09.987519,78
19:40:09.987519,7936
19:40:09.987519,0
19:40:09.987519,-14
19:40:09.987519,-4609
19:40:09.987519,-1
19:40:09.987519,4
19:40:09.987519,-1024
19:40:09.987519,-1
19:40:09.987519,-24
19:40:09.987519,-4609
19:40:09.987519,-1
19:40:09.987519,-44
19:40:09.987519,-22273
19:40:09.987519,-1
19:40:09.987519,-105
19:40:09.987519,-24577
19:40:09.987519,-1
19:40:09.987519,-61
19:40:09.987519,-4609
19:40:09.987519,-1
19:40:09.987519,17
19:40:09.987519,13056
19:40:09.987519,0
19:40:09.987519,68
19:40:09.987519,21248
19:40:09.987519,0
19:40:09.987519,83
19:40:09.987519,17408
19:40:09.987519,0
19:40:09.987519,68
19:40:09.987519,16896
19:40:09.987519,0
19:40:09.987519,53
19:40:09.987519,13056
19:40:09.987519,0
19:40:09.987519,63
19:40:09.987519,18688
19:40:09.987519,0
19:40:09.987519,70
19:40:09.987519,11776
19:40:09.987519,0
19:40:09.987519,26
19:40:09.987519,12288
19:40:09.987519,0
19:40:09.987519,56
19:40:09.987519,7936
19:40:09.987519,0
19:40:09.987519,29
19:40:09.987519,6656
19:40:09.987519,0
19:40:09.987519,22
19:40:09.987519,7936
19:40:09.987519,0
19:40:09.987519,12
19:40:09.987519,-6144
19:40:09.987519,-1
19:40:09.987519,-12
19:40:09.987519,3839
19:40:09.987519,0
19:40:09.987519,2
19:40:09.987519,-3584
19:40:09.987519,-1
19:40:09.987519,-9
19:40:09.987519,-1537
19:40:09.987519,-1
19:40:09.987519,-17
19:40:09.987519,-2049
19:40:09.987519,-1
19:40:09.987519,2
19:40:09.987519,-1024
19:40:09.987519,-1
19:40:09.987519,-17
19:40:09.987519,-4097
19:40:09.987519,-1
19:40:09.987519,-4
19:40:09.987519,255
19:40:09.987519,0
19:40:09.987519,-7
19:40:09.987519,-1537
19:40:09.987519,-1
19:40:09.987519,2
19:40:09.987519,6656
19:40:09.987519,0
19:40:09.987519,24
19:40:09.987519,-1792
19:40:09.987519,-1
19:40:09.987519,-9
19:40:09.987519,-1537
19:40:09.987519,-1
19:40:09.987519,-17
19:40:09.987519,-7681
19:40:09.987519,-1
19:40:09.987519,-29
19:40:10.512219,2
19:40:10.512219,4352
19:40:10.512219,0
19:40:10.512219,-7
19:40:10.512219,-3329
19:40:10.512219,-1
19:40:10.512219,-2
19:40:10.512219,-769
19:40:10.512219,-1
19:40:10.512219,-12
19:40:10.512219,-4609
19:40:10.512219,-1
19:40:10.512219,-4
19:40:10.512219,23807
19:40:10.512219,0
19:40:10.512219,281
19:40:10.512219,24576
19:40:10.512219,1
19:40:10.512219,-114
19:40:10.512219,4607
19:40:10.512219,-4
19:40:10.512219,-1599
19:40:10.512219,-5121
19:40:10.512219,-7
19:40:10.512219,-868
19:40:10.512219,-6401
19:40:10.512219,-1
19:40:10.512219,136
19:40:10.512219,3072
19:40:10.512219,0
19:40:10.512219,163
19:40:10.512219,-1792
19:40:10.512219,0
19:40:10.512219,171
19:40:10.512219,-21760
19:40:10.512219,0
19:40:10.512219,212
19:40:10.512219,-16896
19:40:10.512219,0
19:40:10.512219,173
19:40:10.512219,-19968
19:40:10.512219,0
19:40:10.512219,163
19:40:10.512219,-28160
19:40:10.512219,0
19:40:10.512219,146
19:40:10.512219,-28160
19:40:10.512219,0
19:40:10.512219,139
19:40:10.512219,-30720
19:40:10.512219,0
19:40:10.512219,127
19:40:10.512219,29952
19:40:10.512219,0
19:40:10.512219,107
19:40:10.512219,29184
19:40:10.512219,0
19:40:10.512219,117
19:40:10.512219,18688
19:40:10.512219,0
19:40:10.512219,29
19:40:10.512219,7424
19:40:10.512219,0
19:40:10.512219,39
19:40:10.512219,7936
19:40:10.512219,0
19:40:10.512219,12
19:40:10.512219,-1792
19:40:10.512219,-1
19:40:10.512219,-12
19:40:10.512219,2559
19:40:10.512219,0
19:40:10.512219,31
19:40:10.512219,14848
19:40:10.512219,0
19:40:10.512219,95
19:40:10.512219,23040
19:40:10.512219,0
19:40:10.512219,75
19:40:10.512219,21760
19:40:10.512219,0
19:40:10.512219,88
19:40:10.512219,22528
19:40:10.512219,0
19:40:10.512219,92
19:40:10.512219,23040
19:40:10.512219,0
19:40:10.512219,85
19:40:10.512219,19968
19:40:10.512219,0
19:40:10.512219,78
19:40:10.512219,23040
19:40:10.512219,0
19:40:10.512219,88
19:40:10.512219,20480
19:40:10.512219,0
19:40:10.512219,58
19:40:10.512219,11264
19:40:10.512219,0
19:40:10.512219,68
19:40:10.512219,17920
19:40:10.512219,0
19:40:10.512219,51
19:40:10.512219,13568
19:40:10.512219,0
19:40:10.512219,56
19:40:10.512219,11776
19:40:10.512219,0
19:40:10.512219,39
19:40:11.051676,44
19:40:11.051676,10496
19:40:11.051676,0
19:40:11.051676,22
19:40:11.051676,4864
19:40:11.051676,0
19:40:11.051676,26
19:40:11.051676,4352
19:40:11.051676,0
19:40:11.051676,9
19:40:11.051676,3584
19:40:11.051676,0
19:40:11.051676,24
19:40:11.051676,9216
19:40:11.051676,0
19:40:11.051676,46
19:40:11.051676,10496
19:40:11.051676,0
19:40:11.051676,19
19:40:11.051676,3072
19:40:11.051676,0
19:40:11.051676,26
19:40:11.051676,7424
19:40:11.051676,0
19:40:11.051676,24
19:40:11.051676,9216
19:40:11.051676,0
19:40:11.051676,51
19:40:11.051676,14336
19:40:11.051676,0
19:40:11.051676,46
19:40:11.051676,9216
19:40:11.051676,0
19:40:11.051676,36
19:40:11.051676,3072
19:40:11.051676,0
19:40:11.051676,-12
19:40:11.051676,2047
19:40:11.051676,0
19:40:11.051676,19
19:40:11.051676,1024
19:40:11.051676,0
19:40:11.051676,0
19:40:11.051676,512
19:40:11.051676,0
19:40:11.051676,2
19:40:11.051676,-512
19:40:11.051676,-1
19:40:11.051676,-7
19:40:11.051676,-257
19:40:11.051676,-1
19:40:11.051676,22
19:40:11.051676,31744
19:40:11.051676,0
19:40:11.051676,325
19:40:11.051676,18944
19:40:11.051676,1
19:40:11.051676,-308
19:40:11.051676,-22529
19:40:11.051676,-6
19:40:11.051676,-1993
19:40:11.051676,-2817
19:40:11.051676,-8
19:40:11.051676,-914
19:40:11.051676,4607
19:40:11.051676,0
19:40:11.051676,178
19:40:11.051676,13056
19:40:11.051676,0
19:40:11.051676,195
19:40:11.051676,3328
19:40:11.051676,1
19:40:11.051676,198
19:40:11.051676,-18176
19:40:11.051676,0
19:40:11.051676,198
19:40:11.051676,-20480
19:40:11.051676,0
19:40:11.051676,158
19:40:11.051676,-25600
19:40:11.051676,0
19:40:11.051676,154
19:40:11.051676,-25088
19:40:11.051676,0
19:40:11.051676,158
19:40:11.051676,-28160
19:40:11.051676,0
19:40:11.051676,151
19:40:11.051676,-23040
19:40:11.051676,0
19:40:11.051676,134
19:40:11.051676,22528
19:40:11.051676,0
19:40:11.051676,110
19:40:11.051676,31744
19:40:11.051676,0
19:40:11.051676,100
19:40:11.051676,24832
19:40:11.051676,0
19:40:11.051676,92
19:40:11.051676,16896
19:40:11.051676,0
19:40:11.051676,63
19:40:11.051676,14336
19:40:11.051676,0
19:40:11.051676,17
19:40:11.051676,0
19:40:11.051676,0
19:40:11.051676,-2
19:40:11.636140,-7
19:40:11.636140,3327
19:40:11.636140,0
19:40:11.636140,39
19:40:11.636140,13056
19:40:11.636140,0
19:40:11.636140,39
19:40:11.636140,6656
19:40:11.636140,0
19:40:11.636140,56
19:40:11.636140,19200
19:40:11.636140,0
19:40:11.636140,53
19:40:11.636140,9216
19:40:11.636140,0
19:40:11.636140,34
19:40:11.636140,11776
19:40:11.636140,0
19:40:11.636140,63
19:40:11.636140,14336
19:40:11.636140,0
19:40:11.636140,48
19:40:11.636140,15616
19:40:11.636140,0
19:40:11.636140,53
19:40:11.636140,9984
19:40:11.636140,0
19:40:11.636140,56
19:40:11.636140,19200
19:40:11.636140,0
19:40:11.636140,48
19:40:11.636140,2304
19:40:11.636140,0
19:40:11.636140,14
19:40:11.636140,6656
19:40:11.636140,0
19:40:11.636140,12
19:40:11.636140,2304
19:40:11.636140,0
19:40:11.636140,22
19:40:11.636140,5632
19:40:11.636140,0
19:40:11.636140,14
19:40:11.636140,4864
19:40:11.636140,0
19:40:11.636140,-2
19:40:11.636140,-8449
19:40:11.636140,-1
19:40:11.636140,-7
19:40:11.636140,3839
19:40:11.636140,0
19:40:11.636140,4
19:40:11.636140,1024
19:40:11.636140,0
19:40:11.636140,-19
19:40:11.636140,-6401
19:40:11.636140,-1
19:40:11.636140,31
19:40:11.636140,7936
19:40:11.636140,0
19:40:11.636140,-63
19:40:11.636140,-14081
19:40:11.636140,-1
19:40:11.636140,19
19:40:11.636140,1024
19:40:11.636140,0
19:40:11.636140,-24
19:40:11.636140,-257
19:40:11.636140,-1
19:40:11.636140,2
19:40:11.636140,-1792
19:40:11.636140,-1
19:40:11.636140,9
19:40:11.636140,4352
19:40:11.636140,0
19:40:11.636140,14
19:40:11.636140,4864
19:40:11.636140,0
19:40:11.636140,24
19:40:11.636140,0
19:40:11.636140,0
19:40:11.636140,-24
19:40:11.636140,-7681
19:40:11.636140,-1
19:40:11.636140,-41
19:40:11.636140,-7681
19:40:11.636140,-1
19:40:11.636140,-9
19:40:11.636140,-7681
19:40:11.636140,-1
19:40:11.636140,-36
19:40:11.636140,-2817
19:40:11.636140,-1
19:40:11.636140,-24
19:40:11.636140,-9729
19:40:11.636140,-1
19:40:11.636140,-26
19:40:11.636140,1279
19:40:11.636140,0
19:40:11.636140,146
19:40:11.636140,31488
19:40:11.636140,1
19:40:11.636140,212
19:40:11.636140,22784
19:40:11.636140,-3
19:40:11.636140,-1640
19:40:11.636140,16383
19:40:11.636140,-8
19:40:11.636140,-1640
19:40:12.177381,-648
19:40:12.177381,-24065
19:40:12.177381,0
19:40:12.177381,119
19:40:12.177381,6656
19:40:12.177381,0
19:40:12.177381,227
19:40:12.177381,-3584
19:40:12.177381,0
19:40:12.177381,163
19:40:12.177381,-16128
19:40:12.177381,0
19:40:12.177381,198
19:40:12.177381,-21248
19:40:12.177381,0
19:40:12.177381,185
19:40:12.177381,-19456
19:40:12.177381,0
19:40:12.177381,149
19:40:12.177381,-28160
19:40:12.177381,0
19:40:12.177381,151
19:40:12.177381,-32512
19:40:12.177381,0
19:40:12.177381,117
19:40:12.177381,31232
19:40:12.177381,0
19:40:12.177381,119
19:40:12.177381,29184
19:40:12.177381,0
19:40:12.177381,112
19:40:12.177381,26112
19:40:12.177381,0
19:40:12.177381,95
19:40:12.177381,26112
19:40:12.177381,0
19:40:12.177381,97
19:40:12.177381,14336
19:40:12.177381,0
19:40:12.177381,7
19:40:12.177381,0
19:40:12.177381,0
19:40:12.177381,17
19:40:12.177381,512
19:40:12.177381,0
19:40:12.177381,-22
19:40:12.177381,-2817
19:40:12.177381,-1
19:40:12.177381,14
19:40:12.177381,7936
19:40:12.177381,0
19:40:12.177381,46
19:40:12.177381,14848
19:40:12.177381,0
19:40:12.177381,61
19:40:12.177381,14848
19:40:12.177381,0
19:40:12.177381,66
19:40:12.177381,11776
19:40:12.177381,0
19:40:12.177381,7
19:40:12.177381,3584
19:40:12.177381,0
19:40:12.177381,44
19:40:12.177381,12288
19:40:12.177381,0
19:40:12.177381,39
19:40:12.177381,9984
19:40:12.177381,0
19:40:12.177381,46
19:40:12.177381,11776
19:40:12.177381,0
19:40:12.177381,24
19:40:12.177381,4352
19:40:12.177381,0
19:40:12.177381,36
19:40:12.177381,8704
19:40:12.177381,0
19:40:12.177381,17
19:40:12.177381,6144
19:40:12.177381,0
19:40:12.177381,14
19:40:12.177381,-5632
19:40:12.177381,-1
19:40:12.177381,-12
19:40:12.177381,3839
19:40:12.177381,0
19:40:12.177381,-4
19:40:12.177381,-4097
19:40:12.177381,-1
19:40:12.177381,0
19:40:12.177381,-512
19:40:12.177381,-1
19:40:12.177381,-14
19:40:12.177381,-3329
19:40:12.177381,-1
19:40:12.177381,-12
19:40:12.177381,-3329
19:40:12.177381,-1
19:40:12.177381,-2
19:40:12.177381,255
19:40:12.177381,0
19:40:12.177381,-44
19:40:12.177381,-18945
19:40:12.177381,-1
19:40:12.177381,-41
19:40:12.177381,-2817
19:40:12.177381,-1
19:40:12.177381,-26
19:40:12.716987,-31
19:40:12.716987,-5377
19:40:12.716987,-1
19:40:12.716987,-24
19:40:12.716987,-6401
19:40:12.716987,-1
19:40:12.716987,-4
19:40:12.716987,4607
19:40:12.716987,0
19:40:12.716987,-12
19:40:12.716987,-17153
19:40:12.716987,-1
19:40:12.716987,-51
19:40:12.716987,767
19:40:12.716987,0
19:40:12.716987,-4
19:40:12.716987,-3329
19:40:12.716987,-1
19:40:12.716987,-2
19:40:12.716987,-769
19:40:12.716987,-1
19:40:12.716987,-12
19:40:12.716987,-2817
19:40:12.716987,-1
19:40:12.716987,-9
19:40:12.716987,-2049
19:40:12.716987,-1
19:40:12.716987,-2
19:40:12.716987,5119
19:40:12.716987,0
19:40:12.716987,29
19:40:12.716987,2304
19:40:12.716987,0
19:40:12.716987,4
19:40:12.716987,3072
19:40:12.716987,0
19:40:12.716987,-7
19:40:12.716987,-9729
19:40:12.716987,-1
19:40:12.716987,-41
19:40:12.716987,-4609
19:40:12.716987,-1
19:40:12.716987,-7
19:40:12.716987,-3329
19:40:12.716987,-1
19:40:12.716987,-17
19:40:12.716987,-4097
19:40:12.716987,-1
19:40:12.716987,-14
19:40:12.716987,255
19:40:12.716987,0
19:40:12.716987,-17
19:40:12.716987,-5889
19:40:12.716987,-1
19:40:12.716987,129
19:40:12.716987,28160
19:40:12.716987,1
19:40:12.716987,242
19:40:12.716987,256
19:40:12.716987,-2
19:40:12.716987,-1442
19:40:12.716987,-31745
19:40:12.716987,-8
19:40:12.716987,-1709
19:40:12.716987,-3329
19:40:12.716987,-4
19:40:12.716987,97
19:40:12.716987,-30720
19:40:12.716987,0
19:40:12.716987,2
19:40:12.716987,-16128
19:40:12.716987,0
19:40:12.716987,246
19:40:12.716987,-26880
19:40:12.716987,0
19:40:12.716987,171
19:40:12.716987,-17408
19:40:12.716987,0
19:40:12.716987,139
19:40:12.716987,-31744
19:40:12.716987,0
19:40:12.716987,144
19:40:12.716987,32512
19:40:12.716987,0
19:40:12.716987,114
19:40:12.716987,29952
19:40:12.716987,0
19:40:12.716987,112
19:40:12.716987,25600
19:40:12.716987,0
19:40:12.716987,102
19:40:12.716987,24320
19:40:12.716987,0
19:40:12.716987,73
19:40:12.716987,15616
19:40:12.716987,0
19:40:12.716987,56
19:40:12.716987,13568
19:40:12.716987,0
19:40:12.716987,46
19:40:12.716987,6144
19:40:12.716987,0
19:40:12.716987,17
19:40:12.716987,2304
19:40:12.716987,0
19:40:12.716987,-22
19:40:12.716987,-9729
19:40:12.716987,-1
19:40:12.716987,-36
19:40:13.346361,-41
19:40:13.346361,-9729
19:40:13.346361,-1
19:40:13.346361,-19
19:40:13.346361,2559
19:40:13.346361,0
19:40:13.346361,39
19:40:13.346361,15616
19:40:13.346361,0
19:40:13.346361,75
19:40:13.346361,19200
19:40:13.346361,0
19:40:13.346361,61
19:40:13.346361,15616
19:40:13.346361,0
19:40:13.346361,68
19:40:13.346361,16128
19:40:13.346361,0
19:40:13.346361,58
19:40:13.346361,14336
19:40:13.346361,0
19:40:13.346361,61
19:40:13.346361,17920
19:40:13.346361,0
19:40:13.346361,41
19:40:13.346361,3584
19:40:13.346361,0
19:40:13.346361,29
19:40:13.346361,7936
19:40:13.346361,0
19:40:13.346361,24
19:40:13.346361,10496
19:40:13.346361,0
19:40:13.346361,61
19:40:13.346361,6656
19:40:13.346361,0
19:40:13.346361,-12
19:40:13.346361,3327
19:40:13.346361,0
19:40:13.346361,17
19:40:13.346361,512
19:40:13.346361,0
19:40:13.346361,19
19:40:13.346361,4864
19:40:13.346361,0
19:40:13.346361,-4
19:40:13.346361,-257
19:40:13.346361,-1
19:40:13.346361,2
19:40:13.346361,-2304
19:40:13.346361,-1
19:40:13.346361,-14
19:40:13.346361,-4609
19:40:13.346361,-1
19:40:13.346361,-26
19:40:13.346361,-769
19:40:13.346361,-1
19:40:13.346361,4
19:40:13.346361,-4864
19:40:13.346361,-1
19:40:13.346361,-22
19:40:13.346361,-5377
19:40:13.346361,-1
19:40:13.346361,-34
19:40:13.346361,-4609
19:40:13.346361,-1
19:40:13.346361,-14
19:40:13.346361,-5889
19:40:13.346361,-1
19:40:13.346361,4
19:40:13.346361,5632
19:40:13.346361,0
19:40:13.346361,-4
19:40:13.346361,-4609
19:40:13.346361,-1
19:40:13.346361,-26
19:40:13.346361,-7681
19:40:13.346361,-1
19:40:13.346361,-22
19:40:13.346361,-5377
19:40:13.346361,-1
19:40:13.346361,-34
19:40:13.346361,-10241
19:40:13.346361,-1
19:40:13.346361,-26
19:40:13.346361,-2817
19:40:13.346361,-1
19:40:13.346361,-12
19:40:13.346361,-5889
19:40:13.346361,-1
19:40:13.346361,-29
19:40:13.346361,-9729
19:40:13.346361,-1
19:40:13.346361,-66
19:40:13.346361,-13313
19:40:13.346361,-1
19:40:13.346361,-26
19:40:13.346361,-6401
19:40:13.346361,-1
19:40:13.346361,-22
19:40:13.346361,-769
19:40:13.346361,-1
19:40:13.346361,-4
19:40:13.346361,-2049
19:40:13.346361,-1
19:40:13.346361,-31
19:40:13.346361,-15873
19:40:13.346361,-1
19:40:13.346361,-63
19:40:13.886362,-41
19:40:13.886362,-7169
19:40:13.886362,-1
19:40:13.886362,-29
19:40:13.886362,-5377
19:40:13.886362,-1
19:40:13.886362,-9
19:40:13.886362,-8961
19:40:13.886362,-1
19:40:13.886362,-61
19:40:13.886362,-8449
19:40:13.886362,-1
19:40:13.886362,-12
19:40:13.886362,12543
19:40:13.886362,0
19:40:13.886362,254
19:40:13.886362,24576
19:40:13.886362,1
19:40:13.886362,-129
19:40:13.886362,6399
19:40:13.886362,-4
19:40:13.886362,-1494
19:40:13.886362,-19457
19:40:13.886362,-6
19:40:13.886362,-740
19:40:13.886362,-21505
19:40:13.886362,-1
19:40:13.886362,34
19:40:13.886362,-1792
19:40:13.886362,-1
19:40:13.886362,158
19:40:13.886362,-16896
19:40:13.886362,0
19:40:13.886362,100
19:40:13.886362,-31744
19:40:13.886362,0
19:40:13.886362,154
19:40:13.886362,24320
19:40:13.886362,0
19:40:13.886362,97
19:40:13.886362,31232
19:40:13.886362,0
19:40:13.886362,92
19:40:13.886362,21248
19:40:13.886362,0
19:40:13.886362,102
19:40:13.886362,20480
19:40:13.886362,0
19:40:13.886362,53
19:40:13.886362,17920
19:40:13.886362,0
19:40:13.886362,51
19:40:13.886362,-1024
19:40:13.886362,-1
19:40:13.886362,7
19:40:13.886362,5632
19:40:13.886362,0
19:40:13.886362,-14
19:40:13.886362,-7681
19:40:13.886362,-1
19:40:13.886362,-41
19:40:13.886362,-18433
19:40:13.886362,-1
19:40:13.886362,-97
19:40:13.886362,-32257
19:40:13.886362,-1
19:40:13.886362,-146
19:40:13.886362,31999
19:40:13.886362,-1
19:40:13.886362,-129
19:40:13.886362,30975
19:40:13.886362,-1
19:40:13.886362,-102
19:40:13.886362,-5889
19:40:13.886362,-1
19:40:13.886362,29
19:40:13.886362,0
19:40:13.886362,0
19:40:13.886362,-39
19:40:13.886362,-1537
19:40:13.886362,-1
19:40:13.886362,4
19:40:13.886362,-4352
19:40:13.886362,-1
19:40:13.886362,2
19:40:13.886362,6656
19:40:13.886362,0
19:40:13.886362,26
19:40:13.886362,9216
19:40:13.886362,0
19:40:13.886362,56
19:40:13.886362,23040
19:40:13.886362,0
19:40:13.886362,114
19:40:13.886362,26112
19:40:13.886362,0
19:40:13.886362,97
19:40:13.886362,27392
19:40:13.886362,0
19:40:13.886362,95
19:40:13.886362,21248
19:40:13.886362,0
19:40:13.886362,75
19:40:13.886362,7936
19:40:13.886362,0
19:40:13.886362,12
19:40:13.886362,12288
19:40:13.886362,0
19:40:13.886362,58
19:40:14.426771,39
19:40:14.426771,7936
19:40:14.426771,0
19:40:14.426771,26
19:40:14.426771,3072
19:40:14.426771,0
19:40:14.426771,14
19:40:14.426771,9984
19:40:14.426771,0
19:40:14.426771,44
19:40:14.426771,7424
19:40:14.426771,0
19:40:14.426771,39
19:40:14.426771,5632
19:40:14.426771,0
19:40:14.426771,-2
19:40:14.426771,7679
19:40:14.426771,0
19:40:14.426771,31
19:40:14.426771,1792
19:40:14.426771,0
19:40:14.426771,24
19:40:14.426771,9216
19:40:14.426771,0
19:40:14.426771,24
19:40:14.426771,8704
19:40:14.426771,0
19:40:14.426771,48
19:40:14.426771,8704
19:40:14.426771,0
19:40:14.426771,9
19:40:14.426771,1792
19:40:14.426771,0
19:40:14.426771,0
19:40:14.426771,-1792
19:40:14.426771,-1
19:40:14.426771,4
19:40:14.426771,3584
19:40:14.426771,0
19:40:14.426771,9
19:40:14.426771,3072
19:40:14.426771,0
19:40:14.426771,24
19:40:14.426771,3072
19:40:14.426771,0
19:40:14.426771,-7
19:40:14.426771,767
19:40:14.426771,0
19:40:14.426771,17
19:40:14.426771,5632
19:40:14.426771,0
19:40:14.426771,34
19:40:14.426771,10496
19:40:14.426771,0
19:40:14.426771,36
19:40:14.426771,4864
19:40:14.426771,0
19:40:14.426771,-14
19:40:14.426771,-7681
19:40:14.426771,-1
19:40:14.426771,-22
19:40:14.426771,-4097
19:40:14.426771,-1
19:40:14.426771,-14
19:40:14.426771,-2049
19:40:14.426771,-1
19:40:14.426771,-9
19:40:14.426771,-769
19:40:14.426771,-1
19:40:14.426771,-19
19:40:14.426771,-8961
19:40:14.426771,-1
19:40:14.426771,-14
19:40:14.426771,18175
19:40:14.426771,0
19:40:14.426771,254
19:40:14.426771,29440
19:40:14.426771,1
19:40:14.426771,-2
19:40:14.426771,-21505
19:40:14.426771,-4
19:40:14.426771,-1477
19:40:14.426771,8703
19:40:14.426771,-6
19:40:14.426771,-973
19:40:14.426771,10751
19:40:14.426771,-1
19:40:14.426771,61
19:40:14.426771,-1024
19:40:14.426771,-1
19:40:14.426771,97
19:40:14.426771,-21760
19:40:14.426771,0
19:40:14.426771,134
19:40:14.426771,-31232
19:40:14.426771,0
19:40:14.426771,132
19:40:14.426771,29184
19:40:14.426771,0
19:40:14.426771,129
19:40:14.426771,-29952
19:40:14.426771,0
19:40:14.426771,107
19:40:14.426771,21248
19:40:14.426771,0
19:40:14.426771,88
19:40:14.426771,19968
19:40:14.426771,0
19:40:14.426771,68
19:40:14.967281,80
19:40:14.967281,17920
19:40:14.967281,0
19:40:14.967281,48
19:40:14.967281,16896
19:40:14.967281,0
19:40:14.967281,63
19:40:14.967281,-5632
19:40:14.967281,-1
19:40:14.967281,-73
19:40:14.967281,-8449
19:40:14.967281,-1
19:40:14.967281,-31
19:40:14.967281,-17665
19:40:14.967281,-1
19:40:14.967281,-88
19:40:14.967281,-25857
19:40:14.967281,-1
19:40:14.967281,-107
19:40:14.967281,-22785
19:40:14.967281,-1
19:40:14.967281,-70
19:40:14.967281,-8961
19:40:14.967281,-1
19:40:14.967281,19
19:40:14.967281,13056
19:40:14.967281,0
19:40:14.967281,63
19:40:14.967281,23040
19:40:14.967281,0
19:40:14.967281,114
19:40:14.967281,30464
19:40:14.967281,0
19:40:14.967281,117
19:40:14.967281,29952
19:40:14.967281,0
19:40:14.967281,112
19:40:14.967281,28160
19:40:14.967281,0
19:40:14.967281,110
19:40:14.967281,25600
19:40:14.967281,0
19:40:14.967281,88
19:40:14.967281,22528
19:40:14.967281,0
19:40:14.967281,90
19:40:14.967281,21760
19:40:14.967281,0
19:40:14.967281,80
19:40:14.967281,18688
19:40:14.967281,0
19:40:14.967281,66
19:40:14.967281,14848
19:40:14.967281,0
19:40:14.967281,48
19:40:14.967281,11264
19:40:14.967281,0
19:40:14.967281,41
19:40:14.967281,7424
19:40:14.967281,0
19:40:14.967281,22
19:40:14.967281,7936
19:40:14.967281,0
19:40:14.967281,34
19:40:14.967281,8704
19:40:14.967281,0
19:40:14.967281,44
19:40:14.967281,1792
19:40:14.967281,0
19:40:14.967281,-39
19:40:14.967281,767
19:40:14.967281,0
19:40:14.967281,31
19:40:14.967281,-1024
19:40:14.967281,-1
19:40:14.967281,-9
19:40:14.967281,5119
19:40:14.967281,0
19:40:14.967281,26
19:40:14.967281,6144
19:40:14.967281,0
19:40:14.967281,26
19:40:14.967281,-2304
19:40:14.967281,-1
19:40:14.967281,-36
19:40:14.967281,767
19:40:14.967281,0
19:40:14.967281,14
19:40:14.967281,-2304
19:40:14.967281,-1
19:40:14.967281,0
19:40:14.967281,2304
19:40:14.967281,0
19:40:14.967281,2
19:40:14.967281,3584
19:40:14.967281,0
19:40:14.967281,26
19:40:14.967281,4352
19:40:14.967281,0
19:40:14.967281,19
19:40:14.967281,10496
19:40:14.967281,0
19:40:14.967281,41
19:40:14.967281,7424
19:40:14.967281,0
19:40:14.967281,34
19:40:14.967281,7936
19:40:14.967281,0
19:40:14.967281,9
19:40:15.551679,-14
19:40:15.551679,-1537
19:40:15.551679,-1
19:40:15.551679,41
19:40:15.551679,512
19:40:15.551679,0
19:40:15.551679,-66
19:40:15.551679,-1537
19:40:15.551679,-1
19:40:15.551679,39
19:40:15.551679,1024
19:40:15.551679,0
19:40:15.551679,2
19:40:15.551679,7936
19:40:15.551679,0
19:40:15.551679,122
19:40:15.551679,24576
19:40:15.551679,1
19:40:15.551679,388
19:40:15.551679,26112
19:40:15.551679,-1
19:40:15.551679,-956
19:40:15.551679,24831
19:40:15.551679,-6
19:40:15.551679,-1357
19:40:15.551679,17407
19:40:15.551679,-3
19:40:15.551679,-48
19:40:15.551679,767
19:40:15.551679,0
19:40:15.551679,-39
19:40:15.551679,-26625
19:40:15.551679,0
19:40:15.551679,183
19:40:15.551679,31232
19:40:15.551679,0
19:40:15.551679,154
19:40:15.551679,-24320
19:40:15.551679,0
19:40:15.551679,134
19:40:15.551679,-30720
19:40:15.551679,0
19:40:15.551679,132
19:40:15.551679,29952
19:40:15.551679,0
19:40:15.551679,88
19:40:15.551679,13568
19:40:15.551679,0
19:40:15.551679,70
19:40:15.551679,20480
19:40:15.551679,0
19:40:15.551679,56
19:40:15.551679,10496
19:40:15.551679,0
19:40:15.551679,36
19:40:15.551679,6144
19:40:15.551679,0
19:40:15.551679,22
19:40:15.551679,-4864
19:40:15.551679,-1
19:40:15.551679,-70
19:40:15.551679,-16641
19:40:15.551679,-1
19:40:15.551679,-92
19:40:15.551679,24575
19:40:15.551679,-1
19:40:15.551679,-166
19:40:15.551679,25343
19:40:15.551679,-1
19:40:15.551679,-176
19:40:15.551679,23295
19:40:15.551679,-1
19:40:15.551679,-119
19:40:15.551679,-12801
19:40:15.551679,-1
19:40:15.551679,17
19:40:15.551679,12288
19:40:15.551679,0
19:40:15.551679,75
19:40:15.551679,30464
19:40:15.551679,0
19:40:15.551679,134
19:40:15.551679,-31744
19:40:15.551679,0
19:40:15.551679,144
19:40:15.551679,-28672
19:40:15.551679,0
19:40:15.551679,134
19:40:15.551679,-32512
19:40:15.551679,0
19:40:15.551679,110
19:40:15.551679,26112
19:40:15.551679,0
19:40:15.551679,122
19:40:15.551679,29952
19:40:15.551679,0
19:40:15.551679,110
19:40:15.551679,29952
19:40:15.551679,0
19:40:15.551679,105
19:40:15.551679,21760
19:40:15.551679,0
19:40:15.551679,88
19:40:15.551679,23040
19:40:15.551679,0
19:40:15.551679,78
19:40:15.551679,17408
19:40:15.551679,0
19:40:15.551679,70
19:40:16.091989,63
19:40:16.091989,11776
19:40:16.091989,0
19:40:16.091989,46
19:40:16.091989,11776
19:40:16.091989,0
19:40:16.091989,41
19:40:16.091989,10496
19:40:16.091989,0
19:40:16.091989,48
19:40:16.091989,14336
19:40:16.091989,0
19:40:16.091989,68
19:40:16.091989,21248
19:40:16.091989,0
19:40:16.091989,63
19:40:16.091989,7936
19:40:16.091989,0
19:40:16.091989,51
19:40:16.091989,14848
19:40:16.091989,0
19:40:16.091989,41
19:40:16.091989,13056
19:40:16.091989,0
19:40:16.091989,51
19:40:16.091989,11264
19:40:16.091989,0
19:40:16.091989,53
19:40:16.091989,14848
19:40:16.091989,0
19:40:16.091989,48
19:40:16.091989,13056
19:40:16.091989,0
19:40:16.091989,53
19:40:16.091989,6656
19:40:16.091989,0
19:40:16.091989,12
19:40:16.091989,10496
19:40:16.091989,0
19:40:16.091989,66
19:40:16.091989,17408
19:40:16.091989,0
19:40:16.091989,68
19:40:16.091989,14336
19:40:16.091989,0
19:40:16.091989,44
19:40:16.091989,4352
19:40:16.091989,0
19:40:16.091989,-24
19:40:16.091989,-3329
19:40:16.091989,-1
19:40:16.091989,24
19:40:16.091989,6656
19:40:16.091989,0
19:40:16.091989,14
19:40:16.091989,5632
19:40:16.091989,0
19:40:16.091989,17
19:40:16.091989,512
19:40:16.091989,0
19:40:16.091989,0
19:40:16.091989,2304
19:40:16.091989,0
19:40:16.091989,70
19:40:16.091989,1280
19:40:16.091989,1
19:40:16.091989,405
19:40:16.091989,21248
19:40:16.091989,0
19:40:16.091989,-770
19:40:16.091989,12287
19:40:16.091989,-6
19:40:16.091989,-1560
19:40:16.091989,-6657
19:40:16.091989,-5
19:40:16.091989,-327
19:40:16.091989,7679
19:40:16.091989,0
19:40:16.091989,22
19:40:16.091989,26880
19:40:16.091989,0
19:40:16.091989,195
19:40:16.091989,-23808
19:40:16.091989,0
19:40:16.091989,154
19:40:16.091989,-19968
19:40:16.091989,0
19:40:16.091989,171
19:40:16.091989,-27392
19:40:16.091989,0
19:40:16.091989,119
19:40:16.091989,28160
19:40:16.091989,0
19:40:16.091989,119
19:40:16.091989,28672
19:40:16.091989,0
19:40:16.091989,97
19:40:16.091989,23552
19:40:16.091989,0
19:40:16.091989,90
19:40:16.091989,21248
19:40:16.091989,0
19:40:16.091989,68
19:40:16.091989,9216
19:40:16.091989,0
19:40:16.091989,14
19:40:16.091989,3584
19:40:16.091989,0
19:40:16.091989,2
19:40:16.676923,-34
19:40:16.676923,-16641
19:40:16.676923,-1
19:40:16.676923,-78
19:40:16.676923,-24577
19:40:16.676923,-1
19:40:16.676923,-119
19:40:16.676923,-30209
19:40:16.676923,-1
19:40:16.676923,-102
19:40:16.676923,-24577
19:40:16.676923,-1
19:40:16.676923,-61
19:40:16.676923,5887
19:40:16.676923,0
19:40:16.676923,88
19:40:16.676923,28672
19:40:16.676923,0
19:40:16.676923,122
19:40:16.676923,-32512
19:40:16.676923,0
19:40:16.676923,146
19:40:16.676923,-27392
19:40:16.676923,0
19:40:16.676923,132
19:40:16.676923,-31232
19:40:16.676923,0
19:40:16.676923,132
19:40:16.676923,29184
19:40:16.676923,0
19:40:16.676923,112
19:40:16.676923,28160
19:40:16.676923,0
19:40:16.676923,102
19:40:16.676923,26112
19:40:16.676923,0
19:40:16.676923,107
19:40:16.676923,29952
19:40:16.676923,0
19:40:16.676923,122
19:40:16.676923,23552
19:40:16.676923,0
19:40:16.676923,61
19:40:16.676923,17408
19:40:16.676923,0
19:40:16.676923,73
19:40:16.676923,17408
19:40:16.676923,0
19:40:16.676923,68
19:40:16.676923,16896
19:40:16.676923,0
19:40:16.676923,63
19:40:16.676923,15616
19:40:16.676923,0
19:40:16.676923,53
19:40:16.676923,11776
19:40:16.676923,0
19:40:16.676923,46
19:40:16.676923,11264
19:40:16.676923,0
19:40:16.676923,46
19:40:16.676923,16896
19:40:16.676923,0
19:40:16.676923,53
19:40:16.676923,1792
19:40:16.676923,0
19:40:16.676923,4
19:40:16.676923,6656
19:40:16.676923,0
19:40:16.676923,34
19:40:16.676923,7936
19:40:16.676923,0
19:40:16.676923,22
19:40:16.676923,5632
19:40:16.676923,0
19:40:16.676923,31
19:40:16.676923,8704
19:40:16.676923,0
19:40:16.676923,19
19:40:16.676923,4352
19:40:16.676923,0
19:40:16.676923,39
19:40:16.676923,11264
19:40:16.676923,0
19:40:16.676923,26
19:40:16.676923,7936
19:40:16.676923,0
19:40:16.676923,29
19:40:16.676923,-1024
19:40:16.676923,-1
19:40:16.676923,-36
19:40:16.676923,-5377
19:40:16.676923,-1
19:40:16.676923,7
19:40:16.676923,2304
19:40:16.676923,0
19:40:16.676923,4
19:40:16.676923,-3072
19:40:16.676923,-1
19:40:16.676923,-39
19:40:16.676923,-5889
19:40:16.676923,-1
19:40:16.676923,0
19:40:16.676923,-2304
19:40:16.676923,-1
19:40:16.676923,12
19:40:16.676923,-26880
19:40:16.676923,0
19:40:16.676923,361
19:40:17.307262,256
19:40:17.307262,10496
19:40:17.307262,-2
19:40:17.307262,-1347
19:40:17.307262,-27137
19:40:17.307262,-7
19:40:17.307262,-1276
19:40:17.307262,-5121
19:40:17.307262,-3
19:40:17.307262,-7
19:40:17.307262,3327
19:40:17.307262,0
19:40:17.307262,26
19:40:17.307262,-24320
19:40:17.307262,0
19:40:17.307262,168
19:40:17.307262,-29440
19:40:17.307262,0
19:40:17.307262,161
19:40:17.307262,-24320
19:40:17.307262,0
19:40:17.307262,132
19:40:17.307262,32512
19:40:17.307262,0
19:40:17.307262,141
19:40:17.307262,-31744
19:40:17.307262,0
19:40:17.307262,95
19:40:17.307262,17920
19:40:17.307262,0
19:40:17.307262,88
19:40:17.307262,26112
19:40:17.307262,0
19:40:17.307262,66
19:40:17.307262,7936
19:40:17.307262,0
19:40:17.307262,41
19:40:17.307262,9984
19:40:17.307262,0
19:40:17.307262,4
19:40:17.307262,-2304
19:40:17.307262,-1
19:40:17.307262,-17
19:40:17.307262,-12033
19:40:17.307262,-1
19:40:17.307262,-80
19:40:17.307262,-28929
19:40:17.307262,-1
19:40:17.307262,-151
19:40:17.307262,28927
19:40:17.307262,-1
19:40:17.307262,-117
19:40:17.307262,-27137
19:40:17.307262,-1
19:40:17.307262,-75
19:40:17.307262,2047
19:40:17.307262,0
19:40:17.307262,78
19:40:17.307262,26112
19:40:17.307262,0
19:40:17.307262,117
19:40:17.307262,-31744
19:40:17.307262,0
19:40:17.307262,124
19:40:17.307262,-32512
19:40:17.307262,0
19:40:17.307262,144
19:40:17.307262,-32512
19:40:17.307262,0
19:40:17.307262,117
19:40:17.307262,-32512
19:40:17.307262,0
19:40:17.307262,117
19:40:17.307262,24832
19:40:17.307262,0
19:40:17.307262,105
19:40:17.307262,27392
19:40:17.307262,0
19:40:17.307262,95
19:40:17.307262,23040
19:40:17.307262,0
19:40:17.307262,95
19:40:17.307262,24320
19:40:17.307262,0
19:40:17.307262,85
19:40:17.307262,21760
19:40:17.307262,0
19:40:17.307262,80
19:40:17.307262,19968
19:40:17.307262,0
19:40:17.307262,80
19:40:17.307262,14848
19:40:17.307262,0
19:40:17.307262,46
19:40:17.307262,18688
19:40:17.307262,0
19:40:17.307262,63
19:40:17.307262,6144
19:40:17.307262,0
19:40:17.307262,31
19:40:17.307262,14336
19:40:17.307262,0
19:40:17.307262,48
19:40:17.307262,11264
19:40:17.307262,0
19:40:17.307262,51
19:40:17.307262,13056
19:40:17.307262,0
19:40:17.307262,44
19:40:17.801902,36
19:40:17.801902,4864
19:40:17.801902,0
19:40:17.801902,26
19:40:17.801902,11264
19:40:17.801902,0
19:40:17.801902,29
19:40:17.801902,4352
19:40:17.801902,0
19:40:17.801902,36
19:40:17.801902,14336
19:40:17.801902,0
19:40:17.801902,51
19:40:17.801902,11776
19:40:17.801902,0
19:40:17.801902,53
19:40:17.801902,14848
19:40:17.801902,0
19:40:17.801902,26
19:40:17.801902,-4864
19:40:17.801902,-1
19:40:17.801902,-19
19:40:17.801902,4607
19:40:17.801902,0
19:40:17.801902,34
19:40:17.801902,3584
19:40:17.801902,0
19:40:17.801902,9
19:40:17.801902,6144
19:40:17.801902,0
19:40:17.801902,26
19:40:17.801902,5632
19:40:17.801902,0
19:40:17.801902,17
19:40:17.801902,4864
19:40:17.801902,0
19:40:17.801902,112
19:40:17.801902,19456
19:40:17.801902,1
19:40:17.801902,403
19:40:17.801902,-29184
19:40:17.801902,-1
19:40:17.801902,-1039
19:40:17.801902,-21505
19:40:17.801902,-7
19:40:17.801902,-1572
19:40:17.801902,19711
19:40:17.801902,-4
19:40:17.801902,-139
19:40:17.801902,25855
19:40:17.801902,0
19:40:17.801902,19
19:40:17.801902,-26112
19:40:17.801902,0
19:40:17.801902,239
19:40:17.801902,-20480
19:40:17.801902,0
19:40:17.801902,171
19:40:17.801902,-15616
19:40:17.801902,0
19:40:17.801902,176
19:40:17.801902,-23040
19:40:17.801902,0
19:40:17.801902,171
19:40:17.801902,-29440
19:40:17.801902,0
19:40:17.801902,134
19:40:17.801902,-26880
19:40:17.801902,0
19:40:17.801902,114
19:40:17.801902,20480
19:40:17.801902,0
19:40:17.801902,102
19:40:17.801902,25600
19:40:17.801902,0
19:40:17.801902,75
19:40:17.801902,17408
19:40:17.801902,0
19:40:17.801902,61
19:40:17.801902,11264
19:40:17.801902,0
19:40:17.801902,19
19:40:17.801902,-4352
19:40:17.801902,-1
19:40:17.801902,-53
19:40:17.801902,-16641
19:40:17.801902,-1
19:40:17.801902,-85
19:40:17.801902,-29697
19:40:17.801902,-1
19:40:17.801902,-119
19:40:17.801902,-25345
19:40:17.801902,-1
19:40:17.801902,-68
19:40:17.801902,-257
19:40:17.801902,-1
19:40:17.801902,56
19:40:17.801902,22528
19:40:17.801902,0
19:40:17.801902,112
19:40:17.801902,31232
19:40:17.801902,0
19:40:17.801902,119
19:40:17.801902,31232
19:40:17.801902,0
19:40:17.801902,132
19:40:17.801902,-31744
19:40:17.801902,0
19:40:17.801902,102
19:40:18.341340,88
19:40:18.341340,26880
19:40:18.341340,0
19:40:18.341340,105
19:40:18.341340,25600
19:40:18.341340,0
19:40:18.341340,107
19:40:18.341340,23552
19:40:18.341340,0
19:40:18.341340,80
19:40:18.341340,23040
19:40:18.341340,0
19:40:18.341340,83
19:40:18.341340,17920
19:40:18.341340,0
19:40:18.341340,88
19:40:18.341340,24320
19:40:18.341340,0
19:40:18.341340,80
19:40:18.341340,19200
19:40:18.341340,0
19:40:18.341340,75
19:40:18.341340,19968
19:40:18.341340,0
19:40:18.341340,68
19:40:18.341340,12288
19:40:18.341340,0
19:40:18.341340,41
19:40:18.341340,13056
19:40:18.341340,0
19:40:18.341340,51
19:40:18.341340,8704
19:40:18.341340,0
19:40:18.341340,34
19:40:18.341340,11264
19:40:18.341340,0
19:40:18.341340,26
19:40:18.341340,4864
19:40:18.341340,0
19:40:18.341340,39
19:40:18.341340,10496
19:40:18.341340,0
19:40:18.341340,17
19:40:18.341340,2304
19:40:18.341340,0
19:40:18.341340,26
19:40:18.341340,10496
19:40:18.341340,0
19:40:18.341340,44
19:40:18.341340,3584
19:40:18.341340,0
19:40:18.341340,-19
19:40:18.341340,-1537
19:40:18.341340,-1
19:40:18.341340,19
19:40:18.341340,3072
19:40:18.341340,0
19:40:18.341340,9
19:40:18.341340,5632
19:40:18.341340,0
19:40:18.341340,26
19:40:18.341340,4864
19:40:18.341340,0
19:40:18.341340,19
19:40:18.341340,8704
19:40:18.341340,0
19:40:18.341340,44
19:40:18.341340,7424
19:40:18.341340,0
19:40:18.341340,26
19:40:18.341340,5632
19:40:18.341340,0
19:40:18.341340,-12
19:40:18.341340,-6401
19:40:18.341340,-1
19:40:18.341340,0
19:40:18.341340,8704
19:40:18.341340,0
19:40:18.341340,24
19:40:18.341340,-6656
19:40:18.341340,-1
19:40:18.341340,-29
19:40:18.341340,-257
19:40:18.341340,-1
19:40:18.341340,-14
19:40:18.341340,-4097
19:40:18.341340,-1
19:40:18.341340,7
19:40:18.341340,19200
19:40:18.341340,0
19:40:18.341340,269
19:40:18.341340,-30464
19:40:18.341340,1
19:40:18.341340,-22
19:40:18.341340,20991
19:40:18.341340,-4
19:40:18.341340,-1626
19:40:18.341340,24575
19:40:18.341340,-7
19:40:18.341340,-1195
19:40:18.341340,-13057
19:40:18.341340,-2
19:40:18.341340,139
19:40:18.341340,7424
19:40:18.341340,0
19:40:18.341340,88
19:40:18.341340,-4864
19:40:18.341340,0
19:40:18.341340,188
19:40:18.882354,151
19:40:18.882354,-17408
19:40:18.882354,0
19:40:18.882354,173
19:40:18.882354,-28672
19:40:18.882354,0
19:40:18.882354,146
19:40:18.882354,-28160
19:40:18.882354,0
19:40:18.882354,136
19:40:18.882354,-30720
19:40:18.882354,0
19:40:18.882354,134
19:40:18.882354,31744
19:40:18.882354,0
19:40:18.882354,119
19:40:18.882354,26112
19:40:18.882354,0
19:40:18.882354,88
19:40:18.882354,18688
19:40:18.882354,0
19:40:18.882354,34
19:40:18.882354,5632
19:40:18.882354,0
19:40:18.882354,34
19:40:18.882354,1792
19:40:18.882354,0
19:40:18.882354,-29
19:40:18.882354,-12033
19:40:18.882354,-1
19:40:18.882354,-70
19:40:18.882354,-24065
19:40:18.882354,-1
19:40:18.882354,-107
19:40:18.882354,-21505
19:40:18.882354,-1
19:40:18.882354,-66
19:40:18.882354,-14593
19:40:18.882354,-1
19:40:18.882354,4
19:40:18.882354,20480
19:40:18.882354,0
19:40:18.882354,107
19:40:18.882354,31744
19:40:18.882354,0
19:40:18.882354,136
19:40:18.882354,29184
19:40:18.882354,0
19:40:18.882354,107
19:40:18.882354,32512
19:40:18.882354,0
19:40:18.882354,107
19:40:18.882354,22528
19:40:18.882354,0
19:40:18.882354,102
19:40:18.882354,24832
19:40:18.882354,0
19:40:18.882354,80
19:40:18.882354,21760
19:40:18.882354,0
19:40:18.882354,88
19:40:18.882354,19968
19:40:18.882354,0
19:40:18.882354,78
19:40:18.882354,18688
19:40:18.882354,0
19:40:18.882354,58
19:40:18.882354,13056
19:40:18.882354,0
19:40:18.882354,61
19:40:18.882354,16128
19:40:18.882354,0
19:40:18.882354,53
19:40:18.882354,16128
19:40:18.882354,0
19:40:18.882354,58
19:40:18.882354,6656
19:40:18.882354,0
19:40:18.882354,34
19:40:18.882354,16128
19:40:18.882354,0
19:40:18.882354,46
19:40:18.882354,3584
19:40:18.882354,0
19:40:18.882354,14
19:40:18.882354,7936
19:40:18.882354,0
19:40:18.882354,12
19:40:18.882354,-1024
19:40:18.882354,-1
19:40:18.882354,12
19:40:18.882354,6144
19:40:18.882354,0
19:40:18.882354,17
19:40:18.882354,3584
19:40:18.882354,0
19:40:18.882354,9
19:40:18.882354,1792
19:40:18.882354,0
19:40:18.882354,4
19:40:18.882354,512
19:40:18.882354,0
19:40:18.882354,-2
19:40:18.882354,-2049
19:40:18.882354,-1
19:40:18.882354,-2
19:40:18.882354,4607
19:40:18.882354,0
19:40:18.882354,17
19:40:19.466667,-9
19:40:19.466667,-7169
19:40:19.466667,-1
19:40:19.466667,-9
19:40:19.466667,2047
19:40:19.466667,0
19:40:19.466667,2
19:40:19.466667,1024
19:40:19.466667,0
19:40:19.466667,19
19:40:19.466667,8704
19:40:19.466667,0
19:40:19.466667,24
19:40:19.466667,-512
19:40:19.466667,-1
19:40:19.466667,2
19:40:19.466667,6144
19:40:19.466667,0
19:40:19.466667,22
19:40:19.466667,6144
19:40:19.466667,0
19:40:19.466667,48
19:40:19.466667,11264
19:40:19.466667,0
19:40:19.466667,29
19:40:19.466667,4864
19:40:19.466667,0
19:40:19.466667,-7
19:40:19.466667,-7169
19:40:19.466667,-1
19:40:19.466667,-12
19:40:19.466667,767
19:40:19.466667,0
19:40:19.466667,-9
19:40:19.466667,-2817
19:40:19.466667,-1
19:40:19.466667,-7
19:40:19.466667,-1537
19:40:19.466667,-1
19:40:19.466667,-17
19:40:19.466667,-4609
19:40:19.466667,-1
19:40:19.466667,-7
19:40:19.466667,5119
19:40:19.466667,0
19:40:19.466667,154
19:40:19.466667,30720
19:40:19.466667,1
19:40:19.466667,261
19:40:19.466667,1024
19:40:19.466667,-2
19:40:19.466667,-1420
19:40:19.466667,7679
19:40:19.466667,-7
19:40:19.466667,-1484
19:40:19.466667,9215
19:40:19.466667,-3
19:40:19.466667,-19
19:40:19.466667,21503
19:40:19.466667,0
19:40:19.466667,17
19:40:19.466667,-25600
19:40:19.466667,0
19:40:19.466667,198
19:40:19.466667,-29440
19:40:19.466667,0
19:40:19.466667,158
19:40:19.466667,-23040
19:40:19.466667,0
19:40:19.466667,129
19:40:19.466667,32512
19:40:19.466667,0
19:40:19.466667,132
19:40:19.466667,28672
19:40:19.466667,0
19:40:19.466667,110
19:40:19.466667,30464
19:40:19.466667,0
19:40:19.466667,95
19:40:19.466667,16128
19:40:19.466667,0
19:40:19.466667,68
19:40:19.466667,18688
19:40:19.466667,0
19:40:19.466667,56
19:40:19.466667,6144
19:40:19.466667,0
19:40:19.466667,4
19:40:19.466667,-512
19:40:19.466667,-1
19:40:19.466667,-26
19:40:19.466667,-13313
19:40:19.466667,-1
19:40:19.466667,-78
19:40:19.466667,-27905
19:40:19.466667,-1
19:40:19.466667,-134
19:40:19.466667,29695
19:40:19.466667,-1
19:40:19.466667,-146
19:40:19.466667,32767
19:40:19.466667,-1
19:40:19.466667,-75
19:40:19.466667,-9729
19:40:19.466667,-1
19:40:19.466667,-7
19:40:19.466667,13823
19:40:19.466667,0
19:40:19.466667,97
19:40:20.051276,102
19:40:20.051276,26112
19:40:20.051276,0
19:40:20.051276,107
19:40:20.051276,26880
19:40:20.051276,0
19:40:20.051276,100
19:40:20.051276,24320
19:40:20.051276,0
19:40:20.051276,97
19:40:20.051276,28672
19:40:20.051276,0
19:40:20.051276,114
19:40:20.051276,19200
19:40:20.051276,0
19:40:20.051276,51
19:40:20.051276,19200
19:40:20.051276,0
19:40:20.051276,95
19:40:20.051276,21760
19:40:20.051276,0
19:40:20.051276,78
19:40:20.051276,17920
19:40:20.051276,0
19:40:20.051276,53
19:40:20.051276,15616
19:40:20.051276,0
19:40:20.051276,75
19:40:20.051276,14336
19:40:20.051276,0
19:40:20.051276,48
19:40:20.051276,15616
19:40:20.051276,0
19:40:20.051276,56
19:40:20.051276,10496
19:40:20.051276,0
19:40:20.051276,41
19:40:20.051276,12288
19:40:20.051276,0
19:40:20.051276,56
19:40:20.051276,8704
19:40:20.051276,0
19:40:20.051276,7
19:40:20.051276,7424
19:40:20.051276,0
19:40:20.051276,41
19:40:20.051276,2304
19:40:20.051276,0
19:40:20.051276,-2
19:40:20.051276,2559
19:40:20.051276,0
19:40:20.051276,14
19:40:20.051276,3584
19:40:20.051276,0
19:40:20.051276,14
19:40:20.051276,1792
19:40:20.051276,0
19:40:20.051276,4
19:40:20.051276,4352
19:40:20.051276,0
19:40:20.051276,26
19:40:20.051276,3072
19:40:20.051276,0
19:40:20.051276,-7
19:40:20.051276,767
19:40:20.051276,0
19:40:20.051276,22
19:40:20.051276,4864
19:40:20.051276,0
19:40:20.051276,7
19:40:20.051276,3072
19:40:20.051276,0
19:40:20.051276,12
19:40:20.051276,-1024
19:40:20.051276,-1
19:40:20.051276,-17
19:40:20.051276,-769
19:40:20.051276,-1
19:40:20.051276,7
19:40:20.051276,1024
19:40:20.051276,0
19:40:20.051276,2
19:40:20.051276,0
19:40:20.051276,0
19:40:20.051276,-4
19:40:20.051276,255
19:40:20.051276,0
19:40:20.051276,14
19:40:20.051276,6656
19:40:20.051276,0
19:40:20.051276,12
19:40:20.051276,1024
19:40:20.051276,0
19:40:20.051276,24
19:40:20.051276,6144
19:40:20.051276,0
19:40:20.051276,-12
19:40:20.051276,-7681
19:40:20.051276,-1
19:40:20.051276,-36
19:40:20.051276,-7169
19:40:20.051276,-1
19:40:20.051276,-12
19:40:20.051276,-2049
19:40:20.051276,-1
19:40:20.051276,-17
19:40:20.051276,-257
19:40:20.051276,-1
19:40:20.051276,-4
19:40:20.591280,-39
19:40:20.591280,-8449
19:40:20.591280,-1
19:40:20.591280,4
19:40:20.591280,26880
19:40:20.591280,0
19:40:20.591280,330
19:40:20.591280,25088
19:40:20.591280,1
19:40:20.591280,-264
19:40:20.591280,16383
19:40:20.591280,-5
19:40:20.591280,-1746
19:40:20.591280,-24577
19:40:20.591280,-7
19:40:20.591280,-921
19:40:20.591280,-20993
19:40:20.591280,-1
19:40:20.591280,102
19:40:20.591280,3072
19:40:20.591280,0
19:40:20.591280,163
19:40:20.591280,-6912
19:40:20.591280,0
19:40:20.591280,156
19:40:20.591280,-22528
19:40:20.591280,0
19:40:20.591280,202
19:40:20.591280,-22528
19:40:20.591280,0
19:40:20.591280,141
19:40:20.591280,-29440
19:40:20.591280,0
19:40:20.591280,134
19:40:20.591280,31744
19:40:20.591280,0
19:40:20.591280,117
19:40:20.591280,25600
19:40:20.591280,0
19:40:20.591280,90
19:40:20.591280,22528
19:40:20.591280,0
19:40:20.591280,83
19:40:20.591280,18688
19:40:20.591280,0
19:40:20.591280,58
19:40:20.591280,9216
19:40:20.591280,0
19:40:20.591280,9
19:40:20.591280,-1024
19:40:20.591280,-1
19:40:20.591280,-19
19:40:20.591280,-11521
19:40:20.591280,-1
19:40:20.591280,-85
19:40:20.591280,-30977
19:40:20.591280,-1
19:40:20.591280,-132
19:40:20.591280,31999
19:40:20.591280,-1
19:40:20.591280,-144
19:40:20.591280,-30209
19:40:20.591280,-1
19:40:20.591280,-51
19:40:20.591280,2559
19:40:20.591280,0
19:40:20.591280,58
19:40:20.591280,23040
19:40:20.591280,0
19:40:20.591280,100
19:40:20.591280,27392
19:40:20.591280,0
19:40:20.591280,102
19:40:20.591280,23040
19:40:20.591280,0
19:40:20.591280,95
19:40:20.591280,22528
19:40:20.591280,0
19:40:20.591280,68
19:40:20.591280,17408
19:40:20.591280,0
19:40:20.591280,73
19:40:20.591280,17408
19:40:20.591280,0
19:40:20.591280,66
19:40:20.591280,17920
19:40:20.591280,0
19:40:20.591280,75
19:40:20.591280,19200
19:40:20.591280,0
19:40:20.591280,61
19:40:20.591280,13568
19:40:20.591280,0
19:40:20.591280,75
19:40:20.591280,17920
19:40:20.591280,0
19:40:20.591280,39
19:40:20.591280,12288
19:40:20.591280,0
19:40:20.591280,66
19:40:20.591280,10496
19:40:20.591280,0
19:40:20.591280,19
19:40:20.591280,9984
19:40:20.591280,0
19:40:20.591280,48
19:40:20.591280,8704
19:40:20.591280,0
19:40:20.591280,26
19:40:21.177017,22
19:40:21.177017,4352
19:40:21.177017,0
19:40:21.177017,26
19:40:21.177017,7936
19:40:21.177017,0
19:40:21.177017,22
19:40:21.177017,5632
19:40:21.177017,0
19:40:21.177017,14
19:40:21.177017,3072
19:40:21.177017,0
19:40:21.177017,29
19:40:21.177017,7936
19:40:21.177017,0
19:40:21.177017,12
19:40:21.177017,1792
19:40:21.177017,0
19:40:21.177017,19
19:40:21.177017,5632
19:40:21.177017,0
19:40:21.177017,9
19:40:21.177017,3584
19:40:21.177017,0
19:40:21.177017,26
19:40:21.177017,4864
19:40:21.177017,0
19:40:21.177017,2
19:40:21.177017,-512
19:40:21.177017,-1
19:40:21.177017,4
19:40:21.177017,2304
19:40:21.177017,0
19:40:21.177017,4
19:40:21.177017,3584
19:40:21.177017,0
19:40:21.177017,7
19:40:21.177017,-3072
19:40:21.177017,-1
19:40:21.177017,2
19:40:21.177017,1792
19:40:21.177017,0
19:40:21.177017,-12
19:40:21.177017,767
19:40:21.177017,0
19:40:21.177017,14
19:40:21.177017,-4352
19:40:21.177017,-1
19:40:21.177017,-24
19:40:21.177017,767
19:40:21.177017,0
19:40:21.177017,9
19:40:21.177017,3072
19:40:21.177017,0
19:40:21.177017,19
19:40:21.177017,3072
19:40:21.177017,0
19:40:21.177017,7
19:40:21.177017,-512
19:40:21.177017,-1
19:40:21.177017,-58
19:40:21.177017,-22273
19:40:21.177017,-1
19:40:21.177017,-39
19:40:21.177017,-2817
19:40:21.177017,-1
19:40:21.177017,-29
19:40:21.177017,-9729
19:40:21.177017,-1
19:40:21.177017,-31
19:40:21.177017,-7169
19:40:21.177017,-1
19:40:21.177017,-44
19:40:21.177017,-12801
19:40:21.177017,-1
19:40:21.177017,-26
19:40:21.177017,14591
19:40:21.177017,0
19:40:21.177017,261
19:40:21.177017,32000
19:40:21.177017,1
19:40:21.177017,-61
19:40:21.177017,4095
19:40:21.177017,-4
19:40:21.177017,-1706
19:40:21.177017,12799
19:40:21.177017,-7
19:40:21.177017,-1161
19:40:21.177017,-4097
19:40:21.177017,-2
19:40:21.177017,122
19:40:21.177017,5632
19:40:21.177017,0
19:40:21.177017,90
19:40:21.177017,-10496
19:40:21.177017,0
19:40:21.177017,161
19:40:21.177017,32512
19:40:21.177017,0
19:40:21.177017,163
19:40:21.177017,-27392
19:40:21.177017,0
19:40:21.177017,117
19:40:21.177017,31232
19:40:21.177017,0
19:40:21.177017,124
19:40:21.177017,27392
19:40:21.177017,0
19:40:21.177017,107
19:40:21.717269,102
19:40:21.717269,23552
19:40:21.717269,0
19:40:21.717269,100
19:40:21.717269,21248
19:40:21.717269,0
19:40:21.717269,31
19:40:21.717269,6656
19:40:21.717269,0
19:40:21.717269,39
19:40:21.717269,3584
19:40:21.717269,0
19:40:21.717269,-14
19:40:21.717269,-7169
19:40:21.717269,-1
19:40:21.717269,-48
19:40:21.717269,-18945
19:40:21.717269,-1
19:40:21.717269,-90
19:40:21.717269,-27905
19:40:21.717269,-1
19:40:21.717269,-132
19:40:21.717269,-32257
19:40:21.717269,-1
19:40:21.717269,-88
19:40:21.717269,-11521
19:40:21.717269,-1
19:40:21.717269,-22
19:40:21.717269,6399
19:40:21.717269,0
19:40:21.717269,88
19:40:21.717269,29952
19:40:21.717269,0
19:40:21.717269,124
19:40:21.717269,31744
19:40:21.717269,0
19:40:21.717269,107
19:40:21.717269,25600
19:40:21.717269,0
19:40:21.717269,105
19:40:21.717269,24832
19:40:21.717269,0
19:40:21.717269,92
19:40:21.717269,26112
19:40:21.717269,0
19:40:21.717269,117
19:40:21.717269,26880
19:40:21.717269,0
19:40:21.717269,63
19:40:21.717269,15616
19:40:21.717269,0
19:40:21.717269,88
19:40:21.717269,22528
19:40:21.717269,0
19:40:21.717269,75
19:40:21.717269,16128
19:40:21.717269,0
19:40:21.717269,61
19:40:21.717269,16128
19:40:21.717269,0
19:40:21.717269,63
19:40:21.717269,13568
19:40:21.717269,0
19:40:21.717269,48
19:40:21.717269,14336
19:40:21.717269,0
19:40:21.717269,53
19:40:21.717269,9216
19:40:21.717269,0
19:40:21.717269,44
19:40:21.717269,14336
19:40:21.717269,0
19:40:21.717269,26
19:40:21.717269,2304
19:40:21.717269,0
19:40:21.717269,39
19:40:21.717269,6656
19:40:21.717269,0
19:40:21.717269,-12
19:40:21.717269,1279
19:40:21.717269,0
19:40:21.717269,17
19:40:21.717269,-512
19:40:21.717269,-1
19:40:21.717269,0
19:40:21.717269,2304
19:40:21.717269,0
19:40:21.717269,4
19:40:21.717269,3072
19:40:21.717269,0
19:40:21.717269,17
19:40:21.717269,-1024
19:40:21.717269,-1
19:40:21.717269,-14
19:40:21.717269,-769
19:40:21.717269,-1
19:40:21.717269,0
19:40:21.717269,-1024
19:40:21.717269,-1
19:40:21.717269,-22
19:40:21.717269,-5377
19:40:21.717269,-1
19:40:21.717269,-7
19:40:21.717269,-257
19:40:21.717269,-1
19:40:21.717269,-7
19:40:21.717269,-2817
19:40:21.717269,-1
19:40:21.717269,-7
19:40:22.256943,0
19:40:22.256943,-5632
19:40:22.256943,-1
19:40:22.256943,-34
19:40:22.256943,-3329
19:40:22.256943,-1
19:40:22.256943,-4
19:40:22.256943,-4097
19:40:22.256943,-1
19:40:22.256943,-19
19:40:22.256943,255
19:40:22.256943,0
19:40:22.256943,24
19:40:22.256943,3584
19:40:22.256943,0
19:40:22.256943,2
19:40:22.256943,5632
19:40:22.256943,0
19:40:22.256943,19
19:40:22.256943,1792
19:40:22.256943,0
19:40:22.256943,22
19:40:22.256943,512
19:40:22.256943,0
19:40:22.256943,-44
19:40:22.256943,-12033
19:40:22.256943,-1
19:40:22.256943,-14
19:40:22.256943,-2049
19:40:22.256943,-1
19:40:22.256943,-24
19:40:22.256943,-3329
19:40:22.256943,-1
19:40:22.256943,-12
19:40:22.256943,-12033
19:40:22.256943,-1
19:40:22.256943,-53
19:40:22.256943,-5377
19:40:22.256943,-1
19:40:22.256943,-19
19:40:22.256943,6399
19:40:22.256943,0
19:40:22.256943,224
19:40:22.256943,-29696
19:40:22.256943,1
19:40:22.256943,102
19:40:22.256943,9472
19:40:22.256943,-3
19:40:22.256943,-1538
19:40:22.256943,-4097
19:40:22.256943,-8
19:40:22.256943,-1401
19:40:22.256943,5119
19:40:22.256943,-2
19:40:22.256943,75
19:40:22.256943,4864
19:40:22.256943,0
19:40:22.256943,48
19:40:22.256943,-13824
19:40:22.256943,0
19:40:22.256943,154
19:40:22.256943,29952
19:40:22.256943,0
19:40:22.256943,163
19:40:22.256943,-26880
19:40:22.256943,0
19:40:22.256943,114
19:40:22.256943,32512
19:40:22.256943,0
19:40:22.256943,136
19:40:22.256943,28160
19:40:22.256943,0
19:40:22.256943,90
19:40:22.256943,22528
19:40:22.256943,0
19:40:22.256943,68
19:40:22.256943,16128
19:40:22.256943,0
19:40:22.256943,66
19:40:22.256943,9216
19:40:22.256943,0
19:40:22.256943,22
19:40:22.256943,6144
19:40:22.256943,0
19:40:22.256943,7
19:40:22.256943,-3584
19:40:22.256943,-1
19:40:22.256943,-31
19:40:22.256943,-14593
19:40:22.256943,-1
19:40:22.256943,-83
19:40:22.256943,-25857
19:40:22.256943,-1
19:40:22.256943,-141
19:40:22.256943,18431
19:40:22.256943,-1
19:40:22.256943,-180
19:40:22.256943,28927
19:40:22.256943,-1
19:40:22.256943,-105
19:40:22.256943,-14593
19:40:22.256943,-1
19:40:22.256943,7
19:40:22.256943,16128
19:40:22.256943,0
19:40:22.256943,83
19:40:22.256943,19968
19:40:22.256943,0
19:40:22.256943,88
19:40:22.842295,105
19:40:22.842295,26112
19:40:22.842295,0
19:40:22.842295,85
19:40:22.842295,20480
19:40:22.842295,0
19:40:22.842295,85
19:40:22.842295,22528
19:40:22.842295,0
19:40:22.842295,95
19:40:22.842295,23040
19:40:22.842295,0
19:40:22.842295,78
19:40:22.842295,18688
19:40:22.842295,0
19:40:22.842295,70
19:40:22.842295,17920
19:40:22.842295,0
19:40:22.842295,70
19:40:22.842295,14336
19:40:22.842295,0
19:40:22.842295,51
19:40:22.842295,15616
19:40:22.842295,0
19:40:22.842295,53
19:40:22.842295,11264
19:40:22.842295,0
19:40:22.842295,39
19:40:22.842295,6144
19:40:22.842295,0
19:40:22.842295,24
19:40:22.842295,6656
19:40:22.842295,0
19:40:22.842295,19
19:40:22.842295,4352
19:40:22.842295,0
19:40:22.842295,17
19:40:22.842295,3584
19:40:22.842295,0
19:40:22.842295,12
19:40:22.842295,3072
19:40:22.842295,0
19:40:22.842295,0
19:40:22.842295,-6656
19:40:22.842295,-1
19:40:22.842295,-29
19:40:22.842295,-769
19:40:22.842295,-1
19:40:22.842295,0
19:40:22.842295,-3072
19:40:22.842295,-1
19:40:22.842295,-12
19:40:22.842295,-1537
19:40:22.842295,-1
19:40:22.842295,-12
19:40:22.842295,-4097
19:40:22.842295,-1
19:40:22.842295,-17
19:40:22.842295,-3329
19:40:22.842295,-1
19:40:22.842295,-19
19:40:22.842295,-4609
19:40:22.842295,-1
19:40:22.842295,-12
19:40:22.842295,-257
19:40:22.842295,-1
19:40:22.842295,-4
19:40:22.842295,-8961
19:40:22.842295,-1
19:40:22.842295,-56
19:40:22.842295,-8449
19:40:22.842295,-1
19:40:22.842295,-14
19:40:22.842295,-5889
19:40:22.842295,-1
19:40:22.842295,-29
19:40:22.842295,-2817
19:40:22.842295,-1
19:40:22.842295,7
19:40:22.842295,2304
19:40:22.842295,0
19:40:22.842295,0
19:40:22.842295,1024
19:40:22.842295,0
19:40:22.842295,12
19:40:22.842295,-7424
19:40:22.842295,-1
19:40:22.842295,-68
19:40:22.842295,-12033
19:40:22.842295,-1
19:40:22.842295,-39
19:40:22.842295,-11009
19:40:22.842295,-1
19:40:22.842295,-31
19:40:22.842295,-4609
19:40:22.842295,-1
19:40:22.842295,-17
19:40:22.842295,-6401
19:40:22.842295,-1
19:40:22.842295,-34
19:40:22.842295,-5889
19:40:22.842295,-1
19:40:22.842295,-12
19:40:22.842295,21503
19:40:22.842295,0
19:40:22.842295,313
19:40:22.842295,30208
19:40:22.842295,1
19:40:22.842295,-188
19:40:23.472294,-1146
19:40:23.472294,23295
19:40:23.472294,-7
19:40:23.472294,-1596
19:40:23.472294,22015
19:40:23.472294,-4
19:40:23.472294,-146
19:40:23.472294,18175
19:40:23.472294,0
19:40:23.472294,-4
19:40:23.472294,-30977
19:40:23.472294,0
19:40:23.472294,217
19:40:23.472294,-22528
19:40:23.472294,0
19:40:23.472294,173
19:40:23.472294,-17408
19:40:23.472294,0
19:40:23.472294,166
19:40:23.472294,-28160
19:40:23.472294,0
19:40:23.472294,146
19:40:23.472294,-26880
19:40:23.472294,0
19:40:23.472294,144
19:40:23.472294,26112
19:40:23.472294,0
19:40:23.472294,83
19:40:23.472294,27392
19:40:23.472294,0
19:40:23.472294,112
19:40:23.472294,24320
19:40:23.472294,0
19:40:23.472294,75
19:40:23.472294,16896
19:40:23.472294,0
19:40:23.472294,53
19:40:23.472294,9216
19:40:23.472294,0
19:40:23.472294,14
19:40:23.472294,-5632
19:40:23.472294,-1
19:40:23.472294,-61
19:40:23.472294,-20993
19:40:23.472294,-1
19:40:23.472294,-114
19:40:23.472294,25343
19:40:23.472294,-1
19:40:23.472294,-158
19:40:23.472294,32767
19:40:23.472294,-1
19:40:23.472294,-107
19:40:23.472294,-12033
19:40:23.472294,-1
19:40:23.472294,22
19:40:23.472294,17408
19:40:23.472294,0
19:40:23.472294,105
19:40:23.472294,-31232
19:40:23.472294,0
19:40:23.472294,134
19:40:23.472294,31232
19:40:23.472294,0
19:40:23.472294,105
19:40:23.472294,28160
19:40:23.472294,0
19:40:23.472294,127
19:40:23.472294,29184
19:40:23.472294,0
19:40:23.472294,100
19:40:23.472294,29952
19:40:23.472294,0
19:40:23.472294,112
19:40:23.472294,17920
19:40:23.472294,0
19:40:23.472294,68
19:40:23.472294,25600
19:40:23.472294,0
19:40:23.472294,97
19:40:23.472294,21248
19:40:23.472294,0
19:40:23.472294,90
19:40:23.472294,21760
19:40:23.472294,0
19:40:23.472294,68
19:40:23.472294,16128
19:40:23.472294,0
19:40:23.472294,58
19:40:23.472294,12288
19:40:23.472294,0
19:40:23.472294,48
19:40:23.472294,14848
19:40:23.472294,0
19:40:23.472294,46
19:40:23.472294,4864
19:40:23.472294,0
19:40:23.472294,26
19:40:23.472294,10496
19:40:23.472294,0
19:40:23.472294,19
19:40:23.472294,3072
19:40:23.472294,0
19:40:23.472294,24
19:40:23.472294,0
19:40:23.472294,0
19:40:23.472294,-12
19:40:23.472294,4607
19:40:23.472294,0
19:40:23.472294,24
19:40:23.970229,-2
19:40:23.970229,255
19:40:23.970229,0
19:40:23.970229,24
19:40:23.970229,1024
19:40:23.970229,0
19:40:23.970229,-31
19:40:23.970229,-2817
19:40:23.970229,-1
19:40:23.970229,7
19:40:23.970229,-1792
19:40:23.970229,-1
19:40:23.970229,-7
19:40:23.970229,2559
19:40:23.970229,0
19:40:23.970229,7
19:40:23.970229,-4864
19:40:23.970229,-1
19:40:23.970229,-31
19:40:23.970229,-2817
19:40:23.970229,-1
19:40:23.970229,-2
19:40:23.970229,-2817
19:40:23.970229,-1
19:40:23.970229,-9
19:40:23.970229,1279
19:40:23.970229,0
19:40:23.970229,17
19:40:23.970229,4864
19:40:23.970229,0
19:40:23.970229,14
19:40:23.970229,-512
19:40:23.970229,-1
19:40:23.970229,-4
19:40:23.970229,5119
19:40:23.970229,0
19:40:23.970229,41
19:40:23.970229,9984
19:40:23.970229,0
19:40:23.970229,22
19:40:23.970229,1024
19:40:23.970229,0
19:40:23.970229,-12
19:40:23.970229,-8449
19:40:23.970229,-1
19:40:23.970229,-48
19:40:23.970229,-7681
19:40:23.970229,-1
19:40:23.970229,-9
19:40:23.970229,-2817
19:40:23.970229,-1
19:40:23.970229,-14
19:40:23.970229,-2049
19:40:23.970229,-1
19:40:23.970229,-19
19:40:23.970229,-5377
19:40:23.970229,-1
19:40:23.970229,-19
19:40:23.970229,-2817
19:40:23.970229,-1
19:40:23.970229,110
19:40:23.970229,23808
19:40:23.970229,1
19:40:23.970229,330
19:40:23.970229,-21248
19:40:23.970229,-2
19:40:23.970229,-1296
19:40:23.970229,4607
19:40:23.970229,-7
19:40:23.970229,-1611
19:40:23.970229,-28417
19:40:23.970229,-4
19:40:23.970229,-46
19:40:23.970229,29439
19:40:23.970229,0
19:40:23.970229,4
19:40:23.970229,-23808
19:40:23.970229,0
19:40:23.970229,210
19:40:23.970229,29184
19:40:23.970229,0
19:40:23.970229,151
19:40:23.970229,-16896
19:40:23.970229,0
19:40:23.970229,146
19:40:23.970229,-31232
19:40:23.970229,0
19:40:23.970229,146
19:40:23.970229,-31744
19:40:23.970229,0
19:40:23.970229,129
19:40:23.970229,-31232
19:40:23.970229,0
19:40:23.970229,105
19:40:23.970229,18688
19:40:23.970229,0
19:40:23.970229,80
19:40:23.970229,21760
19:40:23.970229,0
19:40:23.970229,68
19:40:23.970229,16128
19:40:23.970229,0
19:40:23.970229,53
19:40:23.970229,4352
19:40:23.970229,0
19:40:23.970229,-9
19:40:23.970229,-4609
19:40:23.970229,-1
19:40:23.970229,-53
19:40:24.506419,-105
19:40:24.506419,31999
19:40:24.506419,-1
19:40:24.506419,-139
19:40:24.506419,27647
19:40:24.506419,-1
19:40:24.506419,-146
19:40:24.506419,-28417
19:40:24.506419,-1
19:40:24.506419,-51
19:40:24.506419,4607
19:40:24.506419,0
19:40:24.506419,70
19:40:24.506419,28160
19:40:24.506419,0
19:40:24.506419,139
19:40:24.506419,-26880
19:40:24.506419,0
19:40:24.506419,154
19:40:24.506419,-29952
19:40:24.506419,0
19:40:24.506419,107
19:40:24.506419,27392
19:40:24.506419,0
19:40:24.506419,124
19:40:24.506419,27392
19:40:24.506419,0
19:40:24.506419,90
19:40:24.506419,25600
19:40:24.506419,0
19:40:24.506419,97
19:40:24.506419,21760
19:40:24.506419,0
19:40:24.506419,88
19:40:24.506419,23552
19:40:24.506419,0
19:40:24.506419,83
19:40:24.506419,18688
19:40:24.506419,0
19:40:24.506419,73
19:40:24.506419,17408
19:40:24.506419,0
19:40:24.506419,63
19:40:24.506419,16128
19:40:24.506419,0
19:40:24.506419,53
19:40:24.506419,10496
19:40:24.506419,0
19:40:24.506419,48
19:40:24.506419,13056
19:40:24.506419,0
19:40:24.506419,29
19:40:24.506419,7424
19:40:24.506419,0
19:40:24.506419,44
19:40:24.506419,7424
19:40:24.506419,0
19:40:24.506419,9
19:40:24.506419,3072
19:40:24.506419,0
19:40:24.506419,17
19:40:24.506419,2304
19:40:24.506419,0
19:40:24.506419,9
19:40:24.506419,4352
19:40:24.506419,0
19:40:24.506419,9
19:40:24.506419,0
19:40:24.506419,0
19:40:24.506419,-2
19:40:24.506419,-2817
19:40:24.506419,-1
19:40:24.506419,-17
19:40:24.506419,-2049
19:40:24.506419,-1
19:40:24.506419,-9
19:40:24.506419,-1537
19:40:24.506419,-1
19:40:24.506419,-9
19:40:24.506419,-4609
19:40:24.506419,-1
19:40:24.506419,-17
19:40:24.506419,-1537
19:40:24.506419,-1
19:40:24.506419,-17
19:40:24.506419,-8449
19:40:24.506419,-1
19:40:24.506419,-36
19:40:24.506419,-7681
19:40:24.506419,-1
19:40:24.506419,-29
19:40:24.506419,-8449
19:40:24.506419,-1
19:40:24.506419,-39
19:40:24.506419,-4609
19:40:24.506419,-1
19:40:24.506419,-26
19:40:24.506419,-15361
19:40:24.506419,-1
19:40:24.506419,-46
19:40:24.506419,-4097
19:40:24.506419,-1
19:40:24.506419,-34
19:40:24.506419,-11521
19:40:24.506419,-1
19:40:24.506419,-29
19:40:24.506419,-1537
19:40:24.506419,-1
19:40:24.506419,-9
19:40:25.092292,-17
19:40:25.092292,-1537
19:40:25.092292,-1
19:40:25.092292,4
19:40:25.092292,-4352
19:40:25.092292,-1
19:40:25.092292,-58
19:40:25.092292,-18945
19:40:25.092292,-1
19:40:25.092292,-70
19:40:25.092292,-11009
19:40:25.092292,-1
19:40:25.092292,-17
19:40:25.092292,-6401
19:40:25.092292,-1
19:40:25.092292,-48
19:40:25.092292,-9729
19:40:25.092292,-1
19:40:25.092292,-26
19:40:25.092292,-6401
19:40:25.092292,-1
19:40:25.092292,-24
19:40:25.092292,-769
19:40:25.092292,-1
19:40:25.092292,146
19:40:25.092292,30720
19:40:25.092292,1
19:40:25.092292,224
19:40:25.092292,-12288
19:40:25.092292,-3
19:40:25.092292,-1437
19:40:25.092292,4095
19:40:25.092292,-7
19:40:25.092292,-1506
19:40:25.092292,11775
19:40:25.092292,-3
19:40:25.092292,-12
19:40:25.092292,15103
19:40:25.092292,0
19:40:25.092292,7
19:40:25.092292,-25088
19:40:25.092292,0
19:40:25.092292,178
19:40:25.092292,29184
19:40:25.092292,0
19:40:25.092292,139
19:40:25.092292,-26112
19:40:25.092292,0
19:40:25.092292,127
19:40:25.092292,28672
19:40:25.092292,0
19:40:25.092292,119
19:40:25.092292,-32512
19:40:25.092292,0
19:40:25.092292,102
19:40:25.092292,19200
19:40:25.092292,0
19:40:25.092292,78
19:40:25.092292,17920
19:40:25.092292,0
19:40:25.092292,68
19:40:25.092292,16128
19:40:25.092292,0
19:40:25.092292,31
19:40:25.092292,3584
19:40:25.092292,0
19:40:25.092292,12
19:40:25.092292,-2304
19:40:25.092292,-1
19:40:25.092292,-34
19:40:25.092292,-15361
19:40:25.092292,-1
19:40:25.092292,-97
19:40:25.092292,-32257
19:40:25.092292,-1
19:40:25.092292,-144
19:40:25.092292,24575
19:40:25.092292,-1
19:40:25.092292,-188
19:40:25.092292,17151
19:40:25.092292,-1
19:40:25.092292,-132
19:40:25.092292,-14593
19:40:25.092292,-1
19:40:25.092292,-14
19:40:25.092292,8191
19:40:25.092292,0
19:40:25.092292,83
19:40:25.092292,26880
19:40:25.092292,0
19:40:25.092292,102
19:40:25.092292,25600
19:40:25.092292,0
19:40:25.092292,105
19:40:25.092292,25600
19:40:25.092292,0
19:40:25.092292,83
19:40:25.092292,19968
19:40:25.092292,0
19:40:25.092292,88
19:40:25.092292,19968
19:40:25.092292,0
19:40:25.092292,70
19:40:25.092292,20480
19:40:25.092292,0
19:40:25.092292,80
19:40:25.092292,19968
19:40:25.092292,0
19:40:25.092292,80
19:40:25.631698,73
19:40:25.631698,17920
19:40:25.631698,0
19:40:25.631698,56
19:40:25.631698,11264
19:40:25.631698,0
19:40:25.631698,51
19:40:25.631698,9216
19:40:25.631698,0
19:40:25.631698,24
19:40:25.631698,9216
19:40:25.631698,0
19:40:25.631698,36
19:40:25.631698,9984
19:40:25.631698,0
19:40:25.631698,58
19:40:25.631698,14336
19:40:25.631698,0
19:40:25.631698,36
19:40:25.631698,5632
19:40:25.631698,0
19:40:25.631698,12
19:40:25.631698,4352
19:40:25.631698,0
19:40:25.631698,22
19:40:25.631698,8704
19:40:25.631698,0
19:40:25.631698,41
19:40:25.631698,4864
19:40:25.631698,0
19:40:25.631698,-2
19:40:25.631698,2047
19:40:25.631698,0
19:40:25.631698,31
19:40:25.631698,6656
19:40:25.631698,0
19:40:25.631698,-7
19:40:25.631698,-2049
19:40:25.631698,-1
19:40:25.631698,17
19:40:25.631698,4864
19:40:25.631698,0
19:40:25.631698,4
19:40:25.631698,0
19:40:25.631698,0
19:40:25.631698,0
19:40:25.631698,-512
19:40:25.631698,-1
19:40:25.631698,0
19:40:25.631698,1792
19:40:25.631698,0
19:40:25.631698,2
19:40:25.631698,-512
19:40:25.631698,-1
19:40:25.631698,2
19:40:25.631698,1024
19:40:25.631698,0
19:40:25.631698,9
19:40:25.631698,5632
19:40:25.631698,0
19:40:25.631698,22
19:40:25.631698,4352
19:40:25.631698,0
19:40:25.631698,9
19:40:25.631698,-7936
19:40:25.631698,-1
19:40:25.631698,-66
19:40:25.631698,-10241
19:40:25.631698,-1
19:40:25.631698,-4
19:40:25.631698,-2817
19:40:25.631698,-1
19:40:25.631698,-39
19:40:25.631698,-4609
19:40:25.631698,-1
19:40:25.631698,2
19:40:25.631698,-6144
19:40:25.631698,-1
19:40:25.631698,-36
19:40:25.631698,-2817
19:40:25.631698,-1
19:40:25.631698,22
19:40:25.631698,-24320
19:40:25.631698,0
19:40:25.631698,391
19:40:25.631698,11264
19:40:25.631698,1
19:40:25.631698,-435
19:40:25.631698,-22017
19:40:25.631698,-6
19:40:25.631698,-1780
19:40:25.631698,-3329
19:40:25.631698,-7
19:40:25.631698,-777
19:40:25.631698,-4097
19:40:25.631698,-1
19:40:25.631698,90
19:40:25.631698,6144
19:40:25.631698,0
19:40:25.631698,171
19:40:25.631698,-13056
19:40:25.631698,0
19:40:25.631698,149
19:40:25.631698,-21760
19:40:25.631698,0
19:40:25.631698,180
19:40:25.631698,-29952
19:40:25.631698,0
19:40:25.631698,124
19:40:26.172069,146
19:40:26.172069,-28672
19:40:26.172069,0
19:40:26.172069,110
19:40:26.172069,24832
19:40:26.172069,0
19:40:26.172069,107
19:40:26.172069,24832
19:40:26.172069,0
19:40:26.172069,90
19:40:26.172069,26112
19:40:26.172069,0
19:40:26.172069,95
19:40:26.172069,18688
19:40:26.172069,0
19:40:26.172069,66
19:40:26.172069,12288
19:40:26.172069,0
19:40:26.172069,4
19:40:26.172069,-9216
19:40:26.172069,-1
19:40:26.172069,-61
19:40:26.172069,-21505
19:40:26.172069,-1
19:40:26.172069,-110
19:40:26.172069,31999
19:40:26.172069,-1
19:40:26.172069,-168
19:40:26.172069,24575
19:40:26.172069,-1
19:40:26.172069,-95
19:40:26.172069,-7169
19:40:26.172069,-1
19:40:26.172069,29
19:40:26.172069,19968
19:40:26.172069,0
19:40:26.172069,105
19:40:26.172069,-31744
19:40:26.172069,0
19:40:26.172069,139
19:40:26.172069,28672
19:40:26.172069,0
19:40:26.172069,112
19:40:26.172069,32512
19:40:26.172069,0
19:40:26.172069,107
19:40:26.172069,23040
19:40:26.172069,0
19:40:26.172069,102
19:40:26.172069,27392
19:40:26.172069,0
19:40:26.172069,88
19:40:26.172069,19200
19:40:26.172069,0
19:40:26.172069,80
19:40:26.172069,20480
19:40:26.172069,0
19:40:26.172069,70
19:40:26.172069,21248
19:40:26.172069,0
19:40:26.172069,95
19:40:26.172069,18688
19:40:26.172069,0
19:40:26.172069,56
19:40:26.172069,17408
19:40:26.172069,0
19:40:26.172069,56
19:40:26.172069,10496
19:40:26.172069,0
19:40:26.172069,61
19:40:26.172069,16128
19:40:26.172069,0
19:40:26.172069,31
19:40:26.172069,4352
19:40:26.172069,0
19:40:26.172069,31
19:40:26.172069,10496
19:40:26.172069,0
19:40:26.172069,36
19:40:26.172069,7936
19:40:26.172069,0
19:40:26.172069,26
19:40:26.172069,6656
19:40:26.172069,0
19:40:26.172069,12
19:40:26.172069,-2304
19:40:26.172069,-1
19:40:26.172069,-4
19:40:26.172069,4607
19:40:26.172069,0
19:40:26.172069,7
19:40:26.172069,-1024
19:40:26.172069,-1
19:40:26.172069,7
19:40:26.172069,3584
19:40:26.172069,0
19:40:26.172069,-4
19:40:26.172069,-4609
19:40:26.172069,-1
19:40:26.172069,-9
19:40:26.172069,255
19:40:26.172069,0
19:40:26.172069,-7
19:40:26.172069,-2049
19:40:26.172069,-1
19:40:26.172069,9
19:40:26.172069,512
19:40:26.172069,0
19:40:26.172069,-36
19:40:26.801896,-29
19:40:26.801896,767
19:40:26.801896,0
19:40:26.801896,-12
19:40:26.801896,-7169
19:40:26.801896,-1
19:40:26.801896,-2
19:40:26.801896,2559
19:40:26.801896,0
19:40:26.801896,-4
19:40:26.801896,767
19:40:26.801896,0
19:40:26.801896,0
19:40:26.801896,-4352
19:40:26.801896,-1
19:40:26.801896,0
19:40:26.801896,512
19:40:26.801896,0
19:40:26.801896,-22
19:40:26.801896,-3329
19:40:26.801896,-1
19:40:26.801896,9
19:40:26.801896,4352
19:40:26.801896,0
19:40:26.801896,22
19:40:26.801896,5632
19:40:26.801896,0
19:40:26.801896,17
19:40:26.801896,0
19:40:26.801896,0
19:40:26.801896,-41
19:40:26.801896,-17665
19:40:26.801896,-1
19:40:26.801896,-48
19:40:26.801896,-4097
19:40:26.801896,-1
19:40:26.801896,-19
19:40:26.801896,-5889
19:40:26.801896,-1
19:40:26.801896,-17
19:40:26.801896,-4609
19:40:26.801896,-1
19:40:26.801896,-19
19:40:26.801896,-6401
19:40:26.801896,-1
19:40:26.801896,-44
19:40:26.801896,-4097
19:40:26.801896,-1
19:40:26.801896,129
19:40:26.801896,26368
19:40:26.801896,1
19:40:26.801896,327
19:40:26.801896,-20224
19:40:26.801896,-2
19:40:26.801896,-1298
19:40:26.801896,-6657
19:40:26.801896,-8
19:40:26.801896,-1704
19:40:26.801896,8447
19:40:26.801896,-4
19:40:26.801896,-105
19:40:26.801896,-30977
19:40:26.801896,0
19:40:26.801896,9
19:40:26.801896,-31232
19:40:26.801896,0
19:40:26.801896,234
19:40:26.801896,-20480
19:40:26.801896,0
19:40:26.801896,168
19:40:26.801896,-13824
19:40:26.801896,0
19:40:26.801896,195
19:40:26.801896,-26880
19:40:26.801896,0
19:40:26.801896,117
19:40:26.801896,29952
19:40:26.801896,0
19:40:26.801896,124
19:40:26.801896,31744
19:40:26.801896,0
19:40:26.801896,127
19:40:26.801896,28672
19:40:26.801896,0
19:40:26.801896,92
19:40:26.801896,23040
19:40:26.801896,0
19:40:26.801896,88
19:40:26.801896,18688
19:40:26.801896,0
19:40:26.801896,48
19:40:26.801896,4352
19:40:26.801896,0
19:40:26.801896,-7
19:40:26.801896,-3329
19:40:26.801896,-1
19:40:26.801896,-39
19:40:26.801896,-23297
19:40:26.801896,-1
19:40:26.801896,-117
19:40:26.801896,32767
19:40:26.801896,-1
19:40:26.801896,-168
19:40:26.801896,18943
19:40:26.801896,-1
19:40:26.801896,-141
19:40:26.801896,-18945
19:40:26.801896,-1
19:40:26.801896,-4
19:40:27.341623,46
19:40:27.341623,18688
19:40:27.341623,0
19:40:27.341623,97
19:40:27.341623,29184
19:40:27.341623,0
19:40:27.341623,105
19:40:27.341623,25600
19:40:27.341623,0
19:40:27.341623,107
19:40:27.341623,26880
19:40:27.341623,0
19:40:27.341623,110
19:40:27.341623,26880
19:40:27.341623,0
19:40:27.341623,75
19:40:27.341623,15616
19:40:27.341623,0
19:40:27.341623,61
19:40:27.341623,17408
19:40:27.341623,0
19:40:27.341623,85
19:40:27.341623,21248
19:40:27.341623,0
19:40:27.341623,68
19:40:27.341623,16896
19:40:27.341623,0
19:40:27.341623,68
19:40:27.341623,18688
19:40:27.341623,0
19:40:27.341623,70
19:40:27.341623,15616
19:40:27.341623,0
19:40:27.341623,68
19:40:27.341623,22528
19:40:27.341623,0
19:40:27.341623,56
19:40:27.341623,4352
19:40:27.341623,0
19:40:27.341623,31
19:40:27.341623,11264
19:40:27.341623,0
19:40:27.341623,26
19:40:27.341623,6144
19:40:27.341623,0
19:40:27.341623,31
19:40:27.341623,7936
19:40:27.341623,0
19:40:27.341623,34
19:40:27.341623,7424
19:40:27.341623,0
19:40:27.341623,7
19:40:27.341623,-512
19:40:27.341623,-1
19:40:27.341623,-12
19:40:27.341623,-5377
19:40:27.341623,-1
19:40:27.341623,-12
19:40:27.341623,-257
19:40:27.341623,-1
19:40:27.341623,-7
19:40:27.341623,-2049
19:40:27.341623,-1
19:40:27.341623,-7
19:40:27.341623,-1537
19:40:27.341623,-1
19:40:27.341623,-9
19:40:27.341623,-769
19:40:27.341623,-1
19:40:27.341623,-2
19:40:27.341623,-5889
19:40:27.341623,-1
19:40:27.341623,-36
19:40:27.341623,-5377
19:40:27.341623,-1
19:40:27.341623,-17
19:40:27.341623,-5377
19:40:27.341623,-1
19:40:27.341623,-26
19:40:27.341623,-8449
19:40:27.341623,-1
19:40:27.341623,-26
19:40:27.341623,-4097
19:40:27.341623,-1
19:40:27.341623,-26
19:40:27.341623,-7681
19:40:27.341623,-1
19:40:27.341623,-26
19:40:27.341623,-7681
19:40:27.341623,-1
19:40:27.341623,-31
19:40:27.341623,-4097
19:40:27.341623,-1
19:40:27.341623,-22
19:40:27.341623,-10241
19:40:27.341623,-1
19:40:27.341623,-44
19:40:27.341623,-9729
19:40:27.341623,-1
19:40:27.341623,-39
19:40:27.341623,-10241
19:40:27.341623,-1
19:40:27.341623,-31
19:40:27.341623,-2049
19:40:27.341623,-1
19:40:27.341623,-9
19:40:27.341623,-2817
19:40:27.341623,-1
19:40:27.341623,2
19:40:27.882115,-22
19:40:27.882115,-17153
19:40:27.882115,-1
19:40:27.882115,-85
19:40:27.882115,-20225
19:40:27.882115,-1
19:40:27.882115,-51
19:40:27.882115,-8449
19:40:27.882115,-1
19:40:27.882115,-41
19:40:27.882115,-12801
19:40:27.882115,-1
19:40:27.882115,-46
19:40:27.882115,-8961
19:40:27.882115,-1
19:40:27.882115,-19
19:40:27.882115,-5889
19:40:27.882115,-1
19:40:27.882115,-34
19:40:27.882115,13823
19:40:27.882115,0
19:40:27.882115,264
19:40:27.882115,-30976
19:40:27.882115,1
19:40:27.882115,22
19:40:27.882115,-29952
19:40:27.882115,-4
19:40:27.882115,-1643
19:40:27.882115,7167
19:40:27.882115,-7
19:40:27.882115,-1256
19:40:27.882115,-31233
19:40:27.882115,-2
19:40:27.882115,83
19:40:27.882115,2304
19:40:27.882115,0
19:40:27.882115,70
19:40:27.882115,-12544
19:40:27.882115,0
19:40:27.882115,168
19:40:27.882115,-26880
19:40:27.882115,0
19:40:27.882115,190
19:40:27.882115,-23808
19:40:27.882115,0
19:40:27.882115,132
19:40:27.882115,-29952
19:40:27.882115,0
19:40:27.882115,132
19:40:27.882115,29184
19:40:27.882115,0
19:40:27.882115,117
19:40:27.882115,28672
19:40:27.882115,0
19:40:27.882115,97
19:40:27.882115,22528
19:40:27.882115,0
19:40:27.882115,80
19:40:27.882115,17920
19:40:27.882115,0
19:40:27.882115,61
19:40:27.882115,11264
19:40:27.882115,0
19:40:27.882115,17
19:40:27.882115,-1024
19:40:27.882115,-1
19:40:27.882115,-24
19:40:27.882115,-18433
19:40:27.882115,-1
19:40:27.882115,-114
19:40:27.882115,32767
19:40:27.882115,-1
19:40:27.882115,-151
19:40:27.882115,20223
19:40:27.882115,-1
19:40:27.882115,-171
19:40:27.882115,28927
19:40:27.882115,-1
19:40:27.882115,-107
19:40:27.882115,-9729
19:40:27.882115,-1
19:40:27.882115,24
19:40:27.882115,14848
19:40:27.882115,0
19:40:27.882115,100
19:40:27.882115,30464
19:40:27.882115,0
19:40:27.882115,105
19:40:27.882115,28672
19:40:27.882115,0
19:40:27.882115,117
19:40:27.882115,24320
19:40:27.882115,0
19:40:27.882115,85
19:40:27.882115,24832
19:40:27.882115,0
19:40:27.882115,105
19:40:27.882115,24832
19:40:27.882115,0
19:40:27.882115,95
19:40:27.882115,23552
19:40:27.882115,0
19:40:27.882115,107
19:40:27.882115,29184
19:40:27.882115,0
19:40:27.882115,88
19:40:27.882115,19968
19:40:27.882115,0
19:40:27.882115,75
19:40:28.422191,66
19:40:28.422191,19200
19:40:28.422191,0
19:40:28.422191,73
19:40:28.422191,14848
19:40:28.422191,0
19:40:28.422191,63
19:40:28.422191,16896
19:40:28.422191,0
19:40:28.422191,61
19:40:28.422191,16128
19:40:28.422191,0
19:40:28.422191,61
19:40:28.422191,13568
19:40:28.422191,0
19:40:28.422191,48
19:40:28.422191,7936
19:40:28.422191,0
19:40:28.422191,31
19:40:28.422191,11264
19:40:28.422191,0
19:40:28.422191,41
19:40:28.422191,7936
19:40:28.422191,0
19:40:28.422191,36
19:40:28.422191,11776
19:40:28.422191,0
19:40:28.422191,29
19:40:28.422191,2304
19:40:28.422191,0
19:40:28.422191,24
19:40:28.422191,8704
19:40:28.422191,0
19:40:28.422191,14
19:40:28.422191,3584
19:40:28.422191,0
19:40:28.422191,31
19:40:28.422191,6656
19:40:28.422191,0
19:40:28.422191,12
19:40:28.422191,2304
19:40:28.422191,0
19:40:28.422191,12
19:40:28.422191,3072
19:40:28.422191,0
19:40:28.422191,4
19:40:28.422191,2304
19:40:28.422191,0
19:40:28.422191,14
19:40:28.422191,512
19:40:28.422191,0
19:40:28.422191,-2
19:40:28.422191,767
19:40:28.422191,0
19:40:28.422191,2
19:40:28.422191,512
19:40:28.422191,0
19:40:28.422191,14
19:40:28.422191,6656
19:40:28.422191,0
19:40:28.422191,39
19:40:28.422191,9984
19:40:28.422191,0
19:40:28.422191,19
19:40:28.422191,-512
19:40:28.422191,-1
19:40:28.422191,-39
19:40:28.422191,-14593
19:40:28.422191,-1
19:40:28.422191,-19
19:40:28.422191,4607
19:40:28.422191,0
19:40:28.422191,-7
19:40:28.422191,-9729
19:40:28.422191,-1
19:40:28.422191,-29
19:40:28.422191,-4097
19:40:28.422191,-1
19:40:28.422191,-24
19:40:28.422191,-4609
19:40:28.422191,-1
19:40:28.422191,-14
19:40:28.422191,1279
19:40:28.422191,0
19:40:28.422191,146
19:40:28.422191,-32256
19:40:28.422191,1
19:40:28.422191,339
19:40:28.422191,-31488
19:40:28.422191,-2
19:40:28.422191,-1359
19:40:28.422191,-14849
19:40:28.422191,-8
19:40:28.422191,-1736
19:40:28.422191,8447
19:40:28.422191,-4
19:40:28.422191,-66
19:40:28.422191,-27137
19:40:28.422191,0
19:40:28.422191,29
19:40:28.422191,-23808
19:40:28.422191,0
19:40:28.422191,224
19:40:28.422191,-23808
19:40:28.422191,0
19:40:28.422191,185
19:40:28.422191,-12544
19:40:28.422191,0
19:40:28.422191,168
19:40:29.052221,163
19:40:29.052221,-19968
19:40:29.052221,0
19:40:29.052221,146
19:40:29.052221,31232
19:40:29.052221,0
19:40:29.052221,141
19:40:29.052221,-25600
19:40:29.052221,0
19:40:29.052221,144
19:40:29.052221,31232
19:40:29.052221,0
19:40:29.052221,119
19:40:29.052221,28672
19:40:29.052221,0
19:40:29.052221,80
19:40:29.052221,18688
19:40:29.052221,0
19:40:29.052221,66
19:40:29.052221,7424
19:40:29.052221,0
19:40:29.052221,0
19:40:29.052221,-5632
19:40:29.052221,-1
19:40:29.052221,-51
19:40:29.052221,-20225
19:40:29.052221,-1
19:40:29.052221,-110
19:40:29.052221,31999
19:40:29.052221,-1
19:40:29.052221,-129
19:40:29.052221,-24577
19:40:29.052221,-1
19:40:29.052221,-46
19:40:29.052221,3327
19:40:29.052221,0
19:40:29.052221,51
19:40:29.052221,17920
19:40:29.052221,0
19:40:29.052221,100
19:40:29.052221,31744
19:40:29.052221,0
19:40:29.052221,122
19:40:29.052221,31232
19:40:29.052221,0
19:40:29.052221,122
19:40:29.052221,29952
19:40:29.052221,0
19:40:29.052221,102
19:40:29.052221,24832
19:40:29.052221,0
19:40:29.052221,110
19:40:29.052221,23040
19:40:29.052221,0
19:40:29.052221,53
19:40:29.052221,18688
19:40:29.052221,0
19:40:29.052221,100
19:40:29.052221,21248
19:40:29.052221,0
19:40:29.052221,68
19:40:29.052221,19200
19:40:29.052221,0
19:40:29.052221,75
19:40:29.052221,16896
19:40:29.052221,0
19:40:29.052221,61
19:40:29.052221,17920
19:40:29.052221,0
19:40:29.052221,78
19:40:29.052221,17408
19:40:29.052221,0
19:40:29.052221,53
19:40:29.052221,12288
19:40:29.052221,0
19:40:29.052221,44
19:40:29.052221,9216
19:40:29.052221,0
19:40:29.052221,36
19:40:29.052221,9984
19:40:29.052221,0
19:40:29.052221,24
19:40:29.052221,3584
19:40:29.052221,0
19:40:29.052221,19
19:40:29.052221,6144
19:40:29.052221,0
19:40:29.052221,19
19:40:29.052221,3072
19:40:29.052221,0
19:40:29.052221,4
19:40:29.052221,1792
19:40:29.052221,0
19:40:29.052221,14
19:40:29.052221,2304
19:40:29.052221,0
19:40:29.052221,-14
19:40:29.052221,-1537
19:40:29.052221,-1
19:40:29.052221,9
19:40:29.052221,-2304
19:40:29.052221,-1
19:40:29.052221,-19
19:40:29.052221,255
19:40:29.052221,0
19:40:29.052221,-4
19:40:29.052221,-3329
19:40:29.052221,-1
19:40:29.052221,-2
19:40:29.546674,0
19:40:29.546674,-3584
19:40:29.546674,-1
19:40:29.546674,-17
19:40:29.546674,-1537
19:40:29.546674,-1
19:40:29.546674,-4
19:40:29.546674,-4609
19:40:29.546674,-1
19:40:29.546674,-24
19:40:29.546674,-1537
19:40:29.546674,-1
19:40:29.546674,-7
19:40:29.546674,-3329
19:40:29.546674,-1
19:40:29.546674,-14
19:40:29.546674,-4097
19:40:29.546674,-1
19:40:29.546674,-17
19:40:29.546674,767
19:40:29.546674,0
19:40:29.546674,24
19:40:29.546674,10496
19:40:29.546674,0
19:40:29.546674,36
19:40:29.546674,5632
19:40:29.546674,0
19:40:29.546674,34
19:40:29.546674,7936
19:40:29.546674,0
19:40:29.546674,-29
19:40:29.546674,-17153
19:40:29.546674,-1
19:40:29.546674,-29
19:40:29.546674,1279
19:40:29.546674,0
19:40:29.546674,-4
19:40:29.546674,-2817
19:40:29.546674,-1
19:40:29.546674,-4
19:40:29.546674,-1537
19:40:29.546674,-1
19:40:29.546674,-12
19:40:29.546674,-769
19:40:29.546674,-1
19:40:29.546674,-14
19:40:29.546674,-769
19:40:29.546674,-1
19:40:29.546674,139
19:40:29.546674,-32256
19:40:29.546674,1
19:40:29.546674,349
19:40:29.546674,-23808
19:40:29.546674,-2
19:40:29.546674,-1335
19:40:29.546674,-15361
19:40:29.546674,-8
19:40:29.546674,-1724
19:40:29.546674,14591
19:40:29.546674,-4
19:40:29.546674,-39
19:40:29.546674,-20225
19:40:29.546674,0
19:40:29.546674,12
19:40:29.546674,-29440
19:40:29.546674,0
19:40:29.546674,249
19:40:29.546674,-19456
19:40:29.546674,0
19:40:29.546674,180
19:40:29.546674,-11264
19:40:29.546674,0
19:40:29.546674,188
19:40:29.546674,-19456
19:40:29.546674,0
19:40:29.546674,195
19:40:29.546674,-25088
19:40:29.546674,0
19:40:29.546674,127
19:40:29.546674,-26112
19:40:29.546674,0
19:40:29.546674,146
19:40:29.546674,28160
19:40:29.546674,0
19:40:29.546674,112
19:40:29.546674,28672
19:40:29.546674,0
19:40:29.546674,97
19:40:29.546674,21248
19:40:29.546674,0
19:40:29.546674,68
19:40:29.546674,11264
19:40:29.546674,0
19:40:29.546674,24
19:40:29.546674,1024
19:40:29.546674,0
19:40:29.546674,-29
19:40:29.546674,-15873
19:40:29.546674,-1
19:40:29.546674,-92
19:40:29.546674,31487
19:40:29.546674,-1
19:40:29.546674,-151
19:40:29.546674,27135
19:40:29.546674,-1
19:40:29.546674,-136
19:40:29.546674,-19713
19:40:29.546674,-1
19:40:29.546674,-14
19:40:30.131676,36
19:40:30.131676,20480
19:40:30.131676,0
19:40:30.131676,95
19:40:30.131676,23552
19:40:30.131676,0
19:40:30.131676,112
19:40:30.131676,-32512
19:40:30.131676,0
19:40:30.131676,127
19:40:30.131676,30464
19:40:30.131676,0
19:40:30.131676,119
19:40:30.131676,30464
19:40:30.131676,0
19:40:30.131676,114
19:40:30.131676,23552
19:40:30.131676,0
19:40:30.131676,68
19:40:30.131676,18688
19:40:30.131676,0
19:40:30.131676,90
19:40:30.131676,17920
19:40:30.131676,0
19:40:30.131676,53
19:40:30.131676,17408
19:40:30.131676,0
19:40:30.131676,78
19:40:30.131676,16896
19:40:30.131676,0
19:40:30.131676,56
19:40:30.131676,13568
19:40:30.131676,0
19:40:30.131676,51
19:40:30.131676,10496
19:40:30.131676,0
19:40:30.131676,41
19:40:30.131676,12288
19:40:30.131676,0
19:40:30.131676,39
19:40:30.131676,6144
19:40:30.131676,0
19:40:30.131676,19
19:40:30.131676,4864
19:40:30.131676,0
19:40:30.131676,34
19:40:30.131676,6656
19:40:30.131676,0
19:40:30.131676,-26
19:40:30.131676,-11521
19:40:30.131676,-1
19:40:30.131676,-7
19:40:30.131676,255
19:40:30.131676,0
19:40:30.131676,-24
19:40:30.131676,-4609
19:40:30.131676,-1
19:40:30.131676,-9
19:40:30.131676,-4097
19:40:30.131676,-1
19:40:30.131676,-4
19:40:30.131676,-257
19:40:30.131676,-1
19:40:30.131676,-26
19:40:30.131676,-7681
19:40:30.131676,-1
19:40:30.131676,-31
19:40:30.131676,-9729
19:40:30.131676,-1
19:40:30.131676,-34
19:40:30.131676,-6401
19:40:30.131676,-1
19:40:30.131676,-31
19:40:30.131676,-8449
19:40:30.131676,-1
19:40:30.131676,-29
19:40:30.131676,-6401
19:40:30.131676,-1
19:40:30.131676,-26
19:40:30.131676,-5889
19:40:30.131676,-1
19:40:30.131676,-19
19:40:30.131676,-7169
19:40:30.131676,-1
19:40:30.131676,-36
19:40:30.131676,-3329
19:40:30.131676,-1
19:40:30.131676,-31
19:40:30.131676,-21505
19:40:30.131676,-1
19:40:30.131676,-58
19:40:30.131676,-4097
19:40:30.131676,-1
19:40:30.131676,-41
19:40:30.131676,-11009
19:40:30.131676,-1
19:40:30.131676,-26
19:40:30.131676,-7169
19:40:30.131676,-1
19:40:30.131676,-31
19:40:30.131676,-4097
19:40:30.131676,-1
19:40:30.131676,-2
19:40:30.131676,1279
19:40:30.131676,0
19:40:30.131676,2
19:40:30.131676,-512
19:40:30.131676,-1
19:40:30.131676,-22
19:40:30.716964,-70
19:40:30.716964,-18433
19:40:30.716964,-1
19:40:30.716964,-19
19:40:30.716964,-7169
19:40:30.716964,-1
19:40:30.716964,-70
19:40:30.716964,-11009
19:40:30.716964,-1
19:40:30.716964,-26
19:40:30.716964,-12801
19:40:30.716964,-1
19:40:30.716964,-36
19:40:30.716964,-2817
19:40:30.716964,-1
19:40:30.716964,-17
19:40:30.716964,255
19:40:30.716964,0
19:40:30.716964,132
19:40:30.716964,29440
19:40:30.716964,1
19:40:30.716964,371
19:40:30.716964,-2560
19:40:30.716964,-2
19:40:30.716964,-1225
19:40:30.716964,10239
19:40:30.716964,-7
19:40:30.716964,-1650
19:40:30.716964,19711
19:40:30.716964,-4
19:40:30.716964,-112
19:40:30.716964,19455
19:40:30.716964,0
19:40:30.716964,-19
19:40:30.716964,-30465
19:40:30.716964,0
19:40:30.716964,220
19:40:30.716964,-25600
19:40:30.716964,0
19:40:30.716964,163
19:40:30.716964,-19456
19:40:30.716964,0
19:40:30.716964,149
19:40:30.716964,-29440
19:40:30.716964,0
19:40:30.716964,144
19:40:30.716964,-31232
19:40:30.716964,0
19:40:30.716964,124
19:40:30.716964,26880
19:40:30.716964,0
19:40:30.716964,92
19:40:30.716964,24832
19:40:30.716964,0
19:40:30.716964,88
19:40:30.716964,18688
19:40:30.716964,0
19:40:30.716964,70
19:40:30.716964,11264
19:40:30.716964,0
19:40:30.716964,7
19:40:30.716964,-512
19:40:30.716964,-1
19:40:30.716964,-4
19:40:30.716964,-8961
19:40:30.716964,-1
19:40:30.716964,-75
19:40:30.716964,-25345
19:40:30.716964,-1
19:40:30.716964,-129
19:40:30.716964,25855
19:40:30.716964,-1
19:40:30.716964,-163
19:40:30.716964,24063
19:40:30.716964,-1
19:40:30.716964,-141
19:40:30.716964,-22785
19:40:30.716964,-1
19:40:30.716964,-22
19:40:30.716964,8191
19:40:30.716964,0
19:40:30.716964,66
19:40:30.716964,28160
19:40:30.716964,0
19:40:30.716964,124
19:40:30.716964,20480
19:40:30.716964,0
19:40:30.716964,83
19:40:30.716964,29952
19:40:30.716964,0
19:40:30.716964,112
19:40:30.716964,24832
19:40:30.716964,0
19:40:30.716964,105
19:40:30.716964,28160
19:40:30.716964,0
19:40:30.716964,102
19:40:30.716964,26880
19:40:30.716964,0
19:40:30.716964,97
19:40:30.716964,19968
19:40:30.716964,0
19:40:30.716964,100
19:40:30.716964,24320
19:40:30.716964,0
19:40:30.716964,56
19:40:30.716964,18688
19:40:30.716964,0
19:40:30.716964,95
19:40:31.257289,80
19:40:31.257289,17920
19:40:31.257289,0
19:40:31.257289,73
19:40:31.257289,18688
19:40:31.257289,0
19:40:31.257289,63
19:40:31.257289,9984
19:40:31.257289,0
19:40:31.257289,29
19:40:31.257289,13056
19:40:31.257289,0
19:40:31.257289,51
19:40:31.257289,4352
19:40:31.257289,0
19:40:31.257289,14
19:40:31.257289,11264
19:40:31.257289,0
19:40:31.257289,53
19:40:31.257289,15616
19:40:31.257289,0
19:40:31.257289,56
19:40:31.257289,3072
19:40:31.257289,0
19:40:31.257289,2
19:40:31.257289,7424
19:40:31.257289,0
19:40:31.257289,31
19:40:31.257289,6656
19:40:31.257289,0
19:40:31.257289,31
19:40:31.257289,5632
19:40:31.257289,0
19:40:31.257289,19
19:40:31.257289,6656
19:40:31.257289,0
19:40:31.257289,22
19:40:31.257289,2304
19:40:31.257289,0
19:40:31.257289,12
19:40:31.257289,3584
19:40:31.257289,0
19:40:31.257289,17
19:40:31.257289,7424
19:40:31.257289,0
19:40:31.257289,24
19:40:31.257289,0
19:40:31.257289,0
19:40:31.257289,-14
19:40:31.257289,767
19:40:31.257289,0
19:40:31.257289,19
19:40:31.257289,1792
19:40:31.257289,0
19:40:31.257289,-9
19:40:31.257289,767
19:40:31.257289,0
19:40:31.257289,17
19:40:31.257289,1792
19:40:31.257289,0
19:40:31.257289,9
19:40:31.257289,6656
19:40:31.257289,0
19:40:31.257289,46
19:40:31.257289,13056
19:40:31.257289,0
19:40:31.257289,26
19:40:31.257289,-6144
19:40:31.257289,-1
19:40:31.257289,-51
19:40:31.257289,-7681
19:40:31.257289,-1
19:40:31.257289,-14
19:40:31.257289,-3329
19:40:31.257289,-1
19:40:31.257289,-4
19:40:31.257289,1279
19:40:31.257289,0
19:40:31.257289,-9
19:40:31.257289,-3329
19:40:31.257289,-1
19:40:31.257289,-2
19:40:31.257289,1279
19:40:31.257289,0
19:40:31.257289,-12
19:40:31.257289,2047
19:40:31.257289,0
19:40:31.257289,178
19:40:31.257289,-26112
19:40:31.257289,1
19:40:31.257289,320
19:40:31.257289,-32512
19:40:31.257289,-2
19:40:31.257289,-1327
19:40:31.257289,-12289
19:40:31.257289,-8
19:40:31.257289,-1748
19:40:31.257289,12031
19:40:31.257289,-4
19:40:31.257289,-24
19:40:31.257289,-19201
19:40:31.257289,0
19:40:31.257289,41
19:40:31.257289,-18176
19:40:31.257289,0
19:40:31.257289,269
19:40:31.257289,-16128
19:40:31.257289,0
19:40:31.257289,200
19:40:31.842286,232
19:40:31.842286,-18176
19:40:31.842286,0
19:40:31.842286,173
19:40:31.842286,-13824
19:40:31.842286,0
19:40:31.842286,158
19:40:31.842286,27392
19:40:31.842286,0
19:40:31.842286,144
19:40:31.842286,-24320
19:40:31.842286,0
19:40:31.842286,122
19:40:31.842286,29952
19:40:31.842286,0
19:40:31.842286,136
19:40:31.842286,31744
19:40:31.842286,0
19:40:31.842286,100
19:40:31.842286,24832
19:40:31.842286,0
19:40:31.842286,90
19:40:31.842286,15616
19:40:31.842286,0
19:40:31.842286,26
19:40:31.842286,-3072
19:40:31.842286,-1
19:40:31.842286,-48
19:40:31.842286,-18945
19:40:31.842286,-1
19:40:31.842286,-95
19:40:31.842286,-28929
19:40:31.842286,-1
19:40:31.842286,-119
19:40:31.842286,-25857
19:40:31.842286,-1
19:40:31.842286,-56
19:40:31.842286,2559
19:40:31.842286,0
19:40:31.842286,66
19:40:31.842286,24832
19:40:31.842286,0
19:40:31.842286,105
19:40:31.842286,25600
19:40:31.842286,0
19:40:31.842286,105
19:40:31.842286,29952
19:40:31.842286,0
19:40:31.842286,114
19:40:31.842286,27392
19:40:31.842286,0
19:40:31.842286,112
19:40:31.842286,27392
19:40:31.842286,0
19:40:31.842286,90
19:40:31.842286,21248
19:40:31.842286,0
19:40:31.842286,80
19:40:31.842286,20480
19:40:31.842286,0
19:40:31.842286,85
19:40:31.842286,22528
19:40:31.842286,0
19:40:31.842286,75
19:40:31.842286,14336
19:40:31.842286,0
19:40:31.842286,63
19:40:31.842286,19968
19:40:31.842286,0
19:40:31.842286,70
19:40:31.842286,16896
19:40:31.842286,0
19:40:31.842286,68
19:40:31.842286,16896
19:40:31.842286,0
19:40:31.842286,63
19:40:31.842286,14848
19:40:31.842286,0
19:40:31.842286,58
19:40:31.842286,15616
19:40:31.842286,0
19:40:31.842286,34
19:40:31.842286,4352
19:40:31.842286,0
19:40:31.842286,34
19:40:31.842286,6656
19:40:31.842286,0
19:40:31.842286,12
19:40:31.842286,5632
19:40:31.842286,0
19:40:31.842286,29
19:40:31.842286,4864
19:40:31.842286,0
19:40:31.842286,17
19:40:31.842286,4864
19:40:31.842286,0
19:40:31.842286,4
19:40:31.842286,-1024
19:40:31.842286,-1
19:40:31.842286,2
19:40:31.842286,1024
19:40:31.842286,0
19:40:31.842286,-2
19:40:31.842286,-1537
19:40:31.842286,-1
19:40:31.842286,2
19:40:31.842286,0
19:40:31.842286,0
19:40:31.842286,-14
19:40:32.380963,-7
19:40:32.380963,-769
19:40:32.380963,-1
19:40:32.380963,-14
19:40:32.380963,-1537
19:40:32.380963,-1
19:40:32.380963,-4
19:40:32.380963,-2049
19:40:32.380963,-1
19:40:32.380963,-9
19:40:32.380963,-1537
19:40:32.380963,-1
19:40:32.380963,-14
19:40:32.380963,-8449
19:40:32.380963,-1
19:40:32.380963,-26
19:40:32.380963,-769
19:40:32.380963,-1
19:40:32.380963,-7
19:40:32.380963,-257
19:40:32.380963,-1
19:40:32.380963,7
19:40:32.380963,1024
19:40:32.380963,0
19:40:32.380963,7
19:40:32.380963,-512
19:40:32.380963,-1
19:40:32.380963,-12
19:40:32.380963,-257
19:40:32.380963,-1
19:40:32.380963,2
19:40:32.380963,-512
19:40:32.380963,-1
19:40:32.380963,-17
19:40:32.380963,-6401
19:40:32.380963,-1
19:40:32.380963,-4
19:40:32.380963,3839
19:40:32.380963,0
19:40:32.380963,17
19:40:32.380963,4864
19:40:32.380963,0
19:40:32.380963,24
19:40:32.380963,7424
19:40:32.380963,0
19:40:32.380963,2
19:40:32.380963,-12288
19:40:32.380963,-1
19:40:32.380963,-53
19:40:32.380963,-7169
19:40:32.380963,-1
19:40:32.380963,-29
19:40:32.380963,-7169
19:40:32.380963,-1
19:40:32.380963,-14
19:40:32.380963,-2049
19:40:32.380963,-1
19:40:32.380963,-19
19:40:32.380963,-7169
19:40:32.380963,-1
19:40:32.380963,-26
19:40:32.380963,-4097
19:40:32.380963,-1
19:40:32.380963,-4
19:40:32.380963,25855
19:40:32.380963,0
19:40:32.380963,342
19:40:32.380963,-28416
19:40:32.380963,1
19:40:32.380963,-161
19:40:32.380963,-27393
19:40:32.380963,-5
19:40:32.380963,-1775
19:40:32.380963,-5889
19:40:32.380963,-8
19:40:32.380963,-1230
19:40:32.380963,-2305
19:40:32.380963,-2
19:40:32.380963,168
19:40:32.380963,12288
19:40:32.380963,0
19:40:32.380963,92
19:40:32.380963,-9216
19:40:32.380963,0
19:40:32.380963,185
19:40:32.380963,-24320
19:40:32.380963,0
19:40:32.380963,185
19:40:32.380963,-22528
19:40:32.380963,0
19:40:32.380963,146
19:40:32.380963,-28160
19:40:32.380963,0
19:40:32.380963,139
19:40:32.380963,29184
19:40:32.380963,0
19:40:32.380963,95
19:40:32.380963,26880
19:40:32.380963,0
19:40:32.380963,105
19:40:32.380963,20480
19:40:32.380963,0
19:40:32.380963,70
19:40:32.380963,18688
19:40:32.380963,0
19:40:32.380963,61
19:40:32.380963,8704
19:40:32.380963,0
19:40:32.380963,7
19:40:32.921205,4
19:40:32.921205,-1792
19:40:32.921205,-1
19:40:32.921205,-46
19:40:32.921205,-21505
19:40:32.921205,-1
19:40:32.921205,-105
19:40:32.921205,-30209
19:40:32.921205,-1
19:40:32.921205,-141
19:40:32.921205,24063
19:40:32.921205,-1
19:40:32.921205,-168
19:40:32.921205,-29697
19:40:32.921205,-1
19:40:32.921205,-34
19:40:32.921205,2559
19:40:32.921205,0
19:40:32.921205,39
19:40:32.921205,16896
19:40:32.921205,0
19:40:32.921205,75
19:40:32.921205,21248
19:40:32.921205,0
19:40:32.921205,97
19:40:32.921205,25600
19:40:32.921205,0
19:40:32.921205,95
19:40:32.921205,23552
19:40:32.921205,0
19:40:32.921205,70
19:40:32.921205,15616
19:40:32.921205,0
19:40:32.921205,73
19:40:32.921205,15616
19:40:32.921205,0
19:40:32.921205,36
19:40:32.921205,12288
19:40:32.921205,0
19:40:32.921205,66
19:40:32.921205,14336
19:40:32.921205,0
19:40:32.921205,48
19:40:32.921205,13056
19:40:32.921205,0
19:40:32.921205,58
19:40:32.921205,14848
19:40:32.921205,0
19:40:32.921205,41
19:40:32.921205,7936
19:40:32.921205,0
19:40:32.921205,46
19:40:32.921205,9984
19:40:32.921205,0
19:40:32.921205,24
19:40:32.921205,5632
19:40:32.921205,0
19:40:32.921205,24
19:40:32.921205,7424
19:40:32.921205,0
19:40:32.921205,19
19:40:32.921205,-1792
19:40:32.921205,-1
19:40:32.921205,-9
19:40:32.921205,767
19:40:32.921205,0
19:40:32.921205,0
19:40:32.921205,1024
19:40:32.921205,0
19:40:32.921205,2
19:40:32.921205,-4864
19:40:32.921205,-1
19:40:32.921205,-22
19:40:32.921205,-2049
19:40:32.921205,-1
19:40:32.921205,-22
19:40:32.921205,-7169
19:40:32.921205,-1
19:40:32.921205,-24
19:40:32.921205,-5889
19:40:32.921205,-1
19:40:32.921205,-19
19:40:32.921205,-4097
19:40:32.921205,-1
19:40:32.921205,-31
19:40:32.921205,-10241
19:40:32.921205,-1
19:40:32.921205,-31
19:40:32.921205,-7169
19:40:32.921205,-1
19:40:32.921205,-34
19:40:32.921205,-5889
19:40:32.921205,-1
19:40:32.921205,-19
19:40:32.921205,-5377
19:40:32.921205,-1
19:40:32.921205,-29
19:40:32.921205,-9729
19:40:32.921205,-1
19:40:32.921205,-26
19:40:32.921205,-3329
19:40:32.921205,-1
19:40:32.921205,-39
19:40:32.921205,-11521
19:40:32.921205,-1
19:40:32.921205,-19
19:40:32.921205,-2049
19:40:32.921205,-1
19:40:32.921205,-14
19:40:33.506869,0
19:40:33.506869,1792
19:40:33.506869,0
19:40:33.506869,-12
19:40:33.506869,-12801
19:40:33.506869,-1
19:40:33.506869,-70
19:40:33.506869,-7169
19:40:33.506869,-1
19:40:33.506869,0
19:40:33.506869,-12288
19:40:33.506869,-1
19:40:33.506869,-53
19:40:33.506869,1279
19:40:33.506869,0
19:40:33.506869,2
19:40:33.506869,-10496
19:40:33.506869,-1
19:40:33.506869,-39
19:40:33.506869,-2049
19:40:33.506869,-1
19:40:33.506869,7
19:40:33.506869,29952
19:40:33.506869,0
19:40:33.506869,352
19:40:33.506869,30208
19:40:33.506869,1
19:40:33.506869,-205
19:40:33.506869,-27393
19:40:33.506869,-5
19:40:33.506869,-1709
19:40:33.506869,-31489
19:40:33.506869,-7
19:40:33.506869,-985
19:40:33.506869,30207
19:40:33.506869,-1
19:40:33.506869,95
19:40:33.506869,3584
19:40:33.506869,0
19:40:33.506869,156
19:40:33.506869,-4864
19:40:33.506869,0
19:40:33.506869,173
19:40:33.506869,-19968
19:40:33.506869,0
19:40:33.506869,202
19:40:33.506869,-18688
19:40:33.506869,0
19:40:33.506869,171
19:40:33.506869,-25600
19:40:33.506869,0
19:40:33.506869,127
19:40:33.506869,31744
19:40:33.506869,0
19:40:33.506869,136
19:40:33.506869,32512
19:40:33.506869,0
19:40:33.506869,100
19:40:33.506869,23552
19:40:33.506869,0
19:40:33.506869,97
19:40:33.506869,22528
19:40:33.506869,0
19:40:33.506869,66
19:40:33.506869,12288
19:40:33.506869,0
19:40:33.506869,39
19:40:33.506869,6656
19:40:33.506869,0
19:40:33.506869,-4
19:40:33.506869,-8961
19:40:33.506869,-1
19:40:33.506869,-66
19:40:33.506869,31999
19:40:33.506869,-1
19:40:33.506869,-161
19:40:33.506869,31487
19:40:33.506869,-1
19:40:33.506869,-141
19:40:33.506869,31999
19:40:33.506869,-1
19:40:33.506869,-61
19:40:33.506869,1279
19:40:33.506869,0
19:40:33.506869,44
19:40:33.506869,20480
19:40:33.506869,0
19:40:33.506869,110
19:40:33.506869,29952
19:40:33.506869,0
19:40:33.506869,124
19:40:33.506869,31744
19:40:33.506869,0
19:40:33.506869,119
19:40:33.506869,31232
19:40:33.506869,0
19:40:33.506869,114
19:40:33.506869,28160
19:40:33.506869,0
19:40:33.506869,110
19:40:33.506869,21248
19:40:33.506869,0
19:40:33.506869,61
19:40:33.506869,20480
19:40:33.506869,0
19:40:33.506869,100
19:40:33.506869,21760
19:40:33.506869,0
19:40:33.506869,85
19:40:34.047216,95
19:40:34.047216,21248
19:40:34.047216,0
19:40:34.047216,73
19:40:34.047216,19200
19:40:34.047216,0
19:40:34.047216,68
19:40:34.047216,14848
19:40:34.047216,0
19:40:34.047216,56
19:40:34.047216,13568
19:40:34.047216,0
19:40:34.047216,46
19:40:34.047216,11264
19:40:34.047216,0
19:40:34.047216,61
19:40:34.047216,12288
19:40:34.047216,0
19:40:34.047216,17
19:40:34.047216,11264
19:40:34.047216,0
19:40:34.047216,61
19:40:34.047216,4352
19:40:34.047216,0
19:40:34.047216,14
19:40:34.047216,11264
19:40:34.047216,0
19:40:34.047216,29
19:40:34.047216,4352
19:40:34.047216,0
19:40:34.047216,29
19:40:34.047216,7936
19:40:34.047216,0
19:40:34.047216,22
19:40:34.047216,6144
19:40:34.047216,0
19:40:34.047216,22
19:40:34.047216,5632
19:40:34.047216,0
19:40:34.047216,17
19:40:34.047216,512
19:40:34.047216,0
19:40:34.047216,2
19:40:34.047216,4352
19:40:34.047216,0
19:40:34.047216,4
19:40:34.047216,-1024
19:40:34.047216,-1
19:40:34.047216,12
19:40:34.047216,3584
19:40:34.047216,0
19:40:34.047216,-9
19:40:34.047216,-1537
19:40:34.047216,-1
19:40:34.047216,22
19:40:34.047216,1024
19:40:34.047216,0
19:40:34.047216,-26
19:40:34.047216,-1537
19:40:34.047216,-1
19:40:34.047216,12
19:40:34.047216,-1792
19:40:34.047216,-1
19:40:34.047216,-17
19:40:34.047216,-769
19:40:34.047216,-1
19:40:34.047216,4
19:40:34.047216,0
19:40:34.047216,0
19:40:34.047216,2
19:40:34.047216,6656
19:40:34.047216,0
19:40:34.047216,29
19:40:34.047216,3584
19:40:34.047216,0
19:40:34.047216,31
19:40:34.047216,6656
19:40:34.047216,0
19:40:34.047216,-19
19:40:34.047216,-11009
19:40:34.047216,-1
19:40:34.047216,-48
19:40:34.047216,-9729
19:40:34.047216,-1
19:40:34.047216,-12
19:40:34.047216,-769
19:40:34.047216,-1
19:40:34.047216,-22
19:40:34.047216,-4609
19:40:34.047216,-1
19:40:34.047216,-9
19:40:34.047216,-2817
19:40:34.047216,-1
19:40:34.047216,-14
19:40:34.047216,2047
19:40:34.047216,0
19:40:34.047216,119
19:40:34.047216,24576
19:40:34.047216,1
19:40:34.047216,413
19:40:34.047216,-31744
19:40:34.047216,-1
19:40:34.047216,-1100
19:40:34.047216,-4097
19:40:34.047216,-8
19:40:34.047216,-1885
19:40:34.047216,3071
19:40:34.047216,-5
19:40:34.047216,-266
19:40:34.631944,178
19:40:34.631944,13568
19:40:34.631944,0
19:40:34.631944,122
19:40:34.631944,1280
19:40:34.631944,1
19:40:34.631944,205
19:40:34.631944,-19968
19:40:34.631944,0
19:40:34.631944,212
19:40:34.631944,-16128
19:40:34.631944,0
19:40:34.631944,185
19:40:34.631944,-14848
19:40:34.631944,0
19:40:34.631944,168
19:40:34.631944,-27392
19:40:34.631944,0
19:40:34.631944,166
19:40:34.631944,-23040
19:40:34.631944,0
19:40:34.631944,136
19:40:34.631944,29952
19:40:34.631944,0
19:40:34.631944,117
19:40:34.631944,29952
19:40:34.631944,0
19:40:34.631944,97
19:40:34.631944,19200
19:40:34.631944,0
19:40:34.631944,66
19:40:34.631944,12288
19:40:34.631944,0
19:40:34.631944,19
19:40:34.631944,-1024
19:40:34.631944,-1
19:40:34.631944,-36
19:40:34.631944,-17665
19:40:34.631944,-1
19:40:34.631944,-85
19:40:34.631944,-28417
19:40:34.631944,-1
19:40:34.631944,-139
19:40:34.631944,-29697
19:40:34.631944,-1
19:40:34.631944,-78
19:40:34.631944,-10241
19:40:34.631944,-1
19:40:34.631944,12
19:40:34.631944,16128
19:40:34.631944,0
19:40:34.631944,85
19:40:34.631944,24320
19:40:34.631944,0
19:40:34.631944,114
19:40:34.631944,-30720
19:40:34.631944,0
19:40:34.631944,124
19:40:34.631944,19968
19:40:34.631944,0
19:40:34.631944,78
19:40:34.631944,26880
19:40:34.631944,0
19:40:34.631944,90
19:40:34.631944,16896
19:40:34.631944,0
19:40:34.631944,73
19:40:34.631944,17408
19:40:34.631944,0
19:40:34.631944,61
19:40:34.631944,17408
19:40:34.631944,0
19:40:34.631944,75
19:40:34.631944,19200
19:40:34.631944,0
19:40:34.631944,48
19:40:34.631944,8704
19:40:34.631944,0
19:40:34.631944,56
19:40:34.631944,15616
19:40:34.631944,0
19:40:34.631944,56
19:40:34.631944,14848
19:40:34.631944,0
19:40:34.631944,46
19:40:34.631944,7936
19:40:34.631944,0
19:40:34.631944,22
19:40:34.631944,3072
19:40:34.631944,0
19:40:34.631944,22
19:40:34.631944,7424
19:40:34.631944,0
19:40:34.631944,19
19:40:34.631944,3072
19:40:34.631944,0
19:40:34.631944,9
19:40:34.631944,-1024
19:40:34.631944,-1
19:40:34.631944,-9
19:40:34.631944,255
19:40:34.631944,0
19:40:34.631944,2
19:40:34.631944,-1024
19:40:34.631944,-1
19:40:34.631944,-17
19:40:34.631944,-4097
19:40:34.631944,-1
19:40:34.631944,-9
19:40:35.172063,-12
19:40:35.172063,-5377
19:40:35.172063,-1
19:40:35.172063,-34
19:40:35.172063,-6401
19:40:35.172063,-1
19:40:35.172063,-9
19:40:35.172063,-2049
19:40:35.172063,-1
19:40:35.172063,-34
19:40:35.172063,-9729
19:40:35.172063,-1
19:40:35.172063,-24
19:40:35.172063,-6401
19:40:35.172063,-1
19:40:35.172063,-26
19:40:35.172063,-1537
19:40:35.172063,-1
19:40:35.172063,-2
19:40:35.172063,-4609
19:40:35.172063,-1
19:40:35.172063,-22
19:40:35.172063,-2817
19:40:35.172063,-1
19:40:35.172063,-19
19:40:35.172063,-6401
19:40:35.172063,-1
19:40:35.172063,-26
19:40:35.172063,-5889
19:40:35.172063,-1
19:40:35.172063,-24
19:40:35.172063,-7681
19:40:35.172063,-1
19:40:35.172063,-31
19:40:35.172063,-3329
19:40:35.172063,-1
19:40:35.172063,-7
19:40:35.172063,-1537
19:40:35.172063,-1
19:40:35.172063,2
19:40:35.172063,2304
19:40:35.172063,0
19:40:35.172063,22
19:40:35.172063,0
19:40:35.172063,0
19:40:35.172063,-75
19:40:35.172063,-22273
19:40:35.172063,-1
19:40:35.172063,-29
19:40:35.172063,-4097
19:40:35.172063,-1
19:40:35.172063,-39
19:40:35.172063,-10241
19:40:35.172063,-1
19:40:35.172063,-44
19:40:35.172063,-10241
19:40:35.172063,-1
19:40:35.172063,-34
19:40:35.172063,-7681
19:40:35.172063,-1
19:40:35.172063,-29
19:40:35.172063,4607
19:40:35.172063,0
19:40:35.172063,205
19:40:35.172063,-27904
19:40:35.172063,1
19:40:35.172063,180
19:40:35.172063,-32768
19:40:35.172063,-3
19:40:35.172063,-1501
19:40:35.172063,-9217
19:40:35.172063,-8
19:40:35.172063,-1533
19:40:35.172063,24319
19:40:35.172063,-3
19:40:35.172063,34
19:40:35.172063,11264
19:40:35.172063,0
19:40:35.172063,9
19:40:35.172063,-16896
19:40:35.172063,0
19:40:35.172063,202
19:40:35.172063,-29440
19:40:35.172063,0
19:40:35.172063,173
19:40:35.172063,-19456
19:40:35.172063,0
19:40:35.172063,144
19:40:35.172063,-30720
19:40:35.172063,0
19:40:35.172063,146
19:40:35.172063,-29440
19:40:35.172063,0
19:40:35.172063,129
19:40:35.172063,24832
19:40:35.172063,0
19:40:35.172063,80
19:40:35.172063,23552
19:40:35.172063,0
19:40:35.172063,83
19:40:35.172063,15616
19:40:35.172063,0
19:40:35.172063,58
19:40:35.172063,14848
19:40:35.172063,0
19:40:35.172063,51
19:40:35.172063,6656
19:40:35.172063,0
19:40:35.172063,-17
19:40:35.711740,-56
19:40:35.711740,-19713
19:40:35.711740,-1
19:40:35.711740,-100
19:40:35.711740,31487
19:40:35.711740,-1
19:40:35.711740,-158
19:40:35.711740,27135
19:40:35.711740,-1
19:40:35.711740,-144
19:40:35.711740,31999
19:40:35.711740,-1
19:40:35.711740,-66
19:40:35.711740,3839
19:40:35.711740,0
19:40:35.711740,63
19:40:35.711740,21760
19:40:35.711740,0
19:40:35.711740,110
19:40:35.711740,31232
19:40:35.711740,0
19:40:35.711740,102
19:40:35.711740,22528
19:40:35.711740,0
19:40:35.711740,107
19:40:35.711740,27392
19:40:35.711740,0
19:40:35.711740,102
19:40:35.711740,26880
19:40:35.711740,0
19:40:35.711740,95
19:40:35.711740,23040
19:40:35.711740,0
19:40:35.711740,97
19:40:35.711740,23040
19:40:35.711740,0
19:40:35.711740,85
19:40:35.711740,22528
19:40:35.711740,0
19:40:35.711740,66
19:40:35.711740,14336
19:40:35.711740,0
19:40:35.711740,78
19:40:35.711740,19968
19:40:35.711740,0
19:40:35.711740,58
19:40:35.711740,15616
19:40:35.711740,0
19:40:35.711740,61
19:40:35.711740,13056
19:40:35.711740,0
19:40:35.711740,56
19:40:35.711740,11776
19:40:35.711740,0
19:40:35.711740,29
19:40:35.711740,10496
19:40:35.711740,0
19:40:35.711740,46
19:40:35.711740,0
19:40:35.711740,0
19:40:35.711740,-14
19:40:35.711740,4607
19:40:35.711740,0
19:40:35.711740,22
19:40:35.711740,2304
19:40:35.711740,0
19:40:35.711740,17
19:40:35.711740,4352
19:40:35.711740,0
19:40:35.711740,12
19:40:35.711740,3584
19:40:35.711740,0
19:40:35.711740,17
19:40:35.711740,4864
19:40:35.711740,0
19:40:35.711740,19
19:40:35.711740,0
19:40:35.711740,0
19:40:35.711740,-9
19:40:35.711740,1279
19:40:35.711740,0
19:40:35.711740,9
19:40:35.711740,2304
19:40:35.711740,0
19:40:35.711740,26
19:40:35.711740,9984
19:40:35.711740,0
19:40:35.711740,17
19:40:35.711740,-1024
19:40:35.711740,-1
19:40:35.711740,29
19:40:35.711740,12288
19:40:35.711740,0
19:40:35.711740,4
19:40:35.711740,-11776
19:40:35.711740,-1
19:40:35.711740,-41
19:40:35.711740,-2817
19:40:35.711740,-1
19:40:35.711740,-9
19:40:35.711740,-2817
19:40:35.711740,-1
19:40:35.711740,-7
19:40:35.711740,-4097
19:40:35.711740,-1
19:40:35.711740,-19
19:40:35.711740,-2817
19:40:35.711740,-1
19:40:35.711740,-7
19:40:36.297221,-4
19:40:36.297221,13311
19:40:36.297221,0
19:40:36.297221,222
19:40:36.297221,-30976
19:40:36.297221,1
19:40:36.297221,149
19:40:36.297221,23296
19:40:36.297221,-3
19:40:36.297221,-1516
19:40:36.297221,-2305
19:40:36.297221,-8
19:40:36.297221,-1484
19:40:36.297221,-26881
19:40:36.297221,-3
19:40:36.297221,90
19:40:36.297221,22528
19:40:36.297221,0
19:40:36.297221,41
19:40:36.297221,-8704
19:40:36.297221,0
19:40:36.297221,229
19:40:36.297221,-25600
19:40:36.297221,0
19:40:36.297221,188
19:40:36.297221,-13056
19:40:36.297221,0
19:40:36.297221,171
19:40:36.297221,-25088
19:40:36.297221,0
19:40:36.297221,166
19:40:36.297221,-27392
19:40:36.297221,0
19:40:36.297221,127
19:40:36.297221,-32512
19:40:36.297221,0
19:40:36.297221,122
19:40:36.297221,26880
19:40:36.297221,0
19:40:36.297221,105
19:40:36.297221,23552
19:40:36.297221,0
19:40:36.297221,73
19:40:36.297221,18688
19:40:36.297221,0
19:40:36.297221,51
19:40:36.297221,3584
19:40:36.297221,0
19:40:36.297221,0
19:40:36.297221,-4352
19:40:36.297221,-1
19:40:36.297221,-53
19:40:36.297221,-23297
19:40:36.297221,-1
19:40:36.297221,-119
19:40:36.297221,29695
19:40:36.297221,-1
19:40:36.297221,-144
19:40:36.297221,-30209
19:40:36.297221,-1
19:40:36.297221,-110
19:40:36.297221,-16641
19:40:36.297221,-1
19:40:36.297221,26
19:40:36.297221,19200
19:40:36.297221,0
19:40:36.297221,88
19:40:36.297221,28160
19:40:36.297221,0
19:40:36.297221,124
19:40:36.297221,29952
19:40:36.297221,0
19:40:36.297221,107
19:40:36.297221,27392
19:40:36.297221,0
19:40:36.297221,102
19:40:36.297221,23552
19:40:36.297221,0
19:40:36.297221,95
19:40:36.297221,23040
19:40:36.297221,0
19:40:36.297221,85
19:40:36.297221,24320
19:40:36.297221,0
19:40:36.297221,95
19:40:36.297221,24320
19:40:36.297221,0
19:40:36.297221,100
19:40:36.297221,24320
19:40:36.297221,0
19:40:36.297221,85
19:40:36.297221,19200
19:40:36.297221,0
19:40:36.297221,68
19:40:36.297221,18688
19:40:36.297221,0
19:40:36.297221,80
19:40:36.297221,19968
19:40:36.297221,0
19:40:36.297221,63
19:40:36.297221,13568
19:40:36.297221,0
19:40:36.297221,48
19:40:36.297221,12288
19:40:36.297221,0
19:40:36.297221,48
19:40:36.297221,9216
19:40:36.297221,0
19:40:36.297221,24
19:40:36.881620,34
19:40:36.881620,6656
19:40:36.881620,0
19:40:36.881620,19
19:40:36.881620,6656
19:40:36.881620,0
19:40:36.881620,19
19:40:36.881620,1792
19:40:36.881620,0
19:40:36.881620,22
19:40:36.881620,8704
19:40:36.881620,0
19:40:36.881620,19
19:40:36.881620,4864
19:40:36.881620,0
19:40:36.881620,34
19:40:36.881620,6656
19:40:36.881620,0
19:40:36.881620,14
19:40:36.881620,3072
19:40:36.881620,0
19:40:36.881620,12
19:40:36.881620,5632
19:40:36.881620,0
19:40:36.881620,26
19:40:36.881620,1792
19:40:36.881620,0
19:40:36.881620,0
19:40:36.881620,1792
19:40:36.881620,0
19:40:36.881620,9
19:40:36.881620,512
19:40:36.881620,0
19:40:36.881620,0
19:40:36.881620,1024
19:40:36.881620,0
19:40:36.881620,7
19:40:36.881620,1792
19:40:36.881620,0
19:40:36.881620,7
19:40:36.881620,3584
19:40:36.881620,0
19:40:36.881620,29
19:40:36.881620,7424
19:40:36.881620,0
19:40:36.881620,26
19:40:36.881620,3584
19:40:36.881620,0
19:40:36.881620,-14
19:40:36.881620,-9729
19:40:36.881620,-1
19:40:36.881620,-39
19:40:36.881620,-6401
19:40:36.881620,-1
19:40:36.881620,-9
19:40:36.881620,255
19:40:36.881620,0
19:40:36.881620,-22
19:40:36.881620,-7681
19:40:36.881620,-1
19:40:36.881620,-14
19:40:36.881620,-3329
19:40:36.881620,-1
19:40:36.881620,-29
19:40:36.881620,-3329
19:40:36.881620,-1
19:40:36.881620,61
19:40:36.881620,768
19:40:36.881620,1
19:40:36.881620,423
19:40:36.881620,21248
19:40:36.881620,0
19:40:36.881620,-848
19:40:36.881620,28927
19:40:36.881620,-7
19:40:36.881620,-1917
19:40:36.881620,9215
19:40:36.881620,-6
19:40:36.881620,-533
19:40:36.881620,-28417
19:40:36.881620,0
19:40:36.881620,95
19:40:36.881620,16896
19:40:36.881620,0
19:40:36.881620,232
19:40:36.881620,-8192
19:40:36.881620,0
19:40:36.881620,166
19:40:36.881620,-16128
19:40:36.881620,0
19:40:36.881620,210
19:40:36.881620,-16896
19:40:36.881620,0
19:40:36.881620,158
19:40:36.881620,-29952
19:40:36.881620,0
19:40:36.881620,149
19:40:36.881620,-27392
19:40:36.881620,0
19:40:36.881620,132
19:40:36.881620,31744
19:40:36.881620,0
19:40:36.881620,117
19:40:36.881620,29184
19:40:36.881620,0
19:40:36.881620,107
19:40:36.881620,20480
19:40:36.881620,0
19:40:36.881620,63
19:40:37.421078,68
19:40:37.421078,15616
19:40:37.421078,0
19:40:37.421078,17
19:40:37.421078,-7936
19:40:37.421078,-1
19:40:37.421078,-51
19:40:37.421078,-17153
19:40:37.421078,-1
19:40:37.421078,-117
19:40:37.421078,26367
19:40:37.421078,-1
19:40:37.421078,-154
19:40:37.421078,31487
19:40:37.421078,-1
19:40:37.421078,-90
19:40:37.421078,-5377
19:40:37.421078,-1
19:40:37.421078,41
19:40:37.421078,19200
19:40:37.421078,0
19:40:37.421078,107
19:40:37.421078,-29952
19:40:37.421078,0
19:40:37.421078,129
19:40:37.421078,28160
19:40:37.421078,0
19:40:37.421078,129
19:40:37.421078,-29440
19:40:37.421078,0
19:40:37.421078,112
19:40:37.421078,22528
19:40:37.421078,0
19:40:37.421078,90
19:40:37.421078,23552
19:40:37.421078,0
19:40:37.421078,85
19:40:37.421078,21248
19:40:37.421078,0
19:40:37.421078,68
19:40:37.421078,12288
19:40:37.421078,0
19:40:37.421078,56
19:40:37.421078,17408
19:40:37.421078,0
19:40:37.421078,63
19:40:37.421078,15616
19:40:37.421078,0
19:40:37.421078,53
19:40:37.421078,13568
19:40:37.421078,0
19:40:37.421078,73
19:40:37.421078,16896
19:40:37.421078,0
19:40:37.421078,22
19:40:37.421078,4352
19:40:37.421078,0
19:40:37.421078,34
19:40:37.421078,4352
19:40:37.421078,0
19:40:37.421078,19
19:40:37.421078,10496
19:40:37.421078,0
19:40:37.421078,14
19:40:37.421078,-1024
19:40:37.421078,-1
19:40:37.421078,12
19:40:37.421078,3072
19:40:37.421078,0
19:40:37.421078,0
19:40:37.421078,0
19:40:37.421078,0
19:40:37.421078,-9
19:40:37.421078,-3329
19:40:37.421078,-1
19:40:37.421078,-4
19:40:37.421078,-4097
19:40:37.421078,-1
19:40:37.421078,-36
19:40:37.421078,-7169
19:40:37.421078,-1
19:40:37.421078,-24
19:40:37.421078,-8449
19:40:37.421078,-1
19:40:37.421078,-31
19:40:37.421078,-5377
19:40:37.421078,-1
19:40:37.421078,-29
19:40:37.421078,-6401
19:40:37.421078,-1
19:40:37.421078,-26
19:40:37.421078,-7681
19:40:37.421078,-1
19:40:37.421078,-26
19:40:37.421078,-8961
19:40:37.421078,-1
19:40:37.421078,-53
19:40:37.421078,-8961
19:40:37.421078,-1
19:40:37.421078,-22
19:40:37.421078,-10241
19:40:37.421078,-1
19:40:37.421078,-36
19:40:37.421078,-1537
19:40:37.421078,-1
19:40:37.421078,-7
19:40:37.421078,-4097
19:40:37.421078,-1
19:40:37.421078,2
19:40:37.962070,12
19:40:37.962070,-9984
19:40:37.962070,-1
19:40:37.962070,-88
19:40:37.962070,-18433
19:40:37.962070,-1
19:40:37.962070,-46
19:40:37.962070,-9729
19:40:37.962070,-1
19:40:37.962070,-34
19:40:37.962070,-8961
19:40:37.962070,-1
19:40:37.962070,-44
19:40:37.962070,-5889
19:40:37.962070,-1
19:40:37.962070,0
19:40:37.962070,-6656
19:40:37.962070,-1
19:40:37.962070,-46
19:40:37.962070,767
19:40:37.962070,0
19:40:37.962070,149
19:40:37.962070,26368
19:40:37.962070,1
19:40:37.962070,313
19:40:37.962070,-28160
19:40:37.962070,-2
19:40:37.962070,-1315
19:40:37.962070,-1537
19:40:37.962070,-8
19:40:37.962070,-1660
19:40:37.962070,25343
19:40:37.962070,-4
19:40:37.962070,-88
19:40:37.962070,21503
19:40:37.962070,0
19:40:37.962070,-7
19:40:37.962070,-27137
19:40:37.962070,0
19:40:37.962070,207
19:40:37.962070,-31744
19:40:37.962070,0
19:40:37.962070,151
19:40:37.962070,-19456
19:40:37.962070,0
19:40:37.962070,144
19:40:37.962070,-31232
19:40:37.962070,0
19:40:37.962070,144
19:40:37.962070,-30720
19:40:37.962070,0
19:40:37.962070,124
19:40:37.962070,28672
19:40:37.962070,0
19:40:37.962070,97
19:40:37.962070,22528
19:40:37.962070,0
19:40:37.962070,80
19:40:37.962070,19200
19:40:37.962070,0
19:40:37.962070,70
19:40:37.962070,13568
19:40:37.962070,0
19:40:37.962070,19
19:40:37.962070,-512
19:40:37.962070,-1
19:40:37.962070,-4
19:40:37.962070,-5889
19:40:37.962070,-1
19:40:37.962070,-66
19:40:37.962070,-27905
19:40:37.962070,-1
19:40:37.962070,-149
19:40:37.962070,24063
19:40:37.962070,-1
19:40:37.962070,-163
19:40:37.962070,25343
19:40:37.962070,-1
19:40:37.962070,-134
19:40:37.962070,-16641
19:40:37.962070,-1
19:40:37.962070,26
19:40:37.962070,18688
19:40:37.962070,0
19:40:37.962070,75
19:40:37.962070,25600
19:40:37.962070,0
19:40:37.962070,124
19:40:37.962070,28160
19:40:37.962070,0
19:40:37.962070,102
19:40:37.962070,31232
19:40:37.962070,0
19:40:37.962070,110
19:40:37.962070,19968
19:40:37.962070,0
19:40:37.962070,88
19:40:37.962070,26112
19:40:37.962070,0
19:40:37.962070,83
19:40:37.962070,20480
19:40:37.962070,0
19:40:37.962070,92
19:40:37.962070,24832
19:40:37.962070,0
19:40:37.962070,95
19:40:37.962070,19968
19:40:37.962070,0
19:40:37.962070,83
19:40:38.547079,105
19:40:38.547079,21248
19:40:38.547079,0
19:40:38.547079,53
19:40:38.547079,16128
19:40:38.547079,0
19:40:38.547079,73
19:40:38.547079,17408
19:40:38.547079,0
19:40:38.547079,75
19:40:38.547079,22528
19:40:38.547079,0
19:40:38.547079,88
19:40:38.547079,19200
19:40:38.547079,0
19:40:38.547079,51
19:40:38.547079,9984
19:40:38.547079,0
19:40:38.547079,51
19:40:38.547079,14848
19:40:38.547079,0
19:40:38.547079,48
19:40:38.547079,9984
19:40:38.547079,0
19:40:38.547079,14
19:40:38.547079,3584
19:40:38.547079,0
19:40:38.547079,39
19:40:38.547079,9984
19:40:38.547079,0
19:40:38.547079,29
19:40:38.547079,7936
19:40:38.547079,0
19:40:38.547079,24
19:40:38.547079,7424
19:40:38.547079,0
19:40:38.547079,41
19:40:38.547079,13056
19:40:38.547079,0
19:40:38.547079,46
19:40:38.547079,9984
19:40:38.547079,0
19:40:38.547079,56
19:40:38.547079,11776
19:40:38.547079,0
19:40:38.547079,-17
19:40:38.547079,-11521
19:40:38.547079,-1
19:40:38.547079,-19
19:40:38.547079,767
19:40:38.547079,0
19:40:38.547079,7
19:40:38.547079,1792
19:40:38.547079,0
19:40:38.547079,0
19:40:38.547079,512
19:40:38.547079,0
19:40:38.547079,2
19:40:38.547079,-512
19:40:38.547079,-1
19:40:38.547079,-2
19:40:38.547079,2559
19:40:38.547079,0
19:40:38.547079,75
19:40:38.547079,7680
19:40:38.547079,1
19:40:38.547079,442
19:40:38.547079,10496
19:40:38.547079,0
19:40:38.547079,-917
19:40:38.547079,26623
19:40:38.547079,-7
19:40:38.547079,-1870
19:40:38.547079,27391
19:40:38.547079,-6
19:40:38.547079,-454
19:40:38.547079,-22273
19:40:38.547079,0
19:40:38.547079,90
19:40:38.547079,19968
19:40:38.547079,0
19:40:38.547079,232
19:40:38.547079,-11264
19:40:38.547079,0
19:40:38.547079,173
19:40:38.547079,-11264
19:40:38.547079,0
19:40:38.547079,210
19:40:38.547079,-23040
19:40:38.547079,0
19:40:38.547079,154
19:40:38.547079,-21760
19:40:38.547079,0
19:40:38.547079,149
19:40:38.547079,29952
19:40:38.547079,0
19:40:38.547079,129
19:40:38.547079,-30720
19:40:38.547079,0
19:40:38.547079,114
19:40:38.547079,27392
19:40:38.547079,0
19:40:38.547079,100
19:40:38.547079,21248
19:40:38.547079,0
19:40:38.547079,80
19:40:38.547079,17920
19:40:38.547079,0
19:40:38.547079,39
19:40:39.087223,0
19:40:39.087223,-5632
19:40:39.087223,-1
19:40:39.087223,-41
19:40:39.087223,-19713
19:40:39.087223,-1
19:40:39.087223,-119
19:40:39.087223,31999
19:40:39.087223,-1
19:40:39.087223,-127
19:40:39.087223,-30977
19:40:39.087223,-1
19:40:39.087223,-70
19:40:39.087223,6399
19:40:39.087223,0
19:40:39.087223,88
19:40:39.087223,25600
19:40:39.087223,0
19:40:39.087223,119
19:40:39.087223,-29952
19:40:39.087223,0
19:40:39.087223,134
19:40:39.087223,31232
19:40:39.087223,0
19:40:39.087223,132
19:40:39.087223,-32512
19:40:39.087223,0
19:40:39.087223,92
19:40:39.087223,24320
19:40:39.087223,0
19:40:39.087223,134
19:40:39.087223,28160
19:40:39.087223,0
19:40:39.087223,70
19:40:39.087223,26112
19:40:39.087223,0
19:40:39.087223,127
19:40:39.087223,23040
19:40:39.087223,0
19:40:39.087223,80
19:40:39.087223,26880
19:40:39.087223,0
19:40:39.087223,114
19:40:39.087223,26112
19:40:39.087223,0
19:40:39.087223,88
19:40:39.087223,23040
19:40:39.087223,0
19:40:39.087223,92
19:40:39.087223,20480
19:40:39.087223,0
19:40:39.087223,88
19:40:39.087223,21248
19:40:39.087223,0
19:40:39.087223,46
19:40:39.087223,13568
19:40:39.087223,0
19:40:39.087223,75
19:40:39.087223,15616
19:40:39.087223,0
19:40:39.087223,48
19:40:39.087223,12288
19:40:39.087223,0
19:40:39.087223,46
19:40:39.087223,11776
19:40:39.087223,0
19:40:39.087223,36
19:40:39.087223,5632
19:40:39.087223,0
19:40:39.087223,39
19:40:39.087223,13056
19:40:39.087223,0
19:40:39.087223,31
19:40:39.087223,1792
19:40:39.087223,0
19:40:39.087223,-9
19:40:39.087223,1279
19:40:39.087223,0
19:40:39.087223,29
19:40:39.087223,3072
19:40:39.087223,0
19:40:39.087223,-9
19:40:39.087223,2047
19:40:39.087223,0
19:40:39.087223,17
19:40:39.087223,1024
19:40:39.087223,0
19:40:39.087223,2
19:40:39.087223,1792
19:40:39.087223,0
19:40:39.087223,7
19:40:39.087223,1792
19:40:39.087223,0
19:40:39.087223,0
19:40:39.087223,-2304
19:40:39.087223,-1
19:40:39.087223,0
19:40:39.087223,4864
19:40:39.087223,0
19:40:39.087223,31
19:40:39.087223,8704
19:40:39.087223,0
19:40:39.087223,29
19:40:39.087223,6144
19:40:39.087223,0
19:40:39.087223,-19
19:40:39.087223,-18945
19:40:39.087223,-1
19:40:39.087223,-51
19:40:39.716021,-9
19:40:39.716021,-4097
19:40:39.716021,-1
19:40:39.716021,-19
19:40:39.716021,-3329
19:40:39.716021,-1
19:40:39.716021,-24
19:40:39.716021,-7681
19:40:39.716021,-1
19:40:39.716021,-14
19:40:39.716021,255
19:40:39.716021,0
19:40:39.716021,2
19:40:39.716021,23552
19:40:39.716021,0
19:40:39.716021,330
19:40:39.716021,-19712
19:40:39.716021,1
19:40:39.716021,-58
19:40:39.716021,-5377
19:40:39.716021,-5
19:40:39.716021,-1812
19:40:39.716021,18175
19:40:39.716021,-8
19:40:39.716021,-1435
19:40:39.716021,-25601
19:40:39.716021,-2
19:40:39.716021,224
19:40:39.716021,25600
19:40:39.716021,0
19:40:39.716021,105
19:40:39.716021,0
19:40:39.716021,1
19:40:39.716021,222
19:40:39.716021,-18688
19:40:39.716021,0
19:40:39.716021,207
19:40:39.716021,-14848
19:40:39.716021,0
19:40:39.716021,183
19:40:39.716021,-19968
19:40:39.716021,0
19:40:39.716021,151
19:40:39.716021,-27392
19:40:39.716021,0
19:40:39.716021,166
19:40:39.716021,-26112
19:40:39.716021,0
19:40:39.716021,127
19:40:39.716021,30464
19:40:39.716021,0
19:40:39.716021,114
19:40:39.716021,28160
19:40:39.716021,0
19:40:39.716021,110
19:40:39.716021,23040
19:40:39.716021,0
19:40:39.716021,58
19:40:39.716021,12288
19:40:39.716021,0
19:40:39.716021,24
19:40:39.716021,-3584
19:40:39.716021,-1
19:40:39.716021,-41
19:40:39.716021,-17153
19:40:39.716021,-1
19:40:39.716021,-105
19:40:39.716021,30975
19:40:39.716021,-1
19:40:39.716021,-154
19:40:39.716021,31487
19:40:39.716021,-1
19:40:39.716021,-78
19:40:39.716021,-2817
19:40:39.716021,-1
19:40:39.716021,36
19:40:39.716021,18688
19:40:39.716021,0
19:40:39.716021,100
19:40:39.716021,26880
19:40:39.716021,0
19:40:39.716021,92
19:40:39.716021,22528
19:40:39.716021,0
19:40:39.716021,95
19:40:39.716021,23040
19:40:39.716021,0
19:40:39.716021,85
19:40:39.716021,25600
19:40:39.716021,0
19:40:39.716021,88
19:40:39.716021,11776
19:40:39.716021,0
19:40:39.716021,48
19:40:39.716021,19200
19:40:39.716021,0
19:40:39.716021,70
19:40:39.716021,14848
19:40:39.716021,0
19:40:39.716021,61
19:40:39.716021,17920
19:40:39.716021,0
19:40:39.716021,66
19:40:39.716021,13056
19:40:39.716021,0
19:40:39.716021,39
19:40:39.716021,11776
19:40:39.716021,0
19:40:39.716021,61
19:40:40.257498,46
19:40:40.257498,10496
19:40:40.257498,0
19:40:40.257498,56
19:40:40.257498,13568
19:40:40.257498,0
19:40:40.257498,46
19:40:40.257498,11264
19:40:40.257498,0
19:40:40.257498,39
19:40:40.257498,6656
19:40:40.257498,0
19:40:40.257498,12
19:40:40.257498,4864
19:40:40.257498,0
19:40:40.257498,17
19:40:40.257498,-5632
19:40:40.257498,-1
19:40:40.257498,-26
19:40:40.257498,-257
19:40:40.257498,-1
19:40:40.257498,-9
19:40:40.257498,-2049
19:40:40.257498,-1
19:40:40.257498,7
19:40:40.257498,512
19:40:40.257498,0
19:40:40.257498,-7
19:40:40.257498,1279
19:40:40.257498,0
19:40:40.257498,-7
19:40:40.257498,-11009
19:40:40.257498,-1
19:40:40.257498,-29
19:40:40.257498,-769
19:40:40.257498,-1
19:40:40.257498,-24
19:40:40.257498,-7169
19:40:40.257498,-1
19:40:40.257498,-7
19:40:40.257498,-2817
19:40:40.257498,-1
19:40:40.257498,-36
19:40:40.257498,-7681
19:40:40.257498,-1
19:40:40.257498,-24
19:40:40.257498,-11521
19:40:40.257498,-1
19:40:40.257498,-51
19:40:40.257498,-7169
19:40:40.257498,-1
19:40:40.257498,-19
19:40:40.257498,-3329
19:40:40.257498,-1
19:40:40.257498,-31
19:40:40.257498,-14593
19:40:40.257498,-1
19:40:40.257498,-29
19:40:40.257498,1279
19:40:40.257498,0
19:40:40.257498,-9
19:40:40.257498,-3329
19:40:40.257498,-1
19:40:40.257498,-2
19:40:40.257498,-6401
19:40:40.257498,-1
19:40:40.257498,-78
19:40:40.257498,-20993
19:40:40.257498,-1
19:40:40.257498,-56
19:40:40.257498,-10241
19:40:40.257498,-1
19:40:40.257498,-22
19:40:40.257498,-8449
19:40:40.257498,-1
19:40:40.257498,-78
19:40:40.257498,-15361
19:40:40.257498,-1
19:40:40.257498,-22
19:40:40.257498,-13313
19:40:40.257498,-1
19:40:40.257498,-68
19:40:40.257498,-3329
19:40:40.257498,-1
19:40:40.257498,119
19:40:40.257498,22528
19:40:40.257498,1
19:40:40.257498,315
19:40:40.257498,-31488
19:40:40.257498,-2
19:40:40.257498,-1345
19:40:40.257498,-13569
19:40:40.257498,-8
19:40:40.257498,-1743
19:40:40.257498,5887
19:40:40.257498,-4
19:40:40.257498,-80
19:40:40.257498,30207
19:40:40.257498,0
19:40:40.257498,-26
19:40:40.257498,30719
19:40:40.257498,0
19:40:40.257498,207
19:40:40.257498,-31232
19:40:40.257498,0
19:40:40.257498,154
19:40:40.257498,-15616
19:40:40.257498,0
19:40:40.257498,156
19:40:40.797026,132
19:40:40.797026,-26880
19:40:40.797026,0
19:40:40.797026,144
19:40:40.797026,30464
19:40:40.797026,0
19:40:40.797026,117
19:40:40.797026,29184
19:40:40.797026,0
19:40:40.797026,100
19:40:40.797026,24832
19:40:40.797026,0
19:40:40.797026,107
19:40:40.797026,21760
19:40:40.797026,0
19:40:40.797026,29
19:40:40.797026,-1792
19:40:40.797026,-1
19:40:40.797026,4
19:40:40.797026,3072
19:40:40.797026,0
19:40:40.797026,-14
19:40:40.797026,-12033
19:40:40.797026,-1
19:40:40.797026,-85
19:40:40.797026,-29697
19:40:40.797026,-1
19:40:40.797026,-141
19:40:40.797026,27647
19:40:40.797026,-1
19:40:40.797026,-134
19:40:40.797026,-27905
19:40:40.797026,-1
19:40:40.797026,-58
19:40:40.797026,3327
