timestamp,ecg
12:53:05.595953,-24
12:53:05.595953,-8961
12:53:05.595953,-1
12:53:05.595953,-14
12:53:05.595953,-3841
12:53:05.595953,-1
12:53:05.595953,-41
12:53:05.595953,-7681
12:53:05.595953,-1
12:53:05.595953,-2
12:53:05.595953,2047
12:53:05.595953,0
12:53:05.595953,0
12:53:05.595953,6144
12:53:05.595953,0
12:53:05.595953,84
12:53:05.595953,-32256
12:53:05.595953,0
12:53:05.595953,137
12:53:05.595953,-30464
12:53:05.595953,0
12:53:05.595953,159
12:53:05.595953,-15616
12:53:05.595953,0
12:53:05.595953,224
12:53:05.595953,-256
12:53:05.595953,0
12:53:05.595953,296
12:53:05.595953,25856
12:53:05.595953,1
12:53:05.595953,419
12:53:05.595953,-6400
12:53:05.595953,1
12:53:05.595953,550
12:53:05.595953,15872
12:53:05.595953,2
12:53:05.595953,559
12:53:05.595953,11520
12:53:05.595953,2
12:53:05.595953,571
12:53:05.595953,13312
12:53:05.595953,2
12:53:05.595953,530
12:53:05.595953,-3328
12:53:05.595953,1
12:53:05.595953,484
12:53:05.595953,-15104
12:53:05.595953,1
12:53:05.595953,398
12:53:05.595953,24576
12:53:05.595953,1
12:53:05.595953,234
12:53:05.595953,3072
12:53:05.595953,0
12:53:05.595953,-89
12:53:05.595953,-9217
12:53:05.595953,0
12:53:05.595953,856
12:53:05.595953,-12800
12:53:05.595953,4
12:53:05.595953,786
12:53:05.595953,-9216
12:53:05.595953,-1
12:53:05.595953,-308
12:53:05.595953,31999
12:53:05.595953,-1
12:53:05.595953,-132
12:53:05.595953,4863
12:53:05.595953,-1
12:53:05.595953,-217
12:53:05.595953,14591
12:53:05.595953,-1
12:53:05.595953,-248
12:53:05.595953,-2049
12:53:05.595953,-2
12:53:05.595953,-253
12:53:05.595953,-257
12:53:05.595953,-2
12:53:05.595953,-270
12:53:05.595953,-4609
12:53:05.595953,-2
12:53:05.595953,-272
12:53:05.595953,-1537
12:53:05.595953,-2
12:53:05.595953,-255
12:53:05.595953,2815
12:53:05.595953,-1
12:53:05.595953,-217
12:53:05.595953,19711
12:53:05.595953,-1
12:53:05.595953,-161
12:53:05.595953,26879
12:53:05.595953,-1
12:53:05.595953,-125
12:53:05.595953,-22529
12:53:05.595953,-1
12:53:05.595953,-45
12:53:05.595953,-5889
12:53:05.595953,-1
12:53:05.595953,-38
12:53:05.595953,-15105
12:53:05.595953,-1
12:53:05.595953,-72
12:53:05.595953,-23041
12:53:05.595953,-1
12:53:05.595953,-110
12:53:05.595953,-26881
12:53:05.595953,-1
12:53:05.595953,-110
12:53:06.135952,-115
12:53:06.135952,-25601
12:53:06.135952,-1
12:53:06.135952,-123
12:53:06.135952,26879
12:53:06.135952,-1
12:53:06.135952,-144
12:53:06.135952,28927
12:53:06.135952,-1
12:53:06.135952,-152
12:53:06.135952,22015
12:53:06.135952,-1
12:53:06.135952,-202
12:53:06.135952,13311
12:53:06.135952,-1
12:53:06.135952,-190
12:53:06.135952,20223
12:53:06.135952,-1
12:53:06.135952,-180
12:53:06.135952,17151
12:53:06.135952,-1
12:53:06.135952,-193
12:53:06.135952,15359
12:53:06.135952,-1
12:53:06.135952,-202
12:53:06.135952,11519
12:53:06.135952,-1
12:53:06.135952,-219
12:53:06.135952,12287
12:53:06.135952,-1
12:53:06.135952,-200
12:53:06.135952,18431
12:53:06.135952,-1
12:53:06.135952,-154
12:53:06.135952,26879
12:53:06.135952,-1
12:53:06.135952,-164
12:53:06.135952,24575
12:53:06.135952,-1
12:53:06.135952,-159
12:53:06.135952,21503
12:53:06.135952,-1
12:53:06.135952,-195
12:53:06.135952,12799
12:53:06.135952,-1
12:53:06.135952,-217
12:53:06.135952,6655
12:53:06.135952,-1
12:53:06.135952,-248
12:53:06.135952,-12545
12:53:06.135952,-2
12:53:06.135952,-463
12:53:06.135952,-27905
12:53:06.135952,-3
12:53:06.135952,-453
12:53:06.135952,-21505
12:53:06.135952,0
12:53:06.135952,798
12:53:06.135952,-15104
12:53:06.135952,2
12:53:06.135952,-84
12:53:06.135952,32767
12:53:06.135952,-3
12:53:06.135952,-586
12:53:06.135952,3071
12:53:06.135952,-2
12:53:06.135952,-595
12:53:06.135952,-28417
12:53:06.135952,-3
12:53:06.135952,-608
12:53:06.135952,-30977
12:53:06.135952,-3
12:53:06.135952,-649
12:53:06.135952,31999
12:53:06.135952,-3
12:53:06.135952,-653
12:53:06.135952,28415
12:53:06.135952,-3
12:53:06.135952,-658
12:53:06.135952,27135
12:53:06.135952,-3
12:53:06.135952,-658
12:53:06.135952,29695
12:53:06.135952,-3
12:53:06.135952,-658
12:53:06.135952,30207
12:53:06.135952,-3
12:53:06.135952,-637
12:53:06.135952,-28417
12:53:06.135952,-3
12:53:06.135952,-605
12:53:06.135952,-18689
12:53:06.135952,-3
12:53:06.135952,-574
12:53:06.135952,-13057
12:53:06.135952,-3
12:53:06.135952,-554
12:53:06.135952,-11777
12:53:06.135952,-3
12:53:06.135952,-579
12:53:06.135952,-22273
12:53:06.135952,-3
12:53:06.135952,-615
12:53:06.135952,-30977
12:53:06.135952,-3
12:53:06.135952,-639
12:53:06.135952,-29697
12:53:06.135952,-3
12:53:06.135952,-624
12:53:06.675771,-610
12:53:06.675771,-17409
12:53:06.675771,-3
12:53:06.675771,-559
12:53:06.675771,-5633
12:53:06.675771,-3
12:53:06.675771,-511
12:53:06.675771,4095
12:53:06.675771,-2
12:53:06.675771,-487
12:53:06.675771,11519
12:53:06.675771,-2
12:53:06.675771,-439
12:53:06.675771,25087
12:53:06.675771,-2
12:53:06.675771,-390
12:53:06.675771,-28673
12:53:06.675771,-2
12:53:06.675771,-347
12:53:06.675771,-17409
12:53:06.675771,-2
12:53:06.675771,-318
12:53:06.675771,-13825
12:53:06.675771,-2
12:53:06.675771,-294
12:53:06.675771,-4609
12:53:06.675771,-2
12:53:06.675771,-258
12:53:06.675771,4095
12:53:06.675771,-1
12:53:06.675771,-214
12:53:06.675771,19711
12:53:06.675771,-1
12:53:06.675771,-156
12:53:06.675771,23807
12:53:06.675771,-1
12:53:06.675771,-180
12:53:06.675771,18943
12:53:06.675771,-1
12:53:06.675771,-178
12:53:06.675771,18431
12:53:06.675771,-1
12:53:06.675771,-195
12:53:06.675771,15359
12:53:06.675771,-1
12:53:06.675771,-200
12:53:06.675771,11519
12:53:06.675771,-1
12:53:06.675771,-224
12:53:06.675771,-5633
12:53:06.675771,-2
12:53:06.675771,-439
12:53:06.675771,-2049
12:53:06.675771,-3
12:53:06.675771,-176
12:53:06.675771,16127
12:53:06.675771,2
12:53:06.675771,1088
12:53:06.675771,-11520
12:53:06.675771,2
12:53:06.675771,-108
12:53:06.675771,25087
12:53:06.675771,-2
12:53:06.675771,-238
12:53:06.675771,12287
12:53:06.675771,-1
12:53:06.675771,-289
12:53:06.675771,-3329
12:53:06.675771,-2
12:53:06.675771,-243
12:53:06.675771,1023
12:53:06.675771,-1
12:53:06.675771,-243
12:53:06.675771,9215
12:53:06.675771,-1
12:53:06.675771,-209
12:53:06.675771,16383
12:53:06.675771,-1
12:53:06.675771,-176
12:53:06.675771,23295
12:53:06.675771,-1
12:53:06.675771,-152
12:53:06.675771,-32257
12:53:06.675771,-1
12:53:06.675771,-110
12:53:06.675771,-24833
12:53:06.675771,-1
12:53:06.675771,-72
12:53:06.675771,-11265
12:53:06.675771,-1
12:53:06.675771,-28
12:53:06.675771,-3841
12:53:06.675771,-1
12:53:06.675771,-4
12:53:06.675771,2047
12:53:06.675771,0
12:53:06.675771,4
12:53:06.675771,-2304
12:53:06.675771,-1
12:53:06.675771,-21
12:53:06.675771,-10241
12:53:06.675771,-1
12:53:06.675771,-74
12:53:06.675771,-25601
12:53:06.675771,-1
12:53:06.675771,-113
12:53:06.675771,-29185
12:53:06.675771,-1
12:53:06.675771,-123
12:53:07.246435,-127
12:53:07.246435,-32257
12:53:07.246435,-1
12:53:07.246435,-120
12:53:07.246435,-29953
12:53:07.246435,-1
12:53:07.246435,-123
12:53:07.246435,-30465
12:53:07.246435,-1
12:53:07.246435,-101
12:53:07.246435,-23809
12:53:07.246435,-1
12:53:07.246435,-108
12:53:07.246435,-28673
12:53:07.246435,-1
12:53:07.246435,-103
12:53:07.246435,-24833
12:53:07.246435,-1
12:53:07.246435,-96
12:53:07.246435,-23809
12:53:07.246435,-1
12:53:07.246435,-101
12:53:07.246435,-25601
12:53:07.246435,-1
12:53:07.246435,-91
12:53:07.246435,-21761
12:53:07.246435,-1
12:53:07.246435,-89
12:53:07.246435,-24321
12:53:07.246435,-1
12:53:07.246435,-101
12:53:07.246435,-24321
12:53:07.246435,-1
12:53:07.246435,-79
12:53:07.246435,-13313
12:53:07.246435,-1
12:53:07.246435,-38
12:53:07.246435,-12033
12:53:07.246435,-1
12:53:07.246435,-55
12:53:07.246435,-13313
12:53:07.246435,-1
12:53:07.246435,-53
12:53:07.246435,-16385
12:53:07.246435,-1
12:53:07.246435,-72
12:53:07.246435,-15105
12:53:07.246435,-1
12:53:07.246435,-55
12:53:07.246435,-15105
12:53:07.246435,-1
12:53:07.246435,-74
12:53:07.246435,23807
12:53:07.246435,-1
12:53:07.246435,-337
12:53:07.246435,-19201
12:53:07.246435,-2
12:53:07.246435,171
12:53:07.246435,-18176
12:53:07.246435,3
12:53:07.246435,1225
12:53:07.246435,18176
12:53:07.246435,2
12:53:07.246435,-168
12:53:07.246435,2303
12:53:07.246435,-1
12:53:07.246435,-84
12:53:07.246435,-32257
12:53:07.246435,-1
12:53:07.246435,-173
12:53:07.246435,31231
12:53:07.246435,-1
12:53:07.246435,-135
12:53:07.246435,28159
12:53:07.246435,-1
12:53:07.246435,-135
12:53:07.246435,-32257
12:53:07.246435,-1
12:53:07.246435,-130
12:53:07.246435,-31745
12:53:07.246435,-1
12:53:07.246435,-115
12:53:07.246435,-27905
12:53:07.246435,-1
12:53:07.246435,-103
12:53:07.246435,-23041
12:53:07.246435,-1
12:53:07.246435,-82
12:53:07.246435,-16897
12:53:07.246435,-1
12:53:07.246435,-48
12:53:07.246435,-7681
12:53:07.246435,-1
12:53:07.246435,-14
12:53:07.246435,767
12:53:07.246435,0
12:53:07.246435,14
12:53:07.246435,6144
12:53:07.246435,0
12:53:07.246435,19
12:53:07.246435,1024
12:53:07.246435,0
12:53:07.246435,-19
12:53:07.246435,-12545
12:53:07.246435,-1
12:53:07.246435,-82
12:53:07.246435,-25601
12:53:07.246435,-1
12:53:07.246435,-113
12:53:07.785945,-120
12:53:07.785945,32511
12:53:07.785945,-1
12:53:07.785945,-132
12:53:07.785945,-30465
12:53:07.785945,-1
12:53:07.785945,-120
12:53:07.785945,-32257
12:53:07.785945,-1
12:53:07.785945,-125
12:53:07.785945,-26113
12:53:07.785945,-1
12:53:07.785945,-86
12:53:07.785945,-23041
12:53:07.785945,-1
12:53:07.785945,-96
12:53:07.785945,-23809
12:53:07.785945,-1
12:53:07.785945,-91
12:53:07.785945,-21761
12:53:07.785945,-1
12:53:07.785945,-82
12:53:07.785945,-19969
12:53:07.785945,-1
12:53:07.785945,-72
12:53:07.785945,-17409
12:53:07.785945,-1
12:53:07.785945,-72
12:53:07.785945,-19969
12:53:07.785945,-1
12:53:07.785945,-74
12:53:07.785945,-16385
12:53:07.785945,-1
12:53:07.785945,-55
12:53:07.785945,-8193
12:53:07.785945,-1
12:53:07.785945,-9
12:53:07.785945,-257
12:53:07.785945,-1
12:53:07.785945,-7
12:53:07.785945,-3841
12:53:07.785945,-1
12:53:07.785945,-14
12:53:07.785945,-3329
12:53:07.785945,-1
12:53:07.785945,-26
12:53:07.785945,-7681
12:53:07.785945,-1
12:53:07.785945,-24
12:53:07.785945,-5121
12:53:07.785945,-1
12:53:07.785945,-19
12:53:07.785945,-6913
12:53:07.785945,-1
12:53:07.785945,-135
12:53:07.785945,-15617
12:53:07.785945,-2
12:53:07.785945,-265
12:53:07.785945,12543
12:53:07.785945,1
12:53:07.785945,1100
12:53:07.785945,5632
12:53:07.785945,5
12:53:07.785945,591
12:53:07.785945,-31488
12:53:07.785945,-1
12:53:07.785945,-137
12:53:07.785945,2047
12:53:07.785945,0
12:53:07.785945,-77
12:53:07.785945,-31745
12:53:07.785945,-1
12:53:07.785945,-86
12:53:07.785945,-21249
12:53:07.785945,-1
12:53:07.785945,-91
12:53:07.785945,-19457
12:53:07.785945,-1
12:53:07.785945,-74
12:53:07.785945,-18689
12:53:07.785945,-1
12:53:07.785945,-60
12:53:07.785945,-13825
12:53:07.785945,-1
12:53:07.785945,-53
12:53:07.785945,-10241
12:53:07.785945,-1
12:53:07.785945,-24
12:53:07.785945,-3329
12:53:07.785945,-1
12:53:07.785945,0
12:53:07.785945,6144
12:53:07.785945,0
12:53:07.785945,48
12:53:07.785945,17152
12:53:07.785945,0
12:53:07.785945,82
12:53:07.785945,22016
12:53:07.785945,0
12:53:07.785945,86
12:53:07.785945,21504
12:53:07.785945,0
12:53:07.785945,69
12:53:07.785945,11008
12:53:07.785945,0
12:53:07.785945,19
12:53:07.785945,-1024
12:53:07.785945,-1
12:53:07.785945,-28
12:53:08.386675,-43
12:53:08.386675,-13825
12:53:08.386675,-1
12:53:08.386675,-65
12:53:08.386675,-13313
12:53:08.386675,-1
12:53:08.386675,-28
12:53:08.386675,-4609
12:53:08.386675,-1
12:53:08.386675,-26
12:53:08.386675,-8193
12:53:08.386675,-1
12:53:08.386675,-33
12:53:08.386675,-7681
12:53:08.386675,-1
12:53:08.386675,-38
12:53:08.386675,-13313
12:53:08.386675,-1
12:53:08.386675,-60
12:53:08.386675,-13313
12:53:08.386675,-1
12:53:08.386675,-45
12:53:08.386675,-13825
12:53:08.386675,-1
12:53:08.386675,-50
12:53:08.386675,-10753
12:53:08.386675,-1
12:53:08.386675,-45
12:53:08.386675,-10753
12:53:08.386675,-1
12:53:08.386675,-36
12:53:08.386675,-8961
12:53:08.386675,-1
12:53:08.386675,-38
12:53:08.386675,-10241
12:53:08.386675,-1
12:53:08.386675,-38
12:53:08.386675,-5889
12:53:08.386675,-1
12:53:08.386675,0
12:53:08.386675,3072
12:53:08.386675,0
12:53:08.386675,2
12:53:08.386675,-1024
12:53:08.386675,-1
12:53:08.386675,-7
12:53:08.386675,-5121
12:53:08.386675,-1
12:53:08.386675,-28
12:53:08.386675,-8193
12:53:08.386675,-1
12:53:08.386675,-28
12:53:08.386675,-5889
12:53:08.386675,-1
12:53:08.386675,-21
12:53:08.386675,-6913
12:53:08.386675,-1
12:53:08.386675,-125
12:53:08.386675,-14337
12:53:08.386675,-2
12:53:08.386675,-304
12:53:08.386675,-10497
12:53:08.386675,0
12:53:08.386675,1049
12:53:08.386675,-32000
12:53:08.386675,5
12:53:08.386675,793
12:53:08.386675,-7936
12:53:08.386675,-1
12:53:08.386675,-171
12:53:08.386675,-2817
12:53:08.386675,-1
12:53:08.386675,-79
12:53:08.386675,26367
12:53:08.386675,-1
12:53:08.386675,-110
12:53:08.386675,-26113
12:53:08.386675,-1
12:53:08.386675,-127
12:53:08.386675,-27905
12:53:08.386675,-1
12:53:08.386675,-101
12:53:08.386675,-25601
12:53:08.386675,-1
12:53:08.386675,-91
12:53:08.386675,-19969
12:53:08.386675,-1
12:53:08.386675,-74
12:53:08.386675,-18689
12:53:08.386675,-1
12:53:08.386675,-72
12:53:08.386675,-15105
12:53:08.386675,-1
12:53:08.386675,-45
12:53:08.386675,-6401
12:53:08.386675,-1
12:53:08.386675,-16
12:53:08.386675,-1537
12:53:08.386675,-1
12:53:08.386675,7
12:53:08.386675,3072
12:53:08.386675,0
12:53:08.386675,12
12:53:08.386675,512
12:53:08.386675,0
12:53:08.386675,-16
12:53:08.386675,-10753
12:53:08.386675,-1
12:53:08.386675,-77
12:53:08.985974,-108
12:53:08.985974,31999
12:53:08.985974,-1
12:53:08.985974,-147
12:53:08.985974,25855
12:53:08.985974,-1
12:53:08.985974,-176
12:53:08.985974,18943
12:53:08.985974,-1
12:53:08.985974,-171
12:53:08.985974,23295
12:53:08.985974,-1
12:53:08.985974,-166
12:53:08.985974,25855
12:53:08.985974,-1
12:53:08.985974,-139
12:53:08.985974,31231
12:53:08.985974,-1
12:53:08.985974,-152
12:53:08.985974,23295
12:53:08.985974,-1
12:53:08.985974,-168
12:53:08.985974,21503
12:53:08.985974,-1
12:53:08.985974,-178
12:53:08.985974,17663
12:53:08.985974,-1
12:53:08.985974,-195
12:53:08.985974,15871
12:53:08.985974,-1
12:53:08.985974,-195
12:53:08.985974,17663
12:53:08.985974,-1
12:53:08.985974,-185
12:53:08.985974,17663
12:53:08.985974,-1
12:53:08.985974,-188
12:53:08.985974,16383
12:53:08.985974,-1
12:53:08.985974,-180
12:53:08.985974,25087
12:53:08.985974,-1
12:53:08.985974,-147
12:53:08.985974,27647
12:53:08.985974,-1
12:53:08.985974,-168
12:53:08.985974,17151
12:53:08.985974,-1
12:53:08.985974,-193
12:53:08.985974,13311
12:53:08.985974,-1
12:53:08.985974,-217
12:53:08.985974,9727
12:53:08.985974,-1
12:53:08.985974,-214
12:53:08.985974,11519
12:53:08.985974,-1
12:53:08.985974,-214
12:53:08.985974,-2049
12:53:08.985974,-2
12:53:08.985974,-424
12:53:08.985974,-3841
12:53:08.985974,-3
12:53:08.985974,-195
12:53:08.985974,22271
12:53:08.985974,2
12:53:08.985974,1208
12:53:08.985974,31744
12:53:08.985974,3
12:53:08.985974,-14
12:53:08.985974,26367
12:53:08.985974,-2
12:53:08.985974,-255
12:53:08.985974,5887
12:53:08.985974,-1
12:53:08.985974,-332
12:53:08.985974,-14337
12:53:08.985974,-2
12:53:08.985974,-284
12:53:08.985974,-9985
12:53:08.985974,-2
12:53:08.985974,-291
12:53:08.985974,-3841
12:53:08.985974,-2
12:53:08.985974,-270
12:53:08.985974,-4609
12:53:08.985974,-2
12:53:08.985974,-272
12:53:08.985974,-3841
12:53:08.985974,-2
12:53:08.985974,-270
12:53:08.985974,-1537
12:53:08.985974,-2
12:53:08.985974,-253
12:53:08.985974,5375
12:53:08.985974,-1
12:53:08.985974,-219
12:53:08.985974,15359
12:53:08.985974,-1
12:53:08.985974,-176
12:53:08.985974,23807
12:53:08.985974,-1
12:53:08.985974,-144
12:53:08.985974,-32257
12:53:08.985974,-1
12:53:08.985974,-132
12:53:08.985974,28159
12:53:08.985974,-1
12:53:08.985974,-171
12:53:09.496011,-197
12:53:09.496011,7935
12:53:09.496011,-1
12:53:09.496011,-255
12:53:09.496011,-3329
12:53:09.496011,-2
12:53:09.496011,-279
12:53:09.496011,-8193
12:53:09.496011,-2
12:53:09.496011,-294
12:53:09.496011,-8705
12:53:09.496011,-2
12:53:09.496011,-275
12:53:09.496011,-3841
12:53:09.496011,-2
12:53:09.496011,-272
12:53:09.496011,-769
12:53:09.496011,-2
12:53:09.496011,-263
12:53:09.496011,-2049
12:53:09.496011,-2
12:53:09.496011,-255
12:53:09.496011,4095
12:53:09.496011,-1
12:53:09.496011,-238
12:53:09.496011,2303
12:53:09.496011,-1
12:53:09.496011,-250
12:53:09.496011,2815
12:53:09.496011,-1
12:53:09.496011,-243
12:53:09.496011,5887
12:53:09.496011,-1
12:53:09.496011,-224
12:53:09.496011,7935
12:53:09.496011,-1
12:53:09.496011,-221
12:53:09.496011,10239
12:53:09.496011,-1
12:53:09.496011,-209
12:53:09.496011,17151
12:53:09.496011,-1
12:53:09.496011,-161
12:53:09.496011,28927
12:53:09.496011,-1
12:53:09.496011,-154
12:53:09.496011,24575
12:53:09.496011,-1
12:53:09.496011,-152
12:53:09.496011,25855
12:53:09.496011,-1
12:53:09.496011,-173
12:53:09.496011,22015
12:53:09.496011,-1
12:53:09.496011,-164
12:53:09.496011,23807
12:53:09.496011,-1
12:53:09.496011,-164
12:53:09.496011,25855
12:53:09.496011,-1
12:53:09.496011,-224
12:53:09.496011,25855
12:53:09.496011,-2
12:53:09.496011,-446
12:53:09.496011,8703
12:53:09.496011,0
12:53:09.496011,885
12:53:09.496011,12544
12:53:09.496011,5
12:53:09.496011,776
12:53:09.496011,-26368
12:53:09.496011,-1
12:53:09.496011,-328
12:53:09.496011,25855
12:53:09.496011,-1
12:53:09.496011,-183
12:53:09.496011,-3841
12:53:09.496011,-2
12:53:09.496011,-241
12:53:09.496011,9727
12:53:09.496011,-1
12:53:09.496011,-231
12:53:09.496011,9727
12:53:09.496011,-1
12:53:09.496011,-202
12:53:09.496011,14591
12:53:09.496011,-1
12:53:09.496011,-185
12:53:09.496011,20735
12:53:09.496011,-1
12:53:09.496011,-166
12:53:09.496011,26367
12:53:09.496011,-1
12:53:09.496011,-144
12:53:09.496011,31999
12:53:09.496011,-1
12:53:09.496011,-110
12:53:09.496011,-19969
12:53:09.496011,-1
12:53:09.496011,-60
12:53:09.496011,-12545
12:53:09.496011,-1
12:53:09.496011,-26
12:53:09.496011,-3329
12:53:09.496011,-1
12:53:09.496011,-12
12:53:09.496011,-257
12:53:09.496011,-1
12:53:09.496011,-9
12:53:10.065994,-31
12:53:10.065994,-15617
12:53:10.065994,-1
12:53:10.065994,-96
12:53:10.065994,-28673
12:53:10.065994,-1
12:53:10.065994,-130
12:53:10.065994,30207
12:53:10.065994,-1
12:53:10.065994,-142
12:53:10.065994,29439
12:53:10.065994,-1
12:53:10.065994,-125
12:53:10.065994,-27393
12:53:10.065994,-1
12:53:10.065994,-110
12:53:10.065994,-27905
12:53:10.065994,-1
12:53:10.065994,-110
12:53:10.065994,-28673
12:53:10.065994,-1
12:53:10.065994,-115
12:53:10.065994,-30465
12:53:10.065994,-1
12:53:10.065994,-120
12:53:10.065994,32511
12:53:10.065994,-1
12:53:10.065994,-132
12:53:10.065994,-31745
12:53:10.065994,-1
12:53:10.065994,-127
12:53:10.065994,32511
12:53:10.065994,-1
12:53:10.065994,-125
12:53:10.065994,-29953
12:53:10.065994,-1
12:53:10.065994,-110
12:53:10.065994,-28673
12:53:10.065994,-1
12:53:10.065994,-113
12:53:10.065994,-24321
12:53:10.065994,-1
12:53:10.065994,-62
12:53:10.065994,-8961
12:53:10.065994,-1
12:53:10.065994,-38
12:53:10.065994,-12545
12:53:10.065994,-1
12:53:10.065994,-50
12:53:10.065994,-13825
12:53:10.065994,-1
12:53:10.065994,-67
12:53:10.065994,-20737
12:53:10.065994,-1
12:53:10.065994,-82
12:53:10.065994,-17409
12:53:10.065994,-1
12:53:10.065994,-74
12:53:10.065994,-19457
12:53:10.065994,-1
12:53:10.065994,-125
12:53:10.065994,-8705
12:53:10.065994,-2
12:53:10.065994,-407
12:53:10.065994,-22529
12:53:10.065994,-1
12:53:10.065994,723
12:53:10.065994,21760
12:53:10.065994,5
12:53:10.065994,1035
12:53:10.065994,26368
12:53:10.065994,0
12:53:10.065994,-289
12:53:10.065994,-30465
12:53:10.065994,-1
12:53:10.065994,-89
12:53:10.065994,15871
12:53:10.065994,-1
12:53:10.065994,-183
12:53:10.065994,23807
12:53:10.065994,-1
12:53:10.065994,-188
12:53:10.065994,20735
12:53:10.065994,-1
12:53:10.065994,-161
12:53:10.065994,23807
12:53:10.065994,-1
12:53:10.065994,-152
12:53:10.065994,30719
12:53:10.065994,-1
12:53:10.065994,-132
12:53:10.065994,-31745
12:53:10.065994,-1
12:53:10.065994,-118
12:53:10.065994,-27905
12:53:10.065994,-1
12:53:10.065994,-101
12:53:10.065994,-20737
12:53:10.065994,-1
12:53:10.065994,-67
12:53:10.065994,-14337
12:53:10.065994,-1
12:53:10.065994,-36
12:53:10.065994,-5121
12:53:10.065994,-1
12:53:10.065994,-14
12:53:10.065994,-3329
12:53:10.065994,-1
12:53:10.065994,-24
12:53:10.605995,-38
12:53:10.605995,-16385
12:53:10.605995,-1
12:53:10.605995,-96
12:53:10.605995,-29185
12:53:10.605995,-1
12:53:10.605995,-135
12:53:10.605995,30207
12:53:10.605995,-1
12:53:10.605995,-137
12:53:10.605995,28159
12:53:10.605995,-1
12:53:10.605995,-144
12:53:10.605995,-31745
12:53:10.605995,-1
12:53:10.605995,-106
12:53:10.605995,-29185
12:53:10.605995,-1
12:53:10.605995,-127
12:53:10.605995,-29953
12:53:10.605995,-1
12:53:10.605995,-115
12:53:10.605995,-30465
12:53:10.605995,-1
12:53:10.605995,-115
12:53:10.605995,-30465
12:53:10.605995,-1
12:53:10.605995,-115
12:53:10.605995,-27393
12:53:10.605995,-1
12:53:10.605995,-110
12:53:10.605995,-26113
12:53:10.605995,-1
12:53:10.605995,-98
12:53:10.605995,-25601
12:53:10.605995,-1
12:53:10.605995,-94
12:53:10.605995,-23809
12:53:10.605995,-1
12:53:10.605995,-98
12:53:10.605995,-26881
12:53:10.605995,-1
12:53:10.605995,-96
12:53:10.605995,-14337
12:53:10.605995,-1
12:53:10.605995,-31
12:53:10.605995,-10241
12:53:10.605995,-1
12:53:10.605995,-55
12:53:10.605995,-15617
12:53:10.605995,-1
12:53:10.605995,-60
12:53:10.605995,-18689
12:53:10.605995,-1
12:53:10.605995,-84
12:53:10.605995,-19969
12:53:10.605995,-1
12:53:10.605995,-82
12:53:10.605995,-21761
12:53:10.605995,-1
12:53:10.605995,-84
12:53:10.605995,-31745
12:53:10.605995,-1
12:53:10.605995,-294
12:53:10.605995,20991
12:53:10.605995,-2
12:53:10.605995,-132
12:53:10.605995,-25345
12:53:10.605995,2
12:53:10.605995,1329
12:53:10.605995,8960
12:53:10.605995,4
12:53:10.605995,130
12:53:10.605995,-16384
12:53:10.605995,-2
12:53:10.605995,-168
12:53:10.605995,32511
12:53:10.605995,-1
12:53:10.605995,-234
12:53:10.605995,7935
12:53:10.605995,-1
12:53:10.605995,-200
12:53:10.605995,10239
12:53:10.605995,-1
12:53:10.605995,-209
12:53:10.605995,16383
12:53:10.605995,-1
12:53:10.605995,-190
12:53:10.605995,18943
12:53:10.605995,-1
12:53:10.605995,-164
12:53:10.605995,23807
12:53:10.605995,-1
12:53:10.605995,-164
12:53:10.605995,28927
12:53:10.605995,-1
12:53:10.605995,-132
12:53:10.605995,-30465
12:53:10.605995,-1
12:53:10.605995,-106
12:53:10.605995,-23041
12:53:10.605995,-1
12:53:10.605995,-69
12:53:10.605995,-13825
12:53:10.605995,-1
12:53:10.605995,-41
12:53:10.605995,-6401
12:53:10.605995,-1
12:53:10.605995,-26
12:53:11.145945,-26
12:53:11.145945,-10753
12:53:11.145945,-1
12:53:11.145945,-77
12:53:11.145945,-24321
12:53:11.145945,-1
12:53:11.145945,-115
12:53:11.145945,31231
12:53:11.145945,-1
12:53:11.145945,-135
12:53:11.145945,-32257
12:53:11.145945,-1
12:53:11.145945,-130
12:53:11.145945,28927
12:53:11.145945,-1
12:53:11.145945,-137
12:53:11.145945,-32257
12:53:11.145945,-1
12:53:11.145945,-132
12:53:11.145945,31999
12:53:11.145945,-1
12:53:11.145945,-130
12:53:11.145945,32511
12:53:11.145945,-1
12:53:11.145945,-127
12:53:11.145945,31231
12:53:11.145945,-1
12:53:11.145945,-139
12:53:11.145945,31231
12:53:11.145945,-1
12:53:11.145945,-130
12:53:11.145945,-32257
12:53:11.145945,-1
12:53:11.145945,-130
12:53:11.145945,32511
12:53:11.145945,-1
12:53:11.145945,-127
12:53:11.145945,-31233
12:53:11.145945,-1
12:53:11.145945,-113
12:53:11.145945,-29953
12:53:11.145945,-1
12:53:11.145945,-123
12:53:11.145945,-26881
12:53:11.145945,-1
12:53:11.145945,-84
12:53:11.145945,-14337
12:53:11.145945,-1
12:53:11.145945,-50
12:53:11.145945,-16385
12:53:11.145945,-1
12:53:11.145945,-69
12:53:11.145945,-19969
12:53:11.145945,-1
12:53:11.145945,-91
12:53:11.145945,-24833
12:53:11.145945,-1
12:53:11.145945,-108
12:53:11.145945,-25601
12:53:11.145945,-1
12:53:11.145945,-96
12:53:11.145945,-24321
12:53:11.145945,-1
12:53:11.145945,-108
12:53:11.145945,7935
12:53:11.145945,-1
12:53:11.145945,-400
12:53:11.145945,-6913
12:53:11.145945,-2
12:53:11.145945,354
12:53:11.145945,-29440
12:53:11.145945,4
12:53:11.145945,1274
12:53:11.145945,-10752
12:53:11.145945,1
12:53:11.145945,-231
12:53:11.145945,11007
12:53:11.145945,-1
12:53:11.145945,-74
12:53:11.145945,23295
12:53:11.145945,-1
12:53:11.145945,-214
12:53:11.145945,20735
12:53:11.145945,-1
12:53:11.145945,-185
12:53:11.145945,14591
12:53:11.145945,-1
12:53:11.145945,-188
12:53:11.145945,16383
12:53:11.145945,-1
12:53:11.145945,-185
12:53:11.145945,22783
12:53:11.145945,-1
12:53:11.145945,-168
12:53:11.145945,23295
12:53:11.145945,-1
12:53:11.145945,-152
12:53:11.145945,29439
12:53:11.145945,-1
12:53:11.145945,-142
12:53:11.145945,32511
12:53:11.145945,-1
12:53:11.145945,-98
12:53:11.145945,-19457
12:53:11.145945,-1
12:53:11.145945,-60
12:53:11.145945,-10753
12:53:11.145945,-1
12:53:11.145945,-33
12:53:11.715976,-28
12:53:11.715976,-8961
12:53:11.715976,-1
12:53:11.715976,-43
12:53:11.715976,-11265
12:53:11.715976,-1
12:53:11.715976,-57
12:53:11.715976,-18177
12:53:11.715976,-1
12:53:11.715976,-94
12:53:11.715976,-29953
12:53:11.715976,-1
12:53:11.715976,-118
12:53:11.715976,-29185
12:53:11.715976,-1
12:53:11.715976,-110
12:53:11.715976,-27393
12:53:11.715976,-1
12:53:11.715976,-113
12:53:11.715976,-27393
12:53:11.715976,-1
12:53:11.715976,-103
12:53:11.715976,-26881
12:53:11.715976,-1
12:53:11.715976,-103
12:53:11.715976,-27393
12:53:11.715976,-1
12:53:11.715976,-108
12:53:11.715976,-27905
12:53:11.715976,-1
12:53:11.715976,-115
12:53:11.715976,-28673
12:53:11.715976,-1
12:53:11.715976,-110
12:53:11.715976,-27905
12:53:11.715976,-1
12:53:11.715976,-103
12:53:11.715976,-24833
12:53:11.715976,-1
12:53:11.715976,-96
12:53:11.715976,-25601
12:53:11.715976,-1
12:53:11.715976,-103
12:53:11.715976,-26881
12:53:11.715976,-1
12:53:11.715976,-115
12:53:11.715976,-29185
12:53:11.715976,-1
12:53:11.715976,-103
12:53:11.715976,-18177
12:53:11.715976,-1
12:53:11.715976,-43
12:53:11.715976,-10753
12:53:11.715976,-1
12:53:11.715976,-48
12:53:11.715976,-11265
12:53:11.715976,-1
12:53:11.715976,-62
12:53:11.715976,-19969
12:53:11.715976,-1
12:53:11.715976,-89
12:53:11.715976,-23041
12:53:11.715976,-1
12:53:11.715976,-84
12:53:11.715976,-21249
12:53:11.715976,-1
12:53:11.715976,-89
12:53:11.715976,27647
12:53:11.715976,-1
12:53:11.715976,-320
12:53:11.715976,30207
12:53:11.715976,-2
12:53:11.715976,-12
12:53:11.715976,12287
12:53:11.715976,3
12:53:11.715976,1370
12:53:11.715976,-24576
12:53:11.715976,3
12:53:11.715976,12
12:53:11.715976,-11008
12:53:11.715976,-2
12:53:11.715976,-108
12:53:11.715976,-21249
12:53:11.715976,-1
12:53:11.715976,-178
12:53:11.715976,23807
12:53:11.715976,-1
12:53:11.715976,-139
12:53:11.715976,26367
12:53:11.715976,-1
12:53:11.715976,-142
12:53:11.715976,-32257
12:53:11.715976,-1
12:53:11.715976,-120
12:53:11.715976,-26881
12:53:11.715976,-1
12:53:11.715976,-103
12:53:11.715976,-23809
12:53:11.715976,-1
12:53:11.715976,-84
12:53:11.715976,-20737
12:53:11.715976,-1
12:53:11.715976,-72
12:53:11.715976,-15617
12:53:11.715976,-1
12:53:11.715976,-45
12:53:11.715976,-5889
12:53:11.715976,-1
12:53:11.715976,-7
12:53:12.345978,7
12:53:12.345978,2304
12:53:12.345978,0
12:53:12.345978,14
12:53:12.345978,7168
12:53:12.345978,0
12:53:12.345978,28
12:53:12.345978,7168
12:53:12.345978,0
12:53:12.345978,12
12:53:12.345978,-6656
12:53:12.345978,-1
12:53:12.345978,-53
12:53:12.345978,-16385
12:53:12.345978,-1
12:53:12.345978,-74
12:53:12.345978,-21761
12:53:12.345978,-1
12:53:12.345978,-91
12:53:12.345978,-21761
12:53:12.345978,-1
12:53:12.345978,-94
12:53:12.345978,-24833
12:53:12.345978,-1
12:53:12.345978,-96
12:53:12.345978,-25601
12:53:12.345978,-1
12:53:12.345978,-96
12:53:12.345978,-22529
12:53:12.345978,-1
12:53:12.345978,-84
12:53:12.345978,-19969
12:53:12.345978,-1
12:53:12.345978,-77
12:53:12.345978,-16897
12:53:12.345978,-1
12:53:12.345978,-62
12:53:12.345978,-16385
12:53:12.345978,-1
12:53:12.345978,-60
12:53:12.345978,-14337
12:53:12.345978,-1
12:53:12.345978,-53
12:53:12.345978,-10241
12:53:12.345978,-1
12:53:12.345978,-50
12:53:12.345978,-15105
12:53:12.345978,-1
12:53:12.345978,-60
12:53:12.345978,-14337
12:53:12.345978,-1
12:53:12.345978,-41
12:53:12.345978,-2049
12:53:12.345978,-1
12:53:12.345978,19
12:53:12.345978,3072
12:53:12.345978,0
12:53:12.345978,-12
12:53:12.345978,-3329
12:53:12.345978,-1
12:53:12.345978,-21
12:53:12.345978,-10753
12:53:12.345978,-1
12:53:12.345978,-50
12:53:12.345978,-11265
12:53:12.345978,-1
12:53:12.345978,-38
12:53:12.345978,-10241
12:53:12.345978,-1
12:53:12.345978,-82
12:53:12.345978,8447
12:53:12.345978,-1
12:53:12.345978,-378
12:53:12.345978,21503
12:53:12.345978,-1
12:53:12.345978,550
12:53:12.345978,2560
12:53:12.345978,5
12:53:12.345978,1211
12:53:12.345978,16384
12:53:12.345978,1
12:53:12.345978,-250
12:53:12.345978,30719
12:53:12.345978,-1
12:53:12.345978,-48
12:53:12.345978,26879
12:53:12.345978,-1
12:53:12.345978,-171
12:53:12.345978,30719
12:53:12.345978,-1
12:53:12.345978,-139
12:53:12.345978,29439
12:53:12.345978,-1
12:53:12.345978,-120
12:53:12.345978,-29185
12:53:12.345978,-1
12:53:12.345978,-123
12:53:12.345978,-29185
12:53:12.345978,-1
12:53:12.345978,-106
12:53:12.345978,-24321
12:53:12.345978,-1
12:53:12.345978,-82
12:53:12.345978,-18177
12:53:12.345978,-1
12:53:12.345978,-65
12:53:12.345978,-13825
12:53:12.345978,-1
12:53:12.345978,-33
12:53:12.855974,-9
12:53:12.855974,255
12:53:12.855974,0
12:53:12.855974,12
12:53:12.855974,5376
12:53:12.855974,0
12:53:12.855974,16
12:53:12.855974,3584
12:53:12.855974,0
12:53:12.855974,14
12:53:12.855974,-512
12:53:12.855974,-1
12:53:12.855974,-28
12:53:12.855974,-13825
12:53:12.855974,-1
12:53:12.855974,-69
12:53:12.855974,-19457
12:53:12.855974,-1
12:53:12.855974,-86
12:53:12.855974,-23041
12:53:12.855974,-1
12:53:12.855974,-82
12:53:12.855974,-15617
12:53:12.855974,-1
12:53:12.855974,-65
12:53:12.855974,-19969
12:53:12.855974,-1
12:53:12.855974,-82
12:53:12.855974,-21249
12:53:12.855974,-1
12:53:12.855974,-79
12:53:12.855974,-16385
12:53:12.855974,-1
12:53:12.855974,-69
12:53:12.855974,-19457
12:53:12.855974,-1
12:53:12.855974,-74
12:53:12.855974,-18177
12:53:12.855974,-1
12:53:12.855974,-69
12:53:12.855974,-19969
12:53:12.855974,-1
12:53:12.855974,-77
12:53:12.855974,-18177
12:53:12.855974,-1
12:53:12.855974,-89
12:53:12.855974,-24321
12:53:12.855974,-1
12:53:12.855974,-89
12:53:12.855974,-20737
12:53:12.855974,-1
12:53:12.855974,-62
12:53:12.855974,-10241
12:53:12.855974,-1
12:53:12.855974,-24
12:53:12.855974,-6913
12:53:12.855974,-1
12:53:12.855974,-43
12:53:12.855974,-12033
12:53:12.855974,-1
12:53:12.855974,-55
12:53:12.855974,-17409
12:53:12.855974,-1
12:53:12.855974,-77
12:53:12.855974,-16897
12:53:12.855974,-1
12:53:12.855974,-60
12:53:12.855974,-18177
12:53:12.855974,-1
12:53:12.855974,-110
12:53:12.855974,5375
12:53:12.855974,-1
12:53:12.855974,-395
12:53:12.855974,7935
12:53:12.855974,-1
12:53:12.855974,477
12:53:12.855974,-14592
12:53:12.855974,4
12:53:12.855974,1160
12:53:12.855974,8448
12:53:12.855974,1
12:53:12.855974,-289
12:53:12.855974,17151
12:53:12.855974,-1
12:53:12.855974,-91
12:53:12.855974,19711
12:53:12.855974,-1
12:53:12.855974,-185
12:53:12.855974,26367
12:53:12.855974,-1
12:53:12.855974,-171
12:53:12.855974,20223
12:53:12.855974,-1
12:53:12.855974,-152
12:53:12.855974,26879
12:53:12.855974,-1
12:53:12.855974,-161
12:53:12.855974,28927
12:53:12.855974,-1
12:53:12.855974,-132
12:53:12.855974,31999
12:53:12.855974,-1
12:53:12.855974,-123
12:53:12.855974,-27905
12:53:12.855974,-1
12:53:12.855974,-101
12:53:12.855974,-23041
12:53:12.855974,-1
12:53:12.855974,-72
12:53:13.426026,-45
12:53:13.426026,-8193
12:53:13.426026,-1
12:53:13.426026,-21
12:53:13.426026,-2049
12:53:13.426026,-1
12:53:13.426026,-12
12:53:13.426026,-4609
12:53:13.426026,-1
12:53:13.426026,-21
12:53:13.426026,-6401
12:53:13.426026,-1
12:53:13.426026,-28
12:53:13.426026,-12545
12:53:13.426026,-1
12:53:13.426026,-79
12:53:13.426026,-23041
12:53:13.426026,-1
12:53:13.426026,-91
12:53:13.426026,-23041
12:53:13.426026,-1
12:53:13.426026,-89
12:53:13.426026,-21761
12:53:13.426026,-1
12:53:13.426026,-91
12:53:13.426026,-26881
12:53:13.426026,-1
12:53:13.426026,-108
12:53:13.426026,-24833
12:53:13.426026,-1
12:53:13.426026,-98
12:53:13.426026,-26113
12:53:13.426026,-1
12:53:13.426026,-101
12:53:13.426026,-23809
12:53:13.426026,-1
12:53:13.426026,-91
12:53:13.426026,-22529
12:53:13.426026,-1
12:53:13.426026,-79
12:53:13.426026,-21249
12:53:13.426026,-1
12:53:13.426026,-89
12:53:13.426026,-20737
12:53:13.426026,-1
12:53:13.426026,-77
12:53:13.426026,-19969
12:53:13.426026,-1
12:53:13.426026,-86
12:53:13.426026,-21249
12:53:13.426026,-1
12:53:13.426026,-69
12:53:13.426026,-12033
12:53:13.426026,-1
12:53:13.426026,-14
12:53:13.426026,767
12:53:13.426026,0
12:53:13.426026,-9
12:53:13.426026,-4609
12:53:13.426026,-1
12:53:13.426026,-26
12:53:13.426026,-8193
12:53:13.426026,-1
12:53:13.426026,-41
12:53:13.426026,-13313
12:53:13.426026,-1
12:53:13.426026,-48
12:53:13.426026,-8961
12:53:13.426026,-1
12:53:13.426026,-38
12:53:13.426026,-18177
12:53:13.426026,-1
12:53:13.426026,-202
12:53:13.426026,-23553
12:53:13.426026,-2
12:53:13.426026,-185
12:53:13.426026,-4353
12:53:13.426026,1
12:53:13.426026,1257
12:53:13.426026,-12800
12:53:13.426026,4
12:53:13.426026,376
12:53:13.426026,7680
12:53:13.426026,-1
12:53:13.426026,-142
12:53:13.426026,-5889
12:53:13.426026,-1
12:53:13.426026,-110
12:53:13.426026,-31745
12:53:13.426026,-1
12:53:13.426026,-84
12:53:13.426026,-24833
12:53:13.426026,-1
12:53:13.426026,-98
12:53:13.426026,-19457
12:53:13.426026,-1
12:53:13.426026,-79
12:53:13.426026,-18689
12:53:13.426026,-1
12:53:13.426026,-53
12:53:13.426026,-8961
12:53:13.426026,-1
12:53:13.426026,-28
12:53:13.426026,-5121
12:53:13.426026,-1
12:53:13.426026,-9
12:53:13.426026,255
12:53:13.426026,0
12:53:13.426026,19
12:53:13.965968,38
12:53:13.965968,11008
12:53:13.965968,0
12:53:13.965968,60
12:53:13.965968,19712
12:53:13.965968,0
12:53:13.965968,86
12:53:13.965968,24064
12:53:13.965968,0
12:53:13.965968,96
12:53:13.965968,24576
12:53:13.965968,0
12:53:13.965968,91
12:53:13.965968,20224
12:53:13.965968,0
12:53:13.965968,62
12:53:13.965968,7936
12:53:13.965968,0
12:53:13.965968,19
12:53:13.965968,5376
12:53:13.965968,0
12:53:13.965968,7
12:53:13.965968,-512
12:53:13.965968,-1
12:53:13.965968,-2
12:53:13.965968,-257
12:53:13.965968,-1
12:53:13.965968,2
12:53:13.965968,-512
12:53:13.965968,-1
12:53:13.965968,-7
12:53:13.965968,-769
12:53:13.965968,-1
12:53:13.965968,-7
12:53:13.965968,-1537
12:53:13.965968,-1
12:53:13.965968,-2
12:53:13.965968,1279
12:53:13.965968,0
12:53:13.965968,9
12:53:13.965968,3584
12:53:13.965968,0
12:53:13.965968,26
12:53:13.965968,6144
12:53:13.965968,0
12:53:13.965968,9
12:53:13.965968,4864
12:53:13.965968,0
12:53:13.965968,16
12:53:13.965968,1024
12:53:13.965968,0
12:53:13.965968,4
12:53:13.965968,6144
12:53:13.965968,0
12:53:13.965968,65
12:53:13.965968,22016
12:53:13.965968,0
12:53:13.965968,72
12:53:13.965968,14080
12:53:13.965968,0
12:53:13.965968,50
12:53:13.965968,11520
12:53:13.965968,0
12:53:13.965968,31
12:53:13.965968,4864
12:53:13.965968,0
12:53:13.965968,26
12:53:13.965968,6144
12:53:13.965968,0
12:53:13.965968,19
12:53:13.965968,3072
12:53:13.965968,0
12:53:13.965968,-96
12:53:13.965968,-4609
12:53:13.965968,-2
12:53:13.965968,-205
12:53:13.965968,-27905
12:53:13.965968,1
12:53:13.965968,1242
12:53:13.965968,30976
12:53:13.965968,5
12:53:13.965968,583
12:53:13.965968,24832
12:53:13.965968,-1
12:53:13.965968,-125
12:53:13.965968,6911
12:53:13.965968,0
12:53:13.965968,-79
12:53:13.965968,-27905
12:53:13.965968,-1
12:53:13.965968,-60
12:53:13.965968,-19457
12:53:13.965968,-1
12:53:13.965968,-86
12:53:13.965968,-16897
12:53:13.965968,-1
12:53:13.965968,-72
12:53:13.965968,-18689
12:53:13.965968,-1
12:53:13.965968,-62
12:53:13.965968,-12033
12:53:13.965968,-1
12:53:13.965968,-45
12:53:13.965968,-12033
12:53:13.965968,-1
12:53:13.965968,-41
12:53:13.965968,-6913
12:53:13.965968,-1
12:53:13.965968,-12
12:53:14.565969,7
12:53:14.565969,3584
12:53:14.565969,0
12:53:14.565969,33
12:53:14.565969,12800
12:53:14.565969,0
12:53:14.565969,57
12:53:14.565969,17152
12:53:14.565969,0
12:53:14.565969,74
12:53:14.565969,20992
12:53:14.565969,0
12:53:14.565969,67
12:53:14.565969,9216
12:53:14.565969,0
12:53:14.565969,19
12:53:14.565969,-1024
12:53:14.565969,-1
12:53:14.565969,-24
12:53:14.565969,-7681
12:53:14.565969,-1
12:53:14.565969,-43
12:53:14.565969,-10753
12:53:14.565969,-1
12:53:14.565969,-38
12:53:14.565969,-10753
12:53:14.565969,-1
12:53:14.565969,-45
12:53:14.565969,-12033
12:53:14.565969,-1
12:53:14.565969,-48
12:53:14.565969,-12033
12:53:14.565969,-1
12:53:14.565969,-50
12:53:14.565969,-11265
12:53:14.565969,-1
12:53:14.565969,-43
12:53:14.565969,-10241
12:53:14.565969,-1
12:53:14.565969,-33
12:53:14.565969,-10241
12:53:14.565969,-1
12:53:14.565969,-45
12:53:14.565969,-10241
12:53:14.565969,-1
12:53:14.565969,-36
12:53:14.565969,-4609
12:53:14.565969,-1
12:53:14.565969,12
12:53:14.565969,7168
12:53:14.565969,0
12:53:14.565969,14
12:53:14.565969,-1024
12:53:14.565969,-1
12:53:14.565969,-4
12:53:14.565969,-2817
12:53:14.565969,-1
12:53:14.565969,-28
12:53:14.565969,-8961
12:53:14.565969,-1
12:53:14.565969,-38
12:53:14.565969,-6913
12:53:14.565969,-1
12:53:14.565969,-31
12:53:14.565969,-15617
12:53:14.565969,-1
12:53:14.565969,-183
12:53:14.565969,-23553
12:53:14.565969,-2
12:53:14.565969,-207
12:53:14.565969,-10497
12:53:14.565969,1
12:53:14.565969,1249
12:53:14.565969,-10240
12:53:14.565969,4
12:53:14.565969,369
12:53:14.565969,6912
12:53:14.565969,-1
12:53:14.565969,-123
12:53:14.565969,-8961
12:53:14.565969,-1
12:53:14.565969,-154
12:53:14.565969,21503
12:53:14.565969,-1
12:53:14.565969,-137
12:53:14.565969,29439
12:53:14.565969,-1
12:53:14.565969,-139
12:53:14.565969,-30465
12:53:14.565969,-1
12:53:14.565969,-110
12:53:14.565969,-28673
12:53:14.565969,-1
12:53:14.565969,-106
12:53:14.565969,-26113
12:53:14.565969,-1
12:53:14.565969,-98
12:53:14.565969,-19969
12:53:14.565969,-1
12:53:14.565969,-77
12:53:14.565969,-18177
12:53:14.565969,-1
12:53:14.565969,-57
12:53:14.565969,-11265
12:53:14.565969,-1
12:53:14.565969,-26
12:53:14.565969,-2817
12:53:14.565969,-1
12:53:14.565969,0
12:53:15.075937,7
12:53:15.075937,0
12:53:15.075937,0
12:53:15.075937,-4
12:53:15.075937,-2049
12:53:15.075937,-1
12:53:15.075937,-24
12:53:15.075937,-12545
12:53:15.075937,-1
12:53:15.075937,-77
12:53:15.075937,-21249
12:53:15.075937,-1
12:53:15.075937,-94
12:53:15.075937,-27393
12:53:15.075937,-1
12:53:15.075937,-103
12:53:15.075937,-22529
12:53:15.075937,-1
12:53:15.075937,-77
12:53:15.075937,-20737
12:53:15.075937,-1
12:53:15.075937,-94
12:53:15.075937,-23041
12:53:15.075937,-1
12:53:15.075937,-91
12:53:15.075937,-24833
12:53:15.075937,-1
12:53:15.075937,-94
12:53:15.075937,-23041
12:53:15.075937,-1
12:53:15.075937,-89
12:53:15.075937,-21249
12:53:15.075937,-1
12:53:15.075937,-79
12:53:15.075937,-17409
12:53:15.075937,-1
12:53:15.075937,-74
12:53:15.075937,-20737
12:53:15.075937,-1
12:53:15.075937,-82
12:53:15.075937,-20737
12:53:15.075937,-1
12:53:15.075937,-77
12:53:15.075937,-17409
12:53:15.075937,-1
12:53:15.075937,-45
12:53:15.075937,-3329
12:53:15.075937,-1
12:53:15.075937,-19
12:53:15.075937,-10241
12:53:15.075937,-1
12:53:15.075937,-48
12:53:15.075937,-12545
12:53:15.075937,-1
12:53:15.075937,-60
12:53:15.075937,-19457
12:53:15.075937,-1
12:53:15.075937,-74
12:53:15.075937,-16385
12:53:15.075937,-1
12:53:15.075937,-67
12:53:15.075937,-19969
12:53:15.075937,-1
12:53:15.075937,-156
12:53:15.075937,-21249
12:53:15.075937,-2
12:53:15.075937,-395
12:53:15.075937,7423
12:53:15.075937,0
12:53:15.075937,854
12:53:15.075937,7680
12:53:15.075937,5
12:53:15.075937,781
12:53:15.075937,-20224
12:53:15.075937,-1
12:53:15.075937,-294
12:53:15.075937,-29953
12:53:15.075937,-1
12:53:15.075937,-149
12:53:15.075937,5887
12:53:15.075937,-1
12:53:15.075937,-190
12:53:15.075937,21503
12:53:15.075937,-1
12:53:15.075937,-200
12:53:15.075937,19711
12:53:15.075937,-1
12:53:15.075937,-161
12:53:15.075937,23295
12:53:15.075937,-1
12:53:15.075937,-166
12:53:15.075937,26367
12:53:15.075937,-1
12:53:15.075937,-144
12:53:15.075937,29439
12:53:15.075937,-1
12:53:15.075937,-127
12:53:15.075937,-28673
12:53:15.075937,-1
12:53:15.075937,-106
12:53:15.075937,-23041
12:53:15.075937,-1
12:53:15.075937,-84
12:53:15.075937,-19457
12:53:15.075937,-1
12:53:15.075937,-45
12:53:15.075937,-5889
12:53:15.075937,-1
12:53:15.075937,-33
12:53:15.676520,-45
12:53:15.676520,-10241
12:53:15.676520,-1
12:53:15.676520,-41
12:53:15.676520,-16385
12:53:15.676520,-1
12:53:15.676520,-84
12:53:15.676520,-21249
12:53:15.676520,-1
12:53:15.676520,-98
12:53:15.676520,-30465
12:53:15.676520,-1
12:53:15.676520,-132
12:53:15.676520,31999
12:53:15.676520,-1
12:53:15.676520,-137
12:53:15.676520,26879
12:53:15.676520,-1
12:53:15.676520,-149
12:53:15.676520,28927
12:53:15.676520,-1
12:53:15.676520,-156
12:53:15.676520,24575
12:53:15.676520,-1
12:53:15.676520,-156
12:53:15.676520,25087
12:53:15.676520,-1
12:53:15.676520,-166
12:53:15.676520,22015
12:53:15.676520,-1
12:53:15.676520,-159
12:53:15.676520,25855
12:53:15.676520,-1
12:53:15.676520,-161
12:53:15.676520,24575
12:53:15.676520,-1
12:53:15.676520,-168
12:53:15.676520,22783
12:53:15.676520,-1
12:53:15.676520,-166
12:53:15.676520,21503
12:53:15.676520,-1
12:53:15.676520,-161
12:53:15.676520,31999
12:53:15.676520,-1
12:53:15.676520,-108
12:53:15.676520,-27393
12:53:15.676520,-1
12:53:15.676520,-127
12:53:15.676520,31231
12:53:15.676520,-1
12:53:15.676520,-144
12:53:15.676520,24575
12:53:15.676520,-1
12:53:15.676520,-166
12:53:15.676520,22783
12:53:15.676520,-1
12:53:15.676520,-171
12:53:15.676520,22015
12:53:15.676520,-1
12:53:15.676520,-185
12:53:15.676520,-769
12:53:15.676520,-2
12:53:15.676520,-439
12:53:15.676520,4863
12:53:15.676520,-2
12:53:15.676520,-69
12:53:15.676520,-9217
12:53:15.676520,2
12:53:15.676520,1165
12:53:15.676520,32512
12:53:15.676520,2
12:53:15.676520,-212
12:53:15.676520,21503
12:53:15.676520,-2
12:53:15.676520,-258
12:53:15.676520,-3841
12:53:15.676520,-2
12:53:15.676520,-352
12:53:15.676520,-21249
12:53:15.676520,-2
12:53:15.676520,-330
12:53:15.676520,-21249
12:53:15.676520,-2
12:53:15.676520,-318
12:53:15.676520,-12033
12:53:15.676520,-2
12:53:15.676520,-313
12:53:15.676520,-12545
12:53:15.676520,-2
12:53:15.676520,-289
12:53:15.676520,-6401
12:53:15.676520,-2
12:53:15.676520,-270
12:53:15.676520,2303
12:53:15.676520,-1
12:53:15.676520,-236
12:53:15.676520,7167
12:53:15.676520,-1
12:53:15.676520,-219
12:53:15.676520,15871
12:53:15.676520,-1
12:53:15.676520,-171
12:53:15.676520,25855
12:53:15.676520,-1
12:53:15.676520,-147
12:53:15.676520,28159
12:53:15.676520,-1
12:53:15.676520,-135
12:53:16.216277,-132
12:53:16.216277,28927
12:53:16.216277,-1
12:53:16.216277,-156
12:53:16.216277,22015
12:53:16.216277,-1
12:53:16.216277,-185
12:53:16.216277,15871
12:53:16.216277,-1
12:53:16.216277,-200
12:53:16.216277,13311
12:53:16.216277,-1
12:53:16.216277,-207
12:53:16.216277,14591
12:53:16.216277,-1
12:53:16.216277,-183
12:53:16.216277,20223
12:53:16.216277,-1
12:53:16.216277,-183
12:53:16.216277,18943
12:53:16.216277,-1
12:53:16.216277,-178
12:53:16.216277,21503
12:53:16.216277,-1
12:53:16.216277,-180
12:53:16.216277,19711
12:53:16.216277,-1
12:53:16.216277,-168
12:53:16.216277,23807
12:53:16.216277,-1
12:53:16.216277,-154
12:53:16.216277,29439
12:53:16.216277,-1
12:53:16.216277,-139
12:53:16.216277,30719
12:53:16.216277,-1
12:53:16.216277,-142
12:53:16.216277,30719
12:53:16.216277,-1
12:53:16.216277,-132
12:53:16.216277,-31233
12:53:16.216277,-1
12:53:16.216277,-89
12:53:16.216277,-16385
12:53:16.216277,-1
12:53:16.216277,-69
12:53:16.216277,-19457
12:53:16.216277,-1
12:53:16.216277,-77
12:53:16.216277,-19969
12:53:16.216277,-1
12:53:16.216277,-94
12:53:16.216277,-27393
12:53:16.216277,-1
12:53:16.216277,-106
12:53:16.216277,-24833
12:53:16.216277,-1
12:53:16.216277,-96
12:53:16.216277,-28673
12:53:16.216277,-1
12:53:16.216277,-207
12:53:16.216277,-30465
12:53:16.216277,-2
12:53:16.216277,-342
12:53:16.216277,-9729
12:53:16.216277,0
12:53:16.216277,1049
12:53:16.216277,-1536
12:53:16.216277,4
12:53:16.216277,540
12:53:16.216277,9472
12:53:16.216277,-1
12:53:16.216277,-260
12:53:16.216277,-22529
12:53:16.216277,-1
12:53:16.216277,-149
12:53:16.216277,14079
12:53:16.216277,-1
12:53:16.216277,-168
12:53:16.216277,23295
12:53:16.216277,-1
12:53:16.216277,-176
12:53:16.216277,23807
12:53:16.216277,-1
12:53:16.216277,-152
12:53:16.216277,29439
12:53:16.216277,-1
12:53:16.216277,-139
12:53:16.216277,31999
12:53:16.216277,-1
12:53:16.216277,-120
12:53:16.216277,-26113
12:53:16.216277,-1
12:53:16.216277,-96
12:53:16.216277,-22529
12:53:16.216277,-1
12:53:16.216277,-74
12:53:16.216277,-15105
12:53:16.216277,-1
12:53:16.216277,-50
12:53:16.216277,-6401
12:53:16.216277,-1
12:53:16.216277,-9
12:53:16.216277,-2817
12:53:16.216277,-1
12:53:16.216277,-12
12:53:16.216277,-2817
12:53:16.216277,-1
12:53:16.216277,-9
12:53:16.812672,-16
12:53:16.812672,-10241
12:53:16.812672,-1
12:53:16.812672,-65
12:53:16.812672,-20737
12:53:16.812672,-1
12:53:16.812672,-84
12:53:16.812672,-22529
12:53:16.812672,-1
12:53:16.812672,-96
12:53:16.812672,-19969
12:53:16.812672,-1
12:53:16.812672,-60
12:53:16.812672,-16897
12:53:16.812672,-1
12:53:16.812672,-72
12:53:16.812672,-17409
12:53:16.812672,-1
12:53:16.812672,-67
12:53:16.812672,-16385
12:53:16.812672,-1
12:53:16.812672,-67
12:53:16.812672,-16385
12:53:16.812672,-1
12:53:16.812672,-60
12:53:16.812672,-13313
12:53:16.812672,-1
12:53:16.812672,-45
12:53:16.812672,-12033
12:53:16.812672,-1
12:53:16.812672,-43
12:53:16.812672,-8961
12:53:16.812672,-1
12:53:16.812672,-36
12:53:16.812672,-8961
12:53:16.812672,-1
12:53:16.812672,-36
12:53:16.812672,-1537
12:53:16.812672,-1
12:53:16.812672,38
12:53:16.812672,12800
12:53:16.812672,0
12:53:16.812672,36
12:53:16.812672,4096
12:53:16.812672,0
12:53:16.812672,14
12:53:16.812672,3072
12:53:16.812672,0
12:53:16.812672,-2
12:53:16.812672,-2049
12:53:16.812672,-1
12:53:16.812672,-7
12:53:16.812672,255
12:53:16.812672,0
12:53:16.812672,12
12:53:16.812672,-1792
12:53:16.812672,-1
12:53:16.812672,-127
12:53:16.812672,-6401
12:53:16.812672,-2
12:53:16.812672,-115
12:53:16.812672,17919
12:53:16.812672,2
12:53:16.812672,1319
12:53:16.812672,-15360
12:53:16.812672,4
12:53:16.812672,335
12:53:16.812672,15616
12:53:16.812672,-1
12:53:16.812672,-57
12:53:16.812672,7423
12:53:16.812672,0
12:53:16.812672,-74
12:53:16.812672,-19969
12:53:16.812672,-1
12:53:16.812672,-45
12:53:16.812672,-14337
12:53:16.812672,-1
12:53:16.812672,-57
12:53:16.812672,-10753
12:53:16.812672,-1
12:53:16.812672,-43
12:53:16.812672,-10241
12:53:16.812672,-1
12:53:16.812672,-26
12:53:16.812672,-2817
12:53:16.812672,-1
12:53:16.812672,-2
12:53:16.812672,-257
12:53:16.812672,-1
12:53:16.812672,0
12:53:16.812672,4864
12:53:16.812672,0
12:53:16.812672,31
12:53:16.812672,11520
12:53:16.812672,0
12:53:16.812672,65
12:53:16.812672,20224
12:53:16.812672,0
12:53:16.812672,94
12:53:16.812672,25856
12:53:16.812672,0
12:53:16.812672,91
12:53:16.812672,22784
12:53:16.812672,0
12:53:16.812672,86
12:53:16.812672,17152
12:53:16.812672,0
12:53:16.812672,43
12:53:17.325960,19
12:53:17.325960,512
12:53:17.325960,0
12:53:17.325960,-14
12:53:17.325960,-6401
12:53:17.325960,-1
12:53:17.325960,-24
12:53:17.325960,-6913
12:53:17.325960,-1
12:53:17.325960,-38
12:53:17.325960,-8193
12:53:17.325960,-1
12:53:17.325960,-28
12:53:17.325960,-6401
12:53:17.325960,-1
12:53:17.325960,-31
12:53:17.325960,-7681
12:53:17.325960,-1
12:53:17.325960,-19
12:53:17.325960,-4609
12:53:17.325960,-1
12:53:17.325960,-24
12:53:17.325960,-3841
12:53:17.325960,-1
12:53:17.325960,-7
12:53:17.325960,-257
12:53:17.325960,-1
12:53:17.325960,-14
12:53:17.325960,-5889
12:53:17.325960,-1
12:53:17.325960,-21
12:53:17.325960,-5121
12:53:17.325960,-1
12:53:17.325960,-12
12:53:17.325960,5631
12:53:17.325960,0
12:53:17.325960,43
12:53:17.325960,8448
12:53:17.325960,0
12:53:17.325960,14
12:53:17.325960,512
12:53:17.325960,0
12:53:17.325960,-7
12:53:17.325960,-2817
12:53:17.325960,-1
12:53:17.325960,-16
12:53:17.325960,-5889
12:53:17.325960,-1
12:53:17.325960,-28
12:53:17.325960,-6401
12:53:17.325960,-1
12:53:17.325960,-50
12:53:17.325960,26367
12:53:17.325960,-1
12:53:17.325960,-328
12:53:17.325960,-6401
12:53:17.325960,-2
12:53:17.325960,284
12:53:17.325960,16896
12:53:17.325960,4
12:53:17.325960,1276
12:53:17.325960,3584
12:53:17.325960,2
12:53:17.325960,-197
12:53:17.325960,13311
12:53:17.325960,-1
12:53:17.325960,-62
12:53:17.325960,27647
12:53:17.325960,-1
12:53:17.325960,-193
12:53:17.325960,25087
12:53:17.325960,-1
12:53:17.325960,-166
12:53:17.325960,21503
12:53:17.325960,-1
12:53:17.325960,-154
12:53:17.325960,28159
12:53:17.325960,-1
12:53:17.325960,-154
12:53:17.325960,26879
12:53:17.325960,-1
12:53:17.325960,-142
12:53:17.325960,30207
12:53:17.325960,-1
12:53:17.325960,-130
12:53:17.325960,-29953
12:53:17.325960,-1
12:53:17.325960,-115
12:53:17.325960,-26881
12:53:17.325960,-1
12:53:17.325960,-86
12:53:17.325960,-17409
12:53:17.325960,-1
12:53:17.325960,-55
12:53:17.325960,-10753
12:53:17.325960,-1
12:53:17.325960,-31
12:53:17.325960,-6913
12:53:17.325960,-1
12:53:17.325960,-31
12:53:17.325960,-8961
12:53:17.325960,-1
12:53:17.325960,-50
12:53:17.325960,-18177
12:53:17.325960,-1
12:53:17.325960,-98
12:53:17.325960,-30465
12:53:17.325960,-1
12:53:17.325960,-132
12:53:17.895961,-144
12:53:17.895961,26879
12:53:17.895961,-1
12:53:17.895961,-154
12:53:17.895961,25855
12:53:17.895961,-1
12:53:17.895961,-156
12:53:17.895961,26879
12:53:17.895961,-1
12:53:17.895961,-137
12:53:17.895961,31999
12:53:17.895961,-1
12:53:17.895961,-147
12:53:17.895961,26879
12:53:17.895961,-1
12:53:17.895961,-149
12:53:17.895961,26879
12:53:17.895961,-1
12:53:17.895961,-152
12:53:17.895961,27647
12:53:17.895961,-1
12:53:17.895961,-147
12:53:17.895961,27647
12:53:17.895961,-1
12:53:17.895961,-152
12:53:17.895961,28927
12:53:17.895961,-1
12:53:17.895961,-149
12:53:17.895961,24575
12:53:17.895961,-1
12:53:17.895961,-156
12:53:17.895961,31999
12:53:17.895961,-1
12:53:17.895961,-101
12:53:17.895961,-21761
12:53:17.895961,-1
12:53:17.895961,-96
12:53:17.895961,-26881
12:53:17.895961,-1
12:53:17.895961,-113
12:53:17.895961,-31233
12:53:17.895961,-1
12:53:17.895961,-130
12:53:17.895961,29439
12:53:17.895961,-1
12:53:17.895961,-149
12:53:17.895961,26879
12:53:17.895961,-1
12:53:17.895961,-149
12:53:17.895961,22015
12:53:17.895961,-1
12:53:17.895961,-301
12:53:17.895961,14079
12:53:17.895961,-2
12:53:17.895961,-301
12:53:17.895961,29183
12:53:17.895961,1
12:53:17.895961,1112
12:53:17.895961,15616
12:53:17.895961,4
12:53:17.895961,243
12:53:17.895961,-23296
12:53:17.895961,-2
12:53:17.895961,-272
12:53:17.895961,20735
12:53:17.895961,-1
12:53:17.895961,-282
12:53:17.895961,-12545
12:53:17.895961,-2
12:53:17.895961,-263
12:53:17.895961,-3841
12:53:17.895961,-2
12:53:17.895961,-279
12:53:17.895961,-257
12:53:17.895961,-2
12:53:17.895961,-255
12:53:17.895961,511
12:53:17.895961,-1
12:53:17.895961,-243
12:53:17.895961,6655
12:53:17.895961,-1
12:53:17.895961,-221
12:53:17.895961,7935
12:53:17.895961,-1
12:53:17.895961,-217
12:53:17.895961,15871
12:53:17.895961,-1
12:53:17.895961,-180
12:53:17.895961,22783
12:53:17.895961,-1
12:53:17.895961,-149
12:53:17.895961,-31745
12:53:17.895961,-1
12:53:17.895961,-115
12:53:17.895961,-29953
12:53:17.895961,-1
12:53:17.895961,-108
12:53:17.895961,-26113
12:53:17.895961,-1
12:53:17.895961,-118
12:53:17.895961,31231
12:53:17.895961,-1
12:53:17.895961,-159
12:53:17.895961,18431
12:53:17.895961,-1
12:53:17.895961,-202
12:53:17.895961,11007
12:53:17.895961,-1
12:53:17.895961,-224
12:53:18.435962,-231
12:53:18.435962,5887
12:53:18.435962,-1
12:53:18.435962,-234
12:53:18.435962,7167
12:53:18.435962,-1
12:53:18.435962,-224
12:53:18.435962,6655
12:53:18.435962,-1
12:53:18.435962,-231
12:53:18.435962,11519
12:53:18.435962,-1
12:53:18.435962,-207
12:53:18.435962,10239
12:53:18.435962,-1
12:53:18.435962,-219
12:53:18.435962,11519
12:53:18.435962,-1
12:53:18.435962,-207
12:53:18.435962,12799
12:53:18.435962,-1
12:53:18.435962,-200
12:53:18.435962,15359
12:53:18.435962,-1
12:53:18.435962,-200
12:53:18.435962,15871
12:53:18.435962,-1
12:53:18.435962,-193
12:53:18.435962,20223
12:53:18.435962,-1
12:53:18.435962,-142
12:53:18.435962,-29953
12:53:18.435962,-1
12:53:18.435962,-118
12:53:18.435962,31999
12:53:18.435962,-1
12:53:18.435962,-142
12:53:18.435962,30207
12:53:18.435962,-1
12:53:18.435962,-152
12:53:18.435962,23295
12:53:18.435962,-1
12:53:18.435962,-156
12:53:18.435962,26879
12:53:18.435962,-1
12:53:18.435962,-149
12:53:18.435962,25087
12:53:18.435962,-1
12:53:18.435962,-250
12:53:18.435962,23295
12:53:18.435962,-2
12:53:18.435962,-400
12:53:18.435962,-32001
12:53:18.435962,0
12:53:18.435962,950
12:53:18.435962,-11008
12:53:18.435962,4
12:53:18.435962,569
12:53:18.435962,7680
12:53:18.435962,-1
12:53:18.435962,-316
12:53:18.435962,28927
12:53:18.435962,-1
12:53:18.435962,-207
12:53:18.435962,-3841
12:53:18.435962,-2
12:53:18.435962,-234
12:53:18.435962,8447
12:53:18.435962,-1
12:53:18.435962,-224
12:53:18.435962,12287
12:53:18.435962,-1
12:53:18.435962,-200
12:53:18.435962,14079
12:53:18.435962,-1
12:53:18.435962,-195
12:53:18.435962,20735
12:53:18.435962,-1
12:53:18.435962,-164
12:53:18.435962,25855
12:53:18.435962,-1
12:53:18.435962,-139
12:53:18.435962,-32257
12:53:18.435962,-1
12:53:18.435962,-110
12:53:18.435962,-22529
12:53:18.435962,-1
12:53:18.435962,-69
12:53:18.435962,-12033
12:53:18.435962,-1
12:53:18.435962,-28
12:53:18.435962,-2817
12:53:18.435962,-1
12:53:18.435962,-9
12:53:18.435962,-2817
12:53:18.435962,-1
12:53:18.435962,-9
12:53:18.435962,-6401
12:53:18.435962,-1
12:53:18.435962,-50
12:53:18.435962,-18177
12:53:18.435962,-1
12:53:18.435962,-94
12:53:18.435962,-24833
12:53:18.435962,-1
12:53:18.435962,-98
12:53:18.435962,-26113
12:53:18.435962,-1
12:53:18.435962,-103
12:53:19.035954,-98
12:53:19.035954,-21761
12:53:19.035954,-1
12:53:19.035954,-89
12:53:19.035954,-23809
12:53:19.035954,-1
12:53:19.035954,-74
12:53:19.035954,-16897
12:53:19.035954,-1
12:53:19.035954,-77
12:53:19.035954,-16897
12:53:19.035954,-1
12:53:19.035954,-57
12:53:19.035954,-13825
12:53:19.035954,-1
12:53:19.035954,-50
12:53:19.035954,-12033
12:53:19.035954,-1
12:53:19.035954,-38
12:53:19.035954,-7681
12:53:19.035954,-1
12:53:19.035954,-19
12:53:19.035954,-2049
12:53:19.035954,-1
12:53:19.035954,-12
12:53:19.035954,-769
12:53:19.035954,-1
12:53:19.035954,-9
12:53:19.035954,-5121
12:53:19.035954,-1
12:53:19.035954,-21
12:53:19.035954,-4609
12:53:19.035954,-1
12:53:19.035954,-12
12:53:19.035954,5119
12:53:19.035954,0
12:53:19.035954,48
12:53:19.035954,13568
12:53:19.035954,0
12:53:19.035954,33
12:53:19.035954,7936
12:53:19.035954,0
12:53:19.035954,31
12:53:19.035954,3072
12:53:19.035954,0
12:53:19.035954,2
12:53:19.035954,1024
12:53:19.035954,0
12:53:19.035954,4
12:53:19.035954,2304
12:53:19.035954,0
12:53:19.035954,0
12:53:19.035954,-17152
12:53:19.035954,-1
12:53:19.035954,-241
12:53:19.035954,-16129
12:53:19.035954,-2
12:53:19.035954,79
12:53:19.035954,-26880
12:53:19.035954,3
12:53:19.035954,1447
12:53:19.035954,-17664
12:53:19.035954,3
12:53:19.035954,28
12:53:19.035954,8192
12:53:19.035954,-1
12:53:19.035954,-21
12:53:19.035954,-11265
12:53:19.035954,-1
12:53:19.035954,-137
12:53:19.035954,-26113
12:53:19.035954,-1
12:53:19.035954,-91
12:53:19.035954,-29185
12:53:19.035954,-1
12:53:19.035954,-96
12:53:19.035954,-18177
12:53:19.035954,-1
12:53:19.035954,-82
12:53:19.035954,-20737
12:53:19.035954,-1
12:53:19.035954,-67
12:53:19.035954,-15105
12:53:19.035954,-1
12:53:19.035954,-55
12:53:19.035954,-11265
12:53:19.035954,-1
12:53:19.035954,-28
12:53:19.035954,-3329
12:53:19.035954,-1
12:53:19.035954,-7
12:53:19.035954,3327
12:53:19.035954,0
12:53:19.035954,41
12:53:19.035954,13568
12:53:19.035954,0
12:53:19.035954,62
12:53:19.035954,16640
12:53:19.035954,0
12:53:19.035954,72
12:53:19.035954,18432
12:53:19.035954,0
12:53:19.035954,50
12:53:19.035954,8448
12:53:19.035954,0
12:53:19.035954,12
12:53:19.035954,-4864
12:53:19.035954,-1
12:53:19.035954,-41
12:53:19.605961,-41
12:53:19.605961,-9473
12:53:19.605961,-1
12:53:19.605961,-45
12:53:19.605961,-13825
12:53:19.605961,-1
12:53:19.605961,-53
12:53:19.605961,-12545
12:53:19.605961,-1
12:53:19.605961,-55
12:53:19.605961,-15105
12:53:19.605961,-1
12:53:19.605961,-60
12:53:19.605961,-10241
12:53:19.605961,-1
12:53:19.605961,-31
12:53:19.605961,-10241
12:53:19.605961,-1
12:53:19.605961,-33
12:53:19.605961,-5889
12:53:19.605961,-1
12:53:19.605961,-19
12:53:19.605961,-3329
12:53:19.605961,-1
12:53:19.605961,-16
12:53:19.605961,-3329
12:53:19.605961,-1
12:53:19.605961,-16
12:53:19.605961,-3841
12:53:19.605961,-1
12:53:19.605961,-16
12:53:19.605961,-5889
12:53:19.605961,-1
12:53:19.605961,-28
12:53:19.605961,-5121
12:53:19.605961,-1
12:53:19.605961,2
12:53:19.605961,7936
12:53:19.605961,0
12:53:19.605961,33
12:53:19.605961,5376
12:53:19.605961,0
12:53:19.605961,19
12:53:19.605961,4096
12:53:19.605961,0
12:53:19.605961,-2
12:53:19.605961,-6401
12:53:19.605961,-1
12:53:19.605961,-19
12:53:19.605961,-257
12:53:19.605961,-1
12:53:19.605961,-16
12:53:19.605961,-5889
12:53:19.605961,-1
12:53:19.605961,-41
12:53:19.605961,20735
12:53:19.605961,-1
12:53:19.605961,-345
12:53:19.605961,18943
12:53:19.605961,-1
12:53:19.605961,513
12:53:19.605961,-512
12:53:19.605961,4
12:53:19.605961,1237
12:53:19.605961,28928
12:53:19.605961,1
12:53:19.605961,-219
12:53:19.605961,-29953
12:53:19.605961,-1
12:53:19.605961,-26
12:53:19.605961,27647
12:53:19.605961,-1
12:53:19.605961,-161
12:53:19.605961,-28673
12:53:19.605961,-1
12:53:19.605961,-130
12:53:19.605961,30719
12:53:19.605961,-1
12:53:19.605961,-118
12:53:19.605961,-27393
12:53:19.605961,-1
12:53:19.605961,-101
12:53:19.605961,-23809
12:53:19.605961,-1
12:53:19.605961,-84
12:53:19.605961,-19457
12:53:19.605961,-1
12:53:19.605961,-67
12:53:19.605961,-14337
12:53:19.605961,-1
12:53:19.605961,-48
12:53:19.605961,-8961
12:53:19.605961,-1
12:53:19.605961,-24
12:53:19.605961,-769
12:53:19.605961,-1
12:53:19.605961,14
12:53:19.605961,6144
12:53:19.605961,0
12:53:19.605961,38
12:53:19.605961,11008
12:53:19.605961,0
12:53:19.605961,38
12:53:19.605961,10496
12:53:19.605961,0
12:53:19.605961,14
12:53:19.605961,-6144
12:53:19.605961,-1
12:53:19.605961,-48
12:53:20.145945,-72
12:53:20.145945,-21761
12:53:20.145945,-1
12:53:20.145945,-86
12:53:20.145945,-23041
12:53:20.145945,-1
12:53:20.145945,-98
12:53:20.145945,-25601
12:53:20.145945,-1
12:53:20.145945,-94
12:53:20.145945,-25601
12:53:20.145945,-1
12:53:20.145945,-115
12:53:20.145945,-30465
12:53:20.145945,-1
12:53:20.145945,-113
12:53:20.145945,-26113
12:53:20.145945,-1
12:53:20.145945,-91
12:53:20.145945,-23041
12:53:20.145945,-1
12:53:20.145945,-86
12:53:20.145945,-21761
12:53:20.145945,-1
12:53:20.145945,-91
12:53:20.145945,-21249
12:53:20.145945,-1
12:53:20.145945,-84
12:53:20.145945,-19969
12:53:20.145945,-1
12:53:20.145945,-69
12:53:20.145945,-17409
12:53:20.145945,-1
12:53:20.145945,-72
12:53:20.145945,-18177
12:53:20.145945,-1
12:53:20.145945,-62
12:53:20.145945,-14337
12:53:20.145945,-1
12:53:20.145945,-69
12:53:20.145945,-19457
12:53:20.145945,-1
12:53:20.145945,-74
12:53:20.145945,-16897
12:53:20.145945,-1
12:53:20.145945,-28
12:53:20.145945,-769
12:53:20.145945,-1
12:53:20.145945,-16
12:53:20.145945,-5889
12:53:20.145945,-1
12:53:20.145945,-31
12:53:20.145945,-8961
12:53:20.145945,-1
12:53:20.145945,-45
12:53:20.145945,-15105
12:53:20.145945,-1
12:53:20.145945,-62
12:53:20.145945,-14337
12:53:20.145945,-1
12:53:20.145945,-57
12:53:20.145945,-16385
12:53:20.145945,-1
12:53:20.145945,-108
12:53:20.145945,-769
12:53:20.145945,-2
12:53:20.145945,-381
12:53:20.145945,-19969
12:53:20.145945,-1
12:53:20.145945,699
12:53:20.145945,9472
12:53:20.145945,5
12:53:20.145945,1030
12:53:20.145945,-30464
12:53:20.145945,0
12:53:20.145945,-287
12:53:20.145945,-31745
12:53:20.145945,-1
12:53:20.145945,-74
12:53:20.145945,20735
12:53:20.145945,-1
12:53:20.145945,-168
12:53:20.145945,31231
12:53:20.145945,-1
12:53:20.145945,-142
12:53:20.145945,30207
12:53:20.145945,-1
12:53:20.145945,-123
12:53:20.145945,-30465
12:53:20.145945,-1
12:53:20.145945,-118
12:53:20.145945,-24833
12:53:20.145945,-1
12:53:20.145945,-91
12:53:20.145945,-24321
12:53:20.145945,-1
12:53:20.145945,-84
12:53:20.145945,-17409
12:53:20.145945,-1
12:53:20.145945,-57
12:53:20.145945,-10753
12:53:20.145945,-1
12:53:20.145945,-31
12:53:20.145945,-3841
12:53:20.145945,-1
12:53:20.145945,0
12:53:20.145945,4096
12:53:20.145945,0
12:53:20.145945,24
12:53:20.715963,24
12:53:20.715963,7168
12:53:20.715963,0
12:53:20.715963,19
12:53:20.715963,-1024
12:53:20.715963,-1
12:53:20.715963,-26
12:53:20.715963,-12545
12:53:20.715963,-1
12:53:20.715963,-69
12:53:20.715963,-18177
12:53:20.715963,-1
12:53:20.715963,-62
12:53:20.715963,-14337
12:53:20.715963,-1
12:53:20.715963,-72
12:53:20.715963,-18689
12:53:20.715963,-1
12:53:20.715963,-62
12:53:20.715963,-18177
12:53:20.715963,-1
12:53:20.715963,-79
12:53:20.715963,-19457
12:53:20.715963,-1
12:53:20.715963,-84
12:53:20.715963,-20737
12:53:20.715963,-1
12:53:20.715963,-77
12:53:20.715963,-19969
12:53:20.715963,-1
12:53:20.715963,-79
12:53:20.715963,-18689
12:53:20.715963,-1
12:53:20.715963,-69
12:53:20.715963,-16897
12:53:20.715963,-1
12:53:20.715963,-62
12:53:20.715963,-14337
12:53:20.715963,-1
12:53:20.715963,-60
12:53:20.715963,-13313
12:53:20.715963,-1
12:53:20.715963,-50
12:53:20.715963,-14337
12:53:20.715963,-1
12:53:20.715963,-55
12:53:20.715963,-13825
12:53:20.715963,-1
12:53:20.715963,-60
12:53:20.715963,-15105
12:53:20.715963,-1
12:53:20.715963,-60
12:53:20.715963,-13313
12:53:20.715963,-1
12:53:20.715963,-57
12:53:20.715963,-16897
12:53:20.715963,-1
12:53:20.715963,-67
12:53:20.715963,-16385
12:53:20.715963,-1
12:53:20.715963,-43
12:53:20.715963,-3329
12:53:20.715963,-1
12:53:20.715963,0
12:53:20.715963,-1792
12:53:20.715963,-1
12:53:20.715963,-16
12:53:20.715963,-3329
12:53:20.715963,-1
12:53:20.715963,-16
12:53:20.715963,-7681
12:53:20.715963,-1
12:53:20.715963,-28
12:53:20.715963,-5121
12:53:20.715963,-1
12:53:20.715963,-26
12:53:20.715963,-6401
12:53:20.715963,-1
12:53:20.715963,-55
12:53:20.715963,15871
12:53:20.715963,-1
12:53:20.715963,-332
12:53:20.715963,-23041
12:53:20.715963,-1
12:53:20.715963,646
12:53:20.715963,12032
12:53:20.715963,5
12:53:20.715963,1143
12:53:20.715963,-2048
12:53:20.715963,0
12:53:20.715963,-248
12:53:20.715963,-23809
12:53:20.715963,-1
12:53:20.715963,-4
12:53:20.715963,-26113
12:53:20.715963,-1
12:53:20.715963,-110
12:53:20.715963,-20737
12:53:20.715963,-1
12:53:20.715963,-89
12:53:20.715963,-20737
12:53:20.715963,-1
12:53:20.715963,-65
12:53:20.715963,-13825
12:53:20.715963,-1
12:53:20.715963,-55
12:53:20.715963,-15617
12:53:20.715963,-1
12:53:20.715963,-55
12:53:21.255948,-33
12:53:21.255948,-5121
12:53:21.255948,-1
12:53:21.255948,-21
12:53:21.255948,-3329
12:53:21.255948,-1
12:53:21.255948,7
12:53:21.255948,6656
12:53:21.255948,0
12:53:21.255948,38
12:53:21.255948,13568
12:53:21.255948,0
12:53:21.255948,74
12:53:21.255948,26368
12:53:21.255948,0
12:53:21.255948,120
12:53:21.255948,27648
12:53:21.255948,0
12:53:21.255948,98
12:53:21.255948,22784
12:53:21.255948,0
12:53:21.255948,60
12:53:21.255948,7168
12:53:21.255948,0
12:53:21.255948,14
12:53:21.255948,-512
12:53:21.255948,-1
12:53:21.255948,-19
12:53:21.255948,-4609
12:53:21.255948,-1
12:53:21.255948,-21
12:53:21.255948,-5121
12:53:21.255948,-1
12:53:21.255948,-9
12:53:21.255948,-1537
12:53:21.255948,-1
12:53:21.255948,-14
12:53:21.255948,-2817
12:53:21.255948,-1
12:53:21.255948,-12
12:53:21.255948,-769
12:53:21.255948,-1
12:53:21.255948,4
12:53:21.255948,1792
12:53:21.255948,0
12:53:21.255948,9
12:53:21.255948,4096
12:53:21.255948,0
12:53:21.255948,26
12:53:21.255948,7168
12:53:21.255948,0
12:53:21.255948,26
12:53:21.255948,7936
12:53:21.255948,0
12:53:21.255948,28
12:53:21.255948,7936
12:53:21.255948,0
12:53:21.255948,36
12:53:21.255948,7168
12:53:21.255948,0
12:53:21.255948,28
12:53:21.255948,7936
12:53:21.255948,0
12:53:21.255948,31
12:53:21.255948,6656
12:53:21.255948,0
12:53:21.255948,21
12:53:21.255948,4096
12:53:21.255948,0
12:53:21.255948,19
12:53:21.255948,8448
12:53:21.255948,0
12:53:21.255948,62
12:53:21.255948,22016
12:53:21.255948,0
12:53:21.255948,89
12:53:21.255948,20224
12:53:21.255948,0
12:53:21.255948,69
12:53:21.255948,14592
12:53:21.255948,0
12:53:21.255948,41
12:53:21.255948,7168
12:53:21.255948,0
12:53:21.255948,26
12:53:21.255948,6656
12:53:21.255948,0
12:53:21.255948,19
12:53:21.255948,3072
12:53:21.255948,0
12:53:21.255948,-45
12:53:21.255948,7167
12:53:21.255948,-1
12:53:21.255948,-335
12:53:21.255948,9471
12:53:21.255948,0
12:53:21.255948,859
12:53:21.255948,31744
12:53:21.255948,5
12:53:21.255948,955
12:53:21.255948,7168
12:53:21.255948,0
12:53:21.255948,-263
12:53:21.255948,-16897
12:53:21.255948,-1
12:53:21.255948,-60
12:53:21.255948,29439
12:53:21.255948,-1
12:53:21.255948,-118
12:53:21.795957,-108
12:53:21.795957,-31233
12:53:21.795957,-1
12:53:21.795957,-113
12:53:21.795957,-27905
12:53:21.795957,-1
12:53:21.795957,-118
12:53:21.795957,-29185
12:53:21.795957,-1
12:53:21.795957,-96
12:53:21.795957,-21761
12:53:21.795957,-1
12:53:21.795957,-89
12:53:21.795957,-19969
12:53:21.795957,-1
12:53:21.795957,-69
12:53:21.795957,-15617
12:53:21.795957,-1
12:53:21.795957,-48
12:53:21.795957,-8193
12:53:21.795957,-1
12:53:21.795957,-14
12:53:21.795957,255
12:53:21.795957,0
12:53:21.795957,9
12:53:21.795957,4864
12:53:21.795957,0
12:53:21.795957,16
12:53:21.795957,3072
12:53:21.795957,0
12:53:21.795957,-4
12:53:21.795957,-6401
12:53:21.795957,-1
12:53:21.795957,-48
12:53:21.795957,-20737
12:53:21.795957,-1
12:53:21.795957,-103
12:53:21.795957,-27905
12:53:21.795957,-1
12:53:21.795957,-120
12:53:21.795957,32511
12:53:21.795957,-1
12:53:21.795957,-135
12:53:21.795957,31999
12:53:21.795957,-1
12:53:21.795957,-130
12:53:21.795957,31231
12:53:21.795957,-1
12:53:21.795957,-142
12:53:21.795957,29439
12:53:21.795957,-1
12:53:21.795957,-139
12:53:21.795957,31231
12:53:21.795957,-1
12:53:21.795957,-139
12:53:21.795957,-32257
12:53:21.795957,-1
12:53:21.795957,-110
12:53:21.795957,-28673
12:53:21.795957,-1
12:53:21.795957,-110
12:53:21.795957,-25601
12:53:21.795957,-1
12:53:21.795957,-94
12:53:21.795957,-22529
12:53:21.795957,-1
12:53:21.795957,-94
12:53:21.795957,-23041
12:53:21.795957,-1
12:53:21.795957,-86
12:53:21.795957,-23809
12:53:21.795957,-1
12:53:21.795957,-96
12:53:21.795957,-24321
12:53:21.795957,-1
12:53:21.795957,-101
12:53:21.795957,-26881
12:53:21.795957,-1
12:53:21.795957,-96
12:53:21.795957,-14337
12:53:21.795957,-1
12:53:21.795957,-36
12:53:21.795957,-11265
12:53:21.795957,-1
12:53:21.795957,-60
12:53:21.795957,-15617
12:53:21.795957,-1
12:53:21.795957,-67
12:53:21.795957,-21761
12:53:21.795957,-1
12:53:21.795957,-94
12:53:21.795957,-19969
12:53:21.795957,-1
12:53:21.795957,-82
12:53:21.795957,-23809
12:53:21.795957,-1
12:53:21.795957,-110
12:53:21.795957,9727
12:53:21.795957,-1
12:53:21.795957,-405
12:53:21.795957,-19201
12:53:21.795957,-2
12:53:21.795957,287
12:53:21.795957,19456
12:53:21.795957,4
12:53:21.795957,1237
12:53:21.795957,-13824
12:53:21.795957,1
12:53:21.795957,-265
12:53:22.395947,-272
12:53:22.395947,-30465
12:53:22.395947,-1
12:53:22.395947,-202
12:53:22.395947,4095
12:53:22.395947,-1
12:53:22.395947,-183
12:53:22.395947,20223
12:53:22.395947,-1
12:53:22.395947,-195
12:53:22.395947,20223
12:53:22.395947,-1
12:53:22.395947,-164
12:53:22.395947,23807
12:53:22.395947,-1
12:53:22.395947,-164
12:53:22.395947,27647
12:53:22.395947,-1
12:53:22.395947,-144
12:53:22.395947,27647
12:53:22.395947,-1
12:53:22.395947,-139
12:53:22.395947,31999
12:53:22.395947,-1
12:53:22.395947,-123
12:53:22.395947,-26881
12:53:22.395947,-1
12:53:22.395947,-96
12:53:22.395947,-19969
12:53:22.395947,-1
12:53:22.395947,-62
12:53:22.395947,-12545
12:53:22.395947,-1
12:53:22.395947,-41
12:53:22.395947,-10241
12:53:22.395947,-1
12:53:22.395947,-43
12:53:22.395947,-13313
12:53:22.395947,-1
12:53:22.395947,-77
12:53:22.395947,-24321
12:53:22.395947,-1
12:53:22.395947,-123
12:53:22.395947,30207
12:53:22.395947,-1
12:53:22.395947,-137
12:53:22.395947,32511
12:53:22.395947,-1
12:53:22.395947,-132
12:53:22.395947,29439
12:53:22.395947,-1
12:53:22.395947,-139
12:53:22.395947,31231
12:53:22.395947,-1
12:53:22.395947,-144
12:53:22.395947,29439
12:53:22.395947,-1
12:53:22.395947,-135
12:53:22.395947,30719
12:53:22.395947,-1
12:53:22.395947,-139
12:53:22.395947,30719
12:53:22.395947,-1
12:53:22.395947,-130
12:53:22.395947,-30465
12:53:22.395947,-1
12:53:22.395947,-118
12:53:22.395947,-26881
12:53:22.395947,-1
12:53:22.395947,-94
12:53:22.395947,-21761
12:53:22.395947,-1
12:53:22.395947,-82
12:53:22.395947,-19457
12:53:22.395947,-1
12:53:22.395947,-65
12:53:22.395947,-13825
12:53:22.395947,-1
12:53:22.395947,-53
12:53:22.395947,-13313
12:53:22.395947,-1
12:53:22.395947,-50
12:53:22.395947,-5889
12:53:22.395947,-1
12:53:22.395947,9
12:53:22.395947,7168
12:53:22.395947,0
12:53:22.395947,33
12:53:22.395947,5376
12:53:22.395947,0
12:53:22.395947,12
12:53:22.395947,2304
12:53:22.395947,0
12:53:22.395947,-2
12:53:22.395947,-1537
12:53:22.395947,-1
12:53:22.395947,2
12:53:22.395947,1024
12:53:22.395947,0
12:53:22.395947,4
12:53:22.395947,-512
12:53:22.395947,-1
12:53:22.395947,-86
12:53:22.395947,-2561
12:53:22.395947,-2
12:53:22.395947,-277
12:53:22.395947,-6145
12:53:22.395947,0
12:53:22.395947,1068
12:53:22.966010,1430
12:53:22.966010,11520
12:53:22.966010,3
12:53:22.966010,-41
12:53:22.966010,14591
12:53:22.966010,-1
12:53:22.966010,-16
12:53:22.966010,-14337
12:53:22.966010,-1
12:53:22.966010,-137
12:53:22.966010,-24321
12:53:22.966010,-1
12:53:22.966010,-67
12:53:22.966010,-16897
12:53:22.966010,-1
12:53:22.966010,-53
12:53:22.966010,-10241
12:53:22.966010,-1
12:53:22.966010,-41
12:53:22.966010,-7681
12:53:22.966010,-1
12:53:22.966010,-21
12:53:22.966010,-5889
12:53:22.966010,-1
12:53:22.966010,-16
12:53:22.966010,-769
12:53:22.966010,-1
12:53:22.966010,-4
12:53:22.966010,3327
12:53:22.966010,0
12:53:22.966010,33
12:53:22.966010,11520
12:53:22.966010,0
12:53:22.966010,60
12:53:22.966010,20224
12:53:22.966010,0
12:53:22.966010,96
12:53:22.966010,26368
12:53:22.966010,0
12:53:22.966010,103
12:53:22.966010,25088
12:53:22.966010,0
12:53:22.966010,82
12:53:22.966010,17152
12:53:22.966010,0
12:53:22.966010,43
12:53:22.966010,2304
12:53:22.966010,0
12:53:22.966010,-9
12:53:22.966010,-4609
12:53:22.966010,-1
12:53:22.966010,-28
12:53:22.966010,-7681
12:53:22.966010,-1
12:53:22.966010,-31
12:53:22.966010,-7681
12:53:22.966010,-1
12:53:22.966010,-43
12:53:22.966010,-13313
12:53:22.966010,-1
12:53:22.966010,-55
12:53:22.966010,-16897
12:53:22.966010,-1
12:53:22.966010,-67
12:53:22.966010,-13825
12:53:22.966010,-1
12:53:22.966010,-57
12:53:22.966010,-15105
12:53:22.966010,-1
12:53:22.966010,-57
12:53:22.966010,-15105
12:53:22.966010,-1
12:53:22.966010,-57
12:53:22.966010,-13313
12:53:22.966010,-1
12:53:22.966010,-48
12:53:22.966010,-13825
12:53:22.966010,-1
12:53:22.966010,-65
12:53:22.966010,-14337
12:53:22.966010,-1
12:53:22.966010,-53
12:53:22.966010,-8961
12:53:22.966010,-1
12:53:22.966010,-9
12:53:22.966010,-769
12:53:22.966010,-1
12:53:22.966010,-19
12:53:22.966010,-7681
12:53:22.966010,-1
12:53:22.966010,-41
12:53:22.966010,-14337
12:53:22.966010,-1
12:53:22.966010,-82
12:53:22.966010,-23041
12:53:22.966010,-1
12:53:22.966010,-89
12:53:22.966010,-23809
12:53:22.966010,-1
12:53:22.966010,-103
12:53:22.966010,28927
12:53:22.966010,-1
12:53:22.966010,-289
12:53:22.966010,16639
12:53:22.966010,-2
12:53:22.966010,-253
12:53:22.966010,-7425
12:53:22.966010,1
12:53:22.966010,1211
12:53:23.505954,1059
12:53:23.505954,32000
12:53:23.505954,0
12:53:23.505954,-412
12:53:23.505954,-2049
12:53:23.505954,-2
12:53:23.505954,-180
12:53:23.505954,-7681
12:53:23.505954,-2
12:53:23.505954,-289
12:53:23.505954,-2561
12:53:23.505954,-2
12:53:23.505954,-291
12:53:23.505954,-7681
12:53:23.505954,-2
12:53:23.505954,-260
12:53:23.505954,511
12:53:23.505954,-1
12:53:23.505954,-265
12:53:23.505954,-1537
12:53:23.505954,-2
12:53:23.505954,-253
12:53:23.505954,1791
12:53:23.505954,-1
12:53:23.505954,-248
12:53:23.505954,4863
12:53:23.505954,-1
12:53:23.505954,-231
12:53:23.505954,9215
12:53:23.505954,-1
12:53:23.505954,-214
12:53:23.505954,15359
12:53:23.505954,-1
12:53:23.505954,-178
12:53:23.505954,21503
12:53:23.505954,-1
12:53:23.505954,-168
12:53:23.505954,22783
12:53:23.505954,-1
12:53:23.505954,-176
12:53:23.505954,17151
12:53:23.505954,-1
12:53:23.505954,-214
12:53:23.505954,4095
12:53:23.505954,-1
12:53:23.505954,-267
12:53:23.505954,-9473
12:53:23.505954,-2
12:53:23.505954,-308
12:53:23.505954,-15617
12:53:23.505954,-2
12:53:23.505954,-323
12:53:23.505954,-18689
12:53:23.505954,-2
12:53:23.505954,-337
12:53:23.505954,-19969
12:53:23.505954,-2
12:53:23.505954,-332
12:53:23.505954,-21249
12:53:23.505954,-2
12:53:23.505954,-340
12:53:23.505954,-21761
12:53:23.505954,-2
12:53:23.505954,-342
12:53:23.505954,-19969
12:53:23.505954,-2
12:53:23.505954,-330
12:53:23.505954,-17409
12:53:23.505954,-2
12:53:23.505954,-323
12:53:23.505954,-17409
12:53:23.505954,-2
12:53:23.505954,-323
12:53:23.505954,-15617
12:53:23.505954,-2
12:53:23.505954,-316
12:53:23.505954,-15617
12:53:23.505954,-2
12:53:23.505954,-313
12:53:23.505954,-11265
12:53:23.505954,-2
12:53:23.505954,-289
12:53:23.505954,-257
12:53:23.505954,-2
12:53:23.505954,-236
12:53:23.505954,2815
12:53:23.505954,-1
12:53:23.505954,-253
12:53:23.505954,2303
12:53:23.505954,-1
12:53:23.505954,-253
12:53:23.505954,-1537
12:53:23.505954,-2
12:53:23.505954,-272
12:53:23.505954,-2049
12:53:23.505954,-2
12:53:23.505954,-260
12:53:23.505954,-2049
12:53:23.505954,-2
12:53:23.505954,-282
12:53:23.505954,30207
12:53:23.505954,-2
12:53:23.505954,-564
12:53:23.505954,17919
12:53:23.505954,-2
12:53:23.505954,217
12:53:23.505954,-4608
12:53:23.505954,3
12:53:23.505954,1037
12:53:24.075943,205
12:53:24.075943,18176
12:53:24.075943,-2
12:53:24.075943,-386
12:53:24.075943,-257
12:53:24.075943,-2
12:53:24.075943,-347
12:53:24.075943,-30977
12:53:24.075943,-2
12:53:24.075943,-328
12:53:24.075943,-15617
12:53:24.075943,-2
12:53:24.075943,-313
12:53:24.075943,-9985
12:53:24.075943,-2
12:53:24.075943,-289
12:53:24.075943,-5633
12:53:24.075943,-2
12:53:24.075943,-270
12:53:24.075943,-3329
12:53:24.075943,-2
12:53:24.075943,-260
12:53:24.075943,4095
12:53:24.075943,-1
12:53:24.075943,-231
12:53:24.075943,7935
12:53:24.075943,-1
12:53:24.075943,-207
12:53:24.075943,17151
12:53:24.075943,-1
12:53:24.075943,-180
12:53:24.075943,24575
12:53:24.075943,-1
12:53:24.075943,-139
12:53:24.075943,32511
12:53:24.075943,-1
12:53:24.075943,-125
12:53:24.075943,-31233
12:53:24.075943,-1
12:53:24.075943,-123
12:53:24.075943,31231
12:53:24.075943,-1
12:53:24.075943,-161
12:53:24.075943,17151
12:53:24.075943,-1
12:53:24.075943,-205
12:53:24.075943,11519
12:53:24.075943,-1
12:53:24.075943,-219
12:53:24.075943,9727
12:53:24.075943,-1
12:53:24.075943,-217
12:53:24.075943,11007
12:53:24.075943,-1
12:53:24.075943,-214
12:53:24.075943,11519
12:53:24.075943,-1
12:53:24.075943,-217
12:53:24.075943,8447
12:53:24.075943,-1
12:53:24.075943,-219
12:53:24.075943,11007
12:53:24.075943,-1
12:53:24.075943,-209
12:53:24.075943,12799
12:53:24.075943,-1
12:53:24.075943,-205
12:53:24.075943,16383
12:53:24.075943,-1
12:53:24.075943,-185
12:53:24.075943,20223
12:53:24.075943,-1
12:53:24.075943,-171
12:53:24.075943,22783
12:53:24.075943,-1
12:53:24.075943,-164
12:53:24.075943,23807
12:53:24.075943,-1
12:53:24.075943,-166
12:53:24.075943,25855
12:53:24.075943,-1
12:53:24.075943,-135
12:53:24.075943,-24321
12:53:24.075943,-1
12:53:24.075943,-77
12:53:24.075943,-21249
12:53:24.075943,-1
12:53:24.075943,-91
12:53:24.075943,-23809
12:53:24.075943,-1
12:53:24.075943,-96
12:53:24.075943,-26881
12:53:24.075943,-1
12:53:24.075943,-108
12:53:24.075943,-24833
12:53:24.075943,-1
12:53:24.075943,-98
12:53:24.075943,-24833
12:53:24.075943,-1
12:53:24.075943,-106
12:53:24.075943,12287
12:53:24.075943,-1
12:53:24.075943,-378
12:53:24.075943,-12545
12:53:24.075943,-2
12:53:24.075943,282
12:53:24.075943,16384
12:53:24.075943,4
12:53:24.075943,1259
12:53:24.615943,521
12:53:24.615943,13824
12:53:24.615943,-1
12:53:24.615943,-234
12:53:24.615943,-18177
12:53:24.615943,-1
12:53:24.615943,-130
12:53:24.615943,18431
12:53:24.615943,-1
12:53:24.615943,-152
12:53:24.615943,28159
12:53:24.615943,-1
12:53:24.615943,-144
12:53:24.615943,-27905
12:53:24.615943,-1
12:53:24.615943,-101
12:53:24.615943,-25601
12:53:24.615943,-1
12:53:24.615943,-91
12:53:24.615943,-19969
12:53:24.615943,-1
12:53:24.615943,-79
12:53:24.615943,-19969
12:53:24.615943,-1
12:53:24.615943,-60
12:53:24.615943,-10753
12:53:24.615943,-1
12:53:24.615943,-36
12:53:24.615943,-5121
12:53:24.615943,-1
12:53:24.615943,-4
12:53:24.615943,4351
12:53:24.615943,0
12:53:24.615943,31
12:53:24.615943,10496
12:53:24.615943,0
12:53:24.615943,50
12:53:24.615943,11520
12:53:24.615943,0
12:53:24.615943,36
12:53:24.615943,6144
12:53:24.615943,0
12:53:24.615943,-4
12:53:24.615943,-6913
12:53:24.615943,-1
12:53:24.615943,-43
12:53:24.615943,-13313
12:53:24.615943,-1
12:53:24.615943,-60
12:53:24.615943,-18177
12:53:24.615943,-1
12:53:24.615943,-74
12:53:24.615943,-16385
12:53:24.615943,-1
12:53:24.615943,-65
12:53:24.615943,-18177
12:53:24.615943,-1
12:53:24.615943,-79
12:53:24.615943,-19457
12:53:24.615943,-1
12:53:24.615943,-72
12:53:24.615943,-20737
12:53:24.615943,-1
12:53:24.615943,-86
12:53:24.615943,-19457
12:53:24.615943,-1
12:53:24.615943,-67
12:53:24.615943,-14337
12:53:24.615943,-1
12:53:24.615943,-53
12:53:24.615943,-12033
12:53:24.615943,-1
12:53:24.615943,-43
12:53:24.615943,-8193
12:53:24.615943,-1
12:53:24.615943,-26
12:53:24.615943,-8961
12:53:24.615943,-1
12:53:24.615943,-36
12:53:24.615943,-6913
12:53:24.615943,-1
12:53:24.615943,-19
12:53:24.615943,3839
12:53:24.615943,0
12:53:24.615943,45
12:53:24.615943,8448
12:53:24.615943,0
12:53:24.615943,16
12:53:24.615943,4096
12:53:24.615943,0
12:53:24.615943,14
12:53:24.615943,512
12:53:24.615943,0
12:53:24.615943,-7
12:53:24.615943,255
12:53:24.615943,0
12:53:24.615943,0
12:53:24.615943,-1024
12:53:24.615943,-1
12:53:24.615943,-9
12:53:24.615943,-25601
12:53:24.615943,-1
12:53:24.615943,-277
12:53:24.615943,6655
12:53:24.615943,-1
12:53:24.615943,347
12:53:24.615943,-26368
12:53:24.615943,4
12:53:24.615943,1382
12:53:25.155948,644
12:53:25.155948,-29440
12:53:25.155948,-1
12:53:25.155948,-161
12:53:25.155948,3839
12:53:25.155948,0
12:53:25.155948,-36
12:53:25.155948,-21761
12:53:25.155948,-1
12:53:25.155948,-41
12:53:25.155948,-6401
12:53:25.155948,-1
12:53:25.155948,-33
12:53:25.155948,-4609
12:53:25.155948,-1
12:53:25.155948,-12
12:53:25.155948,-2817
12:53:25.155948,-1
12:53:25.155948,-9
12:53:25.155948,255
12:53:25.155948,0
12:53:25.155948,9
12:53:25.155948,3072
12:53:25.155948,0
12:53:25.155948,19
12:53:25.155948,6144
12:53:25.155948,0
12:53:25.155948,41
12:53:25.155948,15872
12:53:25.155948,0
12:53:25.155948,72
12:53:25.155948,24064
12:53:25.155948,0
12:53:25.155948,115
12:53:25.155948,30208
12:53:25.155948,0
12:53:25.155948,120
12:53:25.155948,30720
12:53:25.155948,0
12:53:25.155948,110
12:53:25.155948,24576
12:53:25.155948,0
12:53:25.155948,69
12:53:25.155948,10496
12:53:25.155948,0
12:53:25.155948,19
12:53:25.155948,512
12:53:25.155948,0
12:53:25.155948,-9
12:53:25.155948,-3329
12:53:25.155948,-1
12:53:25.155948,-9
12:53:25.155948,-2817
12:53:25.155948,-1
12:53:25.155948,-16
12:53:25.155948,-5121
12:53:25.155948,-1
12:53:25.155948,-26
12:53:25.155948,-6401
12:53:25.155948,-1
12:53:25.155948,-16
12:53:25.155948,-3841
12:53:25.155948,-1
12:53:25.155948,-19
12:53:25.155948,-3329
12:53:25.155948,-1
12:53:25.155948,-2
12:53:25.155948,767
12:53:25.155948,0
12:53:25.155948,0
12:53:25.155948,2304
12:53:25.155948,0
12:53:25.155948,21
12:53:25.155948,4096
12:53:25.155948,0
12:53:25.155948,16
12:53:25.155948,3584
12:53:25.155948,0
12:53:25.155948,12
12:53:25.155948,4096
12:53:25.155948,0
12:53:25.155948,38
12:53:25.155948,18432
12:53:25.155948,0
12:53:25.155948,86
12:53:25.155948,18432
12:53:25.155948,0
12:53:25.155948,60
12:53:25.155948,14080
12:53:25.155948,0
12:53:25.155948,53
12:53:25.155948,11008
12:53:25.155948,0
12:53:25.155948,36
12:53:25.155948,11520
12:53:25.155948,0
12:53:25.155948,50
12:53:25.155948,10496
12:53:25.155948,0
12:53:25.155948,4
12:53:25.155948,30976
12:53:25.155948,-1
12:53:25.155948,-296
12:53:25.155948,-27905
12:53:25.155948,-1
12:53:25.155948,610
12:53:25.155948,23552
12:53:25.155948,5
12:53:25.155948,1271
12:53:25.755966,357
12:53:25.755966,14336
12:53:25.755966,-1
12:53:25.755966,-60
12:53:25.755966,13055
12:53:25.755966,0
12:53:25.755966,-45
12:53:25.755966,-15105
12:53:25.755966,-1
12:53:25.755966,-21
12:53:25.755966,-7681
12:53:25.755966,-1
12:53:25.755966,-36
12:53:25.755966,-4609
12:53:25.755966,-1
12:53:25.755966,-19
12:53:25.755966,-3841
12:53:25.755966,-1
12:53:25.755966,-9
12:53:25.755966,-257
12:53:25.755966,-1
12:53:25.755966,7
12:53:25.755966,3584
12:53:25.755966,0
12:53:25.755966,28
12:53:25.755966,9728
12:53:25.755966,0
12:53:25.755966,48
12:53:25.755966,15360
12:53:25.755966,0
12:53:25.755966,74
12:53:25.755966,24576
12:53:25.755966,0
12:53:25.755966,108
12:53:25.755966,27648
12:53:25.755966,0
12:53:25.755966,110
12:53:25.755966,27136
12:53:25.755966,0
12:53:25.755966,94
12:53:25.755966,18944
12:53:25.755966,0
12:53:25.755966,43
12:53:25.755966,4864
12:53:25.755966,0
12:53:25.755966,-2
12:53:25.755966,-3841
12:53:25.755966,-1
12:53:25.755966,-24
12:53:25.755966,-8193
12:53:25.755966,-1
12:53:25.755966,-36
12:53:25.755966,-8961
12:53:25.755966,-1
12:53:25.755966,-41
12:53:25.755966,-9473
12:53:25.755966,-1
12:53:25.755966,-43
12:53:25.755966,-12545
12:53:25.755966,-1
12:53:25.755966,-50
12:53:25.755966,-11265
12:53:25.755966,-1
12:53:25.755966,-45
12:53:25.755966,-11265
12:53:25.755966,-1
12:53:25.755966,-41
12:53:25.755966,-7681
12:53:25.755966,-1
12:53:25.755966,-28
12:53:25.755966,-6401
12:53:25.755966,-1
12:53:25.755966,-26
12:53:25.755966,-6401
12:53:25.755966,-1
12:53:25.755966,-21
12:53:25.755966,-4609
12:53:25.755966,-1
12:53:25.755966,-24
12:53:25.755966,-5889
12:53:25.755966,-1
12:53:25.755966,-19
12:53:25.755966,-2817
12:53:25.755966,-1
12:53:25.755966,0
12:53:25.755966,7168
12:53:25.755966,0
12:53:25.755966,45
12:53:25.755966,7168
12:53:25.755966,0
12:53:25.755966,16
12:53:25.755966,3584
12:53:25.755966,0
12:53:25.755966,4
12:53:25.755966,-512
12:53:25.755966,-1
12:53:25.755966,-9
12:53:25.755966,-1537
12:53:25.755966,-1
12:53:25.755966,0
12:53:25.755966,-512
12:53:25.755966,-1
12:53:25.755966,-36
12:53:25.755966,23807
12:53:25.755966,-1
12:53:25.755966,-325
12:53:25.755966,25855
12:53:25.755966,-1
12:53:25.755966,538
12:53:26.326456,1278
12:53:26.326456,-11520
12:53:26.326456,4
12:53:26.326456,383
12:53:26.326456,8192
12:53:26.326456,-1
12:53:26.326456,-152
12:53:26.326456,-9473
12:53:26.326456,-1
12:53:26.326456,-125
12:53:26.326456,28927
12:53:26.326456,-1
12:53:26.326456,-94
12:53:26.326456,-21249
12:53:26.326456,-1
12:53:26.326456,-86
12:53:26.326456,-19969
12:53:26.326456,-1
12:53:26.326456,-77
12:53:26.326456,-12545
12:53:26.326456,-1
12:53:26.326456,-28
12:53:26.326456,-10241
12:53:26.326456,-1
12:53:26.326456,-43
12:53:26.326456,-7681
12:53:26.326456,-1
12:53:26.326456,-26
12:53:26.326456,-5889
12:53:26.326456,-1
12:53:26.326456,-2
12:53:26.326456,5119
12:53:26.326456,0
12:53:26.326456,31
12:53:26.326456,12288
12:53:26.326456,0
12:53:26.326456,74
12:53:26.326456,18944
12:53:26.326456,0
12:53:26.326456,57
12:53:26.326456,23296
12:53:26.326456,0
12:53:26.326456,125
12:53:26.326456,18432
12:53:26.326456,0
12:53:26.326456,31
12:53:26.326456,7936
12:53:26.326456,0
12:53:26.326456,4
12:53:26.326456,-7936
12:53:26.326456,-1
12:53:26.326456,-28
12:53:26.326456,-3841
12:53:26.326456,-1
12:53:26.326456,-33
12:53:26.326456,-13825
12:53:26.326456,-1
12:53:26.326456,-14
12:53:26.326456,10751
12:53:26.326456,0
12:53:26.326456,16
12:53:26.326456,-3584
12:53:26.326456,-1
12:53:26.326456,4
12:53:26.326456,0
12:53:26.326456,0
12:53:26.326456,-28
12:53:26.326456,-6401
12:53:26.326456,-1
12:53:26.326456,2
12:53:26.326456,4864
12:53:26.326456,0
12:53:26.326456,31
12:53:26.326456,4864
12:53:26.326456,0
12:53:26.326456,4
12:53:26.326456,6144
12:53:26.326456,0
12:53:26.326456,38
12:53:26.326456,4096
12:53:26.326456,0
12:53:26.326456,26
12:53:26.326456,17664
12:53:26.326456,0
12:53:26.326456,89
12:53:26.326456,28160
12:53:26.326456,0
12:53:26.326456,130
12:53:26.326456,29440
12:53:26.326456,0
12:53:26.326456,91
12:53:26.326456,21504
12:53:26.326456,0
12:53:26.326456,82
12:53:26.326456,24576
12:53:26.326456,0
12:53:26.326456,106
12:53:26.326456,22784
12:53:26.326456,0
12:53:26.326456,86
12:53:26.326456,25856
12:53:26.326456,0
12:53:26.326456,72
12:53:26.326456,-20224
12:53:26.326456,-1
12:53:26.326456,-209
12:53:26.326456,13823
12:53:26.326456,0
12:53:26.326456,796
12:53:26.865769,1438
12:53:26.865769,-26880
12:53:26.865769,4
12:53:26.865769,263
12:53:26.865769,27392
12:53:26.865769,-1
12:53:26.865769,38
12:53:26.865769,24576
12:53:26.865769,0
12:53:26.865769,-2
12:53:26.865769,4351
12:53:26.865769,0
12:53:26.865769,57
12:53:26.865769,10496
12:53:26.865769,0
12:53:26.865769,53
12:53:26.865769,17664
12:53:26.865769,0
12:53:26.865769,62
12:53:26.865769,20224
12:53:26.865769,0
12:53:26.865769,94
12:53:26.865769,25088
12:53:26.865769,0
12:53:26.865769,101
12:53:26.865769,24576
12:53:26.865769,0
12:53:26.865769,103
12:53:26.865769,30720
12:53:26.865769,0
12:53:26.865769,132
12:53:26.865769,-29184
12:53:26.865769,0
12:53:26.865769,152
12:53:26.865769,-23552
12:53:26.865769,0
12:53:26.865769,173
12:53:26.865769,-19456
12:53:26.865769,0
12:53:26.865769,173
12:53:26.865769,-24832
12:53:26.865769,0
12:53:26.865769,144
12:53:26.865769,32000
12:53:26.865769,0
12:53:26.865769,91
12:53:26.865769,13568
12:53:26.865769,0
12:53:26.865769,43
12:53:26.865769,11008
12:53:26.865769,0
12:53:26.865769,24
12:53:26.865769,1792
12:53:26.865769,0
12:53:26.865769,9
12:53:26.865769,3584
12:53:26.865769,0
12:53:26.865769,14
12:53:26.865769,3072
12:53:26.865769,0
12:53:26.865769,19
12:53:26.865769,3072
12:53:26.865769,0
12:53:26.865769,2
12:53:26.865769,2304
12:53:26.865769,0
12:53:26.865769,12
12:53:26.865769,1792
12:53:26.865769,0
12:53:26.865769,16
12:53:26.865769,6144
12:53:26.865769,0
12:53:26.865769,24
12:53:26.865769,7936
12:53:26.865769,0
12:53:26.865769,31
12:53:26.865769,6656
12:53:26.865769,0
12:53:26.865769,26
12:53:26.865769,8448
12:53:26.865769,0
12:53:26.865769,28
12:53:26.865769,4864
12:53:26.865769,0
12:53:26.865769,14
12:53:26.865769,3584
12:53:26.865769,0
12:53:26.865769,26
12:53:26.865769,15360
12:53:26.865769,0
12:53:26.865769,82
12:53:26.865769,19712
12:53:26.865769,0
12:53:26.865769,60
12:53:26.865769,12800
12:53:26.865769,0
12:53:26.865769,50
12:53:26.865769,8448
12:53:26.865769,0
12:53:26.865769,19
12:53:26.865769,6656
12:53:26.865769,0
12:53:26.865769,26
12:53:26.865769,3584
12:53:26.865769,0
12:53:26.865769,4
12:53:26.865769,-13568
12:53:26.865769,-1
12:53:26.865769,-219
12:53:27.435960,-304
12:53:27.435960,19967
12:53:27.435960,0
12:53:27.435960,902
12:53:27.435960,-28928
12:53:27.435960,5
12:53:27.435960,924
12:53:27.435960,-3584
12:53:27.435960,-1
12:53:27.435960,-260
12:53:27.435960,-5121
12:53:27.435960,-1
12:53:27.435960,-21
12:53:27.435960,-29185
12:53:27.435960,-1
12:53:27.435960,-82
12:53:27.435960,-15105
12:53:27.435960,-1
12:53:27.435960,-77
12:53:27.435960,-16385
12:53:27.435960,-1
12:53:27.435960,-55
12:53:27.435960,-17409
12:53:27.435960,-1
12:53:27.435960,-77
12:53:27.435960,-15617
12:53:27.435960,-1
12:53:27.435960,-55
12:53:27.435960,-13825
12:53:27.435960,-1
12:53:27.435960,-48
12:53:27.435960,-9473
12:53:27.435960,-1
12:53:27.435960,-24
12:53:27.435960,-1537
12:53:27.435960,-1
12:53:27.435960,0
12:53:27.435960,4096
12:53:27.435960,0
12:53:27.435960,33
12:53:27.435960,10496
12:53:27.435960,0
12:53:27.435960,43
12:53:27.435960,10496
12:53:27.435960,0
12:53:27.435960,36
12:53:27.435960,6656
12:53:27.435960,0
12:53:27.435960,2
12:53:27.435960,-5376
12:53:27.435960,-1
12:53:27.435960,-53
12:53:27.435960,-19969
12:53:27.435960,-1
12:53:27.435960,-96
12:53:27.435960,-27905
12:53:27.435960,-1
12:53:27.435960,-110
12:53:27.435960,-29953
12:53:27.435960,-1
12:53:27.435960,-127
12:53:27.435960,31999
12:53:27.435960,-1
12:53:27.435960,-137
12:53:27.435960,30207
12:53:27.435960,-1
12:53:27.435960,-142
12:53:27.435960,29439
12:53:27.435960,-1
12:53:27.435960,-139
12:53:27.435960,30207
12:53:27.435960,-1
12:53:27.435960,-130
12:53:27.435960,-29953
12:53:27.435960,-1
12:53:27.435960,-118
12:53:27.435960,-31233
12:53:27.435960,-1
12:53:27.435960,-127
12:53:27.435960,-31745
12:53:27.435960,-1
12:53:27.435960,-115
12:53:27.435960,-24833
12:53:27.435960,-1
12:53:27.435960,-69
12:53:27.435960,-13313
12:53:27.435960,-1
12:53:27.435960,-65
12:53:27.435960,-19457
12:53:27.435960,-1
12:53:27.435960,-84
12:53:27.435960,-23809
12:53:27.435960,-1
12:53:27.435960,-108
12:53:27.435960,-30465
12:53:27.435960,-1
12:53:27.435960,-113
12:53:27.435960,-27905
12:53:27.435960,-1
12:53:27.435960,-115
12:53:27.435960,26367
12:53:27.435960,-1
12:53:27.435960,-296
12:53:27.435960,22015
12:53:27.435960,-2
12:53:27.435960,-185
12:53:27.435960,11007
12:53:27.435960,2
12:53:27.435960,1230
12:53:27.975938,1003
12:53:27.975938,21504
12:53:27.975938,0
12:53:27.975938,-376
12:53:27.975938,12799
12:53:27.975938,-1
12:53:27.975938,-130
12:53:27.975938,7935
12:53:27.975938,-1
12:53:27.975938,-226
12:53:27.975938,18943
12:53:27.975938,-1
12:53:27.975938,-178
12:53:27.975938,23807
12:53:27.975938,-1
12:53:27.975938,-154
12:53:27.975938,26879
12:53:27.975938,-1
12:53:27.975938,-139
12:53:27.975938,31999
12:53:27.975938,-1
12:53:27.975938,-123
12:53:27.975938,-29185
12:53:27.975938,-1
12:53:27.975938,-108
12:53:27.975938,-23041
12:53:27.975938,-1
12:53:27.975938,-82
12:53:27.975938,-18177
12:53:27.975938,-1
12:53:27.975938,-45
12:53:27.975938,-5121
12:53:27.975938,-1
12:53:27.975938,-7
12:53:27.975938,767
12:53:27.975938,0
12:53:27.975938,7
12:53:27.975938,2304
12:53:27.975938,0
12:53:27.975938,4
12:53:27.975938,-1792
12:53:27.975938,-1
12:53:27.975938,-26
12:53:27.975938,-15617
12:53:27.975938,-1
12:53:27.975938,-91
12:53:27.975938,-27393
12:53:27.975938,-1
12:53:27.975938,-118
12:53:27.975938,32511
12:53:27.975938,-1
12:53:27.975938,-132
12:53:27.975938,-31745
12:53:27.975938,-1
12:53:27.975938,-130
12:53:27.975938,28927
12:53:27.975938,-1
12:53:27.975938,-147
12:53:27.975938,26367
12:53:27.975938,-1
12:53:27.975938,-156
12:53:27.975938,27647
12:53:27.975938,-1
12:53:27.975938,-149
12:53:27.975938,26367
12:53:27.975938,-1
12:53:27.975938,-156
12:53:27.975938,26879
12:53:27.975938,-1
12:53:27.975938,-142
12:53:27.975938,30719
12:53:27.975938,-1
12:53:27.975938,-132
12:53:27.975938,32511
12:53:27.975938,-1
12:53:27.975938,-125
12:53:27.975938,-29185
12:53:27.975938,-1
12:53:27.975938,-120
12:53:27.975938,-32257
12:53:27.975938,-1
12:53:27.975938,-127
12:53:27.975938,31231
12:53:27.975938,-1
12:53:27.975938,-130
12:53:27.975938,-27393
12:53:27.975938,-1
12:53:27.975938,-86
12:53:27.975938,-20737
12:53:27.975938,-1
12:53:27.975938,-89
12:53:27.975938,-23041
12:53:27.975938,-1
12:53:27.975938,-94
12:53:27.975938,-24833
12:53:27.975938,-1
12:53:27.975938,-101
12:53:27.975938,-26113
12:53:27.975938,-1
12:53:27.975938,-96
12:53:27.975938,-24321
12:53:27.975938,-1
12:53:27.975938,-103
12:53:27.975938,31999
12:53:27.975938,-1
12:53:27.975938,-263
12:53:27.975938,25087
12:53:27.975938,-2
12:53:27.975938,-221
12:53:28.545942,489
12:53:28.545942,-14080
12:53:28.545942,4
12:53:28.545942,1129
12:53:28.545942,-4608
12:53:28.545942,0
12:53:28.545942,-335
12:53:28.545942,12799
12:53:28.545942,-1
12:53:28.545942,-72
12:53:28.545942,23295
12:53:28.545942,-1
12:53:28.545942,-195
12:53:28.545942,26367
12:53:28.545942,-1
12:53:28.545942,-159
12:53:28.545942,26367
12:53:28.545942,-1
12:53:28.545942,-130
12:53:28.545942,31999
12:53:28.545942,-1
12:53:28.545942,-132
12:53:28.545942,-29953
12:53:28.545942,-1
12:53:28.545942,-108
12:53:28.545942,-24833
12:53:28.545942,-1
12:53:28.545942,-86
12:53:28.545942,-17409
12:53:28.545942,-1
12:53:28.545942,-45
12:53:28.545942,-7681
12:53:28.545942,-1
12:53:28.545942,-24
12:53:28.545942,-2817
12:53:28.545942,-1
12:53:28.545942,2
12:53:28.545942,2304
12:53:28.545942,0
12:53:28.545942,9
12:53:28.545942,3072
12:53:28.545942,0
12:53:28.545942,9
12:53:28.545942,0
12:53:28.545942,0
12:53:28.545942,-7
12:53:28.545942,-8961
12:53:28.545942,-1
12:53:28.545942,-62
12:53:28.545942,-18177
12:53:28.545942,-1
12:53:28.545942,-84
12:53:28.545942,-24321
12:53:28.545942,-1
12:53:28.545942,-96
12:53:28.545942,-23809
12:53:28.545942,-1
12:53:28.545942,-101
12:53:28.545942,-27905
12:53:28.545942,-1
12:53:28.545942,-103
12:53:28.545942,-24833
12:53:28.545942,-1
12:53:28.545942,-108
12:53:28.545942,-27393
12:53:28.545942,-1
12:53:28.545942,-108
12:53:28.545942,-28673
12:53:28.545942,-1
12:53:28.545942,-108
12:53:28.545942,-23809
12:53:28.545942,-1
12:53:28.545942,-82
12:53:28.545942,-21761
12:53:28.545942,-1
12:53:28.545942,-89
12:53:28.545942,-19969
12:53:28.545942,-1
12:53:28.545942,-74
12:53:28.545942,-18689
12:53:28.545942,-1
12:53:28.545942,-74
12:53:28.545942,-16897
12:53:28.545942,-1
12:53:28.545942,-36
12:53:28.545942,-2817
12:53:28.545942,-1
12:53:28.545942,-16
12:53:28.545942,-7681
12:53:28.545942,-1
12:53:28.545942,-38
12:53:28.545942,-10241
12:53:28.545942,-1
12:53:28.545942,-50
12:53:28.545942,-13825
12:53:28.545942,-1
12:53:28.545942,-50
12:53:28.545942,-12545
12:53:28.545942,-1
12:53:28.545942,-48
12:53:28.545942,-13313
12:53:28.545942,-1
12:53:28.545942,-120
12:53:28.545942,-7681
12:53:28.545942,-2
12:53:28.545942,-352
12:53:28.545942,13823
12:53:28.545942,0
12:53:28.545942,880
12:53:29.145947,1370
12:53:29.145947,28160
12:53:29.145947,3
12:53:29.145947,-24
12:53:29.145947,-9985
12:53:29.145947,-2
12:53:29.145947,-96
12:53:29.145947,-21249
12:53:29.145947,-1
12:53:29.145947,-154
12:53:29.145947,-27905
12:53:29.145947,-1
12:53:29.145947,-86
12:53:29.145947,-24321
12:53:29.145947,-1
12:53:29.145947,-77
12:53:29.145947,-15617
12:53:29.145947,-1
12:53:29.145947,-65
12:53:29.145947,-15617
12:53:29.145947,-1
12:53:29.145947,-48
12:53:29.145947,-10241
12:53:29.145947,-1
12:53:29.145947,-33
12:53:29.145947,-3329
12:53:29.145947,-1
12:53:29.145947,-2
12:53:29.145947,2559
12:53:29.145947,0
12:53:29.145947,24
12:53:29.145947,9216
12:53:29.145947,0
12:53:29.145947,60
12:53:29.145947,17664
12:53:29.145947,0
12:53:29.145947,65
12:53:29.145947,18432
12:53:29.145947,0
12:53:29.145947,74
12:53:29.145947,17152
12:53:29.145947,0
12:53:29.145947,53
12:53:29.145947,6656
12:53:29.145947,0
12:53:29.145947,-2
12:53:29.145947,-6401
12:53:29.145947,-1
12:53:29.145947,-31
12:53:29.145947,-9473
12:53:29.145947,-1
12:53:29.145947,-57
12:53:29.145947,-15617
12:53:29.145947,-1
12:53:29.145947,-55
12:53:29.145947,-13313
12:53:29.145947,-1
12:53:29.145947,-57
12:53:29.145947,-16897
12:53:29.145947,-1
12:53:29.145947,-72
12:53:29.145947,-20737
12:53:29.145947,-1
12:53:29.145947,-74
12:53:29.145947,-13313
12:53:29.145947,-1
12:53:29.145947,-53
12:53:29.145947,-13825
12:53:29.145947,-1
12:53:29.145947,-38
12:53:29.145947,-8193
12:53:29.145947,-1
12:53:29.145947,-33
12:53:29.145947,-8193
12:53:29.145947,-1
12:53:29.145947,-33
12:53:29.145947,-6401
12:53:29.145947,-1
12:53:29.145947,-21
12:53:29.145947,-1537
12:53:29.145947,-1
12:53:29.145947,19
12:53:29.145947,9728
12:53:29.145947,0
12:53:29.145947,53
12:53:29.145947,12800
12:53:29.145947,0
12:53:29.145947,36
12:53:29.145947,5376
12:53:29.145947,0
12:53:29.145947,0
12:53:29.145947,-3584
12:53:29.145947,-1
12:53:29.145947,-2
12:53:29.145947,8191
12:53:29.145947,0
12:53:29.145947,36
12:53:29.145947,1024
12:53:29.145947,0
12:53:29.145947,-53
12:53:29.145947,11007
12:53:29.145947,-1
12:53:29.145947,-294
12:53:29.145947,27391
12:53:29.145947,0
12:53:29.145947,938
12:53:29.145947,-25088
12:53:29.145947,5
12:53:29.145947,919
12:53:29.685952,-4
12:53:29.685952,10239
12:53:29.685952,-1
12:53:29.685952,4
12:53:29.685952,-6656
12:53:29.685952,-1
12:53:29.685952,-82
12:53:29.685952,3839
12:53:29.685952,0
12:53:29.685952,24
12:53:29.685952,-10496
12:53:29.685952,-1
12:53:29.685952,-26
12:53:29.685952,3327
12:53:29.685952,0
12:53:29.685952,2
12:53:29.685952,-2304
12:53:29.685952,-1
12:53:29.685952,4
12:53:29.685952,9216
12:53:29.685952,0
12:53:29.685952,91
12:53:29.685952,30208
12:53:29.685952,0
12:53:29.685952,91
12:53:29.685952,23296
12:53:29.685952,0
12:53:29.685952,144
12:53:29.685952,-19968
12:53:29.685952,0
12:53:29.685952,178
12:53:29.685952,-16128
12:53:29.685952,0
12:53:29.685952,197
12:53:29.685952,-19456
12:53:29.685952,0
12:53:29.685952,180
12:53:29.685952,-16896
12:53:29.685952,0
12:53:29.685952,161
12:53:29.685952,32000
12:53:29.685952,0
12:53:29.685952,96
12:53:29.685952,18944
12:53:29.685952,0
12:53:29.685952,72
12:53:29.685952,18432
12:53:29.685952,0
12:53:29.685952,55
12:53:29.685952,11520
12:53:29.685952,0
12:53:29.685952,43
12:53:29.685952,7168
12:53:29.685952,0
12:53:29.685952,14
12:53:29.685952,8448
12:53:29.685952,0
12:53:29.685952,43
12:53:29.685952,4096
12:53:29.685952,0
12:53:29.685952,4
12:53:29.685952,3584
12:53:29.685952,0
12:53:29.685952,33
12:53:29.685952,9216
12:53:29.685952,0
12:53:29.685952,19
12:53:29.685952,6656
12:53:29.685952,0
12:53:29.685952,31
12:53:29.685952,4864
12:53:29.685952,0
12:53:29.685952,16
12:53:29.685952,5376
12:53:29.685952,0
12:53:29.685952,28
12:53:29.685952,12800
12:53:29.685952,0
12:53:29.685952,74
12:53:29.685952,18432
12:53:29.685952,0
12:53:29.685952,57
12:53:29.685952,14080
12:53:29.685952,0
12:53:29.685952,36
12:53:29.685952,1024
12:53:29.685952,0
12:53:29.685952,-4
12:53:29.685952,255
12:53:29.685952,0
12:53:29.685952,-2
12:53:29.685952,-1537
12:53:29.685952,-1
12:53:29.685952,-28
12:53:29.685952,-23809
12:53:29.685952,-1
12:53:29.685952,-250
12:53:29.685952,-13825
12:53:29.685952,-2
12:53:29.685952,103
12:53:29.685952,-26368
12:53:29.685952,3
12:53:29.685952,1387
12:53:29.685952,21248
12:53:29.685952,3
12:53:29.685952,-67
12:53:29.685952,-6401
12:53:29.685952,-2
12:53:29.685952,-55
12:53:30.225945,-57
12:53:30.225945,32511
12:53:30.225945,-1
12:53:30.225945,-98
12:53:30.225945,-23041
12:53:30.225945,-1
12:53:30.225945,-103
12:53:30.225945,-23809
12:53:30.225945,-1
12:53:30.225945,-86
12:53:30.225945,-23041
12:53:30.225945,-1
12:53:30.225945,-82
12:53:30.225945,-13313
12:53:30.225945,-1
12:53:30.225945,-36
12:53:30.225945,-8961
12:53:30.225945,-1
12:53:30.225945,-21
12:53:30.225945,255
12:53:30.225945,0
12:53:30.225945,9
12:53:30.225945,6144
12:53:30.225945,0
12:53:30.225945,57
12:53:30.225945,17664
12:53:30.225945,0
12:53:30.225945,60
12:53:30.225945,16640
12:53:30.225945,0
12:53:30.225945,74
12:53:30.225945,18432
12:53:30.225945,0
12:53:30.225945,57
12:53:30.225945,6656
12:53:30.225945,0
12:53:30.225945,7
12:53:30.225945,-3072
12:53:30.225945,-1
12:53:30.225945,-48
12:53:30.225945,-18177
12:53:30.225945,-1
12:53:30.225945,-86
12:53:30.225945,-22529
12:53:30.225945,-1
12:53:30.225945,-77
12:53:30.225945,-18689
12:53:30.225945,-1
12:53:30.225945,-86
12:53:30.225945,-24321
12:53:30.225945,-1
12:53:30.225945,-91
12:53:30.225945,-21761
12:53:30.225945,-1
12:53:30.225945,-98
12:53:30.225945,-26881
12:53:30.225945,-1
12:53:30.225945,-108
12:53:30.225945,-25601
12:53:30.225945,-1
12:53:30.225945,-86
12:53:30.225945,-22529
12:53:30.225945,-1
12:53:30.225945,-79
12:53:30.225945,-12545
12:53:30.225945,-1
12:53:30.225945,-57
12:53:30.225945,-18689
12:53:30.225945,-1
12:53:30.225945,-67
12:53:30.225945,-14337
12:53:30.225945,-1
12:53:30.225945,-57
12:53:30.225945,-12033
12:53:30.225945,-1
12:53:30.225945,-19
12:53:30.225945,-257
12:53:30.225945,-1
12:53:30.225945,-7
12:53:30.225945,-769
12:53:30.225945,-1
12:53:30.225945,-12
12:53:30.225945,-6401
12:53:30.225945,-1
12:53:30.225945,-31
12:53:30.225945,-8961
12:53:30.225945,-1
12:53:30.225945,-33
12:53:30.225945,-5889
12:53:30.225945,-1
12:53:30.225945,-26
12:53:30.225945,-10241
12:53:30.225945,-1
12:53:30.225945,-137
12:53:30.225945,-15105
12:53:30.225945,-2
12:53:30.225945,-270
12:53:30.225945,14335
12:53:30.225945,1
12:53:30.225945,1148
12:53:30.225945,16128
12:53:30.225945,5
12:53:30.225945,552
12:53:30.225945,7680
12:53:30.225945,-1
12:53:30.225945,-236
12:53:30.225945,-12545
12:53:30.225945,-1
12:53:30.225945,-113
12:53:30.825283,-154
12:53:30.825283,-29185
12:53:30.825283,-1
12:53:30.825283,-125
12:53:30.825283,30207
12:53:30.825283,-1
12:53:30.825283,-123
12:53:30.825283,-27905
12:53:30.825283,-1
12:53:30.825283,-89
12:53:30.825283,-17409
12:53:30.825283,-1
12:53:30.825283,-72
12:53:30.825283,-16897
12:53:30.825283,-1
12:53:30.825283,-53
12:53:30.825283,-10753
12:53:30.825283,-1
12:53:30.825283,-33
12:53:30.825283,-2817
12:53:30.825283,-1
12:53:30.825283,12
12:53:30.825283,7168
12:53:30.825283,0
12:53:30.825283,45
12:53:30.825283,15872
12:53:30.825283,0
12:53:30.825283,67
12:53:30.825283,17664
12:53:30.825283,0
12:53:30.825283,65
12:53:30.825283,14080
12:53:30.825283,0
12:53:30.825283,36
12:53:30.825283,512
12:53:30.825283,0
12:53:30.825283,-26
12:53:30.825283,-11265
12:53:30.825283,-1
12:53:30.825283,-62
12:53:30.825283,-16897
12:53:30.825283,-1
12:53:30.825283,-69
12:53:30.825283,-20737
12:53:30.825283,-1
12:53:30.825283,-82
12:53:30.825283,-19969
12:53:30.825283,-1
12:53:30.825283,-84
12:53:30.825283,-24833
12:53:30.825283,-1
12:53:30.825283,-101
12:53:30.825283,-23809
12:53:30.825283,-1
12:53:30.825283,-103
12:53:30.825283,-26881
12:53:30.825283,-1
12:53:30.825283,-98
12:53:30.825283,-23041
12:53:30.825283,-1
12:53:30.825283,-82
12:53:30.825283,-21249
12:53:30.825283,-1
12:53:30.825283,-79
12:53:30.825283,-15617
12:53:30.825283,-1
12:53:30.825283,-60
12:53:30.825283,-16897
12:53:30.825283,-1
12:53:30.825283,-77
12:53:30.825283,-19969
12:53:30.825283,-1
12:53:30.825283,-74
12:53:30.825283,-18689
12:53:30.825283,-1
12:53:30.825283,-65
12:53:30.825283,-8961
12:53:30.825283,-1
12:53:30.825283,-12
12:53:30.825283,767
12:53:30.825283,0
12:53:30.825283,-2
12:53:30.825283,-6913
12:53:30.825283,-1
12:53:30.825283,-38
12:53:30.825283,-8961
12:53:30.825283,-1
12:53:30.825283,-43
12:53:30.825283,-13313
12:53:30.825283,-1
12:53:30.825283,-50
12:53:30.825283,-12033
12:53:30.825283,-1
12:53:30.825283,-55
12:53:30.825283,-26881
12:53:30.825283,-1
12:53:30.825283,-272
12:53:30.825283,31999
12:53:30.825283,-2
12:53:30.825283,-50
12:53:30.825283,-1793
12:53:30.825283,2
12:53:30.825283,1363
12:53:30.825283,-7168
12:53:30.825283,3
12:53:30.825283,41
12:53:30.825283,-20736
12:53:30.825283,-2
12:53:30.825283,-137
12:53:31.335943,-91
12:53:31.335943,18431
12:53:31.335943,-1
12:53:31.335943,-173
12:53:31.335943,28927
12:53:31.335943,-1
12:53:31.335943,-152
12:53:31.335943,30719
12:53:31.335943,-1
12:53:31.335943,-115
12:53:31.335943,-29185
12:53:31.335943,-1
12:53:31.335943,-115
12:53:31.335943,-26881
12:53:31.335943,-1
12:53:31.335943,-96
12:53:31.335943,-18177
12:53:31.335943,-1
12:53:31.335943,-43
12:53:31.335943,-9473
12:53:31.335943,-1
12:53:31.335943,-31
12:53:31.335943,-3329
12:53:31.335943,-1
12:53:31.335943,2
12:53:31.335943,4096
12:53:31.335943,0
12:53:31.335943,31
12:53:31.335943,12288
12:53:31.335943,0
12:53:31.335943,55
12:53:31.335943,14592
12:53:31.335943,0
12:53:31.335943,57
12:53:31.335943,9728
12:53:31.335943,0
12:53:31.335943,14
12:53:31.335943,-3584
12:53:31.335943,-1
12:53:31.335943,-43
12:53:31.335943,-15617
12:53:31.335943,-1
12:53:31.335943,-72
12:53:31.335943,-18177
12:53:31.335943,-1
12:53:31.335943,-77
12:53:31.335943,-21249
12:53:31.335943,-1
12:53:31.335943,-84
12:53:31.335943,-23041
12:53:31.335943,-1
12:53:31.335943,-91
12:53:31.335943,-22529
12:53:31.335943,-1
12:53:31.335943,-101
12:53:31.335943,-26113
12:53:31.335943,-1
12:53:31.335943,-94
12:53:31.335943,-23041
12:53:31.335943,-1
12:53:31.335943,-89
12:53:31.335943,-21761
12:53:31.335943,-1
12:53:31.335943,-82
12:53:31.335943,-19457
12:53:31.335943,-1
12:53:31.335943,-74
12:53:31.335943,-16897
12:53:31.335943,-1
12:53:31.335943,-62
12:53:31.335943,-13313
12:53:31.335943,-1
12:53:31.335943,-45
12:53:31.335943,-13825
12:53:31.335943,-1
12:53:31.335943,-62
12:53:31.335943,-13825
12:53:31.335943,-1
12:53:31.335943,-53
12:53:31.335943,-8961
12:53:31.335943,-1
12:53:31.335943,-9
12:53:31.335943,767
12:53:31.335943,0
12:53:31.335943,2
12:53:31.335943,0
12:53:31.335943,0
12:53:31.335943,-2
12:53:31.335943,-3329
12:53:31.335943,-1
12:53:31.335943,-26
12:53:31.335943,-8961
12:53:31.335943,-1
12:53:31.335943,-38
12:53:31.335943,-8961
12:53:31.335943,-1
12:53:31.335943,-38
12:53:31.335943,-13825
12:53:31.335943,-1
12:53:31.335943,-144
12:53:31.335943,-17409
12:53:31.335943,-2
12:53:31.335943,-289
12:53:31.335943,10495
12:53:31.335943,1
12:53:31.335943,1158
12:53:31.335943,29952
12:53:31.335943,5
12:53:31.335943,608
12:53:31.905916,-221
12:53:31.905916,-1537
12:53:31.905916,-2
12:53:31.905916,-67
12:53:31.905916,-29185
12:53:31.905916,-1
12:53:31.905916,-161
12:53:31.905916,-27393
12:53:31.905916,-1
12:53:31.905916,-91
12:53:31.905916,-26881
12:53:31.905916,-1
12:53:31.905916,-91
12:53:31.905916,-21249
12:53:31.905916,-1
12:53:31.905916,-89
12:53:31.905916,-16385
12:53:31.905916,-1
12:53:31.905916,-50
12:53:31.905916,-13825
12:53:31.905916,-1
12:53:31.905916,-43
12:53:31.905916,-6401
12:53:31.905916,-1
12:53:31.905916,-16
12:53:31.905916,-769
12:53:31.905916,-1
12:53:31.905916,14
12:53:31.905916,8448
12:53:31.905916,0
12:53:31.905916,48
12:53:31.905916,17664
12:53:31.905916,0
12:53:31.905916,86
12:53:31.905916,22016
12:53:31.905916,0
12:53:31.905916,86
12:53:31.905916,20224
12:53:31.905916,0
12:53:31.905916,62
12:53:31.905916,9216
12:53:31.905916,0
12:53:31.905916,4
12:53:31.905916,-2304
12:53:31.905916,-1
12:53:31.905916,-24
12:53:31.905916,-12033
12:53:31.905916,-1
12:53:31.905916,-55
12:53:31.905916,-13313
12:53:31.905916,-1
12:53:31.905916,-55
12:53:31.905916,-16897
12:53:31.905916,-1
12:53:31.905916,-72
12:53:31.905916,-16385
12:53:31.905916,-1
12:53:31.905916,-65
12:53:31.905916,-15617
12:53:31.905916,-1
12:53:31.905916,-57
12:53:31.905916,-15105
12:53:31.905916,-1
12:53:31.905916,-50
12:53:31.905916,-10241
12:53:31.905916,-1
12:53:31.905916,-50
12:53:31.905916,-12033
12:53:31.905916,-1
12:53:31.905916,-38
12:53:31.905916,-9473
12:53:31.905916,-1
12:53:31.905916,-38
12:53:31.905916,-8961
12:53:31.905916,-1
12:53:31.905916,-33
12:53:31.905916,-9473
12:53:31.905916,-1
12:53:31.905916,-36
12:53:31.905916,-9473
12:53:31.905916,-1
12:53:31.905916,-41
12:53:31.905916,-2817
12:53:31.905916,-1
12:53:31.905916,28
12:53:31.905916,7168
12:53:31.905916,0
12:53:31.905916,4
12:53:31.905916,-512
12:53:31.905916,-1
12:53:31.905916,2
12:53:31.905916,-1024
12:53:31.905916,-1
12:53:31.905916,-21
12:53:31.905916,-3329
12:53:31.905916,-1
12:53:31.905916,-7
12:53:31.905916,-2049
12:53:31.905916,-1
12:53:31.905916,-21
12:53:31.905916,-31233
12:53:31.905916,-1
12:53:31.905916,-316
12:53:31.905916,-8705
12:53:31.905916,-2
12:53:31.905916,287
12:53:31.905916,-29952
12:53:31.905916,4
12:53:31.905916,1416
12:53:32.535979,639
12:53:32.535979,18176
12:53:32.535979,-1
12:53:32.535979,-226
12:53:32.535979,-8961
12:53:32.535979,-1
12:53:32.535979,-94
12:53:32.535979,30719
12:53:32.535979,-1
12:53:32.535979,-84
12:53:32.535979,-21249
12:53:32.535979,-1
12:53:32.535979,-91
12:53:32.535979,-15617
12:53:32.535979,-1
12:53:32.535979,-55
12:53:32.535979,-15105
12:53:32.535979,-1
12:53:32.535979,-50
12:53:32.535979,-10241
12:53:32.535979,-1
12:53:32.535979,-36
12:53:32.535979,-6913
12:53:32.535979,-1
12:53:32.535979,-14
12:53:32.535979,-1537
12:53:32.535979,-1
12:53:32.535979,7
12:53:32.535979,7168
12:53:32.535979,0
12:53:32.535979,41
12:53:32.535979,15872
12:53:32.535979,0
12:53:32.535979,86
12:53:32.535979,22016
12:53:32.535979,0
12:53:32.535979,86
12:53:32.535979,21504
12:53:32.535979,0
12:53:32.535979,74
12:53:32.535979,15360
12:53:32.535979,0
12:53:32.535979,24
12:53:32.535979,-1024
12:53:32.535979,-1
12:53:32.535979,-24
12:53:32.535979,-9473
12:53:32.535979,-1
12:53:32.535979,-48
12:53:32.535979,-14337
12:53:32.535979,-1
12:53:32.535979,-67
12:53:32.535979,-16385
12:53:32.535979,-1
12:53:32.535979,-69
12:53:32.535979,-19457
12:53:32.535979,-1
12:53:32.535979,-89
12:53:32.535979,-23809
12:53:32.535979,-1
12:53:32.535979,-86
12:53:32.535979,-21761
12:53:32.535979,-1
12:53:32.535979,-91
12:53:32.535979,-21761
12:53:32.535979,-1
12:53:32.535979,-69
12:53:32.535979,-13313
12:53:32.535979,-1
12:53:32.535979,-57
12:53:32.535979,-15617
12:53:32.535979,-1
12:53:32.535979,-57
12:53:32.535979,-12033
12:53:32.535979,-1
12:53:32.535979,-43
12:53:32.535979,-12545
12:53:32.535979,-1
12:53:32.535979,-55
12:53:32.535979,-13825
12:53:32.535979,-1
12:53:32.535979,-60
12:53:32.535979,-12545
12:53:32.535979,-1
12:53:32.535979,-36
12:53:32.535979,-3841
12:53:32.535979,-1
12:53:32.535979,7
12:53:32.535979,2304
12:53:32.535979,0
12:53:32.535979,-7
12:53:32.535979,-2049
12:53:32.535979,-1
12:53:32.535979,-2
12:53:32.535979,-2817
12:53:32.535979,-1
12:53:32.535979,-38
12:53:32.535979,-10241
12:53:32.535979,-1
12:53:32.535979,-24
12:53:32.535979,-5889
12:53:32.535979,-1
12:53:32.535979,-26
12:53:32.535979,-16897
12:53:32.535979,-1
12:53:32.535979,-231
12:53:32.535979,-29953
12:53:32.535979,-2
12:53:32.535979,-84
12:53:33.045913,721
12:53:33.045913,28672
12:53:33.045913,5
12:53:33.045913,1112
12:53:33.045913,-23552
12:53:33.045913,0
12:53:33.045913,-299
12:53:33.045913,-32257
12:53:33.045913,-1
12:53:33.045913,-55
12:53:33.045913,26367
12:53:33.045913,-1
12:53:33.045913,-139
12:53:33.045913,-26881
12:53:33.045913,-1
12:53:33.045913,-123
12:53:33.045913,-27905
12:53:33.045913,-1
12:53:33.045913,-91
12:53:33.045913,-24321
12:53:33.045913,-1
12:53:33.045913,-89
12:53:33.045913,-15105
12:53:33.045913,-1
12:53:33.045913,-36
12:53:33.045913,-10241
12:53:33.045913,-1
12:53:33.045913,-41
12:53:33.045913,-4609
12:53:33.045913,-1
12:53:33.045913,-7
12:53:33.045913,2047
12:53:33.045913,0
12:53:33.045913,21
12:53:33.045913,9216
12:53:33.045913,0
12:53:33.045913,62
12:53:33.045913,19712
12:53:33.045913,0
12:53:33.045913,82
12:53:33.045913,22784
12:53:33.045913,0
12:53:33.045913,84
12:53:33.045913,17152
12:53:33.045913,0
12:53:33.045913,43
12:53:33.045913,4096
12:53:33.045913,0
12:53:33.045913,-9
12:53:33.045913,-7681
12:53:33.045913,-1
12:53:33.045913,-36
12:53:33.045913,-12033
12:53:33.045913,-1
12:53:33.045913,-65
12:53:33.045913,-15105
12:53:33.045913,-1
12:53:33.045913,-57
12:53:33.045913,-15105
12:53:33.045913,-1
12:53:33.045913,-65
12:53:33.045913,-18689
12:53:33.045913,-1
12:53:33.045913,-79
12:53:33.045913,-16897
12:53:33.045913,-1
12:53:33.045913,-57
12:53:33.045913,-16385
12:53:33.045913,-1
12:53:33.045913,-72
12:53:33.045913,-16385
12:53:33.045913,-1
12:53:33.045913,-62
12:53:33.045913,-15617
12:53:33.045913,-1
12:53:33.045913,-45
12:53:33.045913,-10241
12:53:33.045913,-1
12:53:33.045913,-48
12:53:33.045913,-12545
12:53:33.045913,-1
12:53:33.045913,-48
12:53:33.045913,-10241
12:53:33.045913,-1
12:53:33.045913,-36
12:53:33.045913,-10753
12:53:33.045913,-1
12:53:33.045913,-50
12:53:33.045913,-11265
12:53:33.045913,-1
12:53:33.045913,-21
12:53:33.045913,255
12:53:33.045913,0
12:53:33.045913,14
12:53:33.045913,3584
12:53:33.045913,0
12:53:33.045913,-4
12:53:33.045913,-257
12:53:33.045913,-1
12:53:33.045913,7
12:53:33.045913,-4864
12:53:33.045913,-1
12:53:33.045913,-33
12:53:33.045913,-6401
12:53:33.045913,-1
12:53:33.045913,-33
12:53:33.045913,-10241
12:53:33.045913,-1
12:53:33.045913,-53
12:53:33.645632,-142
12:53:33.645632,-17409
12:53:33.645632,-2
12:53:33.645632,-308
12:53:33.645632,-3073
12:53:33.645632,0
12:53:33.645632,1080
12:53:33.645632,15616
12:53:33.645632,5
12:53:33.645632,622
12:53:33.645632,19456
12:53:33.645632,-1
12:53:33.645632,-229
12:53:33.645632,-5889
12:53:33.645632,-1
12:53:33.645632,-82
12:53:33.645632,28159
12:53:33.645632,-1
12:53:33.645632,-103
12:53:33.645632,-21761
12:53:33.645632,-1
12:53:33.645632,-108
12:53:33.645632,-24833
12:53:33.645632,-1
12:53:33.645632,-74
12:53:33.645632,-18689
12:53:33.645632,-1
12:53:33.645632,-79
12:53:33.645632,-18177
12:53:33.645632,-1
12:53:33.645632,-69
12:53:33.645632,-15105
12:53:33.645632,-1
12:53:33.645632,-48
12:53:33.645632,-10241
12:53:33.645632,-1
12:53:33.645632,-21
12:53:33.645632,255
12:53:33.645632,0
12:53:33.645632,16
12:53:33.645632,7936
12:53:33.645632,0
12:53:33.645632,45
12:53:33.645632,14592
12:53:33.645632,0
12:53:33.645632,62
12:53:33.645632,15872
12:53:33.645632,0
12:53:33.645632,55
12:53:33.645632,9216
12:53:33.645632,0
12:53:33.645632,14
12:53:33.645632,-3072
12:53:33.645632,-1
12:53:33.645632,-41
12:53:33.645632,-14337
12:53:33.645632,-1
12:53:33.645632,-72
12:53:33.645632,-20737
12:53:33.645632,-1
12:53:33.645632,-82
12:53:33.645632,-21249
12:53:33.645632,-1
12:53:33.645632,-77
12:53:33.645632,-18689
12:53:33.645632,-1
12:53:33.645632,-74
12:53:33.645632,-21249
12:53:33.645632,-1
12:53:33.645632,-96
12:53:33.645632,-21761
12:53:33.645632,-1
12:53:33.645632,-77
12:53:33.645632,-22529
12:53:33.645632,-1
12:53:33.645632,-89
12:53:33.645632,-19969
12:53:33.645632,-1
12:53:33.645632,-74
12:53:33.645632,-16897
12:53:33.645632,-1
12:53:33.645632,-57
12:53:33.645632,-11265
12:53:33.645632,-1
12:53:33.645632,-45
12:53:33.645632,-13825
12:53:33.645632,-1
12:53:33.645632,-45
12:53:33.645632,-8961
12:53:33.645632,-1
12:53:33.645632,-31
12:53:33.645632,-10241
12:53:33.645632,-1
12:53:33.645632,-50
12:53:33.645632,-11265
12:53:33.645632,-1
12:53:33.645632,-36
12:53:33.645632,-5121
12:53:33.645632,-1
12:53:33.645632,2
12:53:33.645632,4864
12:53:33.645632,0
12:53:33.645632,21
12:53:33.645632,2304
12:53:33.645632,0
12:53:33.645632,2
12:53:33.645632,1024
12:53:33.645632,0
12:53:33.645632,-2
12:53:34.155932,-14
12:53:34.155932,-4609
12:53:34.155932,-1
12:53:34.155932,-12
12:53:34.155932,255
12:53:34.155932,0
12:53:34.155932,-28
12:53:34.155932,23295
12:53:34.155932,-1
12:53:34.155932,-332
12:53:34.155932,19711
12:53:34.155932,-1
12:53:34.155932,521
12:53:34.155932,8192
12:53:34.155932,5
12:53:34.155932,1283
12:53:34.155932,-31744
12:53:34.155932,1
12:53:34.155932,-234
12:53:34.155932,-29953
12:53:34.155932,-1
12:53:34.155932,24
12:53:34.155932,-17664
12:53:34.155932,-1
12:53:34.155932,-86
12:53:34.155932,-12033
12:53:34.155932,-1
12:53:34.155932,-62
12:53:34.155932,-18177
12:53:34.155932,-1
12:53:34.155932,-57
12:53:34.155932,-12545
12:53:34.155932,-1
12:53:34.155932,-55
12:53:34.155932,-12545
12:53:34.155932,-1
12:53:34.155932,-31
12:53:34.155932,-5121
12:53:34.155932,-1
12:53:34.155932,-16
12:53:34.155932,-2049
12:53:34.155932,-1
12:53:34.155932,4
12:53:34.155932,6144
12:53:34.155932,0
12:53:34.155932,36
12:53:34.155932,13568
12:53:34.155932,0
12:53:34.155932,74
12:53:34.155932,22016
12:53:34.155932,0
12:53:34.155932,89
12:53:34.155932,22784
12:53:34.155932,0
12:53:34.155932,91
12:53:34.155932,24576
12:53:34.155932,0
12:53:34.155932,82
12:53:34.155932,14592
12:53:34.155932,0
12:53:34.155932,24
12:53:34.155932,-1024
12:53:34.155932,-1
12:53:34.155932,-16
12:53:34.155932,-7681
12:53:34.155932,-1
12:53:34.155932,-36
12:53:34.155932,-8193
12:53:34.155932,-1
12:53:34.155932,-43
12:53:34.155932,-12033
12:53:34.155932,-1
12:53:34.155932,-48
12:53:34.155932,-12545
12:53:34.155932,-1
12:53:34.155932,-57
12:53:34.155932,-13825
12:53:34.155932,-1
12:53:34.155932,-43
12:53:34.155932,-12033
12:53:34.155932,-1
12:53:34.155932,-48
12:53:34.155932,-6913
12:53:34.155932,-1
12:53:34.155932,-26
12:53:34.155932,-10241
12:53:34.155932,-1
12:53:34.155932,-28
12:53:34.155932,-4609
12:53:34.155932,-1
12:53:34.155932,-19
12:53:34.155932,-3329
12:53:34.155932,-1
12:53:34.155932,-9
12:53:34.155932,-3329
12:53:34.155932,-1
12:53:34.155932,-19
12:53:34.155932,-2817
12:53:34.155932,-1
12:53:34.155932,-12
12:53:34.155932,-5121
12:53:34.155932,-1
12:53:34.155932,-21
12:53:34.155932,-6401
12:53:34.155932,-1
12:53:34.155932,-33
12:53:34.155932,-3841
12:53:34.155932,-1
12:53:34.155932,21
12:53:34.695912,45
12:53:34.695912,10496
12:53:34.695912,0
12:53:34.695912,31
12:53:34.695912,8448
12:53:34.695912,0
12:53:34.695912,19
12:53:34.695912,-512
12:53:34.695912,-1
12:53:34.695912,0
12:53:34.695912,4864
12:53:34.695912,0
12:53:34.695912,31
12:53:34.695912,4864
12:53:34.695912,0
12:53:34.695912,4
12:53:34.695912,-22016
12:53:34.695912,-1
12:53:34.695912,-294
12:53:34.695912,-7681
12:53:34.695912,-2
12:53:34.695912,277
12:53:34.695912,27392
12:53:34.695912,4
12:53:34.695912,1406
12:53:34.695912,-24320
12:53:34.695912,2
12:53:34.695912,-144
12:53:34.695912,14079
12:53:34.695912,-1
12:53:34.695912,-19
12:53:34.695912,-19969
12:53:34.695912,-1
12:53:34.695912,-132
12:53:34.695912,-22529
12:53:34.695912,-1
12:53:34.695912,-84
12:53:34.695912,-26113
12:53:34.695912,-1
12:53:34.695912,-91
12:53:34.695912,-21761
12:53:34.695912,-1
12:53:34.695912,-86
12:53:34.695912,-18177
12:53:34.695912,-1
12:53:34.695912,-69
12:53:34.695912,-17409
12:53:34.695912,-1
12:53:34.695912,-60
12:53:34.695912,-13313
12:53:34.695912,-1
12:53:34.695912,-43
12:53:34.695912,-7681
12:53:34.695912,-1
12:53:34.695912,-16
12:53:34.695912,2047
12:53:34.695912,0
12:53:34.695912,24
12:53:34.695912,10496
12:53:34.695912,0
12:53:34.695912,53
12:53:34.695912,12800
12:53:34.695912,0
12:53:34.695912,41
12:53:34.695912,9216
12:53:34.695912,0
12:53:34.695912,28
12:53:34.695912,2304
12:53:34.695912,0
12:53:34.695912,-19
12:53:34.695912,-10753
12:53:34.695912,-1
12:53:34.695912,-69
12:53:34.695912,-19969
12:53:34.695912,-1
12:53:34.695912,-86
12:53:34.695912,-25601
12:53:34.695912,-1
12:53:34.695912,-94
12:53:34.695912,-22529
12:53:34.695912,-1
12:53:34.695912,-101
12:53:34.695912,-27393
12:53:34.695912,-1
12:53:34.695912,-108
12:53:34.695912,-27905
12:53:34.695912,-1
12:53:34.695912,-106
12:53:34.695912,-23809
12:53:34.695912,-1
12:53:34.695912,-86
12:53:34.695912,-23041
12:53:34.695912,-1
12:53:34.695912,-79
12:53:34.695912,-18177
12:53:34.695912,-1
12:53:34.695912,-82
12:53:34.695912,-18689
12:53:34.695912,-1
12:53:34.695912,-62
12:53:34.695912,-15617
12:53:34.695912,-1
12:53:34.695912,-53
12:53:34.695912,-13313
12:53:34.695912,-1
12:53:34.695912,-62
12:53:34.695912,-16385
12:53:34.695912,-1
12:53:34.695912,-74
12:53:35.266487,-86
12:53:35.266487,-21761
12:53:35.266487,-1
12:53:35.266487,-74
12:53:35.266487,-10241
12:53:35.266487,-1
12:53:35.266487,4
12:53:35.266487,6656
12:53:35.266487,0
12:53:35.266487,7
12:53:35.266487,-512
12:53:35.266487,-1
12:53:35.266487,4
12:53:35.266487,-1024
12:53:35.266487,-1
12:53:35.266487,-21
12:53:35.266487,-6401
12:53:35.266487,-1
12:53:35.266487,-24
12:53:35.266487,-5121
12:53:35.266487,-1
12:53:35.266487,-26
12:53:35.266487,-12033
12:53:35.266487,-1
12:53:35.266487,-154
12:53:35.266487,-21249
12:53:35.266487,-2
12:53:35.266487,-260
12:53:35.266487,29183
12:53:35.266487,1
12:53:35.266487,1191
12:53:35.266487,16896
12:53:35.266487,5
12:53:35.266487,542
12:53:35.266487,10752
12:53:35.266487,-1
12:53:35.266487,-214
12:53:35.266487,-12545
12:53:35.266487,-1
12:53:35.266487,-130
12:53:35.266487,20735
12:53:35.266487,-1
12:53:35.266487,-130
12:53:35.266487,31999
12:53:35.266487,-1
12:53:35.266487,-147
12:53:35.266487,-32257
12:53:35.266487,-1
12:53:35.266487,-123
12:53:35.266487,32511
12:53:35.266487,-1
12:53:35.266487,-118
12:53:35.266487,-27905
12:53:35.266487,-1
12:53:35.266487,-108
12:53:35.266487,-24321
12:53:35.266487,-1
12:53:35.266487,-89
12:53:35.266487,-18689
12:53:35.266487,-1
12:53:35.266487,-57
12:53:35.266487,-10241
12:53:35.266487,-1
12:53:35.266487,-19
12:53:35.266487,-1537
12:53:35.266487,-1
12:53:35.266487,-4
12:53:35.266487,3327
12:53:35.266487,0
12:53:35.266487,21
12:53:35.266487,4096
12:53:35.266487,0
12:53:35.266487,7
12:53:35.266487,512
12:53:35.266487,0
12:53:35.266487,-21
12:53:35.266487,-14337
12:53:35.266487,-1
12:53:35.266487,-74
12:53:35.266487,-21249
12:53:35.266487,-1
12:53:35.266487,-103
12:53:35.266487,-29185
12:53:35.266487,-1
12:53:35.266487,-120
12:53:35.266487,-28673
12:53:35.266487,-1
12:53:35.266487,-113
12:53:35.266487,-29953
12:53:35.266487,-1
12:53:35.266487,-110
12:53:35.266487,-28673
12:53:35.266487,-1
12:53:35.266487,-127
12:53:35.266487,-32257
12:53:35.266487,-1
12:53:35.266487,-120
12:53:35.266487,-29185
12:53:35.266487,-1
12:53:35.266487,-113
12:53:35.266487,-27905
12:53:35.266487,-1
12:53:35.266487,-103
12:53:35.266487,-24833
12:53:35.266487,-1
12:53:35.266487,-94
12:53:35.266487,-23809
12:53:35.266487,-1
12:53:35.266487,-94
