timestamp,ecg
13:28:19.674376,-92
13:28:19.674376,28159
13:28:19.674376,0
13:28:19.674376,613
13:28:19.674376,-26112
13:28:19.674376,4
13:28:19.674376,970
13:28:19.674376,20224
13:28:19.674376,-1
13:28:19.674376,-734
13:28:19.674376,767
13:28:19.674376,-1
13:28:19.674376,-104
13:28:19.674376,-17153
13:28:19.674376,-2
13:28:19.674376,-232
13:28:19.674376,29951
13:28:19.674376,-1
13:28:19.674376,-215
13:28:19.674376,13823
13:28:19.674376,-1
13:28:19.674376,-152
13:28:19.674376,23807
13:28:19.674376,-1
13:28:19.674376,-164
13:28:19.674376,29951
13:28:19.674376,-1
13:28:19.674376,-133
13:28:19.674376,-32513
13:28:19.674376,-1
13:28:19.674376,-113
13:28:19.674376,-25601
13:28:19.674376,-1
13:28:19.674376,-92
13:28:19.674376,-20225
13:28:19.674376,-1
13:28:19.674376,-65
13:28:19.674376,-12545
13:28:19.674376,-1
13:28:19.674376,-36
13:28:19.674376,-5121
13:28:19.674376,-1
13:28:19.674376,-7
13:28:19.674376,1279
13:28:19.674376,0
13:28:19.674376,9
13:28:19.674376,1792
13:28:19.674376,0
13:28:19.674376,2
13:28:19.674376,-2304
13:28:19.674376,-1
13:28:19.674376,-31
13:28:19.674376,-16385
13:28:19.674376,-1
13:28:19.674376,-106
13:28:19.674376,28159
13:28:19.674376,-1
13:28:19.674376,-174
13:28:19.674376,16895
13:28:19.674376,-1
13:28:19.674376,-203
13:28:19.674376,13055
13:28:19.674376,-1
13:28:19.674376,-203
13:28:19.674376,14335
13:28:19.674376,-1
13:28:19.674376,-196
13:28:19.674376,16895
13:28:19.674376,-1
13:28:19.674376,-186
13:28:19.674376,19455
13:28:19.674376,-1
13:28:19.674376,-177
13:28:19.674376,21247
13:28:19.674376,-1
13:28:19.674376,-172
13:28:19.674376,22527
13:28:19.674376,-1
13:28:19.674376,-164
13:28:19.674376,24319
13:28:19.674376,-1
13:28:19.674376,-160
13:28:19.674376,25599
13:28:19.674376,-1
13:28:19.674376,-157
13:28:19.674376,26111
13:28:19.674376,-1
13:28:19.674376,-152
13:28:19.674376,26879
13:28:19.674376,-1
13:28:19.674376,-152
13:28:19.674376,26879
13:28:19.674376,-1
13:28:19.674376,-150
13:28:19.674376,26879
13:28:19.674376,-1
13:28:19.674376,-152
13:28:19.674376,26879
13:28:19.674376,-1
13:28:19.674376,-152
13:28:19.674376,26879
13:28:19.674376,-1
13:28:19.674376,-150
13:28:19.674376,28159
13:28:19.674376,-1
13:28:19.674376,-147
13:28:19.674376,28159
13:28:19.674376,-1
13:28:19.674376,-147
13:28:20.259049,-150
13:28:20.259049,26111
13:28:20.259049,-1
13:28:20.259049,-157
13:28:20.259049,26111
13:28:20.259049,-1
13:28:20.259049,-152
13:28:20.259049,29951
13:28:20.259049,-1
13:28:20.259049,-123
13:28:20.259049,-28673
13:28:20.259049,-1
13:28:20.259049,-118
13:28:20.259049,-31233
13:28:20.259049,-1
13:28:20.259049,-123
13:28:20.259049,-32513
13:28:20.259049,-1
13:28:20.259049,-133
13:28:20.259049,-32001
13:28:20.259049,-1
13:28:20.259049,-118
13:28:20.259049,-29953
13:28:20.259049,-1
13:28:20.259049,-113
13:28:20.259049,-9473
13:28:20.259049,-1
13:28:20.259049,271
13:28:20.259049,19200
13:28:20.259049,3
13:28:20.259049,1200
13:28:20.259049,10240
13:28:20.259049,2
13:28:20.259049,-545
13:28:20.259049,-19969
13:28:20.259049,-3
13:28:20.259049,-101
13:28:20.259049,16895
13:28:20.259049,-1
13:28:20.259049,-312
13:28:20.259049,24319
13:28:20.259049,-1
13:28:20.259049,-155
13:28:20.259049,9983
13:28:20.259049,-1
13:28:20.259049,-172
13:28:20.259049,28159
13:28:20.259049,-1
13:28:20.259049,-164
13:28:20.259049,27391
13:28:20.259049,-1
13:28:20.259049,-128
13:28:20.259049,-32001
13:28:20.259049,-1
13:28:20.259049,-116
13:28:20.259049,-25601
13:28:20.259049,-1
13:28:20.259049,-92
13:28:20.259049,-20225
13:28:20.259049,-1
13:28:20.259049,-67
13:28:20.259049,-13313
13:28:20.259049,-1
13:28:20.259049,-41
13:28:20.259049,-5889
13:28:20.259049,-1
13:28:20.259049,-7
13:28:20.259049,767
13:28:20.259049,0
13:28:20.259049,9
13:28:20.259049,2304
13:28:20.259049,0
13:28:20.259049,7
13:28:20.259049,-512
13:28:20.259049,-1
13:28:20.259049,-14
13:28:20.259049,-10241
13:28:20.259049,-1
13:28:20.259049,-82
13:28:20.259049,-32001
13:28:20.259049,-1
13:28:20.259049,-157
13:28:20.259049,19455
13:28:20.259049,-1
13:28:20.259049,-196
13:28:20.259049,14335
13:28:20.259049,-1
13:28:20.259049,-203
13:28:20.259049,14335
13:28:20.259049,-1
13:28:20.259049,-196
13:28:20.259049,16127
13:28:20.259049,-1
13:28:20.259049,-186
13:28:20.259049,19455
13:28:20.259049,-1
13:28:20.259049,-177
13:28:20.259049,21247
13:28:20.259049,-1
13:28:20.259049,-172
13:28:20.259049,23039
13:28:20.259049,-1
13:28:20.259049,-160
13:28:20.259049,25599
13:28:20.259049,-1
13:28:20.259049,-157
13:28:20.259049,24831
13:28:20.259049,-1
13:28:20.259049,-157
13:28:20.796497,-155
13:28:20.796497,26879
13:28:20.796497,-1
13:28:20.796497,-152
13:28:20.796497,26879
13:28:20.796497,-1
13:28:20.796497,-150
13:28:20.796497,27391
13:28:20.796497,-1
13:28:20.796497,-150
13:28:20.796497,27391
13:28:20.796497,-1
13:28:20.796497,-147
13:28:20.796497,28159
13:28:20.796497,-1
13:28:20.796497,-150
13:28:20.796497,28159
13:28:20.796497,-1
13:28:20.796497,-140
13:28:20.796497,31743
13:28:20.796497,-1
13:28:20.796497,-133
13:28:20.796497,31231
13:28:20.796497,-1
13:28:20.796497,-135
13:28:20.796497,30463
13:28:20.796497,-1
13:28:20.796497,-143
13:28:20.796497,28671
13:28:20.796497,-1
13:28:20.796497,-143
13:28:20.796497,30463
13:28:20.796497,-1
13:28:20.796497,-123
13:28:20.796497,-26369
13:28:20.796497,-1
13:28:20.796497,-101
13:28:20.796497,-27649
13:28:20.796497,-1
13:28:20.796497,-116
13:28:20.796497,-31233
13:28:20.796497,-1
13:28:20.796497,-133
13:28:20.796497,31743
13:28:20.796497,-1
13:28:20.796497,-123
13:28:20.796497,-29441
13:28:20.796497,-1
13:28:20.796497,-118
13:28:20.796497,-25601
13:28:20.796497,-1
13:28:20.796497,26
13:28:20.796497,-23808
13:28:20.796497,1
13:28:20.796497,999
13:28:20.796497,20224
13:28:20.796497,4
13:28:20.796497,164
13:28:20.796497,14848
13:28:20.796497,-3
13:28:20.796497,-426
13:28:20.796497,-16385
13:28:20.796497,-1
13:28:20.796497,-254
13:28:20.796497,-3073
13:28:20.796497,-2
13:28:20.796497,-133
13:28:20.796497,19967
13:28:20.796497,-1
13:28:20.796497,-208
13:28:20.796497,26879
13:28:20.796497,-1
13:28:20.796497,-147
13:28:20.796497,24831
13:28:20.796497,-1
13:28:20.796497,-140
13:28:20.796497,-32001
13:28:20.796497,-1
13:28:20.796497,-123
13:28:20.796497,-27649
13:28:20.796497,-1
13:28:20.796497,-94
13:28:20.796497,-20737
13:28:20.796497,-1
13:28:20.796497,-72
13:28:20.796497,-15873
13:28:20.796497,-1
13:28:20.796497,-50
13:28:20.796497,-7681
13:28:20.796497,-1
13:28:20.796497,-16
13:28:20.796497,-2049
13:28:20.796497,-1
13:28:20.796497,-9
13:28:20.796497,-257
13:28:20.796497,-1
13:28:20.796497,0
13:28:20.796497,-512
13:28:20.796497,-1
13:28:20.796497,-9
13:28:20.796497,-5889
13:28:20.796497,-1
13:28:20.796497,-53
13:28:20.796497,-23809
13:28:20.796497,-1
13:28:20.796497,-133
13:28:20.796497,24319
13:28:20.796497,-1
13:28:20.796497,-181
13:28:21.334253,-198
13:28:21.334253,12543
13:28:21.334253,-1
13:28:21.334253,-201
13:28:21.334253,15615
13:28:21.334253,-1
13:28:21.334253,-196
13:28:21.334253,16127
13:28:21.334253,-1
13:28:21.334253,-184
13:28:21.334253,19967
13:28:21.334253,-1
13:28:21.334253,-174
13:28:21.334253,24319
13:28:21.334253,-1
13:28:21.334253,-155
13:28:21.334253,27391
13:28:21.334253,-1
13:28:21.334253,-145
13:28:21.334253,29951
13:28:21.334253,-1
13:28:21.334253,-140
13:28:21.334253,30463
13:28:21.334253,-1
13:28:21.334253,-138
13:28:21.334253,29951
13:28:21.334253,-1
13:28:21.334253,-135
13:28:21.334253,31743
13:28:21.334253,-1
13:28:21.334253,-138
13:28:21.334253,29951
13:28:21.334253,-1
13:28:21.334253,-135
13:28:21.334253,31743
13:28:21.334253,-1
13:28:21.334253,-135
13:28:21.334253,31743
13:28:21.334253,-1
13:28:21.334253,-130
13:28:21.334253,31743
13:28:21.334253,-1
13:28:21.334253,-128
13:28:21.334253,-32001
13:28:21.334253,-1
13:28:21.334253,-130
13:28:21.334253,32511
13:28:21.334253,-1
13:28:21.334253,-126
13:28:21.334253,32511
13:28:21.334253,-1
13:28:21.334253,-140
13:28:21.334253,30463
13:28:21.334253,-1
13:28:21.334253,-123
13:28:21.334253,-26881
13:28:21.334253,-1
13:28:21.334253,-97
13:28:21.334253,-25089
13:28:21.334253,-1
13:28:21.334253,-106
13:28:21.334253,-27649
13:28:21.334253,-1
13:28:21.334253,-111
13:28:21.334253,-30721
13:28:21.334253,-1
13:28:21.334253,-118
13:28:21.334253,-26369
13:28:21.334253,-1
13:28:21.334253,-97
13:28:21.334253,-26369
13:28:21.334253,-1
13:28:21.334253,-87
13:28:21.334253,17407
13:28:21.334253,0
13:28:21.334253,494
13:28:21.334253,-2048
13:28:21.334253,3
13:28:21.334253,897
13:28:21.334253,19712
13:28:21.334253,-1
13:28:21.334253,-858
13:28:21.334253,-30977
13:28:21.334253,-2
13:28:21.334253,-41
13:28:21.334253,5119
13:28:21.334253,-1
13:28:21.334253,-206
13:28:21.334253,-20225
13:28:21.334253,-1
13:28:21.334253,-143
13:28:21.334253,24831
13:28:21.334253,-1
13:28:21.334253,-104
13:28:21.334253,-26369
13:28:21.334253,-1
13:28:21.334253,-109
13:28:21.334253,-20737
13:28:21.334253,-1
13:28:21.334253,-75
13:28:21.334253,-18945
13:28:21.334253,-1
13:28:21.334253,-63
13:28:21.334253,-11521
13:28:21.334253,-1
13:28:21.334253,-33
13:28:21.334253,-5889
13:28:21.334253,-1
13:28:21.334253,-9
13:28:21.876183,7
13:28:21.876183,4864
13:28:21.876183,0
13:28:21.876183,36
13:28:21.876183,12800
13:28:21.876183,0
13:28:21.876183,63
13:28:21.876183,18432
13:28:21.876183,0
13:28:21.876183,75
13:28:21.876183,18432
13:28:21.876183,0
13:28:21.876183,65
13:28:21.876183,8448
13:28:21.876183,0
13:28:21.876183,-9
13:28:21.876183,-13313
13:28:21.876183,-1
13:28:21.876183,-101
13:28:21.876183,31743
13:28:21.876183,-1
13:28:21.876183,-150
13:28:21.876183,23807
13:28:21.876183,-1
13:28:21.876183,-179
13:28:21.876183,21247
13:28:21.876183,-1
13:28:21.876183,-167
13:28:21.876183,22527
13:28:21.876183,-1
13:28:21.876183,-164
13:28:21.876183,26111
13:28:21.876183,-1
13:28:21.876183,-152
13:28:21.876183,28159
13:28:21.876183,-1
13:28:21.876183,-138
13:28:21.876183,32511
13:28:21.876183,-1
13:28:21.876183,-133
13:28:21.876183,32511
13:28:21.876183,-1
13:28:21.876183,-121
13:28:21.876183,-29441
13:28:21.876183,-1
13:28:21.876183,-121
13:28:21.876183,-32001
13:28:21.876183,-1
13:28:21.876183,-121
13:28:21.876183,-30721
13:28:21.876183,-1
13:28:21.876183,-126
13:28:21.876183,-32001
13:28:21.876183,-1
13:28:21.876183,-126
13:28:21.876183,-32513
13:28:21.876183,-1
13:28:21.876183,-126
13:28:21.876183,-32001
13:28:21.876183,-1
13:28:21.876183,-128
13:28:21.876183,32511
13:28:21.876183,-1
13:28:21.876183,-130
13:28:21.876183,31231
13:28:21.876183,-1
13:28:21.876183,-140
13:28:21.876183,31231
13:28:21.876183,-1
13:28:21.876183,-128
13:28:21.876183,-30721
13:28:21.876183,-1
13:28:21.876183,-106
13:28:21.876183,-25089
13:28:21.876183,-1
13:28:21.876183,-109
13:28:21.876183,-29953
13:28:21.876183,-1
13:28:21.876183,-121
13:28:21.876183,32511
13:28:21.876183,-1
13:28:21.876183,-130
13:28:21.876183,-29953
13:28:21.876183,-1
13:28:21.876183,-113
13:28:21.876183,-28673
13:28:21.876183,-1
13:28:21.876183,-101
13:28:21.876183,3327
13:28:21.876183,0
13:28:21.876183,392
13:28:21.876183,-17664
13:28:21.876183,3
13:28:21.876183,1025
13:28:21.876183,8448
13:28:21.876183,0
13:28:21.876183,-916
13:28:21.876183,-16897
13:28:21.876183,-3
13:28:21.876183,-53
13:28:21.876183,13823
13:28:21.876183,-1
13:28:21.876183,-254
13:28:21.876183,-25089
13:28:21.876183,-1
13:28:21.876183,-135
13:28:21.876183,19967
13:28:21.876183,-1
13:28:21.876183,-121
13:28:22.463775,-109
13:28:22.463775,-32513
13:28:22.463775,-1
13:28:22.463775,-109
13:28:22.463775,-22529
13:28:22.463775,-1
13:28:22.463775,-82
13:28:22.463775,-16897
13:28:22.463775,-1
13:28:22.463775,-48
13:28:22.463775,-10241
13:28:22.463775,-1
13:28:22.463775,-31
13:28:22.463775,-3329
13:28:22.463775,-1
13:28:22.463775,2
13:28:22.463775,4864
13:28:22.463775,0
13:28:22.463775,41
13:28:22.463775,14080
13:28:22.463775,0
13:28:22.463775,65
13:28:22.463775,17920
13:28:22.463775,0
13:28:22.463775,70
13:28:22.463775,16128
13:28:22.463775,0
13:28:22.463775,43
13:28:22.463775,4096
13:28:22.463775,0
13:28:22.463775,-31
13:28:22.463775,-22529
13:28:22.463775,-1
13:28:22.463775,-133
13:28:22.463775,23807
13:28:22.463775,-1
13:28:22.463775,-191
13:28:22.463775,13055
13:28:22.463775,-1
13:28:22.463775,-208
13:28:22.463775,12543
13:28:22.463775,-1
13:28:22.463775,-208
13:28:22.463775,12543
13:28:22.463775,-1
13:28:22.463775,-198
13:28:22.463775,16127
13:28:22.463775,-1
13:28:22.463775,-189
13:28:22.463775,18687
13:28:22.463775,-1
13:28:22.463775,-177
13:28:22.463775,22527
13:28:22.463775,-1
13:28:22.463775,-164
13:28:22.463775,24319
13:28:22.463775,-1
13:28:22.463775,-162
13:28:22.463775,26111
13:28:22.463775,-1
13:28:22.463775,-150
13:28:22.463775,29183
13:28:22.463775,-1
13:28:22.463775,-147
13:28:22.463775,26879
13:28:22.463775,-1
13:28:22.463775,-150
13:28:22.463775,28159
13:28:22.463775,-1
13:28:22.463775,-150
13:28:22.463775,26111
13:28:22.463775,-1
13:28:22.463775,-155
13:28:22.463775,25599
13:28:22.463775,-1
13:28:22.463775,-160
13:28:22.463775,24319
13:28:22.463775,-1
13:28:22.463775,-164
13:28:22.463775,23039
13:28:22.463775,-1
13:28:22.463775,-162
13:28:22.463775,27391
13:28:22.463775,-1
13:28:22.463775,-135
13:28:22.463775,-32001
13:28:22.463775,-1
13:28:22.463775,-130
13:28:22.463775,29183
13:28:22.463775,-1
13:28:22.463775,-150
13:28:22.463775,26111
13:28:22.463775,-1
13:28:22.463775,-152
13:28:22.463775,29183
13:28:22.463775,-1
13:28:22.463775,-135
13:28:22.463775,31743
13:28:22.463775,-1
13:28:22.463775,-130
13:28:22.463775,-12033
13:28:22.463775,-1
13:28:22.463775,291
13:28:22.463775,31232
13:28:22.463775,3
13:28:22.463775,1181
13:28:22.463775,-32512
13:28:22.463775,1
13:28:22.463775,-727
13:28:23.046621,-635
13:28:23.046621,-22529
13:28:23.046621,-1
13:28:23.046621,-203
13:28:23.046621,-14849
13:28:23.046621,-2
13:28:23.046621,-152
13:28:23.046621,24831
13:28:23.046621,-1
13:28:23.046621,-220
13:28:23.046621,23039
13:28:23.046621,-1
13:28:23.046621,-135
13:28:23.046621,26879
13:28:23.046621,-1
13:28:23.046621,-140
13:28:23.046621,-29953
13:28:23.046621,-1
13:28:23.046621,-113
13:28:23.046621,-27649
13:28:23.046621,-1
13:28:23.046621,-92
13:28:23.046621,-19457
13:28:23.046621,-1
13:28:23.046621,-65
13:28:23.046621,-13313
13:28:23.046621,-1
13:28:23.046621,-41
13:28:23.046621,-5121
13:28:23.046621,-1
13:28:23.046621,-2
13:28:23.046621,3327
13:28:23.046621,0
13:28:23.046621,24
13:28:23.046621,8448
13:28:23.046621,0
13:28:23.046621,33
13:28:23.046621,6656
13:28:23.046621,0
13:28:23.046621,14
13:28:23.046621,-2304
13:28:23.046621,-1
13:28:23.046621,-48
13:28:23.046621,-25089
13:28:23.046621,-1
13:28:23.046621,-140
13:28:23.046621,21759
13:28:23.046621,-1
13:28:23.046621,-196
13:28:23.046621,12543
13:28:23.046621,-1
13:28:23.046621,-208
13:28:23.046621,12543
13:28:23.046621,-1
13:28:23.046621,-208
13:28:23.046621,13823
13:28:23.046621,-1
13:28:23.046621,-198
13:28:23.046621,16127
13:28:23.046621,-1
13:28:23.046621,-189
13:28:23.046621,18687
13:28:23.046621,-1
13:28:23.046621,-177
13:28:23.046621,21247
13:28:23.046621,-1
13:28:23.046621,-169
13:28:23.046621,24319
13:28:23.046621,-1
13:28:23.046621,-160
13:28:23.046621,25599
13:28:23.046621,-1
13:28:23.046621,-157
13:28:23.046621,26111
13:28:23.046621,-1
13:28:23.046621,-152
13:28:23.046621,26879
13:28:23.046621,-1
13:28:23.046621,-152
13:28:23.046621,26879
13:28:23.046621,-1
13:28:23.046621,-152
13:28:23.046621,27391
13:28:23.046621,-1
13:28:23.046621,-150
13:28:23.046621,27391
13:28:23.046621,-1
13:28:23.046621,-155
13:28:23.046621,24319
13:28:23.046621,-1
13:28:23.046621,-164
13:28:23.046621,23807
13:28:23.046621,-1
13:28:23.046621,-155
13:28:23.046621,31743
13:28:23.046621,-1
13:28:23.046621,-118
13:28:23.046621,-30721
13:28:23.046621,-1
13:28:23.046621,-130
13:28:23.046621,31743
13:28:23.046621,-1
13:28:23.046621,-138
13:28:23.046621,28671
13:28:23.046621,-1
13:28:23.046621,-140
13:28:23.046621,31743
13:28:23.046621,-1
13:28:23.046621,-130
13:28:23.588294,-130
13:28:23.588294,-28161
13:28:23.588294,-1
13:28:23.588294,48
13:28:23.588294,512
13:28:23.588294,2
13:28:23.588294,1147
13:28:23.588294,-32256
13:28:23.588294,4
13:28:23.588294,50
13:28:23.588294,-1280
13:28:23.588294,-4
13:28:23.588294,-375
13:28:23.588294,-18177
13:28:23.588294,-1
13:28:23.588294,-305
13:28:23.588294,-2305
13:28:23.588294,-2
13:28:23.588294,-128
13:28:23.588294,15103
13:28:23.588294,-1
13:28:23.588294,-215
13:28:23.588294,26879
13:28:23.588294,-1
13:28:23.588294,-155
13:28:23.588294,24319
13:28:23.588294,-1
13:28:23.588294,-135
13:28:23.588294,-31233
13:28:23.588294,-1
13:28:23.588294,-121
13:28:23.588294,-27649
13:28:23.588294,-1
13:28:23.588294,-97
13:28:23.588294,-22017
13:28:23.588294,-1
13:28:23.588294,-72
13:28:23.588294,-13313
13:28:23.588294,-1
13:28:23.588294,-38
13:28:23.588294,-5121
13:28:23.588294,-1
13:28:23.588294,-4
13:28:23.588294,3327
13:28:23.588294,0
13:28:23.588294,21
13:28:23.588294,6656
13:28:23.588294,0
13:28:23.588294,24
13:28:23.588294,4864
13:28:23.588294,0
13:28:23.588294,4
13:28:23.588294,-6144
13:28:23.588294,-1
13:28:23.588294,-65
13:28:23.588294,-28673
13:28:23.588294,-1
13:28:23.588294,-155
13:28:23.588294,19455
13:28:23.588294,-1
13:28:23.588294,-196
13:28:23.588294,13055
13:28:23.588294,-1
13:28:23.588294,-208
13:28:23.588294,13823
13:28:23.588294,-1
13:28:23.588294,-196
13:28:23.588294,16127
13:28:23.588294,-1
13:28:23.588294,-191
13:28:23.588294,18175
13:28:23.588294,-1
13:28:23.588294,-181
13:28:23.588294,21247
13:28:23.588294,-1
13:28:23.588294,-167
13:28:23.588294,24319
13:28:23.588294,-1
13:28:23.588294,-160
13:28:23.588294,24831
13:28:23.588294,-1
13:28:23.588294,-157
13:28:23.588294,26879
13:28:23.588294,-1
13:28:23.588294,-147
13:28:23.588294,28159
13:28:23.588294,-1
13:28:23.588294,-147
13:28:23.588294,28671
13:28:23.588294,-1
13:28:23.588294,-145
13:28:23.588294,29183
13:28:23.588294,-1
13:28:23.588294,-143
13:28:23.588294,29183
13:28:23.588294,-1
13:28:23.588294,-143
13:28:23.588294,29183
13:28:23.588294,-1
13:28:23.588294,-143
13:28:23.588294,28671
13:28:23.588294,-1
13:28:23.588294,-145
13:28:23.588294,28671
13:28:23.588294,-1
13:28:23.588294,-147
13:28:23.588294,26111
13:28:23.588294,-1
13:28:23.588294,-157
13:28:24.173421,-152
13:28:24.173421,29183
13:28:24.173421,-1
13:28:24.173421,-121
13:28:24.173421,-28161
13:28:24.173421,-1
13:28:24.173421,-116
13:28:24.173421,-32001
13:28:24.173421,-1
13:28:24.173421,-130
13:28:24.173421,31743
13:28:24.173421,-1
13:28:24.173421,-130
13:28:24.173421,-30721
13:28:24.173421,-1
13:28:24.173421,-116
13:28:24.173421,-30721
13:28:24.173421,-1
13:28:24.173421,-113
13:28:24.173421,-16385
13:28:24.173421,-1
13:28:24.173421,181
13:28:24.173421,-10496
13:28:24.173421,2
13:28:24.173421,1251
13:28:24.173421,27392
13:28:24.173421,3
13:28:24.173421,-322
13:28:24.173421,15103
13:28:24.173421,-3
13:28:24.173421,-186
13:28:24.173421,-32513
13:28:24.173421,-1
13:28:24.173421,-329
13:28:24.173421,13055
13:28:24.173421,-1
13:28:24.173421,-143
13:28:24.173421,9471
13:28:24.173421,-1
13:28:24.173421,-194
13:28:24.173421,28159
13:28:24.173421,-1
13:28:24.173421,-167
13:28:24.173421,24831
13:28:24.173421,-1
13:28:24.173421,-135
13:28:24.173421,-32001
13:28:24.173421,-1
13:28:24.173421,-118
13:28:24.173421,-25601
13:28:24.173421,-1
13:28:24.173421,-92
13:28:24.173421,-21249
13:28:24.173421,-1
13:28:24.173421,-67
13:28:24.173421,-12545
13:28:24.173421,-1
13:28:24.173421,-38
13:28:24.173421,-5121
13:28:24.173421,-1
13:28:24.173421,-7
13:28:24.173421,2559
13:28:24.173421,0
13:28:24.173421,24
13:28:24.173421,7936
13:28:24.173421,0
13:28:24.173421,24
13:28:24.173421,4096
13:28:24.173421,0
13:28:24.173421,4
13:28:24.173421,-6656
13:28:24.173421,-1
13:28:24.173421,-72
13:28:24.173421,-28673
13:28:24.173421,-1
13:28:24.173421,-147
13:28:24.173421,21247
13:28:24.173421,-1
13:28:24.173421,-189
13:28:24.173421,15615
13:28:24.173421,-1
13:28:24.173421,-198
13:28:24.173421,15615
13:28:24.173421,-1
13:28:24.173421,-194
13:28:24.173421,16895
13:28:24.173421,-1
13:28:24.173421,-186
13:28:24.173421,19967
13:28:24.173421,-1
13:28:24.173421,-174
13:28:24.173421,22527
13:28:24.173421,-1
13:28:24.173421,-164
13:28:24.173421,24319
13:28:24.173421,-1
13:28:24.173421,-157
13:28:24.173421,26111
13:28:24.173421,-1
13:28:24.173421,-152
13:28:24.173421,27391
13:28:24.173421,-1
13:28:24.173421,-150
13:28:24.173421,27391
13:28:24.173421,-1
13:28:24.173421,-145
13:28:24.173421,28671
13:28:24.173421,-1
13:28:24.173421,-145
13:28:24.716439,-145
13:28:24.716439,28671
13:28:24.716439,-1
13:28:24.716439,-145
13:28:24.716439,28671
13:28:24.716439,-1
13:28:24.716439,-143
13:28:24.716439,29183
13:28:24.716439,-1
13:28:24.716439,-143
13:28:24.716439,29183
13:28:24.716439,-1
13:28:24.716439,-140
13:28:24.716439,29951
13:28:24.716439,-1
13:28:24.716439,-140
13:28:24.716439,31231
13:28:24.716439,-1
13:28:24.716439,-126
13:28:24.716439,-32001
13:28:24.716439,-1
13:28:24.716439,-130
13:28:24.716439,32511
13:28:24.716439,-1
13:28:24.716439,-135
13:28:24.716439,29951
13:28:24.716439,-1
13:28:24.716439,-140
13:28:24.716439,30463
13:28:24.716439,-1
13:28:24.716439,-128
13:28:24.716439,-27649
13:28:24.716439,-1
13:28:24.716439,-101
13:28:24.716439,-27649
13:28:24.716439,-1
13:28:24.716439,-116
13:28:24.716439,-30721
13:28:24.716439,-1
13:28:24.716439,-126
13:28:24.716439,-32513
13:28:24.716439,-1
13:28:24.716439,-123
13:28:24.716439,-29953
13:28:24.716439,-1
13:28:24.716439,-116
13:28:24.716439,-27649
13:28:24.716439,-1
13:28:24.716439,-24
13:28:24.716439,11007
13:28:24.716439,1
13:28:24.716439,880
13:28:24.716439,-17408
13:28:24.716439,4
13:28:24.716439,509
13:28:24.716439,-15872
13:28:24.716439,-3
13:28:24.716439,-560
13:28:24.716439,-22017
13:28:24.716439,-1
13:28:24.716439,-201
13:28:24.716439,-12801
13:28:24.716439,-2
13:28:24.716439,-155
13:28:24.716439,24319
13:28:24.716439,-1
13:28:24.716439,-220
13:28:24.716439,21759
13:28:24.716439,-1
13:28:24.716439,-150
13:28:24.716439,23039
13:28:24.716439,-1
13:28:24.716439,-150
13:28:24.716439,32511
13:28:24.716439,-1
13:28:24.716439,-128
13:28:24.716439,-29953
13:28:24.716439,-1
13:28:24.716439,-104
13:28:24.716439,-23809
13:28:24.716439,-1
13:28:24.716439,-84
13:28:24.716439,-17665
13:28:24.716439,-1
13:28:24.716439,-55
13:28:24.716439,-10753
13:28:24.716439,-1
13:28:24.716439,-29
13:28:24.716439,-2817
13:28:24.716439,-1
13:28:24.716439,-2
13:28:24.716439,767
13:28:24.716439,0
13:28:24.716439,7
13:28:24.716439,1792
13:28:24.716439,0
13:28:24.716439,0
13:28:24.716439,-3584
13:28:24.716439,-1
13:28:24.716439,-38
13:28:24.716439,-18945
13:28:24.716439,-1
13:28:24.716439,-121
13:28:24.716439,26879
13:28:24.716439,-1
13:28:24.716439,-172
13:28:24.716439,17407
13:28:24.716439,-1
13:28:24.716439,-196
13:28:25.253156,-196
13:28:25.253156,15615
13:28:25.253156,-1
13:28:25.253156,-191
13:28:25.253156,18687
13:28:25.253156,-1
13:28:25.253156,-179
13:28:25.253156,20479
13:28:25.253156,-1
13:28:25.253156,-172
13:28:25.253156,23807
13:28:25.253156,-1
13:28:25.253156,-157
13:28:25.253156,28159
13:28:25.253156,-1
13:28:25.253156,-145
13:28:25.253156,28671
13:28:25.253156,-1
13:28:25.253156,-143
13:28:25.253156,29183
13:28:25.253156,-1
13:28:25.253156,-143
13:28:25.253156,29951
13:28:25.253156,-1
13:28:25.253156,-138
13:28:25.253156,30463
13:28:25.253156,-1
13:28:25.253156,-135
13:28:25.253156,31743
13:28:25.253156,-1
13:28:25.253156,-133
13:28:25.253156,30463
13:28:25.253156,-1
13:28:25.253156,-138
13:28:25.253156,30463
13:28:25.253156,-1
13:28:25.253156,-135
13:28:25.253156,30463
13:28:25.253156,-1
13:28:25.253156,-138
13:28:25.253156,31743
13:28:25.253156,-1
13:28:25.253156,-126
13:28:25.253156,-32001
13:28:25.253156,-1
13:28:25.253156,-130
13:28:25.253156,31743
13:28:25.253156,-1
13:28:25.253156,-126
13:28:25.253156,-31233
13:28:25.253156,-1
13:28:25.253156,-128
13:28:25.253156,-32513
13:28:25.253156,-1
13:28:25.253156,-123
13:28:25.253156,-30721
13:28:25.253156,-1
13:28:25.253156,-121
13:28:25.253156,-30721
13:28:25.253156,-1
13:28:25.253156,-128
13:28:25.253156,32511
13:28:25.253156,-1
13:28:25.253156,-130
13:28:25.253156,-32001
13:28:25.253156,-1
13:28:25.253156,-109
13:28:25.253156,-22529
13:28:25.253156,-1
13:28:25.253156,-92
13:28:25.253156,-25089
13:28:25.253156,-1
13:28:25.253156,-104
13:28:25.253156,-27649
13:28:25.253156,-1
13:28:25.253156,-116
13:28:25.253156,-28673
13:28:25.253156,-1
13:28:25.253156,-104
13:28:25.253156,-26369
13:28:25.253156,-1
13:28:25.253156,-104
13:28:25.253156,-18177
13:28:25.253156,-1
13:28:25.253156,101
13:28:25.253156,6656
13:28:25.253156,2
13:28:25.253156,1052
13:28:25.253156,27392
13:28:25.253156,3
13:28:25.253156,-223
13:28:25.253156,-6657
13:28:25.253156,-4
13:28:25.253156,-291
13:28:25.253156,-14593
13:28:25.253156,-1
13:28:25.253156,-264
13:28:25.253156,15615
13:28:25.253156,-1
13:28:25.253156,-97
13:28:25.253156,23807
13:28:25.253156,-1
13:28:25.253156,-164
13:28:25.253156,-28673
13:28:25.253156,-1
13:28:25.253156,-121
13:28:25.253156,-31233
13:28:25.253156,-1
13:28:25.253156,-101
13:28:25.793458,-89
13:28:25.793458,-21249
13:28:25.793458,-1
13:28:25.793458,-75
13:28:25.793458,-15873
13:28:25.793458,-1
13:28:25.793458,-48
13:28:25.793458,-7681
13:28:25.793458,-1
13:28:25.793458,-14
13:28:25.793458,1279
13:28:25.793458,0
13:28:25.793458,14
13:28:25.793458,7424
13:28:25.793458,0
13:28:25.793458,48
13:28:25.793458,15360
13:28:25.793458,0
13:28:25.793458,65
13:28:25.793458,17920
13:28:25.793458,0
13:28:25.793458,63
13:28:25.793458,12800
13:28:25.793458,0
13:28:25.793458,31
13:28:25.793458,-2304
13:28:25.793458,-1
13:28:25.793458,-55
13:28:25.793458,-23809
13:28:25.793458,-1
13:28:25.793458,-126
13:28:25.793458,28671
13:28:25.793458,-1
13:28:25.793458,-160
13:28:25.793458,22527
13:28:25.793458,-1
13:28:25.793458,-172
13:28:25.793458,21759
13:28:25.793458,-1
13:28:25.793458,-164
13:28:25.793458,24831
13:28:25.793458,-1
13:28:25.793458,-157
13:28:25.793458,28159
13:28:25.793458,-1
13:28:25.793458,-138
13:28:25.793458,31231
13:28:25.793458,-1
13:28:25.793458,-138
13:28:25.793458,32511
13:28:25.793458,-1
13:28:25.793458,-121
13:28:25.793458,-30721
13:28:25.793458,-1
13:28:25.793458,-121
13:28:25.793458,-29953
13:28:25.793458,-1
13:28:25.793458,-123
13:28:25.793458,-31233
13:28:25.793458,-1
13:28:25.793458,-118
13:28:25.793458,-29441
13:28:25.793458,-1
13:28:25.793458,-118
13:28:25.793458,-30721
13:28:25.793458,-1
13:28:25.793458,-118
13:28:25.793458,-29953
13:28:25.793458,-1
13:28:25.793458,-121
13:28:25.793458,-29953
13:28:25.793458,-1
13:28:25.793458,-113
13:28:25.793458,-29953
13:28:25.793458,-1
13:28:25.793458,-121
13:28:25.793458,-29953
13:28:25.793458,-1
13:28:25.793458,-113
13:28:25.793458,-29441
13:28:25.793458,-1
13:28:25.793458,-118
13:28:25.793458,-28161
13:28:25.793458,-1
13:28:25.793458,-106
13:28:25.793458,-28673
13:28:25.793458,-1
13:28:25.793458,-116
13:28:25.793458,-29441
13:28:25.793458,-1
13:28:25.793458,-116
13:28:25.793458,-29953
13:28:25.793458,-1
13:28:25.793458,-118
13:28:25.793458,-25601
13:28:25.793458,-1
13:28:25.793458,-82
13:28:25.793458,-20225
13:28:25.793458,-1
13:28:25.793458,-89
13:28:25.793458,-25601
13:28:25.793458,-1
13:28:25.793458,-106
13:28:25.793458,-26881
13:28:25.793458,-1
13:28:25.793458,-104
13:28:25.793458,-24577
13:28:25.793458,-1
13:28:25.793458,-94
13:28:26.423881,-92
13:28:26.423881,-18177
13:28:26.423881,-1
13:28:26.423881,70
13:28:26.423881,-5888
13:28:26.423881,1
13:28:26.423881,1028
13:28:26.423881,-13312
13:28:26.423881,3
13:28:26.423881,-101
13:28:26.423881,20479
13:28:26.423881,-4
13:28:26.423881,-497
13:28:26.423881,-4609
13:28:26.423881,-1
13:28:26.423881,-201
13:28:26.423881,10751
13:28:26.423881,-1
13:28:26.423881,-63
13:28:26.423881,-28673
13:28:26.423881,-1
13:28:26.423881,-150
13:28:26.423881,-22017
13:28:26.423881,-1
13:28:26.423881,-80
13:28:26.423881,-23809
13:28:26.423881,-1
13:28:26.423881,-72
13:28:26.423881,-15873
13:28:26.423881,-1
13:28:26.423881,-63
13:28:26.423881,-11521
13:28:26.423881,-1
13:28:26.423881,-31
13:28:26.423881,-5889
13:28:26.423881,-1
13:28:26.423881,-12
13:28:26.423881,2559
13:28:26.423881,0
13:28:26.423881,26
13:28:26.423881,10496
13:28:26.423881,0
13:28:26.423881,63
13:28:26.423881,22272
13:28:26.423881,0
13:28:26.423881,101
13:28:26.423881,27904
13:28:26.423881,0
13:28:26.423881,109
13:28:26.423881,25344
13:28:26.423881,0
13:28:26.423881,87
13:28:26.423881,14848
13:28:26.423881,0
13:28:26.423881,4
13:28:26.423881,-14080
13:28:26.423881,-1
13:28:26.423881,-104
13:28:26.423881,28671
13:28:26.423881,-1
13:28:26.423881,-169
13:28:26.423881,18687
13:28:26.423881,-1
13:28:26.423881,-194
13:28:26.423881,16895
13:28:26.423881,-1
13:28:26.423881,-186
13:28:26.423881,18687
13:28:26.423881,-1
13:28:26.423881,-181
13:28:26.423881,19967
13:28:26.423881,-1
13:28:26.423881,-177
13:28:26.423881,21759
13:28:26.423881,-1
13:28:26.423881,-167
13:28:26.423881,25599
13:28:26.423881,-1
13:28:26.423881,-152
13:28:26.423881,28159
13:28:26.423881,-1
13:28:26.423881,-140
13:28:26.423881,31231
13:28:26.423881,-1
13:28:26.423881,-135
13:28:26.423881,-32513
13:28:26.423881,-1
13:28:26.423881,-126
13:28:26.423881,32511
13:28:26.423881,-1
13:28:26.423881,-130
13:28:26.423881,-32001
13:28:26.423881,-1
13:28:26.423881,-126
13:28:26.423881,32511
13:28:26.423881,-1
13:28:26.423881,-130
13:28:26.423881,32511
13:28:26.423881,-1
13:28:26.423881,-135
13:28:26.423881,29951
13:28:26.423881,-1
13:28:26.423881,-135
13:28:26.423881,-32513
13:28:26.423881,-1
13:28:26.423881,-133
13:28:26.423881,30463
13:28:26.423881,-1
13:28:26.423881,-133
13:28:26.963249,-130
13:28:26.963249,31743
13:28:26.963249,-1
13:28:26.963249,-138
13:28:26.963249,30463
13:28:26.963249,-1
13:28:26.963249,-138
13:28:26.963249,32511
13:28:26.963249,-1
13:28:26.963249,-109
13:28:26.963249,-23809
13:28:26.963249,-1
13:28:26.963249,-97
13:28:26.963249,-26881
13:28:26.963249,-1
13:28:26.963249,-113
13:28:26.963249,-29953
13:28:26.963249,-1
13:28:26.963249,-118
13:28:26.963249,-27649
13:28:26.963249,-1
13:28:26.963249,-99
13:28:26.963249,-26369
13:28:26.963249,-1
13:28:26.963249,-106
13:28:26.963249,-22017
13:28:26.963249,-1
13:28:26.963249,55
13:28:26.963249,-11264
13:28:26.963249,1
13:28:26.963249,1023
13:28:26.963249,-2048
13:28:26.963249,3
13:28:26.963249,-36
13:28:26.963249,-32001
13:28:26.963249,-4
13:28:26.963249,-482
13:28:26.963249,-10241
13:28:26.963249,-1
13:28:26.963249,-232
13:28:26.963249,3327
13:28:26.963249,-1
13:28:26.963249,-99
13:28:26.963249,27391
13:28:26.963249,-1
13:28:26.963249,-177
13:28:26.963249,-29953
13:28:26.963249,-1
13:28:26.963249,-121
13:28:26.963249,32511
13:28:26.963249,-1
13:28:26.963249,-101
13:28:26.963249,-23297
13:28:26.963249,-1
13:28:26.963249,-94
13:28:26.963249,-19457
13:28:26.963249,-1
13:28:26.963249,-60
13:28:26.963249,-13313
13:28:26.963249,-1
13:28:26.963249,-41
13:28:26.963249,-5121
13:28:26.963249,-1
13:28:26.963249,-4
13:28:26.963249,3839
13:28:26.963249,0
13:28:26.963249,33
13:28:26.963249,13568
13:28:26.963249,0
13:28:26.963249,67
13:28:26.963249,20480
13:28:26.963249,0
13:28:26.963249,80
13:28:26.963249,18432
13:28:26.963249,0
13:28:26.963249,58
13:28:26.963249,7424
13:28:26.963249,0
13:28:26.963249,-21
13:28:26.963249,-20737
13:28:26.963249,-1
13:28:26.963249,-130
13:28:26.963249,24831
13:28:26.963249,-1
13:28:26.963249,-184
13:28:26.963249,13823
13:28:26.963249,-1
13:28:26.963249,-206
13:28:26.963249,13823
13:28:26.963249,-1
13:28:26.963249,-203
13:28:26.963249,15103
13:28:26.963249,-1
13:28:26.963249,-196
13:28:26.963249,16127
13:28:26.963249,-1
13:28:26.963249,-189
13:28:26.963249,19455
13:28:26.963249,-1
13:28:26.963249,-174
13:28:26.963249,21759
13:28:26.963249,-1
13:28:26.963249,-167
13:28:26.963249,25599
13:28:26.963249,-1
13:28:26.963249,-152
13:28:26.963249,26879
13:28:26.963249,-1
13:28:26.963249,-150
13:28:27.503831,-145
13:28:27.503831,29951
13:28:27.503831,-1
13:28:27.503831,-140
13:28:27.503831,29183
13:28:27.503831,-1
13:28:27.503831,-140
13:28:27.503831,29951
13:28:27.503831,-1
13:28:27.503831,-140
13:28:27.503831,29951
13:28:27.503831,-1
13:28:27.503831,-140
13:28:27.503831,29951
13:28:27.503831,-1
13:28:27.503831,-130
13:28:27.503831,-32513
13:28:27.503831,-1
13:28:27.503831,-133
13:28:27.503831,31231
13:28:27.503831,-1
13:28:27.503831,-130
13:28:27.503831,31743
13:28:27.503831,-1
13:28:27.503831,-138
13:28:27.503831,29183
13:28:27.503831,-1
13:28:27.503831,-143
13:28:27.503831,29951
13:28:27.503831,-1
13:28:27.503831,-130
13:28:27.503831,-28161
13:28:27.503831,-1
13:28:27.503831,-99
13:28:27.503831,-26881
13:28:27.503831,-1
13:28:27.503831,-116
13:28:27.503831,-29441
13:28:27.503831,-1
13:28:27.503831,-118
13:28:27.503831,-31233
13:28:27.503831,-1
13:28:27.503831,-121
13:28:27.503831,-28161
13:28:27.503831,-1
13:28:27.503831,-109
13:28:27.503831,-27649
13:28:27.503831,-1
13:28:27.503831,-70
13:28:27.503831,-23809
13:28:27.503831,0
13:28:27.503831,698
13:28:27.503831,-11776
13:28:27.503831,4
13:28:27.503831,890
13:28:27.503831,-20736
13:28:27.503831,-2
13:28:27.503831,-776
13:28:27.503831,12031
13:28:27.503831,-1
13:28:27.503831,-101
13:28:27.503831,-16641
13:28:27.503831,-2
13:28:27.503831,-206
13:28:27.503831,-32001
13:28:27.503831,-1
13:28:27.503831,-208
13:28:27.503831,18175
13:28:27.503831,-1
13:28:27.503831,-135
13:28:27.503831,27391
13:28:27.503831,-1
13:28:27.503831,-147
13:28:27.503831,-30721
13:28:27.503831,-1
13:28:27.503831,-116
13:28:27.503831,-28673
13:28:27.503831,-1
13:28:27.503831,-97
13:28:27.503831,-21249
13:28:27.503831,-1
13:28:27.503831,-77
13:28:27.503831,-15105
13:28:27.503831,-1
13:28:27.503831,-41
13:28:27.503831,-5889
13:28:27.503831,-1
13:28:27.503831,-7
13:28:27.503831,3327
13:28:27.503831,0
13:28:27.503831,31
13:28:27.503831,11776
13:28:27.503831,0
13:28:27.503831,53
13:28:27.503831,14080
13:28:27.503831,0
13:28:27.503831,46
13:28:27.503831,6656
13:28:27.503831,0
13:28:27.503831,-7
13:28:27.503831,-13825
13:28:27.503831,-1
13:28:27.503831,-109
13:28:27.503831,27391
13:28:27.503831,-1
13:28:27.503831,-177
13:28:27.503831,15615
13:28:27.503831,-1
13:28:27.503831,-208
13:28:28.088871,-210
13:28:28.088871,12543
13:28:28.088871,-1
13:28:28.088871,-206
13:28:28.088871,14335
13:28:28.088871,-1
13:28:28.088871,-198
13:28:28.088871,16127
13:28:28.088871,-1
13:28:28.088871,-184
13:28:28.088871,21759
13:28:28.088871,-1
13:28:28.088871,-167
13:28:28.088871,23039
13:28:28.088871,-1
13:28:28.088871,-164
13:28:28.088871,24319
13:28:28.088871,-1
13:28:28.088871,-157
13:28:28.088871,26879
13:28:28.088871,-1
13:28:28.088871,-150
13:28:28.088871,27391
13:28:28.088871,-1
13:28:28.088871,-145
13:28:28.088871,29183
13:28:28.088871,-1
13:28:28.088871,-143
13:28:28.088871,29951
13:28:28.088871,-1
13:28:28.088871,-140
13:28:28.088871,29183
13:28:28.088871,-1
13:28:28.088871,-143
13:28:28.088871,29183
13:28:28.088871,-1
13:28:28.088871,-140
13:28:28.088871,29183
13:28:28.088871,-1
13:28:28.088871,-143
13:28:28.088871,29951
13:28:28.088871,-1
13:28:28.088871,-140
13:28:28.088871,29951
13:28:28.088871,-1
13:28:28.088871,-140
13:28:28.088871,29951
13:28:28.088871,-1
13:28:28.088871,-145
13:28:28.088871,27391
13:28:28.088871,-1
13:28:28.088871,-150
13:28:28.088871,28671
13:28:28.088871,-1
13:28:28.088871,-133
13:28:28.088871,-28161
13:28:28.088871,-1
13:28:28.088871,-106
13:28:28.088871,-28673
13:28:28.088871,-1
13:28:28.088871,-118
13:28:28.088871,-30721
13:28:28.088871,-1
13:28:28.088871,-126
13:28:28.088871,-32513
13:28:28.088871,-1
13:28:28.088871,-123
13:28:28.088871,-29953
13:28:28.088871,-1
13:28:28.088871,-118
13:28:28.088871,-28673
13:28:28.088871,-1
13:28:28.088871,-48
13:28:28.088871,-2049
13:28:28.088871,0
13:28:28.088871,839
13:28:28.088871,0
13:28:28.088871,5
13:28:28.088871,705
13:28:28.088871,10240
13:28:28.088871,-2
13:28:28.088871,-637
13:28:28.088871,-31233
13:28:28.088871,-1
13:28:28.088871,-174
13:28:28.088871,-17153
13:28:28.088871,-2
13:28:28.088871,-174
13:28:28.088871,26879
13:28:28.088871,-1
13:28:28.088871,-220
13:28:28.088871,19967
13:28:28.088871,-1
13:28:28.088871,-147
13:28:28.088871,23039
13:28:28.088871,-1
13:28:28.088871,-152
13:28:28.088871,32511
13:28:28.088871,-1
13:28:28.088871,-126
13:28:28.088871,-30721
13:28:28.088871,-1
13:28:28.088871,-104
13:28:28.088871,-23809
13:28:28.088871,-1
13:28:28.088871,-84
13:28:28.088871,-16897
13:28:28.088871,-1
13:28:28.088871,-53
13:28:28.627671,-36
13:28:28.627671,-4609
13:28:28.627671,-1
13:28:28.627671,0
13:28:28.627671,4096
13:28:28.627671,0
13:28:28.627671,31
13:28:28.627671,9728
13:28:28.627671,0
13:28:28.627671,33
13:28:28.627671,6656
13:28:28.627671,0
13:28:28.627671,9
13:28:28.627671,-6144
13:28:28.627671,-1
13:28:28.627671,-65
13:28:28.627671,-26881
13:28:28.627671,-1
13:28:28.627671,-147
13:28:28.627671,20479
13:28:28.627671,-1
13:28:28.627671,-191
13:28:28.627671,15103
13:28:28.627671,-1
13:28:28.627671,-201
13:28:28.627671,15615
13:28:28.627671,-1
13:28:28.627671,-194
13:28:28.627671,16895
13:28:28.627671,-1
13:28:28.627671,-186
13:28:28.627671,19455
13:28:28.627671,-1
13:28:28.627671,-177
13:28:28.627671,21247
13:28:28.627671,-1
13:28:28.627671,-172
13:28:28.627671,22527
13:28:28.627671,-1
13:28:28.627671,-164
13:28:28.627671,24831
13:28:28.627671,-1
13:28:28.627671,-155
13:28:28.627671,26879
13:28:28.627671,-1
13:28:28.627671,-150
13:28:28.627671,28159
13:28:28.627671,-1
13:28:28.627671,-145
13:28:28.627671,29183
13:28:28.627671,-1
13:28:28.627671,-140
13:28:28.627671,30463
13:28:28.627671,-1
13:28:28.627671,-140
13:28:28.627671,29951
13:28:28.627671,-1
13:28:28.627671,-138
13:28:28.627671,30463
13:28:28.627671,-1
13:28:28.627671,-138
13:28:28.627671,30463
13:28:28.627671,-1
13:28:28.627671,-138
13:28:28.627671,30463
13:28:28.627671,-1
13:28:28.627671,-135
13:28:28.627671,31231
13:28:28.627671,-1
13:28:28.627671,-133
13:28:28.627671,32511
13:28:28.627671,-1
13:28:28.627671,-133
13:28:28.627671,31231
13:28:28.627671,-1
13:28:28.627671,-138
13:28:28.627671,30463
13:28:28.627671,-1
13:28:28.627671,-135
13:28:28.627671,-29953
13:28:28.627671,-1
13:28:28.627671,-99
13:28:28.627671,-25089
13:28:28.627671,-1
13:28:28.627671,-106
13:28:28.627671,-28673
13:28:28.627671,-1
13:28:28.627671,-118
13:28:28.627671,-31233
13:28:28.627671,-1
13:28:28.627671,-123
13:28:28.627671,-29953
13:28:28.627671,-1
13:28:28.627671,-111
13:28:28.627671,-27649
13:28:28.627671,-1
13:28:28.627671,-99
13:28:28.627671,1279
13:28:28.627671,0
13:28:28.627671,363
13:28:28.627671,-14592
13:28:28.627671,3
13:28:28.627671,1227
13:28:28.627671,-25088
13:28:28.627671,1
13:28:28.627671,-623
13:28:28.627671,2303
13:28:28.627671,-2
13:28:28.627671,-65
13:28:29.169007,-223
13:28:29.169007,-8705
13:28:29.169007,-2
13:28:29.169007,-138
13:28:29.169007,24319
13:28:29.169007,-1
13:28:29.169007,-210
13:28:29.169007,25599
13:28:29.169007,-1
13:28:29.169007,-140
13:28:29.169007,26879
13:28:29.169007,-1
13:28:29.169007,-128
13:28:29.169007,-28161
13:28:29.169007,-1
13:28:29.169007,-111
13:28:29.169007,-25601
13:28:29.169007,-1
13:28:29.169007,-87
13:28:29.169007,-19457
13:28:29.169007,-1
13:28:29.169007,-65
13:28:29.169007,-12545
13:28:29.169007,-1
13:28:29.169007,-36
13:28:29.169007,-4609
13:28:29.169007,-1
13:28:29.169007,0
13:28:29.169007,4096
13:28:29.169007,0
13:28:29.169007,31
13:28:29.169007,11008
13:28:29.169007,0
13:28:29.169007,46
13:28:29.169007,11008
13:28:29.169007,0
13:28:29.169007,33
13:28:29.169007,4096
13:28:29.169007,0
13:28:29.169007,-21
13:28:29.169007,-18177
13:28:29.169007,-1
13:28:29.169007,-118
13:28:29.169007,26879
13:28:29.169007,-1
13:28:29.169007,-177
13:28:29.169007,17407
13:28:29.169007,-1
13:28:29.169007,-194
13:28:29.169007,15615
13:28:29.169007,-1
13:28:29.169007,-196
13:28:29.169007,16127
13:28:29.169007,-1
13:28:29.169007,-191
13:28:29.169007,18175
13:28:29.169007,-1
13:28:29.169007,-179
13:28:29.169007,20479
13:28:29.169007,-1
13:28:29.169007,-174
13:28:29.169007,23039
13:28:29.169007,-1
13:28:29.169007,-160
13:28:29.169007,26879
13:28:29.169007,-1
13:28:29.169007,-152
13:28:29.169007,27391
13:28:29.169007,-1
13:28:29.169007,-145
13:28:29.169007,29183
13:28:29.169007,-1
13:28:29.169007,-140
13:28:29.169007,30463
13:28:29.169007,-1
13:28:29.169007,-135
13:28:29.169007,31231
13:28:29.169007,-1
13:28:29.169007,-135
13:28:29.169007,30463
13:28:29.169007,-1
13:28:29.169007,-138
13:28:29.169007,31231
13:28:29.169007,-1
13:28:29.169007,-135
13:28:29.169007,31743
13:28:29.169007,-1
13:28:29.169007,-130
13:28:29.169007,31743
13:28:29.169007,-1
13:28:29.169007,-135
13:28:29.169007,31743
13:28:29.169007,-1
13:28:29.169007,-128
13:28:29.169007,-32513
13:28:29.169007,-1
13:28:29.169007,-126
13:28:29.169007,-30721
13:28:29.169007,-1
13:28:29.169007,-126
13:28:29.169007,31231
13:28:29.169007,-1
13:28:29.169007,-135
13:28:29.169007,31743
13:28:29.169007,-1
13:28:29.169007,-121
13:28:29.169007,-25601
13:28:29.169007,-1
13:28:29.169007,-94
13:28:29.753873,-97
13:28:29.753873,-25601
13:28:29.753873,-1
13:28:29.753873,-109
13:28:29.753873,-28673
13:28:29.753873,-1
13:28:29.753873,-113
13:28:29.753873,-26369
13:28:29.753873,-1
13:28:29.753873,-94
13:28:29.753873,-24577
13:28:29.753873,-1
13:28:29.753873,-94
13:28:29.753873,-13825
13:28:29.753873,-1
13:28:29.753873,155
13:28:29.753873,-32256
13:28:29.753873,2
13:28:29.753873,1142
13:28:29.753873,15616
13:28:29.753873,3
13:28:29.753873,-339
13:28:29.753873,-4097
13:28:29.753873,-4
13:28:29.753873,-218
13:28:29.753873,-16385
13:28:29.753873,-1
13:28:29.753873,-283
13:28:29.753873,19967
13:28:29.753873,-1
13:28:29.753873,-89
13:28:29.753873,22527
13:28:29.753873,-1
13:28:29.753873,-160
13:28:29.753873,-26881
13:28:29.753873,-1
13:28:29.753873,-118
13:28:29.753873,-30721
13:28:29.753873,-1
13:28:29.753873,-97
13:28:29.753873,-22529
13:28:29.753873,-1
13:28:29.753873,-82
13:28:29.753873,-16897
13:28:29.753873,-1
13:28:29.753873,-55
13:28:29.753873,-10241
13:28:29.753873,-1
13:28:29.753873,-26
13:28:29.753873,-2049
13:28:29.753873,-1
13:28:29.753873,4
13:28:29.753873,4864
13:28:29.753873,0
13:28:29.753873,36
13:28:29.753873,14080
13:28:29.753873,0
13:28:29.753873,70
13:28:29.753873,21504
13:28:29.753873,0
13:28:29.753873,84
13:28:29.753873,18432
13:28:29.753873,0
13:28:29.753873,63
13:28:29.753873,8448
13:28:29.753873,0
13:28:29.753873,-24
13:28:29.753873,-19457
13:28:29.753873,-1
13:28:29.753873,-118
13:28:29.753873,26879
13:28:29.753873,-1
13:28:29.753873,-177
13:28:29.753873,18175
13:28:29.753873,-1
13:28:29.753873,-184
13:28:29.753873,18175
13:28:29.753873,-1
13:28:29.753873,-189
13:28:29.753873,19967
13:28:29.753873,-1
13:28:29.753873,-169
13:28:29.753873,21247
13:28:29.753873,-1
13:28:29.753873,-167
13:28:29.753873,26111
13:28:29.753873,-1
13:28:29.753873,-155
13:28:29.753873,27391
13:28:29.753873,-1
13:28:29.753873,-138
13:28:29.753873,29951
13:28:29.753873,-1
13:28:29.753873,-140
13:28:29.753873,31743
13:28:29.753873,-1
13:28:29.753873,-133
13:28:29.753873,32511
13:28:29.753873,-1
13:28:29.753873,-128
13:28:29.753873,31743
13:28:29.753873,-1
13:28:29.753873,-128
13:28:29.753873,-31233
13:28:29.753873,-1
13:28:29.753873,-130
13:28:29.753873,32511
13:28:29.753873,-1
13:28:29.753873,-128
13:28:30.338433,-128
13:28:30.338433,32511
13:28:30.338433,-1
13:28:30.338433,-126
13:28:30.338433,-32001
13:28:30.338433,-1
13:28:30.338433,-123
13:28:30.338433,-30721
13:28:30.338433,-1
13:28:30.338433,-123
13:28:30.338433,-30721
13:28:30.338433,-1
13:28:30.338433,-113
13:28:30.338433,-28161
13:28:30.338433,-1
13:28:30.338433,-116
13:28:30.338433,-30721
13:28:30.338433,-1
13:28:30.338433,-118
13:28:30.338433,-29441
13:28:30.338433,-1
13:28:30.338433,-111
13:28:30.338433,-25601
13:28:30.338433,-1
13:28:30.338433,-87
13:28:30.338433,-20737
13:28:30.338433,-1
13:28:30.338433,-89
13:28:30.338433,-25601
13:28:30.338433,-1
13:28:30.338433,-111
13:28:30.338433,-27649
13:28:30.338433,-1
13:28:30.338433,-101
13:28:30.338433,-25601
13:28:30.338433,-1
13:28:30.338433,-99
13:28:30.338433,-24577
13:28:30.338433,-1
13:28:30.338433,-77
13:28:30.338433,15615
13:28:30.338433,0
13:28:30.338433,465
13:28:30.338433,-4608
13:28:30.338433,3
13:28:30.338433,1001
13:28:30.338433,-11776
13:28:30.338433,-1
13:28:30.338433,-940
13:28:30.338433,-3841
13:28:30.338433,-3
13:28:30.338433,-26
13:28:30.338433,13823
13:28:30.338433,-1
13:28:30.338433,-230
13:28:30.338433,-16897
13:28:30.338433,-1
13:28:30.338433,-113
13:28:30.338433,24831
13:28:30.338433,-1
13:28:30.338433,-99
13:28:30.338433,-22529
13:28:30.338433,-1
13:28:30.338433,-106
13:28:30.338433,-20737
13:28:30.338433,-1
13:28:30.338433,-70
13:28:30.338433,-18177
13:28:30.338433,-1
13:28:30.338433,-53
13:28:30.338433,-9473
13:28:30.338433,-1
13:28:30.338433,-31
13:28:30.338433,-4609
13:28:30.338433,-1
13:28:30.338433,2
13:28:30.338433,4096
13:28:30.338433,0
13:28:30.338433,33
13:28:30.338433,15360
13:28:30.338433,0
13:28:30.338433,77
13:28:30.338433,21504
13:28:30.338433,0
13:28:30.338433,99
13:28:30.338433,27136
13:28:30.338433,0
13:28:30.338433,92
13:28:30.338433,18432
13:28:30.338433,0
13:28:30.338433,53
13:28:30.338433,1792
13:28:30.338433,0
13:28:30.338433,-58
13:28:30.338433,-28161
13:28:30.338433,-1
13:28:30.338433,-150
13:28:30.338433,19455
13:28:30.338433,-1
13:28:30.338433,-198
13:28:30.338433,14335
13:28:30.338433,-1
13:28:30.338433,-198
13:28:30.338433,15103
13:28:30.338433,-1
13:28:30.338433,-196
13:28:30.338433,16895
13:28:30.338433,-1
13:28:30.338433,-189
13:28:30.880124,-184
13:28:30.880124,19967
13:28:30.880124,-1
13:28:30.880124,-174
13:28:30.880124,23039
13:28:30.880124,-1
13:28:30.880124,-155
13:28:30.880124,26879
13:28:30.880124,-1
13:28:30.880124,-152
13:28:30.880124,28671
13:28:30.880124,-1
13:28:30.880124,-138
13:28:30.880124,31231
13:28:30.880124,-1
13:28:30.880124,-130
13:28:30.880124,-31233
13:28:30.880124,-1
13:28:30.880124,-123
13:28:30.880124,-32513
13:28:30.880124,-1
13:28:30.880124,-130
13:28:30.880124,-32513
13:28:30.880124,-1
13:28:30.880124,-128
13:28:30.880124,31743
13:28:30.880124,-1
13:28:30.880124,-135
13:28:30.880124,32511
13:28:30.880124,-1
13:28:30.880124,-126
13:28:30.880124,32511
13:28:30.880124,-1
13:28:30.880124,-135
13:28:30.880124,32511
13:28:30.880124,-1
13:28:30.880124,-130
13:28:30.880124,29951
13:28:30.880124,-1
13:28:30.880124,-140
13:28:30.880124,29951
13:28:30.880124,-1
13:28:30.880124,-138
13:28:30.880124,-30721
13:28:30.880124,-1
13:28:30.880124,-99
13:28:30.880124,-25089
13:28:30.880124,-1
13:28:30.880124,-113
13:28:30.880124,-30721
13:28:30.880124,-1
13:28:30.880124,-121
13:28:30.880124,-32001
13:28:30.880124,-1
13:28:30.880124,-126
13:28:30.880124,-28673
13:28:30.880124,-1
13:28:30.880124,-113
13:28:30.880124,-28673
13:28:30.880124,-1
13:28:30.880124,-99
13:28:30.880124,3839
13:28:30.880124,0
13:28:30.880124,390
13:28:30.880124,-13824
13:28:30.880124,3
13:28:30.880124,1115
13:28:30.880124,-20992
13:28:30.880124,0
13:28:30.880124,-831
13:28:30.880124,-13313
13:28:30.880124,-3
13:28:30.880124,-55
13:28:30.880124,10751
13:28:30.880124,-1
13:28:30.880124,-274
13:28:30.880124,-28673
13:28:30.880124,-1
13:28:30.880124,-145
13:28:30.880124,16895
13:28:30.880124,-1
13:28:30.880124,-133
13:28:30.880124,-29953
13:28:30.880124,-1
13:28:30.880124,-135
13:28:30.880124,-29441
13:28:30.880124,-1
13:28:30.880124,-99
13:28:30.880124,-24577
13:28:30.880124,-1
13:28:30.880124,-84
13:28:30.880124,-17665
13:28:30.880124,-1
13:28:30.880124,-60
13:28:30.880124,-12545
13:28:30.880124,-1
13:28:30.880124,-31
13:28:30.880124,-2817
13:28:30.880124,-1
13:28:30.880124,4
13:28:30.880124,7424
13:28:30.880124,0
13:28:30.880124,50
13:28:30.880124,16640
13:28:30.880124,0
13:28:30.880124,75
13:28:30.880124,19712
13:28:30.880124,0
13:28:30.880124,70
13:28:31.418181,55
13:28:31.418181,6656
13:28:31.418181,0
13:28:31.418181,-16
13:28:31.418181,-18945
13:28:31.418181,-1
13:28:31.418181,-123
13:28:31.418181,24831
13:28:31.418181,-1
13:28:31.418181,-184
13:28:31.418181,15103
13:28:31.418181,-1
13:28:31.418181,-201
13:28:31.418181,15615
13:28:31.418181,-1
13:28:31.418181,-191
13:28:31.418181,16895
13:28:31.418181,-1
13:28:31.418181,-184
13:28:31.418181,20479
13:28:31.418181,-1
13:28:31.418181,-174
13:28:31.418181,22527
13:28:31.418181,-1
13:28:31.418181,-167
13:28:31.418181,24319
13:28:31.418181,-1
13:28:31.418181,-155
13:28:31.418181,27391
13:28:31.418181,-1
13:28:31.418181,-147
13:28:31.418181,28671
13:28:31.418181,-1
13:28:31.418181,-143
13:28:31.418181,29183
13:28:31.418181,-1
13:28:31.418181,-140
13:28:31.418181,31231
13:28:31.418181,-1
13:28:31.418181,-133
13:28:31.418181,32511
13:28:31.418181,-1
13:28:31.418181,-133
13:28:31.418181,31743
13:28:31.418181,-1
13:28:31.418181,-133
13:28:31.418181,31743
13:28:31.418181,-1
13:28:31.418181,-130
13:28:31.418181,31743
13:28:31.418181,-1
13:28:31.418181,-135
13:28:31.418181,31743
13:28:31.418181,-1
13:28:31.418181,-130
13:28:31.418181,32511
13:28:31.418181,-1
13:28:31.418181,-128
13:28:31.418181,-32513
13:28:31.418181,-1
13:28:31.418181,-133
13:28:31.418181,30463
13:28:31.418181,-1
13:28:31.418181,-135
13:28:31.418181,31231
13:28:31.418181,-1
13:28:31.418181,-128
13:28:31.418181,-26881
13:28:31.418181,-1
13:28:31.418181,-94
13:28:31.418181,-25089
13:28:31.418181,-1
13:28:31.418181,-109
13:28:31.418181,-28161
13:28:31.418181,-1
13:28:31.418181,-116
13:28:31.418181,-30721
13:28:31.418181,-1
13:28:31.418181,-116
13:28:31.418181,-27649
13:28:31.418181,-1
13:28:31.418181,-106
13:28:31.418181,-26369
13:28:31.418181,-1
13:28:31.418181,-77
13:28:31.418181,28671
13:28:31.418181,0
13:28:31.418181,611
13:28:31.418181,-16896
13:28:31.418181,4
13:28:31.418181,1069
13:28:31.418181,-27136
13:28:31.418181,-1
13:28:31.418181,-768
13:28:31.418181,-6657
13:28:31.418181,-2
13:28:31.418181,-70
13:28:31.418181,-12801
13:28:31.418181,-2
13:28:31.418181,-230
13:28:31.418181,-29441
13:28:31.418181,-1
13:28:31.418181,-194
13:28:31.418181,16127
13:28:31.418181,-1
13:28:31.418181,-135
13:28:31.418181,28671
13:28:31.418181,-1
13:28:31.418181,-150
13:28:32.048374,-123
13:28:32.048374,-28673
13:28:32.048374,-1
13:28:32.048374,-111
13:28:32.048374,-24577
13:28:32.048374,-1
13:28:32.048374,-82
13:28:32.048374,-16385
13:28:32.048374,-1
13:28:32.048374,-43
13:28:32.048374,-7169
13:28:32.048374,-1
13:28:32.048374,-16
13:28:32.048374,255
13:28:32.048374,0
13:28:32.048374,19
13:28:32.048374,9728
13:28:32.048374,0
13:28:32.048374,50
13:28:32.048374,15360
13:28:32.048374,0
13:28:32.048374,60
13:28:32.048374,13568
13:28:32.048374,0
13:28:32.048374,38
13:28:32.048374,2304
13:28:32.048374,0
13:28:32.048374,-36
13:28:32.048374,-22017
13:28:32.048374,-1
13:28:32.048374,-130
13:28:32.048374,24319
13:28:32.048374,-1
13:28:32.048374,-181
13:28:32.048374,16127
13:28:32.048374,-1
13:28:32.048374,-196
13:28:32.048374,15615
13:28:32.048374,-1
13:28:32.048374,-194
13:28:32.048374,16895
13:28:32.048374,-1
13:28:32.048374,-184
13:28:32.048374,19967
13:28:32.048374,-1
13:28:32.048374,-174
13:28:32.048374,21759
13:28:32.048374,-1
13:28:32.048374,-169
13:28:32.048374,23807
13:28:32.048374,-1
13:28:32.048374,-160
13:28:32.048374,26111
13:28:32.048374,-1
13:28:32.048374,-152
13:28:32.048374,27391
13:28:32.048374,-1
13:28:32.048374,-147
13:28:32.048374,28671
13:28:32.048374,-1
13:28:32.048374,-145
13:28:32.048374,29951
13:28:32.048374,-1
13:28:32.048374,-138
13:28:32.048374,30463
13:28:32.048374,-1
13:28:32.048374,-138
13:28:32.048374,31231
13:28:32.048374,-1
13:28:32.048374,-135
13:28:32.048374,31231
13:28:32.048374,-1
13:28:32.048374,-135
13:28:32.048374,31231
13:28:32.048374,-1
13:28:32.048374,-135
13:28:32.048374,31743
13:28:32.048374,-1
13:28:32.048374,-133
13:28:32.048374,31743
13:28:32.048374,-1
13:28:32.048374,-135
13:28:32.048374,30463
13:28:32.048374,-1
13:28:32.048374,-145
13:28:32.048374,28671
13:28:32.048374,-1
13:28:32.048374,-143
13:28:32.048374,31743
13:28:32.048374,-1
13:28:32.048374,-113
13:28:32.048374,-26369
13:28:32.048374,-1
13:28:32.048374,-109
13:28:32.048374,-29441
13:28:32.048374,-1
13:28:32.048374,-121
13:28:32.048374,-31233
13:28:32.048374,-1
13:28:32.048374,-130
13:28:32.048374,-32001
13:28:32.048374,-1
13:28:32.048374,-121
13:28:32.048374,-29953
13:28:32.048374,-1
13:28:32.048374,-116
13:28:32.048374,-20225
13:28:32.048374,-1
13:28:32.048374,121
13:28:32.544830,625
13:28:32.544830,-18688
13:28:32.544830,4
13:28:32.544830,1020
13:28:32.544830,31488
13:28:32.544830,-1
13:28:32.544830,-727
13:28:32.544830,-513
13:28:32.544830,-2
13:28:32.544830,-97
13:28:32.544830,-16641
13:28:32.544830,-2
13:28:32.544830,-232
13:28:32.544830,31743
13:28:32.544830,-1
13:28:32.544830,-208
13:28:32.544830,14335
13:28:32.544830,-1
13:28:32.544830,-147
13:28:32.544830,25599
13:28:32.544830,-1
13:28:32.544830,-157
13:28:32.544830,-30721
13:28:32.544830,-1
13:28:32.544830,-111
13:28:32.544830,-28673
13:28:32.544830,-1
13:28:32.544830,-99
13:28:32.544830,-22017
13:28:32.544830,-1
13:28:32.544830,-80
13:28:32.544830,-15873
13:28:32.544830,-1
13:28:32.544830,-48
13:28:32.544830,-8193
13:28:32.544830,-1
13:28:32.544830,-16
13:28:32.544830,767
13:28:32.544830,0
13:28:32.544830,19
13:28:32.544830,8448
13:28:32.544830,0
13:28:32.544830,41
13:28:32.544830,10496
13:28:32.544830,0
13:28:32.544830,33
13:28:32.544830,4864
13:28:32.544830,0
13:28:32.544830,-7
13:28:32.544830,-12545
13:28:32.544830,-1
13:28:32.544830,-99
13:28:32.544830,29951
13:28:32.544830,-1
13:28:32.544830,-169
13:28:32.544830,17407
13:28:32.544830,-1
13:28:32.544830,-198
13:28:32.544830,14335
13:28:32.544830,-1
13:28:32.544830,-201
13:28:32.544830,15615
13:28:32.544830,-1
13:28:32.544830,-191
13:28:32.544830,18175
13:28:32.544830,-1
13:28:32.544830,-184
13:28:32.544830,19455
13:28:32.544830,-1
13:28:32.544830,-177
13:28:32.544830,21247
13:28:32.544830,-1
13:28:32.544830,-172
13:28:32.544830,23039
13:28:32.544830,-1
13:28:32.544830,-162
13:28:32.544830,25599
13:28:32.544830,-1
13:28:32.544830,-155
13:28:32.544830,27391
13:28:32.544830,-1
13:28:32.544830,-147
13:28:32.544830,28671
13:28:32.544830,-1
13:28:32.544830,-143
13:28:32.544830,29951
13:28:32.544830,-1
13:28:32.544830,-140
13:28:32.544830,30463
13:28:32.544830,-1
13:28:32.544830,-140
13:28:32.544830,29951
13:28:32.544830,-1
13:28:32.544830,-138
13:28:32.544830,31231
13:28:32.544830,-1
13:28:32.544830,-133
13:28:32.544830,31743
13:28:32.544830,-1
13:28:32.544830,-135
13:28:32.544830,31231
13:28:32.544830,-1
13:28:32.544830,-133
13:28:32.544830,31743
13:28:32.544830,-1
13:28:32.544830,-133
13:28:32.544830,32511
13:28:32.544830,-1
13:28:32.544830,-130
13:28:33.127389,-130
13:28:33.127389,32511
13:28:33.127389,-1
13:28:33.127389,-135
13:28:33.127389,29951
13:28:33.127389,-1
13:28:33.127389,-140
13:28:33.127389,31743
13:28:33.127389,-1
13:28:33.127389,-109
13:28:33.127389,-22017
13:28:33.127389,-1
13:28:33.127389,-89
13:28:33.127389,-25601
13:28:33.127389,-1
13:28:33.127389,-106
13:28:33.127389,-27649
13:28:33.127389,-1
13:28:33.127389,-116
13:28:33.127389,-29953
13:28:33.127389,-1
13:28:33.127389,-111
13:28:33.127389,-27649
13:28:33.127389,-1
13:28:33.127389,-109
13:28:33.127389,-24577
13:28:33.127389,-1
13:28:33.127389,21
13:28:33.127389,-27648
13:28:33.127389,1
13:28:33.127389,996
13:28:33.127389,-31744
13:28:33.127389,4
13:28:33.127389,244
13:28:33.127389,17408
13:28:33.127389,-3
13:28:33.127389,-460
13:28:33.127389,-13825
13:28:33.127389,-1
13:28:33.127389,-242
13:28:33.127389,-4353
13:28:33.127389,-2
13:28:33.127389,-126
13:28:33.127389,22527
13:28:33.127389,-1
13:28:33.127389,-203
13:28:33.127389,28671
13:28:33.127389,-1
13:28:33.127389,-138
13:28:33.127389,27391
13:28:33.127389,-1
13:28:33.127389,-123
13:28:33.127389,-27649
13:28:33.127389,-1
13:28:33.127389,-111
13:28:33.127389,-25089
13:28:33.127389,-1
13:28:33.127389,-80
13:28:33.127389,-18945
13:28:33.127389,-1
13:28:33.127389,-65
13:28:33.127389,-11521
13:28:33.127389,-1
13:28:33.127389,-26
13:28:33.127389,-3329
13:28:33.127389,-1
13:28:33.127389,0
13:28:33.127389,4864
13:28:33.127389,0
13:28:33.127389,33
13:28:33.127389,11008
13:28:33.127389,0
13:28:33.127389,48
13:28:33.127389,11008
13:28:33.127389,0
13:28:33.127389,33
13:28:33.127389,4864
13:28:33.127389,0
13:28:33.127389,-9
13:28:33.127389,-14593
13:28:33.127389,-1
13:28:33.127389,-111
13:28:33.127389,28159
13:28:33.127389,-1
13:28:33.127389,-164
13:28:33.127389,21247
13:28:33.127389,-1
13:28:33.127389,-184
13:28:33.127389,16895
13:28:33.127389,-1
13:28:33.127389,-189
13:28:33.127389,18687
13:28:33.127389,-1
13:28:33.127389,-179
13:28:33.127389,22527
13:28:33.127389,-1
13:28:33.127389,-164
13:28:33.127389,23807
13:28:33.127389,-1
13:28:33.127389,-162
13:28:33.127389,26879
13:28:33.127389,-1
13:28:33.127389,-145
13:28:33.127389,28671
13:28:33.127389,-1
13:28:33.127389,-140
13:28:33.127389,30463
13:28:33.127389,-1
13:28:33.127389,-138
13:28:33.714624,-135
13:28:33.714624,31743
13:28:33.714624,-1
13:28:33.714624,-133
13:28:33.714624,-32001
13:28:33.714624,-1
13:28:33.714624,-123
13:28:33.714624,-32513
13:28:33.714624,-1
13:28:33.714624,-128
13:28:33.714624,-32513
13:28:33.714624,-1
13:28:33.714624,-128
13:28:33.714624,-29953
13:28:33.714624,-1
13:28:33.714624,-111
13:28:33.714624,-29441
13:28:33.714624,-1
13:28:33.714624,-118
13:28:33.714624,-28673
13:28:33.714624,-1
13:28:33.714624,-111
13:28:33.714624,-27649
13:28:33.714624,-1
13:28:33.714624,-111
13:28:33.714624,-29441
13:28:33.714624,-1
13:28:33.714624,-116
13:28:33.714624,-28161
13:28:33.714624,-1
13:28:33.714624,-113
13:28:33.714624,-30721
13:28:33.714624,-1
13:28:33.714624,-123
13:28:33.714624,-30721
13:28:33.714624,-1
13:28:33.714624,-111
13:28:33.714624,-23297
13:28:33.714624,-1
13:28:33.714624,-80
13:28:33.714624,-20737
13:28:33.714624,-1
13:28:33.714624,-87
13:28:33.714624,-24577
13:28:33.714624,-1
13:28:33.714624,-104
13:28:33.714624,-26369
13:28:33.714624,-1
13:28:33.714624,-99
13:28:33.714624,-25089
13:28:33.714624,-1
13:28:33.714624,-97
13:28:33.714624,-22529
13:28:33.714624,-1
13:28:33.714624,-70
13:28:33.714624,15103
13:28:33.714624,0
13:28:33.714624,458
13:28:33.714624,-4608
13:28:33.714624,3
13:28:33.714624,1001
13:28:33.714624,-9728
13:28:33.714624,-1
13:28:33.714624,-887
13:28:33.714624,9215
13:28:33.714624,-2
13:28:33.714624,-26
13:28:33.714624,12543
13:28:33.714624,-1
13:28:33.714624,-223
13:28:33.714624,-20225
13:28:33.714624,-1
13:28:33.714624,-130
13:28:33.714624,25599
13:28:33.714624,-1
13:28:33.714624,-89
13:28:33.714624,-22017
13:28:33.714624,-1
13:28:33.714624,-106
13:28:33.714624,-20737
13:28:33.714624,-1
13:28:33.714624,-67
13:28:33.714624,-16897
13:28:33.714624,-1
13:28:33.714624,-55
13:28:33.714624,-10241
13:28:33.714624,-1
13:28:33.714624,-29
13:28:33.714624,-3329
13:28:33.714624,-1
13:28:33.714624,2
13:28:33.714624,4864
13:28:33.714624,0
13:28:33.714624,38
13:28:33.714624,13568
13:28:33.714624,0
13:28:33.714624,67
13:28:33.714624,22784
13:28:33.714624,0
13:28:33.714624,99
13:28:33.714624,25344
13:28:33.714624,0
13:28:33.714624,101
13:28:33.714624,21504
13:28:33.714624,0
13:28:33.714624,53
13:28:33.714624,3072
13:28:33.714624,0
13:28:33.714624,-43
13:28:34.253096,-99
13:28:34.253096,30463
13:28:34.253096,-1
13:28:34.253096,-164
13:28:34.253096,18687
13:28:34.253096,-1
13:28:34.253096,-191
13:28:34.253096,17407
13:28:34.253096,-1
13:28:34.253096,-189
13:28:34.253096,19967
13:28:34.253096,-1
13:28:34.253096,-177
13:28:34.253096,18687
13:28:34.253096,-1
13:28:34.253096,-177
13:28:34.253096,23807
13:28:34.253096,-1
13:28:34.253096,-157
13:28:34.253096,29183
13:28:34.253096,-1
13:28:34.253096,-133
13:28:34.253096,31743
13:28:34.253096,-1
13:28:34.253096,-133
13:28:34.253096,-30721
13:28:34.253096,-1
13:28:34.253096,-116
13:28:34.253096,-31233
13:28:34.253096,-1
13:28:34.253096,-123
13:28:34.253096,-29441
13:28:34.253096,-1
13:28:34.253096,-116
13:28:34.253096,-30721
13:28:34.253096,-1
13:28:34.253096,-118
13:28:34.253096,-29953
13:28:34.253096,-1
13:28:34.253096,-118
13:28:34.253096,-29441
13:28:34.253096,-1
13:28:34.253096,-121
13:28:34.253096,-32001
13:28:34.253096,-1
13:28:34.253096,-123
13:28:34.253096,-30721
13:28:34.253096,-1
13:28:34.253096,-123
13:28:34.253096,-31233
13:28:34.253096,-1
13:28:34.253096,-123
13:28:34.253096,-32001
13:28:34.253096,-1
13:28:34.253096,-126
13:28:34.253096,-32001
13:28:34.253096,-1
13:28:34.253096,-130
13:28:34.253096,-31233
13:28:34.253096,-1
13:28:34.253096,-104
13:28:34.253096,-23297
13:28:34.253096,-1
13:28:34.253096,-92
13:28:34.253096,-22529
13:28:34.253096,-1
13:28:34.253096,-99
13:28:34.253096,-28161
13:28:34.253096,-1
13:28:34.253096,-116
13:28:34.253096,-28673
13:28:34.253096,-1
13:28:34.253096,-104
13:28:34.253096,-25089
13:28:34.253096,-1
13:28:34.253096,-101
13:28:34.253096,-23297
13:28:34.253096,-1
13:28:34.253096,19
13:28:34.253096,-31232
13:28:34.253096,1
13:28:34.253096,948
13:28:34.253096,13312
13:28:34.253096,4
13:28:34.253096,140
13:28:34.253096,32000
13:28:34.253096,-4
13:28:34.253096,-649
13:28:34.253096,-16385
13:28:34.253096,-1
13:28:34.253096,-174
13:28:34.253096,-1
13:28:34.253096,-2
13:28:34.253096,-99
13:28:34.253096,-29441
13:28:34.253096,-1
13:28:34.253096,-169
13:28:34.253096,-29441
13:28:34.253096,-1
13:28:34.253096,-94
13:28:34.253096,-28673
13:28:34.253096,-1
13:28:34.253096,-99
13:28:34.253096,-20737
13:28:34.253096,-1
13:28:34.253096,-82
13:28:34.253096,-17665
13:28:34.253096,-1
13:28:34.253096,-50
13:28:34.792630,-41
13:28:34.792630,-7681
13:28:34.792630,-1
13:28:34.792630,-12
13:28:34.792630,1279
13:28:34.792630,0
13:28:34.792630,21
13:28:34.792630,12288
13:28:34.792630,0
13:28:34.792630,72
13:28:34.792630,22272
13:28:34.792630,0
13:28:34.792630,94
13:28:34.792630,27136
13:28:34.792630,0
13:28:34.792630,113
13:28:34.792630,25344
13:28:34.792630,0
13:28:34.792630,65
13:28:34.792630,3584
13:28:34.792630,0
13:28:34.792630,-48
13:28:34.792630,-27649
13:28:34.792630,-1
13:28:34.792630,-147
13:28:34.792630,21247
13:28:34.792630,-1
13:28:34.792630,-194
13:28:34.792630,14335
13:28:34.792630,-1
13:28:34.792630,-201
13:28:34.792630,13823
13:28:34.792630,-1
13:28:34.792630,-201
13:28:34.792630,16127
13:28:34.792630,-1
13:28:34.792630,-191
13:28:34.792630,17407
13:28:34.792630,-1
13:28:34.792630,-179
13:28:34.792630,21247
13:28:34.792630,-1
13:28:34.792630,-172
13:28:34.792630,23039
13:28:34.792630,-1
13:28:34.792630,-160
13:28:34.792630,26879
13:28:34.792630,-1
13:28:34.792630,-147
13:28:34.792630,29951
13:28:34.792630,-1
13:28:34.792630,-135
13:28:34.792630,31743
13:28:34.792630,-1
13:28:34.792630,-133
13:28:34.792630,32511
13:28:34.792630,-1
13:28:34.792630,-130
13:28:34.792630,31743
13:28:34.792630,-1
13:28:34.792630,-135
13:28:34.792630,31743
13:28:34.792630,-1
13:28:34.792630,-133
13:28:34.792630,30463
13:28:34.792630,-1
13:28:34.792630,-138
13:28:34.792630,31231
13:28:34.792630,-1
13:28:34.792630,-135
13:28:34.792630,31231
13:28:34.792630,-1
13:28:34.792630,-133
13:28:34.792630,31743
13:28:34.792630,-1
13:28:34.792630,-133
13:28:34.792630,31231
13:28:34.792630,-1
13:28:34.792630,-138
13:28:34.792630,29183
13:28:34.792630,-1
13:28:34.792630,-143
13:28:34.792630,29951
13:28:34.792630,-1
13:28:34.792630,-130
13:28:34.792630,-27649
13:28:34.792630,-1
13:28:34.792630,-99
13:28:34.792630,-26881
13:28:34.792630,-1
13:28:34.792630,-113
13:28:34.792630,-29953
13:28:34.792630,-1
13:28:34.792630,-123
13:28:34.792630,-32513
13:28:34.792630,-1
13:28:34.792630,-121
13:28:34.792630,-28673
13:28:34.792630,-1
13:28:34.792630,-111
13:28:34.792630,-28673
13:28:34.792630,-1
13:28:34.792630,-70
13:28:34.792630,-21249
13:28:34.792630,0
13:28:34.792630,710
13:28:34.792630,-19200
13:28:34.792630,4
13:28:34.792630,790
13:28:35.334056,-434
13:28:35.334056,-7169
13:28:35.334056,-4
13:28:35.334056,-198
13:28:35.334056,-25089
13:28:35.334056,-1
13:28:35.334056,-310
13:28:35.334056,18687
13:28:35.334056,-1
13:28:35.334056,-109
13:28:35.334056,18175
13:28:35.334056,-1
13:28:35.334056,-157
13:28:35.334056,-28673
13:28:35.334056,-1
13:28:35.334056,-133
13:28:35.334056,-32513
13:28:35.334056,-1
13:28:35.334056,-104
13:28:35.334056,-25601
13:28:35.334056,-1
13:28:35.334056,-99
13:28:35.334056,-21249
13:28:35.334056,-1
13:28:35.334056,-70
13:28:35.334056,-15105
13:28:35.334056,-1
13:28:35.334056,-48
13:28:35.334056,-7681
13:28:35.334056,-1
13:28:35.334056,-14
13:28:35.334056,767
13:28:35.334056,0
13:28:35.334056,21
13:28:35.334056,10496
13:28:35.334056,0
13:28:35.334056,55
13:28:35.334056,16128
13:28:35.334056,0
13:28:35.334056,65
13:28:35.334056,14848
13:28:35.334056,0
13:28:35.334056,36
13:28:35.334056,1024
13:28:35.334056,0
13:28:35.334056,-41
13:28:35.334056,-23809
13:28:35.334056,-1
13:28:35.334056,-140
13:28:35.334056,21759
13:28:35.334056,-1
13:28:35.334056,-191
13:28:35.334056,14335
13:28:35.334056,-1
13:28:35.334056,-203
13:28:35.334056,13823
13:28:35.334056,-1
13:28:35.334056,-201
13:28:35.334056,15615
13:28:35.334056,-1
13:28:35.334056,-194
13:28:35.334056,17407
13:28:35.334056,-1
13:28:35.334056,-184
13:28:35.334056,19967
13:28:35.334056,-1
13:28:35.334056,-177
13:28:35.334056,21759
13:28:35.334056,-1
13:28:35.334056,-167
13:28:35.334056,24319
13:28:35.334056,-1
13:28:35.334056,-160
13:28:35.334056,25599
13:28:35.334056,-1
13:28:35.334056,-152
13:28:35.334056,27391
13:28:35.334056,-1
13:28:35.334056,-147
13:28:35.334056,28671
13:28:35.334056,-1
13:28:35.334056,-145
13:28:35.334056,28671
13:28:35.334056,-1
13:28:35.334056,-145
13:28:35.334056,28671
13:28:35.334056,-1
13:28:35.334056,-145
13:28:35.334056,29183
13:28:35.334056,-1
13:28:35.334056,-140
13:28:35.334056,29951
13:28:35.334056,-1
13:28:35.334056,-140
13:28:35.334056,29951
13:28:35.334056,-1
13:28:35.334056,-140
13:28:35.334056,30463
13:28:35.334056,-1
13:28:35.334056,-138
13:28:35.334056,30463
13:28:35.334056,-1
13:28:35.334056,-140
13:28:35.334056,28159
13:28:35.334056,-1
13:28:35.334056,-147
13:28:35.334056,28671
13:28:35.334056,-1
13:28:35.334056,-130
13:28:35.918180,-111
13:28:35.918180,-26369
13:28:35.918180,-1
13:28:35.918180,-111
13:28:35.918180,-29441
13:28:35.918180,-1
13:28:35.918180,-113
13:28:35.918180,-28673
13:28:35.918180,-1
13:28:35.918180,-118
13:28:35.918180,-29441
13:28:35.918180,-1
13:28:35.918180,-111
13:28:35.918180,-28161
13:28:35.918180,-1
13:28:35.918180,-109
13:28:35.918180,-16385
13:28:35.918180,-1
13:28:35.918180,169
13:28:35.918180,-13056
13:28:35.918180,2
13:28:35.918180,1263
13:28:35.918180,-24576
13:28:35.918180,3
13:28:35.918180,-276
13:28:35.918180,13311
13:28:35.918180,-3
13:28:35.918180,-196
13:28:35.918180,-28673
13:28:35.918180,-1
13:28:35.918180,-320
13:28:35.918180,14335
13:28:35.918180,-1
13:28:35.918180,-130
13:28:35.918180,12031
13:28:35.918180,-1
13:28:35.918180,-186
13:28:35.918180,29951
13:28:35.918180,-1
13:28:35.918180,-155
13:28:35.918180,26879
13:28:35.918180,-1
13:28:35.918180,-123
13:28:35.918180,-30721
13:28:35.918180,-1
13:28:35.918180,-118
13:28:35.918180,-25601
13:28:35.918180,-1
13:28:35.918180,-89
13:28:35.918180,-20225
13:28:35.918180,-1
13:28:35.918180,-65
13:28:35.918180,-12545
13:28:35.918180,-1
13:28:35.918180,-36
13:28:35.918180,-4609
13:28:35.918180,-1
13:28:35.918180,0
13:28:35.918180,4864
13:28:35.918180,0
13:28:35.918180,31
13:28:35.918180,9728
13:28:35.918180,0
13:28:35.918180,38
13:28:35.918180,8448
13:28:35.918180,0
13:28:35.918180,19
13:28:35.918180,-3072
13:28:35.918180,-1
13:28:35.918180,-58
13:28:35.918180,-26881
13:28:35.918180,-1
13:28:35.918180,-150
13:28:35.918180,20479
13:28:35.918180,-1
13:28:35.918180,-194
13:28:35.918180,13055
13:28:35.918180,-1
13:28:35.918180,-206
13:28:35.918180,13823
13:28:35.918180,-1
13:28:35.918180,-201
13:28:35.918180,15103
13:28:35.918180,-1
13:28:35.918180,-194
13:28:35.918180,17407
13:28:35.918180,-1
13:28:35.918180,-184
13:28:35.918180,19455
13:28:35.918180,-1
13:28:35.918180,-179
13:28:35.918180,21247
13:28:35.918180,-1
13:28:35.918180,-169
13:28:35.918180,23039
13:28:35.918180,-1
13:28:35.918180,-162
13:28:35.918180,25599
13:28:35.918180,-1
13:28:35.918180,-155
13:28:35.918180,27391
13:28:35.918180,-1
13:28:35.918180,-145
13:28:35.918180,29183
13:28:35.918180,-1
13:28:35.918180,-143
13:28:35.918180,29951
13:28:35.918180,-1
13:28:35.918180,-140
13:28:36.503854,-140
13:28:36.503854,29951
13:28:36.503854,-1
13:28:36.503854,-138
13:28:36.503854,31231
13:28:36.503854,-1
13:28:36.503854,-138
13:28:36.503854,30463
13:28:36.503854,-1
13:28:36.503854,-135
13:28:36.503854,-32513
13:28:36.503854,-1
13:28:36.503854,-121
13:28:36.503854,-30721
13:28:36.503854,-1
13:28:36.503854,-123
13:28:36.503854,-30721
13:28:36.503854,-1
13:28:36.503854,-118
13:28:36.503854,-29953
13:28:36.503854,-1
13:28:36.503854,-116
13:28:36.503854,-28673
13:28:36.503854,-1
13:28:36.503854,-113
13:28:36.503854,-28673
13:28:36.503854,-1
13:28:36.503854,-118
13:28:36.503854,-31233
13:28:36.503854,-1
13:28:36.503854,-123
13:28:36.503854,-30721
13:28:36.503854,-1
13:28:36.503854,-113
13:28:36.503854,-24577
13:28:36.503854,-1
13:28:36.503854,-87
13:28:36.503854,-23297
13:28:36.503854,-1
13:28:36.503854,-99
13:28:36.503854,-26369
13:28:36.503854,-1
13:28:36.503854,-111
13:28:36.503854,-28673
13:28:36.503854,-1
13:28:36.503854,-109
13:28:36.503854,-25601
13:28:36.503854,-1
13:28:36.503854,-99
13:28:36.503854,-23809
13:28:36.503854,-1
13:28:36.503854,-41
13:28:36.503854,-12545
13:28:36.503854,0
13:28:36.503854,739
13:28:36.503854,-12544
13:28:36.503854,4
13:28:36.503854,846
13:28:36.503854,-12544
13:28:36.503854,-2
13:28:36.503854,-657
13:28:36.503854,24831
13:28:36.503854,-1
13:28:36.503854,-121
13:28:36.503854,-12289
13:28:36.503854,-2
13:28:36.503854,-179
13:28:36.503854,-32001
13:28:36.503854,-1
13:28:36.503854,-201
13:28:36.503854,21759
13:28:36.503854,-1
13:28:36.503854,-128
13:28:36.503854,28159
13:28:36.503854,-1
13:28:36.503854,-143
13:28:36.503854,-29441
13:28:36.503854,-1
13:28:36.503854,-111
13:28:36.503854,-27649
13:28:36.503854,-1
13:28:36.503854,-92
13:28:36.503854,-20225
13:28:36.503854,-1
13:28:36.503854,-72
13:28:36.503854,-14593
13:28:36.503854,-1
13:28:36.503854,-43
13:28:36.503854,-7681
13:28:36.503854,-1
13:28:36.503854,-14
13:28:36.503854,767
13:28:36.503854,0
13:28:36.503854,16
13:28:36.503854,7424
13:28:36.503854,0
13:28:36.503854,36
13:28:36.503854,9728
13:28:36.503854,0
13:28:36.503854,33
13:28:36.503854,6144
13:28:36.503854,0
13:28:36.503854,0
13:28:36.503854,-9216
13:28:36.503854,-1
13:28:36.503854,-82
13:28:36.503854,-32001
13:28:36.503854,-1
13:28:36.503854,-152
13:28:37.043623,-172
13:28:37.043623,18687
13:28:37.043623,-1
13:28:37.043623,-189
13:28:37.043623,18175
13:28:37.043623,-1
13:28:37.043623,-181
13:28:37.043623,20479
13:28:37.043623,-1
13:28:37.043623,-174
13:28:37.043623,22527
13:28:37.043623,-1
13:28:37.043623,-162
13:28:37.043623,24319
13:28:37.043623,-1
13:28:37.043623,-152
13:28:37.043623,29951
13:28:37.043623,-1
13:28:37.043623,-133
13:28:37.043623,31231
13:28:37.043623,-1
13:28:37.043623,-135
13:28:37.043623,31743
13:28:37.043623,-1
13:28:37.043623,-133
13:28:37.043623,-32513
13:28:37.043623,-1
13:28:37.043623,-128
13:28:37.043623,-32513
13:28:37.043623,-1
13:28:37.043623,-128
13:28:37.043623,-32001
13:28:37.043623,-1
13:28:37.043623,-126
13:28:37.043623,-32001
13:28:37.043623,-1
13:28:37.043623,-126
13:28:37.043623,-31233
13:28:37.043623,-1
13:28:37.043623,-126
13:28:37.043623,-32001
13:28:37.043623,-1
13:28:37.043623,-126
13:28:37.043623,-31233
13:28:37.043623,-1
13:28:37.043623,-128
13:28:37.043623,-32001
13:28:37.043623,-1
13:28:37.043623,-121
13:28:37.043623,-30721
13:28:37.043623,-1
13:28:37.043623,-123
13:28:37.043623,-30721
13:28:37.043623,-1
13:28:37.043623,-118
13:28:37.043623,-30721
13:28:37.043623,-1
13:28:37.043623,-121
13:28:37.043623,-31233
13:28:37.043623,-1
13:28:37.043623,-126
13:28:37.043623,-32513
13:28:37.043623,-1
13:28:37.043623,-128
13:28:37.043623,-31233
13:28:37.043623,-1
13:28:37.043623,-106
13:28:37.043623,-23297
13:28:37.043623,-1
13:28:37.043623,-94
13:28:37.043623,-25601
13:28:37.043623,-1
13:28:37.043623,-106
13:28:37.043623,-28161
13:28:37.043623,-1
13:28:37.043623,-111
13:28:37.043623,-27649
13:28:37.043623,-1
13:28:37.043623,-101
13:28:37.043623,-25601
13:28:37.043623,-1
13:28:37.043623,-101
13:28:37.043623,-20225
13:28:37.043623,-1
13:28:37.043623,65
13:28:37.043623,-9472
13:28:37.043623,1
13:28:37.043623,1033
13:28:37.043623,3328
13:28:37.043623,4
13:28:37.043623,21
13:28:37.043623,1280
13:28:37.043623,-3
13:28:37.043623,-378
13:28:37.043623,-11521
13:28:37.043623,-1
13:28:37.043623,-252
13:28:37.043623,5631
13:28:37.043623,-1
13:28:37.043623,-101
13:28:37.043623,24831
13:28:37.043623,-1
13:28:37.043623,-181
13:28:37.043623,-30721
13:28:37.043623,-1
13:28:37.043623,-121
13:28:37.043623,32511
13:28:37.043623,-1
13:28:37.043623,-106
13:28:37.628370,-92
13:28:37.628370,-22529
13:28:37.628370,-1
13:28:37.628370,-75
13:28:37.628370,-15873
13:28:37.628370,-1
13:28:37.628370,-55
13:28:37.628370,-10241
13:28:37.628370,-1
13:28:37.628370,-24
13:28:37.628370,-2817
13:28:37.628370,-1
13:28:37.628370,12
13:28:37.628370,8448
13:28:37.628370,0
13:28:37.628370,46
13:28:37.628370,15360
13:28:37.628370,0
13:28:37.628370,75
13:28:37.628370,19200
13:28:37.628370,0
13:28:37.628370,72
13:28:37.628370,16640
13:28:37.628370,0
13:28:37.628370,43
13:28:37.628370,512
13:28:37.628370,0
13:28:37.628370,-50
13:28:37.628370,-25089
13:28:37.628370,-1
13:28:37.628370,-130
13:28:37.628370,26111
13:28:37.628370,-1
13:28:37.628370,-172
13:28:37.628370,20479
13:28:37.628370,-1
13:28:37.628370,-177
13:28:37.628370,20479
13:28:37.628370,-1
13:28:37.628370,-172
13:28:37.628370,22527
13:28:37.628370,-1
13:28:37.628370,-164
13:28:37.628370,26111
13:28:37.628370,-1
13:28:37.628370,-150
13:28:37.628370,28159
13:28:37.628370,-1
13:28:37.628370,-140
13:28:37.628370,31743
13:28:37.628370,-1
13:28:37.628370,-135
13:28:37.628370,32511
13:28:37.628370,-1
13:28:37.628370,-126
13:28:37.628370,-32001
13:28:37.628370,-1
13:28:37.628370,-126
13:28:37.628370,-31233
13:28:37.628370,-1
13:28:37.628370,-121
13:28:37.628370,-29953
13:28:37.628370,-1
13:28:37.628370,-121
13:28:37.628370,-29953
13:28:37.628370,-1
13:28:37.628370,-113
13:28:37.628370,-28673
13:28:37.628370,-1
13:28:37.628370,-118
13:28:37.628370,-31233
13:28:37.628370,-1
13:28:37.628370,-121
13:28:37.628370,-29441
13:28:37.628370,-1
13:28:37.628370,-116
13:28:37.628370,-29441
13:28:37.628370,-1
13:28:37.628370,-111
13:28:37.628370,-27649
13:28:37.628370,-1
13:28:37.628370,-111
13:28:37.628370,-28161
13:28:37.628370,-1
13:28:37.628370,-113
13:28:37.628370,-28673
13:28:37.628370,-1
13:28:37.628370,-106
13:28:37.628370,-25089
13:28:37.628370,-1
13:28:37.628370,-97
13:28:37.628370,-25601
13:28:37.628370,-1
13:28:37.628370,-109
13:28:37.628370,-26881
13:28:37.628370,-1
13:28:37.628370,-109
13:28:37.628370,-26881
13:28:37.628370,-1
13:28:37.628370,-89
13:28:37.628370,-17665
13:28:37.628370,-1
13:28:37.628370,-67
13:28:37.628370,-18177
13:28:37.628370,-1
13:28:37.628370,-80
13:28:37.628370,-23297
13:28:37.628370,-1
13:28:37.628370,-94
13:28:38.213699,-89
13:28:38.213699,-21249
13:28:38.213699,-1
13:28:38.213699,-84
13:28:38.213699,-20737
13:28:38.213699,-1
13:28:38.213699,-67
13:28:38.213699,15615
13:28:38.213699,0
13:28:38.213699,446
13:28:38.213699,-12032
13:28:38.213699,3
13:28:38.213699,1004
13:28:38.213699,0
13:28:38.213699,0
13:28:38.213699,-906
13:28:38.213699,-4609
13:28:38.213699,-3
13:28:38.213699,-14
13:28:38.213699,21247
13:28:38.213699,-1
13:28:38.213699,-215
13:28:38.213699,-15873
13:28:38.213699,-1
13:28:38.213699,-104
13:28:38.213699,29183
13:28:38.213699,-1
13:28:38.213699,-80
13:28:38.213699,-18945
13:28:38.213699,-1
13:28:38.213699,-97
13:28:38.213699,-18945
13:28:38.213699,-1
13:28:38.213699,-55
13:28:38.213699,-13825
13:28:38.213699,-1
13:28:38.213699,-48
13:28:38.213699,-7681
13:28:38.213699,-1
13:28:38.213699,-16
13:28:38.213699,-2049
13:28:38.213699,-1
13:28:38.213699,2
13:28:38.213699,6144
13:28:38.213699,0
13:28:38.213699,41
13:28:38.213699,15360
13:28:38.213699,0
13:28:38.213699,80
13:28:38.213699,23552
13:28:38.213699,0
13:28:38.213699,101
13:28:38.213699,28416
13:28:38.213699,0
13:28:38.213699,106
13:28:38.213699,24064
13:28:38.213699,0
13:28:38.213699,75
13:28:38.213699,7936
13:28:38.213699,0
13:28:38.213699,-29
13:28:38.213699,-19457
13:28:38.213699,-1
13:28:38.213699,-123
13:28:38.213699,24319
13:28:38.213699,-1
13:28:38.213699,-179
13:28:38.213699,19455
13:28:38.213699,-1
13:28:38.213699,-186
13:28:38.213699,17407
13:28:38.213699,-1
13:28:38.213699,-189
13:28:38.213699,19455
13:28:38.213699,-1
13:28:38.213699,-172
13:28:38.213699,21759
13:28:38.213699,-1
13:28:38.213699,-169
13:28:38.213699,24831
13:28:38.213699,-1
13:28:38.213699,-157
13:28:38.213699,25599
13:28:38.213699,-1
13:28:38.213699,-143
13:28:38.213699,32511
13:28:38.213699,-1
13:28:38.213699,-128
13:28:38.213699,32511
13:28:38.213699,-1
13:28:38.213699,-128
13:28:38.213699,-31233
13:28:38.213699,-1
13:28:38.213699,-123
13:28:38.213699,-30721
13:28:38.213699,-1
13:28:38.213699,-118
13:28:38.213699,-32001
13:28:38.213699,-1
13:28:38.213699,-126
13:28:38.213699,-31233
13:28:38.213699,-1
13:28:38.213699,-128
13:28:38.213699,-32513
13:28:38.213699,-1
13:28:38.213699,-128
13:28:38.213699,32511
13:28:38.213699,-1
13:28:38.213699,-128
13:28:38.709568,-123
13:28:38.709568,-32001
13:28:38.709568,-1
13:28:38.709568,-128
13:28:38.709568,-32513
13:28:38.709568,-1
13:28:38.709568,-130
13:28:38.709568,31231
13:28:38.709568,-1
13:28:38.709568,-135
13:28:38.709568,-32513
13:28:38.709568,-1
13:28:38.709568,-116
13:28:38.709568,-24577
13:28:38.709568,-1
13:28:38.709568,-94
13:28:38.709568,-25601
13:28:38.709568,-1
13:28:38.709568,-109
13:28:38.709568,-29953
13:28:38.709568,-1
13:28:38.709568,-116
13:28:38.709568,-28161
13:28:38.709568,-1
13:28:38.709568,-104
13:28:38.709568,-25601
13:28:38.709568,-1
13:28:38.709568,-99
13:28:38.709568,-23297
13:28:38.709568,-1
13:28:38.709568,-24
13:28:38.709568,1023
13:28:38.709568,1
13:28:38.709568,800
13:28:38.709568,31488
13:28:38.709568,4
13:28:38.709568,492
13:28:38.709568,17408
13:28:38.709568,-3
13:28:38.709568,-797
13:28:38.709568,29951
13:28:38.709568,-1
13:28:38.709568,-111
13:28:38.709568,-6657
13:28:38.709568,-2
13:28:38.709568,-135
13:28:38.709568,-24577
13:28:38.709568,-1
13:28:38.709568,-177
13:28:38.709568,29951
13:28:38.709568,-1
13:28:38.709568,-101
13:28:38.709568,-30721
13:28:38.709568,-1
13:28:38.709568,-111
13:28:38.709568,-22529
13:28:38.709568,-1
13:28:38.709568,-89
13:28:38.709568,-20225
13:28:38.709568,-1
13:28:38.709568,-63
13:28:38.709568,-12545
13:28:38.709568,-1
13:28:38.709568,-43
13:28:38.709568,-6401
13:28:38.709568,-1
13:28:38.709568,-4
13:28:38.709568,3327
13:28:38.709568,0
13:28:38.709568,29
13:28:38.709568,12800
13:28:38.709568,0
13:28:38.709568,75
13:28:38.709568,24064
13:28:38.709568,0
13:28:38.709568,99
13:28:38.709568,22784
13:28:38.709568,0
13:28:38.709568,80
13:28:38.709568,15360
13:28:38.709568,0
13:28:38.709568,21
13:28:38.709568,-9728
13:28:38.709568,-1
13:28:38.709568,-101
13:28:38.709568,27391
13:28:38.709568,-1
13:28:38.709568,-177
13:28:38.709568,15615
13:28:38.709568,-1
13:28:38.709568,-208
13:28:38.709568,12543
13:28:38.709568,-1
13:28:38.709568,-206
13:28:38.709568,13055
13:28:38.709568,-1
13:28:38.709568,-201
13:28:38.709568,15615
13:28:38.709568,-1
13:28:38.709568,-196
13:28:38.709568,17407
13:28:38.709568,-1
13:28:38.709568,-181
13:28:38.709568,20479
13:28:38.709568,-1
13:28:38.709568,-172
13:28:38.709568,23807
13:28:38.709568,-1
13:28:38.709568,-157
13:28:39.248522,-152
13:28:39.248522,28159
13:28:39.248522,-1
13:28:39.248522,-147
13:28:39.248522,28671
13:28:39.248522,-1
13:28:39.248522,-140
13:28:39.248522,31231
13:28:39.248522,-1
13:28:39.248522,-128
13:28:39.248522,-32001
13:28:39.248522,-1
13:28:39.248522,-130
13:28:39.248522,32511
13:28:39.248522,-1
13:28:39.248522,-128
13:28:39.248522,31743
13:28:39.248522,-1
13:28:39.248522,-133
13:28:39.248522,32511
13:28:39.248522,-1
13:28:39.248522,-130
13:28:39.248522,31743
13:28:39.248522,-1
13:28:39.248522,-130
13:28:39.248522,-32513
13:28:39.248522,-1
13:28:39.248522,-130
13:28:39.248522,30463
13:28:39.248522,-1
13:28:39.248522,-140
13:28:39.248522,30463
13:28:39.248522,-1
13:28:39.248522,-133
13:28:39.248522,-29953
13:28:39.248522,-1
13:28:39.248522,-101
13:28:39.248522,-25089
13:28:39.248522,-1
13:28:39.248522,-106
13:28:39.248522,-27649
13:28:39.248522,-1
13:28:39.248522,-113
13:28:39.248522,-29953
13:28:39.248522,-1
13:28:39.248522,-121
13:28:39.248522,-28161
13:28:39.248522,-1
13:28:39.248522,-104
13:28:39.248522,-26369
13:28:39.248522,-1
13:28:39.248522,-101
13:28:39.248522,-5889
13:28:39.248522,-1
13:28:39.248522,291
13:28:39.248522,28672
13:28:39.248522,3
13:28:39.248522,1248
13:28:39.248522,9728
13:28:39.248522,2
13:28:39.248522,-630
13:28:39.248522,28159
13:28:39.248522,-3
13:28:39.248522,-84
13:28:39.248522,24319
13:28:39.248522,-1
13:28:39.248522,-305
13:28:39.248522,29183
13:28:39.248522,-1
13:28:39.248522,-130
13:28:39.248522,14335
13:28:39.248522,-1
13:28:39.248522,-152
13:28:39.248522,-31233
13:28:39.248522,-1
13:28:39.248522,-145
13:28:39.248522,-32513
13:28:39.248522,-1
13:28:39.248522,-104
13:28:39.248522,-26369
13:28:39.248522,-1
13:28:39.248522,-97
13:28:39.248522,-20225
13:28:39.248522,-1
13:28:39.248522,-70
13:28:39.248522,-15105
13:28:39.248522,-1
13:28:39.248522,-43
13:28:39.248522,-6401
13:28:39.248522,-1
13:28:39.248522,-12
13:28:39.248522,2559
13:28:39.248522,0
13:28:39.248522,31
13:28:39.248522,12288
13:28:39.248522,0
13:28:39.248522,63
13:28:39.248522,18432
13:28:39.248522,0
13:28:39.248522,67
13:28:39.248522,14080
13:28:39.248522,0
13:28:39.248522,36
13:28:39.248522,0
13:28:39.248522,0
13:28:39.248522,-50
13:28:39.248522,-25601
13:28:39.248522,-1
13:28:39.248522,-143
13:28:39.878384,-174
13:28:39.878384,16895
13:28:39.878384,-1
13:28:39.878384,-198
13:28:39.878384,16127
13:28:39.878384,-1
13:28:39.878384,-186
13:28:39.878384,18175
13:28:39.878384,-1
13:28:39.878384,-184
13:28:39.878384,20479
13:28:39.878384,-1
13:28:39.878384,-172
13:28:39.878384,23039
13:28:39.878384,-1
13:28:39.878384,-164
13:28:39.878384,24319
13:28:39.878384,-1
13:28:39.878384,-157
13:28:39.878384,26879
13:28:39.878384,-1
13:28:39.878384,-147
13:28:39.878384,28671
13:28:39.878384,-1
13:28:39.878384,-143
13:28:39.878384,29951
13:28:39.878384,-1
13:28:39.878384,-140
13:28:39.878384,29951
13:28:39.878384,-1
13:28:39.878384,-135
13:28:39.878384,32511
13:28:39.878384,-1
13:28:39.878384,-128
13:28:39.878384,-32513
13:28:39.878384,-1
13:28:39.878384,-133
13:28:39.878384,31743
13:28:39.878384,-1
13:28:39.878384,-130
13:28:39.878384,-32513
13:28:39.878384,-1
13:28:39.878384,-130
13:28:39.878384,32511
13:28:39.878384,-1
13:28:39.878384,-130
13:28:39.878384,-32513
13:28:39.878384,-1
13:28:39.878384,-128
13:28:39.878384,-32001
13:28:39.878384,-1
13:28:39.878384,-126
13:28:39.878384,-31233
13:28:39.878384,-1
13:28:39.878384,-128
13:28:39.878384,31743
13:28:39.878384,-1
13:28:39.878384,-130
13:28:39.878384,-32001
13:28:39.878384,-1
13:28:39.878384,-113
13:28:39.878384,-24577
13:28:39.878384,-1
13:28:39.878384,-94
13:28:39.878384,-25089
13:28:39.878384,-1
13:28:39.878384,-104
13:28:39.878384,-27649
13:28:39.878384,-1
13:28:39.878384,-113
13:28:39.878384,-29953
13:28:39.878384,-1
13:28:39.878384,-111
13:28:39.878384,-26369
13:28:39.878384,-1
13:28:39.878384,-104
13:28:39.878384,-25089
13:28:39.878384,-1
13:28:39.878384,-41
13:28:39.878384,-5121
13:28:39.878384,0
13:28:39.878384,817
13:28:39.878384,2560
13:28:39.878384,5
13:28:39.878384,778
13:28:39.878384,24320
13:28:39.878384,-2
13:28:39.878384,-654
13:28:39.878384,32511
13:28:39.878384,-1
13:28:39.878384,-150
13:28:39.878384,-16129
13:28:39.878384,-2
13:28:39.878384,-174
13:28:39.878384,30463
13:28:39.878384,-1
13:28:39.878384,-213
13:28:39.878384,20479
13:28:39.878384,-1
13:28:39.878384,-138
13:28:39.878384,25599
13:28:39.878384,-1
13:28:39.878384,-145
13:28:39.878384,-30721
13:28:39.878384,-1
13:28:39.878384,-118
13:28:39.878384,-28673
13:28:39.878384,-1
13:28:39.878384,-97
13:28:40.418407,-87
13:28:40.418407,-19457
13:28:40.418407,-1
13:28:40.418407,-63
13:28:40.418407,-12545
13:28:40.418407,-1
13:28:40.418407,-36
13:28:40.418407,-4609
13:28:40.418407,-1
13:28:40.418407,0
13:28:40.418407,4864
13:28:40.418407,0
13:28:40.418407,31
13:28:40.418407,9216
13:28:40.418407,0
13:28:40.418407,36
13:28:40.418407,7936
13:28:40.418407,0
13:28:40.418407,21
13:28:40.418407,0
13:28:40.418407,0
13:28:40.418407,-46
13:28:40.418407,-25089
13:28:40.418407,-1
13:28:40.418407,-138
13:28:40.418407,23807
13:28:40.418407,-1
13:28:40.418407,-186
13:28:40.418407,15615
13:28:40.418407,-1
13:28:40.418407,-201
13:28:40.418407,14335
13:28:40.418407,-1
13:28:40.418407,-196
13:28:40.418407,16895
13:28:40.418407,-1
13:28:40.418407,-186
13:28:40.418407,18687
13:28:40.418407,-1
13:28:40.418407,-181
13:28:40.418407,20479
13:28:40.418407,-1
13:28:40.418407,-169
13:28:40.418407,23039
13:28:40.418407,-1
13:28:40.418407,-164
13:28:40.418407,24319
13:28:40.418407,-1
13:28:40.418407,-157
13:28:40.418407,26111
13:28:40.418407,-1
13:28:40.418407,-152
13:28:40.418407,28159
13:28:40.418407,-1
13:28:40.418407,-145
13:28:40.418407,28671
13:28:40.418407,-1
13:28:40.418407,-143
13:28:40.418407,29183
13:28:40.418407,-1
13:28:40.418407,-143
13:28:40.418407,29183
13:28:40.418407,-1
13:28:40.418407,-143
13:28:40.418407,29183
13:28:40.418407,-1
13:28:40.418407,-140
13:28:40.418407,30463
13:28:40.418407,-1
13:28:40.418407,-138
13:28:40.418407,30463
13:28:40.418407,-1
13:28:40.418407,-138
13:28:40.418407,30463
13:28:40.418407,-1
13:28:40.418407,-135
13:28:40.418407,31231
13:28:40.418407,-1
13:28:40.418407,-135
13:28:40.418407,31231
13:28:40.418407,-1
13:28:40.418407,-133
13:28:40.418407,30463
13:28:40.418407,-1
13:28:40.418407,-140
13:28:40.418407,29183
13:28:40.418407,-1
13:28:40.418407,-143
13:28:40.418407,30463
13:28:40.418407,-1
13:28:40.418407,-123
13:28:40.418407,-26369
13:28:40.418407,-1
13:28:40.418407,-101
13:28:40.418407,-27649
13:28:40.418407,-1
13:28:40.418407,-113
13:28:40.418407,-30721
13:28:40.418407,-1
13:28:40.418407,-123
13:28:40.418407,-32001
13:28:40.418407,-1
13:28:40.418407,-118
13:28:40.418407,-29441
13:28:40.418407,-1
13:28:40.418407,-113
13:28:40.418407,-26369
13:28:40.418407,-1
13:28:40.418407,0
13:28:40.958397,358
13:28:40.958397,-18176
13:28:40.958397,3
13:28:40.958397,1193
13:28:40.958397,29952
13:28:40.958397,1
13:28:40.958397,-637
13:28:40.958397,3583
13:28:40.958397,-2
13:28:40.958397,-70
13:28:40.958397,6911
13:28:40.958397,-1
13:28:40.958397,-293
13:28:40.958397,31231
13:28:40.958397,-1
13:28:40.958397,-155
13:28:40.958397,13823
13:28:40.958397,-1
13:28:40.958397,-152
13:28:40.958397,30463
13:28:40.958397,-1
13:28:40.958397,-155
13:28:40.958397,31231
13:28:40.958397,-1
13:28:40.958397,-116
13:28:40.958397,-29441
13:28:40.958397,-1
13:28:40.958397,-106
13:28:40.958397,-22529
13:28:40.958397,-1
13:28:40.958397,-80
13:28:40.958397,-17665
13:28:40.958397,-1
13:28:40.958397,-53
13:28:40.958397,-10753
13:28:40.958397,-1
13:28:40.958397,-29
13:28:40.958397,-2817
13:28:40.958397,-1
13:28:40.958397,4
13:28:40.958397,4864
13:28:40.958397,0
13:28:40.958397,31
13:28:40.958397,9216
13:28:40.958397,0
13:28:40.958397,33
13:28:40.958397,6144
13:28:40.958397,0
13:28:40.958397,7
13:28:40.958397,-5376
13:28:40.958397,-1
13:28:40.958397,-67
13:28:40.958397,-28161
13:28:40.958397,-1
13:28:40.958397,-147
13:28:40.958397,21759
13:28:40.958397,-1
13:28:40.958397,-189
13:28:40.958397,15615
13:28:40.958397,-1
13:28:40.958397,-198
13:28:40.958397,15103
13:28:40.958397,-1
13:28:40.958397,-196
13:28:40.958397,16895
13:28:40.958397,-1
13:28:40.958397,-186
13:28:40.958397,19967
13:28:40.958397,-1
13:28:40.958397,-174
13:28:40.958397,21247
13:28:40.958397,-1
13:28:40.958397,-172
13:28:40.958397,23039
13:28:40.958397,-1
13:28:40.958397,-162
13:28:40.958397,24831
13:28:40.958397,-1
13:28:40.958397,-155
13:28:40.958397,27391
13:28:40.958397,-1
13:28:40.958397,-150
13:28:40.958397,28159
13:28:40.958397,-1
13:28:40.958397,-145
13:28:40.958397,28671
13:28:40.958397,-1
13:28:40.958397,-145
13:28:40.958397,29951
13:28:40.958397,-1
13:28:40.958397,-140
13:28:40.958397,29951
13:28:40.958397,-1
13:28:40.958397,-140
13:28:40.958397,29951
13:28:40.958397,-1
13:28:40.958397,-140
13:28:40.958397,30463
13:28:40.958397,-1
13:28:40.958397,-138
13:28:40.958397,30463
13:28:40.958397,-1
13:28:40.958397,-130
13:28:40.958397,-32001
13:28:40.958397,-1
13:28:40.958397,-130
13:28:40.958397,32511
13:28:40.958397,-1
13:28:40.958397,-126
13:28:41.543804,-123
13:28:41.543804,32511
13:28:41.543804,-1
13:28:41.543804,-135
13:28:41.543804,30463
13:28:41.543804,-1
13:28:41.543804,-135
13:28:41.543804,32511
13:28:41.543804,-1
13:28:41.543804,-111
13:28:41.543804,-22017
13:28:41.543804,-1
13:28:41.543804,-84
13:28:41.543804,-22529
13:28:41.543804,-1
13:28:41.543804,-97
13:28:41.543804,-26369
13:28:41.543804,-1
13:28:41.543804,-111
13:28:41.543804,-27649
13:28:41.543804,-1
13:28:41.543804,-97
13:28:41.543804,-23297
13:28:41.543804,-1
13:28:41.543804,-94
13:28:41.543804,-21249
13:28:41.543804,-1
13:28:41.543804,4
13:28:41.543804,15616
13:28:41.543804,1
13:28:41.543804,858
13:28:41.543804,25856
13:28:41.543804,4
13:28:41.543804,368
13:28:41.543804,16128
13:28:41.543804,-3
13:28:41.543804,-615
13:28:41.543804,-17665
13:28:41.543804,-1
13:28:41.543804,-160
13:28:41.543804,-1025
13:28:41.543804,-2
13:28:41.543804,-109
13:28:41.543804,-29953
13:28:41.543804,-1
13:28:41.543804,-172
13:28:41.543804,-29953
13:28:41.543804,-1
13:28:41.543804,-101
13:28:41.543804,-30721
13:28:41.543804,-1
13:28:41.543804,-101
13:28:41.543804,-22529
13:28:41.543804,-1
13:28:41.543804,-87
13:28:41.543804,-16897
13:28:41.543804,-1
13:28:41.543804,-50
13:28:41.543804,-12033
13:28:41.543804,-1
13:28:41.543804,-38
13:28:41.543804,-3841
13:28:41.543804,-1
13:28:41.543804,2
13:28:41.543804,3072
13:28:41.543804,0
13:28:41.543804,29
13:28:41.543804,12800
13:28:41.543804,0
13:28:41.543804,65
13:28:41.543804,19712
13:28:41.543804,0
13:28:41.543804,84
13:28:41.543804,22272
13:28:41.543804,0
13:28:41.543804,77
13:28:41.543804,14080
13:28:41.543804,0
13:28:41.543804,24
13:28:41.543804,-6144
13:28:41.543804,-1
13:28:41.543804,-77
13:28:41.543804,-31233
13:28:41.543804,-1
13:28:41.543804,-152
13:28:41.543804,21247
13:28:41.543804,-1
13:28:41.543804,-184
13:28:41.543804,19455
13:28:41.543804,-1
13:28:41.543804,-179
13:28:41.543804,19967
13:28:41.543804,-1
13:28:41.543804,-177
13:28:41.543804,23039
13:28:41.543804,-1
13:28:41.543804,-162
13:28:41.543804,24831
13:28:41.543804,-1
13:28:41.543804,-155
13:28:41.543804,27391
13:28:41.543804,-1
13:28:41.543804,-147
13:28:41.543804,30463
13:28:41.543804,-1
13:28:41.543804,-128
13:28:41.543804,32511
13:28:41.543804,-1
13:28:41.543804,-133
13:28:42.083046,-128
13:28:42.083046,-31233
13:28:42.083046,-1
13:28:42.083046,-123
13:28:42.083046,-31233
13:28:42.083046,-1
13:28:42.083046,-118
13:28:42.083046,-29953
13:28:42.083046,-1
13:28:42.083046,-118
13:28:42.083046,-29441
13:28:42.083046,-1
13:28:42.083046,-118
13:28:42.083046,-29441
13:28:42.083046,-1
13:28:42.083046,-109
13:28:42.083046,-24577
13:28:42.083046,-1
13:28:42.083046,-104
13:28:42.083046,-28673
13:28:42.083046,-1
13:28:42.083046,-109
13:28:42.083046,-26369
13:28:42.083046,-1
13:28:42.083046,-104
13:28:42.083046,-26369
13:28:42.083046,-1
13:28:42.083046,-101
13:28:42.083046,-25089
13:28:42.083046,-1
13:28:42.083046,-94
13:28:42.083046,-25089
13:28:42.083046,-1
13:28:42.083046,-113
13:28:42.083046,-28161
13:28:42.083046,-1
13:28:42.083046,-104
13:28:42.083046,-24577
13:28:42.083046,-1
13:28:42.083046,-82
13:28:42.083046,-16897
13:28:42.083046,-1
13:28:42.083046,-70
13:28:42.083046,-20737
13:28:42.083046,-1
13:28:42.083046,-89
13:28:42.083046,-23297
13:28:42.083046,-1
13:28:42.083046,-97
13:28:42.083046,-23297
13:28:42.083046,-1
13:28:42.083046,-84
13:28:42.083046,-20737
13:28:42.083046,-1
13:28:42.083046,-80
13:28:42.083046,-13313
13:28:42.083046,-1
13:28:42.083046,111
13:28:42.083046,10240
13:28:42.083046,2
13:28:42.083046,1069
13:28:42.083046,-30208
13:28:42.083046,3
13:28:42.083046,-244
13:28:42.083046,14847
13:28:42.083046,-4
13:28:42.083046,-421
13:28:42.083046,-3329
13:28:42.083046,-1
13:28:42.083046,-223
13:28:42.083046,16127
13:28:42.083046,-1
13:28:42.083046,-53
13:28:42.083046,-30721
13:28:42.083046,-1
13:28:42.083046,-140
13:28:42.083046,-18945
13:28:42.083046,-1
13:28:42.083046,-82
13:28:42.083046,-23809
13:28:42.083046,-1
13:28:42.083046,-65
13:28:42.083046,-15873
13:28:42.083046,-1
13:28:42.083046,-63
13:28:42.083046,-10241
13:28:42.083046,-1
13:28:42.083046,-29
13:28:42.083046,-5889
13:28:42.083046,-1
13:28:42.083046,-12
13:28:42.083046,2047
13:28:42.083046,0
13:28:42.083046,24
13:28:42.083046,10496
13:28:42.083046,0
13:28:42.083046,65
13:28:42.083046,21504
13:28:42.083046,0
13:28:42.083046,101
13:28:42.083046,27136
13:28:42.083046,0
13:28:42.083046,113
13:28:42.083046,30208
13:28:42.083046,0
13:28:42.083046,99
13:28:42.083046,16640
13:28:42.083046,0
13:28:42.083046,26
13:28:42.623440,-31
13:28:42.623440,-23809
13:28:42.623440,-1
13:28:42.623440,-138
13:28:42.623440,23039
13:28:42.623440,-1
13:28:42.623440,-186
13:28:42.623440,17407
13:28:42.623440,-1
13:28:42.623440,-184
13:28:42.623440,17407
13:28:42.623440,-1
13:28:42.623440,-184
13:28:42.623440,22527
13:28:42.623440,-1
13:28:42.623440,-164
13:28:42.623440,22527
13:28:42.623440,-1
13:28:42.623440,-164
13:28:42.623440,26879
13:28:42.623440,-1
13:28:42.623440,-150
13:28:42.623440,28671
13:28:42.623440,-1
13:28:42.623440,-135
13:28:42.623440,32511
13:28:42.623440,-1
13:28:42.623440,-135
13:28:42.623440,31743
13:28:42.623440,-1
13:28:42.623440,-126
13:28:42.623440,-29953
13:28:42.623440,-1
13:28:42.623440,-118
13:28:42.623440,-30721
13:28:42.623440,-1
13:28:42.623440,-123
13:28:42.623440,-32001
13:28:42.623440,-1
13:28:42.623440,-123
13:28:42.623440,-31233
13:28:42.623440,-1
13:28:42.623440,-128
13:28:42.623440,32511
13:28:42.623440,-1
13:28:42.623440,-130
13:28:42.623440,31743
13:28:42.623440,-1
13:28:42.623440,-130
13:28:42.623440,-32001
13:28:42.623440,-1
13:28:42.623440,-130
13:28:42.623440,31231
13:28:42.623440,-1
13:28:42.623440,-138
13:28:42.623440,30463
13:28:42.623440,-1
13:28:42.623440,-135
13:28:42.623440,32511
13:28:42.623440,-1
13:28:42.623440,-111
13:28:42.623440,-23809
13:28:42.623440,-1
13:28:42.623440,-97
13:28:42.623440,-26881
13:28:42.623440,-1
13:28:42.623440,-116
13:28:42.623440,-31233
13:28:42.623440,-1
13:28:42.623440,-121
13:28:42.623440,-29953
13:28:42.623440,-1
13:28:42.623440,-116
13:28:42.623440,-29441
13:28:42.623440,-1
13:28:42.623440,-111
13:28:42.623440,-25089
13:28:42.623440,-1
13:28:42.623440,9
13:28:42.623440,32512
13:28:42.623440,1
13:28:42.623440,953
13:28:42.623440,16384
13:28:42.623440,4
13:28:42.623440,147
13:28:42.623440,-28672
13:28:42.623440,-4
13:28:42.623440,-618
13:28:42.623440,-14593
13:28:42.623440,-1
13:28:42.623440,-196
13:28:42.623440,-3585
13:28:42.623440,-2
13:28:42.623440,-106
13:28:42.623440,32511
13:28:42.623440,-1
13:28:42.623440,-184
13:28:42.623440,-31233
13:28:42.623440,-1
13:28:42.623440,-104
13:28:42.623440,-32001
13:28:42.623440,-1
13:28:42.623440,-106
13:28:42.623440,-22017
13:28:42.623440,-1
13:28:42.623440,-89
13:28:42.623440,-20225
13:28:42.623440,-1
13:28:42.623440,-65
13:28:43.253990,-53
13:28:43.253990,-9473
13:28:43.253990,-1
13:28:43.253990,-19
13:28:43.253990,-769
13:28:43.253990,-1
13:28:43.253990,16
13:28:43.253990,11776
13:28:43.253990,0
13:28:43.253990,70
13:28:43.253990,22272
13:28:43.253990,0
13:28:43.253990,97
13:28:43.253990,25856
13:28:43.253990,0
13:28:43.253990,99
13:28:43.253990,20992
13:28:43.253990,0
13:28:43.253990,53
13:28:43.253990,1024
13:28:43.253990,0
13:28:43.253990,-53
13:28:43.253990,-28161
13:28:43.253990,-1
13:28:43.253990,-155
13:28:43.253990,19455
13:28:43.253990,-1
13:28:43.253990,-196
13:28:43.253990,13823
13:28:43.253990,-1
13:28:43.253990,-206
13:28:43.253990,13823
13:28:43.253990,-1
13:28:43.253990,-198
13:28:43.253990,16127
13:28:43.253990,-1
13:28:43.253990,-194
13:28:43.253990,18175
13:28:43.253990,-1
13:28:43.253990,-181
13:28:43.253990,20479
13:28:43.253990,-1
13:28:43.253990,-172
13:28:43.253990,23807
13:28:43.253990,-1
13:28:43.253990,-162
13:28:43.253990,25599
13:28:43.253990,-1
13:28:43.253990,-150
13:28:43.253990,28671
13:28:43.253990,-1
13:28:43.253990,-145
13:28:43.253990,29951
13:28:43.253990,-1
13:28:43.253990,-138
13:28:43.253990,31743
13:28:43.253990,-1
13:28:43.253990,-135
13:28:43.253990,30463
13:28:43.253990,-1
13:28:43.253990,-138
13:28:43.253990,30463
13:28:43.253990,-1
13:28:43.253990,-138
13:28:43.253990,29951
13:28:43.253990,-1
13:28:43.253990,-140
13:28:43.253990,30463
13:28:43.253990,-1
13:28:43.253990,-135
13:28:43.253990,30463
13:28:43.253990,-1
13:28:43.253990,-140
13:28:43.253990,29951
13:28:43.253990,-1
13:28:43.253990,-140
13:28:43.253990,29183
13:28:43.253990,-1
13:28:43.253990,-143
13:28:43.253990,29183
13:28:43.253990,-1
13:28:43.253990,-133
13:28:43.253990,-28161
13:28:43.253990,-1
13:28:43.253990,-101
13:28:43.253990,-26369
13:28:43.253990,-1
13:28:43.253990,-109
13:28:43.253990,-29441
13:28:43.253990,-1
13:28:43.253990,-123
13:28:43.253990,-32001
13:28:43.253990,-1
13:28:43.253990,-118
13:28:43.253990,-28161
13:28:43.253990,-1
13:28:43.253990,-111
13:28:43.253990,-27649
13:28:43.253990,-1
13:28:43.253990,-77
13:28:43.253990,31743
13:28:43.253990,0
13:28:43.253990,637
13:28:43.253990,-13056
13:28:43.253990,4
13:28:43.253990,1020
13:28:43.253990,15360
13:28:43.253990,-1
13:28:43.253990,-805
13:28:43.790587,-269
13:28:43.790587,-17665
13:28:43.790587,-1
13:28:43.790587,-307
13:28:43.790587,9983
13:28:43.790587,-1
13:28:43.790587,-111
13:28:43.790587,16127
13:28:43.790587,-1
13:28:43.790587,-184
13:28:43.790587,-32513
13:28:43.790587,-1
13:28:43.790587,-140
13:28:43.790587,28671
13:28:43.790587,-1
13:28:43.790587,-118
13:28:43.790587,-28161
13:28:43.790587,-1
13:28:43.790587,-104
13:28:43.790587,-21249
13:28:43.790587,-1
13:28:43.790587,-65
13:28:43.790587,-13825
13:28:43.790587,-1
13:28:43.790587,-46
13:28:43.790587,-7681
13:28:43.790587,-1
13:28:43.790587,-16
13:28:43.790587,767
13:28:43.790587,0
13:28:43.790587,24
13:28:43.790587,10496
13:28:43.790587,0
13:28:43.790587,53
13:28:43.790587,16640
13:28:43.790587,0
13:28:43.790587,70
13:28:43.790587,16128
13:28:43.790587,0
13:28:43.790587,48
13:28:43.790587,5376
13:28:43.790587,0
13:28:43.790587,-26
13:28:43.790587,-20737
13:28:43.790587,-1
13:28:43.790587,-123
13:28:43.790587,26111
13:28:43.790587,-1
13:28:43.790587,-179
13:28:43.790587,16895
13:28:43.790587,-1
13:28:43.790587,-196
13:28:43.790587,15615
13:28:43.790587,-1
13:28:43.790587,-194
13:28:43.790587,18175
13:28:43.790587,-1
13:28:43.790587,-181
13:28:43.790587,19967
13:28:43.790587,-1
13:28:43.790587,-174
13:28:43.790587,22527
13:28:43.790587,-1
13:28:43.790587,-164
13:28:43.790587,24319
13:28:43.790587,-1
13:28:43.790587,-157
13:28:43.790587,26111
13:28:43.790587,-1
13:28:43.790587,-152
13:28:43.790587,27391
13:28:43.790587,-1
13:28:43.790587,-145
13:28:43.790587,29951
13:28:43.790587,-1
13:28:43.790587,-135
13:28:43.790587,31231
13:28:43.790587,-1
13:28:43.790587,-135
13:28:43.790587,31743
13:28:43.790587,-1
13:28:43.790587,-130
13:28:43.790587,31743
13:28:43.790587,-1
13:28:43.790587,-130
13:28:43.790587,32511
13:28:43.790587,-1
13:28:43.790587,-130
13:28:43.790587,-32513
13:28:43.790587,-1
13:28:43.790587,-128
13:28:43.790587,-32513
13:28:43.790587,-1
13:28:43.790587,-128
13:28:43.790587,-32513
13:28:43.790587,-1
13:28:43.790587,-133
13:28:43.790587,30463
13:28:43.790587,-1
13:28:43.790587,-140
13:28:43.790587,30463
13:28:43.790587,-1
13:28:43.790587,-130
13:28:43.790587,-28673
13:28:43.790587,-1
13:28:43.790587,-99
13:28:43.790587,-25089
13:28:43.790587,-1
13:28:43.790587,-106
13:28:44.331361,-111
13:28:44.331361,-29441
13:28:44.331361,-1
13:28:44.331361,-123
13:28:44.331361,-31233
13:28:44.331361,-1
13:28:44.331361,-113
13:28:44.331361,-28161
13:28:44.331361,-1
13:28:44.331361,-111
13:28:44.331361,-25089
13:28:44.331361,-1
13:28:44.331361,7
13:28:44.331361,31744
13:28:44.331361,1
13:28:44.331361,1011
13:28:44.331361,1792
13:28:44.331361,5
13:28:44.331361,436
13:28:44.331361,32256
13:28:44.331361,-3
13:28:44.331361,-509
13:28:44.331361,-13825
13:28:44.331361,-1
13:28:44.331361,-225
13:28:44.331361,-8705
13:28:44.331361,-2
13:28:44.331361,-130
13:28:44.331361,24831
13:28:44.331361,-1
13:28:44.331361,-208
13:28:44.331361,27391
13:28:44.331361,-1
13:28:44.331361,-135
13:28:44.331361,26879
13:28:44.331361,-1
13:28:44.331361,-133
13:28:44.331361,-28673
13:28:44.331361,-1
13:28:44.331361,-113
13:28:44.331361,-25601
13:28:44.331361,-1
13:28:44.331361,-87
13:28:44.331361,-19457
13:28:44.331361,-1
13:28:44.331361,-65
13:28:44.331361,-13313
13:28:44.331361,-1
13:28:44.331361,-38
13:28:44.331361,-5121
13:28:44.331361,-1
13:28:44.331361,-2
13:28:44.331361,3839
13:28:44.331361,0
13:28:44.331361,29
13:28:44.331361,11008
13:28:44.331361,0
13:28:44.331361,48
13:28:44.331361,11776
13:28:44.331361,0
13:28:44.331361,36
13:28:44.331361,4096
13:28:44.331361,0
13:28:44.331361,-16
13:28:44.331361,-15873
13:28:44.331361,-1
13:28:44.331361,-109
13:28:44.331361,28671
13:28:44.331361,-1
13:28:44.331361,-172
13:28:44.331361,18175
13:28:44.331361,-1
13:28:44.331361,-191
13:28:44.331361,16895
13:28:44.331361,-1
13:28:44.331361,-189
13:28:44.331361,18175
13:28:44.331361,-1
13:28:44.331361,-181
13:28:44.331361,20479
13:28:44.331361,-1
13:28:44.331361,-177
13:28:44.331361,21759
13:28:44.331361,-1
13:28:44.331361,-167
13:28:44.331361,23807
13:28:44.331361,-1
13:28:44.331361,-162
13:28:44.331361,25599
13:28:44.331361,-1
13:28:44.331361,-152
13:28:44.331361,28159
13:28:44.331361,-1
13:28:44.331361,-145
13:28:44.331361,29951
13:28:44.331361,-1
13:28:44.331361,-135
13:28:44.331361,31231
13:28:44.331361,-1
13:28:44.331361,-135
13:28:44.331361,31743
13:28:44.331361,-1
13:28:44.331361,-130
13:28:44.331361,31743
13:28:44.331361,-1
13:28:44.331361,-130
13:28:44.331361,32511
13:28:44.331361,-1
13:28:44.331361,-128
13:28:44.873385,-128
13:28:44.873385,-32513
13:28:44.873385,-1
13:28:44.873385,-128
13:28:44.873385,-32001
13:28:44.873385,-1
13:28:44.873385,-128
13:28:44.873385,-32513
13:28:44.873385,-1
13:28:44.873385,-128
13:28:44.873385,32511
13:28:44.873385,-1
13:28:44.873385,-128
13:28:44.873385,-31233
13:28:44.873385,-1
13:28:44.873385,-121
13:28:44.873385,-26881
13:28:44.873385,-1
13:28:44.873385,-87
13:28:44.873385,-21249
13:28:44.873385,-1
13:28:44.873385,-94
13:28:44.873385,-25089
13:28:44.873385,-1
13:28:44.873385,-106
13:28:44.873385,-28161
13:28:44.873385,-1
13:28:44.873385,-113
13:28:44.873385,-26881
13:28:44.873385,-1
13:28:44.873385,-104
13:28:44.873385,-26369
13:28:44.873385,-1
13:28:44.873385,-97
13:28:44.873385,-5121
13:28:44.873385,-1
13:28:44.873385,283
13:28:44.873385,23040
13:28:44.873385,3
13:28:44.873385,1241
13:28:44.873385,27136
13:28:44.873385,2
13:28:44.873385,-516
13:28:44.873385,-25089
13:28:44.873385,-3
13:28:44.873385,-99
13:28:44.873385,23807
13:28:44.873385,-1
13:28:44.873385,-300
13:28:44.873385,27391
13:28:44.873385,-1
13:28:44.873385,-138
13:28:44.873385,14335
13:28:44.873385,-1
13:28:44.873385,-152
13:28:44.873385,-31233
13:28:44.873385,-1
13:28:44.873385,-143
13:28:44.873385,-32513
13:28:44.873385,-1
13:28:44.873385,-106
13:28:44.873385,-26881
13:28:44.873385,-1
13:28:44.873385,-97
13:28:44.873385,-20225
13:28:44.873385,-1
13:28:44.873385,-72
13:28:44.873385,-15873
13:28:44.873385,-1
13:28:44.873385,-48
13:28:44.873385,-8193
13:28:44.873385,-1
13:28:44.873385,-16
13:28:44.873385,-257
13:28:44.873385,-1
13:28:44.873385,12
13:28:44.873385,7424
13:28:44.873385,0
13:28:44.873385,43
13:28:44.873385,12288
13:28:44.873385,0
13:28:44.873385,48
13:28:44.873385,10496
13:28:44.873385,0
13:28:44.873385,26
13:28:44.873385,-1024
13:28:44.873385,-1
13:28:44.873385,-48
13:28:44.873385,-24577
13:28:44.873385,-1
13:28:44.873385,-133
13:28:44.873385,24319
13:28:44.873385,-1
13:28:44.873385,-181
13:28:44.873385,17407
13:28:44.873385,-1
13:28:44.873385,-191
13:28:44.873385,17407
13:28:44.873385,-1
13:28:44.873385,-186
13:28:44.873385,18687
13:28:44.873385,-1
13:28:44.873385,-181
13:28:44.873385,21247
13:28:44.873385,-1
13:28:44.873385,-169
13:28:44.873385,23807
13:28:44.873385,-1
13:28:44.873385,-157
13:28:45.458356,-147
13:28:45.458356,28671
13:28:45.458356,-1
13:28:45.458356,-147
13:28:45.458356,28671
13:28:45.458356,-1
13:28:45.458356,-138
13:28:45.458356,32511
13:28:45.458356,-1
13:28:45.458356,-123
13:28:45.458356,-32001
13:28:45.458356,-1
13:28:45.458356,-128
13:28:45.458356,-31233
13:28:45.458356,-1
13:28:45.458356,-121
13:28:45.458356,-30721
13:28:45.458356,-1
13:28:45.458356,-121
13:28:45.458356,-29953
13:28:45.458356,-1
13:28:45.458356,-121
13:28:45.458356,-32513
13:28:45.458356,-1
13:28:45.458356,-126
13:28:45.458356,-29953
13:28:45.458356,-1
13:28:45.458356,-116
13:28:45.458356,-29953
13:28:45.458356,-1
13:28:45.458356,-121
13:28:45.458356,-29953
13:28:45.458356,-1
13:28:45.458356,-113
13:28:45.458356,-29441
13:28:45.458356,-1
13:28:45.458356,-121
13:28:45.458356,-32001
13:28:45.458356,-1
13:28:45.458356,-126
13:28:45.458356,-31233
13:28:45.458356,-1
13:28:45.458356,-101
13:28:45.458356,-18945
13:28:45.458356,-1
13:28:45.458356,-77
13:28:45.458356,-21249
13:28:45.458356,-1
13:28:45.458356,-92
13:28:45.458356,-25089
13:28:45.458356,-1
13:28:45.458356,-104
13:28:45.458356,-25089
13:28:45.458356,-1
13:28:45.458356,-92
13:28:45.458356,-22529
13:28:45.458356,-1
13:28:45.458356,-92
13:28:45.458356,-21249
13:28:45.458356,-1
13:28:45.458356,-2
13:28:45.458356,12799
13:28:45.458356,1
13:28:45.458356,846
13:28:45.458356,23808
13:28:45.458356,4
13:28:45.458356,380
13:28:45.458356,16128
13:28:45.458356,-3
13:28:45.458356,-645
13:28:45.458356,-17665
13:28:45.458356,-1
13:28:45.458356,-130
13:28:45.458356,-1
13:28:45.458356,-2
13:28:45.458356,-109
13:28:45.458356,-24577
13:28:45.458356,-1
13:28:45.458356,-160
13:28:45.458356,-28673
13:28:45.458356,-1
13:28:45.458356,-89
13:28:45.458356,-28161
13:28:45.458356,-1
13:28:45.458356,-94
13:28:45.458356,-17665
13:28:45.458356,-1
13:28:45.458356,-70
13:28:45.458356,-15873
13:28:45.458356,-1
13:28:45.458356,-50
13:28:45.458356,-8961
13:28:45.458356,-1
13:28:45.458356,-21
13:28:45.458356,-1537
13:28:45.458356,-1
13:28:45.458356,2
13:28:45.458356,4864
13:28:45.458356,0
13:28:45.458356,38
13:28:45.458356,13568
13:28:45.458356,0
13:28:45.458356,72
13:28:45.458356,21504
13:28:45.458356,0
13:28:45.458356,80
13:28:45.458356,21504
13:28:45.458356,0
13:28:45.458356,89
13:28:45.995522,65
13:28:45.995522,6144
13:28:45.995522,0
13:28:45.995522,-16
13:28:45.995522,-15873
13:28:45.995522,-1
13:28:45.995522,-109
13:28:45.995522,29183
13:28:45.995522,-1
13:28:45.995522,-162
13:28:45.995522,21247
13:28:45.995522,-1
13:28:45.995522,-172
13:28:45.995522,24319
13:28:45.995522,-1
13:28:45.995522,-157
13:28:45.995522,24831
13:28:45.995522,-1
13:28:45.995522,-155
13:28:45.995522,29951
13:28:45.995522,-1
13:28:45.995522,-135
13:28:45.995522,30463
13:28:45.995522,-1
13:28:45.995522,-133
13:28:45.995522,-32001
13:28:45.995522,-1
13:28:45.995522,-121
13:28:45.995522,-29441
13:28:45.995522,-1
13:28:45.995522,-113
13:28:45.995522,-27649
13:28:45.995522,-1
13:28:45.995522,-106
13:28:45.995522,-28161
13:28:45.995522,-1
13:28:45.995522,-111
13:28:45.995522,-27649
13:28:45.995522,-1
13:28:45.995522,-104
13:28:45.995522,-26881
13:28:45.995522,-1
13:28:45.995522,-113
13:28:45.995522,-28161
13:28:45.995522,-1
13:28:45.995522,-104
13:28:45.995522,-28673
13:28:45.995522,-1
13:28:45.995522,-113
13:28:45.995522,-26369
13:28:45.995522,-1
13:28:45.995522,-104
13:28:45.995522,-27649
13:28:45.995522,-1
13:28:45.995522,-111
13:28:45.995522,-28673
13:28:45.995522,-1
13:28:45.995522,-113
13:28:45.995522,-28673
13:28:45.995522,-1
13:28:45.995522,-111
13:28:45.995522,-23809
13:28:45.995522,-1
13:28:45.995522,-82
13:28:45.995522,-20737
13:28:45.995522,-1
13:28:45.995522,-87
13:28:45.995522,-22529
13:28:45.995522,-1
13:28:45.995522,-94
13:28:45.995522,-25601
13:28:45.995522,-1
13:28:45.995522,-104
13:28:45.995522,-24577
13:28:45.995522,-1
13:28:45.995522,-87
13:28:45.995522,-21249
13:28:45.995522,-1
13:28:45.995522,-75
13:28:45.995522,8703
13:28:45.995522,0
13:28:45.995522,402
13:28:45.995522,-16384
13:28:45.995522,3
13:28:45.995522,1096
13:28:45.995522,-24576
13:28:45.995522,0
13:28:45.995522,-890
13:28:45.995522,32511
13:28:45.995522,-3
13:28:45.995522,-43
13:28:45.995522,26111
13:28:45.995522,-1
13:28:45.995522,-244
13:28:45.995522,-20225
13:28:45.995522,-1
13:28:45.995522,-94
13:28:45.995522,26879
13:28:45.995522,-1
13:28:45.995522,-99
13:28:45.995522,-18945
13:28:45.995522,-1
13:28:45.995522,-94
13:28:45.995522,-20225
13:28:45.995522,-1
13:28:45.995522,-55
13:28:45.995522,-13825
13:28:45.995522,-1
13:28:45.995522,-55
13:28:46.584149,-33
13:28:46.584149,-3841
13:28:46.584149,-1
13:28:46.584149,-9
13:28:46.584149,767
13:28:46.584149,0
13:28:46.584149,21
13:28:46.584149,12288
13:28:46.584149,0
13:28:46.584149,75
13:28:46.584149,24064
13:28:46.584149,0
13:28:46.584149,104
13:28:46.584149,28928
13:28:46.584149,0
13:28:46.584149,118
13:28:46.584149,28928
13:28:46.584149,0
13:28:46.584149,101
13:28:46.584149,20480
13:28:46.584149,0
13:28:46.584149,33
13:28:46.584149,-6144
13:28:46.584149,-1
13:28:46.584149,-82
13:28:46.584149,-32001
13:28:46.584149,-1
13:28:46.584149,-155
13:28:46.584149,21759
13:28:46.584149,-1
13:28:46.584149,-181
13:28:46.584149,19455
13:28:46.584149,-1
13:28:46.584149,-179
13:28:46.584149,21247
13:28:46.584149,-1
13:28:46.584149,-174
13:28:46.584149,21247
13:28:46.584149,-1
13:28:46.584149,-172
13:28:46.584149,23807
13:28:46.584149,-1
13:28:46.584149,-157
13:28:46.584149,27391
13:28:46.584149,-1
13:28:46.584149,-147
13:28:46.584149,29951
13:28:46.584149,-1
13:28:46.584149,-130
13:28:46.584149,-32513
13:28:46.584149,-1
13:28:46.584149,-126
13:28:46.584149,-30721
13:28:46.584149,-1
13:28:46.584149,-123
13:28:46.584149,-31233
13:28:46.584149,-1
13:28:46.584149,-116
13:28:46.584149,-29953
13:28:46.584149,-1
13:28:46.584149,-123
13:28:46.584149,-31233
13:28:46.584149,-1
13:28:46.584149,-123
13:28:46.584149,-32001
13:28:46.584149,-1
13:28:46.584149,-126
13:28:46.584149,-31233
13:28:46.584149,-1
13:28:46.584149,-130
13:28:46.584149,29951
13:28:46.584149,-1
13:28:46.584149,-138
13:28:46.584149,31743
13:28:46.584149,-1
13:28:46.584149,-126
13:28:46.584149,-26881
13:28:46.584149,-1
13:28:46.584149,-94
13:28:46.584149,-26369
13:28:46.584149,-1
13:28:46.584149,-113
13:28:46.584149,-29441
13:28:46.584149,-1
13:28:46.584149,-121
13:28:46.584149,-32001
13:28:46.584149,-1
13:28:46.584149,-118
13:28:46.584149,-28673
13:28:46.584149,-1
13:28:46.584149,-113
13:28:46.584149,-28161
13:28:46.584149,-1
13:28:46.584149,-84
13:28:46.584149,23039
13:28:46.584149,0
13:28:46.584149,555
13:28:46.584149,19712
13:28:46.584149,4
13:28:46.584149,943
13:28:46.584149,11008
13:28:46.584149,-1
13:28:46.584149,-892
13:28:46.584149,-25345
13:28:46.584149,-2
13:28:46.584149,-43
13:28:46.584149,-4353
13:28:46.584149,-2
13:28:46.584149,-223
13:28:47.168099,-94
13:28:47.168099,23807
13:28:47.168099,-1
13:28:47.168099,-174
13:28:47.168099,-28673
13:28:47.168099,-1
13:28:47.168099,-121
13:28:47.168099,-32513
13:28:47.168099,-1
13:28:47.168099,-101
13:28:47.168099,-23297
13:28:47.168099,-1
13:28:47.168099,-87
13:28:47.168099,-16385
13:28:47.168099,-1
13:28:47.168099,-46
13:28:47.168099,-10753
13:28:47.168099,-1
13:28:47.168099,-31
13:28:47.168099,-2049
13:28:47.168099,-1
13:28:47.168099,4
13:28:47.168099,4864
13:28:47.168099,0
13:28:47.168099,43
13:28:47.168099,16128
13:28:47.168099,0
13:28:47.168099,72
13:28:47.168099,20480
13:28:47.168099,0
13:28:47.168099,84
13:28:47.168099,19200
13:28:47.168099,0
13:28:47.168099,58
13:28:47.168099,6656
13:28:47.168099,0
13:28:47.168099,-21
13:28:47.168099,-20225
13:28:47.168099,-1
13:28:47.168099,-121
13:28:47.168099,27391
13:28:47.168099,-1
13:28:47.168099,-174
13:28:47.168099,18175
13:28:47.168099,-1
13:28:47.168099,-189
13:28:47.168099,18175
13:28:47.168099,-1
13:28:47.168099,-184
13:28:47.168099,19455
13:28:47.168099,-1
13:28:47.168099,-174
13:28:47.168099,22527
13:28:47.168099,-1
13:28:47.168099,-164
13:28:47.168099,24831
13:28:47.168099,-1
13:28:47.168099,-155
13:28:47.168099,26879
13:28:47.168099,-1
13:28:47.168099,-145
13:28:47.168099,30463
13:28:47.168099,-1
13:28:47.168099,-135
13:28:47.168099,31231
13:28:47.168099,-1
13:28:47.168099,-133
13:28:47.168099,-32513
13:28:47.168099,-1
13:28:47.168099,-126
13:28:47.168099,-32001
13:28:47.168099,-1
13:28:47.168099,-123
13:28:47.168099,-31233
13:28:47.168099,-1
13:28:47.168099,-123
13:28:47.168099,-31233
13:28:47.168099,-1
13:28:47.168099,-123
13:28:47.168099,-32001
13:28:47.168099,-1
13:28:47.168099,-128
13:28:47.168099,-32513
13:28:47.168099,-1
13:28:47.168099,-128
13:28:47.168099,31231
13:28:47.168099,-1
13:28:47.168099,-138
13:28:47.168099,31231
13:28:47.168099,-1
13:28:47.168099,-128
13:28:47.168099,-27649
13:28:47.168099,-1
13:28:47.168099,-92
13:28:47.168099,-23809
13:28:47.168099,-1
13:28:47.168099,-106
13:28:47.168099,-28161
13:28:47.168099,-1
13:28:47.168099,-116
13:28:47.168099,-29953
13:28:47.168099,-1
13:28:47.168099,-111
13:28:47.168099,-26881
13:28:47.168099,-1
13:28:47.168099,-106
13:28:47.168099,-25601
13:28:47.168099,-1
13:28:47.168099,-82
13:28:47.708793,70
13:28:47.708793,1536
13:28:47.708793,2
13:28:47.708793,1151
13:28:47.708793,-19968
13:28:47.708793,4
13:28:47.708793,123
13:28:47.708793,512
13:28:47.708793,-3
13:28:47.708793,-392
13:28:47.708793,-9473
13:28:47.708793,-1
13:28:47.708793,-269
13:28:47.708793,-513
13:28:47.708793,-2
13:28:47.708793,-113
13:28:47.708793,22527
13:28:47.708793,-1
13:28:47.708793,-189
13:28:47.708793,-30721
13:28:47.708793,-1
13:28:47.708793,-121
13:28:47.708793,30463
13:28:47.708793,-1
13:28:47.708793,-111
13:28:47.708793,-24577
13:28:47.708793,-1
13:28:47.708793,-94
13:28:47.708793,-20737
13:28:47.708793,-1
13:28:47.708793,-70
13:28:47.708793,-15873
13:28:47.708793,-1
13:28:47.708793,-48
13:28:47.708793,-8193
13:28:47.708793,-1
13:28:47.708793,-16
13:28:47.708793,255
13:28:47.708793,0
13:28:47.708793,19
13:28:47.708793,9728
13:28:47.708793,0
13:28:47.708793,53
13:28:47.708793,15360
13:28:47.708793,0
13:28:47.708793,65
13:28:47.708793,15360
13:28:47.708793,0
13:28:47.708793,46
13:28:47.708793,5376
13:28:47.708793,0
13:28:47.708793,-19
13:28:47.708793,-18177
13:28:47.708793,-1
13:28:47.708793,-113
13:28:47.708793,28671
13:28:47.708793,-1
13:28:47.708793,-169
13:28:47.708793,19455
13:28:47.708793,-1
13:28:47.708793,-186
13:28:47.708793,18175
13:28:47.708793,-1
13:28:47.708793,-184
13:28:47.708793,19967
13:28:47.708793,-1
13:28:47.708793,-177
13:28:47.708793,21247
13:28:47.708793,-1
13:28:47.708793,-167
13:28:47.708793,24319
13:28:47.708793,-1
13:28:47.708793,-157
13:28:47.708793,26111
13:28:47.708793,-1
13:28:47.708793,-150
13:28:47.708793,28159
13:28:47.708793,-1
13:28:47.708793,-143
13:28:47.708793,30463
13:28:47.708793,-1
13:28:47.708793,-135
13:28:47.708793,31743
13:28:47.708793,-1
13:28:47.708793,-130
13:28:47.708793,-32513
13:28:47.708793,-1
13:28:47.708793,-128
13:28:47.708793,-32001
13:28:47.708793,-1
13:28:47.708793,-123
13:28:47.708793,-31233
13:28:47.708793,-1
13:28:47.708793,-123
13:28:47.708793,-32001
13:28:47.708793,-1
13:28:47.708793,-126
13:28:47.708793,-30721
13:28:47.708793,-1
13:28:47.708793,-121
13:28:47.708793,-32001
13:28:47.708793,-1
13:28:47.708793,-135
13:28:47.708793,30463
13:28:47.708793,-1
13:28:47.708793,-135
13:28:47.708793,-32513
13:28:47.708793,-1
13:28:47.708793,-113
13:28:48.248630,-97
13:28:48.248630,-24577
13:28:48.248630,-1
13:28:48.248630,-106
13:28:48.248630,-28161
13:28:48.248630,-1
13:28:48.248630,-113
13:28:48.248630,-30721
13:28:48.248630,-1
13:28:48.248630,-118
13:28:48.248630,-28673
13:28:48.248630,-1
13:28:48.248630,-109
13:28:48.248630,-26369
13:28:48.248630,-1
13:28:48.248630,-84
13:28:48.248630,4351
13:28:48.248630,0
13:28:48.248630,380
13:28:48.248630,-5888
13:28:48.248630,3
13:28:48.248630,1275
13:28:48.248630,-16896
13:28:48.248630,1
13:28:48.248630,-630
13:28:48.248630,-2049
13:28:48.248630,-3
13:28:48.248630,-60
13:28:48.248630,10751
13:28:48.248630,-1
13:28:48.248630,-295
13:28:48.248630,31231
13:28:48.248630,-1
13:28:48.248630,-157
13:28:48.248630,12543
13:28:48.248630,-1
13:28:48.248630,-152
13:28:48.248630,31231
13:28:48.248630,-1
13:28:48.248630,-150
13:28:48.248630,32511
13:28:48.248630,-1
13:28:48.248630,-111
13:28:48.248630,-28161
13:28:48.248630,-1
13:28:48.248630,-97
13:28:48.248630,-20737
13:28:48.248630,-1
13:28:48.248630,-75
13:28:48.248630,-15105
13:28:48.248630,-1
13:28:48.248630,-46
13:28:48.248630,-8193
13:28:48.248630,-1
13:28:48.248630,-16
13:28:48.248630,255
13:28:48.248630,0
13:28:48.248630,14
13:28:48.248630,7936
13:28:48.248630,0
13:28:48.248630,41
13:28:48.248630,10496
13:28:48.248630,0
13:28:48.248630,41
13:28:48.248630,8448
13:28:48.248630,0
13:28:48.248630,14
13:28:48.248630,-4096
13:28:48.248630,-1
13:28:48.248630,-63
13:28:48.248630,-27649
13:28:48.248630,-1
13:28:48.248630,-143
13:28:48.248630,24319
13:28:48.248630,-1
13:28:48.248630,-177
13:28:48.248630,19455
13:28:48.248630,-1
13:28:48.248630,-184
13:28:48.248630,19455
13:28:48.248630,-1
13:28:48.248630,-177
13:28:48.248630,21247
13:28:48.248630,-1
13:28:48.248630,-169
13:28:48.248630,23807
13:28:48.248630,-1
13:28:48.248630,-157
13:28:48.248630,26111
13:28:48.248630,-1
13:28:48.248630,-152
13:28:48.248630,28159
13:28:48.248630,-1
13:28:48.248630,-140
13:28:48.248630,30463
13:28:48.248630,-1
13:28:48.248630,-135
13:28:48.248630,31743
13:28:48.248630,-1
13:28:48.248630,-128
13:28:48.248630,-32001
13:28:48.248630,-1
13:28:48.248630,-123
13:28:48.248630,-30721
13:28:48.248630,-1
13:28:48.248630,-123
13:28:48.248630,-31233
13:28:48.248630,-1
13:28:48.248630,-121
13:28:48.788735,-121
13:28:48.788735,-30721
13:28:48.788735,-1
13:28:48.788735,-121
13:28:48.788735,-31233
13:28:48.788735,-1
13:28:48.788735,-123
13:28:48.788735,-31233
13:28:48.788735,-1
13:28:48.788735,-118
13:28:48.788735,-28161
13:28:48.788735,-1
13:28:48.788735,-106
13:28:48.788735,-28161
13:28:48.788735,-1
13:28:48.788735,-118
13:28:48.788735,-30721
13:28:48.788735,-1
13:28:48.788735,-121
13:28:48.788735,-29953
13:28:48.788735,-1
13:28:48.788735,-106
13:28:48.788735,-22017
13:28:48.788735,-1
13:28:48.788735,-80
13:28:48.788735,-22017
13:28:48.788735,-1
13:28:48.788735,-94
13:28:48.788735,-25089
13:28:48.788735,-1
13:28:48.788735,-106
13:28:48.788735,-27649
13:28:48.788735,-1
13:28:48.788735,-104
13:28:48.788735,-25089
13:28:48.788735,-1
13:28:48.788735,-99
13:28:48.788735,-23809
13:28:48.788735,-1
13:28:48.788735,-38
13:28:48.788735,-9473
13:28:48.788735,0
13:28:48.788735,759
13:28:48.788735,-15616
13:28:48.788735,4
13:28:48.788735,761
13:28:48.788735,28672
13:28:48.788735,-2
13:28:48.788735,-671
13:28:48.788735,29951
13:28:48.788735,-1
13:28:48.788735,-123
13:28:48.788735,-11009
13:28:48.788735,-2
13:28:48.788735,-164
13:28:48.788735,-30721
13:28:48.788735,-1
13:28:48.788735,-201
13:28:48.788735,23807
13:28:48.788735,-1
13:28:48.788735,-123
13:28:48.788735,29951
13:28:48.788735,-1
13:28:48.788735,-133
13:28:48.788735,-27649
13:28:48.788735,-1
13:28:48.788735,-104
13:28:48.788735,-24577
13:28:48.788735,-1
13:28:48.788735,-84
13:28:48.788735,-18177
13:28:48.788735,-1
13:28:48.788735,-63
13:28:48.788735,-12033
13:28:48.788735,-1
13:28:48.788735,-33
13:28:48.788735,-5121
13:28:48.788735,-1
13:28:48.788735,-4
13:28:48.788735,3327
13:28:48.788735,0
13:28:48.788735,26
13:28:48.788735,9216
13:28:48.788735,0
13:28:48.788735,38
13:28:48.788735,9216
13:28:48.788735,0
13:28:48.788735,36
13:28:48.788735,7424
13:28:48.788735,0
13:28:48.788735,4
13:28:48.788735,-7936
13:28:48.788735,-1
13:28:48.788735,-80
13:28:48.788735,-30721
13:28:48.788735,-1
13:28:48.788735,-145
13:28:48.788735,23807
13:28:48.788735,-1
13:28:48.788735,-179
13:28:48.788735,18687
13:28:48.788735,-1
13:28:48.788735,-179
13:28:48.788735,21759
13:28:48.788735,-1
13:28:48.788735,-167
13:28:48.788735,23807
13:28:48.788735,-1
13:28:48.788735,-162
13:28:49.373642,-155
13:28:49.373642,28159
13:28:49.373642,-1
13:28:49.373642,-140
13:28:49.373642,31231
13:28:49.373642,-1
13:28:49.373642,-123
13:28:49.373642,-28673
13:28:49.373642,-1
13:28:49.373642,-113
13:28:49.373642,-29953
13:28:49.373642,-1
13:28:49.373642,-116
13:28:49.373642,-29441
13:28:49.373642,-1
13:28:49.373642,-113
13:28:49.373642,-28161
13:28:49.373642,-1
13:28:49.373642,-111
13:28:49.373642,-27649
13:28:49.373642,-1
13:28:49.373642,-113
13:28:49.373642,-29441
13:28:49.373642,-1
13:28:49.373642,-109
13:28:49.373642,-26881
13:28:49.373642,-1
13:28:49.373642,-113
13:28:49.373642,-29441
13:28:49.373642,-1
13:28:49.373642,-109
13:28:49.373642,-26881
13:28:49.373642,-1
13:28:49.373642,-109
13:28:49.373642,-27649
13:28:49.373642,-1
13:28:49.373642,-109
13:28:49.373642,-27649
13:28:49.373642,-1
13:28:49.373642,-106
13:28:49.373642,-26881
13:28:49.373642,-1
13:28:49.373642,-109
13:28:49.373642,-28161
13:28:49.373642,-1
13:28:49.373642,-111
13:28:49.373642,-27649
13:28:49.373642,-1
13:28:49.373642,-101
13:28:49.373642,-21249
13:28:49.373642,-1
13:28:49.373642,-72
