timestamp,ecg,reconstructed_time
2025-11-07 11:55:01.641327,802,2025-11-07 11:55:01.641327000
2025-11-07 11:55:01.641327,3840,2025-11-07 11:55:01.649019308
2025-11-07 11:55:01.641327,3,2025-11-07 11:55:01.656711615
2025-11-07 11:55:01.641327,331,2025-11-07 11:55:01.664403923
2025-11-07 11:55:01.641327,-4864,2025-11-07 11:55:01.672096231
2025-11-07 11:55:01.641327,-1,2025-11-07 11:55:01.679788538
2025-11-07 11:55:01.641327,-70,2025-11-07 11:55:01.687480846
2025-11-07 11:55:01.641327,-16385,2025-11-07 11:55:01.695173154
2025-11-07 11:55:01.641327,-1,2025-11-07 11:55:01.702865462
2025-11-07 11:55:01.641327,-84,2025-11-07 11:55:01.710557769
2025-11-07 11:55:01.641327,-17665,2025-11-07 11:55:01.718250077
2025-11-07 11:55:01.641327,-1,2025-11-07 11:55:01.725942385
2025-11-07 11:55:01.641327,-60,2025-11-07 11:55:01.733634692
2025-11-07 11:55:01.641327,-15105,2025-11-07 11:55:01.741327000
2025-11-07 11:55:01.641327,-1,2025-11-07 11:55:01.749019308
2025-11-07 11:55:01.641327,-55,2025-11-07 11:55:01.756711615
2025-11-07 11:55:01.641327,-13825,2025-11-07 11:55:01.764403923
2025-11-07 11:55:01.641327,-1,2025-11-07 11:55:01.772096231
2025-11-07 11:55:01.641327,-53,2025-11-07 11:55:01.779788538
2025-11-07 11:55:01.641327,-13313,2025-11-07 11:55:01.787480846
2025-11-07 11:55:01.641327,-1,2025-11-07 11:55:01.795173154
2025-11-07 11:55:01.641327,-48,2025-11-07 11:55:01.802865462
2025-11-07 11:55:01.641327,-9473,2025-11-07 11:55:01.810557769
2025-11-07 11:55:01.641327,-1,2025-11-07 11:55:01.818250077
2025-11-07 11:55:01.641327,-43,2025-11-07 11:55:01.825942385
2025-11-07 11:55:01.641327,-10753,2025-11-07 11:55:01.833634692
2025-11-07 11:55:01.641327,-1,2025-11-07 11:55:01.841327000
2025-11-07 11:55:01.641327,-33,2025-11-07 11:55:01.849019308
2025-11-07 11:55:01.641327,-10241,2025-11-07 11:55:01.856711615
2025-11-07 11:55:01.641327,-1,2025-11-07 11:55:01.864403923
2025-11-07 11:55:01.641327,-41,2025-11-07 11:55:01.872096231
2025-11-07 11:55:01.641327,-8193,2025-11-07 11:55:01.879788538
2025-11-07 11:55:01.641327,-1,2025-11-07 11:55:01.887480846
2025-11-07 11:55:01.641327,-31,2025-11-07 11:55:01.895173154
2025-11-07 11:55:01.641327,-6401,2025-11-07 11:55:01.902865462
2025-11-07 11:55:01.641327,-1,2025-11-07 11:55:01.910557769
2025-11-07 11:55:01.641327,-26,2025-11-07 11:55:01.918250077
2025-11-07 11:55:01.641327,-7169,2025-11-07 11:55:01.925942385
2025-11-07 11:55:01.641327,-1,2025-11-07 11:55:01.933634692
2025-11-07 11:55:01.641327,-21,2025-11-07 11:55:01.941327000
2025-11-07 11:55:01.641327,-4609,2025-11-07 11:55:01.949019308
2025-11-07 11:55:01.641327,-1,2025-11-07 11:55:01.956711615
2025-11-07 11:55:01.641327,-14,2025-11-07 11:55:01.964403923
2025-11-07 11:55:01.641327,-2049,2025-11-07 11:55:01.972096231
2025-11-07 11:55:01.641327,-1,2025-11-07 11:55:01.979788538
2025-11-07 11:55:01.641327,-2,2025-11-07 11:55:01.987480846
2025-11-07 11:55:01.641327,1279,2025-11-07 11:55:01.995173154
2025-11-07 11:55:01.641327,0,2025-11-07 11:55:02.002865462
2025-11-07 11:55:01.641327,4,2025-11-07 11:55:02.010557769
2025-11-07 11:55:01.641327,3072,2025-11-07 11:55:02.018250077
2025-11-07 11:55:01.641327,0,2025-11-07 11:55:02.025942385
2025-11-07 11:55:01.641327,9,2025-11-07 11:55:02.033634692
2025-11-07 11:55:01.641327,-512,2025-11-07 11:55:02.041327000
2025-11-07 11:55:01.641327,-1,2025-11-07 11:55:02.049019308
2025-11-07 11:55:01.641327,-7,2025-11-07 11:55:02.056711615
2025-11-07 11:55:01.641327,-2817,2025-11-07 11:55:02.064403923
2025-11-07 11:55:01.641327,-1,2025-11-07 11:55:02.072096231
2025-11-07 11:55:01.641327,-12,2025-11-07 11:55:02.079788538
2025-11-07 11:55:01.641327,-1537,2025-11-07 11:55:02.087480846
2025-11-07 11:55:01.641327,-1,2025-11-07 11:55:02.095173154
2025-11-07 11:55:01.641327,-12,2025-11-07 11:55:02.102865462
2025-11-07 11:55:01.641327,-2817,2025-11-07 11:55:02.110557769
2025-11-07 11:55:01.641327,-1,2025-11-07 11:55:02.118250077
2025-11-07 11:55:01.641327,-14,2025-11-07 11:55:02.125942385
2025-11-07 11:55:01.641327,-2817,2025-11-07 11:55:02.133634692
2025-11-07 11:55:01.641327,-1,2025-11-07 11:55:02.141327000
2025-11-07 11:55:01.641327,-7,2025-11-07 11:55:02.149019308
2025-11-07 11:55:01.641327,-2817,2025-11-07 11:55:02.156711615
2025-11-07 11:55:01.641327,-1,2025-11-07 11:55:02.164403923
2025-11-07 11:55:01.641327,-12,2025-11-07 11:55:02.172096230
2025-11-07 11:55:01.641327,-3841,2025-11-07 11:55:02.179788538
2025-11-07 11:55:01.641327,-1,2025-11-07 11:55:02.187480846
2025-11-07 11:55:01.641327,-21,2025-11-07 11:55:02.195173154
2025-11-07 11:55:01.641327,-3329,2025-11-07 11:55:02.202865462
2025-11-07 11:55:01.641327,-1,2025-11-07 11:55:02.210557769
2025-11-07 11:55:01.641327,-16,2025-11-07 11:55:02.218250077
2025-11-07 11:55:01.641327,-4609,2025-11-07 11:55:02.225942385
2025-11-07 11:55:01.641327,-1,2025-11-07 11:55:02.233634692
2025-11-07 11:55:01.641327,-16,2025-11-07 11:55:02.241327000
2025-11-07 11:55:01.641327,-5121,2025-11-07 11:55:02.249019308
2025-11-07 11:55:01.641327,-1,2025-11-07 11:55:02.256711615
2025-11-07 11:55:01.641327,-19,2025-11-07 11:55:02.264403923
2025-11-07 11:55:01.641327,-5121,2025-11-07 11:55:02.272096231
2025-11-07 11:55:01.641327,-1,2025-11-07 11:55:02.279788538
2025-11-07 11:55:01.641327,-16,2025-11-07 11:55:02.287480846
2025-11-07 11:55:01.641327,-1537,2025-11-07 11:55:02.295173154
2025-11-07 11:55:01.641327,-1,2025-11-07 11:55:02.302865462
2025-11-07 11:55:01.641327,-14,2025-11-07 11:55:02.310557769
2025-11-07 11:55:01.641327,-3841,2025-11-07 11:55:02.318250077
2025-11-07 11:55:01.641327,-1,2025-11-07 11:55:02.325942385
2025-11-07 11:55:01.641327,-9,2025-11-07 11:55:02.333634692
2025-11-07 11:55:01.641327,-1537,2025-11-07 11:55:02.341327000
2025-11-07 11:55:01.641327,-1,2025-11-07 11:55:02.349019308
2025-11-07 11:55:01.641327,-9,2025-11-07 11:55:02.356711615
2025-11-07 11:55:01.641327,-1537,2025-11-07 11:55:02.364403923
2025-11-07 11:55:01.641327,-1,2025-11-07 11:55:02.372096231
2025-11-07 11:55:01.641327,-4,2025-11-07 11:55:02.379788538
2025-11-07 11:55:01.641327,-1537,2025-11-07 11:55:02.387480846
2025-11-07 11:55:01.641327,-1,2025-11-07 11:55:02.395173154
2025-11-07 11:55:01.641327,-9,2025-11-07 11:55:02.402865462
2025-11-07 11:55:01.641327,-769,2025-11-07 11:55:02.410557769
2025-11-07 11:55:01.641327,-1,2025-11-07 11:55:02.418250077
2025-11-07 11:55:01.641327,-7,2025-11-07 11:55:02.425942385
2025-11-07 11:55:01.641327,-769,2025-11-07 11:55:02.433634692
2025-11-07 11:55:01.641327,-1,2025-11-07 11:55:02.441327000
2025-11-07 11:55:01.641327,-4,2025-11-07 11:55:02.449019308
2025-11-07 11:55:01.641327,-1537,2025-11-07 11:55:02.456711615
2025-11-07 11:55:01.641327,-1,2025-11-07 11:55:02.464403923
2025-11-07 11:55:01.641327,-4,2025-11-07 11:55:02.472096231
2025-11-07 11:55:02.239945,-9,2025-11-07 11:55:02.479788538
2025-11-07 11:55:02.239945,-2817,2025-11-07 11:55:02.487480846
2025-11-07 11:55:02.239945,-1,2025-11-07 11:55:02.495173154
2025-11-07 11:55:02.239945,-7,2025-11-07 11:55:02.502865462
2025-11-07 11:55:02.239945,-769,2025-11-07 11:55:02.510557769
2025-11-07 11:55:02.239945,-1,2025-11-07 11:55:02.518250077
2025-11-07 11:55:02.239945,9,2025-11-07 11:55:02.525942385
2025-11-07 11:55:02.239945,5376,2025-11-07 11:55:02.533634692
2025-11-07 11:55:02.239945,0,2025-11-07 11:55:02.541327000
2025-11-07 11:55:02.239945,19,2025-11-07 11:55:02.549019308
2025-11-07 11:55:02.239945,6144,2025-11-07 11:55:02.556711615
2025-11-07 11:55:02.239945,0,2025-11-07 11:55:02.564403923
2025-11-07 11:55:02.239945,19,2025-11-07 11:55:02.572096231
2025-11-07 11:55:02.239945,0,2025-11-07 11:55:02.579788538
2025-11-07 11:55:02.239945,0,2025-11-07 11:55:02.587480846
2025-11-07 11:55:02.239945,-4,2025-11-07 11:55:02.595173154
2025-11-07 11:55:02.239945,3327,2025-11-07 11:55:02.602865462
2025-11-07 11:55:02.239945,0,2025-11-07 11:55:02.610557769
2025-11-07 11:55:02.239945,26,2025-11-07 11:55:02.618250077
2025-11-07 11:55:02.239945,4864,2025-11-07 11:55:02.625942385
2025-11-07 11:55:02.239945,0,2025-11-07 11:55:02.633634692
2025-11-07 11:55:02.239945,9,2025-11-07 11:55:02.641327000
2025-11-07 11:55:02.239945,4864,2025-11-07 11:55:02.649019308
2025-11-07 11:55:02.239945,0,2025-11-07 11:55:02.656711615
2025-11-07 11:55:02.239945,-4,2025-11-07 11:55:02.664403923
2025-11-07 11:55:02.239945,-19457,2025-11-07 11:55:02.672096231
2025-11-07 11:55:02.239945,-1,2025-11-07 11:55:02.679788538
2025-11-07 11:55:02.239945,-113,2025-11-07 11:55:02.687480846
2025-11-07 11:55:02.239945,16127,2025-11-07 11:55:02.695173154
2025-11-07 11:55:02.239945,0,2025-11-07 11:55:02.702865462
2025-11-07 11:55:02.239945,500,2025-11-07 11:55:02.710557769
2025-11-07 11:55:02.239945,6144,2025-11-07 11:55:02.718250077
2025-11-07 11:55:02.239945,3,2025-11-07 11:55:02.725942385
2025-11-07 11:55:02.239945,577,2025-11-07 11:55:02.733634692
2025-11-07 11:55:02.239945,-23552,2025-11-07 11:55:02.741327000
2025-11-07 11:55:02.239945,0,2025-11-07 11:55:02.749019308
2025-11-07 11:55:02.239945,-14,2025-11-07 11:55:02.756711615
2025-11-07 11:55:02.239945,-3841,2025-11-07 11:55:02.764403923
2025-11-07 11:55:02.239945,-1,2025-11-07 11:55:02.772096231
2025-11-07 11:55:02.239945,-48,2025-11-07 11:55:02.779788538
2025-11-07 11:55:02.239945,-19969,2025-11-07 11:55:02.787480846
2025-11-07 11:55:02.239945,-1,2025-11-07 11:55:02.795173154
2025-11-07 11:55:02.239945,-58,2025-11-07 11:55:02.802865462
2025-11-07 11:55:02.239945,-13825,2025-11-07 11:55:02.810557769
2025-11-07 11:55:02.239945,-1,2025-11-07 11:55:02.818250077
2025-11-07 11:55:02.239945,-62,2025-11-07 11:55:02.825942385
2025-11-07 11:55:02.239945,-12033,2025-11-07 11:55:02.833634692
2025-11-07 11:55:02.239945,-1,2025-11-07 11:55:02.841327000
2025-11-07 11:55:02.239945,-43,2025-11-07 11:55:02.849019308
2025-11-07 11:55:02.239945,-10753,2025-11-07 11:55:02.856711615
2025-11-07 11:55:02.239945,-1,2025-11-07 11:55:02.864403923
2025-11-07 11:55:02.239945,-38,2025-11-07 11:55:02.872096231
2025-11-07 11:55:02.239945,-9473,2025-11-07 11:55:02.879788538
2025-11-07 11:55:02.239945,-1,2025-11-07 11:55:02.887480846
2025-11-07 11:55:02.239945,-33,2025-11-07 11:55:02.895173154
2025-11-07 11:55:02.239945,-8193,2025-11-07 11:55:02.902865462
2025-11-07 11:55:02.239945,-1,2025-11-07 11:55:02.910557769
2025-11-07 11:55:02.239945,-26,2025-11-07 11:55:02.918250077
2025-11-07 11:55:02.239945,-5889,2025-11-07 11:55:02.925942385
2025-11-07 11:55:02.239945,-1,2025-11-07 11:55:02.933634692
2025-11-07 11:55:02.239945,-31,2025-11-07 11:55:02.941327000
2025-11-07 11:55:02.239945,-6401,2025-11-07 11:55:02.949019308
2025-11-07 11:55:02.239945,-1,2025-11-07 11:55:02.956711615
2025-11-07 11:55:02.239945,-24,2025-11-07 11:55:02.964403923
2025-11-07 11:55:02.239945,-5121,2025-11-07 11:55:02.972096231
2025-11-07 11:55:02.239945,-1,2025-11-07 11:55:02.979788538
2025-11-07 11:55:02.239945,-14,2025-11-07 11:55:02.987480846
2025-11-07 11:55:02.239945,-4609,2025-11-07 11:55:02.995173154
2025-11-07 11:55:02.239945,-1,2025-11-07 11:55:03.002865462
2025-11-07 11:55:02.239945,-12,2025-11-07 11:55:03.010557769
2025-11-07 11:55:02.239945,-257,2025-11-07 11:55:03.018250077
2025-11-07 11:55:02.239945,-1,2025-11-07 11:55:03.025942385
2025-11-07 11:55:02.239945,0,2025-11-07 11:55:03.033634692
2025-11-07 11:55:02.239945,3072,2025-11-07 11:55:03.041327000
2025-11-07 11:55:02.239945,0,2025-11-07 11:55:03.049019308
2025-11-07 11:55:02.239945,19,2025-11-07 11:55:03.056711615
2025-11-07 11:55:02.239945,6144,2025-11-07 11:55:03.064403923
2025-11-07 11:55:02.239945,0,2025-11-07 11:55:03.072096231
2025-11-07 11:55:02.239945,33,2025-11-07 11:55:03.079788538
2025-11-07 11:55:02.239945,8448,2025-11-07 11:55:03.087480846
2025-11-07 11:55:02.239945,0,2025-11-07 11:55:03.095173154
2025-11-07 11:55:02.239945,33,2025-11-07 11:55:03.102865462
2025-11-07 11:55:02.239945,4096,2025-11-07 11:55:03.110557769
2025-11-07 11:55:02.239945,0,2025-11-07 11:55:03.118250077
2025-11-07 11:55:02.239945,0,2025-11-07 11:55:03.125942385
2025-11-07 11:55:02.239945,-1792,2025-11-07 11:55:03.133634692
2025-11-07 11:55:02.239945,-1,2025-11-07 11:55:03.141327000
2025-11-07 11:55:02.239945,-14,2025-11-07 11:55:03.149019308
2025-11-07 11:55:02.239945,-3841,2025-11-07 11:55:03.156711615
2025-11-07 11:55:02.239945,-1,2025-11-07 11:55:03.164403923
2025-11-07 11:55:02.239945,-19,2025-11-07 11:55:03.172096230
2025-11-07 11:55:02.239945,-5121,2025-11-07 11:55:03.179788538
2025-11-07 11:55:02.239945,-1,2025-11-07 11:55:03.187480846
2025-11-07 11:55:02.239945,-16,2025-11-07 11:55:03.195173154
2025-11-07 11:55:02.239945,-3841,2025-11-07 11:55:03.202865462
2025-11-07 11:55:02.239945,-1,2025-11-07 11:55:03.210557769
2025-11-07 11:55:02.239945,-14,2025-11-07 11:55:03.218250077
2025-11-07 11:55:02.239945,-2049,2025-11-07 11:55:03.225942385
2025-11-07 11:55:02.239945,-1,2025-11-07 11:55:03.233634692
2025-11-07 11:55:02.239945,-16,2025-11-07 11:55:03.241327000
2025-11-07 11:55:02.239945,-3329,2025-11-07 11:55:03.249019308
2025-11-07 11:55:02.239945,-1,2025-11-07 11:55:03.256711615
2025-11-07 11:55:02.239945,-14,2025-11-07 11:55:03.264403923
2025-11-07 11:55:02.239945,-3841,2025-11-07 11:55:03.272096231
2025-11-07 11:55:02.239945,-1,2025-11-07 11:55:03.279788538
2025-11-07 11:55:02.239945,-14,2025-11-07 11:55:03.287480846
2025-11-07 11:55:02.239945,-4609,2025-11-07 11:55:03.295173154
2025-11-07 11:55:02.239945,-1,2025-11-07 11:55:03.302865462
2025-11-07 11:55:02.239945,-19,2025-11-07 11:55:03.310557769
2025-11-07 11:55:02.719749,-14,2025-11-07 11:55:03.318250077
2025-11-07 11:55:02.719749,-2817,2025-11-07 11:55:03.325942385
2025-11-07 11:55:02.719749,-1,2025-11-07 11:55:03.333634692
2025-11-07 11:55:02.719749,-9,2025-11-07 11:55:03.341327000
2025-11-07 11:55:02.719749,-3329,2025-11-07 11:55:03.349019308
2025-11-07 11:55:02.719749,-1,2025-11-07 11:55:03.356711615
2025-11-07 11:55:02.719749,-12,2025-11-07 11:55:03.364403923
2025-11-07 11:55:02.719749,-769,2025-11-07 11:55:03.372096231
2025-11-07 11:55:02.719749,-1,2025-11-07 11:55:03.379788538
2025-11-07 11:55:02.719749,-9,2025-11-07 11:55:03.387480846
2025-11-07 11:55:02.719749,-1537,2025-11-07 11:55:03.395173154
2025-11-07 11:55:02.719749,-1,2025-11-07 11:55:03.402865462
2025-11-07 11:55:02.719749,-2,2025-11-07 11:55:03.410557769
2025-11-07 11:55:02.719749,255,2025-11-07 11:55:03.418250077
2025-11-07 11:55:02.719749,0,2025-11-07 11:55:03.425942385
2025-11-07 11:55:02.719749,2,2025-11-07 11:55:03.433634692
2025-11-07 11:55:02.719749,-1024,2025-11-07 11:55:03.441327000
2025-11-07 11:55:02.719749,-1,2025-11-07 11:55:03.449019308
2025-11-07 11:55:02.719749,0,2025-11-07 11:55:03.456711615
2025-11-07 11:55:02.719749,512,2025-11-07 11:55:03.464403923
2025-11-07 11:55:02.719749,0,2025-11-07 11:55:03.472096231
2025-11-07 11:55:02.719749,-2,2025-11-07 11:55:03.479788538
2025-11-07 11:55:02.719749,767,2025-11-07 11:55:03.487480846
2025-11-07 11:55:02.719749,0,2025-11-07 11:55:03.495173154
2025-11-07 11:55:02.719749,12,2025-11-07 11:55:03.502865462
2025-11-07 11:55:02.719749,6656,2025-11-07 11:55:03.510557769
2025-11-07 11:55:02.719749,0,2025-11-07 11:55:03.518250077
2025-11-07 11:55:02.719749,21,2025-11-07 11:55:03.525942385
2025-11-07 11:55:02.719749,2304,2025-11-07 11:55:03.533634692
2025-11-07 11:55:02.719749,0,2025-11-07 11:55:03.541327000
2025-11-07 11:55:02.719749,19,2025-11-07 11:55:03.549019308
2025-11-07 11:55:02.719749,4864,2025-11-07 11:55:03.556711615
2025-11-07 11:55:02.719749,0,2025-11-07 11:55:03.564403923
2025-11-07 11:55:02.719749,7,2025-11-07 11:55:03.572096231
2025-11-07 11:55:02.719749,4096,2025-11-07 11:55:03.579788538
2025-11-07 11:55:02.719749,0,2025-11-07 11:55:03.587480846
2025-11-07 11:55:02.719749,14,2025-11-07 11:55:03.595173154
2025-11-07 11:55:02.719749,1024,2025-11-07 11:55:03.602865462
2025-11-07 11:55:02.719749,0,2025-11-07 11:55:03.610557769
2025-11-07 11:55:02.719749,7,2025-11-07 11:55:03.618250077
2025-11-07 11:55:02.719749,4864,2025-11-07 11:55:03.625942385
2025-11-07 11:55:02.719749,0,2025-11-07 11:55:03.633634692
2025-11-07 11:55:02.719749,29,2025-11-07 11:55:03.641327000
2025-11-07 11:55:02.719749,6144,2025-11-07 11:55:03.649019308
2025-11-07 11:55:02.719749,0,2025-11-07 11:55:03.656711615
2025-11-07 11:55:02.719749,31,2025-11-07 11:55:03.664403923
2025-11-07 11:55:02.719749,7936,2025-11-07 11:55:03.672096231
2025-11-07 11:55:02.719749,0,2025-11-07 11:55:03.679788538
2025-11-07 11:55:02.719749,12,2025-11-07 11:55:03.687480846
2025-11-07 11:55:02.719749,512,2025-11-07 11:55:03.695173154
2025-11-07 11:55:02.719749,0,2025-11-07 11:55:03.702865462
2025-11-07 11:55:02.719749,7,2025-11-07 11:55:03.710557769
2025-11-07 11:55:02.719749,2304,2025-11-07 11:55:03.718250077
2025-11-07 11:55:02.719749,0,2025-11-07 11:55:03.725942385
2025-11-07 11:55:02.719749,12,2025-11-07 11:55:03.733634692
2025-11-07 11:55:02.719749,1792,2025-11-07 11:55:03.741327000
2025-11-07 11:55:02.719749,0,2025-11-07 11:55:03.749019308
2025-11-07 11:55:02.719749,4,2025-11-07 11:55:03.756711615
2025-11-07 11:55:02.719749,-3072,2025-11-07 11:55:03.764403923
2025-11-07 11:55:02.719749,-1,2025-11-07 11:55:03.772096231
2025-11-07 11:55:02.719749,-82,2025-11-07 11:55:03.779788538
2025-11-07 11:55:02.719749,30719,2025-11-07 11:55:03.787480846
2025-11-07 11:55:02.719749,-1,2025-11-07 11:55:03.795173154
2025-11-07 11:55:02.719749,4,2025-11-07 11:55:03.802865462
2025-11-07 11:55:02.719749,-14848,2025-11-07 11:55:03.810557769
2025-11-07 11:55:02.719749,1,2025-11-07 11:55:03.818250077
2025-11-07 11:55:02.719749,858,2025-11-07 11:55:03.825942385
2025-11-07 11:55:02.719749,-6656,2025-11-07 11:55:03.833634692
2025-11-07 11:55:02.719749,2,2025-11-07 11:55:03.841327000
2025-11-07 11:55:02.719749,263,2025-11-07 11:55:03.849019308
2025-11-07 11:55:02.719749,-12288,2025-11-07 11:55:03.856711615
2025-11-07 11:55:02.719749,-1,2025-11-07 11:55:03.864403923
2025-11-07 11:55:02.719749,-72,2025-11-07 11:55:03.872096231
2025-11-07 11:55:02.719749,-17665,2025-11-07 11:55:03.879788538
2025-11-07 11:55:02.719749,-1,2025-11-07 11:55:03.887480846
2025-11-07 11:55:02.719749,-108,2025-11-07 11:55:03.895173154
2025-11-07 11:55:02.719749,-23809,2025-11-07 11:55:03.902865462
2025-11-07 11:55:02.719749,-1,2025-11-07 11:55:03.910557769
2025-11-07 11:55:02.719749,-74,2025-11-07 11:55:03.918250077
2025-11-07 11:55:02.719749,-22017,2025-11-07 11:55:03.925942385
2025-11-07 11:55:02.719749,-1,2025-11-07 11:55:03.933634692
2025-11-07 11:55:02.719749,-77,2025-11-07 11:55:03.941327000
2025-11-07 11:55:02.719749,-16385,2025-11-07 11:55:03.949019308
2025-11-07 11:55:02.719749,-1,2025-11-07 11:55:03.956711615
2025-11-07 11:55:02.719749,-62,2025-11-07 11:55:03.964403923
2025-11-07 11:55:02.719749,-15105,2025-11-07 11:55:03.972096231
2025-11-07 11:55:02.719749,-1,2025-11-07 11:55:03.979788538
2025-11-07 11:55:02.719749,-60,2025-11-07 11:55:03.987480846
2025-11-07 11:55:02.719749,-13313,2025-11-07 11:55:03.995173154
2025-11-07 11:55:02.719749,-1,2025-11-07 11:55:04.002865462
2025-11-07 11:55:02.719749,-50,2025-11-07 11:55:04.010557769
2025-11-07 11:55:02.719749,-12545,2025-11-07 11:55:04.018250077
2025-11-07 11:55:02.719749,-1,2025-11-07 11:55:04.025942385
2025-11-07 11:55:02.719749,-45,2025-11-07 11:55:04.033634692
2025-11-07 11:55:02.719749,-11265,2025-11-07 11:55:04.041327000
2025-11-07 11:55:02.719749,-1,2025-11-07 11:55:04.049019308
2025-11-07 11:55:02.719749,-41,2025-11-07 11:55:04.056711615
2025-11-07 11:55:02.719749,-9473,2025-11-07 11:55:04.064403923
2025-11-07 11:55:02.719749,-1,2025-11-07 11:55:04.072096231
2025-11-07 11:55:02.719749,-41,2025-11-07 11:55:04.079788538
2025-11-07 11:55:02.719749,-8961,2025-11-07 11:55:04.087480846
2025-11-07 11:55:02.719749,-1,2025-11-07 11:55:04.095173154
2025-11-07 11:55:02.719749,-41,2025-11-07 11:55:04.102865462
2025-11-07 11:55:02.719749,-10753,2025-11-07 11:55:04.110557769
2025-11-07 11:55:02.719749,-1,2025-11-07 11:55:04.118250077
2025-11-07 11:55:02.719749,-33,2025-11-07 11:55:04.125942385
2025-11-07 11:55:02.719749,-6401,2025-11-07 11:55:04.133634692
2025-11-07 11:55:02.719749,-1,2025-11-07 11:55:04.141327000
2025-11-07 11:55:02.719749,-19,2025-11-07 11:55:04.149019308
2025-11-07 11:55:03.284003,-12,2025-11-07 11:55:04.156711615
2025-11-07 11:55:03.284003,-257,2025-11-07 11:55:04.164403923
2025-11-07 11:55:03.284003,-1,2025-11-07 11:55:04.172096230
2025-11-07 11:55:03.284003,12,2025-11-07 11:55:04.179788538
2025-11-07 11:55:03.284003,3584,2025-11-07 11:55:04.187480846
2025-11-07 11:55:03.284003,0,2025-11-07 11:55:04.195173154
2025-11-07 11:55:03.284003,12,2025-11-07 11:55:04.202865462
2025-11-07 11:55:03.284003,4096,2025-11-07 11:55:04.210557769
2025-11-07 11:55:03.284003,0,2025-11-07 11:55:04.218250077
2025-11-07 11:55:03.284003,21,2025-11-07 11:55:04.225942385
2025-11-07 11:55:03.284003,5376,2025-11-07 11:55:04.233634692
2025-11-07 11:55:03.284003,0,2025-11-07 11:55:04.241327000
2025-11-07 11:55:03.284003,7,2025-11-07 11:55:04.249019308
2025-11-07 11:55:03.284003,1024,2025-11-07 11:55:04.256711615
2025-11-07 11:55:03.284003,0,2025-11-07 11:55:04.264403923
2025-11-07 11:55:03.284003,12,2025-11-07 11:55:04.272096231
2025-11-07 11:55:03.284003,0,2025-11-07 11:55:04.279788538
2025-11-07 11:55:03.284003,0,2025-11-07 11:55:04.287480846
2025-11-07 11:55:03.284003,2,2025-11-07 11:55:04.295173154
2025-11-07 11:55:03.284003,1792,2025-11-07 11:55:04.302865462
2025-11-07 11:55:03.284003,0,2025-11-07 11:55:04.310557769
2025-11-07 11:55:03.284003,2,2025-11-07 11:55:04.318250077
2025-11-07 11:55:03.284003,1024,2025-11-07 11:55:04.325942385
2025-11-07 11:55:03.284003,0,2025-11-07 11:55:04.333634692
2025-11-07 11:55:03.284003,2,2025-11-07 11:55:04.341327000
2025-11-07 11:55:03.284003,512,2025-11-07 11:55:04.349019308
2025-11-07 11:55:03.284003,0,2025-11-07 11:55:04.356711615
2025-11-07 11:55:03.284003,0,2025-11-07 11:55:04.364403923
2025-11-07 11:55:03.284003,-1024,2025-11-07 11:55:04.372096231
2025-11-07 11:55:03.284003,-1,2025-11-07 11:55:04.379788538
2025-11-07 11:55:03.284003,-4,2025-11-07 11:55:04.387480846
2025-11-07 11:55:03.284003,-2049,2025-11-07 11:55:04.395173154
2025-11-07 11:55:03.284003,-1,2025-11-07 11:55:04.402865462
2025-11-07 11:55:03.284003,-9,2025-11-07 11:55:04.410557769
2025-11-07 11:55:03.284003,-769,2025-11-07 11:55:04.418250077
2025-11-07 11:55:03.284003,-1,2025-11-07 11:55:04.425942385
2025-11-07 11:55:03.284003,-12,2025-11-07 11:55:04.433634692
2025-11-07 11:55:03.284003,-2049,2025-11-07 11:55:04.441327000
2025-11-07 11:55:03.284003,-1,2025-11-07 11:55:04.449019308
2025-11-07 11:55:03.284003,-4,2025-11-07 11:55:04.456711615
2025-11-07 11:55:03.284003,-2817,2025-11-07 11:55:04.464403923
2025-11-07 11:55:03.284003,-1,2025-11-07 11:55:04.472096231
2025-11-07 11:55:03.284003,-9,2025-11-07 11:55:04.479788538
2025-11-07 11:55:03.284003,-2049,2025-11-07 11:55:04.487480846
2025-11-07 11:55:03.284003,-1,2025-11-07 11:55:04.495173154
2025-11-07 11:55:03.284003,-4,2025-11-07 11:55:04.502865462
2025-11-07 11:55:03.284003,-257,2025-11-07 11:55:04.510557769
2025-11-07 11:55:03.284003,-1,2025-11-07 11:55:04.518250077
2025-11-07 11:55:03.284003,-9,2025-11-07 11:55:04.525942385
2025-11-07 11:55:03.284003,-1537,2025-11-07 11:55:04.533634692
2025-11-07 11:55:03.284003,-1,2025-11-07 11:55:04.541327000
2025-11-07 11:55:03.284003,-9,2025-11-07 11:55:04.549019308
2025-11-07 11:55:03.284003,-2049,2025-11-07 11:55:04.556711615
2025-11-07 11:55:03.284003,-1,2025-11-07 11:55:04.564403923
2025-11-07 11:55:03.284003,0,2025-11-07 11:55:04.572096231
2025-11-07 11:55:03.284003,-1024,2025-11-07 11:55:04.579788538
2025-11-07 11:55:03.284003,-1,2025-11-07 11:55:04.587480846
2025-11-07 11:55:03.284003,-7,2025-11-07 11:55:04.595173154
2025-11-07 11:55:03.284003,-1537,2025-11-07 11:55:04.602865462
2025-11-07 11:55:03.284003,-1,2025-11-07 11:55:04.610557769
2025-11-07 11:55:03.284003,-4,2025-11-07 11:55:04.618250077
2025-11-07 11:55:03.284003,1279,2025-11-07 11:55:04.625942385
2025-11-07 11:55:03.284003,0,2025-11-07 11:55:04.633634692
2025-11-07 11:55:03.284003,0,2025-11-07 11:55:04.641327000
2025-11-07 11:55:03.284003,-1024,2025-11-07 11:55:04.649019308
2025-11-07 11:55:03.284003,-1,2025-11-07 11:55:04.656711615
2025-11-07 11:55:03.284003,-4,2025-11-07 11:55:04.664403923
2025-11-07 11:55:03.284003,-1537,2025-11-07 11:55:04.672096231
2025-11-07 11:55:03.284003,-1,2025-11-07 11:55:04.679788538
2025-11-07 11:55:03.284003,0,2025-11-07 11:55:04.687480846
2025-11-07 11:55:03.284003,0,2025-11-07 11:55:04.695173154
2025-11-07 11:55:03.284003,0,2025-11-07 11:55:04.702865462
2025-11-07 11:55:03.284003,-2,2025-11-07 11:55:04.710557769
2025-11-07 11:55:03.284003,-257,2025-11-07 11:55:04.718250077
2025-11-07 11:55:03.284003,-1,2025-11-07 11:55:04.725942385
2025-11-07 11:55:03.284003,-9,2025-11-07 11:55:04.733634692
2025-11-07 11:55:03.284003,767,2025-11-07 11:55:04.741327000
2025-11-07 11:55:03.284003,0,2025-11-07 11:55:04.749019308
2025-11-07 11:55:03.284003,12,2025-11-07 11:55:04.756711615
2025-11-07 11:55:03.284003,2304,2025-11-07 11:55:04.764403923
2025-11-07 11:55:03.284003,0,2025-11-07 11:55:04.772096231
2025-11-07 11:55:03.284003,19,2025-11-07 11:55:04.779788538
2025-11-07 11:55:03.284003,4096,2025-11-07 11:55:04.787480846
2025-11-07 11:55:03.284003,0,2025-11-07 11:55:04.795173154
2025-11-07 11:55:03.284003,4,2025-11-07 11:55:04.802865462
2025-11-07 11:55:03.284003,-1792,2025-11-07 11:55:04.810557769
2025-11-07 11:55:03.284003,-1,2025-11-07 11:55:04.818250077
2025-11-07 11:55:03.284003,-9,2025-11-07 11:55:04.825942385
2025-11-07 11:55:03.284003,767,2025-11-07 11:55:04.833634692
2025-11-07 11:55:03.284003,0,2025-11-07 11:55:04.841327000
2025-11-07 11:55:03.284003,2,2025-11-07 11:55:04.849019308
2025-11-07 11:55:03.284003,-512,2025-11-07 11:55:04.856711615
2025-11-07 11:55:03.284003,-1,2025-11-07 11:55:04.864403923
2025-11-07 11:55:03.284003,0,2025-11-07 11:55:04.872096231
2025-11-07 11:55:03.284003,-3584,2025-11-07 11:55:04.879788538
2025-11-07 11:55:03.284003,-1,2025-11-07 11:55:04.887480846
2025-11-07 11:55:03.284003,-60,2025-11-07 11:55:04.895173154
2025-11-07 11:55:03.284003,-32513,2025-11-07 11:55:04.902865462
2025-11-07 11:55:03.284003,-1,2025-11-07 11:55:04.910557769
2025-11-07 11:55:03.284003,-77,2025-11-07 11:55:04.918250077
2025-11-07 11:55:03.284003,2559,2025-11-07 11:55:04.925942385
2025-11-07 11:55:03.284003,1,2025-11-07 11:55:04.933634692
2025-11-07 11:55:03.284003,700,2025-11-07 11:55:04.941327000
2025-11-07 11:55:03.284003,-7936,2025-11-07 11:55:04.949019308
2025-11-07 11:55:03.284003,2,2025-11-07 11:55:04.956711615
2025-11-07 11:55:03.284003,340,2025-11-07 11:55:04.964403923
2025-11-07 11:55:03.284003,3072,2025-11-07 11:55:04.972096231
2025-11-07 11:55:03.284003,0,2025-11-07 11:55:04.979788538
2025-11-07 11:55:03.284003,-38,2025-11-07 11:55:04.987480846
2025-11-07 11:55:03.829687,-43,2025-11-07 11:55:04.995173154
2025-11-07 11:55:03.829687,-22529,2025-11-07 11:55:05.002865462
2025-11-07 11:55:03.829687,-1,2025-11-07 11:55:05.010557769
2025-11-07 11:55:03.829687,-87,2025-11-07 11:55:05.018250077
2025-11-07 11:55:03.829687,-17665,2025-11-07 11:55:05.025942385
2025-11-07 11:55:03.829687,-1,2025-11-07 11:55:05.033634692
2025-11-07 11:55:03.829687,-67,2025-11-07 11:55:05.041327000
2025-11-07 11:55:03.829687,-16385,2025-11-07 11:55:05.049019308
2025-11-07 11:55:03.829687,-1,2025-11-07 11:55:05.056711615
2025-11-07 11:55:03.829687,-55,2025-11-07 11:55:05.064403923
2025-11-07 11:55:03.829687,-8193,2025-11-07 11:55:05.072096231
2025-11-07 11:55:03.829687,-1,2025-11-07 11:55:05.079788538
2025-11-07 11:55:03.829687,-24,2025-11-07 11:55:05.087480846
2025-11-07 11:55:03.829687,-7169,2025-11-07 11:55:05.095173154
2025-11-07 11:55:03.829687,-1,2025-11-07 11:55:05.102865462
2025-11-07 11:55:03.829687,-29,2025-11-07 11:55:05.110557769
2025-11-07 11:55:03.829687,-6401,2025-11-07 11:55:05.118250077
2025-11-07 11:55:03.829687,-1,2025-11-07 11:55:05.125942385
2025-11-07 11:55:03.829687,-19,2025-11-07 11:55:05.133634692
2025-11-07 11:55:03.829687,-5121,2025-11-07 11:55:05.141327000
2025-11-07 11:55:03.829687,-1,2025-11-07 11:55:05.149019308
2025-11-07 11:55:03.829687,-21,2025-11-07 11:55:05.156711615
2025-11-07 11:55:03.829687,-3841,2025-11-07 11:55:05.164403923
2025-11-07 11:55:03.829687,-1,2025-11-07 11:55:05.172096230
2025-11-07 11:55:03.829687,-19,2025-11-07 11:55:05.179788538
2025-11-07 11:55:03.829687,-4609,2025-11-07 11:55:05.187480846
2025-11-07 11:55:03.829687,-1,2025-11-07 11:55:05.195173154
2025-11-07 11:55:03.829687,-16,2025-11-07 11:55:05.202865462
2025-11-07 11:55:03.829687,-2817,2025-11-07 11:55:05.210557769
2025-11-07 11:55:03.829687,-1,2025-11-07 11:55:05.218250077
2025-11-07 11:55:03.829687,-2,2025-11-07 11:55:05.225942385
2025-11-07 11:55:03.829687,-769,2025-11-07 11:55:05.233634692
2025-11-07 11:55:03.829687,-1,2025-11-07 11:55:05.241327000
2025-11-07 11:55:03.829687,2,2025-11-07 11:55:05.249019308
2025-11-07 11:55:03.829687,4096,2025-11-07 11:55:05.256711615
2025-11-07 11:55:03.829687,0,2025-11-07 11:55:05.264403923
2025-11-07 11:55:03.829687,16,2025-11-07 11:55:05.272096231
2025-11-07 11:55:03.829687,7424,2025-11-07 11:55:05.279788538
2025-11-07 11:55:03.829687,0,2025-11-07 11:55:05.287480846
2025-11-07 11:55:03.829687,38,2025-11-07 11:55:05.295173154
2025-11-07 11:55:03.829687,9728,2025-11-07 11:55:05.302865462
2025-11-07 11:55:03.829687,0,2025-11-07 11:55:05.310557769
2025-11-07 11:55:03.829687,43,2025-11-07 11:55:05.318250077
2025-11-07 11:55:03.829687,7936,2025-11-07 11:55:05.325942385
2025-11-07 11:55:03.829687,0,2025-11-07 11:55:05.333634692
2025-11-07 11:55:03.829687,16,2025-11-07 11:55:05.341327000
2025-11-07 11:55:03.829687,512,2025-11-07 11:55:05.349019308
2025-11-07 11:55:03.829687,0,2025-11-07 11:55:05.356711615
2025-11-07 11:55:03.829687,-12,2025-11-07 11:55:05.364403923
2025-11-07 11:55:03.829687,-3329,2025-11-07 11:55:05.372096231
2025-11-07 11:55:03.829687,-1,2025-11-07 11:55:05.379788538
2025-11-07 11:55:03.829687,-16,2025-11-07 11:55:05.387480846
2025-11-07 11:55:03.829687,-3841,2025-11-07 11:55:05.395173154
2025-11-07 11:55:03.829687,-1,2025-11-07 11:55:05.402865462
2025-11-07 11:55:03.829687,-14,2025-11-07 11:55:05.410557769
2025-11-07 11:55:03.829687,-3841,2025-11-07 11:55:05.418250077
2025-11-07 11:55:03.829687,-1,2025-11-07 11:55:05.425942385
2025-11-07 11:55:03.829687,-7,2025-11-07 11:55:05.433634692
2025-11-07 11:55:03.829687,-2049,2025-11-07 11:55:05.441327000
2025-11-07 11:55:03.829687,-1,2025-11-07 11:55:05.449019308
2025-11-07 11:55:03.829687,-16,2025-11-07 11:55:05.456711615
2025-11-07 11:55:03.829687,-2817,2025-11-07 11:55:05.464403923
2025-11-07 11:55:03.829687,-1,2025-11-07 11:55:05.472096231
2025-11-07 11:55:03.829687,-14,2025-11-07 11:55:05.479788538
2025-11-07 11:55:03.829687,-3841,2025-11-07 11:55:05.487480846
2025-11-07 11:55:03.829687,-1,2025-11-07 11:55:05.495173154
2025-11-07 11:55:03.829687,-16,2025-11-07 11:55:05.502865462
2025-11-07 11:55:03.829687,-4609,2025-11-07 11:55:05.510557769
2025-11-07 11:55:03.829687,-1,2025-11-07 11:55:05.518250077
2025-11-07 11:55:03.829687,-12,2025-11-07 11:55:05.525942385
2025-11-07 11:55:03.829687,-2817,2025-11-07 11:55:05.533634692
2025-11-07 11:55:03.829687,-1,2025-11-07 11:55:05.541327000
2025-11-07 11:55:03.829687,-14,2025-11-07 11:55:05.549019308
2025-11-07 11:55:03.829687,-2049,2025-11-07 11:55:05.556711615
2025-11-07 11:55:03.829687,-1,2025-11-07 11:55:05.564403923
2025-11-07 11:55:03.829687,-9,2025-11-07 11:55:05.572096231
2025-11-07 11:55:03.829687,-769,2025-11-07 11:55:05.579788538
2025-11-07 11:55:03.829687,-1,2025-11-07 11:55:05.587480846
2025-11-07 11:55:03.829687,-4,2025-11-07 11:55:05.595173154
2025-11-07 11:55:03.829687,-1537,2025-11-07 11:55:05.602865462
2025-11-07 11:55:03.829687,-1,2025-11-07 11:55:05.610557769
2025-11-07 11:55:03.829687,0,2025-11-07 11:55:05.618250077
2025-11-07 11:55:03.829687,-512,2025-11-07 11:55:05.625942385
2025-11-07 11:55:03.829687,-1,2025-11-07 11:55:05.633634692
2025-11-07 11:55:03.829687,-2,2025-11-07 11:55:05.641327000
2025-11-07 11:55:03.829687,255,2025-11-07 11:55:05.649019308
2025-11-07 11:55:03.829687,0,2025-11-07 11:55:05.656711615
2025-11-07 11:55:03.829687,2,2025-11-07 11:55:05.664403923
2025-11-07 11:55:03.829687,1792,2025-11-07 11:55:05.672096231
2025-11-07 11:55:03.829687,0,2025-11-07 11:55:05.679788538
2025-11-07 11:55:03.829687,7,2025-11-07 11:55:05.687480846
2025-11-07 11:55:03.829687,1792,2025-11-07 11:55:05.695173154
2025-11-07 11:55:03.829687,0,2025-11-07 11:55:05.702865462
2025-11-07 11:55:03.829687,9,2025-11-07 11:55:05.710557769
2025-11-07 11:55:03.829687,1024,2025-11-07 11:55:05.718250077
2025-11-07 11:55:03.829687,0,2025-11-07 11:55:05.725942385
2025-11-07 11:55:03.829687,7,2025-11-07 11:55:05.733634692
2025-11-07 11:55:03.829687,2304,2025-11-07 11:55:05.741327000
2025-11-07 11:55:03.829687,0,2025-11-07 11:55:05.749019308
2025-11-07 11:55:03.829687,4,2025-11-07 11:55:05.756711615
2025-11-07 11:55:03.829687,1792,2025-11-07 11:55:05.764403923
2025-11-07 11:55:03.829687,0,2025-11-07 11:55:05.772096231
2025-11-07 11:55:03.829687,2,2025-11-07 11:55:05.779788538
2025-11-07 11:55:03.829687,1792,2025-11-07 11:55:05.787480846
2025-11-07 11:55:03.829687,0,2025-11-07 11:55:05.795173154
2025-11-07 11:55:03.829687,12,2025-11-07 11:55:05.802865462
2025-11-07 11:55:03.829687,1792,2025-11-07 11:55:05.810557769
2025-11-07 11:55:03.829687,0,2025-11-07 11:55:05.818250077
2025-11-07 11:55:03.829687,7,2025-11-07 11:55:05.825942385
2025-11-07 11:55:04.399635,2,2025-11-07 11:55:05.833634692
2025-11-07 11:55:04.399635,-1024,2025-11-07 11:55:05.841327000
2025-11-07 11:55:04.399635,-1,2025-11-07 11:55:05.849019308
2025-11-07 11:55:04.399635,2,2025-11-07 11:55:05.856711615
2025-11-07 11:55:04.399635,3584,2025-11-07 11:55:05.864403923
2025-11-07 11:55:04.399635,0,2025-11-07 11:55:05.872096231
2025-11-07 11:55:04.399635,36,2025-11-07 11:55:05.879788538
2025-11-07 11:55:04.399635,12288,2025-11-07 11:55:05.887480846
2025-11-07 11:55:04.399635,0,2025-11-07 11:55:05.895173154
2025-11-07 11:55:04.399635,45,2025-11-07 11:55:05.902865462
2025-11-07 11:55:04.399635,9728,2025-11-07 11:55:05.910557769
2025-11-07 11:55:04.399635,0,2025-11-07 11:55:05.918250077
2025-11-07 11:55:04.399635,24,2025-11-07 11:55:05.925942385
2025-11-07 11:55:04.399635,4096,2025-11-07 11:55:05.933634692
2025-11-07 11:55:04.399635,0,2025-11-07 11:55:05.941327000
2025-11-07 11:55:04.399635,21,2025-11-07 11:55:05.949019308
2025-11-07 11:55:04.399635,5376,2025-11-07 11:55:05.956711615
2025-11-07 11:55:04.399635,0,2025-11-07 11:55:05.964403923
2025-11-07 11:55:04.399635,21,2025-11-07 11:55:05.972096231
2025-11-07 11:55:04.399635,4096,2025-11-07 11:55:05.979788538
2025-11-07 11:55:04.399635,0,2025-11-07 11:55:05.987480846
2025-11-07 11:55:04.399635,12,2025-11-07 11:55:05.995173154
2025-11-07 11:55:04.399635,-3072,2025-11-07 11:55:06.002865462
2025-11-07 11:55:04.399635,-1,2025-11-07 11:55:06.010557769
2025-11-07 11:55:04.399635,-94,2025-11-07 11:55:06.018250077
2025-11-07 11:55:04.399635,31999,2025-11-07 11:55:06.025942385
2025-11-07 11:55:04.399635,-1,2025-11-07 11:55:06.033634692
2025-11-07 11:55:04.399635,74,2025-11-07 11:55:06.041327000
2025-11-07 11:55:04.399635,12288,2025-11-07 11:55:06.049019308
2025-11-07 11:55:04.399635,2,2025-11-07 11:55:06.056711615
2025-11-07 11:55:04.399635,903,2025-11-07 11:55:06.064403923
2025-11-07 11:55:04.399635,-21504,2025-11-07 11:55:06.072096231
2025-11-07 11:55:04.399635,2,2025-11-07 11:55:06.079788538
2025-11-07 11:55:04.399635,188,2025-11-07 11:55:06.087480846
2025-11-07 11:55:04.399635,-13568,2025-11-07 11:55:06.095173154
2025-11-07 11:55:04.399635,-1,2025-11-07 11:55:06.102865462
2025-11-07 11:55:04.399635,-55,2025-11-07 11:55:06.110557769
2025-11-07 11:55:04.399635,-17665,2025-11-07 11:55:06.118250077
2025-11-07 11:55:04.399635,-1,2025-11-07 11:55:06.125942385
2025-11-07 11:55:04.399635,-103,2025-11-07 11:55:06.133634692
2025-11-07 11:55:04.399635,-21249,2025-11-07 11:55:06.141327000
2025-11-07 11:55:04.399635,-1,2025-11-07 11:55:06.149019308
2025-11-07 11:55:04.399635,-67,2025-11-07 11:55:06.156711615
2025-11-07 11:55:04.399635,-18689,2025-11-07 11:55:06.164403923
2025-11-07 11:55:04.399635,-1,2025-11-07 11:55:06.172096230
2025-11-07 11:55:04.399635,-67,2025-11-07 11:55:06.179788538
2025-11-07 11:55:04.399635,-15105,2025-11-07 11:55:06.187480846
2025-11-07 11:55:04.399635,-1,2025-11-07 11:55:06.195173154
2025-11-07 11:55:04.399635,-62,2025-11-07 11:55:06.202865462
2025-11-07 11:55:04.399635,-13825,2025-11-07 11:55:06.210557769
2025-11-07 11:55:04.399635,-1,2025-11-07 11:55:06.218250077
2025-11-07 11:55:04.399635,-55,2025-11-07 11:55:06.225942385
2025-11-07 11:55:04.399635,-13313,2025-11-07 11:55:06.233634692
2025-11-07 11:55:04.399635,-1,2025-11-07 11:55:06.241327000
2025-11-07 11:55:04.399635,-48,2025-11-07 11:55:06.249019308
2025-11-07 11:55:04.399635,-12545,2025-11-07 11:55:06.256711615
2025-11-07 11:55:04.399635,-1,2025-11-07 11:55:06.264403923
2025-11-07 11:55:04.399635,-43,2025-11-07 11:55:06.272096231
2025-11-07 11:55:04.399635,-10753,2025-11-07 11:55:06.279788538
2025-11-07 11:55:04.399635,-1,2025-11-07 11:55:06.287480846
2025-11-07 11:55:04.399635,-45,2025-11-07 11:55:06.295173154
2025-11-07 11:55:04.399635,-9473,2025-11-07 11:55:06.302865462
2025-11-07 11:55:04.399635,-1,2025-11-07 11:55:06.310557769
2025-11-07 11:55:04.399635,-41,2025-11-07 11:55:06.318250077
2025-11-07 11:55:04.399635,-9473,2025-11-07 11:55:06.325942385
2025-11-07 11:55:04.399635,-1,2025-11-07 11:55:06.333634692
2025-11-07 11:55:04.399635,-36,2025-11-07 11:55:06.341327000
2025-11-07 11:55:04.399635,-8961,2025-11-07 11:55:06.349019308
2025-11-07 11:55:04.399635,-1,2025-11-07 11:55:06.356711615
2025-11-07 11:55:04.399635,-29,2025-11-07 11:55:06.364403923
2025-11-07 11:55:04.399635,-6401,2025-11-07 11:55:06.372096231
2025-11-07 11:55:04.399635,-1,2025-11-07 11:55:06.379788538
2025-11-07 11:55:04.399635,-24,2025-11-07 11:55:06.387480846
2025-11-07 11:55:04.399635,-2817,2025-11-07 11:55:06.395173154
2025-11-07 11:55:04.399635,-1,2025-11-07 11:55:06.402865462
2025-11-07 11:55:04.399635,-4,2025-11-07 11:55:06.410557769
2025-11-07 11:55:04.399635,2559,2025-11-07 11:55:06.418250077
2025-11-07 11:55:04.399635,0,2025-11-07 11:55:06.425942385
2025-11-07 11:55:04.399635,16,2025-11-07 11:55:06.433634692
2025-11-07 11:55:04.399635,4864,2025-11-07 11:55:06.441327000
2025-11-07 11:55:04.399635,0,2025-11-07 11:55:06.449019308
2025-11-07 11:55:04.399635,16,2025-11-07 11:55:06.456711615
2025-11-07 11:55:04.399635,512,2025-11-07 11:55:06.464403923
2025-11-07 11:55:04.399635,0,2025-11-07 11:55:06.472096231
2025-11-07 11:55:04.399635,0,2025-11-07 11:55:06.479788538
2025-11-07 11:55:04.399635,-512,2025-11-07 11:55:06.487480846
2025-11-07 11:55:04.399635,-1,2025-11-07 11:55:06.495173154
2025-11-07 11:55:04.399635,-9,2025-11-07 11:55:06.502865462
2025-11-07 11:55:04.399635,-769,2025-11-07 11:55:06.510557769
2025-11-07 11:55:04.399635,-1,2025-11-07 11:55:06.518250077
2025-11-07 11:55:04.399635,-4,2025-11-07 11:55:06.525942385
2025-11-07 11:55:04.399635,-257,2025-11-07 11:55:06.533634692
2025-11-07 11:55:04.399635,-1,2025-11-07 11:55:06.541327000
2025-11-07 11:55:04.399635,0,2025-11-07 11:55:06.549019308
2025-11-07 11:55:04.399635,-1024,2025-11-07 11:55:06.556711615
2025-11-07 11:55:04.399635,-1,2025-11-07 11:55:06.564403923
2025-11-07 11:55:04.399635,2,2025-11-07 11:55:06.572096231
2025-11-07 11:55:04.399635,-512,2025-11-07 11:55:06.579788538
2025-11-07 11:55:04.399635,-1,2025-11-07 11:55:06.587480846
2025-11-07 11:55:04.399635,-7,2025-11-07 11:55:06.595173154
2025-11-07 11:55:04.399635,-257,2025-11-07 11:55:06.602865462
2025-11-07 11:55:04.399635,-1,2025-11-07 11:55:06.610557769
2025-11-07 11:55:04.399635,-7,2025-11-07 11:55:06.618250077
2025-11-07 11:55:04.399635,-2817,2025-11-07 11:55:06.625942385
2025-11-07 11:55:04.399635,-1,2025-11-07 11:55:06.633634692
2025-11-07 11:55:04.399635,-9,2025-11-07 11:55:06.641327000
2025-11-07 11:55:04.399635,-2817,2025-11-07 11:55:06.649019308
2025-11-07 11:55:04.399635,-1,2025-11-07 11:55:06.656711615
2025-11-07 11:55:04.399635,-9,2025-11-07 11:55:06.664403923
2025-11-07 11:55:05.029103,-16,2025-11-07 11:55:06.672096231
2025-11-07 11:55:05.029103,-3329,2025-11-07 11:55:06.679788538
2025-11-07 11:55:05.029103,-1,2025-11-07 11:55:06.687480846
2025-11-07 11:55:05.029103,-7,2025-11-07 11:55:06.695173154
2025-11-07 11:55:05.029103,-2817,2025-11-07 11:55:06.702865462
2025-11-07 11:55:05.029103,-1,2025-11-07 11:55:06.710557769
2025-11-07 11:55:05.029103,-12,2025-11-07 11:55:06.718250077
2025-11-07 11:55:05.029103,-257,2025-11-07 11:55:06.725942385
2025-11-07 11:55:05.029103,-1,2025-11-07 11:55:06.733634692
2025-11-07 11:55:05.029103,12,2025-11-07 11:55:06.741327000
2025-11-07 11:55:05.029103,4096,2025-11-07 11:55:06.749019308
2025-11-07 11:55:05.029103,0,2025-11-07 11:55:06.756711615
2025-11-07 11:55:05.029103,4,2025-11-07 11:55:06.764403923
2025-11-07 11:55:05.029103,2304,2025-11-07 11:55:06.772096231
2025-11-07 11:55:05.029103,0,2025-11-07 11:55:06.779788538
2025-11-07 11:55:05.029103,16,2025-11-07 11:55:06.787480846
2025-11-07 11:55:05.029103,1792,2025-11-07 11:55:06.795173154
2025-11-07 11:55:05.029103,0,2025-11-07 11:55:06.802865462
2025-11-07 11:55:05.029103,7,2025-11-07 11:55:06.810557769
2025-11-07 11:55:05.029103,1792,2025-11-07 11:55:06.818250077
2025-11-07 11:55:05.029103,0,2025-11-07 11:55:06.825942385
2025-11-07 11:55:05.029103,9,2025-11-07 11:55:06.833634692
2025-11-07 11:55:05.029103,2304,2025-11-07 11:55:06.841327000
2025-11-07 11:55:05.029103,0,2025-11-07 11:55:06.849019308
2025-11-07 11:55:05.029103,7,2025-11-07 11:55:06.856711615
2025-11-07 11:55:05.029103,2304,2025-11-07 11:55:06.864403923
2025-11-07 11:55:05.029103,0,2025-11-07 11:55:06.872096231
2025-11-07 11:55:05.029103,9,2025-11-07 11:55:06.879788538
2025-11-07 11:55:05.029103,1792,2025-11-07 11:55:06.887480846
2025-11-07 11:55:05.029103,0,2025-11-07 11:55:06.895173154
2025-11-07 11:55:05.029103,9,2025-11-07 11:55:06.902865462
2025-11-07 11:55:05.029103,1792,2025-11-07 11:55:06.910557769
2025-11-07 11:55:05.029103,0,2025-11-07 11:55:06.918250077
2025-11-07 11:55:05.029103,7,2025-11-07 11:55:06.925942385
2025-11-07 11:55:05.029103,1024,2025-11-07 11:55:06.933634692
2025-11-07 11:55:05.029103,0,2025-11-07 11:55:06.941327000
2025-11-07 11:55:05.029103,2,2025-11-07 11:55:06.949019308
2025-11-07 11:55:05.029103,2304,2025-11-07 11:55:06.956711615
2025-11-07 11:55:05.029103,0,2025-11-07 11:55:06.964403923
2025-11-07 11:55:05.029103,9,2025-11-07 11:55:06.972096231
2025-11-07 11:55:05.029103,1024,2025-11-07 11:55:06.979788538
2025-11-07 11:55:05.029103,0,2025-11-07 11:55:06.987480846
2025-11-07 11:55:05.029103,2,2025-11-07 11:55:06.995173154
2025-11-07 11:55:05.029103,-1024,2025-11-07 11:55:07.002865462
2025-11-07 11:55:05.029103,-1,2025-11-07 11:55:07.010557769
2025-11-07 11:55:05.029103,0,2025-11-07 11:55:07.018250077
2025-11-07 11:55:05.029103,2304,2025-11-07 11:55:07.025942385
2025-11-07 11:55:05.029103,0,2025-11-07 11:55:07.033634692
2025-11-07 11:55:05.029103,16,2025-11-07 11:55:07.041327000
2025-11-07 11:55:05.029103,6656,2025-11-07 11:55:07.049019308
2025-11-07 11:55:05.029103,0,2025-11-07 11:55:07.056711615
2025-11-07 11:55:05.029103,24,2025-11-07 11:55:07.064403923
2025-11-07 11:55:05.029103,6144,2025-11-07 11:55:07.072096231
2025-11-07 11:55:05.029103,0,2025-11-07 11:55:07.079788538
2025-11-07 11:55:05.029103,16,2025-11-07 11:55:07.087480846
2025-11-07 11:55:05.029103,-1024,2025-11-07 11:55:07.095173154
2025-11-07 11:55:05.029103,-1,2025-11-07 11:55:07.102865462
2025-11-07 11:55:05.029103,-4,2025-11-07 11:55:07.110557769
2025-11-07 11:55:05.029103,767,2025-11-07 11:55:07.118250077
2025-11-07 11:55:05.029103,0,2025-11-07 11:55:07.125942385
2025-11-07 11:55:05.029103,2,2025-11-07 11:55:07.133634692
2025-11-07 11:55:05.029103,0,2025-11-07 11:55:07.141327000
2025-11-07 11:55:05.029103,0,2025-11-07 11:55:07.149019308
2025-11-07 11:55:05.029103,-4,2025-11-07 11:55:07.156711615
2025-11-07 11:55:05.029103,-2049,2025-11-07 11:55:07.164403923
2025-11-07 11:55:05.029103,-1,2025-11-07 11:55:07.172096230
2025-11-07 11:55:05.029103,-50,2025-11-07 11:55:07.179788538
2025-11-07 11:55:05.029103,-31233,2025-11-07 11:55:07.187480846
2025-11-07 11:55:05.029103,-1,2025-11-07 11:55:07.195173154
2025-11-07 11:55:05.029103,-89,2025-11-07 11:55:07.202865462
2025-11-07 11:55:05.029103,-9729,2025-11-07 11:55:07.210557769
2025-11-07 11:55:05.029103,0,2025-11-07 11:55:07.218250077
2025-11-07 11:55:05.029103,688,2025-11-07 11:55:07.225942385
2025-11-07 11:55:05.029103,14848,2025-11-07 11:55:07.233634692
2025-11-07 11:55:05.029103,3,2025-11-07 11:55:07.241327000
2025-11-07 11:55:05.029103,459,2025-11-07 11:55:07.249019308
2025-11-07 11:55:05.029103,14848,2025-11-07 11:55:07.256711615
2025-11-07 11:55:05.029103,0,2025-11-07 11:55:07.264403923
2025-11-07 11:55:05.029103,-58,2025-11-07 11:55:07.272096231
2025-11-07 11:55:05.029103,-13825,2025-11-07 11:55:07.279788538
2025-11-07 11:55:05.029103,-1,2025-11-07 11:55:07.287480846
2025-11-07 11:55:05.029103,-87,2025-11-07 11:55:07.295173154
2025-11-07 11:55:05.029103,-25089,2025-11-07 11:55:07.302865462
2025-11-07 11:55:05.029103,-1,2025-11-07 11:55:07.310557769
2025-11-07 11:55:05.029103,-74,2025-11-07 11:55:07.318250077
2025-11-07 11:55:05.029103,-18689,2025-11-07 11:55:07.325942385
2025-11-07 11:55:05.029103,-1,2025-11-07 11:55:07.333634692
2025-11-07 11:55:05.029103,-87,2025-11-07 11:55:07.341327000
2025-11-07 11:55:05.029103,-18177,2025-11-07 11:55:07.349019308
2025-11-07 11:55:05.029103,-1,2025-11-07 11:55:07.356711615
2025-11-07 11:55:05.029103,-62,2025-11-07 11:55:07.364403923
2025-11-07 11:55:05.029103,-15617,2025-11-07 11:55:07.372096231
2025-11-07 11:55:05.029103,-1,2025-11-07 11:55:07.379788538
2025-11-07 11:55:05.029103,-65,2025-11-07 11:55:07.387480846
2025-11-07 11:55:05.029103,-15617,2025-11-07 11:55:07.395173154
2025-11-07 11:55:05.029103,-1,2025-11-07 11:55:07.402865462
2025-11-07 11:55:05.029103,-53,2025-11-07 11:55:07.410557769
2025-11-07 11:55:05.029103,-13313,2025-11-07 11:55:07.418250077
2025-11-07 11:55:05.029103,-1,2025-11-07 11:55:07.425942385
2025-11-07 11:55:05.029103,-50,2025-11-07 11:55:07.433634692
2025-11-07 11:55:05.029103,-12545,2025-11-07 11:55:07.441327000
2025-11-07 11:55:05.029103,-1,2025-11-07 11:55:07.449019308
2025-11-07 11:55:05.029103,-50,2025-11-07 11:55:07.456711615
2025-11-07 11:55:05.029103,-10753,2025-11-07 11:55:07.464403923
2025-11-07 11:55:05.029103,-1,2025-11-07 11:55:07.472096231
2025-11-07 11:55:05.029103,-43,2025-11-07 11:55:07.479788538
2025-11-07 11:55:05.029103,-11265,2025-11-07 11:55:07.487480846
2025-11-07 11:55:05.029103,-1,2025-11-07 11:55:07.495173154
2025-11-07 11:55:05.029103,-36,2025-11-07 11:55:07.502865462
2025-11-07 11:55:05.540795,-36,2025-11-07 11:55:07.510557769
2025-11-07 11:55:05.540795,-8193,2025-11-07 11:55:07.518250077
2025-11-07 11:55:05.540795,-1,2025-11-07 11:55:07.525942385
2025-11-07 11:55:05.540795,-24,2025-11-07 11:55:07.533634692
2025-11-07 11:55:05.540795,-4609,2025-11-07 11:55:07.541327000
2025-11-07 11:55:05.540795,-1,2025-11-07 11:55:07.549019308
2025-11-07 11:55:05.540795,-4,2025-11-07 11:55:07.556711615
2025-11-07 11:55:05.540795,767,2025-11-07 11:55:07.564403923
2025-11-07 11:55:05.540795,0,2025-11-07 11:55:07.572096231
2025-11-07 11:55:05.540795,7,2025-11-07 11:55:07.579788538
2025-11-07 11:55:05.540795,4864,2025-11-07 11:55:07.587480846
2025-11-07 11:55:05.540795,0,2025-11-07 11:55:07.595173154
2025-11-07 11:55:05.540795,21,2025-11-07 11:55:07.602865462
2025-11-07 11:55:05.540795,4096,2025-11-07 11:55:07.610557769
2025-11-07 11:55:05.540795,0,2025-11-07 11:55:07.618250077
2025-11-07 11:55:05.540795,7,2025-11-07 11:55:07.625942385
2025-11-07 11:55:05.540795,-1792,2025-11-07 11:55:07.633634692
2025-11-07 11:55:05.540795,-1,2025-11-07 11:55:07.641327000
2025-11-07 11:55:05.540795,-12,2025-11-07 11:55:07.649019308
2025-11-07 11:55:05.540795,-4609,2025-11-07 11:55:07.656711615
2025-11-07 11:55:05.540795,-1,2025-11-07 11:55:07.664403923
2025-11-07 11:55:05.540795,-14,2025-11-07 11:55:07.672096231
2025-11-07 11:55:05.540795,255,2025-11-07 11:55:07.679788538
2025-11-07 11:55:05.540795,0,2025-11-07 11:55:07.687480846
2025-11-07 11:55:05.540795,-2,2025-11-07 11:55:07.695173154
2025-11-07 11:55:05.540795,-769,2025-11-07 11:55:07.702865462
2025-11-07 11:55:05.540795,-1,2025-11-07 11:55:07.710557769
2025-11-07 11:55:05.540795,-2,2025-11-07 11:55:07.718250077
2025-11-07 11:55:05.540795,-257,2025-11-07 11:55:07.725942385
2025-11-07 11:55:05.540795,-1,2025-11-07 11:55:07.733634692
2025-11-07 11:55:05.540795,-2,2025-11-07 11:55:07.741327000
2025-11-07 11:55:05.540795,-1537,2025-11-07 11:55:07.749019308
2025-11-07 11:55:05.540795,-1,2025-11-07 11:55:07.756711615
2025-11-07 11:55:05.540795,-4,2025-11-07 11:55:07.764403923
2025-11-07 11:55:05.540795,-1537,2025-11-07 11:55:07.772096231
2025-11-07 11:55:05.540795,-1,2025-11-07 11:55:07.779788538
2025-11-07 11:55:05.540795,-12,2025-11-07 11:55:07.787480846
2025-11-07 11:55:05.540795,-1537,2025-11-07 11:55:07.795173154
2025-11-07 11:55:05.540795,-1,2025-11-07 11:55:07.802865462
2025-11-07 11:55:05.540795,-9,2025-11-07 11:55:07.810557769
2025-11-07 11:55:05.540795,-2049,2025-11-07 11:55:07.818250077
2025-11-07 11:55:05.540795,-1,2025-11-07 11:55:07.825942385
2025-11-07 11:55:05.540795,-4,2025-11-07 11:55:07.833634692
2025-11-07 11:55:05.540795,-2049,2025-11-07 11:55:07.841327000
2025-11-07 11:55:05.540795,-1,2025-11-07 11:55:07.849019308
2025-11-07 11:55:05.540795,-4,2025-11-07 11:55:07.856711615
2025-11-07 11:55:05.540795,-769,2025-11-07 11:55:07.864403923
2025-11-07 11:55:05.540795,-1,2025-11-07 11:55:07.872096231
2025-11-07 11:55:05.540795,-7,2025-11-07 11:55:07.879788538
2025-11-07 11:55:05.540795,-257,2025-11-07 11:55:07.887480846
2025-11-07 11:55:05.540795,-1,2025-11-07 11:55:07.895173154
2025-11-07 11:55:05.540795,-4,2025-11-07 11:55:07.902865462
2025-11-07 11:55:05.540795,767,2025-11-07 11:55:07.910557769
2025-11-07 11:55:05.540795,0,2025-11-07 11:55:07.918250077
2025-11-07 11:55:05.540795,2,2025-11-07 11:55:07.925942385
2025-11-07 11:55:05.540795,0,2025-11-07 11:55:07.933634692
2025-11-07 11:55:05.540795,0,2025-11-07 11:55:07.941327000
2025-11-07 11:55:05.540795,9,2025-11-07 11:55:07.949019308
2025-11-07 11:55:05.540795,3072,2025-11-07 11:55:07.956711615
2025-11-07 11:55:05.540795,0,2025-11-07 11:55:07.964403923
2025-11-07 11:55:05.540795,7,2025-11-07 11:55:07.972096231
2025-11-07 11:55:05.540795,1024,2025-11-07 11:55:07.979788538
2025-11-07 11:55:05.540795,0,2025-11-07 11:55:07.987480846
2025-11-07 11:55:05.540795,4,2025-11-07 11:55:07.995173154
2025-11-07 11:55:05.540795,2304,2025-11-07 11:55:08.002865462
2025-11-07 11:55:05.540795,0,2025-11-07 11:55:08.010557769
2025-11-07 11:55:05.540795,9,2025-11-07 11:55:08.018250077
2025-11-07 11:55:05.540795,1792,2025-11-07 11:55:08.025942385
2025-11-07 11:55:05.540795,0,2025-11-07 11:55:08.033634692
2025-11-07 11:55:05.540795,7,2025-11-07 11:55:08.041327000
2025-11-07 11:55:05.540795,0,2025-11-07 11:55:08.049019308
2025-11-07 11:55:05.540795,0,2025-11-07 11:55:08.056711615
2025-11-07 11:55:05.540795,2,2025-11-07 11:55:08.064403923
2025-11-07 11:55:05.540795,2304,2025-11-07 11:55:08.072096231
2025-11-07 11:55:05.540795,0,2025-11-07 11:55:08.079788538
2025-11-07 11:55:05.540795,9,2025-11-07 11:55:08.087480846
2025-11-07 11:55:05.540795,1792,2025-11-07 11:55:08.095173154
2025-11-07 11:55:05.540795,0,2025-11-07 11:55:08.102865462
2025-11-07 11:55:05.540795,4,2025-11-07 11:55:08.110557769
2025-11-07 11:55:05.540795,1024,2025-11-07 11:55:08.118250077
2025-11-07 11:55:05.540795,0,2025-11-07 11:55:08.125942385
2025-11-07 11:55:05.540795,4,2025-11-07 11:55:08.133634692
2025-11-07 11:55:05.540795,-1792,2025-11-07 11:55:08.141327000
2025-11-07 11:55:05.540795,-1,2025-11-07 11:55:08.149019308
2025-11-07 11:55:05.540795,-4,2025-11-07 11:55:08.156711615
2025-11-07 11:55:05.540795,2559,2025-11-07 11:55:08.164403923
2025-11-07 11:55:05.540795,0,2025-11-07 11:55:08.172096230
2025-11-07 11:55:05.540795,19,2025-11-07 11:55:08.179788538
2025-11-07 11:55:05.540795,5376,2025-11-07 11:55:08.187480846
2025-11-07 11:55:05.540795,0,2025-11-07 11:55:08.195173154
2025-11-07 11:55:05.540795,21,2025-11-07 11:55:08.202865462
2025-11-07 11:55:05.540795,6656,2025-11-07 11:55:08.210557769
2025-11-07 11:55:05.540795,0,2025-11-07 11:55:08.218250077
2025-11-07 11:55:05.540795,14,2025-11-07 11:55:08.225942385
2025-11-07 11:55:05.540795,-1024,2025-11-07 11:55:08.233634692
2025-11-07 11:55:05.540795,-1,2025-11-07 11:55:08.241327000
2025-11-07 11:55:05.540795,0,2025-11-07 11:55:08.249019308
2025-11-07 11:55:05.540795,1792,2025-11-07 11:55:08.256711615
2025-11-07 11:55:05.540795,0,2025-11-07 11:55:08.264403923
2025-11-07 11:55:05.540795,4,2025-11-07 11:55:08.272096231
2025-11-07 11:55:05.540795,512,2025-11-07 11:55:08.279788538
2025-11-07 11:55:05.540795,0,2025-11-07 11:55:08.287480846
2025-11-07 11:55:05.540795,-2,2025-11-07 11:55:08.295173154
2025-11-07 11:55:05.540795,-1537,2025-11-07 11:55:08.302865462
2025-11-07 11:55:05.540795,-1,2025-11-07 11:55:08.310557769
2025-11-07 11:55:05.540795,-67,2025-11-07 11:55:08.318250077
2025-11-07 11:55:05.540795,27647,2025-11-07 11:55:08.325942385
2025-11-07 11:55:05.540795,-1,2025-11-07 11:55:08.333634692
2025-11-07 11:55:05.540795,-67,2025-11-07 11:55:08.341327000
2025-11-07 11:55:06.109222,323,2025-11-07 11:55:08.349019308
2025-11-07 11:55:06.109222,6912,2025-11-07 11:55:08.356711615
2025-11-07 11:55:06.109222,3,2025-11-07 11:55:08.364403923
2025-11-07 11:55:06.109222,812,2025-11-07 11:55:08.372096231
2025-11-07 11:55:06.109222,23552,2025-11-07 11:55:08.379788538
2025-11-07 11:55:06.109222,1,2025-11-07 11:55:08.387480846
2025-11-07 11:55:06.109222,-14,2025-11-07 11:55:08.395173154
2025-11-07 11:55:06.109222,-16385,2025-11-07 11:55:08.402865462
2025-11-07 11:55:06.109222,-1,2025-11-07 11:55:08.410557769
2025-11-07 11:55:06.109222,-62,2025-11-07 11:55:08.418250077
2025-11-07 11:55:06.109222,-25601,2025-11-07 11:55:08.425942385
2025-11-07 11:55:06.109222,-1,2025-11-07 11:55:08.433634692
2025-11-07 11:55:06.109222,-84,2025-11-07 11:55:08.441327000
2025-11-07 11:55:06.109222,-12545,2025-11-07 11:55:08.449019308
2025-11-07 11:55:06.109222,-1,2025-11-07 11:55:08.456711615
2025-11-07 11:55:06.109222,-62,2025-11-07 11:55:08.464403923
2025-11-07 11:55:06.109222,-17665,2025-11-07 11:55:08.472096231
2025-11-07 11:55:06.109222,-1,2025-11-07 11:55:08.479788538
2025-11-07 11:55:06.109222,-53,2025-11-07 11:55:08.487480846
2025-11-07 11:55:06.109222,-13313,2025-11-07 11:55:08.495173154
2025-11-07 11:55:06.109222,-1,2025-11-07 11:55:08.502865462
2025-11-07 11:55:06.109222,-55,2025-11-07 11:55:08.510557769
2025-11-07 11:55:06.109222,-12033,2025-11-07 11:55:08.518250077
2025-11-07 11:55:06.109222,-1,2025-11-07 11:55:08.525942385
2025-11-07 11:55:06.109222,-48,2025-11-07 11:55:08.533634692
2025-11-07 11:55:06.109222,-12033,2025-11-07 11:55:08.541327000
2025-11-07 11:55:06.109222,-1,2025-11-07 11:55:08.549019308
2025-11-07 11:55:06.109222,-45,2025-11-07 11:55:08.556711615
2025-11-07 11:55:06.109222,-9473,2025-11-07 11:55:08.564403923
2025-11-07 11:55:06.109222,-1,2025-11-07 11:55:08.572096231
2025-11-07 11:55:06.109222,-36,2025-11-07 11:55:08.579788538
2025-11-07 11:55:06.109222,-10753,2025-11-07 11:55:08.587480846
2025-11-07 11:55:06.109222,-1,2025-11-07 11:55:08.595173154
2025-11-07 11:55:06.109222,-38,2025-11-07 11:55:08.602865462
2025-11-07 11:55:06.109222,-8961,2025-11-07 11:55:08.610557769
2025-11-07 11:55:06.109222,-1,2025-11-07 11:55:08.618250077
2025-11-07 11:55:06.109222,-36,2025-11-07 11:55:08.625942385
2025-11-07 11:55:06.109222,-7681,2025-11-07 11:55:08.633634692
2025-11-07 11:55:06.109222,-1,2025-11-07 11:55:08.641327000
2025-11-07 11:55:06.109222,-31,2025-11-07 11:55:08.649019308
2025-11-07 11:55:06.109222,-7169,2025-11-07 11:55:08.656711615
2025-11-07 11:55:06.109222,-1,2025-11-07 11:55:08.664403923
2025-11-07 11:55:06.109222,-21,2025-11-07 11:55:08.672096231
2025-11-07 11:55:06.109222,-3841,2025-11-07 11:55:08.679788538
2025-11-07 11:55:06.109222,-1,2025-11-07 11:55:08.687480846
2025-11-07 11:55:06.109222,-7,2025-11-07 11:55:08.695173154
2025-11-07 11:55:06.109222,1279,2025-11-07 11:55:08.702865462
2025-11-07 11:55:06.109222,0,2025-11-07 11:55:08.710557769
2025-11-07 11:55:06.109222,16,2025-11-07 11:55:08.718250077
2025-11-07 11:55:06.109222,7424,2025-11-07 11:55:08.725942385
2025-11-07 11:55:06.109222,0,2025-11-07 11:55:08.733634692
2025-11-07 11:55:06.109222,33,2025-11-07 11:55:08.741327000
2025-11-07 11:55:06.109222,7936,2025-11-07 11:55:08.749019308
2025-11-07 11:55:06.109222,0,2025-11-07 11:55:08.756711615
2025-11-07 11:55:06.109222,21,2025-11-07 11:55:08.764403923
2025-11-07 11:55:06.109222,2304,2025-11-07 11:55:08.772096231
2025-11-07 11:55:06.109222,0,2025-11-07 11:55:08.779788538
2025-11-07 11:55:06.109222,2,2025-11-07 11:55:08.787480846
2025-11-07 11:55:06.109222,-512,2025-11-07 11:55:08.795173154
2025-11-07 11:55:06.109222,-1,2025-11-07 11:55:08.802865462
2025-11-07 11:55:06.109222,-2,2025-11-07 11:55:08.810557769
2025-11-07 11:55:06.109222,255,2025-11-07 11:55:08.818250077
2025-11-07 11:55:06.109222,0,2025-11-07 11:55:08.825942385
2025-11-07 11:55:06.109222,0,2025-11-07 11:55:08.833634692
2025-11-07 11:55:06.109222,512,2025-11-07 11:55:08.841327000
2025-11-07 11:55:06.109222,0,2025-11-07 11:55:08.849019308
2025-11-07 11:55:06.109222,0,2025-11-07 11:55:08.856711615
2025-11-07 11:55:06.109222,-512,2025-11-07 11:55:08.864403923
2025-11-07 11:55:06.109222,-1,2025-11-07 11:55:08.872096231
2025-11-07 11:55:06.109222,-2,2025-11-07 11:55:08.879788538
2025-11-07 11:55:06.109222,-769,2025-11-07 11:55:08.887480846
2025-11-07 11:55:06.109222,-1,2025-11-07 11:55:08.895173154
2025-11-07 11:55:06.109222,0,2025-11-07 11:55:08.902865462
2025-11-07 11:55:06.109222,1792,2025-11-07 11:55:08.910557769
2025-11-07 11:55:06.109222,0,2025-11-07 11:55:08.918250077
2025-11-07 11:55:06.109222,-7,2025-11-07 11:55:08.925942385
2025-11-07 11:55:06.109222,-3329,2025-11-07 11:55:08.933634692
2025-11-07 11:55:06.109222,-1,2025-11-07 11:55:08.941327000
2025-11-07 11:55:06.109222,2,2025-11-07 11:55:08.949019308
2025-11-07 11:55:06.109222,2304,2025-11-07 11:55:08.956711615
2025-11-07 11:55:06.109222,0,2025-11-07 11:55:08.964403923
2025-11-07 11:55:06.109222,-4,2025-11-07 11:55:08.972096231
2025-11-07 11:55:06.109222,-1537,2025-11-07 11:55:08.979788538
2025-11-07 11:55:06.109222,-1,2025-11-07 11:55:08.987480846
2025-11-07 11:55:06.109222,-7,2025-11-07 11:55:08.995173154
2025-11-07 11:55:06.109222,-3329,2025-11-07 11:55:09.002865462
2025-11-07 11:55:06.109222,-1,2025-11-07 11:55:09.010557769
2025-11-07 11:55:06.109222,-4,2025-11-07 11:55:09.018250077
2025-11-07 11:55:06.109222,767,2025-11-07 11:55:09.025942385
2025-11-07 11:55:06.109222,0,2025-11-07 11:55:09.033634692
2025-11-07 11:55:06.109222,-12,2025-11-07 11:55:09.041327000
2025-11-07 11:55:06.109222,-257,2025-11-07 11:55:09.049019308
2025-11-07 11:55:06.109222,-1,2025-11-07 11:55:09.056711615
2025-11-07 11:55:06.109222,21,2025-11-07 11:55:09.064403923
2025-11-07 11:55:06.109222,512,2025-11-07 11:55:09.072096231
2025-11-07 11:55:06.109222,0,2025-11-07 11:55:09.079788538
2025-11-07 11:55:06.109222,-21,2025-11-07 11:55:09.087480846
2025-11-07 11:55:06.109222,-769,2025-11-07 11:55:09.095173154
2025-11-07 11:55:06.109222,-1,2025-11-07 11:55:09.102865462
2025-11-07 11:55:06.109222,16,2025-11-07 11:55:09.110557769
2025-11-07 11:55:06.109222,4096,2025-11-07 11:55:09.118250077
2025-11-07 11:55:06.109222,0,2025-11-07 11:55:09.125942385
2025-11-07 11:55:06.109222,12,2025-11-07 11:55:09.133634692
2025-11-07 11:55:06.109222,-2304,2025-11-07 11:55:09.141327000
2025-11-07 11:55:06.109222,-1,2025-11-07 11:55:09.149019308
2025-11-07 11:55:06.109222,-21,2025-11-07 11:55:09.156711615
2025-11-07 11:55:06.109222,255,2025-11-07 11:55:09.164403923
2025-11-07 11:55:06.109222,0,2025-11-07 11:55:09.172096230
2025-11-07 11:55:06.109222,14,2025-11-07 11:55:09.179788538
2025-11-07 11:55:06.649268,9,2025-11-07 11:55:09.187480846
2025-11-07 11:55:06.649268,5376,2025-11-07 11:55:09.195173154
2025-11-07 11:55:06.649268,0,2025-11-07 11:55:09.202865462
2025-11-07 11:55:06.649268,21,2025-11-07 11:55:09.210557769
2025-11-07 11:55:06.649268,-512,2025-11-07 11:55:09.218250077
2025-11-07 11:55:06.649268,-1,2025-11-07 11:55:09.225942385
2025-11-07 11:55:06.649268,2,2025-11-07 11:55:09.233634692
2025-11-07 11:55:06.649268,5376,2025-11-07 11:55:09.241327000
2025-11-07 11:55:06.649268,0,2025-11-07 11:55:09.249019308
2025-11-07 11:55:06.649268,0,2025-11-07 11:55:09.256711615
2025-11-07 11:55:06.649268,-3584,2025-11-07 11:55:09.264403923
2025-11-07 11:55:06.649268,-1,2025-11-07 11:55:09.272096231
2025-11-07 11:55:06.649268,14,2025-11-07 11:55:09.279788538
2025-11-07 11:55:06.649268,9728,2025-11-07 11:55:09.287480846
2025-11-07 11:55:06.649268,0,2025-11-07 11:55:09.295173154
2025-11-07 11:55:06.649268,21,2025-11-07 11:55:09.302865462
2025-11-07 11:55:06.649268,512,2025-11-07 11:55:09.310557769
2025-11-07 11:55:06.649268,0,2025-11-07 11:55:09.318250077
2025-11-07 11:55:06.649268,16,2025-11-07 11:55:09.325942385
2025-11-07 11:55:06.649268,8448,2025-11-07 11:55:09.333634692
2025-11-07 11:55:06.649268,0,2025-11-07 11:55:09.341327000
2025-11-07 11:55:06.649268,31,2025-11-07 11:55:09.349019308
2025-11-07 11:55:06.649268,9216,2025-11-07 11:55:09.356711615
2025-11-07 11:55:06.649268,0,2025-11-07 11:55:09.364403923
2025-11-07 11:55:06.649268,48,2025-11-07 11:55:09.372096231
2025-11-07 11:55:06.649268,11008,2025-11-07 11:55:09.379788538
2025-11-07 11:55:06.649268,0,2025-11-07 11:55:09.387480846
2025-11-07 11:55:06.649268,21,2025-11-07 11:55:09.395173154
2025-11-07 11:55:06.649268,1792,2025-11-07 11:55:09.402865462
2025-11-07 11:55:06.649268,0,2025-11-07 11:55:09.410557769
2025-11-07 11:55:06.649268,14,2025-11-07 11:55:09.418250077
2025-11-07 11:55:06.649268,4096,2025-11-07 11:55:09.425942385
2025-11-07 11:55:06.649268,0,2025-11-07 11:55:09.433634692
2025-11-07 11:55:06.649268,14,2025-11-07 11:55:09.441327000
2025-11-07 11:55:06.649268,6656,2025-11-07 11:55:09.449019308
2025-11-07 11:55:06.649268,0,2025-11-07 11:55:09.456711615
2025-11-07 11:55:06.649268,26,2025-11-07 11:55:09.464403923
2025-11-07 11:55:06.649268,-2304,2025-11-07 11:55:09.472096231
2025-11-07 11:55:06.649268,-1,2025-11-07 11:55:09.479788538
2025-11-07 11:55:06.649268,-87,2025-11-07 11:55:09.487480846
2025-11-07 11:55:06.649268,29951,2025-11-07 11:55:09.495173154
2025-11-07 11:55:06.649268,-1,2025-11-07 11:55:09.502865462
2025-11-07 11:55:06.649268,16,2025-11-07 11:55:09.510557769
2025-11-07 11:55:06.649268,-13568,2025-11-07 11:55:09.518250077
2025-11-07 11:55:06.649268,1,2025-11-07 11:55:09.525942385
2025-11-07 11:55:06.649268,833,2025-11-07 11:55:09.533634692
2025-11-07 11:55:06.649268,-14848,2025-11-07 11:55:09.541327000
2025-11-07 11:55:06.649268,2,2025-11-07 11:55:09.549019308
2025-11-07 11:55:06.649268,256,2025-11-07 11:55:09.556711615
2025-11-07 11:55:06.649268,-7936,2025-11-07 11:55:09.564403923
2025-11-07 11:55:06.649268,-1,2025-11-07 11:55:09.572096231
2025-11-07 11:55:06.649268,-58,2025-11-07 11:55:09.579788538
2025-11-07 11:55:06.649268,-14593,2025-11-07 11:55:09.587480846
2025-11-07 11:55:06.649268,-1,2025-11-07 11:55:09.595173154
2025-11-07 11:55:06.649268,-89,2025-11-07 11:55:09.602865462
2025-11-07 11:55:06.649268,-22529,2025-11-07 11:55:09.610557769
2025-11-07 11:55:06.649268,-1,2025-11-07 11:55:09.618250077
2025-11-07 11:55:06.649268,-91,2025-11-07 11:55:09.625942385
2025-11-07 11:55:06.649268,-23809,2025-11-07 11:55:09.633634692
2025-11-07 11:55:06.649268,-1,2025-11-07 11:55:09.641327000
2025-11-07 11:55:06.649268,-77,2025-11-07 11:55:09.649019308
2025-11-07 11:55:06.649268,-16385,2025-11-07 11:55:09.656711615
2025-11-07 11:55:06.649268,-1,2025-11-07 11:55:09.664403923
2025-11-07 11:55:06.649268,-62,2025-11-07 11:55:09.672096231
2025-11-07 11:55:06.649268,-15617,2025-11-07 11:55:09.679788538
2025-11-07 11:55:06.649268,-1,2025-11-07 11:55:09.687480846
2025-11-07 11:55:06.649268,-60,2025-11-07 11:55:09.695173154
2025-11-07 11:55:06.649268,-14593,2025-11-07 11:55:09.702865462
2025-11-07 11:55:06.649268,-1,2025-11-07 11:55:09.710557769
2025-11-07 11:55:06.649268,-65,2025-11-07 11:55:09.718250077
2025-11-07 11:55:06.649268,-17665,2025-11-07 11:55:09.725942385
2025-11-07 11:55:06.649268,-1,2025-11-07 11:55:09.733634692
2025-11-07 11:55:06.649268,-50,2025-11-07 11:55:09.741327000
2025-11-07 11:55:06.649268,-10241,2025-11-07 11:55:09.749019308
2025-11-07 11:55:06.649268,-1,2025-11-07 11:55:09.756711615
2025-11-07 11:55:06.649268,-55,2025-11-07 11:55:09.764403923
2025-11-07 11:55:06.649268,-14593,2025-11-07 11:55:09.772096231
2025-11-07 11:55:06.649268,-1,2025-11-07 11:55:09.779788538
2025-11-07 11:55:06.649268,-50,2025-11-07 11:55:09.787480846
2025-11-07 11:55:06.649268,-12033,2025-11-07 11:55:09.795173154
2025-11-07 11:55:06.649268,-1,2025-11-07 11:55:09.802865462
2025-11-07 11:55:06.649268,-48,2025-11-07 11:55:09.810557769
2025-11-07 11:55:06.649268,-10753,2025-11-07 11:55:09.818250077
2025-11-07 11:55:06.649268,-1,2025-11-07 11:55:09.825942385
2025-11-07 11:55:06.649268,-38,2025-11-07 11:55:09.833634692
2025-11-07 11:55:06.649268,-7169,2025-11-07 11:55:09.841327000
2025-11-07 11:55:06.649268,-1,2025-11-07 11:55:09.849019308
2025-11-07 11:55:06.649268,-16,2025-11-07 11:55:09.856711615
2025-11-07 11:55:06.649268,-2817,2025-11-07 11:55:09.864403923
2025-11-07 11:55:06.649268,-1,2025-11-07 11:55:09.872096231
2025-11-07 11:55:06.649268,-4,2025-11-07 11:55:09.879788538
2025-11-07 11:55:06.649268,2047,2025-11-07 11:55:09.887480846
2025-11-07 11:55:06.649268,0,2025-11-07 11:55:09.895173154
2025-11-07 11:55:06.649268,9,2025-11-07 11:55:09.902865462
2025-11-07 11:55:06.649268,3072,2025-11-07 11:55:09.910557769
2025-11-07 11:55:06.649268,0,2025-11-07 11:55:09.918250077
2025-11-07 11:55:06.649268,9,2025-11-07 11:55:09.925942385
2025-11-07 11:55:06.649268,-512,2025-11-07 11:55:09.933634692
2025-11-07 11:55:06.649268,-1,2025-11-07 11:55:09.941327000
2025-11-07 11:55:06.649268,-9,2025-11-07 11:55:09.949019308
2025-11-07 11:55:06.649268,-1537,2025-11-07 11:55:09.956711615
2025-11-07 11:55:06.649268,-1,2025-11-07 11:55:09.964403923
2025-11-07 11:55:06.649268,-14,2025-11-07 11:55:09.972096231
2025-11-07 11:55:06.649268,-8193,2025-11-07 11:55:09.979788538
2025-11-07 11:55:06.649268,-1,2025-11-07 11:55:09.987480846
2025-11-07 11:55:06.649268,-26,2025-11-07 11:55:09.995173154
2025-11-07 11:55:06.649268,-769,2025-11-07 11:55:10.002865462
2025-11-07 11:55:06.649268,-1,2025-11-07 11:55:10.010557769
2025-11-07 11:55:06.649268,-14,2025-11-07 11:55:10.018250077
2025-11-07 11:55:07.189274,-29,2025-11-07 11:55:10.025942385
2025-11-07 11:55:07.189274,-5121,2025-11-07 11:55:10.033634692
2025-11-07 11:55:07.189274,-1,2025-11-07 11:55:10.041327000
2025-11-07 11:55:07.189274,-16,2025-11-07 11:55:10.049019308
2025-11-07 11:55:07.189274,-5889,2025-11-07 11:55:10.056711615
2025-11-07 11:55:07.189274,-1,2025-11-07 11:55:10.064403923
2025-11-07 11:55:07.189274,-24,2025-11-07 11:55:10.072096231
2025-11-07 11:55:07.189274,-4609,2025-11-07 11:55:10.079788538
2025-11-07 11:55:07.189274,-1,2025-11-07 11:55:10.087480846
2025-11-07 11:55:07.189274,-7,2025-11-07 11:55:10.095173154
2025-11-07 11:55:07.189274,-257,2025-11-07 11:55:10.102865462
2025-11-07 11:55:07.189274,-1,2025-11-07 11:55:10.110557769
2025-11-07 11:55:07.189274,-12,2025-11-07 11:55:10.118250077
2025-11-07 11:55:07.189274,-2049,2025-11-07 11:55:10.125942385
2025-11-07 11:55:07.189274,-1,2025-11-07 11:55:10.133634692
2025-11-07 11:55:07.189274,0,2025-11-07 11:55:10.141327000
2025-11-07 11:55:07.189274,-1792,2025-11-07 11:55:10.149019308
2025-11-07 11:55:07.189274,-1,2025-11-07 11:55:10.156711615
2025-11-07 11:55:07.189274,-14,2025-11-07 11:55:10.164403923
2025-11-07 11:55:07.189274,-769,2025-11-07 11:55:10.172096230
2025-11-07 11:55:07.189274,-1,2025-11-07 11:55:10.179788538
2025-11-07 11:55:07.189274,-2,2025-11-07 11:55:10.187480846
2025-11-07 11:55:07.189274,-2817,2025-11-07 11:55:10.195173154
2025-11-07 11:55:07.189274,-1,2025-11-07 11:55:10.202865462
2025-11-07 11:55:07.189274,-9,2025-11-07 11:55:10.210557769
2025-11-07 11:55:07.189274,-769,2025-11-07 11:55:10.218250077
2025-11-07 11:55:07.189274,-1,2025-11-07 11:55:10.225942385
2025-11-07 11:55:07.189274,-9,2025-11-07 11:55:10.233634692
2025-11-07 11:55:07.189274,-2817,2025-11-07 11:55:10.241327000
2025-11-07 11:55:07.189274,-1,2025-11-07 11:55:10.249019308
2025-11-07 11:55:07.189274,-7,2025-11-07 11:55:10.256711615
2025-11-07 11:55:07.189274,-2817,2025-11-07 11:55:10.264403923
2025-11-07 11:55:07.189274,-1,2025-11-07 11:55:10.272096231
2025-11-07 11:55:07.189274,-16,2025-11-07 11:55:10.279788538
2025-11-07 11:55:07.189274,-1537,2025-11-07 11:55:10.287480846
2025-11-07 11:55:07.189274,-1,2025-11-07 11:55:10.295173154
2025-11-07 11:55:07.189274,2,2025-11-07 11:55:10.302865462
2025-11-07 11:55:07.189274,-512,2025-11-07 11:55:10.310557769
2025-11-07 11:55:07.189274,-1,2025-11-07 11:55:10.318250077
2025-11-07 11:55:07.189274,-9,2025-11-07 11:55:10.325942385
2025-11-07 11:55:07.189274,-2049,2025-11-07 11:55:10.333634692
2025-11-07 11:55:07.189274,-1,2025-11-07 11:55:10.341327000
2025-11-07 11:55:07.189274,-9,2025-11-07 11:55:10.349019308
2025-11-07 11:55:07.189274,-2817,2025-11-07 11:55:10.356711615
2025-11-07 11:55:07.189274,-1,2025-11-07 11:55:10.364403923
2025-11-07 11:55:07.189274,-16,2025-11-07 11:55:10.372096231
2025-11-07 11:55:07.189274,-2049,2025-11-07 11:55:10.379788538
2025-11-07 11:55:07.189274,-1,2025-11-07 11:55:10.387480846
2025-11-07 11:55:07.189274,-7,2025-11-07 11:55:10.395173154
2025-11-07 11:55:07.189274,-2817,2025-11-07 11:55:10.402865462
2025-11-07 11:55:07.189274,-1,2025-11-07 11:55:10.410557769
2025-11-07 11:55:07.189274,-4,2025-11-07 11:55:10.418250077
2025-11-07 11:55:07.189274,-2817,2025-11-07 11:55:10.425942385
2025-11-07 11:55:07.189274,-1,2025-11-07 11:55:10.433634692
2025-11-07 11:55:07.189274,-24,2025-11-07 11:55:10.441327000
2025-11-07 11:55:07.189274,-4609,2025-11-07 11:55:10.449019308
2025-11-07 11:55:07.189274,-1,2025-11-07 11:55:10.456711615
2025-11-07 11:55:07.189274,-19,2025-11-07 11:55:10.464403923
2025-11-07 11:55:07.189274,-7169,2025-11-07 11:55:10.472096231
2025-11-07 11:55:07.189274,-1,2025-11-07 11:55:10.479788538
2025-11-07 11:55:07.189274,-19,2025-11-07 11:55:10.487480846
2025-11-07 11:55:07.189274,255,2025-11-07 11:55:10.495173154
2025-11-07 11:55:07.189274,0,2025-11-07 11:55:10.502865462
2025-11-07 11:55:07.189274,0,2025-11-07 11:55:10.510557769
2025-11-07 11:55:07.189274,-1024,2025-11-07 11:55:10.518250077
2025-11-07 11:55:07.189274,-1,2025-11-07 11:55:10.525942385
2025-11-07 11:55:07.189274,2,2025-11-07 11:55:10.533634692
2025-11-07 11:55:07.189274,0,2025-11-07 11:55:10.541327000
2025-11-07 11:55:07.189274,0,2025-11-07 11:55:10.549019308
2025-11-07 11:55:07.189274,-19,2025-11-07 11:55:10.556711615
2025-11-07 11:55:07.189274,-7169,2025-11-07 11:55:10.564403923
2025-11-07 11:55:07.189274,-1,2025-11-07 11:55:10.572096231
2025-11-07 11:55:07.189274,-14,2025-11-07 11:55:10.579788538
2025-11-07 11:55:07.189274,-257,2025-11-07 11:55:10.587480846
2025-11-07 11:55:07.189274,-1,2025-11-07 11:55:10.595173154
2025-11-07 11:55:07.189274,-12,2025-11-07 11:55:10.602865462
2025-11-07 11:55:07.189274,-6401,2025-11-07 11:55:10.610557769
2025-11-07 11:55:07.189274,-1,2025-11-07 11:55:10.618250077
2025-11-07 11:55:07.189274,-24,2025-11-07 11:55:10.625942385
2025-11-07 11:55:07.189274,-12033,2025-11-07 11:55:10.633634692
2025-11-07 11:55:07.189274,-1,2025-11-07 11:55:10.641327000
2025-11-07 11:55:07.189274,-125,2025-11-07 11:55:10.649019308
2025-11-07 11:55:07.189274,29439,2025-11-07 11:55:10.656711615
2025-11-07 11:55:07.189274,-1,2025-11-07 11:55:10.664403923
2025-11-07 11:55:07.189274,72,2025-11-07 11:55:10.672096231
2025-11-07 11:55:07.189274,-10496,2025-11-07 11:55:10.679788538
2025-11-07 11:55:07.189274,1,2025-11-07 11:55:10.687480846
2025-11-07 11:55:07.189274,676,2025-11-07 11:55:10.695173154
2025-11-07 11:55:07.189274,-13056,2025-11-07 11:55:10.702865462
2025-11-07 11:55:07.189274,1,2025-11-07 11:55:10.710557769
2025-11-07 11:55:07.189274,96,2025-11-07 11:55:10.718250077
2025-11-07 11:55:07.189274,-19712,2025-11-07 11:55:10.725942385
2025-11-07 11:55:07.189274,-1,2025-11-07 11:55:10.733634692
2025-11-07 11:55:07.189274,-91,2025-11-07 11:55:10.741327000
2025-11-07 11:55:07.189274,-26881,2025-11-07 11:55:10.749019308
2025-11-07 11:55:07.189274,-1,2025-11-07 11:55:10.756711615
2025-11-07 11:55:07.189274,-120,2025-11-07 11:55:10.764403923
2025-11-07 11:55:07.189274,-26113,2025-11-07 11:55:10.772096231
2025-11-07 11:55:07.189274,-1,2025-11-07 11:55:10.779788538
2025-11-07 11:55:07.189274,-99,2025-11-07 11:55:10.787480846
2025-11-07 11:55:07.189274,-29441,2025-11-07 11:55:10.795173154
2025-11-07 11:55:07.189274,-1,2025-11-07 11:55:10.802865462
2025-11-07 11:55:07.189274,-116,2025-11-07 11:55:10.810557769
2025-11-07 11:55:07.189274,-25601,2025-11-07 11:55:10.818250077
2025-11-07 11:55:07.189274,-1,2025-11-07 11:55:10.825942385
2025-11-07 11:55:07.189274,-94,2025-11-07 11:55:10.833634692
2025-11-07 11:55:07.189274,-23809,2025-11-07 11:55:10.841327000
2025-11-07 11:55:07.189274,-1,2025-11-07 11:55:10.849019308
2025-11-07 11:55:07.189274,-99,2025-11-07 11:55:10.856711615
2025-11-07 11:55:07.759255,-96,2025-11-07 11:55:10.864403923
2025-11-07 11:55:07.759255,-23041,2025-11-07 11:55:10.872096231
2025-11-07 11:55:07.759255,-1,2025-11-07 11:55:10.879788538
2025-11-07 11:55:07.759255,-99,2025-11-07 11:55:10.887480846
2025-11-07 11:55:07.759255,-22529,2025-11-07 11:55:10.895173154
2025-11-07 11:55:07.759255,-1,2025-11-07 11:55:10.902865462
2025-11-07 11:55:07.759255,-60,2025-11-07 11:55:10.910557769
2025-11-07 11:55:07.759255,-13313,2025-11-07 11:55:10.918250077
2025-11-07 11:55:07.759255,-1,2025-11-07 11:55:10.925942385
2025-11-07 11:55:07.759255,-65,2025-11-07 11:55:10.933634692
2025-11-07 11:55:07.759255,-15105,2025-11-07 11:55:10.941327000
2025-11-07 11:55:07.759255,-1,2025-11-07 11:55:10.949019308
2025-11-07 11:55:07.759255,-48,2025-11-07 11:55:10.956711615
2025-11-07 11:55:07.759255,-10241,2025-11-07 11:55:10.964403923
2025-11-07 11:55:07.759255,-1,2025-11-07 11:55:10.972096231
2025-11-07 11:55:07.759255,-33,2025-11-07 11:55:10.979788538
2025-11-07 11:55:07.759255,-7169,2025-11-07 11:55:10.987480846
2025-11-07 11:55:07.759255,-1,2025-11-07 11:55:10.995173154
2025-11-07 11:55:07.759255,-19,2025-11-07 11:55:11.002865462
2025-11-07 11:55:07.759255,-769,2025-11-07 11:55:11.010557769
2025-11-07 11:55:07.759255,-1,2025-11-07 11:55:11.018250077
2025-11-07 11:55:07.759255,4,2025-11-07 11:55:11.025942385
2025-11-07 11:55:07.759255,2304,2025-11-07 11:55:11.033634692
2025-11-07 11:55:07.759255,0,2025-11-07 11:55:11.041327000
2025-11-07 11:55:07.759255,14,2025-11-07 11:55:11.049019308
2025-11-07 11:55:07.759255,4864,2025-11-07 11:55:11.056711615
2025-11-07 11:55:07.759255,0,2025-11-07 11:55:11.064403923
2025-11-07 11:55:07.759255,16,2025-11-07 11:55:11.072096231
2025-11-07 11:55:07.759255,-512,2025-11-07 11:55:11.079788538
2025-11-07 11:55:07.759255,-1,2025-11-07 11:55:11.087480846
2025-11-07 11:55:07.759255,-31,2025-11-07 11:55:11.095173154
2025-11-07 11:55:07.759255,-12545,2025-11-07 11:55:11.102865462
2025-11-07 11:55:07.759255,-1,2025-11-07 11:55:11.110557769
2025-11-07 11:55:07.759255,-58,2025-11-07 11:55:11.118250077
2025-11-07 11:55:07.759255,-16897,2025-11-07 11:55:11.125942385
2025-11-07 11:55:07.759255,-1,2025-11-07 11:55:11.133634692
2025-11-07 11:55:07.759255,-72,2025-11-07 11:55:11.141327000
2025-11-07 11:55:07.759255,-16897,2025-11-07 11:55:11.149019308
2025-11-07 11:55:07.759255,-1,2025-11-07 11:55:11.156711615
2025-11-07 11:55:07.759255,-72,2025-11-07 11:55:11.164403923
2025-11-07 11:55:07.759255,-19969,2025-11-07 11:55:11.172096230
2025-11-07 11:55:07.759255,-1,2025-11-07 11:55:11.179788538
2025-11-07 11:55:07.759255,-67,2025-11-07 11:55:11.187480846
2025-11-07 11:55:07.759255,-16385,2025-11-07 11:55:11.195173154
2025-11-07 11:55:07.759255,-1,2025-11-07 11:55:11.202865462
2025-11-07 11:55:07.759255,-72,2025-11-07 11:55:11.210557769
2025-11-07 11:55:07.759255,-18177,2025-11-07 11:55:11.218250077
2025-11-07 11:55:07.759255,-1,2025-11-07 11:55:11.225942385
2025-11-07 11:55:07.759255,-74,2025-11-07 11:55:11.233634692
2025-11-07 11:55:07.759255,-18177,2025-11-07 11:55:11.241327000
2025-11-07 11:55:07.759255,-1,2025-11-07 11:55:11.249019308
2025-11-07 11:55:07.759255,-70,2025-11-07 11:55:11.256711615
2025-11-07 11:55:07.759255,-17665,2025-11-07 11:55:11.264403923
2025-11-07 11:55:07.759255,-1,2025-11-07 11:55:11.272096231
2025-11-07 11:55:07.759255,-67,2025-11-07 11:55:11.279788538
2025-11-07 11:55:07.759255,-14593,2025-11-07 11:55:11.287480846
2025-11-07 11:55:07.759255,-1,2025-11-07 11:55:11.295173154
2025-11-07 11:55:07.759255,-60,2025-11-07 11:55:11.302865462
2025-11-07 11:55:07.759255,-15105,2025-11-07 11:55:11.310557769
2025-11-07 11:55:07.759255,-1,2025-11-07 11:55:11.318250077
2025-11-07 11:55:07.759255,-55,2025-11-07 11:55:11.325942385
2025-11-07 11:55:07.759255,-13313,2025-11-07 11:55:11.333634692
2025-11-07 11:55:07.759255,-1,2025-11-07 11:55:11.341327000
2025-11-07 11:55:07.759255,-53,2025-11-07 11:55:11.349019308
2025-11-07 11:55:07.759255,-12545,2025-11-07 11:55:11.356711615
2025-11-07 11:55:07.759255,-1,2025-11-07 11:55:11.364403923
2025-11-07 11:55:07.759255,-48,2025-11-07 11:55:11.372096231
2025-11-07 11:55:07.759255,-13313,2025-11-07 11:55:11.379788538
2025-11-07 11:55:07.759255,-1,2025-11-07 11:55:11.387480846
2025-11-07 11:55:07.759255,-50,2025-11-07 11:55:11.395173154
2025-11-07 11:55:07.759255,-9473,2025-11-07 11:55:11.402865462
2025-11-07 11:55:07.759255,-1,2025-11-07 11:55:11.410557769
2025-11-07 11:55:07.759255,-33,2025-11-07 11:55:11.418250077
2025-11-07 11:55:07.759255,-8961,2025-11-07 11:55:11.425942385
2025-11-07 11:55:07.759255,-1,2025-11-07 11:55:11.433634692
2025-11-07 11:55:07.759255,-38,2025-11-07 11:55:11.441327000
2025-11-07 11:55:07.759255,-8961,2025-11-07 11:55:11.449019308
2025-11-07 11:55:07.759255,-1,2025-11-07 11:55:11.456711615
2025-11-07 11:55:07.759255,-33,2025-11-07 11:55:11.464403923
2025-11-07 11:55:07.759255,-8193,2025-11-07 11:55:11.472096231
2025-11-07 11:55:07.759255,-1,2025-11-07 11:55:11.479788538
2025-11-07 11:55:07.759255,-36,2025-11-07 11:55:11.487480846
2025-11-07 11:55:07.759255,-9473,2025-11-07 11:55:11.495173154
2025-11-07 11:55:07.759255,-1,2025-11-07 11:55:11.502865462
2025-11-07 11:55:07.759255,-41,2025-11-07 11:55:11.510557769
2025-11-07 11:55:07.759255,-11265,2025-11-07 11:55:11.518250077
2025-11-07 11:55:07.759255,-1,2025-11-07 11:55:11.525942385
2025-11-07 11:55:07.759255,-43,2025-11-07 11:55:11.533634692
2025-11-07 11:55:07.759255,-10753,2025-11-07 11:55:11.541327000
2025-11-07 11:55:07.759255,-1,2025-11-07 11:55:11.549019308
2025-11-07 11:55:07.759255,-38,2025-11-07 11:55:11.556711615
2025-11-07 11:55:07.759255,-6401,2025-11-07 11:55:11.564403923
2025-11-07 11:55:07.759255,-1,2025-11-07 11:55:11.572096231
2025-11-07 11:55:07.759255,-19,2025-11-07 11:55:11.579788538
2025-11-07 11:55:07.759255,-2817,2025-11-07 11:55:11.587480846
2025-11-07 11:55:07.759255,-1,2025-11-07 11:55:11.595173154
2025-11-07 11:55:07.759255,-7,2025-11-07 11:55:11.602865462
2025-11-07 11:55:07.759255,-3329,2025-11-07 11:55:11.610557769
2025-11-07 11:55:07.759255,-1,2025-11-07 11:55:11.618250077
2025-11-07 11:55:07.759255,-31,2025-11-07 11:55:11.625942385
2025-11-07 11:55:07.759255,-9473,2025-11-07 11:55:11.633634692
2025-11-07 11:55:07.759255,-1,2025-11-07 11:55:11.641327000
2025-11-07 11:55:07.759255,-31,2025-11-07 11:55:11.649019308
2025-11-07 11:55:07.759255,-5889,2025-11-07 11:55:11.656711615
2025-11-07 11:55:07.759255,-1,2025-11-07 11:55:11.664403923
2025-11-07 11:55:07.759255,-26,2025-11-07 11:55:11.672096231
2025-11-07 11:55:07.759255,-6401,2025-11-07 11:55:11.679788538
2025-11-07 11:55:07.759255,-1,2025-11-07 11:55:11.687480846
2025-11-07 11:55:07.759255,-26,2025-11-07 11:55:11.695173154
2025-11-07 11:55:08.359678,-60,2025-11-07 11:55:11.702865462
2025-11-07 11:55:08.359678,31231,2025-11-07 11:55:11.710557769
2025-11-07 11:55:08.359678,-1,2025-11-07 11:55:11.718250077
2025-11-07 11:55:08.359678,-174,2025-11-07 11:55:11.725942385
2025-11-07 11:55:08.359678,2559,2025-11-07 11:55:11.733634692
2025-11-07 11:55:08.359678,0,2025-11-07 11:55:11.741327000
2025-11-07 11:55:08.359678,456,2025-11-07 11:55:11.749019308
2025-11-07 11:55:08.359678,4352,2025-11-07 11:55:11.756711615
2025-11-07 11:55:08.359678,3,2025-11-07 11:55:11.764403923
2025-11-07 11:55:08.359678,596,2025-11-07 11:55:11.772096231
2025-11-07 11:55:08.359678,-26112,2025-11-07 11:55:11.779788538
2025-11-07 11:55:08.359678,0,2025-11-07 11:55:11.787480846
2025-11-07 11:55:08.359678,-45,2025-11-07 11:55:11.795173154
2025-11-07 11:55:08.359678,-11265,2025-11-07 11:55:11.802865462
2025-11-07 11:55:08.359678,-1,2025-11-07 11:55:11.810557769
2025-11-07 11:55:08.359678,-84,2025-11-07 11:55:11.818250077
2025-11-07 11:55:08.359678,-30465,2025-11-07 11:55:11.825942385
2025-11-07 11:55:08.359678,-1,2025-11-07 11:55:11.833634692
2025-11-07 11:55:08.359678,-101,2025-11-07 11:55:11.841327000
2025-11-07 11:55:08.359678,-24321,2025-11-07 11:55:11.849019308
2025-11-07 11:55:08.359678,-1,2025-11-07 11:55:11.856711615
2025-11-07 11:55:08.359678,-103,2025-11-07 11:55:11.864403923
2025-11-07 11:55:08.359678,-23809,2025-11-07 11:55:11.872096231
2025-11-07 11:55:08.359678,-1,2025-11-07 11:55:11.879788538
2025-11-07 11:55:08.359678,-91,2025-11-07 11:55:11.887480846
2025-11-07 11:55:08.359678,-24321,2025-11-07 11:55:11.895173154
2025-11-07 11:55:08.359678,-1,2025-11-07 11:55:11.902865462
2025-11-07 11:55:08.359678,-96,2025-11-07 11:55:11.910557769
2025-11-07 11:55:08.359678,-23041,2025-11-07 11:55:11.918250077
2025-11-07 11:55:08.359678,-1,2025-11-07 11:55:11.925942385
2025-11-07 11:55:08.359678,-91,2025-11-07 11:55:11.933634692
2025-11-07 11:55:08.359678,-23041,2025-11-07 11:55:11.941327000
2025-11-07 11:55:08.359678,-1,2025-11-07 11:55:11.949019308
2025-11-07 11:55:08.359678,-87,2025-11-07 11:55:11.956711615
2025-11-07 11:55:08.359678,-22017,2025-11-07 11:55:11.964403923
2025-11-07 11:55:08.359678,-1,2025-11-07 11:55:11.972096231
2025-11-07 11:55:08.359678,-87,2025-11-07 11:55:11.979788538
2025-11-07 11:55:08.359678,-22017,2025-11-07 11:55:11.987480846
2025-11-07 11:55:08.359678,-1,2025-11-07 11:55:11.995173154
2025-11-07 11:55:08.359678,-87,2025-11-07 11:55:12.002865462
2025-11-07 11:55:08.359678,-22017,2025-11-07 11:55:12.010557769
2025-11-07 11:55:08.359678,-1,2025-11-07 11:55:12.018250077
2025-11-07 11:55:08.359678,-89,2025-11-07 11:55:12.025942385
2025-11-07 11:55:08.359678,-21249,2025-11-07 11:55:12.033634692
2025-11-07 11:55:08.359678,-1,2025-11-07 11:55:12.041327000
2025-11-07 11:55:08.359678,-70,2025-11-07 11:55:12.049019308
2025-11-07 11:55:08.359678,-15617,2025-11-07 11:55:12.056711615
2025-11-07 11:55:08.359678,-1,2025-11-07 11:55:12.064403923
2025-11-07 11:55:08.359678,-62,2025-11-07 11:55:12.072096231
2025-11-07 11:55:08.359678,-15617,2025-11-07 11:55:12.079788538
2025-11-07 11:55:08.359678,-1,2025-11-07 11:55:12.087480846
2025-11-07 11:55:08.359678,-48,2025-11-07 11:55:12.095173154
2025-11-07 11:55:08.359678,-8961,2025-11-07 11:55:12.102865462
2025-11-07 11:55:08.359678,-1,2025-11-07 11:55:12.110557769
2025-11-07 11:55:08.359678,-29,2025-11-07 11:55:12.118250077
2025-11-07 11:55:08.359678,-4609,2025-11-07 11:55:12.125942385
2025-11-07 11:55:08.359678,-1,2025-11-07 11:55:12.133634692
2025-11-07 11:55:08.359678,-19,2025-11-07 11:55:12.141327000
2025-11-07 11:55:08.359678,-7681,2025-11-07 11:55:12.149019308
2025-11-07 11:55:08.359678,-1,2025-11-07 11:55:12.156711615
2025-11-07 11:55:08.359678,-41,2025-11-07 11:55:12.164403923
2025-11-07 11:55:08.359678,-13313,2025-11-07 11:55:12.172096230
2025-11-07 11:55:08.359678,-1,2025-11-07 11:55:12.179788538
2025-11-07 11:55:08.359678,-65,2025-11-07 11:55:12.187480846
2025-11-07 11:55:08.359678,-17665,2025-11-07 11:55:12.195173154
2025-11-07 11:55:08.359678,-1,2025-11-07 11:55:12.202865462
2025-11-07 11:55:08.359678,-62,2025-11-07 11:55:12.210557769
2025-11-07 11:55:08.359678,-15105,2025-11-07 11:55:12.218250077
2025-11-07 11:55:08.359678,-1,2025-11-07 11:55:12.225942385
2025-11-07 11:55:08.359678,-62,2025-11-07 11:55:12.233634692
2025-11-07 11:55:08.359678,-14593,2025-11-07 11:55:12.241327000
2025-11-07 11:55:08.359678,-1,2025-11-07 11:55:12.249019308
2025-11-07 11:55:08.359678,-62,2025-11-07 11:55:12.256711615
2025-11-07 11:55:08.359678,-21249,2025-11-07 11:55:12.264403923
2025-11-07 11:55:08.359678,-1,2025-11-07 11:55:12.272096231
2025-11-07 11:55:08.359678,-74,2025-11-07 11:55:12.279788538
2025-11-07 11:55:08.359678,-13825,2025-11-07 11:55:12.287480846
2025-11-07 11:55:08.359678,-1,2025-11-07 11:55:12.295173154
2025-11-07 11:55:08.359678,-67,2025-11-07 11:55:12.302865462
2025-11-07 11:55:08.359678,-18689,2025-11-07 11:55:12.310557769
2025-11-07 11:55:08.359678,-1,2025-11-07 11:55:12.318250077
2025-11-07 11:55:08.359678,-67,2025-11-07 11:55:12.325942385
2025-11-07 11:55:08.359678,-16897,2025-11-07 11:55:12.333634692
2025-11-07 11:55:08.359678,-1,2025-11-07 11:55:12.341327000
2025-11-07 11:55:08.359678,-70,2025-11-07 11:55:12.349019308
2025-11-07 11:55:08.359678,-16897,2025-11-07 11:55:12.356711615
2025-11-07 11:55:08.359678,-1,2025-11-07 11:55:12.364403923
2025-11-07 11:55:08.359678,-65,2025-11-07 11:55:12.372096231
2025-11-07 11:55:08.359678,-16897,2025-11-07 11:55:12.379788538
2025-11-07 11:55:08.359678,-1,2025-11-07 11:55:12.387480846
2025-11-07 11:55:08.359678,-62,2025-11-07 11:55:12.395173154
2025-11-07 11:55:08.359678,-15105,2025-11-07 11:55:12.402865462
2025-11-07 11:55:08.359678,-1,2025-11-07 11:55:12.410557769
2025-11-07 11:55:08.359678,-62,2025-11-07 11:55:12.418250077
2025-11-07 11:55:08.359678,-13313,2025-11-07 11:55:12.425942385
2025-11-07 11:55:08.359678,-1,2025-11-07 11:55:12.433634692
2025-11-07 11:55:08.359678,-43,2025-11-07 11:55:12.441327000
2025-11-07 11:55:08.359678,-12033,2025-11-07 11:55:12.449019308
2025-11-07 11:55:08.359678,-1,2025-11-07 11:55:12.456711615
2025-11-07 11:55:08.359678,-50,2025-11-07 11:55:12.464403923
2025-11-07 11:55:08.359678,-12033,2025-11-07 11:55:12.472096231
2025-11-07 11:55:08.359678,-1,2025-11-07 11:55:12.479788538
2025-11-07 11:55:08.359678,-43,2025-11-07 11:55:12.487480846
2025-11-07 11:55:08.359678,-8961,2025-11-07 11:55:12.495173154
2025-11-07 11:55:08.359678,-1,2025-11-07 11:55:12.502865462
2025-11-07 11:55:08.359678,-43,2025-11-07 11:55:12.510557769
2025-11-07 11:55:08.359678,-12033,2025-11-07 11:55:12.518250077
2025-11-07 11:55:08.359678,-1,2025-11-07 11:55:12.525942385
2025-11-07 11:55:08.359678,-45,2025-11-07 11:55:12.533634692
2025-11-07 11:55:08.899268,-45,2025-11-07 11:55:12.541327000
2025-11-07 11:55:08.899268,-12033,2025-11-07 11:55:12.549019308
2025-11-07 11:55:08.899268,-1,2025-11-07 11:55:12.556711615
2025-11-07 11:55:08.899268,-48,2025-11-07 11:55:12.564403923
2025-11-07 11:55:08.899268,-13313,2025-11-07 11:55:12.572096231
2025-11-07 11:55:08.899268,-1,2025-11-07 11:55:12.579788538
2025-11-07 11:55:08.899268,-53,2025-11-07 11:55:12.587480846
2025-11-07 11:55:08.899268,-10753,2025-11-07 11:55:12.595173154
2025-11-07 11:55:08.899268,-1,2025-11-07 11:55:12.602865462
2025-11-07 11:55:08.899268,-21,2025-11-07 11:55:12.610557769
2025-11-07 11:55:08.899268,-1537,2025-11-07 11:55:12.618250077
2025-11-07 11:55:08.899268,-1,2025-11-07 11:55:12.625942385
2025-11-07 11:55:08.899268,-12,2025-11-07 11:55:12.633634692
2025-11-07 11:55:08.899268,-4609,2025-11-07 11:55:12.641327000
2025-11-07 11:55:08.899268,-1,2025-11-07 11:55:12.649019308
2025-11-07 11:55:08.899268,-29,2025-11-07 11:55:12.656711615
2025-11-07 11:55:08.899268,-7681,2025-11-07 11:55:12.664403923
2025-11-07 11:55:08.899268,-1,2025-11-07 11:55:12.672096231
2025-11-07 11:55:08.899268,-21,2025-11-07 11:55:12.679788538
2025-11-07 11:55:08.899268,-4609,2025-11-07 11:55:12.687480846
2025-11-07 11:55:08.899268,-1,2025-11-07 11:55:12.695173154
2025-11-07 11:55:08.899268,-29,2025-11-07 11:55:12.702865462
2025-11-07 11:55:08.899268,-7681,2025-11-07 11:55:12.710557769
2025-11-07 11:55:08.899268,-1,2025-11-07 11:55:12.718250077
2025-11-07 11:55:08.899268,-31,2025-11-07 11:55:12.725942385
2025-11-07 11:55:08.899268,-12545,2025-11-07 11:55:12.733634692
2025-11-07 11:55:08.899268,-1,2025-11-07 11:55:12.741327000
2025-11-07 11:55:08.899268,-111,2025-11-07 11:55:12.749019308
2025-11-07 11:55:08.899268,18943,2025-11-07 11:55:12.756711615
2025-11-07 11:55:08.899268,-1,2025-11-07 11:55:12.764403923
2025-11-07 11:55:08.899268,-99,2025-11-07 11:55:12.772096231
2025-11-07 11:55:08.899268,9471,2025-11-07 11:55:12.779788538
2025-11-07 11:55:08.899268,1,2025-11-07 11:55:12.787480846
2025-11-07 11:55:08.899268,737,2025-11-07 11:55:12.795173154
2025-11-07 11:55:08.899268,-5632,2025-11-07 11:55:12.802865462
2025-11-07 11:55:08.899268,2,2025-11-07 11:55:12.810557769
2025-11-07 11:55:08.899268,321,2025-11-07 11:55:12.818250077
2025-11-07 11:55:08.899268,-7936,2025-11-07 11:55:12.825942385
2025-11-07 11:55:08.899268,-1,2025-11-07 11:55:12.833634692
2025-11-07 11:55:08.899268,-96,2025-11-07 11:55:12.841327000
2025-11-07 11:55:08.899268,-22529,2025-11-07 11:55:12.849019308
2025-11-07 11:55:08.899268,-1,2025-11-07 11:55:12.856711615
2025-11-07 11:55:08.899268,-128,2025-11-07 11:55:12.864403923
2025-11-07 11:55:08.899268,32511,2025-11-07 11:55:12.872096231
2025-11-07 11:55:08.899268,-1,2025-11-07 11:55:12.879788538
2025-11-07 11:55:08.899268,-111,2025-11-07 11:55:12.887480846
2025-11-07 11:55:08.899268,-28673,2025-11-07 11:55:12.895173154
2025-11-07 11:55:08.899268,-1,2025-11-07 11:55:12.902865462
2025-11-07 11:55:08.899268,-113,2025-11-07 11:55:12.910557769
2025-11-07 11:55:08.899268,-25601,2025-11-07 11:55:12.918250077
2025-11-07 11:55:08.899268,-1,2025-11-07 11:55:12.925942385
2025-11-07 11:55:08.899268,-94,2025-11-07 11:55:12.933634692
2025-11-07 11:55:08.899268,-23809,2025-11-07 11:55:12.941327000
2025-11-07 11:55:08.899268,-1,2025-11-07 11:55:12.949019308
2025-11-07 11:55:08.899268,-91,2025-11-07 11:55:12.956711615
2025-11-07 11:55:08.899268,-22529,2025-11-07 11:55:12.964403923
2025-11-07 11:55:08.899268,-1,2025-11-07 11:55:12.972096231
2025-11-07 11:55:08.899268,-84,2025-11-07 11:55:12.979788538
2025-11-07 11:55:08.899268,-22017,2025-11-07 11:55:12.987480846
2025-11-07 11:55:08.899268,-1,2025-11-07 11:55:12.995173154
2025-11-07 11:55:08.899268,-84,2025-11-07 11:55:13.002865462
2025-11-07 11:55:08.899268,-20737,2025-11-07 11:55:13.010557769
2025-11-07 11:55:08.899268,-1,2025-11-07 11:55:13.018250077
2025-11-07 11:55:08.899268,-87,2025-11-07 11:55:13.025942385
2025-11-07 11:55:08.899268,-21249,2025-11-07 11:55:13.033634692
2025-11-07 11:55:08.899268,-1,2025-11-07 11:55:13.041327000
2025-11-07 11:55:08.899268,-77,2025-11-07 11:55:13.049019308
2025-11-07 11:55:08.899268,-19457,2025-11-07 11:55:13.056711615
2025-11-07 11:55:08.899268,-1,2025-11-07 11:55:13.064403923
2025-11-07 11:55:08.899268,-79,2025-11-07 11:55:13.072096231
2025-11-07 11:55:08.899268,-19969,2025-11-07 11:55:13.079788538
2025-11-07 11:55:08.899268,-1,2025-11-07 11:55:13.087480846
2025-11-07 11:55:08.899268,-72,2025-11-07 11:55:13.095173154
2025-11-07 11:55:08.899268,-16385,2025-11-07 11:55:13.102865462
2025-11-07 11:55:08.899268,-1,2025-11-07 11:55:13.110557769
2025-11-07 11:55:08.899268,-60,2025-11-07 11:55:13.118250077
2025-11-07 11:55:08.899268,-13825,2025-11-07 11:55:13.125942385
2025-11-07 11:55:08.899268,-1,2025-11-07 11:55:13.133634692
2025-11-07 11:55:08.899268,-48,2025-11-07 11:55:13.141327000
2025-11-07 11:55:08.899268,-7681,2025-11-07 11:55:13.149019308
2025-11-07 11:55:08.899268,-1,2025-11-07 11:55:13.156711615
2025-11-07 11:55:08.899268,-21,2025-11-07 11:55:13.164403923
2025-11-07 11:55:08.899268,-4609,2025-11-07 11:55:13.172096230
2025-11-07 11:55:08.899268,-1,2025-11-07 11:55:13.179788538
2025-11-07 11:55:08.899268,-19,2025-11-07 11:55:13.187480846
2025-11-07 11:55:08.899268,-5121,2025-11-07 11:55:13.195173154
2025-11-07 11:55:08.899268,-1,2025-11-07 11:55:13.202865462
2025-11-07 11:55:08.899268,-29,2025-11-07 11:55:13.210557769
2025-11-07 11:55:08.899268,-8961,2025-11-07 11:55:13.218250077
2025-11-07 11:55:08.899268,-1,2025-11-07 11:55:13.225942385
2025-11-07 11:55:08.899268,-29,2025-11-07 11:55:13.233634692
2025-11-07 11:55:08.899268,-4609,2025-11-07 11:55:13.241327000
2025-11-07 11:55:08.899268,-1,2025-11-07 11:55:13.249019308
2025-11-07 11:55:08.899268,-29,2025-11-07 11:55:13.256711615
2025-11-07 11:55:08.899268,-10241,2025-11-07 11:55:13.264403923
2025-11-07 11:55:08.899268,-1,2025-11-07 11:55:13.272096231
2025-11-07 11:55:08.899268,-38,2025-11-07 11:55:13.279788538
2025-11-07 11:55:08.899268,-7169,2025-11-07 11:55:13.287480846
2025-11-07 11:55:08.899268,-1,2025-11-07 11:55:13.295173154
2025-11-07 11:55:08.899268,-19,2025-11-07 11:55:13.302865462
2025-11-07 11:55:08.899268,-3329,2025-11-07 11:55:13.310557769
2025-11-07 11:55:08.899268,-1,2025-11-07 11:55:13.318250077
2025-11-07 11:55:08.899268,-29,2025-11-07 11:55:13.325942385
2025-11-07 11:55:08.899268,-10241,2025-11-07 11:55:13.333634692
2025-11-07 11:55:08.899268,-1,2025-11-07 11:55:13.341327000
2025-11-07 11:55:08.899268,-29,2025-11-07 11:55:13.349019308
2025-11-07 11:55:08.899268,-6401,2025-11-07 11:55:13.356711615
2025-11-07 11:55:08.899268,-1,2025-11-07 11:55:13.364403923
2025-11-07 11:55:08.899268,-38,2025-11-07 11:55:13.372096231
2025-11-07 11:55:09.469283,-36,2025-11-07 11:55:13.379788538
2025-11-07 11:55:09.469283,-7169,2025-11-07 11:55:13.387480846
2025-11-07 11:55:09.469283,-1,2025-11-07 11:55:13.395173154
2025-11-07 11:55:09.469283,-31,2025-11-07 11:55:13.402865462
2025-11-07 11:55:09.469283,-8961,2025-11-07 11:55:13.410557769
2025-11-07 11:55:09.469283,-1,2025-11-07 11:55:13.418250077
2025-11-07 11:55:09.469283,-36,2025-11-07 11:55:13.425942385
2025-11-07 11:55:09.469283,-10241,2025-11-07 11:55:13.433634692
2025-11-07 11:55:09.469283,-1,2025-11-07 11:55:13.441327000
2025-11-07 11:55:09.469283,-36,2025-11-07 11:55:13.449019308
2025-11-07 11:55:09.469283,-4609,2025-11-07 11:55:13.456711615
2025-11-07 11:55:09.469283,-1,2025-11-07 11:55:13.464403923
2025-11-07 11:55:09.469283,-4,2025-11-07 11:55:13.472096231
2025-11-07 11:55:09.469283,-1537,2025-11-07 11:55:13.479788538
2025-11-07 11:55:09.469283,-1,2025-11-07 11:55:13.487480846
2025-11-07 11:55:09.469283,-14,2025-11-07 11:55:13.495173154
2025-11-07 11:55:09.469283,-2049,2025-11-07 11:55:13.502865462
2025-11-07 11:55:09.469283,-1,2025-11-07 11:55:13.510557769
2025-11-07 11:55:09.469283,-2,2025-11-07 11:55:13.518250077
2025-11-07 11:55:09.469283,-769,2025-11-07 11:55:13.525942385
2025-11-07 11:55:09.469283,-1,2025-11-07 11:55:13.533634692
2025-11-07 11:55:09.469283,-2,2025-11-07 11:55:13.541327000
2025-11-07 11:55:09.469283,767,2025-11-07 11:55:13.549019308
2025-11-07 11:55:09.469283,0,2025-11-07 11:55:13.556711615
2025-11-07 11:55:09.469283,-2,2025-11-07 11:55:13.564403923
2025-11-07 11:55:09.469283,-2817,2025-11-07 11:55:13.572096231
2025-11-07 11:55:09.469283,-1,2025-11-07 11:55:13.579788538
2025-11-07 11:55:09.469283,-9,2025-11-07 11:55:13.587480846
2025-11-07 11:55:09.469283,-2049,2025-11-07 11:55:13.595173154
2025-11-07 11:55:09.469283,-1,2025-11-07 11:55:13.602865462
2025-11-07 11:55:09.469283,-24,2025-11-07 11:55:13.610557769
2025-11-07 11:55:09.469283,-7169,2025-11-07 11:55:13.618250077
2025-11-07 11:55:09.469283,-1,2025-11-07 11:55:13.625942385
2025-11-07 11:55:09.469283,-14,2025-11-07 11:55:13.633634692
2025-11-07 11:55:09.469283,1279,2025-11-07 11:55:13.641327000
2025-11-07 11:55:09.469283,0,2025-11-07 11:55:13.649019308
2025-11-07 11:55:09.469283,19,2025-11-07 11:55:13.656711615
2025-11-07 11:55:09.469283,4096,2025-11-07 11:55:13.664403923
2025-11-07 11:55:09.469283,0,2025-11-07 11:55:13.672096231
2025-11-07 11:55:09.469283,2,2025-11-07 11:55:13.679788538
2025-11-07 11:55:09.469283,-3584,2025-11-07 11:55:13.687480846
2025-11-07 11:55:09.469283,-1,2025-11-07 11:55:13.695173154
2025-11-07 11:55:09.469283,-26,2025-11-07 11:55:13.702865462
2025-11-07 11:55:09.469283,-5121,2025-11-07 11:55:13.710557769
2025-11-07 11:55:09.469283,-1,2025-11-07 11:55:13.718250077
2025-11-07 11:55:09.469283,-9,2025-11-07 11:55:13.725942385
2025-11-07 11:55:09.469283,-2049,2025-11-07 11:55:13.733634692
2025-11-07 11:55:09.469283,-1,2025-11-07 11:55:13.741327000
2025-11-07 11:55:09.469283,-12,2025-11-07 11:55:13.749019308
2025-11-07 11:55:09.469283,-2817,2025-11-07 11:55:13.756711615
2025-11-07 11:55:09.469283,-1,2025-11-07 11:55:13.764403923
2025-11-07 11:55:09.469283,-21,2025-11-07 11:55:13.772096231
2025-11-07 11:55:09.469283,-19969,2025-11-07 11:55:13.779788538
2025-11-07 11:55:09.469283,-1,2025-11-07 11:55:13.787480846
2025-11-07 11:55:09.469283,-154,2025-11-07 11:55:13.795173154
2025-11-07 11:55:09.469283,-30465,2025-11-07 11:55:13.802865462
2025-11-07 11:55:09.469283,-1,2025-11-07 11:55:13.810557769
2025-11-07 11:55:09.469283,178,2025-11-07 11:55:13.818250077
2025-11-07 11:55:09.469283,31488,2025-11-07 11:55:13.825942385
2025-11-07 11:55:09.469283,2,2025-11-07 11:55:13.833634692
2025-11-07 11:55:09.469283,790,2025-11-07 11:55:13.841327000
2025-11-07 11:55:09.469283,-14336,2025-11-07 11:55:13.849019308
2025-11-07 11:55:09.469283,1,2025-11-07 11:55:13.856711615
2025-11-07 11:55:09.469283,43,2025-11-07 11:55:13.864403923
2025-11-07 11:55:09.469283,-24064,2025-11-07 11:55:13.872096231
2025-11-07 11:55:09.469283,-1,2025-11-07 11:55:13.879788538
2025-11-07 11:55:09.469283,-87,2025-11-07 11:55:13.887480846
2025-11-07 11:55:09.469283,-28673,2025-11-07 11:55:13.895173154
2025-11-07 11:55:09.469283,-1,2025-11-07 11:55:13.902865462
2025-11-07 11:55:09.469283,-123,2025-11-07 11:55:13.910557769
2025-11-07 11:55:09.469283,-26113,2025-11-07 11:55:13.918250077
2025-11-07 11:55:09.469283,-1,2025-11-07 11:55:13.925942385
2025-11-07 11:55:09.469283,-101,2025-11-07 11:55:13.933634692
2025-11-07 11:55:09.469283,-25089,2025-11-07 11:55:13.941327000
2025-11-07 11:55:09.469283,-1,2025-11-07 11:55:13.949019308
2025-11-07 11:55:09.469283,-91,2025-11-07 11:55:13.956711615
2025-11-07 11:55:09.469283,-22529,2025-11-07 11:55:13.964403923
2025-11-07 11:55:09.469283,-1,2025-11-07 11:55:13.972096231
2025-11-07 11:55:09.469283,-87,2025-11-07 11:55:13.979788538
2025-11-07 11:55:09.469283,-19457,2025-11-07 11:55:13.987480846
2025-11-07 11:55:09.469283,-1,2025-11-07 11:55:13.995173154
2025-11-07 11:55:09.469283,-65,2025-11-07 11:55:14.002865462
2025-11-07 11:55:09.469283,-15617,2025-11-07 11:55:14.010557769
2025-11-07 11:55:09.469283,-1,2025-11-07 11:55:14.018250077
2025-11-07 11:55:09.469283,-65,2025-11-07 11:55:14.025942385
2025-11-07 11:55:09.469283,-16385,2025-11-07 11:55:14.033634692
2025-11-07 11:55:09.469283,-1,2025-11-07 11:55:14.041327000
2025-11-07 11:55:09.469283,-65,2025-11-07 11:55:14.049019308
2025-11-07 11:55:09.469283,-16385,2025-11-07 11:55:14.056711615
2025-11-07 11:55:09.469283,-1,2025-11-07 11:55:14.064403923
2025-11-07 11:55:09.469283,-65,2025-11-07 11:55:14.072096231
2025-11-07 11:55:09.469283,-15105,2025-11-07 11:55:14.079788538
2025-11-07 11:55:09.469283,-1,2025-11-07 11:55:14.087480846
2025-11-07 11:55:09.469283,-55,2025-11-07 11:55:14.095173154
2025-11-07 11:55:09.469283,-12545,2025-11-07 11:55:14.102865462
2025-11-07 11:55:09.469283,-1,2025-11-07 11:55:14.110557769
2025-11-07 11:55:09.469283,-50,2025-11-07 11:55:14.118250077
2025-11-07 11:55:09.469283,-10753,2025-11-07 11:55:14.125942385
2025-11-07 11:55:09.469283,-1,2025-11-07 11:55:14.133634692
2025-11-07 11:55:09.469283,-33,2025-11-07 11:55:14.141327000
2025-11-07 11:55:09.469283,-6401,2025-11-07 11:55:14.149019308
2025-11-07 11:55:09.469283,-1,2025-11-07 11:55:14.156711615
2025-11-07 11:55:09.469283,-21,2025-11-07 11:55:14.164403923
2025-11-07 11:55:09.469283,-3841,2025-11-07 11:55:14.172096230
2025-11-07 11:55:09.469283,-1,2025-11-07 11:55:14.179788538
2025-11-07 11:55:09.469283,-12,2025-11-07 11:55:14.187480846
2025-11-07 11:55:09.469283,-257,2025-11-07 11:55:14.195173154
2025-11-07 11:55:09.469283,-1,2025-11-07 11:55:14.202865462
2025-11-07 11:55:09.469283,-2,2025-11-07 11:55:14.210557769
2025-11-07 11:55:10.009400,-7,2025-11-07 11:55:14.218250077
2025-11-07 11:55:10.009400,-1537,2025-11-07 11:55:14.225942385
2025-11-07 11:55:10.009400,-1,2025-11-07 11:55:14.233634692
2025-11-07 11:55:10.009400,-16,2025-11-07 11:55:14.241327000
2025-11-07 11:55:10.009400,-5889,2025-11-07 11:55:14.249019308
2025-11-07 11:55:10.009400,-1,2025-11-07 11:55:14.256711615
2025-11-07 11:55:10.009400,-19,2025-11-07 11:55:14.264403923
2025-11-07 11:55:10.009400,-3841,2025-11-07 11:55:14.272096231
2025-11-07 11:55:10.009400,-1,2025-11-07 11:55:14.279788538
2025-11-07 11:55:10.009400,-24,2025-11-07 11:55:14.287480846
2025-11-07 11:55:10.009400,-8961,2025-11-07 11:55:14.295173154
2025-11-07 11:55:10.009400,-1,2025-11-07 11:55:14.302865462
2025-11-07 11:55:10.009400,-24,2025-11-07 11:55:14.310557769
2025-11-07 11:55:10.009400,255,2025-11-07 11:55:14.318250077
2025-11-07 11:55:10.009400,0,2025-11-07 11:55:14.325942385
2025-11-07 11:55:10.009400,2,2025-11-07 11:55:14.333634692
2025-11-07 11:55:10.009400,-1792,2025-11-07 11:55:14.341327000
2025-11-07 11:55:10.009400,-1,2025-11-07 11:55:14.349019308
2025-11-07 11:55:10.009400,-9,2025-11-07 11:55:14.356711615
2025-11-07 11:55:10.009400,-1537,2025-11-07 11:55:14.364403923
2025-11-07 11:55:10.009400,-1,2025-11-07 11:55:14.372096231
2025-11-07 11:55:10.009400,-7,2025-11-07 11:55:14.379788538
2025-11-07 11:55:10.009400,-4609,2025-11-07 11:55:14.387480846
2025-11-07 11:55:10.009400,-1,2025-11-07 11:55:14.395173154
2025-11-07 11:55:10.009400,-19,2025-11-07 11:55:14.402865462
2025-11-07 11:55:10.009400,-2049,2025-11-07 11:55:14.410557769
2025-11-07 11:55:10.009400,-1,2025-11-07 11:55:14.418250077
2025-11-07 11:55:10.009400,-12,2025-11-07 11:55:14.425942385
2025-11-07 11:55:10.009400,-3841,2025-11-07 11:55:14.433634692
2025-11-07 11:55:10.009400,-1,2025-11-07 11:55:14.441327000
2025-11-07 11:55:10.009400,-16,2025-11-07 11:55:14.449019308
2025-11-07 11:55:10.009400,-3329,2025-11-07 11:55:14.456711615
2025-11-07 11:55:10.009400,-1,2025-11-07 11:55:14.464403923
2025-11-07 11:55:10.009400,-14,2025-11-07 11:55:14.472096231
2025-11-07 11:55:10.009400,-3841,2025-11-07 11:55:14.479788538
2025-11-07 11:55:10.009400,-1,2025-11-07 11:55:14.487480846
2025-11-07 11:55:10.009400,-12,2025-11-07 11:55:14.495173154
2025-11-07 11:55:10.009400,-2817,2025-11-07 11:55:14.502865462
2025-11-07 11:55:10.009400,-1,2025-11-07 11:55:14.510557769
2025-11-07 11:55:10.009400,-12,2025-11-07 11:55:14.518250077
2025-11-07 11:55:10.009400,-2049,2025-11-07 11:55:14.525942385
2025-11-07 11:55:10.009400,-1,2025-11-07 11:55:14.533634692
2025-11-07 11:55:10.009400,-16,2025-11-07 11:55:14.541327000
2025-11-07 11:55:10.009400,-3841,2025-11-07 11:55:14.549019308
2025-11-07 11:55:10.009400,-1,2025-11-07 11:55:14.556711615
2025-11-07 11:55:10.009400,-12,2025-11-07 11:55:14.564403923
2025-11-07 11:55:10.009400,-2817,2025-11-07 11:55:14.572096231
2025-11-07 11:55:10.009400,-1,2025-11-07 11:55:14.579788538
2025-11-07 11:55:10.009400,-9,2025-11-07 11:55:14.587480846
2025-11-07 11:55:10.009400,-2049,2025-11-07 11:55:14.595173154
2025-11-07 11:55:10.009400,-1,2025-11-07 11:55:14.602865462
2025-11-07 11:55:10.009400,-12,2025-11-07 11:55:14.610557769
2025-11-07 11:55:10.009400,-2817,2025-11-07 11:55:14.618250077
2025-11-07 11:55:10.009400,-1,2025-11-07 11:55:14.625942385
2025-11-07 11:55:10.009400,-14,2025-11-07 11:55:14.633634692
2025-11-07 11:55:10.009400,-3841,2025-11-07 11:55:14.641327000
2025-11-07 11:55:10.009400,-1,2025-11-07 11:55:14.649019308
2025-11-07 11:55:10.009400,-19,2025-11-07 11:55:14.656711615
2025-11-07 11:55:10.009400,-3329,2025-11-07 11:55:14.664403923
2025-11-07 11:55:10.009400,-1,2025-11-07 11:55:14.672096231
2025-11-07 11:55:10.009400,7,2025-11-07 11:55:14.679788538
2025-11-07 11:55:10.009400,4864,2025-11-07 11:55:14.687480846
2025-11-07 11:55:10.009400,0,2025-11-07 11:55:14.695173154
2025-11-07 11:55:10.009400,14,2025-11-07 11:55:14.702865462
2025-11-07 11:55:10.009400,512,2025-11-07 11:55:14.710557769
2025-11-07 11:55:10.009400,0,2025-11-07 11:55:14.718250077
2025-11-07 11:55:10.009400,-14,2025-11-07 11:55:14.725942385
2025-11-07 11:55:10.009400,-5889,2025-11-07 11:55:14.733634692
2025-11-07 11:55:10.009400,-1,2025-11-07 11:55:14.741327000
2025-11-07 11:55:10.009400,-14,2025-11-07 11:55:14.749019308
2025-11-07 11:55:10.009400,-257,2025-11-07 11:55:14.756711615
2025-11-07 11:55:10.009400,-1,2025-11-07 11:55:14.764403923
2025-11-07 11:55:10.009400,-4,2025-11-07 11:55:14.772096231
2025-11-07 11:55:10.009400,-3841,2025-11-07 11:55:14.779788538
2025-11-07 11:55:10.009400,-1,2025-11-07 11:55:14.787480846
2025-11-07 11:55:10.009400,-12,2025-11-07 11:55:14.795173154
2025-11-07 11:55:10.009400,-3329,2025-11-07 11:55:14.802865462
2025-11-07 11:55:10.009400,-1,2025-11-07 11:55:14.810557769
2025-11-07 11:55:10.009400,-62,2025-11-07 11:55:14.818250077
2025-11-07 11:55:10.009400,28671,2025-11-07 11:55:14.825942385
2025-11-07 11:55:10.009400,-1,2025-11-07 11:55:14.833634692
2025-11-07 11:55:10.009400,-125,2025-11-07 11:55:14.841327000
2025-11-07 11:55:10.009400,-20737,2025-11-07 11:55:14.849019308
2025-11-07 11:55:10.009400,0,2025-11-07 11:55:14.856711615
2025-11-07 11:55:10.009400,642,2025-11-07 11:55:14.864403923
2025-11-07 11:55:10.009400,9984,2025-11-07 11:55:14.872096231
2025-11-07 11:55:10.009400,3,2025-11-07 11:55:14.879788538
2025-11-07 11:55:10.009400,483,2025-11-07 11:55:14.887480846
2025-11-07 11:55:10.009400,15872,2025-11-07 11:55:14.895173154
2025-11-07 11:55:10.009400,0,2025-11-07 11:55:14.902865462
2025-11-07 11:55:10.009400,-84,2025-11-07 11:55:14.910557769
2025-11-07 11:55:10.009400,-18689,2025-11-07 11:55:14.918250077
2025-11-07 11:55:10.009400,-1,2025-11-07 11:55:14.925942385
2025-11-07 11:55:10.009400,-103,2025-11-07 11:55:14.933634692
2025-11-07 11:55:10.009400,-30465,2025-11-07 11:55:14.941327000
2025-11-07 11:55:10.009400,-1,2025-11-07 11:55:14.949019308
2025-11-07 11:55:10.009400,-101,2025-11-07 11:55:14.956711615
2025-11-07 11:55:10.009400,-24321,2025-11-07 11:55:14.964403923
2025-11-07 11:55:10.009400,-1,2025-11-07 11:55:14.972096231
2025-11-07 11:55:10.009400,-99,2025-11-07 11:55:14.979788538
2025-11-07 11:55:10.009400,-23041,2025-11-07 11:55:14.987480846
2025-11-07 11:55:10.009400,-1,2025-11-07 11:55:14.995173154
2025-11-07 11:55:10.009400,-84,2025-11-07 11:55:15.002865462
2025-11-07 11:55:10.009400,-21249,2025-11-07 11:55:15.010557769
2025-11-07 11:55:10.009400,-1,2025-11-07 11:55:15.018250077
2025-11-07 11:55:10.009400,-82,2025-11-07 11:55:15.025942385
2025-11-07 11:55:10.009400,-18177,2025-11-07 11:55:15.033634692
2025-11-07 11:55:10.009400,-1,2025-11-07 11:55:15.041327000
2025-11-07 11:55:10.009400,-70,2025-11-07 11:55:15.049019308
2025-11-07 11:55:10.579946,-72,2025-11-07 11:55:15.056711615
2025-11-07 11:55:10.579946,-17665,2025-11-07 11:55:15.064403923
2025-11-07 11:55:10.579946,-1,2025-11-07 11:55:15.072096231
2025-11-07 11:55:10.579946,-67,2025-11-07 11:55:15.079788538
2025-11-07 11:55:10.579946,-16385,2025-11-07 11:55:15.087480846
2025-11-07 11:55:10.579946,-1,2025-11-07 11:55:15.095173154
2025-11-07 11:55:10.579946,-62,2025-11-07 11:55:15.102865462
2025-11-07 11:55:10.579946,-14593,2025-11-07 11:55:15.110557769
2025-11-07 11:55:10.579946,-1,2025-11-07 11:55:15.118250077
2025-11-07 11:55:10.579946,-43,2025-11-07 11:55:15.125942385
2025-11-07 11:55:10.579946,-7681,2025-11-07 11:55:15.133634692
2025-11-07 11:55:10.579946,-1,2025-11-07 11:55:15.141327000
2025-11-07 11:55:10.579946,-31,2025-11-07 11:55:15.149019308
2025-11-07 11:55:10.579946,-8193,2025-11-07 11:55:15.156711615
2025-11-07 11:55:10.579946,-1,2025-11-07 11:55:15.164403923
2025-11-07 11:55:10.579946,-29,2025-11-07 11:55:15.172096230
2025-11-07 11:55:10.579946,-4609,2025-11-07 11:55:15.179788538
2025-11-07 11:55:10.579946,-1,2025-11-07 11:55:15.187480846
2025-11-07 11:55:10.579946,-19,2025-11-07 11:55:15.195173154
2025-11-07 11:55:10.579946,-3329,2025-11-07 11:55:15.202865462
2025-11-07 11:55:10.579946,-1,2025-11-07 11:55:15.210557769
2025-11-07 11:55:10.579946,-4,2025-11-07 11:55:15.218250077
2025-11-07 11:55:10.579946,255,2025-11-07 11:55:15.225942385
2025-11-07 11:55:10.579946,0,2025-11-07 11:55:15.233634692
2025-11-07 11:55:10.579946,4,2025-11-07 11:55:15.241327000
2025-11-07 11:55:10.579946,1792,2025-11-07 11:55:15.249019308
2025-11-07 11:55:10.579946,0,2025-11-07 11:55:15.256711615
2025-11-07 11:55:10.579946,0,2025-11-07 11:55:15.264403923
2025-11-07 11:55:10.579946,-2304,2025-11-07 11:55:15.272096231
2025-11-07 11:55:10.579946,-1,2025-11-07 11:55:15.279788538
2025-11-07 11:55:10.579946,-12,2025-11-07 11:55:15.287480846
2025-11-07 11:55:10.579946,-3329,2025-11-07 11:55:15.295173154
2025-11-07 11:55:10.579946,-1,2025-11-07 11:55:15.302865462
2025-11-07 11:55:10.579946,-19,2025-11-07 11:55:15.310557769
2025-11-07 11:55:10.579946,-5121,2025-11-07 11:55:15.318250077
2025-11-07 11:55:10.579946,-1,2025-11-07 11:55:15.325942385
2025-11-07 11:55:10.579946,-21,2025-11-07 11:55:15.333634692
2025-11-07 11:55:10.579946,-5121,2025-11-07 11:55:15.341327000
2025-11-07 11:55:10.579946,-1,2025-11-07 11:55:15.349019308
2025-11-07 11:55:10.579946,-16,2025-11-07 11:55:15.356711615
2025-11-07 11:55:10.579946,-2049,2025-11-07 11:55:15.364403923
2025-11-07 11:55:10.579946,-1,2025-11-07 11:55:15.372096231
2025-11-07 11:55:10.579946,-14,2025-11-07 11:55:15.379788538
2025-11-07 11:55:10.579946,-3841,2025-11-07 11:55:15.387480846
2025-11-07 11:55:10.579946,-1,2025-11-07 11:55:15.395173154
2025-11-07 11:55:10.579946,-14,2025-11-07 11:55:15.402865462
2025-11-07 11:55:10.579946,-3329,2025-11-07 11:55:15.410557769
2025-11-07 11:55:10.579946,-1,2025-11-07 11:55:15.418250077
2025-11-07 11:55:10.579946,-16,2025-11-07 11:55:15.425942385
2025-11-07 11:55:10.579946,-4609,2025-11-07 11:55:15.433634692
2025-11-07 11:55:10.579946,-1,2025-11-07 11:55:15.441327000
2025-11-07 11:55:10.579946,-21,2025-11-07 11:55:15.449019308
2025-11-07 11:55:10.579946,-5121,2025-11-07 11:55:15.456711615
2025-11-07 11:55:10.579946,-1,2025-11-07 11:55:15.464403923
2025-11-07 11:55:10.579946,-26,2025-11-07 11:55:15.472096231
2025-11-07 11:55:10.579946,-5121,2025-11-07 11:55:15.479788538
2025-11-07 11:55:10.579946,-1,2025-11-07 11:55:15.487480846
2025-11-07 11:55:10.579946,-24,2025-11-07 11:55:15.495173154
2025-11-07 11:55:10.579946,-7169,2025-11-07 11:55:15.502865462
2025-11-07 11:55:10.579946,-1,2025-11-07 11:55:15.510557769
2025-11-07 11:55:10.579946,-19,2025-11-07 11:55:15.518250077
2025-11-07 11:55:10.579946,-2817,2025-11-07 11:55:15.525942385
2025-11-07 11:55:10.579946,-1,2025-11-07 11:55:15.533634692
2025-11-07 11:55:10.579946,-14,2025-11-07 11:55:15.541327000
2025-11-07 11:55:10.579946,-3329,2025-11-07 11:55:15.549019308
2025-11-07 11:55:10.579946,-1,2025-11-07 11:55:15.556711615
2025-11-07 11:55:10.579946,-12,2025-11-07 11:55:15.564403923
2025-11-07 11:55:10.579946,-2817,2025-11-07 11:55:15.572096231
2025-11-07 11:55:10.579946,-1,2025-11-07 11:55:15.579788538
2025-11-07 11:55:10.579946,-14,2025-11-07 11:55:15.587480846
2025-11-07 11:55:10.579946,-3329,2025-11-07 11:55:15.595173154
2025-11-07 11:55:10.579946,-1,2025-11-07 11:55:15.602865462
2025-11-07 11:55:10.579946,-9,2025-11-07 11:55:15.610557769
2025-11-07 11:55:10.579946,-2817,2025-11-07 11:55:15.618250077
2025-11-07 11:55:10.579946,-1,2025-11-07 11:55:15.625942385
2025-11-07 11:55:10.579946,-16,2025-11-07 11:55:15.633634692
2025-11-07 11:55:10.579946,-4609,2025-11-07 11:55:15.641327000
2025-11-07 11:55:10.579946,-1,2025-11-07 11:55:15.649019308
2025-11-07 11:55:10.579946,-16,2025-11-07 11:55:15.656711615
2025-11-07 11:55:10.579946,-2817,2025-11-07 11:55:15.664403923
2025-11-07 11:55:10.579946,-1,2025-11-07 11:55:15.672096231
2025-11-07 11:55:10.579946,-14,2025-11-07 11:55:15.679788538
2025-11-07 11:55:10.579946,-5121,2025-11-07 11:55:15.687480846
2025-11-07 11:55:10.579946,-1,2025-11-07 11:55:15.695173154
2025-11-07 11:55:10.579946,-24,2025-11-07 11:55:15.702865462
2025-11-07 11:55:10.579946,-5889,2025-11-07 11:55:15.710557769
2025-11-07 11:55:10.579946,-1,2025-11-07 11:55:15.718250077
2025-11-07 11:55:10.579946,-16,2025-11-07 11:55:15.725942385
2025-11-07 11:55:10.579946,255,2025-11-07 11:55:15.733634692
2025-11-07 11:55:10.579946,0,2025-11-07 11:55:15.741327000
2025-11-07 11:55:10.579946,19,2025-11-07 11:55:15.749019308
2025-11-07 11:55:10.579946,4864,2025-11-07 11:55:15.756711615
2025-11-07 11:55:10.579946,0,2025-11-07 11:55:15.764403923
2025-11-07 11:55:10.579946,0,2025-11-07 11:55:15.772096231
2025-11-07 11:55:10.579946,-3584,2025-11-07 11:55:15.779788538
2025-11-07 11:55:10.579946,-1,2025-11-07 11:55:15.787480846
2025-11-07 11:55:10.579946,-19,2025-11-07 11:55:15.795173154
2025-11-07 11:55:10.579946,-3329,2025-11-07 11:55:15.802865462
2025-11-07 11:55:10.579946,-1,2025-11-07 11:55:15.810557769
2025-11-07 11:55:10.579946,-16,2025-11-07 11:55:15.818250077
2025-11-07 11:55:10.579946,-4609,2025-11-07 11:55:15.825942385
2025-11-07 11:55:10.579946,-1,2025-11-07 11:55:15.833634692
2025-11-07 11:55:10.579946,-12,2025-11-07 11:55:15.841327000
2025-11-07 11:55:10.579946,-2817,2025-11-07 11:55:15.849019308
2025-11-07 11:55:10.579946,-1,2025-11-07 11:55:15.856711615
2025-11-07 11:55:10.579946,-29,2025-11-07 11:55:15.864403923
2025-11-07 11:55:10.579946,-18177,2025-11-07 11:55:15.872096231
2025-11-07 11:55:10.579946,-1,2025-11-07 11:55:15.879788538
2025-11-07 11:55:10.579946,-142,2025-11-07 11:55:15.887480846
2025-11-07 11:55:11.119268,-108,2025-11-07 11:55:15.895173154
2025-11-07 11:55:11.119268,-14593,2025-11-07 11:55:15.902865462
2025-11-07 11:55:11.119268,0,2025-11-07 11:55:15.910557769
2025-11-07 11:55:11.119268,650,2025-11-07 11:55:15.918250077
2025-11-07 11:55:11.119268,8192,2025-11-07 11:55:15.925942385
2025-11-07 11:55:11.119268,3,2025-11-07 11:55:15.933634692
2025-11-07 11:55:11.119268,471,2025-11-07 11:55:15.941327000
2025-11-07 11:55:11.119268,15360,2025-11-07 11:55:15.949019308
2025-11-07 11:55:11.119268,0,2025-11-07 11:55:15.956711615
2025-11-07 11:55:11.119268,-79,2025-11-07 11:55:15.964403923
2025-11-07 11:55:11.119268,-18689,2025-11-07 11:55:15.972096231
2025-11-07 11:55:11.119268,-1,2025-11-07 11:55:15.979788538
2025-11-07 11:55:11.119268,-96,2025-11-07 11:55:15.987480846
2025-11-07 11:55:11.119268,-26113,2025-11-07 11:55:15.995173154
2025-11-07 11:55:11.119268,-1,2025-11-07 11:55:16.002865462
2025-11-07 11:55:11.119268,-87,2025-11-07 11:55:16.010557769
2025-11-07 11:55:11.119268,-21249,2025-11-07 11:55:16.018250077
2025-11-07 11:55:11.119268,-1,2025-11-07 11:55:16.025942385
2025-11-07 11:55:11.119268,-89,2025-11-07 11:55:16.033634692
2025-11-07 11:55:11.119268,-20737,2025-11-07 11:55:16.041327000
2025-11-07 11:55:11.119268,-1,2025-11-07 11:55:16.049019308
2025-11-07 11:55:11.119268,-70,2025-11-07 11:55:16.056711615
2025-11-07 11:55:11.119268,-15617,2025-11-07 11:55:16.064403923
2025-11-07 11:55:11.119268,-1,2025-11-07 11:55:16.072096231
2025-11-07 11:55:11.119268,-60,2025-11-07 11:55:16.079788538
2025-11-07 11:55:11.119268,-15617,2025-11-07 11:55:16.087480846
2025-11-07 11:55:11.119268,-1,2025-11-07 11:55:16.095173154
2025-11-07 11:55:11.119268,-62,2025-11-07 11:55:16.102865462
2025-11-07 11:55:11.119268,-15105,2025-11-07 11:55:16.110557769
2025-11-07 11:55:11.119268,-1,2025-11-07 11:55:16.118250077
2025-11-07 11:55:11.119268,-60,2025-11-07 11:55:16.125942385
2025-11-07 11:55:11.119268,-13825,2025-11-07 11:55:16.133634692
2025-11-07 11:55:11.119268,-1,2025-11-07 11:55:16.141327000
2025-11-07 11:55:11.119268,-53,2025-11-07 11:55:16.149019308
2025-11-07 11:55:11.119268,-13825,2025-11-07 11:55:16.156711615
2025-11-07 11:55:11.119268,-1,2025-11-07 11:55:16.164403923
2025-11-07 11:55:11.119268,-55,2025-11-07 11:55:16.172096230
2025-11-07 11:55:11.119268,-13313,2025-11-07 11:55:16.179788538
2025-11-07 11:55:11.119268,-1,2025-11-07 11:55:16.187480846
2025-11-07 11:55:11.119268,-48,2025-11-07 11:55:16.195173154
2025-11-07 11:55:11.119268,-11265,2025-11-07 11:55:16.202865462
2025-11-07 11:55:11.119268,-1,2025-11-07 11:55:16.210557769
2025-11-07 11:55:11.119268,-45,2025-11-07 11:55:16.218250077
2025-11-07 11:55:11.119268,-9473,2025-11-07 11:55:16.225942385
2025-11-07 11:55:11.119268,-1,2025-11-07 11:55:16.233634692
2025-11-07 11:55:11.119268,-31,2025-11-07 11:55:16.241327000
2025-11-07 11:55:11.119268,-7681,2025-11-07 11:55:16.249019308
2025-11-07 11:55:11.119268,-1,2025-11-07 11:55:16.256711615
2025-11-07 11:55:11.119268,-26,2025-11-07 11:55:16.264403923
2025-11-07 11:55:11.119268,-2817,2025-11-07 11:55:16.272096231
2025-11-07 11:55:11.119268,-1,2025-11-07 11:55:16.279788538
2025-11-07 11:55:11.119268,2,2025-11-07 11:55:16.287480846
2025-11-07 11:55:11.119268,512,2025-11-07 11:55:16.295173154
2025-11-07 11:55:11.119268,0,2025-11-07 11:55:16.302865462
2025-11-07 11:55:11.119268,-2,2025-11-07 11:55:16.310557769
2025-11-07 11:55:11.119268,767,2025-11-07 11:55:16.318250077
2025-11-07 11:55:11.119268,0,2025-11-07 11:55:16.325942385
2025-11-07 11:55:11.119268,4,2025-11-07 11:55:16.333634692
2025-11-07 11:55:11.119268,512,2025-11-07 11:55:16.341327000
2025-11-07 11:55:11.119268,0,2025-11-07 11:55:16.349019308
2025-11-07 11:55:11.119268,-9,2025-11-07 11:55:16.356711615
2025-11-07 11:55:11.119268,-6401,2025-11-07 11:55:16.364403923
2025-11-07 11:55:11.119268,-1,2025-11-07 11:55:16.372096231
2025-11-07 11:55:11.119268,-21,2025-11-07 11:55:16.379788538
2025-11-07 11:55:11.119268,-2049,2025-11-07 11:55:16.387480846
2025-11-07 11:55:11.119268,-1,2025-11-07 11:55:16.395173154
2025-11-07 11:55:11.119268,-14,2025-11-07 11:55:16.402865462
2025-11-07 11:55:11.119268,-3841,2025-11-07 11:55:16.410557769
2025-11-07 11:55:11.119268,-1,2025-11-07 11:55:16.418250077
2025-11-07 11:55:11.119268,-12,2025-11-07 11:55:16.425942385
2025-11-07 11:55:11.119268,-1537,2025-11-07 11:55:16.433634692
2025-11-07 11:55:11.119268,-1,2025-11-07 11:55:16.441327000
2025-11-07 11:55:11.119268,-9,2025-11-07 11:55:16.449019308
2025-11-07 11:55:11.119268,-2817,2025-11-07 11:55:16.456711615
2025-11-07 11:55:11.119268,-1,2025-11-07 11:55:16.464403923
2025-11-07 11:55:11.119268,-7,2025-11-07 11:55:16.472096231
2025-11-07 11:55:11.119268,-1537,2025-11-07 11:55:16.479788538
2025-11-07 11:55:11.119268,-1,2025-11-07 11:55:16.487480846
2025-11-07 11:55:11.119268,-14,2025-11-07 11:55:16.495173154
2025-11-07 11:55:11.119268,-4609,2025-11-07 11:55:16.502865462
2025-11-07 11:55:11.119268,-1,2025-11-07 11:55:16.510557769
2025-11-07 11:55:11.119268,-16,2025-11-07 11:55:16.518250077
2025-11-07 11:55:11.119268,-3329,2025-11-07 11:55:16.525942385
2025-11-07 11:55:11.119268,-1,2025-11-07 11:55:16.533634692
2025-11-07 11:55:11.119268,-14,2025-11-07 11:55:16.541327000
2025-11-07 11:55:11.119268,-3329,2025-11-07 11:55:16.549019308
2025-11-07 11:55:11.119268,-1,2025-11-07 11:55:16.556711615
2025-11-07 11:55:11.119268,-9,2025-11-07 11:55:16.564403923
2025-11-07 11:55:11.119268,-2049,2025-11-07 11:55:16.572096231
2025-11-07 11:55:11.119268,-1,2025-11-07 11:55:16.579788538
2025-11-07 11:55:11.119268,-9,2025-11-07 11:55:16.587480846
2025-11-07 11:55:11.119268,-1537,2025-11-07 11:55:16.595173154
2025-11-07 11:55:11.119268,-1,2025-11-07 11:55:16.602865462
2025-11-07 11:55:11.119268,-14,2025-11-07 11:55:16.610557769
2025-11-07 11:55:11.119268,-3329,2025-11-07 11:55:16.618250077
2025-11-07 11:55:11.119268,-1,2025-11-07 11:55:16.625942385
2025-11-07 11:55:11.119268,-9,2025-11-07 11:55:16.633634692
2025-11-07 11:55:11.119268,-769,2025-11-07 11:55:16.641327000
2025-11-07 11:55:11.119268,-1,2025-11-07 11:55:16.649019308
2025-11-07 11:55:11.119268,-2,2025-11-07 11:55:16.656711615
2025-11-07 11:55:11.119268,-2049,2025-11-07 11:55:16.664403923
2025-11-07 11:55:11.119268,-1,2025-11-07 11:55:16.672096231
2025-11-07 11:55:11.119268,-12,2025-11-07 11:55:16.679788538
2025-11-07 11:55:11.119268,-1537,2025-11-07 11:55:16.687480846
2025-11-07 11:55:11.119268,-1,2025-11-07 11:55:16.695173154
2025-11-07 11:55:11.119268,-7,2025-11-07 11:55:16.702865462
2025-11-07 11:55:11.119268,-2049,2025-11-07 11:55:16.710557769
2025-11-07 11:55:11.119268,-1,2025-11-07 11:55:16.718250077
2025-11-07 11:55:11.119268,-21,2025-11-07 11:55:16.725942385
2025-11-07 11:55:11.749234,-24,2025-11-07 11:55:16.733634692
2025-11-07 11:55:11.749234,-3841,2025-11-07 11:55:16.741327000
2025-11-07 11:55:11.749234,-1,2025-11-07 11:55:16.749019308
