timestamp,ecg,reconstructed_time
2025-11-07 22:31:49.783154,190,2025-11-07 22:31:49.783154000
2025-11-07 22:31:49.783154,-19200,2025-11-07 22:31:49.790846308
2025-11-07 22:31:49.783154,1,2025-11-07 22:31:49.798538615
2025-11-07 22:31:49.783154,1677,2025-11-07 22:31:49.806230923
2025-11-07 22:31:49.783154,-24064,2025-11-07 22:31:49.813923231
2025-11-07 22:31:49.783154,12,2025-11-07 22:31:49.821615538
2025-11-07 22:31:49.783154,3476,2025-11-07 22:31:49.829307846
2025-11-07 22:31:49.783154,1280,2025-11-07 22:31:49.837000154
2025-11-07 22:31:49.783154,12,2025-11-07 22:31:49.844692462
2025-11-07 22:31:49.783154,3143,2025-11-07 22:31:49.852384769
2025-11-07 22:31:49.783154,7424,2025-11-07 22:31:49.860077077
2025-11-07 22:31:49.783154,12,2025-11-07 22:31:49.867769385
2025-11-07 22:31:49.783154,2780,2025-11-07 22:31:49.875461692
2025-11-07 22:31:49.783154,8704,2025-11-07 22:31:49.883154000
2025-11-07 22:31:49.783154,10,2025-11-07 22:31:49.890846308
2025-11-07 22:31:49.783154,2440,2025-11-07 22:31:49.898538615
2025-11-07 22:31:49.783154,-31488,2025-11-07 22:31:49.906230923
2025-11-07 22:31:49.783154,8,2025-11-07 22:31:49.913923231
2025-11-07 22:31:49.783154,1958,2025-11-07 22:31:49.921615538
2025-11-07 22:31:49.783154,-5120,2025-11-07 22:31:49.929307846
2025-11-07 22:31:49.783154,6,2025-11-07 22:31:49.937000154
2025-11-07 22:31:49.783154,1563,2025-11-07 22:31:49.944692462
2025-11-07 22:31:49.783154,23808,2025-11-07 22:31:49.952384769
2025-11-07 22:31:49.783154,5,2025-11-07 22:31:49.960077077
2025-11-07 22:31:49.783154,1209,2025-11-07 22:31:49.967769385
2025-11-07 22:31:49.783154,6656,2025-11-07 22:31:49.975461692
2025-11-07 22:31:49.783154,4,2025-11-07 22:31:49.983154000
2025-11-07 22:31:49.783154,907,2025-11-07 22:31:49.990846308
2025-11-07 22:31:49.783154,3328,2025-11-07 22:31:49.998538615
2025-11-07 22:31:49.783154,3,2025-11-07 22:31:50.006230923
2025-11-07 22:31:49.783154,651,2025-11-07 22:31:50.013923231
2025-11-07 22:31:49.783154,3328,2025-11-07 22:31:50.021615538
2025-11-07 22:31:49.783154,2,2025-11-07 22:31:50.029307846
2025-11-07 22:31:49.783154,411,2025-11-07 22:31:50.037000154
2025-11-07 22:31:49.783154,9216,2025-11-07 22:31:50.044692462
2025-11-07 22:31:49.783154,1,2025-11-07 22:31:50.052384769
2025-11-07 22:31:49.783154,178,2025-11-07 22:31:50.060077077
2025-11-07 22:31:49.783154,18688,2025-11-07 22:31:50.067769385
2025-11-07 22:31:49.783154,0,2025-11-07 22:31:50.075461692
2025-11-07 22:31:49.783154,-33,2025-11-07 22:31:50.083154000
2025-11-07 22:31:49.783154,29439,2025-11-07 22:31:50.090846308
2025-11-07 22:31:49.783154,-1,2025-11-07 22:31:50.098538615
2025-11-07 22:31:49.783154,-237,2025-11-07 22:31:50.106230923
2025-11-07 22:31:49.783154,-16897,2025-11-07 22:31:50.113923231
2025-11-07 22:31:49.783154,-2,2025-11-07 22:31:50.121615538
2025-11-07 22:31:49.783154,-420,2025-11-07 22:31:50.129307846
2025-11-07 22:31:49.783154,-513,2025-11-07 22:31:50.137000154
2025-11-07 22:31:49.783154,-3,2025-11-07 22:31:50.144692462
2025-11-07 22:31:49.783154,-601,2025-11-07 22:31:50.152384769
2025-11-07 22:31:49.783154,23551,2025-11-07 22:31:50.160077077
2025-11-07 22:31:49.783154,-3,2025-11-07 22:31:50.167769385
2025-11-07 22:31:49.783154,-746,2025-11-07 22:31:50.175461692
2025-11-07 22:31:49.783154,-11009,2025-11-07 22:31:50.183154000
2025-11-07 22:31:49.783154,-4,2025-11-07 22:31:50.190846308
2025-11-07 22:31:49.783154,-879,2025-11-07 22:31:50.198538615
2025-11-07 22:31:49.783154,20991,2025-11-07 22:31:50.206230923
2025-11-07 22:31:49.783154,-4,2025-11-07 22:31:50.213923231
2025-11-07 22:31:49.783154,-1002,2025-11-07 22:31:50.221615538
2025-11-07 22:31:49.783154,-8705,2025-11-07 22:31:50.229307846
2025-11-07 22:31:49.783154,-5,2025-11-07 22:31:50.237000154
2025-11-07 22:31:49.783154,-1112,2025-11-07 22:31:50.244692462
2025-11-07 22:31:49.783154,31743,2025-11-07 22:31:50.252384769
2025-11-07 22:31:49.783154,-5,2025-11-07 22:31:50.260077077
2025-11-07 22:31:49.783154,-1197,2025-11-07 22:31:50.267769385
2025-11-07 22:31:49.783154,11775,2025-11-07 22:31:50.275461692
2025-11-07 22:31:49.783154,-5,2025-11-07 22:31:50.283154000
2025-11-07 22:31:49.783154,-1278,2025-11-07 22:31:50.290846308
2025-11-07 22:31:49.783154,-8961,2025-11-07 22:31:50.298538615
2025-11-07 22:31:49.783154,-6,2025-11-07 22:31:50.306230923
2025-11-07 22:31:49.783154,-1337,2025-11-07 22:31:50.313923230
2025-11-07 22:31:49.783154,-19201,2025-11-07 22:31:50.321615538
2025-11-07 22:31:49.783154,-6,2025-11-07 22:31:50.329307846
2025-11-07 22:31:49.783154,-1383,2025-11-07 22:31:50.337000154
2025-11-07 22:31:49.783154,30975,2025-11-07 22:31:50.344692462
2025-11-07 22:31:49.783154,-6,2025-11-07 22:31:50.352384769
2025-11-07 22:31:49.783154,-1468,2025-11-07 22:31:50.360077077
2025-11-07 22:31:49.783154,4351,2025-11-07 22:31:50.367769385
2025-11-07 22:31:49.783154,-6,2025-11-07 22:31:50.375461692
2025-11-07 22:31:49.783154,-1554,2025-11-07 22:31:50.383154000
2025-11-07 22:31:49.783154,-12033,2025-11-07 22:31:50.390846308
2025-11-07 22:31:49.783154,-7,2025-11-07 22:31:50.398538615
2025-11-07 22:31:49.783154,-1615,2025-11-07 22:31:50.406230923
2025-11-07 22:31:49.783154,-24833,2025-11-07 22:31:50.413923231
2025-11-07 22:31:49.783154,-7,2025-11-07 22:31:50.421615538
2025-11-07 22:31:49.783154,-1632,2025-11-07 22:31:50.429307846
2025-11-07 22:31:49.783154,-26113,2025-11-07 22:31:50.437000154
2025-11-07 22:31:49.783154,-7,2025-11-07 22:31:50.444692462
2025-11-07 22:31:49.783154,-1672,2025-11-07 22:31:50.452384769
2025-11-07 22:31:49.783154,24831,2025-11-07 22:31:50.460077077
2025-11-07 22:31:49.783154,-7,2025-11-07 22:31:50.467769385
2025-11-07 22:31:49.783154,-1701,2025-11-07 22:31:50.475461692
2025-11-07 22:31:49.783154,21247,2025-11-07 22:31:50.483154000
2025-11-07 22:31:49.783154,-7,2025-11-07 22:31:50.490846308
2025-11-07 22:31:49.783154,-1729,2025-11-07 22:31:50.498538615
2025-11-07 22:31:49.783154,13823,2025-11-07 22:31:50.506230923
2025-11-07 22:31:49.783154,-7,2025-11-07 22:31:50.513923231
2025-11-07 22:31:49.783154,-1691,2025-11-07 22:31:50.521615538
2025-11-07 22:31:49.783154,-10241,2025-11-07 22:31:50.529307846
2025-11-07 22:31:49.783154,-7,2025-11-07 22:31:50.537000154
2025-11-07 22:31:49.783154,-1497,2025-11-07 22:31:50.544692462
2025-11-07 22:31:49.783154,31487,2025-11-07 22:31:50.552384769
2025-11-07 22:31:49.783154,-7,2025-11-07 22:31:50.560077077
2025-11-07 22:31:49.783154,-2295,2025-11-07 22:31:50.567769385
2025-11-07 22:31:49.783154,-28161,2025-11-07 22:31:50.575461692
2025-11-07 22:31:49.783154,-12,2025-11-07 22:31:50.583154000
2025-11-07 22:31:49.783154,-2780,2025-11-07 22:31:50.590846308
2025-11-07 22:31:49.783154,14079,2025-11-07 22:31:50.598538615
2025-11-07 22:31:49.783154,-9,2025-11-07 22:31:50.606230923
2025-11-07 22:31:49.783154,-2026,2025-11-07 22:31:50.613923231
2025-11-07 22:31:50.333147,-1865,2025-11-07 22:31:50.621615538
2025-11-07 22:31:50.333147,27903,2025-11-07 22:31:50.629307846
2025-11-07 22:31:50.333147,-7,2025-11-07 22:31:50.637000154
2025-11-07 22:31:50.333147,-1680,2025-11-07 22:31:50.644692462
2025-11-07 22:31:50.333147,21247,2025-11-07 22:31:50.652384769
2025-11-07 22:31:50.333147,-7,2025-11-07 22:31:50.660077077
2025-11-07 22:31:50.333147,-1689,2025-11-07 22:31:50.667769385
2025-11-07 22:31:50.333147,26623,2025-11-07 22:31:50.675461692
2025-11-07 22:31:50.333147,-7,2025-11-07 22:31:50.683154000
2025-11-07 22:31:50.333147,-1706,2025-11-07 22:31:50.690846308
2025-11-07 22:31:50.333147,21759,2025-11-07 22:31:50.698538615
2025-11-07 22:31:50.333147,-7,2025-11-07 22:31:50.706230923
2025-11-07 22:31:50.333147,-1715,2025-11-07 22:31:50.713923231
2025-11-07 22:31:50.333147,18687,2025-11-07 22:31:50.721615538
2025-11-07 22:31:50.333147,-7,2025-11-07 22:31:50.729307846
2025-11-07 22:31:50.333147,-1715,2025-11-07 22:31:50.737000154
2025-11-07 22:31:50.333147,19199,2025-11-07 22:31:50.744692462
2025-11-07 22:31:50.333147,-7,2025-11-07 22:31:50.752384769
2025-11-07 22:31:50.333147,-1729,2025-11-07 22:31:50.760077077
2025-11-07 22:31:50.333147,13311,2025-11-07 22:31:50.767769385
2025-11-07 22:31:50.333147,-7,2025-11-07 22:31:50.775461692
2025-11-07 22:31:50.333147,-1748,2025-11-07 22:31:50.783154000
2025-11-07 22:31:50.333147,13311,2025-11-07 22:31:50.790846308
2025-11-07 22:31:50.333147,-7,2025-11-07 22:31:50.798538615
2025-11-07 22:31:50.333147,-1746,2025-11-07 22:31:50.806230923
2025-11-07 22:31:50.333147,5887,2025-11-07 22:31:50.813923231
2025-11-07 22:31:50.333147,-7,2025-11-07 22:31:50.821615538
2025-11-07 22:31:50.333147,-1786,2025-11-07 22:31:50.829307846
2025-11-07 22:31:50.333147,511,2025-11-07 22:31:50.837000154
2025-11-07 22:31:50.333147,-7,2025-11-07 22:31:50.844692462
2025-11-07 22:31:50.333147,-1791,2025-11-07 22:31:50.852384769
2025-11-07 22:31:50.333147,2303,2025-11-07 22:31:50.860077077
2025-11-07 22:31:50.333147,-7,2025-11-07 22:31:50.867769385
2025-11-07 22:31:50.333147,-1775,2025-11-07 22:31:50.875461692
2025-11-07 22:31:50.333147,7167,2025-11-07 22:31:50.883154000
2025-11-07 22:31:50.333147,-7,2025-11-07 22:31:50.890846308
2025-11-07 22:31:50.333147,-1748,2025-11-07 22:31:50.898538615
2025-11-07 22:31:50.333147,15615,2025-11-07 22:31:50.906230923
2025-11-07 22:31:50.333147,-7,2025-11-07 22:31:50.913923231
2025-11-07 22:31:50.333147,-1713,2025-11-07 22:31:50.921615538
2025-11-07 22:31:50.333147,24831,2025-11-07 22:31:50.929307846
2025-11-07 22:31:50.333147,-7,2025-11-07 22:31:50.937000154
2025-11-07 22:31:50.333147,-1684,2025-11-07 22:31:50.944692462
2025-11-07 22:31:50.333147,28927,2025-11-07 22:31:50.952384769
2025-11-07 22:31:50.333147,-7,2025-11-07 22:31:50.960077077
2025-11-07 22:31:50.333147,-1668,2025-11-07 22:31:50.967769385
2025-11-07 22:31:50.333147,-31745,2025-11-07 22:31:50.975461692
2025-11-07 22:31:50.333147,-7,2025-11-07 22:31:50.983154000
2025-11-07 22:31:50.333147,-1661,2025-11-07 22:31:50.990846308
2025-11-07 22:31:50.333147,-31745,2025-11-07 22:31:50.998538615
2025-11-07 22:31:50.333147,-7,2025-11-07 22:31:51.006230923
2025-11-07 22:31:50.333147,-1661,2025-11-07 22:31:51.013923231
2025-11-07 22:31:50.333147,-30465,2025-11-07 22:31:51.021615538
2025-11-07 22:31:50.333147,-7,2025-11-07 22:31:51.029307846
2025-11-07 22:31:50.333147,-1649,2025-11-07 22:31:51.037000154
2025-11-07 22:31:50.333147,-29697,2025-11-07 22:31:51.044692462
2025-11-07 22:31:50.333147,-7,2025-11-07 22:31:51.052384769
2025-11-07 22:31:50.333147,-1658,2025-11-07 22:31:51.060077077
2025-11-07 22:31:50.333147,-29185,2025-11-07 22:31:51.067769385
2025-11-07 22:31:50.333147,-7,2025-11-07 22:31:51.075461692
2025-11-07 22:31:50.333147,-1651,2025-11-07 22:31:51.083154000
2025-11-07 22:31:50.333147,-28673,2025-11-07 22:31:51.090846308
2025-11-07 22:31:50.333147,-7,2025-11-07 22:31:51.098538615
2025-11-07 22:31:50.333147,-1639,2025-11-07 22:31:51.106230923
2025-11-07 22:31:50.333147,-24833,2025-11-07 22:31:51.113923231
2025-11-07 22:31:50.333147,-7,2025-11-07 22:31:51.121615538
2025-11-07 22:31:50.333147,-1632,2025-11-07 22:31:51.129307846
2025-11-07 22:31:50.333147,-23809,2025-11-07 22:31:51.137000154
2025-11-07 22:31:50.333147,-7,2025-11-07 22:31:51.144692462
2025-11-07 22:31:50.333147,-1627,2025-11-07 22:31:51.152384769
2025-11-07 22:31:50.333147,-20737,2025-11-07 22:31:51.160077077
2025-11-07 22:31:50.333147,-7,2025-11-07 22:31:51.167769385
2025-11-07 22:31:50.333147,-1604,2025-11-07 22:31:51.175461692
2025-11-07 22:31:50.333147,-14593,2025-11-07 22:31:51.183154000
2025-11-07 22:31:50.333147,-7,2025-11-07 22:31:51.190846308
2025-11-07 22:31:50.333147,-1577,2025-11-07 22:31:51.198538615
2025-11-07 22:31:50.333147,-5377,2025-11-07 22:31:51.206230923
2025-11-07 22:31:50.333147,-7,2025-11-07 22:31:51.213923231
2025-11-07 22:31:50.333147,-1542,2025-11-07 22:31:51.221615538
2025-11-07 22:31:50.333147,1279,2025-11-07 22:31:51.229307846
2025-11-07 22:31:50.333147,-6,2025-11-07 22:31:51.237000154
2025-11-07 22:31:50.333147,-1532,2025-11-07 22:31:51.244692462
2025-11-07 22:31:50.333147,-3073,2025-11-07 22:31:51.252384769
2025-11-07 22:31:50.333147,-7,2025-11-07 22:31:51.260077077
2025-11-07 22:31:50.333147,-1561,2025-11-07 22:31:51.267769385
2025-11-07 22:31:50.333147,-5377,2025-11-07 22:31:51.275461692
2025-11-07 22:31:50.333147,-7,2025-11-07 22:31:51.283154000
2025-11-07 22:31:50.333147,-1558,2025-11-07 22:31:51.290846308
2025-11-07 22:31:50.333147,-7937,2025-11-07 22:31:51.298538615
2025-11-07 22:31:50.333147,-7,2025-11-07 22:31:51.306230923
2025-11-07 22:31:50.333147,-1561,2025-11-07 22:31:51.313923230
2025-11-07 22:31:50.333147,1791,2025-11-07 22:31:51.321615538
2025-11-07 22:31:50.333147,-6,2025-11-07 22:31:51.329307846
2025-11-07 22:31:50.333147,-1523,2025-11-07 22:31:51.337000154
2025-11-07 22:31:50.333147,1279,2025-11-07 22:31:51.344692462
2025-11-07 22:31:50.333147,-6,2025-11-07 22:31:51.352384769
2025-11-07 22:31:50.333147,-1520,2025-11-07 22:31:51.360077077
2025-11-07 22:31:50.333147,6143,2025-11-07 22:31:51.367769385
2025-11-07 22:31:50.333147,-6,2025-11-07 22:31:51.375461692
2025-11-07 22:31:50.333147,-1518,2025-11-07 22:31:51.383154000
2025-11-07 22:31:50.333147,8447,2025-11-07 22:31:51.390846308
2025-11-07 22:31:50.333147,-6,2025-11-07 22:31:51.398538615
2025-11-07 22:31:50.333147,-1475,2025-11-07 22:31:51.406230923
2025-11-07 22:31:50.333147,-31489,2025-11-07 22:31:51.413923231
2025-11-07 22:31:50.333147,-6,2025-11-07 22:31:51.421615538
2025-11-07 22:31:50.333147,-1280,2025-11-07 22:31:51.429307846
2025-11-07 22:31:50.333147,17151,2025-11-07 22:31:51.437000154
2025-11-07 22:31:50.333147,-5,2025-11-07 22:31:51.444692462
2025-11-07 22:31:50.333147,-1442,2025-11-07 22:31:51.452384769
2025-11-07 22:31:50.882006,-2131,2025-11-07 22:31:51.460077077
2025-11-07 22:31:50.882006,-32257,2025-11-07 22:31:51.467769385
2025-11-07 22:31:50.882006,-11,2025-11-07 22:31:51.475461692
2025-11-07 22:31:50.882006,-2395,2025-11-07 22:31:51.483154000
2025-11-07 22:31:50.882006,-12289,2025-11-07 22:31:51.490846308
2025-11-07 22:31:50.882006,-8,2025-11-07 22:31:51.498538615
2025-11-07 22:31:50.882006,-1625,2025-11-07 22:31:51.506230923
2025-11-07 22:31:50.882006,22527,2025-11-07 22:31:51.513923231
2025-11-07 22:31:50.882006,-6,2025-11-07 22:31:51.521615538
2025-11-07 22:31:50.882006,-1290,2025-11-07 22:31:51.529307846
2025-11-07 22:31:50.882006,-2305,2025-11-07 22:31:51.537000154
2025-11-07 22:31:50.882006,-6,2025-11-07 22:31:51.544692462
2025-11-07 22:31:50.882006,-1304,2025-11-07 22:31:51.552384769
2025-11-07 22:31:50.882006,767,2025-11-07 22:31:51.560077077
2025-11-07 22:31:50.882006,-5,2025-11-07 22:31:51.567769385
2025-11-07 22:31:50.882006,-1278,2025-11-07 22:31:51.575461692
2025-11-07 22:31:50.882006,-2305,2025-11-07 22:31:51.583154000
2025-11-07 22:31:50.882006,-6,2025-11-07 22:31:51.590846308
2025-11-07 22:31:50.882006,-1292,2025-11-07 22:31:51.598538615
2025-11-07 22:31:50.882006,-1537,2025-11-07 22:31:51.606230923
2025-11-07 22:31:50.882006,-6,2025-11-07 22:31:51.613923231
2025-11-07 22:31:50.882006,-1271,2025-11-07 22:31:51.621615538
2025-11-07 22:31:50.882006,3839,2025-11-07 22:31:51.629307846
2025-11-07 22:31:50.882006,-5,2025-11-07 22:31:51.637000154
2025-11-07 22:31:50.882006,-1273,2025-11-07 22:31:51.644692462
2025-11-07 22:31:50.882006,2047,2025-11-07 22:31:51.652384769
2025-11-07 22:31:50.882006,-5,2025-11-07 22:31:51.660077077
2025-11-07 22:31:50.882006,-1271,2025-11-07 22:31:51.667769385
2025-11-07 22:31:50.882006,2047,2025-11-07 22:31:51.675461692
2025-11-07 22:31:50.882006,-5,2025-11-07 22:31:51.683154000
2025-11-07 22:31:50.882006,-1290,2025-11-07 22:31:51.690846308
2025-11-07 22:31:50.882006,-7169,2025-11-07 22:31:51.698538615
2025-11-07 22:31:50.882006,-6,2025-11-07 22:31:51.706230923
2025-11-07 22:31:50.882006,-1321,2025-11-07 22:31:51.713923231
2025-11-07 22:31:50.882006,-12033,2025-11-07 22:31:51.721615538
2025-11-07 22:31:50.882006,-6,2025-11-07 22:31:51.729307846
2025-11-07 22:31:50.882006,-1340,2025-11-07 22:31:51.737000154
2025-11-07 22:31:50.882006,-15617,2025-11-07 22:31:51.744692462
2025-11-07 22:31:50.882006,-6,2025-11-07 22:31:51.752384769
2025-11-07 22:31:50.882006,-1328,2025-11-07 22:31:51.760077077
2025-11-07 22:31:50.882006,-9473,2025-11-07 22:31:51.767769385
2025-11-07 22:31:50.882006,-6,2025-11-07 22:31:51.775461692
2025-11-07 22:31:50.882006,-1304,2025-11-07 22:31:51.783154000
2025-11-07 22:31:50.882006,-513,2025-11-07 22:31:51.790846308
2025-11-07 22:31:50.882006,-6,2025-11-07 22:31:51.798538615
2025-11-07 22:31:50.882006,-1264,2025-11-07 22:31:51.806230923
2025-11-07 22:31:50.882006,7423,2025-11-07 22:31:51.813923231
2025-11-07 22:31:50.882006,-5,2025-11-07 22:31:51.821615538
2025-11-07 22:31:50.882006,-1235,2025-11-07 22:31:51.829307846
2025-11-07 22:31:50.882006,15359,2025-11-07 22:31:51.837000154
2025-11-07 22:31:50.882006,-5,2025-11-07 22:31:51.844692462
2025-11-07 22:31:50.882006,-1214,2025-11-07 22:31:51.852384769
2025-11-07 22:31:50.882006,18943,2025-11-07 22:31:51.860077077
2025-11-07 22:31:50.882006,-5,2025-11-07 22:31:51.867769385
2025-11-07 22:31:50.882006,-1207,2025-11-07 22:31:51.875461692
2025-11-07 22:31:50.882006,17151,2025-11-07 22:31:51.883154000
2025-11-07 22:31:50.882006,-5,2025-11-07 22:31:51.890846308
2025-11-07 22:31:50.882006,-1202,2025-11-07 22:31:51.898538615
2025-11-07 22:31:50.882006,23807,2025-11-07 22:31:51.906230923
2025-11-07 22:31:50.882006,-5,2025-11-07 22:31:51.913923231
2025-11-07 22:31:50.882006,-1195,2025-11-07 22:31:51.921615538
2025-11-07 22:31:50.882006,18431,2025-11-07 22:31:51.929307846
2025-11-07 22:31:50.882006,-5,2025-11-07 22:31:51.937000154
2025-11-07 22:31:50.882006,-1209,2025-11-07 22:31:51.944692462
2025-11-07 22:31:50.882006,20735,2025-11-07 22:31:51.952384769
2025-11-07 22:31:50.882006,-5,2025-11-07 22:31:51.960077077
2025-11-07 22:31:50.882006,-1197,2025-11-07 22:31:51.967769385
2025-11-07 22:31:50.882006,19711,2025-11-07 22:31:51.975461692
2025-11-07 22:31:50.882006,-5,2025-11-07 22:31:51.983154000
2025-11-07 22:31:50.882006,-1211,2025-11-07 22:31:51.990846308
2025-11-07 22:31:50.882006,18431,2025-11-07 22:31:51.998538615
2025-11-07 22:31:50.882006,-5,2025-11-07 22:31:52.006230923
2025-11-07 22:31:50.882006,-1209,2025-11-07 22:31:52.013923231
2025-11-07 22:31:50.882006,18431,2025-11-07 22:31:52.021615538
2025-11-07 22:31:50.882006,-5,2025-11-07 22:31:52.029307846
2025-11-07 22:31:50.882006,-1207,2025-11-07 22:31:52.037000154
2025-11-07 22:31:50.882006,21503,2025-11-07 22:31:52.044692462
2025-11-07 22:31:50.882006,-5,2025-11-07 22:31:52.052384769
2025-11-07 22:31:50.882006,-1190,2025-11-07 22:31:52.060077077
2025-11-07 22:31:50.882006,22783,2025-11-07 22:31:52.067769385
2025-11-07 22:31:50.882006,-5,2025-11-07 22:31:52.075461692
2025-11-07 22:31:50.882006,-1192,2025-11-07 22:31:52.083154000
2025-11-07 22:31:50.882006,25087,2025-11-07 22:31:52.090846308
2025-11-07 22:31:50.882006,-5,2025-11-07 22:31:52.098538615
2025-11-07 22:31:50.882006,-1178,2025-11-07 22:31:52.106230923
2025-11-07 22:31:50.882006,26879,2025-11-07 22:31:52.113923231
2025-11-07 22:31:50.882006,-5,2025-11-07 22:31:52.121615538
2025-11-07 22:31:50.882006,-1164,2025-11-07 22:31:52.129307846
2025-11-07 22:31:50.882006,-32001,2025-11-07 22:31:52.137000154
2025-11-07 22:31:50.882006,-5,2025-11-07 22:31:52.144692462
2025-11-07 22:31:50.882006,-1135,2025-11-07 22:31:52.152384769
2025-11-07 22:31:50.882006,-24577,2025-11-07 22:31:52.160077077
2025-11-07 22:31:50.882006,-5,2025-11-07 22:31:52.167769385
2025-11-07 22:31:50.882006,-1126,2025-11-07 22:31:52.175461692
2025-11-07 22:31:50.882006,-32513,2025-11-07 22:31:52.183154000
2025-11-07 22:31:50.882006,-5,2025-11-07 22:31:52.190846308
2025-11-07 22:31:50.882006,-1171,2025-11-07 22:31:52.198538615
2025-11-07 22:31:50.882006,28159,2025-11-07 22:31:52.206230923
2025-11-07 22:31:50.882006,-5,2025-11-07 22:31:52.213923231
2025-11-07 22:31:50.882006,-1176,2025-11-07 22:31:52.221615538
2025-11-07 22:31:50.882006,23807,2025-11-07 22:31:52.229307846
2025-11-07 22:31:50.882006,-5,2025-11-07 22:31:52.237000154
2025-11-07 22:31:50.882006,-1181,2025-11-07 22:31:52.244692462
2025-11-07 22:31:50.882006,-32513,2025-11-07 22:31:52.252384769
2025-11-07 22:31:50.882006,-5,2025-11-07 22:31:52.260077077
2025-11-07 22:31:50.882006,-1152,2025-11-07 22:31:52.267769385
2025-11-07 22:31:50.882006,28159,2025-11-07 22:31:52.275461692
2025-11-07 22:31:50.882006,-5,2025-11-07 22:31:52.283154000
2025-11-07 22:31:50.882006,-1169,2025-11-07 22:31:52.290846308
2025-11-07 22:31:51.433555,-1159,2025-11-07 22:31:52.298538615
2025-11-07 22:31:51.433555,32511,2025-11-07 22:31:52.306230923
2025-11-07 22:31:51.433555,-5,2025-11-07 22:31:52.313923230
2025-11-07 22:31:51.433555,-1145,2025-11-07 22:31:52.321615538
2025-11-07 22:31:51.433555,-24577,2025-11-07 22:31:52.329307846
2025-11-07 22:31:51.433555,-5,2025-11-07 22:31:52.337000154
2025-11-07 22:31:51.433555,-1045,2025-11-07 22:31:52.344692462
2025-11-07 22:31:51.433555,25855,2025-11-07 22:31:52.352384769
2025-11-07 22:31:51.433555,-4,2025-11-07 22:31:52.360077077
2025-11-07 22:31:51.433555,-891,2025-11-07 22:31:52.367769385
2025-11-07 22:31:51.433555,8703,2025-11-07 22:31:52.375461692
2025-11-07 22:31:51.433555,-5,2025-11-07 22:31:52.383154000
2025-11-07 22:31:51.433555,-2091,2025-11-07 22:31:52.390846308
2025-11-07 22:31:51.433555,-4865,2025-11-07 22:31:52.398538615
2025-11-07 22:31:51.433555,-11,2025-11-07 22:31:52.406230923
2025-11-07 22:31:51.433555,-2091,2025-11-07 22:31:52.413923231
2025-11-07 22:31:51.433555,24831,2025-11-07 22:31:52.421615538
2025-11-07 22:31:51.433555,-6,2025-11-07 22:31:52.429307846
2025-11-07 22:31:51.433555,-1195,2025-11-07 22:31:52.437000154
2025-11-07 22:31:51.433555,-7681,2025-11-07 22:31:52.444692462
2025-11-07 22:31:51.433555,-5,2025-11-07 22:31:52.452384769
2025-11-07 22:31:51.433555,-950,2025-11-07 22:31:52.460077077
2025-11-07 22:31:51.433555,17407,2025-11-07 22:31:52.467769385
2025-11-07 22:31:51.433555,-4,2025-11-07 22:31:52.475461692
2025-11-07 22:31:51.433555,-957,2025-11-07 22:31:52.483154000
2025-11-07 22:31:51.433555,22783,2025-11-07 22:31:52.490846308
2025-11-07 22:31:51.433555,-4,2025-11-07 22:31:52.498538615
2025-11-07 22:31:51.433555,-948,2025-11-07 22:31:52.506230923
2025-11-07 22:31:51.433555,15615,2025-11-07 22:31:52.513923231
2025-11-07 22:31:51.433555,-4,2025-11-07 22:31:52.521615538
2025-11-07 22:31:51.433555,-964,2025-11-07 22:31:52.529307846
2025-11-07 22:31:51.433555,14335,2025-11-07 22:31:52.537000154
2025-11-07 22:31:51.433555,-4,2025-11-07 22:31:52.544692462
2025-11-07 22:31:51.433555,-979,2025-11-07 22:31:52.552384769
2025-11-07 22:31:51.433555,13823,2025-11-07 22:31:52.560077077
2025-11-07 22:31:51.433555,-4,2025-11-07 22:31:52.567769385
2025-11-07 22:31:51.433555,-960,2025-11-07 22:31:52.575461692
2025-11-07 22:31:51.433555,16639,2025-11-07 22:31:52.583154000
2025-11-07 22:31:51.433555,-4,2025-11-07 22:31:52.590846308
2025-11-07 22:31:51.433555,-964,2025-11-07 22:31:52.598538615
2025-11-07 22:31:51.433555,13055,2025-11-07 22:31:52.606230923
2025-11-07 22:31:51.433555,-4,2025-11-07 22:31:52.613923231
2025-11-07 22:31:51.433555,-990,2025-11-07 22:31:52.621615538
2025-11-07 22:31:51.433555,5887,2025-11-07 22:31:52.629307846
2025-11-07 22:31:51.433555,-4,2025-11-07 22:31:52.637000154
2025-11-07 22:31:51.433555,-1014,2025-11-07 22:31:52.644692462
2025-11-07 22:31:51.433555,1023,2025-11-07 22:31:52.652384769
2025-11-07 22:31:51.433555,-4,2025-11-07 22:31:52.660077077
2025-11-07 22:31:51.433555,-1019,2025-11-07 22:31:52.667769385
2025-11-07 22:31:51.433555,255,2025-11-07 22:31:52.675461692
2025-11-07 22:31:51.433555,-4,2025-11-07 22:31:52.683154000
2025-11-07 22:31:51.433555,-1033,2025-11-07 22:31:52.690846308
2025-11-07 22:31:51.433555,-769,2025-11-07 22:31:52.698538615
2025-11-07 22:31:51.433555,-5,2025-11-07 22:31:52.706230923
2025-11-07 22:31:51.433555,-1009,2025-11-07 22:31:52.713923231
2025-11-07 22:31:51.433555,9471,2025-11-07 22:31:52.721615538
2025-11-07 22:31:51.433555,-4,2025-11-07 22:31:52.729307846
2025-11-07 22:31:51.433555,-979,2025-11-07 22:31:52.737000154
2025-11-07 22:31:51.433555,13823,2025-11-07 22:31:52.744692462
2025-11-07 22:31:51.433555,-4,2025-11-07 22:31:52.752384769
2025-11-07 22:31:51.433555,-962,2025-11-07 22:31:52.760077077
2025-11-07 22:31:51.433555,17407,2025-11-07 22:31:52.767769385
2025-11-07 22:31:51.433555,-4,2025-11-07 22:31:52.775461692
2025-11-07 22:31:51.433555,-957,2025-11-07 22:31:52.783154000
2025-11-07 22:31:51.433555,17919,2025-11-07 22:31:52.790846308
2025-11-07 22:31:51.433555,-4,2025-11-07 22:31:52.798538615
2025-11-07 22:31:51.433555,-950,2025-11-07 22:31:52.806230923
2025-11-07 22:31:51.433555,18687,2025-11-07 22:31:52.813923231
2025-11-07 22:31:51.433555,-4,2025-11-07 22:31:52.821615538
2025-11-07 22:31:51.433555,-955,2025-11-07 22:31:52.829307846
2025-11-07 22:31:51.433555,18687,2025-11-07 22:31:52.837000154
2025-11-07 22:31:51.433555,-4,2025-11-07 22:31:52.844692462
2025-11-07 22:31:51.433555,-950,2025-11-07 22:31:52.852384769
2025-11-07 22:31:51.433555,18687,2025-11-07 22:31:52.860077077
2025-11-07 22:31:51.433555,-4,2025-11-07 22:31:52.867769385
2025-11-07 22:31:51.433555,-960,2025-11-07 22:31:52.875461692
2025-11-07 22:31:51.433555,17407,2025-11-07 22:31:52.883154000
2025-11-07 22:31:51.433555,-4,2025-11-07 22:31:52.890846308
2025-11-07 22:31:51.433555,-950,2025-11-07 22:31:52.898538615
2025-11-07 22:31:51.433555,18687,2025-11-07 22:31:52.906230923
2025-11-07 22:31:51.433555,-4,2025-11-07 22:31:52.913923231
2025-11-07 22:31:51.433555,-955,2025-11-07 22:31:52.921615538
2025-11-07 22:31:51.433555,18687,2025-11-07 22:31:52.929307846
2025-11-07 22:31:51.433555,-4,2025-11-07 22:31:52.937000154
2025-11-07 22:31:51.433555,-948,2025-11-07 22:31:52.944692462
2025-11-07 22:31:51.433555,21503,2025-11-07 22:31:52.952384769
2025-11-07 22:31:51.433555,-4,2025-11-07 22:31:52.960077077
2025-11-07 22:31:51.433555,-938,2025-11-07 22:31:52.967769385
2025-11-07 22:31:51.433555,22271,2025-11-07 22:31:52.975461692
2025-11-07 22:31:51.433555,-4,2025-11-07 22:31:52.983154000
2025-11-07 22:31:51.433555,-929,2025-11-07 22:31:52.990846308
2025-11-07 22:31:51.433555,27647,2025-11-07 22:31:52.998538615
2025-11-07 22:31:51.433555,-4,2025-11-07 22:31:53.006230923
2025-11-07 22:31:51.433555,-902,2025-11-07 22:31:53.013923231
2025-11-07 22:31:51.433555,-29185,2025-11-07 22:31:53.021615538
2025-11-07 22:31:51.433555,-4,2025-11-07 22:31:53.029307846
2025-11-07 22:31:51.433555,-860,2025-11-07 22:31:53.037000154
2025-11-07 22:31:51.433555,-22017,2025-11-07 22:31:53.044692462
2025-11-07 22:31:51.433555,-4,2025-11-07 22:31:53.052384769
2025-11-07 22:31:51.433555,-867,2025-11-07 22:31:53.060077077
2025-11-07 22:31:51.433555,-29953,2025-11-07 22:31:53.067769385
2025-11-07 22:31:51.433555,-4,2025-11-07 22:31:53.075461692
2025-11-07 22:31:51.433555,-905,2025-11-07 22:31:53.083154000
2025-11-07 22:31:51.433555,28415,2025-11-07 22:31:53.090846308
2025-11-07 22:31:51.433555,-4,2025-11-07 22:31:53.098538615
2025-11-07 22:31:51.433555,-914,2025-11-07 22:31:53.106230923
2025-11-07 22:31:51.433555,31487,2025-11-07 22:31:53.113923231
2025-11-07 22:31:51.433555,-4,2025-11-07 22:31:53.121615538
2025-11-07 22:31:51.433555,-879,2025-11-07 22:31:53.129307846
2025-11-07 22:31:51.982675,-867,2025-11-07 22:31:53.137000154
2025-11-07 22:31:51.982675,-28161,2025-11-07 22:31:53.144692462
2025-11-07 22:31:51.982675,-4,2025-11-07 22:31:53.152384769
2025-11-07 22:31:51.982675,-881,2025-11-07 22:31:53.160077077
2025-11-07 22:31:51.982675,-23297,2025-11-07 22:31:53.167769385
2025-11-07 22:31:51.982675,-4,2025-11-07 22:31:53.175461692
2025-11-07 22:31:51.982675,-850,2025-11-07 22:31:53.183154000
2025-11-07 22:31:51.982675,-21505,2025-11-07 22:31:53.190846308
2025-11-07 22:31:51.982675,-4,2025-11-07 22:31:53.198538615
2025-11-07 22:31:51.982675,-838,2025-11-07 22:31:53.206230923
2025-11-07 22:31:51.982675,-3073,2025-11-07 22:31:53.213923231
2025-11-07 22:31:51.982675,-4,2025-11-07 22:31:53.221615538
2025-11-07 22:31:51.982675,-667,2025-11-07 22:31:53.229307846
2025-11-07 22:31:51.982675,-16385,2025-11-07 22:31:53.237000154
2025-11-07 22:31:51.982675,-3,2025-11-07 22:31:53.244692462
2025-11-07 22:31:51.982675,-712,2025-11-07 22:31:53.252384769
2025-11-07 22:31:51.982675,-22273,2025-11-07 22:31:53.260077077
2025-11-07 22:31:51.982675,-6,2025-11-07 22:31:53.267769385
2025-11-07 22:31:51.982675,-2148,2025-11-07 22:31:53.275461692
2025-11-07 22:31:51.982675,-257,2025-11-07 22:31:53.283154000
2025-11-07 22:31:51.982675,-9,2025-11-07 22:31:53.290846308
2025-11-07 22:31:51.982675,-1309,2025-11-07 22:31:53.298538615
2025-11-07 22:31:51.982675,-32257,2025-11-07 22:31:53.306230923
2025-11-07 22:31:51.982675,-4,2025-11-07 22:31:53.313923230
2025-11-07 22:31:51.982675,-760,2025-11-07 22:31:53.321615538
2025-11-07 22:31:51.982675,-27905,2025-11-07 22:31:53.329307846
2025-11-07 22:31:51.982675,-3,2025-11-07 22:31:53.337000154
2025-11-07 22:31:51.982675,-584,2025-11-07 22:31:53.344692462
2025-11-07 22:31:51.982675,-25601,2025-11-07 22:31:53.352384769
2025-11-07 22:31:51.982675,-3,2025-11-07 22:31:53.360077077
2025-11-07 22:31:51.982675,-603,2025-11-07 22:31:53.367769385
2025-11-07 22:31:51.982675,-20737,2025-11-07 22:31:53.375461692
2025-11-07 22:31:51.982675,-3,2025-11-07 22:31:53.383154000
2025-11-07 22:31:51.982675,-603,2025-11-07 22:31:53.390846308
2025-11-07 22:31:51.982675,-22529,2025-11-07 22:31:53.398538615
2025-11-07 22:31:51.982675,-3,2025-11-07 22:31:53.406230923
2025-11-07 22:31:51.982675,-594,2025-11-07 22:31:53.413923231
2025-11-07 22:31:51.982675,-21249,2025-11-07 22:31:53.421615538
2025-11-07 22:31:51.982675,-3,2025-11-07 22:31:53.429307846
2025-11-07 22:31:51.982675,-596,2025-11-07 22:31:53.437000154
2025-11-07 22:31:51.982675,-20737,2025-11-07 22:31:53.444692462
2025-11-07 22:31:51.982675,-3,2025-11-07 22:31:53.452384769
2025-11-07 22:31:51.982675,-594,2025-11-07 22:31:53.460077077
2025-11-07 22:31:51.982675,-19969,2025-11-07 22:31:53.467769385
2025-11-07 22:31:51.982675,-3,2025-11-07 22:31:53.475461692
2025-11-07 22:31:51.982675,-586,2025-11-07 22:31:53.483154000
2025-11-07 22:31:51.982675,-21249,2025-11-07 22:31:53.490846308
2025-11-07 22:31:51.982675,-3,2025-11-07 22:31:53.498538615
2025-11-07 22:31:51.982675,-613,2025-11-07 22:31:53.506230923
2025-11-07 22:31:51.982675,-29697,2025-11-07 22:31:53.513923231
2025-11-07 22:31:51.982675,-3,2025-11-07 22:31:53.521615538
2025-11-07 22:31:51.982675,-643,2025-11-07 22:31:53.529307846
2025-11-07 22:31:51.982675,31487,2025-11-07 22:31:53.537000154
2025-11-07 22:31:51.982675,-3,2025-11-07 22:31:53.544692462
2025-11-07 22:31:51.982675,-639,2025-11-07 22:31:53.552384769
2025-11-07 22:31:51.982675,-30977,2025-11-07 22:31:53.560077077
2025-11-07 22:31:51.982675,-3,2025-11-07 22:31:53.567769385
2025-11-07 22:31:51.982675,-634,2025-11-07 22:31:53.575461692
2025-11-07 22:31:51.982675,-29185,2025-11-07 22:31:53.583154000
2025-11-07 22:31:51.982675,-3,2025-11-07 22:31:53.590846308
2025-11-07 22:31:51.982675,-608,2025-11-07 22:31:53.598538615
2025-11-07 22:31:51.982675,-19457,2025-11-07 22:31:53.606230923
2025-11-07 22:31:51.982675,-3,2025-11-07 22:31:53.613923231
2025-11-07 22:31:51.982675,-579,2025-11-07 22:31:53.621615538
2025-11-07 22:31:51.982675,-12801,2025-11-07 22:31:53.629307846
2025-11-07 22:31:51.982675,-3,2025-11-07 22:31:53.637000154
2025-11-07 22:31:51.982675,-548,2025-11-07 22:31:53.644692462
2025-11-07 22:31:51.982675,-8961,2025-11-07 22:31:53.652384769
2025-11-07 22:31:51.982675,-3,2025-11-07 22:31:53.660077077
2025-11-07 22:31:51.982675,-548,2025-11-07 22:31:53.667769385
2025-11-07 22:31:51.982675,-7169,2025-11-07 22:31:53.675461692
2025-11-07 22:31:51.982675,-3,2025-11-07 22:31:53.683154000
2025-11-07 22:31:51.982675,-539,2025-11-07 22:31:53.690846308
2025-11-07 22:31:51.982675,-6657,2025-11-07 22:31:53.698538615
2025-11-07 22:31:51.982675,-3,2025-11-07 22:31:53.706230923
2025-11-07 22:31:51.982675,-539,2025-11-07 22:31:53.713923231
2025-11-07 22:31:51.982675,-8449,2025-11-07 22:31:53.721615538
2025-11-07 22:31:51.982675,-3,2025-11-07 22:31:53.729307846
2025-11-07 22:31:51.982675,-551,2025-11-07 22:31:53.737000154
2025-11-07 22:31:51.982675,-7937,2025-11-07 22:31:53.744692462
2025-11-07 22:31:51.982675,-3,2025-11-07 22:31:53.752384769
2025-11-07 22:31:51.982675,-539,2025-11-07 22:31:53.760077077
2025-11-07 22:31:51.982675,-7937,2025-11-07 22:31:53.767769385
2025-11-07 22:31:51.982675,-3,2025-11-07 22:31:53.775461692
2025-11-07 22:31:51.982675,-541,2025-11-07 22:31:53.783154000
2025-11-07 22:31:51.982675,-4865,2025-11-07 22:31:53.790846308
2025-11-07 22:31:51.982675,-3,2025-11-07 22:31:53.798538615
2025-11-07 22:31:51.982675,-529,2025-11-07 22:31:53.806230923
2025-11-07 22:31:51.982675,-5377,2025-11-07 22:31:53.813923231
2025-11-07 22:31:51.982675,-3,2025-11-07 22:31:53.821615538
2025-11-07 22:31:51.982675,-532,2025-11-07 22:31:53.829307846
2025-11-07 22:31:51.982675,-4865,2025-11-07 22:31:53.837000154
2025-11-07 22:31:51.982675,-3,2025-11-07 22:31:53.844692462
2025-11-07 22:31:51.982675,-532,2025-11-07 22:31:53.852384769
2025-11-07 22:31:51.982675,-3073,2025-11-07 22:31:53.860077077
2025-11-07 22:31:51.982675,-3,2025-11-07 22:31:53.867769385
2025-11-07 22:31:51.982675,-520,2025-11-07 22:31:53.875461692
2025-11-07 22:31:51.982675,-1281,2025-11-07 22:31:53.883154000
2025-11-07 22:31:51.982675,-3,2025-11-07 22:31:53.890846308
2025-11-07 22:31:51.982675,-513,2025-11-07 22:31:53.898538615
2025-11-07 22:31:51.982675,4351,2025-11-07 22:31:53.906230923
2025-11-07 22:31:51.982675,-2,2025-11-07 22:31:53.913923231
2025-11-07 22:31:51.982675,-468,2025-11-07 22:31:53.921615538
2025-11-07 22:31:51.982675,16383,2025-11-07 22:31:53.929307846
2025-11-07 22:31:51.982675,-2,2025-11-07 22:31:53.937000154
2025-11-07 22:31:51.982675,-453,2025-11-07 22:31:53.944692462
2025-11-07 22:31:51.982675,8447,2025-11-07 22:31:53.952384769
2025-11-07 22:31:51.982675,-2,2025-11-07 22:31:53.960077077
2025-11-07 22:31:51.982675,-499,2025-11-07 22:31:53.967769385
2025-11-07 22:31:52.532526,-501,2025-11-07 22:31:53.975461692
2025-11-07 22:31:52.532526,3071,2025-11-07 22:31:53.983154000
2025-11-07 22:31:52.532526,-2,2025-11-07 22:31:53.990846308
2025-11-07 22:31:52.532526,-510,2025-11-07 22:31:53.998538615
2025-11-07 22:31:52.532526,1791,2025-11-07 22:31:54.006230923
2025-11-07 22:31:52.532526,-2,2025-11-07 22:31:54.013923231
2025-11-07 22:31:52.532526,-480,2025-11-07 22:31:54.021615538
2025-11-07 22:31:52.532526,12287,2025-11-07 22:31:54.029307846
2025-11-07 22:31:52.532526,-2,2025-11-07 22:31:54.037000154
2025-11-07 22:31:52.532526,-475,2025-11-07 22:31:54.044692462
2025-11-07 22:31:52.532526,9215,2025-11-07 22:31:54.052384769
2025-11-07 22:31:52.532526,-2,2025-11-07 22:31:54.060077077
2025-11-07 22:31:52.532526,-468,2025-11-07 22:31:54.067769385
2025-11-07 22:31:52.532526,14591,2025-11-07 22:31:54.075461692
2025-11-07 22:31:52.532526,-2,2025-11-07 22:31:54.083154000
2025-11-07 22:31:52.532526,-441,2025-11-07 22:31:54.090846308
2025-11-07 22:31:52.532526,25599,2025-11-07 22:31:54.098538615
2025-11-07 22:31:52.532526,-2,2025-11-07 22:31:54.106230923
2025-11-07 22:31:52.532526,-325,2025-11-07 22:31:54.113923231
2025-11-07 22:31:52.532526,11775,2025-11-07 22:31:54.121615538
2025-11-07 22:31:52.532526,-1,2025-11-07 22:31:54.129307846
2025-11-07 22:31:52.532526,-223,2025-11-07 22:31:54.137000154
2025-11-07 22:31:52.532526,31487,2025-11-07 22:31:54.144692462
2025-11-07 22:31:52.532526,-3,2025-11-07 22:31:54.152384769
2025-11-07 22:31:52.532526,-1461,2025-11-07 22:31:54.160077077
2025-11-07 22:31:52.532526,2815,2025-11-07 22:31:54.167769385
2025-11-07 22:31:52.532526,-7,2025-11-07 22:31:54.175461692
2025-11-07 22:31:52.532526,-1209,2025-11-07 22:31:54.183154000
2025-11-07 22:31:52.532526,32255,2025-11-07 22:31:54.190846308
2025-11-07 22:31:52.532526,-3,2025-11-07 22:31:54.198538615
2025-11-07 22:31:52.532526,-465,2025-11-07 22:31:54.206230923
2025-11-07 22:31:52.532526,-19201,2025-11-07 22:31:54.213923231
2025-11-07 22:31:52.532526,-2,2025-11-07 22:31:54.221615538
2025-11-07 22:31:52.532526,-242,2025-11-07 22:31:54.229307846
2025-11-07 22:31:52.532526,-513,2025-11-07 22:31:54.237000154
2025-11-07 22:31:52.532526,-2,2025-11-07 22:31:54.244692462
2025-11-07 22:31:52.532526,-270,2025-11-07 22:31:54.252384769
2025-11-07 22:31:52.532526,255,2025-11-07 22:31:54.260077077
2025-11-07 22:31:52.532526,-1,2025-11-07 22:31:54.267769385
2025-11-07 22:31:52.532526,-263,2025-11-07 22:31:54.275461692
2025-11-07 22:31:52.532526,-4609,2025-11-07 22:31:54.283154000
2025-11-07 22:31:52.532526,-2,2025-11-07 22:31:54.290846308
2025-11-07 22:31:52.532526,-275,2025-11-07 22:31:54.298538615
2025-11-07 22:31:52.532526,-6401,2025-11-07 22:31:54.306230923
2025-11-07 22:31:52.532526,-2,2025-11-07 22:31:54.313923230
2025-11-07 22:31:52.532526,-282,2025-11-07 22:31:54.321615538
2025-11-07 22:31:52.532526,-5377,2025-11-07 22:31:54.329307846
2025-11-07 22:31:52.532526,-2,2025-11-07 22:31:54.337000154
2025-11-07 22:31:52.532526,-280,2025-11-07 22:31:54.344692462
2025-11-07 22:31:52.532526,-7681,2025-11-07 22:31:54.352384769
2025-11-07 22:31:52.532526,-2,2025-11-07 22:31:54.360077077
2025-11-07 22:31:52.532526,-294,2025-11-07 22:31:54.367769385
2025-11-07 22:31:52.532526,-12033,2025-11-07 22:31:54.375461692
2025-11-07 22:31:52.532526,-2,2025-11-07 22:31:54.383154000
2025-11-07 22:31:52.532526,-320,2025-11-07 22:31:54.390846308
2025-11-07 22:31:52.532526,-19201,2025-11-07 22:31:54.398538615
2025-11-07 22:31:52.532526,-2,2025-11-07 22:31:54.406230923
2025-11-07 22:31:52.532526,-342,2025-11-07 22:31:54.413923231
2025-11-07 22:31:52.532526,-25345,2025-11-07 22:31:54.421615538
2025-11-07 22:31:52.532526,-2,2025-11-07 22:31:54.429307846
2025-11-07 22:31:52.532526,-365,2025-11-07 22:31:54.437000154
2025-11-07 22:31:52.532526,-28417,2025-11-07 22:31:54.444692462
2025-11-07 22:31:52.532526,-2,2025-11-07 22:31:54.452384769
2025-11-07 22:31:52.532526,-365,2025-11-07 22:31:54.460077077
2025-11-07 22:31:52.532526,-25857,2025-11-07 22:31:54.467769385
2025-11-07 22:31:52.532526,-2,2025-11-07 22:31:54.475461692
2025-11-07 22:31:52.532526,-342,2025-11-07 22:31:54.483154000
2025-11-07 22:31:52.532526,-17409,2025-11-07 22:31:54.490846308
2025-11-07 22:31:52.532526,-2,2025-11-07 22:31:54.498538615
2025-11-07 22:31:52.532526,-313,2025-11-07 22:31:54.506230923
2025-11-07 22:31:52.532526,-11265,2025-11-07 22:31:54.513923231
2025-11-07 22:31:52.532526,-2,2025-11-07 22:31:54.521615538
2025-11-07 22:31:52.532526,-294,2025-11-07 22:31:54.529307846
2025-11-07 22:31:52.532526,-7681,2025-11-07 22:31:54.537000154
2025-11-07 22:31:52.532526,-2,2025-11-07 22:31:54.544692462
2025-11-07 22:31:52.532526,-280,2025-11-07 22:31:54.552384769
2025-11-07 22:31:52.532526,-5889,2025-11-07 22:31:54.560077077
2025-11-07 22:31:52.532526,-2,2025-11-07 22:31:54.567769385
2025-11-07 22:31:52.532526,-287,2025-11-07 22:31:54.575461692
2025-11-07 22:31:52.532526,-7681,2025-11-07 22:31:54.583154000
2025-11-07 22:31:52.532526,-2,2025-11-07 22:31:54.590846308
2025-11-07 22:31:52.532526,-289,2025-11-07 22:31:54.598538615
2025-11-07 22:31:52.532526,-10241,2025-11-07 22:31:54.606230923
2025-11-07 22:31:52.532526,-2,2025-11-07 22:31:54.613923231
2025-11-07 22:31:52.532526,-297,2025-11-07 22:31:54.621615538
2025-11-07 22:31:52.532526,-10753,2025-11-07 22:31:54.629307846
2025-11-07 22:31:52.532526,-2,2025-11-07 22:31:54.637000154
2025-11-07 22:31:52.532526,-306,2025-11-07 22:31:54.644692462
2025-11-07 22:31:52.532526,-12033,2025-11-07 22:31:54.652384769
2025-11-07 22:31:52.532526,-2,2025-11-07 22:31:54.660077077
2025-11-07 22:31:52.532526,-297,2025-11-07 22:31:54.667769385
2025-11-07 22:31:52.532526,-10753,2025-11-07 22:31:54.675461692
2025-11-07 22:31:52.532526,-2,2025-11-07 22:31:54.683154000
2025-11-07 22:31:52.532526,-308,2025-11-07 22:31:54.690846308
2025-11-07 22:31:52.532526,-13057,2025-11-07 22:31:54.698538615
2025-11-07 22:31:52.532526,-2,2025-11-07 22:31:54.706230923
2025-11-07 22:31:52.532526,-299,2025-11-07 22:31:54.713923231
2025-11-07 22:31:52.532526,-10753,2025-11-07 22:31:54.721615538
2025-11-07 22:31:52.532526,-2,2025-11-07 22:31:54.729307846
2025-11-07 22:31:52.532526,-308,2025-11-07 22:31:54.737000154
2025-11-07 22:31:52.532526,-10753,2025-11-07 22:31:54.744692462
2025-11-07 22:31:52.532526,-2,2025-11-07 22:31:54.752384769
2025-11-07 22:31:52.532526,-280,2025-11-07 22:31:54.760077077
2025-11-07 22:31:52.532526,-4609,2025-11-07 22:31:54.767769385
2025-11-07 22:31:52.532526,-2,2025-11-07 22:31:54.775461692
2025-11-07 22:31:52.532526,-263,2025-11-07 22:31:54.783154000
2025-11-07 22:31:52.532526,2047,2025-11-07 22:31:54.790846308
2025-11-07 22:31:52.532526,-1,2025-11-07 22:31:54.798538615
2025-11-07 22:31:52.532526,-251,2025-11-07 22:31:54.806230923
2025-11-07 22:31:53.132659,-266,2025-11-07 22:31:54.813923231
2025-11-07 22:31:53.132659,-5889,2025-11-07 22:31:54.821615538
2025-11-07 22:31:53.132659,-2,2025-11-07 22:31:54.829307846
2025-11-07 22:31:53.132659,-289,2025-11-07 22:31:54.837000154
2025-11-07 22:31:53.132659,-9473,2025-11-07 22:31:54.844692462
2025-11-07 22:31:53.132659,-2,2025-11-07 22:31:54.852384769
2025-11-07 22:31:53.132659,-301,2025-11-07 22:31:54.860077077
2025-11-07 22:31:53.132659,-11265,2025-11-07 22:31:54.867769385
2025-11-07 22:31:53.132659,-2,2025-11-07 22:31:54.875461692
2025-11-07 22:31:53.132659,-278,2025-11-07 22:31:54.883154000
2025-11-07 22:31:53.132659,-1537,2025-11-07 22:31:54.890846308
2025-11-07 22:31:53.132659,-2,2025-11-07 22:31:54.898538615
2025-11-07 22:31:53.132659,-268,2025-11-07 22:31:54.906230923
2025-11-07 22:31:53.132659,-2305,2025-11-07 22:31:54.913923231
2025-11-07 22:31:53.132659,-2,2025-11-07 22:31:54.921615538
2025-11-07 22:31:53.132659,-256,2025-11-07 22:31:54.929307846
2025-11-07 22:31:53.132659,255,2025-11-07 22:31:54.937000154
2025-11-07 22:31:53.132659,-1,2025-11-07 22:31:54.944692462
2025-11-07 22:31:53.132659,-254,2025-11-07 22:31:54.952384769
2025-11-07 22:31:53.132659,8191,2025-11-07 22:31:54.960077077
2025-11-07 22:31:53.132659,-1,2025-11-07 22:31:54.967769385
2025-11-07 22:31:53.132659,-147,2025-11-07 22:31:54.975461692
2025-11-07 22:31:53.132659,-9985,2025-11-07 22:31:54.983154000
2025-11-07 22:31:53.132659,-1,2025-11-07 22:31:54.990846308
2025-11-07 22:31:53.132659,-35,2025-11-07 22:31:54.998538615
2025-11-07 22:31:53.132659,-29697,2025-11-07 22:31:55.006230923
2025-11-07 22:31:53.132659,-2,2025-11-07 22:31:55.013923231
2025-11-07 22:31:53.132659,-1085,2025-11-07 22:31:55.021615538
2025-11-07 22:31:53.132659,28671,2025-11-07 22:31:55.029307846
2025-11-07 22:31:53.132659,-6,2025-11-07 22:31:55.037000154
2025-11-07 22:31:53.132659,-964,2025-11-07 22:31:55.044692462
2025-11-07 22:31:53.132659,4863,2025-11-07 22:31:55.052384769
2025-11-07 22:31:53.132659,-2,2025-11-07 22:31:55.060077077
2025-11-07 22:31:53.132659,-342,2025-11-07 22:31:55.067769385
2025-11-07 22:31:53.132659,18431,2025-11-07 22:31:55.075461692
2025-11-07 22:31:53.132659,-1,2025-11-07 22:31:55.083154000
2025-11-07 22:31:53.132659,-92,2025-11-07 22:31:55.090846308
2025-11-07 22:31:53.132659,-30721,2025-11-07 22:31:55.098538615
2025-11-07 22:31:53.132659,-1,2025-11-07 22:31:55.106230923
2025-11-07 22:31:53.132659,-116,2025-11-07 22:31:55.113923231
2025-11-07 22:31:53.132659,-22017,2025-11-07 22:31:55.121615538
2025-11-07 22:31:53.132659,-1,2025-11-07 22:31:55.129307846
2025-11-07 22:31:53.132659,-99,2025-11-07 22:31:55.137000154
2025-11-07 22:31:53.132659,-29441,2025-11-07 22:31:55.144692462
2025-11-07 22:31:53.132659,-1,2025-11-07 22:31:55.152384769
2025-11-07 22:31:53.132659,-118,2025-11-07 22:31:55.160077077
2025-11-07 22:31:53.132659,-31745,2025-11-07 22:31:55.167769385
2025-11-07 22:31:53.132659,-1,2025-11-07 22:31:55.175461692
2025-11-07 22:31:53.132659,-130,2025-11-07 22:31:55.183154000
2025-11-07 22:31:53.132659,-31745,2025-11-07 22:31:55.190846308
2025-11-07 22:31:53.132659,-1,2025-11-07 22:31:55.198538615
2025-11-07 22:31:53.132659,-130,2025-11-07 22:31:55.206230923
2025-11-07 22:31:53.132659,28159,2025-11-07 22:31:55.213923231
2025-11-07 22:31:53.132659,-1,2025-11-07 22:31:55.221615538
2025-11-07 22:31:53.132659,-159,2025-11-07 22:31:55.229307846
2025-11-07 22:31:53.132659,22015,2025-11-07 22:31:55.237000154
2025-11-07 22:31:53.132659,-1,2025-11-07 22:31:55.244692462
2025-11-07 22:31:53.132659,-187,2025-11-07 22:31:55.252384769
2025-11-07 22:31:53.132659,13055,2025-11-07 22:31:55.260077077
2025-11-07 22:31:53.132659,-1,2025-11-07 22:31:55.267769385
2025-11-07 22:31:53.132659,-223,2025-11-07 22:31:55.275461692
2025-11-07 22:31:53.132659,4351,2025-11-07 22:31:55.283154000
2025-11-07 22:31:53.132659,-1,2025-11-07 22:31:55.290846308
2025-11-07 22:31:53.132659,-247,2025-11-07 22:31:55.298538615
2025-11-07 22:31:53.132659,3839,2025-11-07 22:31:55.306230923
2025-11-07 22:31:53.132659,-1,2025-11-07 22:31:55.313923230
2025-11-07 22:31:53.132659,-240,2025-11-07 22:31:55.321615538
2025-11-07 22:31:53.132659,6911,2025-11-07 22:31:55.329307846
2025-11-07 22:31:53.132659,-1,2025-11-07 22:31:55.337000154
2025-11-07 22:31:53.132659,-209,2025-11-07 22:31:55.344692462
2025-11-07 22:31:53.132659,17919,2025-11-07 22:31:55.352384769
2025-11-07 22:31:53.132659,-1,2025-11-07 22:31:55.360077077
2025-11-07 22:31:53.132659,-163,2025-11-07 22:31:55.367769385
2025-11-07 22:31:53.132659,28159,2025-11-07 22:31:55.375461692
2025-11-07 22:31:53.132659,-1,2025-11-07 22:31:55.383154000
2025-11-07 22:31:53.132659,-144,2025-11-07 22:31:55.390846308
2025-11-07 22:31:53.132659,31231,2025-11-07 22:31:55.398538615
2025-11-07 22:31:53.132659,-1,2025-11-07 22:31:55.406230923
2025-11-07 22:31:53.132659,-121,2025-11-07 22:31:55.413923231
2025-11-07 22:31:53.132659,-30721,2025-11-07 22:31:55.421615538
2025-11-07 22:31:53.132659,-1,2025-11-07 22:31:55.429307846
2025-11-07 22:31:53.132659,-130,2025-11-07 22:31:55.437000154
2025-11-07 22:31:53.132659,31231,2025-11-07 22:31:55.444692462
2025-11-07 22:31:53.132659,-1,2025-11-07 22:31:55.452384769
2025-11-07 22:31:53.132659,-128,2025-11-07 22:31:55.460077077
2025-11-07 22:31:53.132659,-32513,2025-11-07 22:31:55.467769385
2025-11-07 22:31:53.132659,-1,2025-11-07 22:31:55.475461692
2025-11-07 22:31:53.132659,-140,2025-11-07 22:31:55.483154000
2025-11-07 22:31:53.132659,27647,2025-11-07 22:31:55.490846308
2025-11-07 22:31:53.132659,-1,2025-11-07 22:31:55.498538615
2025-11-07 22:31:53.132659,-144,2025-11-07 22:31:55.506230923
2025-11-07 22:31:53.132659,28927,2025-11-07 22:31:55.513923231
2025-11-07 22:31:53.132659,-1,2025-11-07 22:31:55.521615538
2025-11-07 22:31:53.132659,-147,2025-11-07 22:31:55.529307846
2025-11-07 22:31:53.132659,26879,2025-11-07 22:31:55.537000154
2025-11-07 22:31:53.132659,-1,2025-11-07 22:31:55.544692462
2025-11-07 22:31:53.132659,-159,2025-11-07 22:31:55.552384769
2025-11-07 22:31:53.132659,24063,2025-11-07 22:31:55.560077077
2025-11-07 22:31:53.132659,-1,2025-11-07 22:31:55.567769385
2025-11-07 22:31:53.132659,-159,2025-11-07 22:31:55.575461692
2025-11-07 22:31:53.132659,26879,2025-11-07 22:31:55.583154000
2025-11-07 22:31:53.132659,-1,2025-11-07 22:31:55.590846308
2025-11-07 22:31:53.132659,-149,2025-11-07 22:31:55.598538615
2025-11-07 22:31:53.132659,29951,2025-11-07 22:31:55.606230923
2025-11-07 22:31:53.132659,-1,2025-11-07 22:31:55.613923231
2025-11-07 22:31:53.132659,-118,2025-11-07 22:31:55.621615538
2025-11-07 22:31:53.132659,-28161,2025-11-07 22:31:55.629307846
2025-11-07 22:31:53.132659,-1,2025-11-07 22:31:55.637000154
2025-11-07 22:31:53.132659,-125,2025-11-07 22:31:55.644692462
2025-11-07 22:31:53.783502,-140,2025-11-07 22:31:55.652384769
2025-11-07 22:31:53.783502,25855,2025-11-07 22:31:55.660077077
2025-11-07 22:31:53.783502,-1,2025-11-07 22:31:55.667769385
2025-11-07 22:31:53.783502,-168,2025-11-07 22:31:55.675461692
2025-11-07 22:31:53.783502,21503,2025-11-07 22:31:55.683154000
2025-11-07 22:31:53.783502,-1,2025-11-07 22:31:55.690846308
2025-11-07 22:31:53.783502,-180,2025-11-07 22:31:55.698538615
2025-11-07 22:31:53.783502,23295,2025-11-07 22:31:55.706230923
2025-11-07 22:31:53.783502,-1,2025-11-07 22:31:55.713923231
2025-11-07 22:31:53.783502,-147,2025-11-07 22:31:55.721615538
2025-11-07 22:31:53.783502,24575,2025-11-07 22:31:55.729307846
2025-11-07 22:31:53.783502,-1,2025-11-07 22:31:55.737000154
2025-11-07 22:31:53.783502,-178,2025-11-07 22:31:55.744692462
2025-11-07 22:31:53.783502,22783,2025-11-07 22:31:55.752384769
2025-11-07 22:31:53.783502,-1,2025-11-07 22:31:55.760077077
2025-11-07 22:31:53.783502,-156,2025-11-07 22:31:55.767769385
2025-11-07 22:31:53.783502,25855,2025-11-07 22:31:55.775461692
2025-11-07 22:31:53.783502,-1,2025-11-07 22:31:55.783154000
2025-11-07 22:31:53.783502,-147,2025-11-07 22:31:55.790846308
2025-11-07 22:31:53.783502,-25089,2025-11-07 22:31:55.798538615
2025-11-07 22:31:53.783502,-1,2025-11-07 22:31:55.806230923
2025-11-07 22:31:53.783502,4,2025-11-07 22:31:55.813923231
2025-11-07 22:31:53.783502,23552,2025-11-07 22:31:55.821615538
2025-11-07 22:31:53.783502,0,2025-11-07 22:31:55.829307846
2025-11-07 22:31:53.783502,-19,2025-11-07 22:31:55.837000154
2025-11-07 22:31:53.783502,-1793,2025-11-07 22:31:55.844692462
2025-11-07 22:31:53.783502,-3,2025-11-07 22:31:55.852384769
2025-11-07 22:31:53.783502,-1090,2025-11-07 22:31:55.860077077
2025-11-07 22:31:53.783502,6911,2025-11-07 22:31:55.867769385
2025-11-07 22:31:53.783502,-4,2025-11-07 22:31:55.875461692
2025-11-07 22:31:53.783502,-534,2025-11-07 22:31:55.883154000
2025-11-07 22:31:53.783502,-28417,2025-11-07 22:31:55.890846308
2025-11-07 22:31:53.783502,-2,2025-11-07 22:31:55.898538615
2025-11-07 22:31:53.783502,-228,2025-11-07 22:31:55.906230923
2025-11-07 22:31:53.783502,-5121,2025-11-07 22:31:55.913923231
2025-11-07 22:31:53.783502,-1,2025-11-07 22:31:55.921615538
2025-11-07 22:31:53.783502,-7,2025-11-07 22:31:55.929307846
2025-11-07 22:31:53.783502,-11265,2025-11-07 22:31:55.937000154
2025-11-07 22:31:53.783502,-1,2025-11-07 22:31:55.944692462
2025-11-07 22:31:53.783502,-16,2025-11-07 22:31:55.952384769
2025-11-07 22:31:53.783502,-3329,2025-11-07 22:31:55.960077077
2025-11-07 22:31:53.783502,-1,2025-11-07 22:31:55.967769385
2025-11-07 22:31:53.783502,-42,2025-11-07 22:31:55.975461692
2025-11-07 22:31:53.783502,-11265,2025-11-07 22:31:55.983154000
2025-11-07 22:31:53.783502,-1,2025-11-07 22:31:55.990846308
2025-11-07 22:31:53.783502,-47,2025-11-07 22:31:55.998538615
2025-11-07 22:31:53.783502,-14849,2025-11-07 22:31:56.006230923
2025-11-07 22:31:53.783502,-1,2025-11-07 22:31:56.013923231
2025-11-07 22:31:53.783502,-57,2025-11-07 22:31:56.021615538
2025-11-07 22:31:53.783502,-14849,2025-11-07 22:31:56.029307846
2025-11-07 22:31:53.783502,-1,2025-11-07 22:31:56.037000154
2025-11-07 22:31:53.783502,-76,2025-11-07 22:31:56.044692462
2025-11-07 22:31:53.783502,-22785,2025-11-07 22:31:56.052384769
2025-11-07 22:31:53.783502,-1,2025-11-07 22:31:56.060077077
2025-11-07 22:31:53.783502,-97,2025-11-07 22:31:56.067769385
2025-11-07 22:31:53.783502,-28161,2025-11-07 22:31:56.075461692
2025-11-07 22:31:53.783502,-1,2025-11-07 22:31:56.083154000
2025-11-07 22:31:53.783502,-135,2025-11-07 22:31:56.090846308
2025-11-07 22:31:53.783502,25087,2025-11-07 22:31:56.098538615
2025-11-07 22:31:53.783502,-1,2025-11-07 22:31:56.106230923
2025-11-07 22:31:53.783502,-175,2025-11-07 22:31:56.113923231
2025-11-07 22:31:53.783502,16639,2025-11-07 22:31:56.121615538
2025-11-07 22:31:53.783502,-1,2025-11-07 22:31:56.129307846
2025-11-07 22:31:53.783502,-194,2025-11-07 22:31:56.137000154
2025-11-07 22:31:53.783502,19199,2025-11-07 22:31:56.144692462
2025-11-07 22:31:53.783502,-1,2025-11-07 22:31:56.152384769
2025-11-07 22:31:53.783502,-171,2025-11-07 22:31:56.160077077
2025-11-07 22:31:53.783502,24575,2025-11-07 22:31:56.167769385
2025-11-07 22:31:53.783502,-1,2025-11-07 22:31:56.175461692
2025-11-07 22:31:53.783502,-137,2025-11-07 22:31:56.183154000
2025-11-07 22:31:53.783502,-27649,2025-11-07 22:31:56.190846308
2025-11-07 22:31:53.783502,-1,2025-11-07 22:31:56.198538615
2025-11-07 22:31:53.783502,-92,2025-11-07 22:31:56.206230923
2025-11-07 22:31:53.783502,-20225,2025-11-07 22:31:56.213923231
2025-11-07 22:31:53.783502,-1,2025-11-07 22:31:56.221615538
2025-11-07 22:31:53.783502,-71,2025-11-07 22:31:56.229307846
2025-11-07 22:31:53.783502,-16129,2025-11-07 22:31:56.237000154
2025-11-07 22:31:53.783502,-1,2025-11-07 22:31:56.244692462
2025-11-07 22:31:53.783502,-54,2025-11-07 22:31:56.252384769
2025-11-07 22:31:53.783502,-11777,2025-11-07 22:31:56.260077077
2025-11-07 22:31:53.783502,-1,2025-11-07 22:31:56.267769385
2025-11-07 22:31:53.783502,-59,2025-11-07 22:31:56.275461692
2025-11-07 22:31:53.783502,-16641,2025-11-07 22:31:56.283154000
2025-11-07 22:31:53.783502,-1,2025-11-07 22:31:56.290846308
2025-11-07 22:31:53.783502,-61,2025-11-07 22:31:56.298538615
2025-11-07 22:31:53.783502,-17153,2025-11-07 22:31:56.306230923
2025-11-07 22:31:53.783502,-1,2025-11-07 22:31:56.313923230
2025-11-07 22:31:53.783502,-78,2025-11-07 22:31:56.321615538
2025-11-07 22:31:53.783502,-20993,2025-11-07 22:31:56.329307846
2025-11-07 22:31:53.783502,-1,2025-11-07 22:31:56.337000154
2025-11-07 22:31:53.783502,-90,2025-11-07 22:31:56.344692462
2025-11-07 22:31:53.783502,-25857,2025-11-07 22:31:56.352384769
2025-11-07 22:31:53.783502,-1,2025-11-07 22:31:56.360077077
2025-11-07 22:31:53.783502,-104,2025-11-07 22:31:56.367769385
2025-11-07 22:31:53.783502,-25089,2025-11-07 22:31:56.375461692
2025-11-07 22:31:53.783502,-1,2025-11-07 22:31:56.383154000
2025-11-07 22:31:53.783502,-104,2025-11-07 22:31:56.390846308
2025-11-07 22:31:53.783502,-25857,2025-11-07 22:31:56.398538615
2025-11-07 22:31:53.783502,-1,2025-11-07 22:31:56.406230923
2025-11-07 22:31:53.783502,-87,2025-11-07 22:31:56.413923231
2025-11-07 22:31:53.783502,-17921,2025-11-07 22:31:56.421615538
2025-11-07 22:31:53.783502,-1,2025-11-07 22:31:56.429307846
2025-11-07 22:31:53.783502,-59,2025-11-07 22:31:56.437000154
2025-11-07 22:31:53.783502,-14337,2025-11-07 22:31:56.444692462
2025-11-07 22:31:53.783502,-1,2025-11-07 22:31:56.452384769
2025-11-07 22:31:53.783502,-71,2025-11-07 22:31:56.460077077
2025-11-07 22:31:53.783502,-23297,2025-11-07 22:31:56.467769385
2025-11-07 22:31:53.783502,-1,2025-11-07 22:31:56.475461692
2025-11-07 22:31:53.783502,-111,2025-11-07 22:31:56.483154000
2025-11-07 22:31:54.233557,-128,2025-11-07 22:31:56.490846308
2025-11-07 22:31:54.233557,29951,2025-11-07 22:31:56.498538615
2025-11-07 22:31:54.233557,-1,2025-11-07 22:31:56.506230923
2025-11-07 22:31:54.233557,-137,2025-11-07 22:31:56.513923231
2025-11-07 22:31:54.233557,-28929,2025-11-07 22:31:56.521615538
2025-11-07 22:31:54.233557,-1,2025-11-07 22:31:56.529307846
2025-11-07 22:31:54.233557,-102,2025-11-07 22:31:56.537000154
2025-11-07 22:31:54.233557,-31233,2025-11-07 22:31:56.544692462
2025-11-07 22:31:54.233557,-1,2025-11-07 22:31:56.552384769
2025-11-07 22:31:54.233557,-137,2025-11-07 22:31:56.560077077
2025-11-07 22:31:54.233557,-32513,2025-11-07 22:31:56.567769385
2025-11-07 22:31:54.233557,-1,2025-11-07 22:31:56.575461692
2025-11-07 22:31:54.233557,-121,2025-11-07 22:31:56.583154000
2025-11-07 22:31:54.233557,-30721,2025-11-07 22:31:56.590846308
2025-11-07 22:31:54.233557,-1,2025-11-07 22:31:56.598538615
2025-11-07 22:31:54.233557,-109,2025-11-07 22:31:56.606230923
2025-11-07 22:31:54.233557,-14337,2025-11-07 22:31:56.613923231
2025-11-07 22:31:54.233557,-1,2025-11-07 22:31:56.621615538
2025-11-07 22:31:54.233557,54,2025-11-07 22:31:56.629307846
2025-11-07 22:31:54.233557,31488,2025-11-07 22:31:56.637000154
2025-11-07 22:31:54.233557,0,2025-11-07 22:31:56.644692462
2025-11-07 22:31:54.233557,-66,2025-11-07 22:31:56.652384769
2025-11-07 22:31:54.233557,31487,2025-11-07 22:31:56.660077077
2025-11-07 22:31:54.233557,-3,2025-11-07 22:31:56.667769385
2025-11-07 22:31:54.233557,-1131,2025-11-07 22:31:56.675461692
2025-11-07 22:31:54.233557,32511,2025-11-07 22:31:56.683154000
2025-11-07 22:31:54.233557,-4,2025-11-07 22:31:56.690846308
2025-11-07 22:31:54.233557,-461,2025-11-07 22:31:56.698538615
2025-11-07 22:31:54.233557,-16129,2025-11-07 22:31:56.706230923
2025-11-07 22:31:54.233557,-2,2025-11-07 22:31:56.713923231
2025-11-07 22:31:54.233557,-144,2025-11-07 22:31:56.721615538
2025-11-07 22:31:54.233557,7423,2025-11-07 22:31:56.729307846
2025-11-07 22:31:54.233557,0,2025-11-07 22:31:56.737000154
2025-11-07 22:31:54.233557,7,2025-11-07 22:31:56.744692462
2025-11-07 22:31:54.233557,-3584,2025-11-07 22:31:56.752384769
2025-11-07 22:31:54.233557,-1,2025-11-07 22:31:56.760077077
2025-11-07 22:31:54.233557,28,2025-11-07 22:31:56.767769385
2025-11-07 22:31:54.233557,6656,2025-11-07 22:31:56.775461692
2025-11-07 22:31:54.233557,0,2025-11-07 22:31:56.783154000
2025-11-07 22:31:54.233557,-2,2025-11-07 22:31:56.790846308
2025-11-07 22:31:54.233557,-257,2025-11-07 22:31:56.798538615
2025-11-07 22:31:54.233557,-1,2025-11-07 22:31:56.806230923
2025-11-07 22:31:54.233557,0,2025-11-07 22:31:56.813923231
2025-11-07 22:31:54.233557,-2304,2025-11-07 22:31:56.821615538
2025-11-07 22:31:54.233557,-1,2025-11-07 22:31:56.829307846
2025-11-07 22:31:54.233557,-16,2025-11-07 22:31:56.837000154
2025-11-07 22:31:54.233557,-6401,2025-11-07 22:31:56.844692462
2025-11-07 22:31:54.233557,-1,2025-11-07 22:31:56.852384769
2025-11-07 22:31:54.233557,-35,2025-11-07 22:31:56.860077077
2025-11-07 22:31:54.233557,-10497,2025-11-07 22:31:56.867769385
2025-11-07 22:31:54.233557,-1,2025-11-07 22:31:56.875461692
2025-11-07 22:31:54.233557,-59,2025-11-07 22:31:56.883154000
2025-11-07 22:31:54.233557,-20993,2025-11-07 22:31:56.890846308
2025-11-07 22:31:54.233557,-1,2025-11-07 22:31:56.898538615
2025-11-07 22:31:54.233557,-99,2025-11-07 22:31:56.906230923
2025-11-07 22:31:54.233557,-29441,2025-11-07 22:31:56.913923231
2025-11-07 22:31:54.233557,-1,2025-11-07 22:31:56.921615538
2025-11-07 22:31:54.233557,-140,2025-11-07 22:31:56.929307846
2025-11-07 22:31:54.233557,25855,2025-11-07 22:31:56.937000154
2025-11-07 22:31:54.233557,-1,2025-11-07 22:31:56.944692462
2025-11-07 22:31:54.233557,-156,2025-11-07 22:31:56.952384769
2025-11-07 22:31:54.233557,27647,2025-11-07 22:31:56.960077077
2025-11-07 22:31:54.233557,-1,2025-11-07 22:31:56.967769385
2025-11-07 22:31:54.233557,-137,2025-11-07 22:31:56.975461692
2025-11-07 22:31:54.233557,-28929,2025-11-07 22:31:56.983154000
2025-11-07 22:31:54.233557,-1,2025-11-07 22:31:56.990846308
2025-11-07 22:31:54.233557,-87,2025-11-07 22:31:56.998538615
2025-11-07 22:31:54.233557,-17921,2025-11-07 22:31:57.006230923
2025-11-07 22:31:54.233557,-1,2025-11-07 22:31:57.013923231
2025-11-07 22:31:54.233557,-54,2025-11-07 22:31:57.021615538
2025-11-07 22:31:54.233557,-10497,2025-11-07 22:31:57.029307846
2025-11-07 22:31:54.233557,-1,2025-11-07 22:31:57.037000154
2025-11-07 22:31:54.233557,-33,2025-11-07 22:31:57.044692462
2025-11-07 22:31:54.233557,-7425,2025-11-07 22:31:57.052384769
2025-11-07 22:31:54.233557,-1,2025-11-07 22:31:57.060077077
2025-11-07 22:31:54.233557,-26,2025-11-07 22:31:57.067769385
2025-11-07 22:31:54.233557,-5633,2025-11-07 22:31:57.075461692
2025-11-07 22:31:54.233557,-1,2025-11-07 22:31:57.083154000
2025-11-07 22:31:54.233557,-23,2025-11-07 22:31:57.090846308
2025-11-07 22:31:54.233557,-7425,2025-11-07 22:31:57.098538615
2025-11-07 22:31:54.233557,-1,2025-11-07 22:31:57.106230923
2025-11-07 22:31:54.233557,-42,2025-11-07 22:31:57.113923231
2025-11-07 22:31:54.233557,-12289,2025-11-07 22:31:57.121615538
2025-11-07 22:31:54.233557,-1,2025-11-07 22:31:57.129307846
2025-11-07 22:31:54.233557,-54,2025-11-07 22:31:57.137000154
2025-11-07 22:31:54.233557,-14849,2025-11-07 22:31:57.144692462
2025-11-07 22:31:54.233557,-1,2025-11-07 22:31:57.152384769
2025-11-07 22:31:54.233557,-61,2025-11-07 22:31:57.160077077
2025-11-07 22:31:54.233557,-15361,2025-11-07 22:31:57.167769385
2025-11-07 22:31:54.233557,-1,2025-11-07 22:31:57.175461692
2025-11-07 22:31:54.233557,-66,2025-11-07 22:31:57.183154000
2025-11-07 22:31:54.233557,-18433,2025-11-07 22:31:57.190846308
2025-11-07 22:31:54.233557,-1,2025-11-07 22:31:57.198538615
2025-11-07 22:31:54.233557,-76,2025-11-07 22:31:57.206230923
2025-11-07 22:31:54.233557,-16641,2025-11-07 22:31:57.213923231
2025-11-07 22:31:54.233557,-1,2025-11-07 22:31:57.221615538
2025-11-07 22:31:54.233557,-54,2025-11-07 22:31:57.229307846
2025-11-07 22:31:54.233557,-11777,2025-11-07 22:31:57.237000154
2025-11-07 22:31:54.233557,-1,2025-11-07 22:31:57.244692462
2025-11-07 22:31:54.233557,-45,2025-11-07 22:31:57.252384769
2025-11-07 22:31:54.233557,-11265,2025-11-07 22:31:57.260077077
2025-11-07 22:31:54.233557,-1,2025-11-07 22:31:57.267769385
2025-11-07 22:31:54.233557,-59,2025-11-07 22:31:57.275461692
2025-11-07 22:31:54.233557,-20225,2025-11-07 22:31:57.283154000
2025-11-07 22:31:54.233557,-1,2025-11-07 22:31:57.290846308
2025-11-07 22:31:54.233557,-92,2025-11-07 22:31:57.298538615
2025-11-07 22:31:54.233557,-26369,2025-11-07 22:31:57.306230923
2025-11-07 22:31:54.233557,-1,2025-11-07 22:31:57.313923230
2025-11-07 22:31:54.233557,-118,2025-11-07 22:31:57.321615538
2025-11-07 22:31:54.783199,-114,2025-11-07 22:31:57.329307846
2025-11-07 22:31:54.783199,-21505,2025-11-07 22:31:57.337000154
2025-11-07 22:31:54.783199,-1,2025-11-07 22:31:57.344692462
2025-11-07 22:31:54.783199,-87,2025-11-07 22:31:57.352384769
2025-11-07 22:31:54.783199,-26881,2025-11-07 22:31:57.360077077
2025-11-07 22:31:54.783199,-1,2025-11-07 22:31:57.367769385
2025-11-07 22:31:54.783199,-102,2025-11-07 22:31:57.375461692
2025-11-07 22:31:54.783199,-24577,2025-11-07 22:31:57.383154000
2025-11-07 22:31:54.783199,-1,2025-11-07 22:31:57.390846308
2025-11-07 22:31:54.783199,-109,2025-11-07 22:31:57.398538615
2025-11-07 22:31:54.783199,-25857,2025-11-07 22:31:57.406230923
2025-11-07 22:31:54.783199,-1,2025-11-07 22:31:57.413923231
2025-11-07 22:31:54.783199,-68,2025-11-07 22:31:57.421615538
2025-11-07 22:31:54.783199,3839,2025-11-07 22:31:57.429307846
2025-11-07 22:31:54.783199,0,2025-11-07 22:31:57.437000154
2025-11-07 22:31:54.783199,137,2025-11-07 22:31:57.444692462
2025-11-07 22:31:54.783199,-25600,2025-11-07 22:31:57.452384769
2025-11-07 22:31:54.783199,0,2025-11-07 22:31:57.460077077
2025-11-07 22:31:54.783199,-173,2025-11-07 22:31:57.467769385
2025-11-07 22:31:54.783199,-28161,2025-11-07 22:31:57.475461692
2025-11-07 22:31:54.783199,-4,2025-11-07 22:31:57.483154000
2025-11-07 22:31:54.783199,-1240,2025-11-07 22:31:57.490846308
2025-11-07 22:31:54.783199,-12801,2025-11-07 22:31:57.498538615
2025-11-07 22:31:54.783199,-4,2025-11-07 22:31:57.506230923
2025-11-07 22:31:54.783199,-375,2025-11-07 22:31:57.513923231
2025-11-07 22:31:54.783199,9471,2025-11-07 22:31:57.521615538
2025-11-07 22:31:54.783199,-1,2025-11-07 22:31:57.529307846
2025-11-07 22:31:54.783199,-30,2025-11-07 22:31:57.537000154
2025-11-07 22:31:54.783199,20735,2025-11-07 22:31:57.544692462
2025-11-07 22:31:54.783199,0,2025-11-07 22:31:57.552384769
2025-11-07 22:31:54.783199,40,2025-11-07 22:31:57.560077077
2025-11-07 22:31:54.783199,8960,2025-11-07 22:31:57.567769385
2025-11-07 22:31:54.783199,0,2025-11-07 22:31:57.575461692
2025-11-07 22:31:54.783199,57,2025-11-07 22:31:57.583154000
2025-11-07 22:31:54.783199,10752,2025-11-07 22:31:57.590846308
2025-11-07 22:31:54.783199,0,2025-11-07 22:31:57.598538615
2025-11-07 22:31:54.783199,30,2025-11-07 22:31:57.606230923
2025-11-07 22:31:54.783199,8448,2025-11-07 22:31:57.613923231
2025-11-07 22:31:54.783199,0,2025-11-07 22:31:57.621615538
2025-11-07 22:31:54.783199,26,2025-11-07 22:31:57.629307846
2025-11-07 22:31:54.783199,4096,2025-11-07 22:31:57.637000154
2025-11-07 22:31:54.783199,0,2025-11-07 22:31:57.644692462
2025-11-07 22:31:54.783199,7,2025-11-07 22:31:57.652384769
2025-11-07 22:31:54.783199,512,2025-11-07 22:31:57.660077077
2025-11-07 22:31:54.783199,0,2025-11-07 22:31:57.667769385
2025-11-07 22:31:54.783199,0,2025-11-07 22:31:57.675461692
2025-11-07 22:31:54.783199,-2304,2025-11-07 22:31:57.683154000
2025-11-07 22:31:54.783199,-1,2025-11-07 22:31:57.690846308
2025-11-07 22:31:54.783199,-28,2025-11-07 22:31:57.698538615
2025-11-07 22:31:54.783199,-12289,2025-11-07 22:31:57.706230923
2025-11-07 22:31:54.783199,-1,2025-11-07 22:31:57.713923231
2025-11-07 22:31:54.783199,-68,2025-11-07 22:31:57.721615538
2025-11-07 22:31:54.783199,-21505,2025-11-07 22:31:57.729307846
2025-11-07 22:31:54.783199,-1,2025-11-07 22:31:57.737000154
2025-11-07 22:31:54.783199,-97,2025-11-07 22:31:57.744692462
2025-11-07 22:31:54.783199,-28161,2025-11-07 22:31:57.752384769
2025-11-07 22:31:54.783199,-1,2025-11-07 22:31:57.760077077
2025-11-07 22:31:54.783199,-114,2025-11-07 22:31:57.767769385
2025-11-07 22:31:54.783199,-26369,2025-11-07 22:31:57.775461692
2025-11-07 22:31:54.783199,-1,2025-11-07 22:31:57.783154000
2025-11-07 22:31:54.783199,-95,2025-11-07 22:31:57.790846308
2025-11-07 22:31:54.783199,-20993,2025-11-07 22:31:57.798538615
2025-11-07 22:31:54.783199,-1,2025-11-07 22:31:57.806230923
2025-11-07 22:31:54.783199,-57,2025-11-07 22:31:57.813923231
2025-11-07 22:31:54.783199,-8705,2025-11-07 22:31:57.821615538
2025-11-07 22:31:54.783199,-1,2025-11-07 22:31:57.829307846
2025-11-07 22:31:54.783199,-26,2025-11-07 22:31:57.837000154
2025-11-07 22:31:54.783199,-5633,2025-11-07 22:31:57.844692462
2025-11-07 22:31:54.783199,-1,2025-11-07 22:31:57.852384769
2025-11-07 22:31:54.783199,-19,2025-11-07 22:31:57.860077077
2025-11-07 22:31:54.783199,-2049,2025-11-07 22:31:57.867769385
2025-11-07 22:31:54.783199,-1,2025-11-07 22:31:57.875461692
2025-11-07 22:31:54.783199,-4,2025-11-07 22:31:57.883154000
2025-11-07 22:31:54.783199,-2561,2025-11-07 22:31:57.890846308
2025-11-07 22:31:54.783199,-1,2025-11-07 22:31:57.898538615
2025-11-07 22:31:54.783199,-14,2025-11-07 22:31:57.906230923
2025-11-07 22:31:54.783199,-2561,2025-11-07 22:31:57.913923231
2025-11-07 22:31:54.783199,-1,2025-11-07 22:31:57.921615538
2025-11-07 22:31:54.783199,-16,2025-11-07 22:31:57.929307846
2025-11-07 22:31:54.783199,-6913,2025-11-07 22:31:57.937000154
2025-11-07 22:31:54.783199,-1,2025-11-07 22:31:57.944692462
2025-11-07 22:31:54.783199,-35,2025-11-07 22:31:57.952384769
2025-11-07 22:31:54.783199,-9985,2025-11-07 22:31:57.960077077
2025-11-07 22:31:54.783199,-1,2025-11-07 22:31:57.967769385
2025-11-07 22:31:54.783199,-47,2025-11-07 22:31:57.975461692
2025-11-07 22:31:54.783199,-14337,2025-11-07 22:31:57.983154000
2025-11-07 22:31:54.783199,-1,2025-11-07 22:31:57.990846308
2025-11-07 22:31:54.783199,-57,2025-11-07 22:31:57.998538615
2025-11-07 22:31:54.783199,-14337,2025-11-07 22:31:58.006230923
2025-11-07 22:31:54.783199,-1,2025-11-07 22:31:58.013923231
2025-11-07 22:31:54.783199,-61,2025-11-07 22:31:58.021615538
2025-11-07 22:31:54.783199,-16641,2025-11-07 22:31:58.029307846
2025-11-07 22:31:54.783199,-1,2025-11-07 22:31:58.037000154
2025-11-07 22:31:54.783199,-66,2025-11-07 22:31:58.044692462
2025-11-07 22:31:54.783199,-17921,2025-11-07 22:31:58.052384769
2025-11-07 22:31:54.783199,-1,2025-11-07 22:31:58.060077077
2025-11-07 22:31:54.783199,-73,2025-11-07 22:31:58.067769385
2025-11-07 22:31:54.783199,-17921,2025-11-07 22:31:58.075461692
2025-11-07 22:31:54.783199,-1,2025-11-07 22:31:58.083154000
2025-11-07 22:31:54.783199,-61,2025-11-07 22:31:58.090846308
2025-11-07 22:31:54.783199,-13057,2025-11-07 22:31:58.098538615
2025-11-07 22:31:54.783199,-1,2025-11-07 22:31:58.106230923
2025-11-07 22:31:54.783199,-42,2025-11-07 22:31:58.113923231
2025-11-07 22:31:54.783199,-7425,2025-11-07 22:31:58.121615538
2025-11-07 22:31:54.783199,-1,2025-11-07 22:31:58.129307846
2025-11-07 22:31:54.783199,-28,2025-11-07 22:31:58.137000154
2025-11-07 22:31:54.783199,-11777,2025-11-07 22:31:58.144692462
2025-11-07 22:31:54.783199,-1,2025-11-07 22:31:58.152384769
2025-11-07 22:31:54.783199,-76,2025-11-07 22:31:58.160077077
2025-11-07 22:31:55.333398,-95,2025-11-07 22:31:58.167769385
2025-11-07 22:31:55.333398,-26369,2025-11-07 22:31:58.175461692
2025-11-07 22:31:55.333398,-1,2025-11-07 22:31:58.183154000
2025-11-07 22:31:55.333398,-116,2025-11-07 22:31:58.190846308
2025-11-07 22:31:55.333398,-29953,2025-11-07 22:31:58.198538615
2025-11-07 22:31:55.333398,-1,2025-11-07 22:31:58.206230923
2025-11-07 22:31:55.333398,-97,2025-11-07 22:31:58.213923231
2025-11-07 22:31:55.333398,-22785,2025-11-07 22:31:58.221615538
2025-11-07 22:31:55.333398,-1,2025-11-07 22:31:58.229307846
2025-11-07 22:31:55.333398,-104,2025-11-07 22:31:58.237000154
2025-11-07 22:31:55.333398,-26881,2025-11-07 22:31:58.244692462
2025-11-07 22:31:55.333398,-1,2025-11-07 22:31:58.252384769
2025-11-07 22:31:55.333398,-90,2025-11-07 22:31:58.260077077
2025-11-07 22:31:55.333398,-20993,2025-11-07 22:31:58.267769385
2025-11-07 22:31:55.333398,-1,2025-11-07 22:31:58.275461692
2025-11-07 22:31:55.333398,-80,2025-11-07 22:31:58.283154000
2025-11-07 22:31:55.333398,-18433,2025-11-07 22:31:58.290846308
2025-11-07 22:31:55.333398,-1,2025-11-07 22:31:58.298538615
2025-11-07 22:31:55.333398,-14,2025-11-07 22:31:58.306230923
2025-11-07 22:31:55.333398,27391,2025-11-07 22:31:58.313923230
2025-11-07 22:31:55.333398,0,2025-11-07 22:31:58.321615538
2025-11-07 22:31:55.333398,171,2025-11-07 22:31:58.329307846
2025-11-07 22:31:55.333398,-15616,2025-11-07 22:31:58.337000154
2025-11-07 22:31:55.333398,-1,2025-11-07 22:31:58.344692462
2025-11-07 22:31:55.333398,-800,2025-11-07 22:31:58.352384769
2025-11-07 22:31:55.333398,19967,2025-11-07 22:31:58.360077077
2025-11-07 22:31:55.333398,-6,2025-11-07 22:31:58.367769385
2025-11-07 22:31:55.333398,-1188,2025-11-07 22:31:58.375461692
2025-11-07 22:31:55.333398,2559,2025-11-07 22:31:58.383154000
2025-11-07 22:31:55.333398,-2,2025-11-07 22:31:58.390846308
2025-11-07 22:31:55.333398,-201,2025-11-07 22:31:58.398538615
2025-11-07 22:31:55.333398,-17153,2025-11-07 22:31:58.406230923
2025-11-07 22:31:55.333398,-1,2025-11-07 22:31:58.413923231
2025-11-07 22:31:55.333398,61,2025-11-07 22:31:58.421615538
2025-11-07 22:31:55.333398,18176,2025-11-07 22:31:58.429307846
2025-11-07 22:31:55.333398,0,2025-11-07 22:31:58.437000154
2025-11-07 22:31:55.333398,42,2025-11-07 22:31:58.444692462
2025-11-07 22:31:55.333398,13824,2025-11-07 22:31:58.452384769
2025-11-07 22:31:55.333398,0,2025-11-07 22:31:58.460077077
2025-11-07 22:31:55.333398,54,2025-11-07 22:31:58.467769385
2025-11-07 22:31:55.333398,10240,2025-11-07 22:31:58.475461692
2025-11-07 22:31:55.333398,0,2025-11-07 22:31:58.483154000
2025-11-07 22:31:55.333398,40,2025-11-07 22:31:58.490846308
2025-11-07 22:31:55.333398,9728,2025-11-07 22:31:58.498538615
2025-11-07 22:31:55.333398,0,2025-11-07 22:31:58.506230923
2025-11-07 22:31:55.333398,26,2025-11-07 22:31:58.513923231
2025-11-07 22:31:55.333398,6656,2025-11-07 22:31:58.521615538
2025-11-07 22:31:55.333398,0,2025-11-07 22:31:58.529307846
2025-11-07 22:31:55.333398,26,2025-11-07 22:31:58.537000154
2025-11-07 22:31:55.333398,4096,2025-11-07 22:31:58.544692462
2025-11-07 22:31:55.333398,0,2025-11-07 22:31:58.552384769
2025-11-07 22:31:55.333398,7,2025-11-07 22:31:58.560077077
2025-11-07 22:31:55.333398,-1024,2025-11-07 22:31:58.567769385
2025-11-07 22:31:55.333398,-1,2025-11-07 22:31:58.575461692
2025-11-07 22:31:55.333398,-23,2025-11-07 22:31:58.583154000
2025-11-07 22:31:55.333398,-9985,2025-11-07 22:31:58.590846308
2025-11-07 22:31:55.333398,-1,2025-11-07 22:31:58.598538615
2025-11-07 22:31:55.333398,-59,2025-11-07 22:31:58.606230923
2025-11-07 22:31:55.333398,-20225,2025-11-07 22:31:58.613923231
2025-11-07 22:31:55.333398,-1,2025-11-07 22:31:58.621615538
2025-11-07 22:31:55.333398,-92,2025-11-07 22:31:58.629307846
2025-11-07 22:31:55.333398,-24065,2025-11-07 22:31:58.637000154
2025-11-07 22:31:55.333398,-1,2025-11-07 22:31:58.644692462
2025-11-07 22:31:55.333398,-95,2025-11-07 22:31:58.652384769
2025-11-07 22:31:55.333398,-22017,2025-11-07 22:31:58.660077077
2025-11-07 22:31:55.333398,-1,2025-11-07 22:31:58.667769385
2025-11-07 22:31:55.333398,-73,2025-11-07 22:31:58.675461692
2025-11-07 22:31:55.333398,-14337,2025-11-07 22:31:58.683154000
2025-11-07 22:31:55.333398,-1,2025-11-07 22:31:58.690846308
2025-11-07 22:31:55.333398,-45,2025-11-07 22:31:58.698538615
2025-11-07 22:31:55.333398,-8705,2025-11-07 22:31:58.706230923
2025-11-07 22:31:55.333398,-1,2025-11-07 22:31:58.713923231
2025-11-07 22:31:55.333398,-33,2025-11-07 22:31:58.721615538
2025-11-07 22:31:55.333398,-8193,2025-11-07 22:31:58.729307846
2025-11-07 22:31:55.333398,-1,2025-11-07 22:31:58.737000154
2025-11-07 22:31:55.333398,-30,2025-11-07 22:31:58.744692462
2025-11-07 22:31:55.333398,-8193,2025-11-07 22:31:58.752384769
2025-11-07 22:31:55.333398,-1,2025-11-07 22:31:58.760077077
2025-11-07 22:31:55.333398,-38,2025-11-07 22:31:58.767769385
2025-11-07 22:31:55.333398,-9985,2025-11-07 22:31:58.775461692
2025-11-07 22:31:55.333398,-1,2025-11-07 22:31:58.783154000
2025-11-07 22:31:55.333398,-45,2025-11-07 22:31:58.790846308
2025-11-07 22:31:55.333398,-12289,2025-11-07 22:31:58.798538615
2025-11-07 22:31:55.333398,-1,2025-11-07 22:31:58.806230923
2025-11-07 22:31:55.333398,-49,2025-11-07 22:31:58.813923231
2025-11-07 22:31:55.333398,-13057,2025-11-07 22:31:58.821615538
2025-11-07 22:31:55.333398,-1,2025-11-07 22:31:58.829307846
2025-11-07 22:31:55.333398,-57,2025-11-07 22:31:58.837000154
2025-11-07 22:31:55.333398,-15361,2025-11-07 22:31:58.844692462
2025-11-07 22:31:55.333398,-1,2025-11-07 22:31:58.852384769
2025-11-07 22:31:55.333398,-68,2025-11-07 22:31:58.860077077
2025-11-07 22:31:55.333398,-18433,2025-11-07 22:31:58.867769385
2025-11-07 22:31:55.333398,-1,2025-11-07 22:31:58.875461692
2025-11-07 22:31:55.333398,-78,2025-11-07 22:31:58.883154000
2025-11-07 22:31:55.333398,-20993,2025-11-07 22:31:58.890846308
2025-11-07 22:31:55.333398,-1,2025-11-07 22:31:58.898538615
2025-11-07 22:31:55.333398,-87,2025-11-07 22:31:58.906230923
2025-11-07 22:31:55.333398,-22785,2025-11-07 22:31:58.913923231
2025-11-07 22:31:55.333398,-1,2025-11-07 22:31:58.921615538
2025-11-07 22:31:55.333398,-87,2025-11-07 22:31:58.929307846
2025-11-07 22:31:55.333398,-21505,2025-11-07 22:31:58.937000154
2025-11-07 22:31:55.333398,-1,2025-11-07 22:31:58.944692462
2025-11-07 22:31:55.333398,-85,2025-11-07 22:31:58.952384769
2025-11-07 22:31:55.333398,-21505,2025-11-07 22:31:58.960077077
2025-11-07 22:31:55.333398,-1,2025-11-07 22:31:58.967769385
2025-11-07 22:31:55.333398,-87,2025-11-07 22:31:58.975461692
2025-11-07 22:31:55.333398,-22017,2025-11-07 22:31:58.983154000
2025-11-07 22:31:55.333398,-1,2025-11-07 22:31:58.990846308
2025-11-07 22:31:55.333398,-92,2025-11-07 22:31:58.998538615
2025-11-07 22:31:55.883372,-90,2025-11-07 22:31:59.006230923
2025-11-07 22:31:55.883372,-22017,2025-11-07 22:31:59.013923231
2025-11-07 22:31:55.883372,-1,2025-11-07 22:31:59.021615538
2025-11-07 22:31:55.883372,-87,2025-11-07 22:31:59.029307846
2025-11-07 22:31:55.883372,-22785,2025-11-07 22:31:59.037000154
2025-11-07 22:31:55.883372,-1,2025-11-07 22:31:59.044692462
2025-11-07 22:31:55.883372,-83,2025-11-07 22:31:59.052384769
2025-11-07 22:31:55.883372,-17153,2025-11-07 22:31:59.060077077
2025-11-07 22:31:55.883372,-1,2025-11-07 22:31:59.067769385
2025-11-07 22:31:55.883372,-45,2025-11-07 22:31:59.075461692
2025-11-07 22:31:55.883372,-5633,2025-11-07 22:31:59.083154000
2025-11-07 22:31:55.883372,-1,2025-11-07 22:31:59.090846308
2025-11-07 22:31:55.883372,-30,2025-11-07 22:31:59.098538615
2025-11-07 22:31:55.883372,-16129,2025-11-07 22:31:59.106230923
2025-11-07 22:31:55.883372,-1,2025-11-07 22:31:59.113923231
2025-11-07 22:31:55.883372,-85,2025-11-07 22:31:59.121615538
2025-11-07 22:31:55.883372,-22785,2025-11-07 22:31:59.129307846
2025-11-07 22:31:55.883372,-1,2025-11-07 22:31:59.137000154
2025-11-07 22:31:55.883372,-92,2025-11-07 22:31:59.144692462
2025-11-07 22:31:55.883372,-25089,2025-11-07 22:31:59.152384769
2025-11-07 22:31:55.883372,-1,2025-11-07 22:31:59.160077077
2025-11-07 22:31:55.883372,-97,2025-11-07 22:31:59.167769385
2025-11-07 22:31:55.883372,-20225,2025-11-07 22:31:59.175461692
2025-11-07 22:31:55.883372,-1,2025-11-07 22:31:59.183154000
2025-11-07 22:31:55.883372,-76,2025-11-07 22:31:59.190846308
2025-11-07 22:31:55.883372,-22785,2025-11-07 22:31:59.198538615
2025-11-07 22:31:55.883372,-1,2025-11-07 22:31:59.206230923
2025-11-07 22:31:55.883372,-92,2025-11-07 22:31:59.213923231
2025-11-07 22:31:55.883372,-20993,2025-11-07 22:31:59.221615538
2025-11-07 22:31:55.883372,-1,2025-11-07 22:31:59.229307846
2025-11-07 22:31:55.883372,-83,2025-11-07 22:31:59.237000154
2025-11-07 22:31:55.883372,-20225,2025-11-07 22:31:59.244692462
2025-11-07 22:31:55.883372,-1,2025-11-07 22:31:59.252384769
2025-11-07 22:31:55.883372,-66,2025-11-07 22:31:59.260077077
2025-11-07 22:31:55.883372,-769,2025-11-07 22:31:59.267769385
2025-11-07 22:31:55.883372,-1,2025-11-07 22:31:59.275461692
2025-11-07 22:31:55.883372,111,2025-11-07 22:31:59.283154000
2025-11-07 22:31:55.883372,-19456,2025-11-07 22:31:59.290846308
2025-11-07 22:31:55.883372,0,2025-11-07 22:31:59.298538615
2025-11-07 22:31:55.883372,-80,2025-11-07 22:31:59.306230923
2025-11-07 22:31:55.883372,29439,2025-11-07 22:31:59.313923230
2025-11-07 22:31:55.883372,-4,2025-11-07 22:31:59.321615538
2025-11-07 22:31:55.883372,-1611,2025-11-07 22:31:59.329307846
2025-11-07 22:31:55.883372,4351,2025-11-07 22:31:59.337000154
2025-11-07 22:31:55.883372,-5,2025-11-07 22:31:59.344692462
2025-11-07 22:31:55.883372,-482,2025-11-07 22:31:59.352384769
2025-11-07 22:31:55.883372,28159,2025-11-07 22:31:59.360077077
2025-11-07 22:31:55.883372,-1,2025-11-07 22:31:59.367769385
2025-11-07 22:31:55.883372,-35,2025-11-07 22:31:59.375461692
2025-11-07 22:31:55.883372,22015,2025-11-07 22:31:59.383154000
2025-11-07 22:31:55.883372,0,2025-11-07 22:31:59.390846308
2025-11-07 22:31:55.883372,106,2025-11-07 22:31:59.398538615
2025-11-07 22:31:55.883372,21760,2025-11-07 22:31:59.406230923
2025-11-07 22:31:55.883372,0,2025-11-07 22:31:59.413923231
2025-11-07 22:31:55.883372,99,2025-11-07 22:31:59.421615538
2025-11-07 22:31:55.883372,24832,2025-11-07 22:31:59.429307846
2025-11-07 22:31:55.883372,0,2025-11-07 22:31:59.437000154
2025-11-07 22:31:55.883372,78,2025-11-07 22:31:59.444692462
2025-11-07 22:31:55.883372,19456,2025-11-07 22:31:59.452384769
2025-11-07 22:31:55.883372,0,2025-11-07 22:31:59.460077077
2025-11-07 22:31:55.883372,73,2025-11-07 22:31:59.467769385
2025-11-07 22:31:55.883372,15616,2025-11-07 22:31:59.475461692
2025-11-07 22:31:55.883372,0,2025-11-07 22:31:59.483154000
2025-11-07 22:31:55.883372,61,2025-11-07 22:31:59.490846308
2025-11-07 22:31:55.883372,15104,2025-11-07 22:31:59.498538615
2025-11-07 22:31:55.883372,0,2025-11-07 22:31:59.506230923
2025-11-07 22:31:55.883372,49,2025-11-07 22:31:59.513923231
2025-11-07 22:31:55.883372,12032,2025-11-07 22:31:59.521615538
2025-11-07 22:31:55.883372,0,2025-11-07 22:31:59.529307846
2025-11-07 22:31:55.883372,47,2025-11-07 22:31:59.537000154
2025-11-07 22:31:55.883372,7168,2025-11-07 22:31:59.544692462
2025-11-07 22:31:55.883372,0,2025-11-07 22:31:59.552384769
2025-11-07 22:31:55.883372,4,2025-11-07 22:31:59.560077077
2025-11-07 22:31:55.883372,-2304,2025-11-07 22:31:59.567769385
2025-11-07 22:31:55.883372,-1,2025-11-07 22:31:59.575461692
2025-11-07 22:31:55.883372,-16,2025-11-07 22:31:59.583154000
2025-11-07 22:31:55.883372,-5633,2025-11-07 22:31:59.590846308
2025-11-07 22:31:55.883372,-1,2025-11-07 22:31:59.598538615
2025-11-07 22:31:55.883372,-30,2025-11-07 22:31:59.606230923
2025-11-07 22:31:55.883372,-9473,2025-11-07 22:31:59.613923231
2025-11-07 22:31:55.883372,-1,2025-11-07 22:31:59.621615538
2025-11-07 22:31:55.883372,-40,2025-11-07 22:31:59.629307846
2025-11-07 22:31:55.883372,-8193,2025-11-07 22:31:59.637000154
2025-11-07 22:31:55.883372,-1,2025-11-07 22:31:59.644692462
2025-11-07 22:31:55.883372,-21,2025-11-07 22:31:59.652384769
2025-11-07 22:31:55.883372,-2049,2025-11-07 22:31:59.660077077
2025-11-07 22:31:55.883372,-1,2025-11-07 22:31:59.667769385
2025-11-07 22:31:55.883372,-4,2025-11-07 22:31:59.675461692
2025-11-07 22:31:55.883372,1279,2025-11-07 22:31:59.683154000
2025-11-07 22:31:55.883372,0,2025-11-07 22:31:59.690846308
2025-11-07 22:31:55.883372,9,2025-11-07 22:31:59.698538615
2025-11-07 22:31:55.883372,1024,2025-11-07 22:31:59.706230923
2025-11-07 22:31:55.883372,0,2025-11-07 22:31:59.713923231
2025-11-07 22:31:55.883372,-7,2025-11-07 22:31:59.721615538
2025-11-07 22:31:55.883372,-3329,2025-11-07 22:31:59.729307846
2025-11-07 22:31:55.883372,-1,2025-11-07 22:31:59.737000154
2025-11-07 22:31:55.883372,-11,2025-11-07 22:31:59.744692462
2025-11-07 22:31:55.883372,-1537,2025-11-07 22:31:59.752384769
2025-11-07 22:31:55.883372,-1,2025-11-07 22:31:59.760077077
2025-11-07 22:31:55.883372,-14,2025-11-07 22:31:59.767769385
2025-11-07 22:31:55.883372,-6401,2025-11-07 22:31:59.775461692
2025-11-07 22:31:55.883372,-1,2025-11-07 22:31:59.783154000
2025-11-07 22:31:55.883372,-28,2025-11-07 22:31:59.790846308
2025-11-07 22:31:55.883372,-6913,2025-11-07 22:31:59.798538615
2025-11-07 22:31:55.883372,-1,2025-11-07 22:31:59.806230923
2025-11-07 22:31:55.883372,-35,2025-11-07 22:31:59.813923231
2025-11-07 22:31:55.883372,-10497,2025-11-07 22:31:59.821615538
2025-11-07 22:31:55.883372,-1,2025-11-07 22:31:59.829307846
2025-11-07 22:31:55.883372,-47,2025-11-07 22:31:59.837000154
2025-11-07 22:31:56.531081,-52,2025-11-07 22:31:59.844692462
2025-11-07 22:31:56.531081,-14337,2025-11-07 22:31:59.852384769
2025-11-07 22:31:56.531081,-1,2025-11-07 22:31:59.860077077
2025-11-07 22:31:56.531081,-59,2025-11-07 22:31:59.867769385
2025-11-07 22:31:56.531081,-14849,2025-11-07 22:31:59.875461692
2025-11-07 22:31:56.531081,-1,2025-11-07 22:31:59.883154000
2025-11-07 22:31:56.531081,-54,2025-11-07 22:31:59.890846308
2025-11-07 22:31:56.531081,-12289,2025-11-07 22:31:59.898538615
2025-11-07 22:31:56.531081,-1,2025-11-07 22:31:59.906230923
2025-11-07 22:31:56.531081,-42,2025-11-07 22:31:59.913923231
2025-11-07 22:31:56.531081,-10497,2025-11-07 22:31:59.921615538
2025-11-07 22:31:56.531081,-1,2025-11-07 22:31:59.929307846
2025-11-07 22:31:56.531081,-40,2025-11-07 22:31:59.937000154
2025-11-07 22:31:56.531081,-9473,2025-11-07 22:31:59.944692462
2025-11-07 22:31:56.531081,-1,2025-11-07 22:31:59.952384769
2025-11-07 22:31:56.531081,-38,2025-11-07 22:31:59.960077077
2025-11-07 22:31:56.531081,-9473,2025-11-07 22:31:59.967769385
2025-11-07 22:31:56.531081,-1,2025-11-07 22:31:59.975461692
2025-11-07 22:31:56.531081,-42,2025-11-07 22:31:59.983154000
2025-11-07 22:31:56.531081,-11777,2025-11-07 22:31:59.990846308
2025-11-07 22:31:56.531081,-1,2025-11-07 22:31:59.998538615
2025-11-07 22:31:56.531081,-42,2025-11-07 22:32:00.006230923
2025-11-07 22:31:56.531081,-10497,2025-11-07 22:32:00.013923231
2025-11-07 22:31:56.531081,-1,2025-11-07 22:32:00.021615538
2025-11-07 22:31:56.531081,-42,2025-11-07 22:32:00.029307846
2025-11-07 22:31:56.531081,-9985,2025-11-07 22:32:00.037000154
2025-11-07 22:31:56.531081,-1,2025-11-07 22:32:00.044692462
2025-11-07 22:31:56.531081,-38,2025-11-07 22:32:00.052384769
2025-11-07 22:31:56.531081,-9473,2025-11-07 22:32:00.060077077
2025-11-07 22:31:56.531081,-1,2025-11-07 22:32:00.067769385
2025-11-07 22:31:56.531081,-33,2025-11-07 22:32:00.075461692
2025-11-07 22:31:56.531081,-6401,2025-11-07 22:32:00.083154000
2025-11-07 22:31:56.531081,-1,2025-11-07 22:32:00.090846308
2025-11-07 22:31:56.531081,-11,2025-11-07 22:32:00.098538615
2025-11-07 22:31:56.531081,255,2025-11-07 22:32:00.106230923
2025-11-07 22:31:56.531081,0,2025-11-07 22:32:00.113923231
2025-11-07 22:31:56.531081,-2,2025-11-07 22:32:00.121615538
2025-11-07 22:31:56.531081,-7425,2025-11-07 22:32:00.129307846
2025-11-07 22:31:56.531081,-1,2025-11-07 22:32:00.137000154
2025-11-07 22:31:56.531081,-54,2025-11-07 22:32:00.144692462
2025-11-07 22:31:56.531081,-14849,2025-11-07 22:32:00.152384769
2025-11-07 22:31:56.531081,-1,2025-11-07 22:32:00.160077077
2025-11-07 22:31:56.531081,-64,2025-11-07 22:32:00.167769385
2025-11-07 22:31:56.531081,-19201,2025-11-07 22:32:00.175461692
2025-11-07 22:31:56.531081,-1,2025-11-07 22:32:00.183154000
2025-11-07 22:31:56.531081,-73,2025-11-07 22:32:00.190846308
2025-11-07 22:31:56.531081,-11777,2025-11-07 22:32:00.198538615
2025-11-07 22:31:56.531081,-1,2025-11-07 22:32:00.206230923
2025-11-07 22:31:56.531081,-38,2025-11-07 22:32:00.213923231
2025-11-07 22:31:56.531081,-11777,2025-11-07 22:32:00.221615538
2025-11-07 22:31:56.531081,-1,2025-11-07 22:32:00.229307846
2025-11-07 22:31:56.531081,-52,2025-11-07 22:32:00.237000154
2025-11-07 22:31:56.531081,-13569,2025-11-07 22:32:00.244692462
2025-11-07 22:31:56.531081,-1,2025-11-07 22:32:00.252384769
2025-11-07 22:31:56.531081,-61,2025-11-07 22:32:00.260077077
2025-11-07 22:31:56.531081,-14337,2025-11-07 22:32:00.267769385
2025-11-07 22:31:56.531081,-1,2025-11-07 22:32:00.275461692
2025-11-07 22:31:56.531081,-40,2025-11-07 22:32:00.283154000
2025-11-07 22:31:56.531081,1279,2025-11-07 22:32:00.290846308
2025-11-07 22:31:56.531081,0,2025-11-07 22:32:00.298538615
2025-11-07 22:31:56.531081,104,2025-11-07 22:32:00.306230923
2025-11-07 22:31:56.531081,-14080,2025-11-07 22:32:00.313923230
2025-11-07 22:31:56.531081,0,2025-11-07 22:32:00.321615538
2025-11-07 22:31:56.531081,102,2025-11-07 22:32:00.329307846
2025-11-07 22:31:56.531081,512,2025-11-07 22:32:00.337000154
2025-11-07 22:31:56.531081,-2,2025-11-07 22:32:00.344692462
2025-11-07 22:31:56.531081,-1368,2025-11-07 22:32:00.352384769
2025-11-07 22:31:56.531081,28671,2025-11-07 22:32:00.360077077
2025-11-07 22:31:56.531081,-6,2025-11-07 22:32:00.367769385
2025-11-07 22:31:56.531081,-684,2025-11-07 22:32:00.375461692
2025-11-07 22:31:56.531081,18431,2025-11-07 22:32:00.383154000
2025-11-07 22:31:56.531081,-1,2025-11-07 22:32:00.390846308
2025-11-07 22:31:56.531081,-59,2025-11-07 22:32:00.398538615
2025-11-07 22:31:56.531081,17151,2025-11-07 22:32:00.406230923
2025-11-07 22:31:56.531081,0,2025-11-07 22:32:00.413923231
2025-11-07 22:31:56.531081,130,2025-11-07 22:32:00.421615538
2025-11-07 22:31:56.531081,25344,2025-11-07 22:32:00.429307846
2025-11-07 22:31:56.531081,0,2025-11-07 22:32:00.437000154
2025-11-07 22:31:56.531081,97,2025-11-07 22:32:00.444692462
2025-11-07 22:31:56.531081,28416,2025-11-07 22:32:00.452384769
2025-11-07 22:31:56.531081,0,2025-11-07 22:32:00.460077077
2025-11-07 22:31:56.531081,97,2025-11-07 22:32:00.467769385
2025-11-07 22:31:56.531081,21248,2025-11-07 22:32:00.475461692
2025-11-07 22:31:56.531081,0,2025-11-07 22:32:00.483154000
2025-11-07 22:31:56.531081,80,2025-11-07 22:32:00.490846308
2025-11-07 22:31:56.531081,18688,2025-11-07 22:32:00.498538615
2025-11-07 22:31:56.531081,0,2025-11-07 22:32:00.506230923
2025-11-07 22:31:56.531081,68,2025-11-07 22:32:00.513923231
2025-11-07 22:31:56.531081,18176,2025-11-07 22:32:00.521615538
2025-11-07 22:31:56.531081,0,2025-11-07 22:32:00.529307846
2025-11-07 22:31:56.531081,66,2025-11-07 22:32:00.537000154
2025-11-07 22:31:56.531081,14592,2025-11-07 22:32:00.544692462
2025-11-07 22:31:56.531081,0,2025-11-07 22:32:00.552384769
2025-11-07 22:31:56.531081,47,2025-11-07 22:32:00.560077077
2025-11-07 22:31:56.531081,8448,2025-11-07 22:32:00.567769385
2025-11-07 22:31:56.531081,0,2025-11-07 22:32:00.575461692
2025-11-07 22:31:56.531081,11,2025-11-07 22:32:00.583154000
2025-11-07 22:31:56.531081,-1792,2025-11-07 22:32:00.590846308
2025-11-07 22:31:56.531081,-1,2025-11-07 22:32:00.598538615
2025-11-07 22:31:56.531081,-21,2025-11-07 22:32:00.606230923
2025-11-07 22:31:56.531081,-8705,2025-11-07 22:32:00.613923231
2025-11-07 22:31:56.531081,-1,2025-11-07 22:32:00.621615538
2025-11-07 22:31:56.531081,-45,2025-11-07 22:32:00.629307846
2025-11-07 22:31:56.531081,-10497,2025-11-07 22:32:00.637000154
2025-11-07 22:31:56.531081,-1,2025-11-07 22:32:00.644692462
2025-11-07 22:31:56.531081,-38,2025-11-07 22:32:00.652384769
2025-11-07 22:31:56.531081,-8705,2025-11-07 22:32:00.660077077
2025-11-07 22:31:56.531081,-1,2025-11-07 22:32:00.667769385
2025-11-07 22:31:56.531081,-26,2025-11-07 22:32:00.675461692
2025-11-07 22:31:57.083759,-14,2025-11-07 22:32:00.683154000
2025-11-07 22:31:57.083759,-769,2025-11-07 22:32:00.690846308
2025-11-07 22:31:57.083759,-1,2025-11-07 22:32:00.698538615
2025-11-07 22:31:57.083759,4,2025-11-07 22:32:00.706230923
2025-11-07 22:31:57.083759,1792,2025-11-07 22:32:00.713923231
2025-11-07 22:31:57.083759,0,2025-11-07 22:32:00.721615538
2025-11-07 22:31:57.083759,7,2025-11-07 22:32:00.729307846
2025-11-07 22:31:57.083759,2304,2025-11-07 22:32:00.737000154
2025-11-07 22:31:57.083759,0,2025-11-07 22:32:00.744692462
2025-11-07 22:31:57.083759,7,2025-11-07 22:32:00.752384769
2025-11-07 22:31:57.083759,512,2025-11-07 22:32:00.760077077
2025-11-07 22:31:57.083759,0,2025-11-07 22:32:00.767769385
2025-11-07 22:31:57.083759,-2,2025-11-07 22:32:00.775461692
2025-11-07 22:31:57.083759,-1537,2025-11-07 22:32:00.783154000
2025-11-07 22:31:57.083759,-1,2025-11-07 22:32:00.790846308
2025-11-07 22:31:57.083759,-9,2025-11-07 22:32:00.798538615
2025-11-07 22:31:57.083759,-2049,2025-11-07 22:32:00.806230923
2025-11-07 22:31:57.083759,-1,2025-11-07 22:32:00.813923231
2025-11-07 22:31:57.083759,-9,2025-11-07 22:32:00.821615538
2025-11-07 22:31:57.083759,-4609,2025-11-07 22:32:00.829307846
2025-11-07 22:31:57.083759,-1,2025-11-07 22:32:00.837000154
2025-11-07 22:31:57.083759,-28,2025-11-07 22:32:00.844692462
2025-11-07 22:31:57.083759,-6913,2025-11-07 22:32:00.852384769
2025-11-07 22:31:57.083759,-1,2025-11-07 22:32:00.860077077
2025-11-07 22:31:57.083759,-23,2025-11-07 22:32:00.867769385
2025-11-07 22:31:57.083759,-5633,2025-11-07 22:32:00.875461692
2025-11-07 22:31:57.083759,-1,2025-11-07 22:32:00.883154000
2025-11-07 22:31:57.083759,-33,2025-11-07 22:32:00.890846308
2025-11-07 22:31:57.083759,-9985,2025-11-07 22:32:00.898538615
2025-11-07 22:31:57.083759,-1,2025-11-07 22:32:00.906230923
2025-11-07 22:31:57.083759,-38,2025-11-07 22:32:00.913923231
2025-11-07 22:31:57.083759,-6913,2025-11-07 22:32:00.921615538
2025-11-07 22:31:57.083759,-1,2025-11-07 22:32:00.929307846
2025-11-07 22:31:57.083759,-30,2025-11-07 22:32:00.937000154
2025-11-07 22:31:57.083759,-8705,2025-11-07 22:32:00.944692462
2025-11-07 22:31:57.083759,-1,2025-11-07 22:32:00.952384769
2025-11-07 22:31:57.083759,-33,2025-11-07 22:32:00.960077077
2025-11-07 22:31:57.083759,-8705,2025-11-07 22:32:00.967769385
2025-11-07 22:31:57.083759,-1,2025-11-07 22:32:00.975461692
2025-11-07 22:31:57.083759,-40,2025-11-07 22:32:00.983154000
2025-11-07 22:31:57.083759,-10497,2025-11-07 22:32:00.990846308
2025-11-07 22:31:57.083759,-1,2025-11-07 22:32:00.998538615
2025-11-07 22:31:57.083759,-42,2025-11-07 22:32:01.006230923
2025-11-07 22:31:57.083759,-10497,2025-11-07 22:32:01.013923231
2025-11-07 22:31:57.083759,-1,2025-11-07 22:32:01.021615538
2025-11-07 22:31:57.083759,-38,2025-11-07 22:32:01.029307846
2025-11-07 22:31:57.083759,-9473,2025-11-07 22:32:01.037000154
2025-11-07 22:31:57.083759,-1,2025-11-07 22:32:01.044692462
2025-11-07 22:31:57.083759,-40,2025-11-07 22:32:01.052384769
2025-11-07 22:31:57.083759,-8705,2025-11-07 22:32:01.060077077
2025-11-07 22:31:57.083759,-1,2025-11-07 22:32:01.067769385
2025-11-07 22:31:57.083759,-28,2025-11-07 22:32:01.075461692
2025-11-07 22:31:57.083759,-3841,2025-11-07 22:32:01.083154000
2025-11-07 22:31:57.083759,-1,2025-11-07 22:32:01.090846308
2025-11-07 22:31:57.083759,-2,2025-11-07 22:32:01.098538615
2025-11-07 22:31:57.083759,767,2025-11-07 22:32:01.106230923
2025-11-07 22:31:57.083759,0,2025-11-07 22:32:01.113923231
2025-11-07 22:31:57.083759,-4,2025-11-07 22:32:01.121615538
2025-11-07 22:31:57.083759,-8705,2025-11-07 22:32:01.129307846
2025-11-07 22:31:57.083759,-1,2025-11-07 22:32:01.137000154
2025-11-07 22:31:57.083759,-64,2025-11-07 22:32:01.144692462
2025-11-07 22:31:57.083759,-16641,2025-11-07 22:32:01.152384769
2025-11-07 22:31:57.083759,-1,2025-11-07 22:32:01.160077077
2025-11-07 22:31:57.083759,-64,2025-11-07 22:32:01.167769385
2025-11-07 22:31:57.083759,-19201,2025-11-07 22:32:01.175461692
2025-11-07 22:31:57.083759,-1,2025-11-07 22:32:01.183154000
2025-11-07 22:31:57.083759,-68,2025-11-07 22:32:01.190846308
2025-11-07 22:31:57.083759,-10497,2025-11-07 22:32:01.198538615
2025-11-07 22:31:57.083759,-1,2025-11-07 22:32:01.206230923
2025-11-07 22:31:57.083759,-49,2025-11-07 22:32:01.213923231
2025-11-07 22:31:57.083759,-17921,2025-11-07 22:32:01.221615538
2025-11-07 22:31:57.083759,-1,2025-11-07 22:32:01.229307846
2025-11-07 22:31:57.083759,-71,2025-11-07 22:32:01.237000154
2025-11-07 22:31:57.083759,-16129,2025-11-07 22:32:01.244692462
2025-11-07 22:31:57.083759,-1,2025-11-07 22:32:01.252384769
2025-11-07 22:31:57.083759,-52,2025-11-07 22:32:01.260077077
2025-11-07 22:31:57.083759,-13057,2025-11-07 22:32:01.267769385
2025-11-07 22:31:57.083759,-1,2025-11-07 22:32:01.275461692
2025-11-07 22:31:57.083759,-40,2025-11-07 22:32:01.283154000
2025-11-07 22:31:57.083759,9983,2025-11-07 22:32:01.290846308
2025-11-07 22:31:57.083759,0,2025-11-07 22:32:01.298538615
2025-11-07 22:31:57.083759,159,2025-11-07 22:32:01.306230923
2025-11-07 22:31:57.083759,-21760,2025-11-07 22:32:01.313923230
2025-11-07 22:31:57.083759,0,2025-11-07 22:32:01.321615538
2025-11-07 22:31:57.083759,-190,2025-11-07 22:32:01.329307846
2025-11-07 22:31:57.083759,21503,2025-11-07 22:32:01.337000154
2025-11-07 22:31:57.083759,-4,2025-11-07 22:32:01.344692462
2025-11-07 22:31:57.083759,-1292,2025-11-07 22:32:01.352384769
2025-11-07 22:31:57.083759,-10497,2025-11-07 22:32:01.360077077
2025-11-07 22:31:57.083759,-4,2025-11-07 22:32:01.367769385
2025-11-07 22:31:57.083759,-325,2025-11-07 22:32:01.375461692
2025-11-07 22:31:57.083759,20223,2025-11-07 22:32:01.383154000
2025-11-07 22:31:57.083759,-1,2025-11-07 22:32:01.390846308
2025-11-07 22:31:57.083759,-7,2025-11-07 22:32:01.398538615
2025-11-07 22:31:57.083759,26879,2025-11-07 22:32:01.406230923
2025-11-07 22:31:57.083759,0,2025-11-07 22:32:01.413923231
2025-11-07 22:31:57.083759,78,2025-11-07 22:32:01.421615538
2025-11-07 22:31:57.083759,17408,2025-11-07 22:32:01.429307846
2025-11-07 22:31:57.083759,0,2025-11-07 22:32:01.437000154
2025-11-07 22:31:57.083759,87,2025-11-07 22:32:01.444692462
2025-11-07 22:31:57.083759,18688,2025-11-07 22:32:01.452384769
2025-11-07 22:31:57.083759,0,2025-11-07 22:32:01.460077077
2025-11-07 22:31:57.083759,54,2025-11-07 22:32:01.467769385
2025-11-07 22:31:57.083759,14592,2025-11-07 22:32:01.475461692
2025-11-07 22:31:57.083759,0,2025-11-07 22:32:01.483154000
2025-11-07 22:31:57.083759,57,2025-11-07 22:32:01.490846308
2025-11-07 22:31:57.083759,12544,2025-11-07 22:32:01.498538615
2025-11-07 22:31:57.083759,0,2025-11-07 22:32:01.506230923
2025-11-07 22:31:57.083759,40,2025-11-07 22:32:01.513923231
2025-11-07 22:31:57.633629,35,2025-11-07 22:32:01.521615538
2025-11-07 22:31:57.633629,7680,2025-11-07 22:32:01.529307846
2025-11-07 22:31:57.633629,0,2025-11-07 22:32:01.537000154
2025-11-07 22:31:57.633629,21,2025-11-07 22:32:01.544692462
2025-11-07 22:31:57.633629,1024,2025-11-07 22:32:01.552384769
2025-11-07 22:31:57.633629,0,2025-11-07 22:32:01.560077077
2025-11-07 22:31:57.633629,-21,2025-11-07 22:32:01.567769385
2025-11-07 22:31:57.633629,-10497,2025-11-07 22:32:01.575461692
2025-11-07 22:31:57.633629,-1,2025-11-07 22:32:01.583154000
2025-11-07 22:31:57.633629,-54,2025-11-07 22:32:01.590846308
2025-11-07 22:31:57.633629,-17153,2025-11-07 22:32:01.598538615
2025-11-07 22:31:57.633629,-1,2025-11-07 22:32:01.606230923
2025-11-07 22:31:57.633629,-83,2025-11-07 22:32:01.613923231
2025-11-07 22:31:57.633629,-20225,2025-11-07 22:32:01.621615538
2025-11-07 22:31:57.633629,-1,2025-11-07 22:32:01.629307846
2025-11-07 22:31:57.633629,-73,2025-11-07 22:32:01.637000154
2025-11-07 22:31:57.633629,-16129,2025-11-07 22:32:01.644692462
2025-11-07 22:31:57.633629,-1,2025-11-07 22:32:01.652384769
2025-11-07 22:31:57.633629,-45,2025-11-07 22:32:01.660077077
2025-11-07 22:31:57.633629,-6401,2025-11-07 22:32:01.667769385
2025-11-07 22:31:57.633629,-1,2025-11-07 22:32:01.675461692
2025-11-07 22:31:57.633629,-7,2025-11-07 22:32:01.683154000
2025-11-07 22:31:57.633629,3071,2025-11-07 22:32:01.690846308
2025-11-07 22:31:57.633629,0,2025-11-07 22:32:01.698538615
2025-11-07 22:31:57.633629,30,2025-11-07 22:32:01.706230923
2025-11-07 22:31:57.633629,11520,2025-11-07 22:32:01.713923231
2025-11-07 22:31:57.633629,0,2025-11-07 22:32:01.721615538
2025-11-07 22:31:57.633629,49,2025-11-07 22:32:01.729307846
2025-11-07 22:31:57.633629,12032,2025-11-07 22:32:01.737000154
2025-11-07 22:31:57.633629,0,2025-11-07 22:32:01.744692462
2025-11-07 22:31:57.633629,45,2025-11-07 22:32:01.752384769
2025-11-07 22:31:57.633629,13312,2025-11-07 22:32:01.760077077
2025-11-07 22:31:57.633629,0,2025-11-07 22:32:01.767769385
2025-11-07 22:31:57.633629,52,2025-11-07 22:32:01.775461692
2025-11-07 22:31:57.633629,10752,2025-11-07 22:32:01.783154000
2025-11-07 22:31:57.633629,0,2025-11-07 22:32:01.790846308
2025-11-07 22:31:57.633629,33,2025-11-07 22:32:01.798538615
2025-11-07 22:31:57.633629,8448,2025-11-07 22:32:01.806230923
2025-11-07 22:31:57.633629,0,2025-11-07 22:32:01.813923231
2025-11-07 22:31:57.633629,30,2025-11-07 22:32:01.821615538
2025-11-07 22:31:57.633629,3584,2025-11-07 22:32:01.829307846
2025-11-07 22:31:57.633629,0,2025-11-07 22:32:01.837000154
2025-11-07 22:31:57.633629,2,2025-11-07 22:32:01.844692462
2025-11-07 22:31:57.633629,1024,2025-11-07 22:32:01.852384769
2025-11-07 22:31:57.633629,0,2025-11-07 22:32:01.860077077
2025-11-07 22:31:57.633629,4,2025-11-07 22:32:01.867769385
2025-11-07 22:31:57.633629,-1792,2025-11-07 22:32:01.875461692
2025-11-07 22:31:57.633629,-1,2025-11-07 22:32:01.883154000
2025-11-07 22:31:57.633629,-14,2025-11-07 22:32:01.890846308
2025-11-07 22:31:57.633629,-2561,2025-11-07 22:32:01.898538615
2025-11-07 22:31:57.633629,-1,2025-11-07 22:32:01.906230923
2025-11-07 22:31:57.633629,-7,2025-11-07 22:32:01.913923231
2025-11-07 22:31:57.633629,-1537,2025-11-07 22:32:01.921615538
2025-11-07 22:31:57.633629,-1,2025-11-07 22:32:01.929307846
2025-11-07 22:31:57.633629,-9,2025-11-07 22:32:01.937000154
2025-11-07 22:31:57.633629,-2049,2025-11-07 22:32:01.944692462
2025-11-07 22:31:57.633629,-1,2025-11-07 22:32:01.952384769
2025-11-07 22:31:57.633629,-9,2025-11-07 22:32:01.960077077
2025-11-07 22:31:57.633629,-2049,2025-11-07 22:32:01.967769385
2025-11-07 22:31:57.633629,-1,2025-11-07 22:32:01.975461692
2025-11-07 22:31:57.633629,-7,2025-11-07 22:32:01.983154000
2025-11-07 22:31:57.633629,-2049,2025-11-07 22:32:01.990846308
2025-11-07 22:31:57.633629,-1,2025-11-07 22:32:01.998538615
2025-11-07 22:31:57.633629,-7,2025-11-07 22:32:02.006230923
2025-11-07 22:31:57.633629,1279,2025-11-07 22:32:02.013923231
2025-11-07 22:31:57.633629,0,2025-11-07 22:32:02.021615538
2025-11-07 22:31:57.633629,16,2025-11-07 22:32:02.029307846
2025-11-07 22:31:57.633629,5888,2025-11-07 22:32:02.037000154
2025-11-07 22:31:57.633629,0,2025-11-07 22:32:02.044692462
2025-11-07 22:31:57.633629,23,2025-11-07 22:32:02.052384769
2025-11-07 22:31:57.633629,2304,2025-11-07 22:32:02.060077077
2025-11-07 22:31:57.633629,0,2025-11-07 22:32:02.067769385
2025-11-07 22:31:57.633629,-9,2025-11-07 22:32:02.075461692
2025-11-07 22:31:57.633629,-6401,2025-11-07 22:32:02.083154000
2025-11-07 22:31:57.633629,-1,2025-11-07 22:32:02.090846308
2025-11-07 22:31:57.633629,-35,2025-11-07 22:32:02.098538615
2025-11-07 22:31:57.633629,-9985,2025-11-07 22:32:02.106230923
2025-11-07 22:31:57.633629,-1,2025-11-07 22:32:02.113923231
2025-11-07 22:31:57.633629,-47,2025-11-07 22:32:02.121615538
2025-11-07 22:31:57.633629,-9473,2025-11-07 22:32:02.129307846
2025-11-07 22:31:57.633629,-1,2025-11-07 22:32:02.137000154
2025-11-07 22:31:57.633629,-19,2025-11-07 22:32:02.144692462
2025-11-07 22:31:57.633629,-6913,2025-11-07 22:32:02.152384769
2025-11-07 22:31:57.633629,-1,2025-11-07 22:32:02.160077077
2025-11-07 22:31:57.633629,-40,2025-11-07 22:32:02.167769385
2025-11-07 22:31:57.633629,-7425,2025-11-07 22:32:02.175461692
2025-11-07 22:31:57.633629,-1,2025-11-07 22:32:02.183154000
2025-11-07 22:31:57.633629,-28,2025-11-07 22:32:02.190846308
2025-11-07 22:31:57.633629,-10497,2025-11-07 22:32:02.198538615
2025-11-07 22:31:57.633629,-1,2025-11-07 22:32:02.206230923
2025-11-07 22:31:57.633629,-38,2025-11-07 22:32:02.213923231
2025-11-07 22:31:57.633629,767,2025-11-07 22:32:02.221615538
2025-11-07 22:31:57.633629,0,2025-11-07 22:32:02.229307846
2025-11-07 22:31:57.633629,95,2025-11-07 22:32:02.237000154
2025-11-07 22:31:57.633629,-13312,2025-11-07 22:32:02.244692462
2025-11-07 22:31:57.633629,0,2025-11-07 22:32:02.252384769
2025-11-07 22:31:57.633629,180,2025-11-07 22:32:02.260077077
2025-11-07 22:31:57.633629,5376,2025-11-07 22:32:02.267769385
2025-11-07 22:31:57.633629,-1,2025-11-07 22:32:02.275461692
2025-11-07 22:31:57.633629,-941,2025-11-07 22:32:02.283154000
2025-11-07 22:31:57.633629,-19201,2025-11-07 22:32:02.290846308
2025-11-07 22:31:57.633629,-5,2025-11-07 22:32:02.298538615
2025-11-07 22:31:57.633629,-596,2025-11-07 22:32:02.306230923
2025-11-07 22:31:57.633629,-8193,2025-11-07 22:32:02.313923230
2025-11-07 22:31:57.633629,-2,2025-11-07 22:32:02.321615538
2025-11-07 22:31:57.633629,-187,2025-11-07 22:32:02.329307846
2025-11-07 22:31:57.633629,9215,2025-11-07 22:32:02.337000154
2025-11-07 22:31:57.633629,0,2025-11-07 22:32:02.344692462
2025-11-07 22:31:57.633629,128,2025-11-07 22:32:02.352384769
2025-11-07 22:31:58.183394,76,2025-11-07 22:32:02.360077077
2025-11-07 22:31:58.183394,21760,2025-11-07 22:32:02.367769385
2025-11-07 22:31:58.183394,0,2025-11-07 22:32:02.375461692
2025-11-07 22:31:58.183394,106,2025-11-07 22:32:02.383154000
2025-11-07 22:31:58.183394,20480,2025-11-07 22:32:02.390846308
2025-11-07 22:31:58.183394,0,2025-11-07 22:32:02.398538615
2025-11-07 22:31:58.183394,64,2025-11-07 22:32:02.406230923
2025-11-07 22:31:58.183394,17408,2025-11-07 22:32:02.413923231
2025-11-07 22:31:58.183394,0,2025-11-07 22:32:02.421615538
2025-11-07 22:31:58.183394,61,2025-11-07 22:32:02.429307846
2025-11-07 22:31:58.183394,13824,2025-11-07 22:32:02.437000154
2025-11-07 22:31:58.183394,0,2025-11-07 22:32:02.444692462
2025-11-07 22:31:58.183394,57,2025-11-07 22:32:02.452384769
2025-11-07 22:31:58.183394,13312,2025-11-07 22:32:02.460077077
2025-11-07 22:31:58.183394,0,2025-11-07 22:32:02.467769385
2025-11-07 22:31:58.183394,33,2025-11-07 22:32:02.475461692
2025-11-07 22:31:58.183394,5376,2025-11-07 22:32:02.483154000
2025-11-07 22:31:58.183394,0,2025-11-07 22:32:02.490846308
2025-11-07 22:31:58.183394,16,2025-11-07 22:32:02.498538615
2025-11-07 22:31:58.183394,512,2025-11-07 22:32:02.506230923
2025-11-07 22:31:58.183394,0,2025-11-07 22:32:02.513923231
2025-11-07 22:31:58.183394,-16,2025-11-07 22:32:02.521615538
2025-11-07 22:31:58.183394,-6913,2025-11-07 22:32:02.529307846
2025-11-07 22:31:58.183394,-1,2025-11-07 22:32:02.537000154
2025-11-07 22:31:58.183394,-38,2025-11-07 22:32:02.544692462
2025-11-07 22:31:58.183394,-13057,2025-11-07 22:32:02.552384769
2025-11-07 22:31:58.183394,-1,2025-11-07 22:32:02.560077077
2025-11-07 22:31:58.183394,-57,2025-11-07 22:32:02.567769385
2025-11-07 22:31:58.183394,-11265,2025-11-07 22:32:02.575461692
2025-11-07 22:31:58.183394,-1,2025-11-07 22:32:02.583154000
2025-11-07 22:31:58.183394,-26,2025-11-07 22:32:02.590846308
2025-11-07 22:31:58.183394,-2561,2025-11-07 22:32:02.598538615
2025-11-07 22:31:58.183394,-1,2025-11-07 22:32:02.606230923
2025-11-07 22:31:58.183394,0,2025-11-07 22:32:02.613923231
2025-11-07 22:31:58.183394,5376,2025-11-07 22:32:02.621615538
2025-11-07 22:31:58.183394,0,2025-11-07 22:32:02.629307846
2025-11-07 22:31:58.183394,40,2025-11-07 22:32:02.637000154
2025-11-07 22:31:58.183394,12544,2025-11-07 22:32:02.644692462
2025-11-07 22:31:58.183394,0,2025-11-07 22:32:02.652384769
2025-11-07 22:31:58.183394,52,2025-11-07 22:32:02.660077077
2025-11-07 22:31:58.183394,14592,2025-11-07 22:32:02.667769385
2025-11-07 22:31:58.183394,0,2025-11-07 22:32:02.675461692
2025-11-07 22:31:58.183394,61,2025-11-07 22:32:02.683154000
2025-11-07 22:31:58.183394,13824,2025-11-07 22:32:02.690846308
2025-11-07 22:31:58.183394,0,2025-11-07 22:32:02.698538615
2025-11-07 22:31:58.183394,57,2025-11-07 22:32:02.706230923
2025-11-07 22:31:58.183394,15616,2025-11-07 22:32:02.713923231
2025-11-07 22:31:58.183394,0,2025-11-07 22:32:02.721615538
2025-11-07 22:31:58.183394,54,2025-11-07 22:32:02.729307846
2025-11-07 22:31:58.183394,12032,2025-11-07 22:32:02.737000154
2025-11-07 22:31:58.183394,0,2025-11-07 22:32:02.744692462
2025-11-07 22:31:58.183394,42,2025-11-07 22:32:02.752384769
2025-11-07 22:31:58.183394,7680,2025-11-07 22:32:02.760077077
2025-11-07 22:31:58.183394,0,2025-11-07 22:32:02.767769385
2025-11-07 22:31:58.183394,23,2025-11-07 22:32:02.775461692
2025-11-07 22:31:58.183394,7168,2025-11-07 22:32:02.783154000
2025-11-07 22:31:58.183394,0,2025-11-07 22:32:02.790846308
2025-11-07 22:31:58.183394,26,2025-11-07 22:32:02.798538615
2025-11-07 22:31:58.183394,3584,2025-11-07 22:32:02.806230923
2025-11-07 22:31:58.183394,0,2025-11-07 22:32:02.813923231
2025-11-07 22:31:58.183394,11,2025-11-07 22:32:02.821615538
2025-11-07 22:31:58.183394,1792,2025-11-07 22:32:02.829307846
2025-11-07 22:31:58.183394,0,2025-11-07 22:32:02.837000154
2025-11-07 22:31:58.183394,0,2025-11-07 22:32:02.844692462
2025-11-07 22:31:58.183394,1024,2025-11-07 22:32:02.852384769
2025-11-07 22:31:58.183394,0,2025-11-07 22:32:02.860077077
2025-11-07 22:31:58.183394,14,2025-11-07 22:32:02.867769385
2025-11-07 22:31:58.183394,2816,2025-11-07 22:32:02.875461692
2025-11-07 22:31:58.183394,0,2025-11-07 22:32:02.883154000
2025-11-07 22:31:58.183394,2,2025-11-07 22:32:02.890846308
2025-11-07 22:31:58.183394,512,2025-11-07 22:32:02.898538615
2025-11-07 22:31:58.183394,0,2025-11-07 22:32:02.906230923
2025-11-07 22:31:58.183394,14,2025-11-07 22:32:02.913923231
2025-11-07 22:31:58.183394,6656,2025-11-07 22:32:02.921615538
2025-11-07 22:31:58.183394,0,2025-11-07 22:32:02.929307846
2025-11-07 22:31:58.183394,38,2025-11-07 22:32:02.937000154
2025-11-07 22:31:58.183394,11520,2025-11-07 22:32:02.944692462
2025-11-07 22:31:58.183394,0,2025-11-07 22:32:02.952384769
2025-11-07 22:31:58.183394,38,2025-11-07 22:32:02.960077077
2025-11-07 22:31:58.183394,5376,2025-11-07 22:32:02.967769385
2025-11-07 22:31:58.183394,0,2025-11-07 22:32:02.975461692
2025-11-07 22:31:58.183394,0,2025-11-07 22:32:02.983154000
2025-11-07 22:31:58.183394,-4096,2025-11-07 22:32:02.990846308
2025-11-07 22:31:58.183394,-1,2025-11-07 22:32:02.998538615
2025-11-07 22:31:58.183394,-19,2025-11-07 22:32:03.006230923
2025-11-07 22:31:58.183394,-6401,2025-11-07 22:32:03.013923231
2025-11-07 22:31:58.183394,-1,2025-11-07 22:32:03.021615538
2025-11-07 22:31:58.183394,-40,2025-11-07 22:32:03.029307846
2025-11-07 22:31:58.183394,-6913,2025-11-07 22:32:03.037000154
2025-11-07 22:31:58.183394,-1,2025-11-07 22:32:03.044692462
2025-11-07 22:31:58.183394,-14,2025-11-07 22:32:03.052384769
2025-11-07 22:31:58.183394,-5633,2025-11-07 22:32:03.060077077
2025-11-07 22:31:58.183394,-1,2025-11-07 22:32:03.067769385
2025-11-07 22:31:58.183394,-28,2025-11-07 22:32:03.075461692
2025-11-07 22:31:58.183394,-5121,2025-11-07 22:32:03.083154000
2025-11-07 22:31:58.183394,-1,2025-11-07 22:32:03.090846308
2025-11-07 22:31:58.183394,-26,2025-11-07 22:32:03.098538615
2025-11-07 22:31:58.183394,-6913,2025-11-07 22:32:03.106230923
2025-11-07 22:31:58.183394,-1,2025-11-07 22:32:03.113923231
2025-11-07 22:31:58.183394,-21,2025-11-07 22:32:03.121615538
2025-11-07 22:31:58.183394,3839,2025-11-07 22:32:03.129307846
2025-11-07 22:31:58.183394,0,2025-11-07 22:32:03.137000154
2025-11-07 22:31:58.183394,111,2025-11-07 22:32:03.144692462
2025-11-07 22:31:58.183394,-8448,2025-11-07 22:32:03.152384769
2025-11-07 22:31:58.183394,0,2025-11-07 22:32:03.160077077
2025-11-07 22:31:58.183394,182,2025-11-07 22:32:03.167769385
2025-11-07 22:31:58.183394,-3072,2025-11-07 22:32:03.175461692
2025-11-07 22:31:58.183394,-2,2025-11-07 22:32:03.183154000
2025-11-07 22:31:58.183394,-983,2025-11-07 22:32:03.190846308
2025-11-07 22:31:58.683227,-1112,2025-11-07 22:32:03.198538615
2025-11-07 22:31:58.683227,-18689,2025-11-07 22:32:03.206230923
2025-11-07 22:31:58.683227,-3,2025-11-07 22:32:03.213923231
2025-11-07 22:31:58.683227,-273,2025-11-07 22:32:03.221615538
2025-11-07 22:31:58.683227,26879,2025-11-07 22:32:03.229307846
2025-11-07 22:31:58.683227,-1,2025-11-07 22:32:03.237000154
2025-11-07 22:31:58.683227,68,2025-11-07 22:32:03.244692462
2025-11-07 22:31:58.683227,-27904,2025-11-07 22:32:03.252384769
2025-11-07 22:31:58.683227,0,2025-11-07 22:32:03.260077077
2025-11-07 22:31:58.683227,99,2025-11-07 22:32:03.267769385
2025-11-07 22:31:58.683227,29184,2025-11-07 22:32:03.275461692
2025-11-07 22:31:58.683227,0,2025-11-07 22:32:03.283154000
2025-11-07 22:31:58.683227,130,2025-11-07 22:32:03.290846308
2025-11-07 22:31:58.683227,26112,2025-11-07 22:32:03.298538615
2025-11-07 22:31:58.683227,0,2025-11-07 22:32:03.306230923
2025-11-07 22:31:58.683227,90,2025-11-07 22:32:03.313923230
2025-11-07 22:31:58.683227,24320,2025-11-07 22:32:03.321615538
2025-11-07 22:31:58.683227,0,2025-11-07 22:32:03.329307846
2025-11-07 22:31:58.683227,95,2025-11-07 22:32:03.337000154
2025-11-07 22:31:58.683227,25344,2025-11-07 22:32:03.344692462
2025-11-07 22:31:58.683227,0,2025-11-07 22:32:03.352384769
2025-11-07 22:31:58.683227,99,2025-11-07 22:32:03.360077077
2025-11-07 22:31:58.683227,19968,2025-11-07 22:32:03.367769385
2025-11-07 22:31:58.683227,0,2025-11-07 22:32:03.375461692
2025-11-07 22:31:58.683227,61,2025-11-07 22:32:03.383154000
2025-11-07 22:31:58.683227,15616,2025-11-07 22:32:03.390846308
2025-11-07 22:31:58.683227,0,2025-11-07 22:32:03.398538615
2025-11-07 22:31:58.683227,52,2025-11-07 22:32:03.406230923
2025-11-07 22:31:58.683227,7680,2025-11-07 22:32:03.413923231
2025-11-07 22:31:58.683227,0,2025-11-07 22:32:03.421615538
2025-11-07 22:31:58.683227,7,2025-11-07 22:32:03.429307846
2025-11-07 22:31:58.683227,-4096,2025-11-07 22:32:03.437000154
2025-11-07 22:31:58.683227,-1,2025-11-07 22:32:03.444692462
2025-11-07 22:31:58.683227,-38,2025-11-07 22:32:03.452384769
2025-11-07 22:31:58.683227,-11777,2025-11-07 22:32:03.460077077
2025-11-07 22:31:58.683227,-1,2025-11-07 22:32:03.467769385
2025-11-07 22:31:58.683227,-38,2025-11-07 22:32:03.475461692
2025-11-07 22:31:58.683227,-6913,2025-11-07 22:32:03.483154000
2025-11-07 22:31:58.683227,-1,2025-11-07 22:32:03.490846308
2025-11-07 22:31:58.683227,-19,2025-11-07 22:32:03.498538615
2025-11-07 22:31:58.683227,-1537,2025-11-07 22:32:03.506230923
2025-11-07 22:31:58.683227,-1,2025-11-07 22:32:03.513923231
2025-11-07 22:31:58.683227,11,2025-11-07 22:32:03.521615538
2025-11-07 22:31:58.683227,7680,2025-11-07 22:32:03.529307846
2025-11-07 22:31:58.683227,0,2025-11-07 22:32:03.537000154
2025-11-07 22:31:58.683227,45,2025-11-07 22:32:03.544692462
2025-11-07 22:31:58.683227,14592,2025-11-07 22:32:03.552384769
2025-11-07 22:31:58.683227,0,2025-11-07 22:32:03.560077077
2025-11-07 22:31:58.683227,64,2025-11-07 22:32:03.567769385
2025-11-07 22:31:58.683227,16384,2025-11-07 22:32:03.575461692
2025-11-07 22:31:58.683227,0,2025-11-07 22:32:03.583154000
2025-11-07 22:31:58.683227,66,2025-11-07 22:32:03.590846308
2025-11-07 22:31:58.683227,17408,2025-11-07 22:32:03.598538615
2025-11-07 22:31:58.683227,0,2025-11-07 22:32:03.606230923
2025-11-07 22:31:58.683227,73,2025-11-07 22:32:03.613923231
2025-11-07 22:31:58.683227,18688,2025-11-07 22:32:03.621615538
2025-11-07 22:31:58.683227,0,2025-11-07 22:32:03.629307846
2025-11-07 22:31:58.683227,66,2025-11-07 22:32:03.637000154
2025-11-07 22:31:58.683227,13824,2025-11-07 22:32:03.644692462
2025-11-07 22:31:58.683227,0,2025-11-07 22:32:03.652384769
2025-11-07 22:31:58.683227,47,2025-11-07 22:32:03.660077077
2025-11-07 22:31:58.683227,11520,2025-11-07 22:32:03.667769385
2025-11-07 22:31:58.683227,0,2025-11-07 22:32:03.675461692
2025-11-07 22:31:58.683227,38,2025-11-07 22:32:03.683154000
2025-11-07 22:31:58.683227,7168,2025-11-07 22:32:03.690846308
2025-11-07 22:31:58.683227,0,2025-11-07 22:32:03.698538615
2025-11-07 22:31:58.683227,28,2025-11-07 22:32:03.706230923
2025-11-07 22:31:58.683227,6656,2025-11-07 22:32:03.713923231
2025-11-07 22:31:58.683227,0,2025-11-07 22:32:03.721615538
2025-11-07 22:31:58.683227,16,2025-11-07 22:32:03.729307846
2025-11-07 22:31:58.683227,2816,2025-11-07 22:32:03.737000154
2025-11-07 22:31:58.683227,0,2025-11-07 22:32:03.744692462
2025-11-07 22:31:58.683227,9,2025-11-07 22:32:03.752384769
2025-11-07 22:31:58.683227,2304,2025-11-07 22:32:03.760077077
2025-11-07 22:31:58.683227,0,2025-11-07 22:32:03.767769385
2025-11-07 22:31:58.683227,7,2025-11-07 22:32:03.775461692
2025-11-07 22:31:58.683227,1792,2025-11-07 22:32:03.783154000
2025-11-07 22:31:58.683227,0,2025-11-07 22:32:03.790846308
2025-11-07 22:31:58.683227,9,2025-11-07 22:32:03.798538615
2025-11-07 22:31:58.683227,2304,2025-11-07 22:32:03.806230923
2025-11-07 22:31:58.683227,0,2025-11-07 22:32:03.813923231
2025-11-07 22:31:58.683227,9,2025-11-07 22:32:03.821615538
2025-11-07 22:31:58.683227,2304,2025-11-07 22:32:03.829307846
2025-11-07 22:31:58.683227,0,2025-11-07 22:32:03.837000154
2025-11-07 22:31:58.683227,14,2025-11-07 22:32:03.844692462
2025-11-07 22:31:58.683227,6656,2025-11-07 22:32:03.852384769
2025-11-07 22:31:58.683227,0,2025-11-07 22:32:03.860077077
2025-11-07 22:31:58.683227,38,2025-11-07 22:32:03.867769385
2025-11-07 22:31:58.683227,11520,2025-11-07 22:32:03.875461692
2025-11-07 22:31:58.683227,0,2025-11-07 22:32:03.883154000
2025-11-07 22:31:58.683227,38,2025-11-07 22:32:03.890846308
2025-11-07 22:31:58.683227,3584,2025-11-07 22:32:03.898538615
2025-11-07 22:31:58.683227,0,2025-11-07 22:32:03.906230923
2025-11-07 22:31:58.683227,-7,2025-11-07 22:32:03.913923231
2025-11-07 22:31:58.683227,-3841,2025-11-07 22:32:03.921615538
2025-11-07 22:31:58.683227,-1,2025-11-07 22:32:03.929307846
2025-11-07 22:31:58.683227,-26,2025-11-07 22:32:03.937000154
2025-11-07 22:31:58.683227,-8705,2025-11-07 22:32:03.944692462
2025-11-07 22:31:58.683227,-1,2025-11-07 22:32:03.952384769
2025-11-07 22:31:58.683227,-26,2025-11-07 22:32:03.960077077
2025-11-07 22:31:58.683227,-257,2025-11-07 22:32:03.967769385
2025-11-07 22:31:58.683227,-1,2025-11-07 22:32:03.975461692
2025-11-07 22:31:58.683227,-7,2025-11-07 22:32:03.983154000
2025-11-07 22:31:58.683227,-5121,2025-11-07 22:32:03.990846308
2025-11-07 22:31:58.683227,-1,2025-11-07 22:32:03.998538615
2025-11-07 22:31:58.683227,-19,2025-11-07 22:32:04.006230923
2025-11-07 22:31:58.683227,-4609,2025-11-07 22:32:04.013923231
2025-11-07 22:31:58.683227,-1,2025-11-07 22:32:04.021615538
2025-11-07 22:31:58.683227,-21,2025-11-07 22:32:04.029307846
2025-11-07 22:31:59.283225,-14,2025-11-07 22:32:04.037000154
2025-11-07 22:31:59.283225,1279,2025-11-07 22:32:04.044692462
2025-11-07 22:31:59.283225,0,2025-11-07 22:32:04.052384769
2025-11-07 22:31:59.283225,68,2025-11-07 22:32:04.060077077
2025-11-07 22:31:59.283225,-17664,2025-11-07 22:32:04.067769385
2025-11-07 22:31:59.283225,0,2025-11-07 22:32:04.075461692
2025-11-07 22:31:59.283225,242,2025-11-07 22:32:04.083154000
2025-11-07 22:31:59.283225,-3584,2025-11-07 22:32:04.090846308
2025-11-07 22:31:59.283225,-1,2025-11-07 22:32:04.098538615
2025-11-07 22:31:59.283225,-746,2025-11-07 22:32:04.106230923
2025-11-07 22:31:59.283225,255,2025-11-07 22:32:04.113923231
2025-11-07 22:31:59.283225,-5,2025-11-07 22:32:04.121615538
2025-11-07 22:31:59.283225,-924,2025-11-07 22:32:04.129307846
2025-11-07 22:31:59.283225,-24833,2025-11-07 22:32:04.137000154
2025-11-07 22:31:59.283225,-2,2025-11-07 22:32:04.144692462
2025-11-07 22:31:59.283225,-154,2025-11-07 22:32:04.152384769
2025-11-07 22:31:59.283225,4351,2025-11-07 22:32:04.160077077
2025-11-07 22:31:59.283225,0,2025-11-07 22:32:04.167769385
2025-11-07 22:31:59.283225,161,2025-11-07 22:32:04.175461692
2025-11-07 22:31:59.283225,-30464,2025-11-07 22:32:04.183154000
2025-11-07 22:31:59.283225,0,2025-11-07 22:32:04.190846308
2025-11-07 22:31:59.283225,116,2025-11-07 22:32:04.198538615
2025-11-07 22:31:59.283225,-27904,2025-11-07 22:32:04.206230923
2025-11-07 22:31:59.283225,0,2025-11-07 22:32:04.213923231
2025-11-07 22:31:59.283225,142,2025-11-07 22:32:04.221615538
2025-11-07 22:31:59.283225,30976,2025-11-07 22:32:04.229307846
2025-11-07 22:31:59.283225,0,2025-11-07 22:32:04.237000154
2025-11-07 22:31:59.283225,116,2025-11-07 22:32:04.244692462
2025-11-07 22:31:59.283225,27904,2025-11-07 22:32:04.252384769
2025-11-07 22:31:59.283225,0,2025-11-07 22:32:04.260077077
2025-11-07 22:31:59.283225,99,2025-11-07 22:32:04.267769385
2025-11-07 22:31:59.283225,25344,2025-11-07 22:32:04.275461692
2025-11-07 22:31:59.283225,0,2025-11-07 22:32:04.283154000
2025-11-07 22:31:59.283225,97,2025-11-07 22:32:04.290846308
2025-11-07 22:31:59.283225,21248,2025-11-07 22:32:04.298538615
2025-11-07 22:31:59.283225,0,2025-11-07 22:32:04.306230923
2025-11-07 22:31:59.283225,71,2025-11-07 22:32:04.313923230
2025-11-07 22:31:59.283225,16384,2025-11-07 22:32:04.321615538
2025-11-07 22:31:59.283225,0,2025-11-07 22:32:04.329307846
2025-11-07 22:31:59.283225,49,2025-11-07 22:32:04.337000154
2025-11-07 22:31:59.283225,8448,2025-11-07 22:32:04.344692462
2025-11-07 22:31:59.283225,0,2025-11-07 22:32:04.352384769
2025-11-07 22:31:59.283225,14,2025-11-07 22:32:04.360077077
2025-11-07 22:31:59.283225,-2816,2025-11-07 22:32:04.367769385
2025-11-07 22:31:59.283225,-1,2025-11-07 22:32:04.375461692
2025-11-07 22:31:59.283225,-28,2025-11-07 22:32:04.383154000
2025-11-07 22:31:59.283225,-6401,2025-11-07 22:32:04.390846308
2025-11-07 22:31:59.283225,-1,2025-11-07 22:32:04.398538615
2025-11-07 22:31:59.283225,-19,2025-11-07 22:32:04.406230923
2025-11-07 22:31:59.283225,-3329,2025-11-07 22:32:04.413923231
2025-11-07 22:31:59.283225,-1,2025-11-07 22:32:04.421615538
2025-11-07 22:31:59.283225,-2,2025-11-07 22:32:04.429307846
2025-11-07 22:31:59.283225,4351,2025-11-07 22:32:04.437000154
2025-11-07 22:31:59.283225,0,2025-11-07 22:32:04.444692462
2025-11-07 22:31:59.283225,35,2025-11-07 22:32:04.452384769
2025-11-07 22:31:59.283225,13312,2025-11-07 22:32:04.460077077
2025-11-07 22:31:59.283225,0,2025-11-07 22:32:04.467769385
2025-11-07 22:31:59.283225,59,2025-11-07 22:32:04.475461692
2025-11-07 22:31:59.283225,15104,2025-11-07 22:32:04.483154000
2025-11-07 22:31:59.283225,0,2025-11-07 22:32:04.490846308
2025-11-07 22:31:59.283225,64,2025-11-07 22:32:04.498538615
2025-11-07 22:31:59.283225,17408,2025-11-07 22:32:04.506230923
2025-11-07 22:31:59.283225,0,2025-11-07 22:32:04.513923231
2025-11-07 22:31:59.283225,73,2025-11-07 22:32:04.521615538
2025-11-07 22:31:59.283225,16896,2025-11-07 22:32:04.529307846
2025-11-07 22:31:59.283225,0,2025-11-07 22:32:04.537000154
2025-11-07 22:31:59.283225,57,2025-11-07 22:32:04.544692462
2025-11-07 22:31:59.283225,14592,2025-11-07 22:32:04.552384769
2025-11-07 22:31:59.283225,0,2025-11-07 22:32:04.560077077
2025-11-07 22:31:59.283225,59,2025-11-07 22:32:04.567769385
2025-11-07 22:31:59.283225,13312,2025-11-07 22:32:04.575461692
2025-11-07 22:31:59.283225,0,2025-11-07 22:32:04.583154000
2025-11-07 22:31:59.283225,38,2025-11-07 22:32:04.590846308
2025-11-07 22:31:59.283225,8448,2025-11-07 22:32:04.598538615
2025-11-07 22:31:59.283225,0,2025-11-07 22:32:04.606230923
2025-11-07 22:31:59.283225,30,2025-11-07 22:32:04.613923231
2025-11-07 22:31:59.283225,6656,2025-11-07 22:32:04.621615538
2025-11-07 22:31:59.283225,0,2025-11-07 22:32:04.629307846
2025-11-07 22:31:59.283225,19,2025-11-07 22:32:04.637000154
2025-11-07 22:31:59.283225,2816,2025-11-07 22:32:04.644692462
2025-11-07 22:31:59.283225,0,2025-11-07 22:32:04.652384769
2025-11-07 22:31:59.283225,7,2025-11-07 22:32:04.660077077
2025-11-07 22:31:59.283225,1024,2025-11-07 22:32:04.667769385
2025-11-07 22:31:59.283225,0,2025-11-07 22:32:04.675461692
2025-11-07 22:31:59.283225,7,2025-11-07 22:32:04.683154000
2025-11-07 22:31:59.283225,1792,2025-11-07 22:32:04.690846308
2025-11-07 22:31:59.283225,0,2025-11-07 22:32:04.698538615
2025-11-07 22:31:59.283225,4,2025-11-07 22:32:04.706230923
2025-11-07 22:31:59.283225,512,2025-11-07 22:32:04.713923231
2025-11-07 22:31:59.283225,0,2025-11-07 22:32:04.721615538
2025-11-07 22:31:59.283225,2,2025-11-07 22:32:04.729307846
2025-11-07 22:31:59.283225,512,2025-11-07 22:32:04.737000154
2025-11-07 22:31:59.283225,0,2025-11-07 22:32:04.744692462
2025-11-07 22:31:59.283225,-2,2025-11-07 22:32:04.752384769
2025-11-07 22:31:59.283225,255,2025-11-07 22:32:04.760077077
2025-11-07 22:31:59.283225,0,2025-11-07 22:32:04.767769385
2025-11-07 22:31:59.283225,2,2025-11-07 22:32:04.775461692
2025-11-07 22:31:59.283225,1024,2025-11-07 22:32:04.783154000
2025-11-07 22:31:59.283225,0,2025-11-07 22:32:04.790846308
2025-11-07 22:31:59.283225,14,2025-11-07 22:32:04.798538615
