timestamp,ecg,reconstructed_time
2025-11-07 15:02:55.035869,11,2025-11-07 15:02:55.035869000
2025-11-07 15:02:55.035869,10240,2025-11-07 15:02:55.043561308
2025-11-07 15:02:55.035869,0,2025-11-07 15:02:55.051253615
2025-11-07 15:02:55.035869,66,2025-11-07 15:02:55.058945923
2025-11-07 15:02:55.035869,19456,2025-11-07 15:02:55.066638231
2025-11-07 15:02:55.035869,0,2025-11-07 15:02:55.074330538
2025-11-07 15:02:55.035869,85,2025-11-07 15:02:55.082022846
2025-11-07 15:02:55.035869,20480,2025-11-07 15:02:55.089715154
2025-11-07 15:02:55.035869,0,2025-11-07 15:02:55.097407462
2025-11-07 15:02:55.035869,59,2025-11-07 15:02:55.105099769
2025-11-07 15:02:55.035869,10752,2025-11-07 15:02:55.112792077
2025-11-07 15:02:55.035869,0,2025-11-07 15:02:55.120484385
2025-11-07 15:02:55.035869,57,2025-11-07 15:02:55.128176692
2025-11-07 15:02:55.035869,21248,2025-11-07 15:02:55.135869000
2025-11-07 15:02:55.035869,0,2025-11-07 15:02:55.143561308
2025-11-07 15:02:55.035869,61,2025-11-07 15:02:55.151253615
2025-11-07 15:02:55.035869,11520,2025-11-07 15:02:55.158945923
2025-11-07 15:02:55.035869,0,2025-11-07 15:02:55.166638231
2025-11-07 15:02:55.035869,80,2025-11-07 15:02:55.174330538
2025-11-07 15:02:55.035869,4096,2025-11-07 15:02:55.182022846
2025-11-07 15:02:55.035869,0,2025-11-07 15:02:55.189715154
2025-11-07 15:02:55.035869,-237,2025-11-07 15:02:55.197407462
2025-11-07 15:02:55.035869,-9729,2025-11-07 15:02:55.205099769
2025-11-07 15:02:55.035869,-3,2025-11-07 15:02:55.212792077
2025-11-07 15:02:55.035869,-415,2025-11-07 15:02:55.220484385
2025-11-07 15:02:55.035869,26111,2025-11-07 15:02:55.228176692
2025-11-07 15:02:55.035869,2,2025-11-07 15:02:55.235869000
2025-11-07 15:02:55.035869,1627,2025-11-07 15:02:55.243561308
2025-11-07 15:02:55.035869,-25856,2025-11-07 15:02:55.251253615
2025-11-07 15:02:55.035869,5,2025-11-07 15:02:55.258945923
2025-11-07 15:02:55.035869,603,2025-11-07 15:02:55.266638231
2025-11-07 15:02:55.035869,-23040,2025-11-07 15:02:55.274330538
2025-11-07 15:02:55.035869,0,2025-11-07 15:02:55.282022846
2025-11-07 15:02:55.035869,38,2025-11-07 15:02:55.289715154
2025-11-07 15:02:55.035869,-26624,2025-11-07 15:02:55.297407462
2025-11-07 15:02:55.035869,-1,2025-11-07 15:02:55.305099769
2025-11-07 15:02:55.035869,-171,2025-11-07 15:02:55.312792077
2025-11-07 15:02:55.035869,28159,2025-11-07 15:02:55.320484385
2025-11-07 15:02:55.035869,-1,2025-11-07 15:02:55.328176692
2025-11-07 15:02:55.035869,-161,2025-11-07 15:02:55.335869000
2025-11-07 15:02:55.035869,19711,2025-11-07 15:02:55.343561308
2025-11-07 15:02:55.035869,-1,2025-11-07 15:02:55.351253615
2025-11-07 15:02:55.035869,-168,2025-11-07 15:02:55.358945923
2025-11-07 15:02:55.035869,22015,2025-11-07 15:02:55.366638231
2025-11-07 15:02:55.035869,-1,2025-11-07 15:02:55.374330538
2025-11-07 15:02:55.035869,-185,2025-11-07 15:02:55.382022846
2025-11-07 15:02:55.035869,16639,2025-11-07 15:02:55.389715154
2025-11-07 15:02:55.035869,-1,2025-11-07 15:02:55.397407462
2025-11-07 15:02:55.035869,-199,2025-11-07 15:02:55.405099769
2025-11-07 15:02:55.035869,11775,2025-11-07 15:02:55.412792077
2025-11-07 15:02:55.035869,-1,2025-11-07 15:02:55.420484385
2025-11-07 15:02:55.035869,-220,2025-11-07 15:02:55.428176692
2025-11-07 15:02:55.035869,6399,2025-11-07 15:02:55.435869000
2025-11-07 15:02:55.035869,-1,2025-11-07 15:02:55.443561308
2025-11-07 15:02:55.035869,-242,2025-11-07 15:02:55.451253615
2025-11-07 15:02:55.035869,4351,2025-11-07 15:02:55.458945923
2025-11-07 15:02:55.035869,-1,2025-11-07 15:02:55.466638231
2025-11-07 15:02:55.035869,-235,2025-11-07 15:02:55.474330538
2025-11-07 15:02:55.035869,9983,2025-11-07 15:02:55.482022846
2025-11-07 15:02:55.035869,-1,2025-11-07 15:02:55.489715154
2025-11-07 15:02:55.035869,-185,2025-11-07 15:02:55.497407462
2025-11-07 15:02:55.035869,26879,2025-11-07 15:02:55.505099769
2025-11-07 15:02:55.035869,-1,2025-11-07 15:02:55.512792077
2025-11-07 15:02:55.035869,-123,2025-11-07 15:02:55.520484385
2025-11-07 15:02:55.035869,-18433,2025-11-07 15:02:55.528176692
2025-11-07 15:02:55.035869,-1,2025-11-07 15:02:55.535869000
2025-11-07 15:02:55.035869,-16,2025-11-07 15:02:55.543561308
2025-11-07 15:02:55.035869,767,2025-11-07 15:02:55.551253615
2025-11-07 15:02:55.035869,0,2025-11-07 15:02:55.558945923
2025-11-07 15:02:55.035869,11,2025-11-07 15:02:55.566638230
2025-11-07 15:02:55.035869,10752,2025-11-07 15:02:55.574330538
2025-11-07 15:02:55.035869,0,2025-11-07 15:02:55.582022846
2025-11-07 15:02:55.035869,42,2025-11-07 15:02:55.589715154
2025-11-07 15:02:55.035869,4864,2025-11-07 15:02:55.597407462
2025-11-07 15:02:55.035869,0,2025-11-07 15:02:55.605099769
2025-11-07 15:02:55.035869,33,2025-11-07 15:02:55.612792077
2025-11-07 15:02:55.035869,18176,2025-11-07 15:02:55.620484385
2025-11-07 15:02:55.035869,0,2025-11-07 15:02:55.628176692
2025-11-07 15:02:55.035869,68,2025-11-07 15:02:55.635869000
2025-11-07 15:02:55.035869,9728,2025-11-07 15:02:55.643561308
2025-11-07 15:02:55.035869,0,2025-11-07 15:02:55.651253615
2025-11-07 15:02:55.035869,42,2025-11-07 15:02:55.658945923
2025-11-07 15:02:55.035869,15616,2025-11-07 15:02:55.666638231
2025-11-07 15:02:55.035869,0,2025-11-07 15:02:55.674330538
2025-11-07 15:02:55.035869,47,2025-11-07 15:02:55.682022846
2025-11-07 15:02:55.035869,8448,2025-11-07 15:02:55.689715154
2025-11-07 15:02:55.035869,0,2025-11-07 15:02:55.697407462
2025-11-07 15:02:55.035869,42,2025-11-07 15:02:55.705099769
2025-11-07 15:02:55.035869,12544,2025-11-07 15:02:55.712792077
2025-11-07 15:02:55.035869,0,2025-11-07 15:02:55.720484385
2025-11-07 15:02:55.035869,47,2025-11-07 15:02:55.728176692
2025-11-07 15:02:55.035869,8960,2025-11-07 15:02:55.735869000
2025-11-07 15:02:55.035869,0,2025-11-07 15:02:55.743561308
2025-11-07 15:02:55.035869,35,2025-11-07 15:02:55.751253615
2025-11-07 15:02:55.035869,8448,2025-11-07 15:02:55.758945923
2025-11-07 15:02:55.035869,0,2025-11-07 15:02:55.766638231
2025-11-07 15:02:55.035869,23,2025-11-07 15:02:55.774330538
2025-11-07 15:02:55.035869,6656,2025-11-07 15:02:55.782022846
2025-11-07 15:02:55.035869,0,2025-11-07 15:02:55.789715154
2025-11-07 15:02:55.035869,23,2025-11-07 15:02:55.797407462
2025-11-07 15:02:55.035869,512,2025-11-07 15:02:55.805099769
2025-11-07 15:02:55.035869,0,2025-11-07 15:02:55.812792077
2025-11-07 15:02:55.035869,2,2025-11-07 15:02:55.820484385
2025-11-07 15:02:55.035869,5376,2025-11-07 15:02:55.828176692
2025-11-07 15:02:55.035869,0,2025-11-07 15:02:55.835869000
2025-11-07 15:02:55.035869,26,2025-11-07 15:02:55.843561308
2025-11-07 15:02:55.035869,3584,2025-11-07 15:02:55.851253615
2025-11-07 15:02:55.035869,0,2025-11-07 15:02:55.858945923
2025-11-07 15:02:55.035869,7,2025-11-07 15:02:55.866638231
2025-11-07 15:02:55.594663,11,2025-11-07 15:02:55.874330538
2025-11-07 15:02:55.594663,3584,2025-11-07 15:02:55.882022846
2025-11-07 15:02:55.594663,0,2025-11-07 15:02:55.889715154
2025-11-07 15:02:55.594663,14,2025-11-07 15:02:55.897407462
2025-11-07 15:02:55.594663,3584,2025-11-07 15:02:55.905099769
2025-11-07 15:02:55.594663,0,2025-11-07 15:02:55.912792077
2025-11-07 15:02:55.594663,9,2025-11-07 15:02:55.920484385
2025-11-07 15:02:55.594663,0,2025-11-07 15:02:55.928176692
2025-11-07 15:02:55.594663,0,2025-11-07 15:02:55.935869000
2025-11-07 15:02:55.594663,-9,2025-11-07 15:02:55.943561308
2025-11-07 15:02:55.594663,-3329,2025-11-07 15:02:55.951253615
2025-11-07 15:02:55.594663,-1,2025-11-07 15:02:55.958945923
2025-11-07 15:02:55.594663,-2,2025-11-07 15:02:55.966638231
2025-11-07 15:02:55.594663,3839,2025-11-07 15:02:55.974330538
2025-11-07 15:02:55.594663,0,2025-11-07 15:02:55.982022846
2025-11-07 15:02:55.594663,21,2025-11-07 15:02:55.989715154
2025-11-07 15:02:55.594663,7168,2025-11-07 15:02:55.997407462
2025-11-07 15:02:55.594663,0,2025-11-07 15:02:56.005099769
2025-11-07 15:02:55.594663,35,2025-11-07 15:02:56.012792077
2025-11-07 15:02:55.594663,8960,2025-11-07 15:02:56.020484385
2025-11-07 15:02:55.594663,0,2025-11-07 15:02:56.028176692
2025-11-07 15:02:55.594663,30,2025-11-07 15:02:56.035869000
2025-11-07 15:02:55.594663,4864,2025-11-07 15:02:56.043561308
2025-11-07 15:02:55.594663,0,2025-11-07 15:02:56.051253615
2025-11-07 15:02:55.594663,14,2025-11-07 15:02:56.058945923
2025-11-07 15:02:55.594663,4864,2025-11-07 15:02:56.066638231
2025-11-07 15:02:55.594663,0,2025-11-07 15:02:56.074330538
2025-11-07 15:02:55.594663,19,2025-11-07 15:02:56.082022846
2025-11-07 15:02:55.594663,2816,2025-11-07 15:02:56.089715154
2025-11-07 15:02:55.594663,0,2025-11-07 15:02:56.097407462
2025-11-07 15:02:55.594663,11,2025-11-07 15:02:56.105099769
2025-11-07 15:02:55.594663,2304,2025-11-07 15:02:56.112792077
2025-11-07 15:02:55.594663,0,2025-11-07 15:02:56.120484385
2025-11-07 15:02:55.594663,-14,2025-11-07 15:02:56.128176692
2025-11-07 15:02:55.594663,-31233,2025-11-07 15:02:56.135869000
2025-11-07 15:02:55.594663,-1,2025-11-07 15:02:56.143561308
2025-11-07 15:02:55.594663,-396,2025-11-07 15:02:56.151253615
2025-11-07 15:02:55.594663,-31489,2025-11-07 15:02:56.158945923
2025-11-07 15:02:55.594663,-3,2025-11-07 15:02:56.166638231
2025-11-07 15:02:55.594663,-137,2025-11-07 15:02:56.174330538
2025-11-07 15:02:55.594663,31743,2025-11-07 15:02:56.182022846
2025-11-07 15:02:55.594663,4,2025-11-07 15:02:56.189715154
2025-11-07 15:02:55.594663,1834,2025-11-07 15:02:56.197407462
2025-11-07 15:02:55.594663,-19968,2025-11-07 15:02:56.205099769
2025-11-07 15:02:55.594663,4,2025-11-07 15:02:56.212792077
2025-11-07 15:02:55.594663,349,2025-11-07 15:02:56.220484385
2025-11-07 15:02:55.594663,13312,2025-11-07 15:02:56.228176692
2025-11-07 15:02:55.594663,0,2025-11-07 15:02:56.235869000
2025-11-07 15:02:55.594663,-59,2025-11-07 15:02:56.243561308
2025-11-07 15:02:55.594663,13567,2025-11-07 15:02:56.251253615
2025-11-07 15:02:55.594663,-1,2025-11-07 15:02:56.258945923
2025-11-07 15:02:55.594663,-228,2025-11-07 15:02:56.266638231
2025-11-07 15:02:55.594663,14847,2025-11-07 15:02:56.274330538
2025-11-07 15:02:55.594663,-1,2025-11-07 15:02:56.282022846
2025-11-07 15:02:55.594663,-225,2025-11-07 15:02:56.289715154
2025-11-07 15:02:55.594663,5119,2025-11-07 15:02:56.297407462
2025-11-07 15:02:55.594663,-1,2025-11-07 15:02:56.305099769
2025-11-07 15:02:55.594663,-220,2025-11-07 15:02:56.312792077
2025-11-07 15:02:55.594663,7423,2025-11-07 15:02:56.320484385
2025-11-07 15:02:55.594663,-1,2025-11-07 15:02:56.328176692
2025-11-07 15:02:55.594663,-240,2025-11-07 15:02:56.335869000
2025-11-07 15:02:55.594663,5119,2025-11-07 15:02:56.343561308
2025-11-07 15:02:55.594663,-1,2025-11-07 15:02:56.351253615
2025-11-07 15:02:55.594663,-240,2025-11-07 15:02:56.358945923
2025-11-07 15:02:55.594663,3839,2025-11-07 15:02:56.366638231
2025-11-07 15:02:55.594663,-1,2025-11-07 15:02:56.374330538
2025-11-07 15:02:55.594663,-242,2025-11-07 15:02:56.382022846
2025-11-07 15:02:55.594663,255,2025-11-07 15:02:56.389715154
2025-11-07 15:02:55.594663,-1,2025-11-07 15:02:56.397407462
2025-11-07 15:02:55.594663,-268,2025-11-07 15:02:56.405099769
2025-11-07 15:02:55.594663,-2305,2025-11-07 15:02:56.412792077
2025-11-07 15:02:55.594663,-2,2025-11-07 15:02:56.420484385
2025-11-07 15:02:55.594663,-254,2025-11-07 15:02:56.428176692
2025-11-07 15:02:55.594663,6399,2025-11-07 15:02:56.435869000
2025-11-07 15:02:55.594663,-1,2025-11-07 15:02:56.443561308
2025-11-07 15:02:55.594663,-194,2025-11-07 15:02:56.451253615
2025-11-07 15:02:55.594663,25087,2025-11-07 15:02:56.458945923
2025-11-07 15:02:55.594663,-1,2025-11-07 15:02:56.466638231
2025-11-07 15:02:55.594663,-116,2025-11-07 15:02:56.474330538
2025-11-07 15:02:55.594663,-16641,2025-11-07 15:02:56.482022846
2025-11-07 15:02:55.594663,-1,2025-11-07 15:02:56.489715154
2025-11-07 15:02:55.594663,-28,2025-11-07 15:02:56.497407462
2025-11-07 15:02:55.594663,-769,2025-11-07 15:02:56.505099769
2025-11-07 15:02:55.594663,-1,2025-11-07 15:02:56.512792077
2025-11-07 15:02:55.594663,11,2025-11-07 15:02:56.520484385
2025-11-07 15:02:55.594663,5376,2025-11-07 15:02:56.528176692
2025-11-07 15:02:55.594663,0,2025-11-07 15:02:56.535869000
2025-11-07 15:02:55.594663,23,2025-11-07 15:02:56.543561308
2025-11-07 15:02:55.594663,5376,2025-11-07 15:02:56.551253615
2025-11-07 15:02:55.594663,0,2025-11-07 15:02:56.558945923
2025-11-07 15:02:55.594663,30,2025-11-07 15:02:56.566638230
2025-11-07 15:02:55.594663,12544,2025-11-07 15:02:56.574330538
2025-11-07 15:02:55.594663,0,2025-11-07 15:02:56.582022846
2025-11-07 15:02:55.594663,49,2025-11-07 15:02:56.589715154
2025-11-07 15:02:55.594663,9728,2025-11-07 15:02:56.597407462
2025-11-07 15:02:55.594663,0,2025-11-07 15:02:56.605099769
2025-11-07 15:02:55.594663,38,2025-11-07 15:02:56.612792077
2025-11-07 15:02:55.594663,8448,2025-11-07 15:02:56.620484385
2025-11-07 15:02:55.594663,0,2025-11-07 15:02:56.628176692
2025-11-07 15:02:55.594663,26,2025-11-07 15:02:56.635869000
2025-11-07 15:02:55.594663,10752,2025-11-07 15:02:56.643561308
2025-11-07 15:02:55.594663,0,2025-11-07 15:02:56.651253615
2025-11-07 15:02:55.594663,52,2025-11-07 15:02:56.658945923
2025-11-07 15:02:55.594663,6656,2025-11-07 15:02:56.666638231
2025-11-07 15:02:55.594663,0,2025-11-07 15:02:56.674330538
2025-11-07 15:02:55.594663,9,2025-11-07 15:02:56.682022846
2025-11-07 15:02:55.594663,2816,2025-11-07 15:02:56.689715154
2025-11-07 15:02:55.594663,0,2025-11-07 15:02:56.697407462
2025-11-07 15:02:55.594663,11,2025-11-07 15:02:56.705099769
2025-11-07 15:02:56.134618,16,2025-11-07 15:02:56.712792077
2025-11-07 15:02:56.134618,5376,2025-11-07 15:02:56.720484385
2025-11-07 15:02:56.134618,0,2025-11-07 15:02:56.728176692
2025-11-07 15:02:56.134618,7,2025-11-07 15:02:56.735869000
2025-11-07 15:02:56.134618,512,2025-11-07 15:02:56.743561308
2025-11-07 15:02:56.134618,0,2025-11-07 15:02:56.751253615
2025-11-07 15:02:56.134618,23,2025-11-07 15:02:56.758945923
2025-11-07 15:02:56.134618,5888,2025-11-07 15:02:56.766638231
2025-11-07 15:02:56.134618,0,2025-11-07 15:02:56.774330538
2025-11-07 15:02:56.134618,9,2025-11-07 15:02:56.782022846
2025-11-07 15:02:56.134618,2304,2025-11-07 15:02:56.789715154
2025-11-07 15:02:56.134618,0,2025-11-07 15:02:56.797407462
2025-11-07 15:02:56.134618,7,2025-11-07 15:02:56.805099769
2025-11-07 15:02:56.134618,5888,2025-11-07 15:02:56.812792077
2025-11-07 15:02:56.134618,0,2025-11-07 15:02:56.820484385
2025-11-07 15:02:56.134618,57,2025-11-07 15:02:56.828176692
2025-11-07 15:02:56.134618,12544,2025-11-07 15:02:56.835869000
2025-11-07 15:02:56.134618,0,2025-11-07 15:02:56.843561308
2025-11-07 15:02:56.134618,45,2025-11-07 15:02:56.851253615
2025-11-07 15:02:56.134618,16896,2025-11-07 15:02:56.858945923
2025-11-07 15:02:56.134618,0,2025-11-07 15:02:56.866638231
2025-11-07 15:02:56.134618,52,2025-11-07 15:02:56.874330538
2025-11-07 15:02:56.134618,7680,2025-11-07 15:02:56.882022846
2025-11-07 15:02:56.134618,0,2025-11-07 15:02:56.889715154
2025-11-07 15:02:56.134618,52,2025-11-07 15:02:56.897407462
2025-11-07 15:02:56.134618,13824,2025-11-07 15:02:56.905099769
2025-11-07 15:02:56.134618,0,2025-11-07 15:02:56.912792077
2025-11-07 15:02:56.134618,16,2025-11-07 15:02:56.920484385
2025-11-07 15:02:56.134618,1024,2025-11-07 15:02:56.928176692
2025-11-07 15:02:56.134618,0,2025-11-07 15:02:56.935869000
2025-11-07 15:02:56.134618,11,2025-11-07 15:02:56.943561308
2025-11-07 15:02:56.134618,4096,2025-11-07 15:02:56.951253615
2025-11-07 15:02:56.134618,0,2025-11-07 15:02:56.958945923
2025-11-07 15:02:56.134618,38,2025-11-07 15:02:56.966638231
2025-11-07 15:02:56.134618,13312,2025-11-07 15:02:56.974330538
2025-11-07 15:02:56.134618,0,2025-11-07 15:02:56.982022846
2025-11-07 15:02:56.134618,47,2025-11-07 15:02:56.989715154
2025-11-07 15:02:56.134618,8960,2025-11-07 15:02:56.997407462
2025-11-07 15:02:56.134618,0,2025-11-07 15:02:57.005099769
2025-11-07 15:02:56.134618,21,2025-11-07 15:02:57.012792077
2025-11-07 15:02:56.134618,9728,2025-11-07 15:02:57.020484385
2025-11-07 15:02:56.134618,0,2025-11-07 15:02:57.028176692
2025-11-07 15:02:56.134618,61,2025-11-07 15:02:57.035869000
2025-11-07 15:02:56.134618,11520,2025-11-07 15:02:57.043561308
2025-11-07 15:02:56.134618,0,2025-11-07 15:02:57.051253615
2025-11-07 15:02:56.134618,2,2025-11-07 15:02:57.058945923
2025-11-07 15:02:56.134618,-1792,2025-11-07 15:02:57.066638231
2025-11-07 15:02:56.134618,-1,2025-11-07 15:02:57.074330538
2025-11-07 15:02:56.134618,33,2025-11-07 15:02:57.082022846
2025-11-07 15:02:56.134618,8448,2025-11-07 15:02:57.089715154
2025-11-07 15:02:56.134618,0,2025-11-07 15:02:57.097407462
2025-11-07 15:02:56.134618,-90,2025-11-07 15:02:57.105099769
2025-11-07 15:02:56.134618,-15105,2025-11-07 15:02:57.112792077
2025-11-07 15:02:56.134618,-2,2025-11-07 15:02:57.120484385
2025-11-07 15:02:56.134618,-546,2025-11-07 15:02:57.128176692
2025-11-07 15:02:56.134618,-4609,2025-11-07 15:02:57.135869000
2025-11-07 15:02:56.134618,-2,2025-11-07 15:02:57.143561308
2025-11-07 15:02:56.134618,860,2025-11-07 15:02:57.151253615
2025-11-07 15:02:56.134618,-3840,2025-11-07 15:02:57.158945923
2025-11-07 15:02:56.134618,6,2025-11-07 15:02:57.166638231
2025-11-07 15:02:56.134618,1404,2025-11-07 15:02:57.174330538
2025-11-07 15:02:56.134618,3840,2025-11-07 15:02:57.182022846
2025-11-07 15:02:56.134618,2,2025-11-07 15:02:57.189715154
2025-11-07 15:02:56.134618,92,2025-11-07 15:02:57.197407462
2025-11-07 15:02:56.134618,-13312,2025-11-07 15:02:57.205099769
2025-11-07 15:02:56.134618,-1,2025-11-07 15:02:57.212792077
2025-11-07 15:02:56.134618,-171,2025-11-07 15:02:57.220484385
2025-11-07 15:02:56.134618,4351,2025-11-07 15:02:57.228176692
2025-11-07 15:02:56.134618,-1,2025-11-07 15:02:57.235869000
2025-11-07 15:02:56.134618,-223,2025-11-07 15:02:57.243561308
2025-11-07 15:02:56.134618,25087,2025-11-07 15:02:57.251253615
2025-11-07 15:02:56.134618,-1,2025-11-07 15:02:57.258945923
2025-11-07 15:02:56.134618,-161,2025-11-07 15:02:57.266638231
2025-11-07 15:02:56.134618,9471,2025-11-07 15:02:57.274330538
2025-11-07 15:02:56.134618,-1,2025-11-07 15:02:57.282022846
2025-11-07 15:02:56.134618,-220,2025-11-07 15:02:57.289715154
2025-11-07 15:02:56.134618,13567,2025-11-07 15:02:57.297407462
2025-11-07 15:02:56.134618,-1,2025-11-07 15:02:57.305099769
2025-11-07 15:02:56.134618,-225,2025-11-07 15:02:57.312792077
2025-11-07 15:02:56.134618,3839,2025-11-07 15:02:57.320484385
2025-11-07 15:02:56.134618,-1,2025-11-07 15:02:57.328176692
2025-11-07 15:02:56.134618,-244,2025-11-07 15:02:57.335869000
2025-11-07 15:02:56.134618,-2305,2025-11-07 15:02:57.343561308
2025-11-07 15:02:56.134618,-2,2025-11-07 15:02:57.351253615
2025-11-07 15:02:56.134618,-278,2025-11-07 15:02:57.358945923
2025-11-07 15:02:56.134618,-513,2025-11-07 15:02:57.366638231
2025-11-07 15:02:56.134618,-2,2025-11-07 15:02:57.374330538
2025-11-07 15:02:56.134618,-240,2025-11-07 15:02:57.382022846
2025-11-07 15:02:56.134618,2559,2025-11-07 15:02:57.389715154
2025-11-07 15:02:56.134618,-1,2025-11-07 15:02:57.397407462
2025-11-07 15:02:56.134618,-232,2025-11-07 15:02:57.405099769
2025-11-07 15:02:56.134618,17919,2025-11-07 15:02:57.412792077
2025-11-07 15:02:56.134618,-1,2025-11-07 15:02:57.420484385
2025-11-07 15:02:56.134618,-168,2025-11-07 15:02:57.428176692
2025-11-07 15:02:56.134618,29951,2025-11-07 15:02:57.435869000
2025-11-07 15:02:56.134618,-1,2025-11-07 15:02:57.443561308
2025-11-07 15:02:56.134618,-80,2025-11-07 15:02:57.451253615
2025-11-07 15:02:56.134618,-14337,2025-11-07 15:02:57.458945923
2025-11-07 15:02:56.134618,-1,2025-11-07 15:02:57.466638231
2025-11-07 15:02:56.134618,-19,2025-11-07 15:02:57.474330538
2025-11-07 15:02:56.134618,10495,2025-11-07 15:02:57.482022846
2025-11-07 15:02:56.134618,0,2025-11-07 15:02:57.489715154
2025-11-07 15:02:56.134618,11,2025-11-07 15:02:57.497407462
2025-11-07 15:02:56.134618,-4864,2025-11-07 15:02:57.505099769
2025-11-07 15:02:56.134618,-1,2025-11-07 15:02:57.512792077
2025-11-07 15:02:56.134618,4,2025-11-07 15:02:57.520484385
2025-11-07 15:02:56.134618,-1024,2025-11-07 15:02:57.528176692
2025-11-07 15:02:56.134618,-1,2025-11-07 15:02:57.535869000
2025-11-07 15:02:56.134618,-16,2025-11-07 15:02:57.543561308
2025-11-07 15:02:56.673797,-2,2025-11-07 15:02:57.551253615
2025-11-07 15:02:56.673797,-1537,2025-11-07 15:02:57.558945923
2025-11-07 15:02:56.673797,-1,2025-11-07 15:02:57.566638230
2025-11-07 15:02:56.673797,11,2025-11-07 15:02:57.574330538
2025-11-07 15:02:56.673797,16384,2025-11-07 15:02:57.582022846
2025-11-07 15:02:56.673797,0,2025-11-07 15:02:57.589715154
2025-11-07 15:02:56.673797,45,2025-11-07 15:02:57.597407462
2025-11-07 15:02:56.673797,-3584,2025-11-07 15:02:57.605099769
2025-11-07 15:02:56.673797,-1,2025-11-07 15:02:57.612792077
2025-11-07 15:02:56.673797,-7,2025-11-07 15:02:57.620484385
2025-11-07 15:02:56.673797,6911,2025-11-07 15:02:57.628176692
2025-11-07 15:02:56.673797,0,2025-11-07 15:02:57.635869000
2025-11-07 15:02:56.673797,14,2025-11-07 15:02:57.643561308
2025-11-07 15:02:56.673797,-3584,2025-11-07 15:02:57.651253615
2025-11-07 15:02:56.673797,-1,2025-11-07 15:02:57.658945923
2025-11-07 15:02:56.673797,2,2025-11-07 15:02:57.666638231
2025-11-07 15:02:56.673797,6656,2025-11-07 15:02:57.674330538
2025-11-07 15:02:56.673797,0,2025-11-07 15:02:57.682022846
2025-11-07 15:02:56.673797,0,2025-11-07 15:02:57.689715154
2025-11-07 15:02:56.673797,0,2025-11-07 15:02:57.697407462
2025-11-07 15:02:56.673797,0,2025-11-07 15:02:57.705099769
2025-11-07 15:02:56.673797,52,2025-11-07 15:02:57.712792077
2025-11-07 15:02:56.673797,10752,2025-11-07 15:02:57.720484385
2025-11-07 15:02:56.673797,0,2025-11-07 15:02:57.728176692
2025-11-07 15:02:56.673797,-7,2025-11-07 15:02:57.735869000
2025-11-07 15:02:56.673797,767,2025-11-07 15:02:57.743561308
2025-11-07 15:02:56.673797,0,2025-11-07 15:02:57.751253615
2025-11-07 15:02:56.673797,33,2025-11-07 15:02:57.758945923
2025-11-07 15:02:56.673797,7168,2025-11-07 15:02:57.766638231
2025-11-07 15:02:56.673797,0,2025-11-07 15:02:57.774330538
2025-11-07 15:02:56.673797,9,2025-11-07 15:02:57.782022846
2025-11-07 15:02:56.673797,1024,2025-11-07 15:02:57.789715154
2025-11-07 15:02:56.673797,0,2025-11-07 15:02:57.797407462
2025-11-07 15:02:56.673797,33,2025-11-07 15:02:57.805099769
2025-11-07 15:02:56.673797,15616,2025-11-07 15:02:57.812792077
2025-11-07 15:02:56.673797,0,2025-11-07 15:02:57.820484385
2025-11-07 15:02:56.673797,40,2025-11-07 15:02:57.828176692
2025-11-07 15:02:56.673797,3584,2025-11-07 15:02:57.835869000
2025-11-07 15:02:56.673797,0,2025-11-07 15:02:57.843561308
2025-11-07 15:02:56.673797,21,2025-11-07 15:02:57.851253615
2025-11-07 15:02:56.673797,7680,2025-11-07 15:02:57.858945923
2025-11-07 15:02:56.673797,0,2025-11-07 15:02:57.866638231
2025-11-07 15:02:56.673797,23,2025-11-07 15:02:57.874330538
2025-11-07 15:02:56.673797,8960,2025-11-07 15:02:57.882022846
2025-11-07 15:02:56.673797,0,2025-11-07 15:02:57.889715154
2025-11-07 15:02:56.673797,45,2025-11-07 15:02:57.897407462
2025-11-07 15:02:56.673797,2304,2025-11-07 15:02:57.905099769
2025-11-07 15:02:56.673797,0,2025-11-07 15:02:57.912792077
2025-11-07 15:02:56.673797,-14,2025-11-07 15:02:57.920484385
2025-11-07 15:02:56.673797,4351,2025-11-07 15:02:57.928176692
2025-11-07 15:02:56.673797,0,2025-11-07 15:02:57.935869000
2025-11-07 15:02:56.673797,33,2025-11-07 15:02:57.943561308
2025-11-07 15:02:56.673797,3584,2025-11-07 15:02:57.951253615
2025-11-07 15:02:56.673797,0,2025-11-07 15:02:57.958945923
2025-11-07 15:02:56.673797,23,2025-11-07 15:02:57.966638231
2025-11-07 15:02:56.673797,11520,2025-11-07 15:02:57.974330538
2025-11-07 15:02:56.673797,0,2025-11-07 15:02:57.982022846
2025-11-07 15:02:56.673797,21,2025-11-07 15:02:57.989715154
2025-11-07 15:02:56.673797,7168,2025-11-07 15:02:57.997407462
2025-11-07 15:02:56.673797,0,2025-11-07 15:02:58.005099769
2025-11-07 15:02:56.673797,80,2025-11-07 15:02:58.012792077
2025-11-07 15:02:56.673797,19968,2025-11-07 15:02:58.020484385
2025-11-07 15:02:56.673797,0,2025-11-07 15:02:58.028176692
2025-11-07 15:02:56.673797,42,2025-11-07 15:02:58.035869000
2025-11-07 15:02:56.673797,12032,2025-11-07 15:02:58.043561308
2025-11-07 15:02:56.673797,0,2025-11-07 15:02:58.051253615
2025-11-07 15:02:56.673797,54,2025-11-07 15:02:58.058945923
2025-11-07 15:02:56.673797,10752,2025-11-07 15:02:58.066638231
2025-11-07 15:02:56.673797,0,2025-11-07 15:02:58.074330538
2025-11-07 15:02:56.673797,35,2025-11-07 15:02:58.082022846
2025-11-07 15:02:56.673797,7680,2025-11-07 15:02:58.089715154
2025-11-07 15:02:56.673797,0,2025-11-07 15:02:58.097407462
2025-11-07 15:02:56.673797,-11,2025-11-07 15:02:58.105099769
2025-11-07 15:02:56.673797,21503,2025-11-07 15:02:58.112792077
2025-11-07 15:02:56.673797,-1,2025-11-07 15:02:58.120484385
2025-11-07 15:02:56.673797,-458,2025-11-07 15:02:58.128176692
2025-11-07 15:02:56.673797,19455,2025-11-07 15:02:58.135869000
2025-11-07 15:02:56.673797,-2,2025-11-07 15:02:58.143561308
2025-11-07 15:02:56.673797,458,2025-11-07 15:02:58.151253615
2025-11-07 15:02:56.673797,3840,2025-11-07 15:02:58.158945923
2025-11-07 15:02:56.673797,6,2025-11-07 15:02:58.166638231
2025-11-07 15:02:56.673797,1558,2025-11-07 15:02:58.174330538
2025-11-07 15:02:56.673797,-4608,2025-11-07 15:02:58.182022846
2025-11-07 15:02:56.673797,2,2025-11-07 15:02:58.189715154
2025-11-07 15:02:56.673797,187,2025-11-07 15:02:58.197407462
2025-11-07 15:02:56.673797,1792,2025-11-07 15:02:58.205099769
2025-11-07 15:02:56.673797,0,2025-11-07 15:02:58.212792077
2025-11-07 15:02:56.673797,-106,2025-11-07 15:02:58.220484385
2025-11-07 15:02:56.673797,21503,2025-11-07 15:02:58.228176692
2025-11-07 15:02:56.673797,-1,2025-11-07 15:02:58.235869000
2025-11-07 15:02:56.673797,-159,2025-11-07 15:02:58.243561308
2025-11-07 15:02:56.673797,25855,2025-11-07 15:02:58.251253615
2025-11-07 15:02:56.673797,-1,2025-11-07 15:02:58.258945923
2025-11-07 15:02:56.673797,-173,2025-11-07 15:02:58.266638231
2025-11-07 15:02:56.673797,21503,2025-11-07 15:02:58.274330538
2025-11-07 15:02:56.673797,-1,2025-11-07 15:02:58.282022846
2025-11-07 15:02:56.673797,-171,2025-11-07 15:02:58.289715154
2025-11-07 15:02:56.673797,21503,2025-11-07 15:02:58.297407462
2025-11-07 15:02:56.673797,-1,2025-11-07 15:02:58.305099769
2025-11-07 15:02:56.673797,-171,2025-11-07 15:02:58.312792077
2025-11-07 15:02:56.673797,22015,2025-11-07 15:02:58.320484385
2025-11-07 15:02:56.673797,-1,2025-11-07 15:02:58.328176692
2025-11-07 15:02:56.673797,-182,2025-11-07 15:02:58.335869000
2025-11-07 15:02:56.673797,17151,2025-11-07 15:02:58.343561308
2025-11-07 15:02:56.673797,-1,2025-11-07 15:02:58.351253615
2025-11-07 15:02:56.673797,-197,2025-11-07 15:02:58.358945923
2025-11-07 15:02:56.673797,14335,2025-11-07 15:02:58.366638231
2025-11-07 15:02:56.673797,-1,2025-11-07 15:02:58.374330538
2025-11-07 15:02:56.673797,-197,2025-11-07 15:02:58.382022846
2025-11-07 15:02:57.392950,-180,2025-11-07 15:02:58.389715154
2025-11-07 15:02:57.392950,24063,2025-11-07 15:02:58.397407462
2025-11-07 15:02:57.392950,-1,2025-11-07 15:02:58.405099769
2025-11-07 15:02:57.392950,-142,2025-11-07 15:02:58.412792077
2025-11-07 15:02:57.392950,-28161,2025-11-07 15:02:58.420484385
2025-11-07 15:02:57.392950,-1,2025-11-07 15:02:58.428176692
2025-11-07 15:02:57.392950,-76,2025-11-07 15:02:58.435869000
2025-11-07 15:02:57.392950,-9985,2025-11-07 15:02:58.443561308
2025-11-07 15:02:57.392950,-1,2025-11-07 15:02:58.451253615
2025-11-07 15:02:57.392950,0,2025-11-07 15:02:58.458945923
2025-11-07 15:02:57.392950,7168,2025-11-07 15:02:58.466638231
2025-11-07 15:02:57.392950,0,2025-11-07 15:02:58.474330538
2025-11-07 15:02:57.392950,33,2025-11-07 15:02:58.482022846
2025-11-07 15:02:57.392950,7680,2025-11-07 15:02:58.489715154
2025-11-07 15:02:57.392950,0,2025-11-07 15:02:58.497407462
2025-11-07 15:02:57.392950,33,2025-11-07 15:02:58.505099769
2025-11-07 15:02:57.392950,8960,2025-11-07 15:02:58.512792077
2025-11-07 15:02:57.392950,0,2025-11-07 15:02:58.520484385
2025-11-07 15:02:57.392950,35,2025-11-07 15:02:58.528176692
2025-11-07 15:02:57.392950,7168,2025-11-07 15:02:58.535869000
2025-11-07 15:02:57.392950,0,2025-11-07 15:02:58.543561308
2025-11-07 15:02:57.392950,28,2025-11-07 15:02:58.551253615
2025-11-07 15:02:57.392950,8960,2025-11-07 15:02:58.558945923
2025-11-07 15:02:57.392950,0,2025-11-07 15:02:58.566638230
2025-11-07 15:02:57.392950,35,2025-11-07 15:02:58.574330538
2025-11-07 15:02:57.392950,7680,2025-11-07 15:02:58.582022846
2025-11-07 15:02:57.392950,0,2025-11-07 15:02:58.589715154
2025-11-07 15:02:57.392950,28,2025-11-07 15:02:58.597407462
2025-11-07 15:02:57.392950,7680,2025-11-07 15:02:58.605099769
2025-11-07 15:02:57.392950,0,2025-11-07 15:02:58.612792077
2025-11-07 15:02:57.392950,40,2025-11-07 15:02:58.620484385
2025-11-07 15:02:57.392950,9728,2025-11-07 15:02:58.628176692
2025-11-07 15:02:57.392950,0,2025-11-07 15:02:58.635869000
2025-11-07 15:02:57.392950,33,2025-11-07 15:02:58.643561308
2025-11-07 15:02:57.392950,8448,2025-11-07 15:02:58.651253615
2025-11-07 15:02:57.392950,0,2025-11-07 15:02:58.658945923
2025-11-07 15:02:57.392950,33,2025-11-07 15:02:58.666638231
2025-11-07 15:02:57.392950,8448,2025-11-07 15:02:58.674330538
2025-11-07 15:02:57.392950,0,2025-11-07 15:02:58.682022846
2025-11-07 15:02:57.392950,28,2025-11-07 15:02:58.689715154
2025-11-07 15:02:57.392950,6656,2025-11-07 15:02:58.697407462
2025-11-07 15:02:57.392950,0,2025-11-07 15:02:58.705099769
2025-11-07 15:02:57.392950,30,2025-11-07 15:02:58.712792077
2025-11-07 15:02:57.392950,10240,2025-11-07 15:02:58.720484385
2025-11-07 15:02:57.392950,0,2025-11-07 15:02:58.728176692
2025-11-07 15:02:57.392950,45,2025-11-07 15:02:58.735869000
2025-11-07 15:02:57.392950,11520,2025-11-07 15:02:58.743561308
2025-11-07 15:02:57.392950,0,2025-11-07 15:02:58.751253615
2025-11-07 15:02:57.392950,42,2025-11-07 15:02:58.758945923
2025-11-07 15:02:57.392950,10240,2025-11-07 15:02:58.766638231
2025-11-07 15:02:57.392950,0,2025-11-07 15:02:58.774330538
2025-11-07 15:02:57.392950,35,2025-11-07 15:02:58.782022846
2025-11-07 15:02:57.392950,8960,2025-11-07 15:02:58.789715154
2025-11-07 15:02:57.392950,0,2025-11-07 15:02:58.797407462
2025-11-07 15:02:57.392950,45,2025-11-07 15:02:58.805099769
2025-11-07 15:02:57.392950,12032,2025-11-07 15:02:58.812792077
2025-11-07 15:02:57.392950,0,2025-11-07 15:02:58.820484385
2025-11-07 15:02:57.392950,45,2025-11-07 15:02:58.828176692
2025-11-07 15:02:57.392950,10752,2025-11-07 15:02:58.835869000
2025-11-07 15:02:57.392950,0,2025-11-07 15:02:58.843561308
2025-11-07 15:02:57.392950,45,2025-11-07 15:02:58.851253615
2025-11-07 15:02:57.392950,10752,2025-11-07 15:02:58.858945923
2025-11-07 15:02:57.392950,0,2025-11-07 15:02:58.866638231
2025-11-07 15:02:57.392950,38,2025-11-07 15:02:58.874330538
2025-11-07 15:02:57.392950,7680,2025-11-07 15:02:58.882022846
2025-11-07 15:02:57.392950,0,2025-11-07 15:02:58.889715154
2025-11-07 15:02:57.392950,16,2025-11-07 15:02:58.897407462
2025-11-07 15:02:57.392950,1792,2025-11-07 15:02:58.905099769
2025-11-07 15:02:57.392950,0,2025-11-07 15:02:58.912792077
2025-11-07 15:02:57.392950,11,2025-11-07 15:02:58.920484385
2025-11-07 15:02:57.392950,5888,2025-11-07 15:02:58.928176692
2025-11-07 15:02:57.392950,0,2025-11-07 15:02:58.935869000
2025-11-07 15:02:57.392950,33,2025-11-07 15:02:58.943561308
2025-11-07 15:02:57.392950,8448,2025-11-07 15:02:58.951253615
2025-11-07 15:02:57.392950,0,2025-11-07 15:02:58.958945923
2025-11-07 15:02:57.392950,35,2025-11-07 15:02:58.966638231
2025-11-07 15:02:57.392950,10240,2025-11-07 15:02:58.974330538
2025-11-07 15:02:57.392950,0,2025-11-07 15:02:58.982022846
2025-11-07 15:02:57.392950,35,2025-11-07 15:02:58.989715154
2025-11-07 15:02:57.392950,4864,2025-11-07 15:02:58.997407462
2025-11-07 15:02:57.392950,0,2025-11-07 15:02:59.005099769
2025-11-07 15:02:57.392950,16,2025-11-07 15:02:59.012792077
2025-11-07 15:02:57.392950,5376,2025-11-07 15:02:59.020484385
2025-11-07 15:02:57.392950,0,2025-11-07 15:02:59.028176692
2025-11-07 15:02:57.392950,19,2025-11-07 15:02:59.035869000
2025-11-07 15:02:57.392950,3584,2025-11-07 15:02:59.043561308
2025-11-07 15:02:57.392950,0,2025-11-07 15:02:59.051253615
2025-11-07 15:02:57.392950,14,2025-11-07 15:02:59.058945923
2025-11-07 15:02:57.392950,1792,2025-11-07 15:02:59.066638231
2025-11-07 15:02:57.392950,0,2025-11-07 15:02:59.074330538
2025-11-07 15:02:57.392950,-30,2025-11-07 15:02:59.082022846
2025-11-07 15:02:57.392950,20991,2025-11-07 15:02:59.089715154
2025-11-07 15:02:57.392950,-1,2025-11-07 15:02:59.097407462
2025-11-07 15:02:57.392950,-456,2025-11-07 15:02:59.105099769
2025-11-07 15:02:57.392950,1279,2025-11-07 15:02:59.112792077
2025-11-07 15:02:57.392950,-2,2025-11-07 15:02:59.120484385
2025-11-07 15:02:57.392950,270,2025-11-07 15:02:59.128176692
2025-11-07 15:02:57.392950,18432,2025-11-07 15:02:59.135869000
2025-11-07 15:02:57.392950,5,2025-11-07 15:02:59.143561308
2025-11-07 15:02:57.392950,1454,2025-11-07 15:02:59.151253615
2025-11-07 15:02:57.392950,-12288,2025-11-07 15:02:59.158945923
2025-11-07 15:02:57.392950,2,2025-11-07 15:02:59.166638231
2025-11-07 15:02:57.392950,194,2025-11-07 15:02:59.174330538
2025-11-07 15:02:57.392950,8448,2025-11-07 15:02:59.182022846
2025-11-07 15:02:57.392950,0,2025-11-07 15:02:59.189715154
2025-11-07 15:02:57.392950,-102,2025-11-07 15:02:59.197407462
2025-11-07 15:02:57.392950,16127,2025-11-07 15:02:59.205099769
2025-11-07 15:02:57.392950,-1,2025-11-07 15:02:59.212792077
2025-11-07 15:02:57.392950,-180,2025-11-07 15:02:59.220484385
2025-11-07 15:02:57.843644,-178,2025-11-07 15:02:59.228176692
2025-11-07 15:02:57.843644,13567,2025-11-07 15:02:59.235869000
2025-11-07 15:02:57.843644,-1,2025-11-07 15:02:59.243561308
2025-11-07 15:02:57.843644,-204,2025-11-07 15:02:59.251253615
2025-11-07 15:02:57.843644,14847,2025-11-07 15:02:59.258945923
2025-11-07 15:02:57.843644,-1,2025-11-07 15:02:59.266638231
2025-11-07 15:02:57.843644,-201,2025-11-07 15:02:59.274330538
2025-11-07 15:02:57.843644,13567,2025-11-07 15:02:59.282022846
2025-11-07 15:02:57.843644,-1,2025-11-07 15:02:59.289715154
2025-11-07 15:02:57.843644,-209,2025-11-07 15:02:59.297407462
2025-11-07 15:02:57.843644,10495,2025-11-07 15:02:59.305099769
2025-11-07 15:02:57.843644,-1,2025-11-07 15:02:59.312792077
2025-11-07 15:02:57.843644,-220,2025-11-07 15:02:59.320484385
2025-11-07 15:02:57.843644,9983,2025-11-07 15:02:59.328176692
2025-11-07 15:02:57.843644,-1,2025-11-07 15:02:59.335869000
2025-11-07 15:02:57.843644,-218,2025-11-07 15:02:59.343561308
2025-11-07 15:02:57.843644,10495,2025-11-07 15:02:59.351253615
2025-11-07 15:02:57.843644,-1,2025-11-07 15:02:59.358945923
2025-11-07 15:02:57.843644,-204,2025-11-07 15:02:59.366638231
2025-11-07 15:02:57.843644,17919,2025-11-07 15:02:59.374330538
2025-11-07 15:02:57.843644,-1,2025-11-07 15:02:59.382022846
2025-11-07 15:02:57.843644,-161,2025-11-07 15:02:59.389715154
2025-11-07 15:02:57.843644,-32513,2025-11-07 15:02:59.397407462
2025-11-07 15:02:57.843644,-1,2025-11-07 15:02:59.405099769
2025-11-07 15:02:57.843644,-90,2025-11-07 15:02:59.412792077
2025-11-07 15:02:57.843644,-14337,2025-11-07 15:02:59.420484385
2025-11-07 15:02:57.843644,-1,2025-11-07 15:02:59.428176692
2025-11-07 15:02:57.843644,-30,2025-11-07 15:02:59.435869000
2025-11-07 15:02:57.843644,-1537,2025-11-07 15:02:59.443561308
2025-11-07 15:02:57.843644,-1,2025-11-07 15:02:59.451253615
2025-11-07 15:02:57.843644,2,2025-11-07 15:02:59.458945923
2025-11-07 15:02:57.843644,0,2025-11-07 15:02:59.466638231
2025-11-07 15:02:57.843644,0,2025-11-07 15:02:59.474330538
2025-11-07 15:02:57.843644,2,2025-11-07 15:02:59.482022846
2025-11-07 15:02:57.843644,512,2025-11-07 15:02:59.489715154
2025-11-07 15:02:57.843644,0,2025-11-07 15:02:59.497407462
2025-11-07 15:02:57.843644,-2,2025-11-07 15:02:59.505099769
2025-11-07 15:02:57.843644,255,2025-11-07 15:02:59.512792077
2025-11-07 15:02:57.843644,0,2025-11-07 15:02:59.520484385
2025-11-07 15:02:57.843644,2,2025-11-07 15:02:59.528176692
2025-11-07 15:02:57.843644,2816,2025-11-07 15:02:59.535869000
2025-11-07 15:02:57.843644,0,2025-11-07 15:02:59.543561308
2025-11-07 15:02:57.843644,21,2025-11-07 15:02:59.551253615
2025-11-07 15:02:57.843644,4096,2025-11-07 15:02:59.558945923
2025-11-07 15:02:57.843644,0,2025-11-07 15:02:59.566638230
2025-11-07 15:02:57.843644,11,2025-11-07 15:02:59.574330538
2025-11-07 15:02:57.843644,2816,2025-11-07 15:02:59.582022846
2025-11-07 15:02:57.843644,0,2025-11-07 15:02:59.589715154
2025-11-07 15:02:57.843644,7,2025-11-07 15:02:59.597407462
2025-11-07 15:02:57.843644,0,2025-11-07 15:02:59.605099769
2025-11-07 15:02:57.843644,0,2025-11-07 15:02:59.612792077
2025-11-07 15:02:57.843644,-2,2025-11-07 15:02:59.620484385
2025-11-07 15:02:57.843644,-257,2025-11-07 15:02:59.628176692
2025-11-07 15:02:57.843644,-1,2025-11-07 15:02:59.635869000
2025-11-07 15:02:57.843644,-4,2025-11-07 15:02:59.643561308
2025-11-07 15:02:57.843644,-257,2025-11-07 15:02:59.651253615
2025-11-07 15:02:57.843644,-1,2025-11-07 15:02:59.658945923
2025-11-07 15:02:57.843644,-4,2025-11-07 15:02:59.666638231
2025-11-07 15:02:57.843644,255,2025-11-07 15:02:59.674330538
2025-11-07 15:02:57.843644,0,2025-11-07 15:02:59.682022846
2025-11-07 15:02:57.843644,4,2025-11-07 15:02:59.689715154
2025-11-07 15:02:57.843644,0,2025-11-07 15:02:59.697407462
2025-11-07 15:02:57.843644,0,2025-11-07 15:02:59.705099769
2025-11-07 15:02:57.843644,-2,2025-11-07 15:02:59.712792077
2025-11-07 15:02:57.843644,767,2025-11-07 15:02:59.720484385
2025-11-07 15:02:57.843644,0,2025-11-07 15:02:59.728176692
2025-11-07 15:02:57.843644,9,2025-11-07 15:02:59.735869000
2025-11-07 15:02:57.843644,2816,2025-11-07 15:02:59.743561308
2025-11-07 15:02:57.843644,0,2025-11-07 15:02:59.751253615
2025-11-07 15:02:57.843644,9,2025-11-07 15:02:59.758945923
2025-11-07 15:02:57.843644,2304,2025-11-07 15:02:59.766638231
2025-11-07 15:02:57.843644,0,2025-11-07 15:02:59.774330538
2025-11-07 15:02:57.843644,14,2025-11-07 15:02:59.782022846
2025-11-07 15:02:57.843644,7168,2025-11-07 15:02:59.789715154
2025-11-07 15:02:57.843644,0,2025-11-07 15:02:59.797407462
2025-11-07 15:02:57.843644,45,2025-11-07 15:02:59.805099769
2025-11-07 15:02:57.843644,10240,2025-11-07 15:02:59.812792077
2025-11-07 15:02:57.843644,0,2025-11-07 15:02:59.820484385
2025-11-07 15:02:57.843644,35,2025-11-07 15:02:59.828176692
2025-11-07 15:02:57.843644,10240,2025-11-07 15:02:59.835869000
2025-11-07 15:02:57.843644,0,2025-11-07 15:02:59.843561308
2025-11-07 15:02:57.843644,33,2025-11-07 15:02:59.851253615
2025-11-07 15:02:57.843644,3584,2025-11-07 15:02:59.858945923
2025-11-07 15:02:57.843644,0,2025-11-07 15:02:59.866638231
2025-11-07 15:02:57.843644,2,2025-11-07 15:02:59.874330538
2025-11-07 15:02:57.843644,-1792,2025-11-07 15:02:59.882022846
2025-11-07 15:02:57.843644,-1,2025-11-07 15:02:59.889715154
2025-11-07 15:02:57.843644,-9,2025-11-07 15:02:59.897407462
2025-11-07 15:02:57.843644,2559,2025-11-07 15:02:59.905099769
2025-11-07 15:02:57.843644,0,2025-11-07 15:02:59.912792077
2025-11-07 15:02:57.843644,42,2025-11-07 15:02:59.920484385
2025-11-07 15:02:57.843644,14592,2025-11-07 15:02:59.928176692
2025-11-07 15:02:57.843644,0,2025-11-07 15:02:59.935869000
2025-11-07 15:02:57.843644,35,2025-11-07 15:02:59.943561308
2025-11-07 15:02:57.843644,7168,2025-11-07 15:02:59.951253615
2025-11-07 15:02:57.843644,0,2025-11-07 15:02:59.958945923
2025-11-07 15:02:57.843644,49,2025-11-07 15:02:59.966638231
2025-11-07 15:02:57.843644,10240,2025-11-07 15:02:59.974330538
2025-11-07 15:02:57.843644,0,2025-11-07 15:02:59.982022846
2025-11-07 15:02:57.843644,-11,2025-11-07 15:02:59.989715154
2025-11-07 15:02:57.843644,-2049,2025-11-07 15:02:59.997407462
2025-11-07 15:02:57.843644,-1,2025-11-07 15:03:00.005099769
2025-11-07 15:02:57.843644,40,2025-11-07 15:03:00.012792077
2025-11-07 15:02:57.843644,10752,2025-11-07 15:03:00.020484385
2025-11-07 15:02:57.843644,0,2025-11-07 15:03:00.028176692
2025-11-07 15:02:57.843644,11,2025-11-07 15:03:00.035869000
2025-11-07 15:02:57.843644,-3584,2025-11-07 15:03:00.043561308
2025-11-07 15:02:57.843644,-1,2025-11-07 15:03:00.051253615
2025-11-07 15:02:57.843644,-99,2025-11-07 15:03:00.058945923
2025-11-07 15:02:58.384357,-344,2025-11-07 15:03:00.066638231
2025-11-07 15:02:58.384357,-11521,2025-11-07 15:03:00.074330538
2025-11-07 15:02:58.384357,-3,2025-11-07 15:03:00.082022846
2025-11-07 15:02:58.384357,-104,2025-11-07 15:03:00.089715154
2025-11-07 15:02:58.384357,7423,2025-11-07 15:03:00.097407462
2025-11-07 15:02:58.384357,4,2025-11-07 15:03:00.105099769
2025-11-07 15:02:58.384357,1639,2025-11-07 15:03:00.112792077
2025-11-07 15:02:58.384357,12800,2025-11-07 15:03:00.120484385
2025-11-07 15:02:58.384357,4,2025-11-07 15:03:00.128176692
2025-11-07 15:02:58.384357,354,2025-11-07 15:03:00.135869000
2025-11-07 15:02:58.384357,19968,2025-11-07 15:03:00.143561308
2025-11-07 15:02:58.384357,0,2025-11-07 15:03:00.151253615
2025-11-07 15:02:58.384357,-49,2025-11-07 15:03:00.158945923
2025-11-07 15:02:58.384357,23295,2025-11-07 15:03:00.166638231
2025-11-07 15:02:58.384357,-1,2025-11-07 15:03:00.174330538
2025-11-07 15:02:58.384357,-182,2025-11-07 15:03:00.182022846
2025-11-07 15:02:58.384357,21503,2025-11-07 15:03:00.189715154
2025-11-07 15:02:58.384357,-1,2025-11-07 15:03:00.197407462
2025-11-07 15:02:58.384357,-194,2025-11-07 15:03:00.205099769
2025-11-07 15:02:58.384357,16639,2025-11-07 15:03:00.212792077
2025-11-07 15:02:58.384357,-1,2025-11-07 15:03:00.220484385
2025-11-07 15:02:58.384357,-156,2025-11-07 15:03:00.228176692
2025-11-07 15:02:58.384357,26879,2025-11-07 15:03:00.235869000
2025-11-07 15:02:58.384357,-1,2025-11-07 15:03:00.243561308
2025-11-07 15:02:58.384357,-175,2025-11-07 15:03:00.251253615
2025-11-07 15:02:58.384357,20991,2025-11-07 15:03:00.258945923
2025-11-07 15:02:58.384357,-1,2025-11-07 15:03:00.266638231
2025-11-07 15:02:58.384357,-168,2025-11-07 15:03:00.274330538
2025-11-07 15:02:58.384357,20991,2025-11-07 15:03:00.282022846
2025-11-07 15:02:58.384357,-1,2025-11-07 15:03:00.289715154
2025-11-07 15:02:58.384357,-190,2025-11-07 15:03:00.297407462
2025-11-07 15:02:58.384357,15359,2025-11-07 15:03:00.305099769
2025-11-07 15:02:58.384357,-1,2025-11-07 15:03:00.312792077
2025-11-07 15:02:58.384357,-197,2025-11-07 15:03:00.320484385
2025-11-07 15:02:58.384357,16127,2025-11-07 15:03:00.328176692
2025-11-07 15:02:58.384357,-1,2025-11-07 15:03:00.335869000
2025-11-07 15:02:58.384357,-182,2025-11-07 15:03:00.343561308
2025-11-07 15:02:58.384357,26879,2025-11-07 15:03:00.351253615
2025-11-07 15:02:58.384357,-1,2025-11-07 15:03:00.358945923
2025-11-07 15:02:58.384357,-114,2025-11-07 15:03:00.366638231
2025-11-07 15:02:58.384357,-24577,2025-11-07 15:03:00.374330538
2025-11-07 15:02:58.384357,-1,2025-11-07 15:03:00.382022846
2025-11-07 15:02:58.384357,-78,2025-11-07 15:03:00.389715154
2025-11-07 15:02:58.384357,-5633,2025-11-07 15:03:00.397407462
2025-11-07 15:02:58.384357,-1,2025-11-07 15:03:00.405099769
2025-11-07 15:02:58.384357,23,2025-11-07 15:03:00.412792077
2025-11-07 15:02:58.384357,7680,2025-11-07 15:03:00.420484385
2025-11-07 15:02:58.384357,0,2025-11-07 15:03:00.428176692
2025-11-07 15:02:58.384357,16,2025-11-07 15:03:00.435869000
2025-11-07 15:02:58.384357,5376,2025-11-07 15:03:00.443561308
2025-11-07 15:02:58.384357,0,2025-11-07 15:03:00.451253615
2025-11-07 15:02:58.384357,35,2025-11-07 15:03:00.458945923
2025-11-07 15:02:58.384357,6656,2025-11-07 15:03:00.466638231
2025-11-07 15:02:58.384357,0,2025-11-07 15:03:00.474330538
2025-11-07 15:02:58.384357,7,2025-11-07 15:03:00.482022846
2025-11-07 15:02:58.384357,2304,2025-11-07 15:03:00.489715154
2025-11-07 15:02:58.384357,0,2025-11-07 15:03:00.497407462
2025-11-07 15:02:58.384357,14,2025-11-07 15:03:00.505099769
2025-11-07 15:02:58.384357,7168,2025-11-07 15:03:00.512792077
2025-11-07 15:02:58.384357,0,2025-11-07 15:03:00.520484385
2025-11-07 15:02:58.384357,40,2025-11-07 15:03:00.528176692
2025-11-07 15:02:58.384357,7680,2025-11-07 15:03:00.535869000
2025-11-07 15:02:58.384357,0,2025-11-07 15:03:00.543561308
2025-11-07 15:02:58.384357,21,2025-11-07 15:03:00.551253615
2025-11-07 15:02:58.384357,1024,2025-11-07 15:03:00.558945923
2025-11-07 15:02:58.384357,0,2025-11-07 15:03:00.566638230
2025-11-07 15:02:58.384357,-2,2025-11-07 15:03:00.574330538
2025-11-07 15:02:58.384357,5119,2025-11-07 15:03:00.582022846
2025-11-07 15:02:58.384357,0,2025-11-07 15:03:00.589715154
2025-11-07 15:02:58.384357,26,2025-11-07 15:03:00.597407462
2025-11-07 15:02:58.384357,2816,2025-11-07 15:03:00.605099769
2025-11-07 15:02:58.384357,0,2025-11-07 15:03:00.612792077
2025-11-07 15:02:58.384357,26,2025-11-07 15:03:00.620484385
2025-11-07 15:02:58.384357,5376,2025-11-07 15:03:00.628176692
2025-11-07 15:02:58.384357,0,2025-11-07 15:03:00.635869000
2025-11-07 15:02:58.384357,-4,2025-11-07 15:03:00.643561308
2025-11-07 15:02:58.384357,4351,2025-11-07 15:03:00.651253615
2025-11-07 15:02:58.384357,0,2025-11-07 15:03:00.658945923
2025-11-07 15:02:58.384357,42,2025-11-07 15:03:00.666638231
2025-11-07 15:02:58.384357,4864,2025-11-07 15:03:00.674330538
2025-11-07 15:02:58.384357,0,2025-11-07 15:03:00.682022846
2025-11-07 15:02:58.384357,-9,2025-11-07 15:03:00.689715154
2025-11-07 15:02:58.384357,-769,2025-11-07 15:03:00.697407462
2025-11-07 15:02:58.384357,-1,2025-11-07 15:03:00.705099769
2025-11-07 15:02:58.384357,30,2025-11-07 15:03:00.712792077
2025-11-07 15:02:58.384357,12032,2025-11-07 15:03:00.720484385
2025-11-07 15:02:58.384357,0,2025-11-07 15:03:00.728176692
2025-11-07 15:02:58.384357,23,2025-11-07 15:03:00.735869000
2025-11-07 15:02:58.384357,8448,2025-11-07 15:03:00.743561308
2025-11-07 15:02:58.384357,0,2025-11-07 15:03:00.751253615
2025-11-07 15:02:58.384357,52,2025-11-07 15:03:00.758945923
2025-11-07 15:02:58.384357,7680,2025-11-07 15:03:00.766638231
2025-11-07 15:02:58.384357,0,2025-11-07 15:03:00.774330538
2025-11-07 15:02:58.384357,33,2025-11-07 15:03:00.782022846
2025-11-07 15:02:58.384357,12544,2025-11-07 15:03:00.789715154
2025-11-07 15:02:58.384357,0,2025-11-07 15:03:00.797407462
2025-11-07 15:02:58.384357,30,2025-11-07 15:03:00.805099769
2025-11-07 15:02:58.384357,1792,2025-11-07 15:03:00.812792077
2025-11-07 15:02:58.384357,0,2025-11-07 15:03:00.820484385
2025-11-07 15:02:58.384357,11,2025-11-07 15:03:00.828176692
2025-11-07 15:02:58.384357,5376,2025-11-07 15:03:00.835869000
2025-11-07 15:02:58.384357,0,2025-11-07 15:03:00.843561308
2025-11-07 15:02:58.384357,19,2025-11-07 15:03:00.851253615
2025-11-07 15:02:58.384357,2816,2025-11-07 15:03:00.858945923
2025-11-07 15:02:58.384357,0,2025-11-07 15:03:00.866638231
2025-11-07 15:02:58.384357,9,2025-11-07 15:03:00.874330538
2025-11-07 15:02:58.384357,4864,2025-11-07 15:03:00.882022846
2025-11-07 15:02:58.384357,0,2025-11-07 15:03:00.889715154
2025-11-07 15:02:58.384357,38,2025-11-07 15:03:00.897407462
2025-11-07 15:02:58.923647,49,2025-11-07 15:03:00.905099769
2025-11-07 15:02:58.923647,10752,2025-11-07 15:03:00.912792077
2025-11-07 15:02:58.923647,0,2025-11-07 15:03:00.920484385
2025-11-07 15:02:58.923647,30,2025-11-07 15:03:00.928176692
2025-11-07 15:02:58.923647,5888,2025-11-07 15:03:00.935869000
2025-11-07 15:02:58.923647,0,2025-11-07 15:03:00.943561308
2025-11-07 15:02:58.923647,23,2025-11-07 15:03:00.951253615
2025-11-07 15:02:58.923647,6656,2025-11-07 15:03:00.958945923
2025-11-07 15:02:58.923647,0,2025-11-07 15:03:00.966638231
2025-11-07 15:02:58.923647,28,2025-11-07 15:03:00.974330538
2025-11-07 15:02:58.923647,7168,2025-11-07 15:03:00.982022846
2025-11-07 15:02:58.923647,0,2025-11-07 15:03:00.989715154
2025-11-07 15:02:58.923647,26,2025-11-07 15:03:00.997407462
2025-11-07 15:02:58.923647,10240,2025-11-07 15:03:01.005099769
2025-11-07 15:02:58.923647,0,2025-11-07 15:03:01.012792077
2025-11-07 15:02:58.923647,49,2025-11-07 15:03:01.020484385
2025-11-07 15:02:58.923647,-12544,2025-11-07 15:03:01.028176692
2025-11-07 15:02:58.923647,-1,2025-11-07 15:03:01.035869000
2025-11-07 15:02:58.923647,-313,2025-11-07 15:03:01.043561308
2025-11-07 15:02:58.923647,-1,2025-11-07 15:03:01.051253615
2025-11-07 15:02:58.923647,-3,2025-11-07 15:03:01.058945923
2025-11-07 15:02:58.923647,-28,2025-11-07 15:03:01.066638231
2025-11-07 15:02:58.923647,17151,2025-11-07 15:03:01.074330538
2025-11-07 15:02:58.923647,4,2025-11-07 15:03:01.082022846
2025-11-07 15:02:58.923647,1596,2025-11-07 15:03:01.089715154
2025-11-07 15:02:58.923647,3072,2025-11-07 15:03:01.097407462
2025-11-07 15:02:58.923647,4,2025-11-07 15:03:01.105099769
2025-11-07 15:02:58.923647,346,2025-11-07 15:03:01.112792077
2025-11-07 15:02:58.923647,18688,2025-11-07 15:03:01.120484385
2025-11-07 15:02:58.923647,0,2025-11-07 15:03:01.128176692
2025-11-07 15:02:58.923647,-40,2025-11-07 15:03:01.135869000
2025-11-07 15:02:58.923647,31231,2025-11-07 15:03:01.143561308
2025-11-07 15:02:58.923647,-1,2025-11-07 15:03:01.151253615
2025-11-07 15:02:58.923647,-152,2025-11-07 15:03:01.158945923
2025-11-07 15:02:58.923647,29439,2025-11-07 15:03:01.166638231
2025-11-07 15:02:58.923647,-1,2025-11-07 15:03:01.174330538
2025-11-07 15:02:58.923647,-159,2025-11-07 15:03:01.182022846
2025-11-07 15:02:58.923647,24575,2025-11-07 15:03:01.189715154
2025-11-07 15:02:58.923647,-1,2025-11-07 15:03:01.197407462
2025-11-07 15:02:58.923647,-159,2025-11-07 15:03:01.205099769
2025-11-07 15:02:58.923647,24063,2025-11-07 15:03:01.212792077
2025-11-07 15:02:58.923647,-1,2025-11-07 15:03:01.220484385
2025-11-07 15:02:58.923647,-163,2025-11-07 15:03:01.228176692
2025-11-07 15:02:58.923647,24063,2025-11-07 15:03:01.235869000
2025-11-07 15:02:58.923647,-1,2025-11-07 15:03:01.243561308
2025-11-07 15:02:58.923647,-175,2025-11-07 15:03:01.251253615
2025-11-07 15:02:58.923647,19199,2025-11-07 15:03:01.258945923
2025-11-07 15:02:58.923647,-1,2025-11-07 15:03:01.266638231
2025-11-07 15:02:58.923647,-187,2025-11-07 15:03:01.274330538
2025-11-07 15:02:58.923647,18431,2025-11-07 15:03:01.282022846
2025-11-07 15:02:58.923647,-1,2025-11-07 15:03:01.289715154
2025-11-07 15:02:58.923647,-175,2025-11-07 15:03:01.297407462
2025-11-07 15:02:58.923647,24575,2025-11-07 15:03:01.305099769
2025-11-07 15:02:58.923647,-1,2025-11-07 15:03:01.312792077
2025-11-07 15:02:58.923647,-149,2025-11-07 15:03:01.320484385
2025-11-07 15:02:58.923647,31743,2025-11-07 15:03:01.328176692
2025-11-07 15:02:58.923647,-1,2025-11-07 15:03:01.335869000
2025-11-07 15:02:58.923647,-102,2025-11-07 15:03:01.343561308
2025-11-07 15:02:58.923647,-16129,2025-11-07 15:03:01.351253615
2025-11-07 15:02:58.923647,-1,2025-11-07 15:03:01.358945923
2025-11-07 15:02:58.923647,-40,2025-11-07 15:03:01.366638231
2025-11-07 15:02:58.923647,-5121,2025-11-07 15:03:01.374330538
2025-11-07 15:02:58.923647,-1,2025-11-07 15:03:01.382022846
2025-11-07 15:02:58.923647,7,2025-11-07 15:03:01.389715154
2025-11-07 15:02:58.923647,7168,2025-11-07 15:03:01.397407462
2025-11-07 15:02:58.923647,0,2025-11-07 15:03:01.405099769
2025-11-07 15:02:58.923647,26,2025-11-07 15:03:01.412792077
2025-11-07 15:02:58.923647,2304,2025-11-07 15:03:01.420484385
2025-11-07 15:02:58.923647,0,2025-11-07 15:03:01.428176692
2025-11-07 15:02:58.923647,7,2025-11-07 15:03:01.435869000
2025-11-07 15:02:58.923647,3584,2025-11-07 15:03:01.443561308
2025-11-07 15:02:58.923647,0,2025-11-07 15:03:01.451253615
2025-11-07 15:02:58.923647,19,2025-11-07 15:03:01.458945923
2025-11-07 15:02:58.923647,4096,2025-11-07 15:03:01.466638231
2025-11-07 15:02:58.923647,0,2025-11-07 15:03:01.474330538
2025-11-07 15:02:58.923647,16,2025-11-07 15:03:01.482022846
2025-11-07 15:02:58.923647,4864,2025-11-07 15:03:01.489715154
2025-11-07 15:02:58.923647,0,2025-11-07 15:03:01.497407462
2025-11-07 15:02:58.923647,16,2025-11-07 15:03:01.505099769
2025-11-07 15:02:58.923647,2304,2025-11-07 15:03:01.512792077
2025-11-07 15:02:58.923647,0,2025-11-07 15:03:01.520484385
2025-11-07 15:02:58.923647,9,2025-11-07 15:03:01.528176692
2025-11-07 15:02:58.923647,3584,2025-11-07 15:03:01.535869000
2025-11-07 15:02:58.923647,0,2025-11-07 15:03:01.543561308
2025-11-07 15:02:58.923647,14,2025-11-07 15:03:01.551253615
2025-11-07 15:02:58.923647,3584,2025-11-07 15:03:01.558945923
2025-11-07 15:02:58.923647,0,2025-11-07 15:03:01.566638230
2025-11-07 15:02:58.923647,16,2025-11-07 15:03:01.574330538
2025-11-07 15:02:58.923647,3584,2025-11-07 15:03:01.582022846
2025-11-07 15:02:58.923647,0,2025-11-07 15:03:01.589715154
2025-11-07 15:02:58.923647,9,2025-11-07 15:03:01.597407462
2025-11-07 15:02:58.923647,2816,2025-11-07 15:03:01.605099769
2025-11-07 15:02:58.923647,0,2025-11-07 15:03:01.612792077
2025-11-07 15:02:58.923647,16,2025-11-07 15:03:01.620484385
2025-11-07 15:02:58.923647,5376,2025-11-07 15:03:01.628176692
2025-11-07 15:02:58.923647,0,2025-11-07 15:03:01.635869000
2025-11-07 15:02:58.923647,30,2025-11-07 15:03:01.643561308
2025-11-07 15:02:58.923647,7680,2025-11-07 15:03:01.651253615
2025-11-07 15:02:58.923647,0,2025-11-07 15:03:01.658945923
2025-11-07 15:02:58.923647,23,2025-11-07 15:03:01.666638231
2025-11-07 15:02:58.923647,4864,2025-11-07 15:03:01.674330538
2025-11-07 15:02:58.923647,0,2025-11-07 15:03:01.682022846
2025-11-07 15:02:58.923647,26,2025-11-07 15:03:01.689715154
2025-11-07 15:02:58.923647,7168,2025-11-07 15:03:01.697407462
2025-11-07 15:02:58.923647,0,2025-11-07 15:03:01.705099769
2025-11-07 15:02:58.923647,30,2025-11-07 15:03:01.712792077
2025-11-07 15:02:58.923647,7680,2025-11-07 15:03:01.720484385
2025-11-07 15:02:58.923647,0,2025-11-07 15:03:01.728176692
2025-11-07 15:02:58.923647,28,2025-11-07 15:03:01.735869000
2025-11-07 15:02:59.508705,33,2025-11-07 15:03:01.743561308
2025-11-07 15:02:59.508705,11520,2025-11-07 15:03:01.751253615
2025-11-07 15:02:59.508705,0,2025-11-07 15:03:01.758945923
2025-11-07 15:02:59.508705,38,2025-11-07 15:03:01.766638231
2025-11-07 15:02:59.508705,5888,2025-11-07 15:03:01.774330538
2025-11-07 15:02:59.508705,0,2025-11-07 15:03:01.782022846
2025-11-07 15:02:59.508705,14,2025-11-07 15:03:01.789715154
2025-11-07 15:02:59.508705,2816,2025-11-07 15:03:01.797407462
2025-11-07 15:02:59.508705,0,2025-11-07 15:03:01.805099769
2025-11-07 15:02:59.508705,19,2025-11-07 15:03:01.812792077
2025-11-07 15:02:59.508705,11520,2025-11-07 15:03:01.820484385
2025-11-07 15:02:59.508705,0,2025-11-07 15:03:01.828176692
2025-11-07 15:02:59.508705,61,2025-11-07 15:03:01.835869000
2025-11-07 15:02:59.508705,15104,2025-11-07 15:03:01.843561308
2025-11-07 15:02:59.508705,0,2025-11-07 15:03:01.851253615
2025-11-07 15:02:59.508705,57,2025-11-07 15:03:01.858945923
2025-11-07 15:02:59.508705,12544,2025-11-07 15:03:01.866638231
2025-11-07 15:02:59.508705,0,2025-11-07 15:03:01.874330538
2025-11-07 15:02:59.508705,40,2025-11-07 15:03:01.882022846
2025-11-07 15:02:59.508705,8960,2025-11-07 15:03:01.889715154
2025-11-07 15:02:59.508705,0,2025-11-07 15:03:01.897407462
2025-11-07 15:02:59.508705,35,2025-11-07 15:03:01.905099769
2025-11-07 15:02:59.508705,9728,2025-11-07 15:03:01.912792077
2025-11-07 15:02:59.508705,0,2025-11-07 15:03:01.920484385
2025-11-07 15:02:59.508705,40,2025-11-07 15:03:01.928176692
2025-11-07 15:02:59.508705,9728,2025-11-07 15:03:01.935869000
2025-11-07 15:02:59.508705,0,2025-11-07 15:03:01.943561308
2025-11-07 15:02:59.508705,33,2025-11-07 15:03:01.951253615
2025-11-07 15:02:59.508705,7680,2025-11-07 15:03:01.958945923
2025-11-07 15:02:59.508705,0,2025-11-07 15:03:01.966638231
2025-11-07 15:02:59.508705,2,2025-11-07 15:03:01.974330538
2025-11-07 15:02:59.508705,-30208,2025-11-07 15:03:01.982022846
2025-11-07 15:02:59.508705,-1,2025-11-07 15:03:01.989715154
2025-11-07 15:02:59.508705,-365,2025-11-07 15:03:01.997407462
2025-11-07 15:02:59.508705,14079,2025-11-07 15:03:02.005099769
2025-11-07 15:02:59.508705,-2,2025-11-07 15:03:02.012792077
2025-11-07 15:02:59.508705,178,2025-11-07 15:03:02.020484385
2025-11-07 15:02:59.508705,-15616,2025-11-07 15:03:02.028176692
2025-11-07 15:02:59.508705,4,2025-11-07 15:03:02.035869000
2025-11-07 15:02:59.508705,1473,2025-11-07 15:03:02.043561308
2025-11-07 15:02:59.508705,14848,2025-11-07 15:03:02.051253615
2025-11-07 15:02:59.508705,3,2025-11-07 15:03:02.058945923
2025-11-07 15:02:59.508705,228,2025-11-07 15:03:02.066638231
2025-11-07 15:02:59.508705,6656,2025-11-07 15:03:02.074330538
2025-11-07 15:02:59.508705,0,2025-11-07 15:03:02.082022846
2025-11-07 15:02:59.508705,-61,2025-11-07 15:03:02.089715154
2025-11-07 15:02:59.508705,29439,2025-11-07 15:03:02.097407462
2025-11-07 15:02:59.508705,-1,2025-11-07 15:03:02.105099769
2025-11-07 15:02:59.508705,-147,2025-11-07 15:03:02.112792077
2025-11-07 15:02:59.508705,31743,2025-11-07 15:03:02.120484385
2025-11-07 15:02:59.508705,-1,2025-11-07 15:03:02.128176692
2025-11-07 15:02:59.508705,-147,2025-11-07 15:03:02.135869000
2025-11-07 15:02:59.508705,25087,2025-11-07 15:03:02.143561308
2025-11-07 15:02:59.508705,-1,2025-11-07 15:03:02.151253615
2025-11-07 15:02:59.508705,-159,2025-11-07 15:03:02.158945923
2025-11-07 15:02:59.508705,26879,2025-11-07 15:03:02.166638231
2025-11-07 15:02:59.508705,-1,2025-11-07 15:03:02.174330538
2025-11-07 15:02:59.508705,-152,2025-11-07 15:03:02.182022846
2025-11-07 15:02:59.508705,22015,2025-11-07 15:03:02.189715154
2025-11-07 15:02:59.508705,-1,2025-11-07 15:03:02.197407462
2025-11-07 15:02:59.508705,-182,2025-11-07 15:03:02.205099769
2025-11-07 15:02:59.508705,20223,2025-11-07 15:03:02.212792077
2025-11-07 15:02:59.508705,-1,2025-11-07 15:03:02.220484385
2025-11-07 15:02:59.508705,-178,2025-11-07 15:03:02.228176692
2025-11-07 15:02:59.508705,23295,2025-11-07 15:03:02.235869000
2025-11-07 15:02:59.508705,-1,2025-11-07 15:03:02.243561308
2025-11-07 15:02:59.508705,-159,2025-11-07 15:03:02.251253615
2025-11-07 15:02:59.508705,22783,2025-11-07 15:03:02.258945923
2025-11-07 15:02:59.508705,-1,2025-11-07 15:03:02.266638231
2025-11-07 15:02:59.508705,-156,2025-11-07 15:03:02.274330538
2025-11-07 15:02:59.508705,-29953,2025-11-07 15:03:02.282022846
2025-11-07 15:02:59.508705,-1,2025-11-07 15:03:02.289715154
2025-11-07 15:02:59.508705,-90,2025-11-07 15:03:02.297407462
2025-11-07 15:02:59.508705,-15361,2025-11-07 15:03:02.305099769
2025-11-07 15:02:59.508705,-1,2025-11-07 15:03:02.312792077
2025-11-07 15:02:59.508705,-23,2025-11-07 15:03:02.320484385
2025-11-07 15:02:59.508705,255,2025-11-07 15:03:02.328176692
2025-11-07 15:02:59.508705,0,2025-11-07 15:03:02.335869000
2025-11-07 15:02:59.508705,9,2025-11-07 15:03:02.343561308
2025-11-07 15:02:59.508705,2816,2025-11-07 15:03:02.351253615
2025-11-07 15:02:59.508705,0,2025-11-07 15:03:02.358945923
2025-11-07 15:02:59.508705,7,2025-11-07 15:03:02.366638231
2025-11-07 15:02:59.508705,512,2025-11-07 15:03:02.374330538
2025-11-07 15:02:59.508705,0,2025-11-07 15:03:02.382022846
2025-11-07 15:02:59.508705,0,2025-11-07 15:03:02.389715154
2025-11-07 15:02:59.508705,-1024,2025-11-07 15:03:02.397407462
2025-11-07 15:02:59.508705,-1,2025-11-07 15:03:02.405099769
2025-11-07 15:02:59.508705,-4,2025-11-07 15:03:02.412792077
2025-11-07 15:02:59.508705,255,2025-11-07 15:03:02.420484385
2025-11-07 15:02:59.508705,0,2025-11-07 15:03:02.428176692
2025-11-07 15:02:59.508705,7,2025-11-07 15:03:02.435869000
2025-11-07 15:02:59.508705,-1024,2025-11-07 15:03:02.443561308
2025-11-07 15:02:59.508705,-1,2025-11-07 15:03:02.451253615
2025-11-07 15:02:59.508705,-14,2025-11-07 15:03:02.458945923
2025-11-07 15:02:59.508705,255,2025-11-07 15:03:02.466638231
2025-11-07 15:02:59.508705,0,2025-11-07 15:03:02.474330538
2025-11-07 15:02:59.508705,9,2025-11-07 15:03:02.482022846
2025-11-07 15:02:59.508705,-512,2025-11-07 15:03:02.489715154
2025-11-07 15:02:59.508705,-1,2025-11-07 15:03:02.497407462
2025-11-07 15:02:59.508705,0,2025-11-07 15:03:02.505099769
2025-11-07 15:02:59.508705,4096,2025-11-07 15:03:02.512792077
2025-11-07 15:02:59.508705,0,2025-11-07 15:03:02.520484385
2025-11-07 15:02:59.508705,11,2025-11-07 15:03:02.528176692
2025-11-07 15:02:59.508705,0,2025-11-07 15:03:02.535869000
2025-11-07 15:02:59.508705,0,2025-11-07 15:03:02.543561308
2025-11-07 15:02:59.508705,4,2025-11-07 15:03:02.551253615
2025-11-07 15:02:59.508705,2304,2025-11-07 15:03:02.558945923
2025-11-07 15:02:59.508705,0,2025-11-07 15:03:02.566638230
2025-11-07 15:02:59.508705,0,2025-11-07 15:03:02.574330538
2025-11-07 15:03:00.049621,0,2025-11-07 15:03:02.582022846
2025-11-07 15:03:00.049621,2304,2025-11-07 15:03:02.589715154
2025-11-07 15:03:00.049621,0,2025-11-07 15:03:02.597407462
2025-11-07 15:03:00.049621,16,2025-11-07 15:03:02.605099769
2025-11-07 15:03:00.049621,4864,2025-11-07 15:03:02.612792077
2025-11-07 15:03:00.049621,0,2025-11-07 15:03:02.620484385
2025-11-07 15:03:00.049621,21,2025-11-07 15:03:02.628176692
2025-11-07 15:03:00.049621,8448,2025-11-07 15:03:02.635869000
2025-11-07 15:03:00.049621,0,2025-11-07 15:03:02.643561308
2025-11-07 15:03:00.049621,33,2025-11-07 15:03:02.651253615
2025-11-07 15:03:00.049621,7168,2025-11-07 15:03:02.658945923
2025-11-07 15:03:00.049621,0,2025-11-07 15:03:02.666638231
2025-11-07 15:03:00.049621,33,2025-11-07 15:03:02.674330538
2025-11-07 15:03:00.049621,8960,2025-11-07 15:03:02.682022846
2025-11-07 15:03:00.049621,0,2025-11-07 15:03:02.689715154
2025-11-07 15:03:00.049621,35,2025-11-07 15:03:02.697407462
2025-11-07 15:03:00.049621,11520,2025-11-07 15:03:02.705099769
2025-11-07 15:03:00.049621,0,2025-11-07 15:03:02.712792077
2025-11-07 15:03:00.049621,42,2025-11-07 15:03:02.720484385
2025-11-07 15:03:00.049621,7168,2025-11-07 15:03:02.728176692
2025-11-07 15:03:00.049621,0,2025-11-07 15:03:02.735869000
2025-11-07 15:03:00.049621,30,2025-11-07 15:03:02.743561308
2025-11-07 15:03:00.049621,10752,2025-11-07 15:03:02.751253615
2025-11-07 15:03:00.049621,0,2025-11-07 15:03:02.758945923
2025-11-07 15:03:00.049621,59,2025-11-07 15:03:02.766638231
2025-11-07 15:03:00.049621,16384,2025-11-07 15:03:02.774330538
2025-11-07 15:03:00.049621,0,2025-11-07 15:03:02.782022846
2025-11-07 15:03:00.049621,52,2025-11-07 15:03:02.789715154
2025-11-07 15:03:00.049621,10240,2025-11-07 15:03:02.797407462
2025-11-07 15:03:00.049621,0,2025-11-07 15:03:02.805099769
2025-11-07 15:03:00.049621,42,2025-11-07 15:03:02.812792077
2025-11-07 15:03:00.049621,10240,2025-11-07 15:03:02.820484385
2025-11-07 15:03:00.049621,0,2025-11-07 15:03:02.828176692
2025-11-07 15:03:00.049621,38,2025-11-07 15:03:02.835869000
2025-11-07 15:03:00.049621,11520,2025-11-07 15:03:02.843561308
2025-11-07 15:03:00.049621,0,2025-11-07 15:03:02.851253615
2025-11-07 15:03:00.049621,42,2025-11-07 15:03:02.858945923
2025-11-07 15:03:00.049621,9728,2025-11-07 15:03:02.866638231
2025-11-07 15:03:00.049621,0,2025-11-07 15:03:02.874330538
2025-11-07 15:03:00.049621,35,2025-11-07 15:03:02.882022846
2025-11-07 15:03:00.049621,7680,2025-11-07 15:03:02.889715154
2025-11-07 15:03:00.049621,0,2025-11-07 15:03:02.897407462
2025-11-07 15:03:00.049621,4,2025-11-07 15:03:02.905099769
2025-11-07 15:03:00.049621,-26624,2025-11-07 15:03:02.912792077
2025-11-07 15:03:00.049621,-1,2025-11-07 15:03:02.920484385
2025-11-07 15:03:00.049621,-339,2025-11-07 15:03:02.928176692
2025-11-07 15:03:00.049621,7935,2025-11-07 15:03:02.935869000
2025-11-07 15:03:00.049621,-2,2025-11-07 15:03:02.943561308
2025-11-07 15:03:00.049621,33,2025-11-07 15:03:02.951253615
2025-11-07 15:03:00.049621,13824,2025-11-07 15:03:02.958945923
2025-11-07 15:03:00.049621,4,2025-11-07 15:03:02.966638231
2025-11-07 15:03:00.049621,1489,2025-11-07 15:03:02.974330538
2025-11-07 15:03:00.049621,-26880,2025-11-07 15:03:02.982022846
2025-11-07 15:03:00.049621,3,2025-11-07 15:03:02.989715154
2025-11-07 15:03:00.049621,275,2025-11-07 15:03:02.997407462
2025-11-07 15:03:00.049621,9728,2025-11-07 15:03:03.005099769
2025-11-07 15:03:00.049621,0,2025-11-07 15:03:03.012792077
2025-11-07 15:03:00.049621,-52,2025-11-07 15:03:03.020484385
2025-11-07 15:03:00.049621,29951,2025-11-07 15:03:03.028176692
2025-11-07 15:03:00.049621,-1,2025-11-07 15:03:03.035869000
2025-11-07 15:03:00.049621,-154,2025-11-07 15:03:03.043561308
2025-11-07 15:03:00.049621,28927,2025-11-07 15:03:03.051253615
2025-11-07 15:03:00.049621,-1,2025-11-07 15:03:03.058945923
2025-11-07 15:03:00.049621,-168,2025-11-07 15:03:03.066638231
2025-11-07 15:03:00.049621,19711,2025-11-07 15:03:03.074330538
2025-11-07 15:03:00.049621,-1,2025-11-07 15:03:03.082022846
2025-11-07 15:03:00.049621,-168,2025-11-07 15:03:03.089715154
2025-11-07 15:03:00.049621,27647,2025-11-07 15:03:03.097407462
2025-11-07 15:03:00.049621,-1,2025-11-07 15:03:03.105099769
2025-11-07 15:03:00.049621,-140,2025-11-07 15:03:03.112792077
2025-11-07 15:03:00.049621,25087,2025-11-07 15:03:03.120484385
2025-11-07 15:03:00.049621,-1,2025-11-07 15:03:03.128176692
2025-11-07 15:03:00.049621,-178,2025-11-07 15:03:03.135869000
2025-11-07 15:03:00.049621,21503,2025-11-07 15:03:03.143561308
2025-11-07 15:03:00.049621,-1,2025-11-07 15:03:03.151253615
2025-11-07 15:03:00.049621,-166,2025-11-07 15:03:03.158945923
2025-11-07 15:03:00.049621,20991,2025-11-07 15:03:03.166638231
2025-11-07 15:03:00.049621,-1,2025-11-07 15:03:03.174330538
2025-11-07 15:03:00.049621,-180,2025-11-07 15:03:03.182022846
2025-11-07 15:03:00.049621,23295,2025-11-07 15:03:03.189715154
2025-11-07 15:03:00.049621,-1,2025-11-07 15:03:03.197407462
2025-11-07 15:03:00.049621,-140,2025-11-07 15:03:03.205099769
2025-11-07 15:03:00.049621,-28161,2025-11-07 15:03:03.212792077
2025-11-07 15:03:00.049621,-1,2025-11-07 15:03:03.220484385
2025-11-07 15:03:00.049621,-80,2025-11-07 15:03:03.228176692
2025-11-07 15:03:00.049621,-13057,2025-11-07 15:03:03.235869000
2025-11-07 15:03:00.049621,-1,2025-11-07 15:03:03.243561308
2025-11-07 15:03:00.049621,-30,2025-11-07 15:03:03.251253615
2025-11-07 15:03:00.049621,-257,2025-11-07 15:03:03.258945923
2025-11-07 15:03:00.049621,-1,2025-11-07 15:03:03.266638231
2025-11-07 15:03:00.049621,21,2025-11-07 15:03:03.274330538
2025-11-07 15:03:00.049621,5888,2025-11-07 15:03:03.282022846
2025-11-07 15:03:00.049621,0,2025-11-07 15:03:03.289715154
2025-11-07 15:03:00.049621,26,2025-11-07 15:03:03.297407462
2025-11-07 15:03:00.049621,5376,2025-11-07 15:03:03.305099769
2025-11-07 15:03:00.049621,0,2025-11-07 15:03:03.312792077
2025-11-07 15:03:00.049621,9,2025-11-07 15:03:03.320484385
2025-11-07 15:03:00.049621,1792,2025-11-07 15:03:03.328176692
2025-11-07 15:03:00.049621,0,2025-11-07 15:03:03.335869000
2025-11-07 15:03:00.049621,9,2025-11-07 15:03:03.343561308
2025-11-07 15:03:00.049621,2304,2025-11-07 15:03:03.351253615
2025-11-07 15:03:00.049621,0,2025-11-07 15:03:03.358945923
2025-11-07 15:03:00.049621,9,2025-11-07 15:03:03.366638231
2025-11-07 15:03:00.049621,2816,2025-11-07 15:03:03.374330538
2025-11-07 15:03:00.049621,0,2025-11-07 15:03:03.382022846
2025-11-07 15:03:00.049621,9,2025-11-07 15:03:03.389715154
2025-11-07 15:03:00.049621,2304,2025-11-07 15:03:03.397407462
2025-11-07 15:03:00.049621,0,2025-11-07 15:03:03.405099769
2025-11-07 15:03:00.049621,9,2025-11-07 15:03:03.412792077
2025-11-07 15:03:00.589546,2,2025-11-07 15:03:03.420484385
2025-11-07 15:03:00.589546,1024,2025-11-07 15:03:03.428176692
2025-11-07 15:03:00.589546,0,2025-11-07 15:03:03.435869000
2025-11-07 15:03:00.589546,11,2025-11-07 15:03:03.443561308
2025-11-07 15:03:00.589546,2816,2025-11-07 15:03:03.451253615
2025-11-07 15:03:00.589546,0,2025-11-07 15:03:03.458945923
2025-11-07 15:03:00.589546,9,2025-11-07 15:03:03.466638231
2025-11-07 15:03:00.589546,1792,2025-11-07 15:03:03.474330538
2025-11-07 15:03:00.589546,0,2025-11-07 15:03:03.482022846
2025-11-07 15:03:00.589546,11,2025-11-07 15:03:03.489715154
2025-11-07 15:03:00.589546,6656,2025-11-07 15:03:03.497407462
2025-11-07 15:03:00.589546,0,2025-11-07 15:03:03.505099769
2025-11-07 15:03:00.589546,35,2025-11-07 15:03:03.512792077
2025-11-07 15:03:00.589546,8960,2025-11-07 15:03:03.520484385
2025-11-07 15:03:00.589546,0,2025-11-07 15:03:03.528176692
2025-11-07 15:03:00.589546,42,2025-11-07 15:03:03.535869000
2025-11-07 15:03:00.589546,13824,2025-11-07 15:03:03.543561308
2025-11-07 15:03:00.589546,0,2025-11-07 15:03:03.551253615
2025-11-07 15:03:00.589546,45,2025-11-07 15:03:03.558945923
2025-11-07 15:03:00.589546,7168,2025-11-07 15:03:03.566638230
2025-11-07 15:03:00.589546,0,2025-11-07 15:03:03.574330538
2025-11-07 15:03:00.589546,35,2025-11-07 15:03:03.582022846
2025-11-07 15:03:00.589546,15104,2025-11-07 15:03:03.589715154
2025-11-07 15:03:00.589546,0,2025-11-07 15:03:03.597407462
2025-11-07 15:03:00.589546,66,2025-11-07 15:03:03.605099769
2025-11-07 15:03:00.589546,13824,2025-11-07 15:03:03.612792077
2025-11-07 15:03:00.589546,0,2025-11-07 15:03:03.620484385
2025-11-07 15:03:00.589546,45,2025-11-07 15:03:03.628176692
2025-11-07 15:03:00.589546,11520,2025-11-07 15:03:03.635869000
2025-11-07 15:03:00.589546,0,2025-11-07 15:03:03.643561308
2025-11-07 15:03:00.589546,40,2025-11-07 15:03:03.651253615
2025-11-07 15:03:00.589546,7680,2025-11-07 15:03:03.658945923
2025-11-07 15:03:00.589546,0,2025-11-07 15:03:03.666638231
2025-11-07 15:03:00.589546,23,2025-11-07 15:03:03.674330538
2025-11-07 15:03:00.589546,4096,2025-11-07 15:03:03.682022846
2025-11-07 15:03:00.589546,0,2025-11-07 15:03:03.689715154
2025-11-07 15:03:00.589546,11,2025-11-07 15:03:03.697407462
2025-11-07 15:03:00.589546,10240,2025-11-07 15:03:03.705099769
2025-11-07 15:03:00.589546,0,2025-11-07 15:03:03.712792077
2025-11-07 15:03:00.589546,78,2025-11-07 15:03:03.720484385
2025-11-07 15:03:00.589546,18176,2025-11-07 15:03:03.728176692
2025-11-07 15:03:00.589546,0,2025-11-07 15:03:03.735869000
2025-11-07 15:03:00.589546,49,2025-11-07 15:03:03.743561308
2025-11-07 15:03:00.589546,11520,2025-11-07 15:03:03.751253615
2025-11-07 15:03:00.589546,0,2025-11-07 15:03:03.758945923
2025-11-07 15:03:00.589546,40,2025-11-07 15:03:03.766638231
2025-11-07 15:03:00.589546,10752,2025-11-07 15:03:03.774330538
2025-11-07 15:03:00.589546,0,2025-11-07 15:03:03.782022846
2025-11-07 15:03:00.589546,45,2025-11-07 15:03:03.789715154
2025-11-07 15:03:00.589546,8448,2025-11-07 15:03:03.797407462
2025-11-07 15:03:00.589546,0,2025-11-07 15:03:03.805099769
2025-11-07 15:03:00.589546,28,2025-11-07 15:03:03.812792077
2025-11-07 15:03:00.589546,9728,2025-11-07 15:03:03.820484385
2025-11-07 15:03:00.589546,0,2025-11-07 15:03:03.828176692
2025-11-07 15:03:00.589546,30,2025-11-07 15:03:03.835869000
2025-11-07 15:03:00.589546,-5888,2025-11-07 15:03:03.843561308
2025-11-07 15:03:00.589546,-1,2025-11-07 15:03:03.851253615
2025-11-07 15:03:00.589546,-182,2025-11-07 15:03:03.858945923
2025-11-07 15:03:00.589546,22015,2025-11-07 15:03:03.866638231
2025-11-07 15:03:00.589546,-2,2025-11-07 15:03:03.874330538
2025-11-07 15:03:00.589546,-344,2025-11-07 15:03:03.882022846
2025-11-07 15:03:00.589546,-3073,2025-11-07 15:03:03.889715154
2025-11-07 15:03:00.589546,1,2025-11-07 15:03:03.897407462
2025-11-07 15:03:00.589546,1373,2025-11-07 15:03:03.905099769
2025-11-07 15:03:00.589546,-1024,2025-11-07 15:03:03.912792077
2025-11-07 15:03:00.589546,4,2025-11-07 15:03:03.920484385
2025-11-07 15:03:00.589546,582,2025-11-07 15:03:03.928176692
2025-11-07 15:03:00.589546,-29696,2025-11-07 15:03:03.935869000
2025-11-07 15:03:00.589546,0,2025-11-07 15:03:03.943561308
2025-11-07 15:03:00.589546,9,2025-11-07 15:03:03.951253615
2025-11-07 15:03:00.589546,-22272,2025-11-07 15:03:03.958945923
2025-11-07 15:03:00.589546,-1,2025-11-07 15:03:03.966638231
2025-11-07 15:03:00.589546,-156,2025-11-07 15:03:03.974330538
2025-11-07 15:03:00.589546,30719,2025-11-07 15:03:03.982022846
2025-11-07 15:03:00.589546,-1,2025-11-07 15:03:03.989715154
2025-11-07 15:03:00.589546,-123,2025-11-07 15:03:03.997407462
2025-11-07 15:03:00.589546,28927,2025-11-07 15:03:04.005099769
2025-11-07 15:03:00.589546,-1,2025-11-07 15:03:04.012792077
2025-11-07 15:03:00.589546,-147,2025-11-07 15:03:04.020484385
2025-11-07 15:03:00.589546,29951,2025-11-07 15:03:04.028176692
2025-11-07 15:03:00.589546,-1,2025-11-07 15:03:04.035869000
2025-11-07 15:03:00.589546,-147,2025-11-07 15:03:04.043561308
2025-11-07 15:03:00.589546,26367,2025-11-07 15:03:04.051253615
2025-11-07 15:03:00.589546,-1,2025-11-07 15:03:04.058945923
2025-11-07 15:03:00.589546,-154,2025-11-07 15:03:04.066638231
2025-11-07 15:03:00.589546,26367,2025-11-07 15:03:04.074330538
2025-11-07 15:03:00.589546,-1,2025-11-07 15:03:04.082022846
2025-11-07 15:03:00.589546,-161,2025-11-07 15:03:04.089715154
2025-11-07 15:03:00.589546,23295,2025-11-07 15:03:04.097407462
2025-11-07 15:03:00.589546,-1,2025-11-07 15:03:04.105099769
2025-11-07 15:03:00.589546,-163,2025-11-07 15:03:04.112792077
2025-11-07 15:03:00.589546,26879,2025-11-07 15:03:04.120484385
2025-11-07 15:03:00.589546,-1,2025-11-07 15:03:04.128176692
2025-11-07 15:03:00.589546,-137,2025-11-07 15:03:04.135869000
2025-11-07 15:03:00.589546,-30721,2025-11-07 15:03:04.143561308
2025-11-07 15:03:00.589546,-1,2025-11-07 15:03:04.151253615
2025-11-07 15:03:00.589546,-92,2025-11-07 15:03:04.158945923
2025-11-07 15:03:00.589546,-14337,2025-11-07 15:03:04.166638231
2025-11-07 15:03:00.589546,-1,2025-11-07 15:03:04.174330538
2025-11-07 15:03:00.589546,-33,2025-11-07 15:03:04.182022846
2025-11-07 15:03:00.589546,-3841,2025-11-07 15:03:04.189715154
2025-11-07 15:03:00.589546,-1,2025-11-07 15:03:04.197407462
2025-11-07 15:03:00.589546,11,2025-11-07 15:03:04.205099769
2025-11-07 15:03:00.589546,8448,2025-11-07 15:03:04.212792077
2025-11-07 15:03:00.589546,0,2025-11-07 15:03:04.220484385
2025-11-07 15:03:00.589546,28,2025-11-07 15:03:04.228176692
2025-11-07 15:03:00.589546,4096,2025-11-07 15:03:04.235869000
2025-11-07 15:03:00.589546,0,2025-11-07 15:03:04.243561308
2025-11-07 15:03:00.589546,19,2025-11-07 15:03:04.251253615
2025-11-07 15:03:01.173705,16,2025-11-07 15:03:04.258945923
2025-11-07 15:03:01.173705,2304,2025-11-07 15:03:04.266638231
2025-11-07 15:03:01.173705,0,2025-11-07 15:03:04.274330538
2025-11-07 15:03:01.173705,14,2025-11-07 15:03:04.282022846
2025-11-07 15:03:01.173705,5376,2025-11-07 15:03:04.289715154
2025-11-07 15:03:01.173705,0,2025-11-07 15:03:04.297407462
2025-11-07 15:03:01.173705,23,2025-11-07 15:03:04.305099769
2025-11-07 15:03:01.173705,8448,2025-11-07 15:03:04.312792077
2025-11-07 15:03:01.173705,0,2025-11-07 15:03:04.320484385
2025-11-07 15:03:01.173705,38,2025-11-07 15:03:04.328176692
2025-11-07 15:03:01.173705,7680,2025-11-07 15:03:04.335869000
2025-11-07 15:03:01.173705,0,2025-11-07 15:03:04.343561308
2025-11-07 15:03:01.173705,28,2025-11-07 15:03:04.351253615
2025-11-07 15:03:01.173705,8448,2025-11-07 15:03:04.358945923
2025-11-07 15:03:01.173705,0,2025-11-07 15:03:04.366638231
2025-11-07 15:03:01.173705,28,2025-11-07 15:03:04.374330538
2025-11-07 15:03:01.173705,4864,2025-11-07 15:03:04.382022846
2025-11-07 15:03:01.173705,0,2025-11-07 15:03:04.389715154
2025-11-07 15:03:01.173705,14,2025-11-07 15:03:04.397407462
2025-11-07 15:03:01.173705,4864,2025-11-07 15:03:04.405099769
2025-11-07 15:03:01.173705,0,2025-11-07 15:03:04.412792077
2025-11-07 15:03:01.173705,21,2025-11-07 15:03:04.420484385
2025-11-07 15:03:01.173705,4096,2025-11-07 15:03:04.428176692
2025-11-07 15:03:01.173705,0,2025-11-07 15:03:04.435869000
2025-11-07 15:03:01.173705,19,2025-11-07 15:03:04.443561308
2025-11-07 15:03:01.173705,6656,2025-11-07 15:03:04.451253615
2025-11-07 15:03:01.173705,0,2025-11-07 15:03:04.458945923
2025-11-07 15:03:01.173705,23,2025-11-07 15:03:04.466638231
2025-11-07 15:03:01.173705,7680,2025-11-07 15:03:04.474330538
2025-11-07 15:03:01.173705,0,2025-11-07 15:03:04.482022846
2025-11-07 15:03:01.173705,40,2025-11-07 15:03:04.489715154
2025-11-07 15:03:01.173705,8448,2025-11-07 15:03:04.497407462
2025-11-07 15:03:01.173705,0,2025-11-07 15:03:04.505099769
2025-11-07 15:03:01.173705,33,2025-11-07 15:03:04.512792077
2025-11-07 15:03:01.173705,7168,2025-11-07 15:03:04.520484385
2025-11-07 15:03:01.173705,0,2025-11-07 15:03:04.528176692
2025-11-07 15:03:01.173705,9,2025-11-07 15:03:04.535869000
2025-11-07 15:03:01.173705,5376,2025-11-07 15:03:04.543561308
2025-11-07 15:03:01.173705,0,2025-11-07 15:03:04.551253615
2025-11-07 15:03:01.173705,45,2025-11-07 15:03:04.558945923
2025-11-07 15:03:01.173705,4096,2025-11-07 15:03:04.566638230
2025-11-07 15:03:01.173705,0,2025-11-07 15:03:04.574330538
2025-11-07 15:03:01.173705,4,2025-11-07 15:03:04.582022846
2025-11-07 15:03:01.173705,13824,2025-11-07 15:03:04.589715154
2025-11-07 15:03:01.173705,0,2025-11-07 15:03:04.597407462
2025-11-07 15:03:01.173705,73,2025-11-07 15:03:04.605099769
2025-11-07 15:03:01.173705,12544,2025-11-07 15:03:04.612792077
2025-11-07 15:03:01.173705,0,2025-11-07 15:03:04.620484385
2025-11-07 15:03:01.173705,54,2025-11-07 15:03:04.628176692
2025-11-07 15:03:01.173705,18176,2025-11-07 15:03:04.635869000
2025-11-07 15:03:01.173705,0,2025-11-07 15:03:04.643561308
2025-11-07 15:03:01.173705,61,2025-11-07 15:03:04.651253615
2025-11-07 15:03:01.173705,12544,2025-11-07 15:03:04.658945923
2025-11-07 15:03:01.173705,0,2025-11-07 15:03:04.666638231
2025-11-07 15:03:01.173705,42,2025-11-07 15:03:04.674330538
2025-11-07 15:03:01.173705,9728,2025-11-07 15:03:04.682022846
2025-11-07 15:03:01.173705,0,2025-11-07 15:03:04.689715154
2025-11-07 15:03:01.173705,40,2025-11-07 15:03:04.697407462
2025-11-07 15:03:01.173705,10752,2025-11-07 15:03:04.705099769
2025-11-07 15:03:01.173705,0,2025-11-07 15:03:04.712792077
2025-11-07 15:03:01.173705,40,2025-11-07 15:03:04.720484385
2025-11-07 15:03:01.173705,8960,2025-11-07 15:03:04.728176692
2025-11-07 15:03:01.173705,0,2025-11-07 15:03:04.735869000
2025-11-07 15:03:01.173705,28,2025-11-07 15:03:04.743561308
2025-11-07 15:03:01.173705,-1792,2025-11-07 15:03:04.751253615
2025-11-07 15:03:01.173705,-1,2025-11-07 15:03:04.758945923
2025-11-07 15:03:01.173705,-142,2025-11-07 15:03:04.766638231
2025-11-07 15:03:01.173705,29951,2025-11-07 15:03:04.774330538
2025-11-07 15:03:01.173705,-2,2025-11-07 15:03:04.782022846
2025-11-07 15:03:01.173705,-430,2025-11-07 15:03:04.789715154
2025-11-07 15:03:01.173705,9471,2025-11-07 15:03:04.797407462
2025-11-07 15:03:01.173705,1,2025-11-07 15:03:04.805099769
2025-11-07 15:03:01.173705,1309,2025-11-07 15:03:04.812792077
2025-11-07 15:03:01.173705,-24576,2025-11-07 15:03:04.820484385
2025-11-07 15:03:01.173705,5,2025-11-07 15:03:04.828176692
2025-11-07 15:03:01.173705,748,2025-11-07 15:03:04.835869000
2025-11-07 15:03:01.173705,-15872,2025-11-07 15:03:04.843561308
2025-11-07 15:03:01.173705,0,2025-11-07 15:03:04.851253615
2025-11-07 15:03:01.173705,38,2025-11-07 15:03:04.858945923
2025-11-07 15:03:01.173705,-12544,2025-11-07 15:03:04.866638231
2025-11-07 15:03:01.173705,-1,2025-11-07 15:03:04.874330538
2025-11-07 15:03:01.173705,-140,2025-11-07 15:03:04.882022846
2025-11-07 15:03:01.173705,27647,2025-11-07 15:03:04.889715154
2025-11-07 15:03:01.173705,-1,2025-11-07 15:03:04.897407462
2025-11-07 15:03:01.173705,-142,2025-11-07 15:03:04.905099769
2025-11-07 15:03:01.173705,27647,2025-11-07 15:03:04.912792077
2025-11-07 15:03:01.173705,-1,2025-11-07 15:03:04.920484385
2025-11-07 15:03:01.173705,-140,2025-11-07 15:03:04.928176692
2025-11-07 15:03:01.173705,31231,2025-11-07 15:03:04.935869000
2025-11-07 15:03:01.173705,-1,2025-11-07 15:03:04.943561308
2025-11-07 15:03:01.173705,-147,2025-11-07 15:03:04.951253615
2025-11-07 15:03:01.173705,26879,2025-11-07 15:03:04.958945923
2025-11-07 15:03:01.173705,-1,2025-11-07 15:03:04.966638231
2025-11-07 15:03:01.173705,-154,2025-11-07 15:03:04.974330538
2025-11-07 15:03:01.173705,25087,2025-11-07 15:03:04.982022846
2025-11-07 15:03:01.173705,-1,2025-11-07 15:03:04.989715154
2025-11-07 15:03:01.173705,-161,2025-11-07 15:03:04.997407462
2025-11-07 15:03:01.173705,23295,2025-11-07 15:03:05.005099769
2025-11-07 15:03:01.173705,-1,2025-11-07 15:03:05.012792077
2025-11-07 15:03:01.173705,-163,2025-11-07 15:03:05.020484385
2025-11-07 15:03:01.173705,26879,2025-11-07 15:03:05.028176692
2025-11-07 15:03:01.173705,-1,2025-11-07 15:03:05.035869000
2025-11-07 15:03:01.173705,-142,2025-11-07 15:03:05.043561308
2025-11-07 15:03:01.173705,-31745,2025-11-07 15:03:05.051253615
2025-11-07 15:03:01.173705,-1,2025-11-07 15:03:05.058945923
2025-11-07 15:03:01.173705,-99,2025-11-07 15:03:05.066638231
2025-11-07 15:03:01.173705,-19713,2025-11-07 15:03:05.074330538
2025-11-07 15:03:01.173705,-1,2025-11-07 15:03:05.082022846
2025-11-07 15:03:01.173705,-47,2025-11-07 15:03:05.089715154
2025-11-07 15:03:01.758639,-14,2025-11-07 15:03:05.097407462
2025-11-07 15:03:01.758639,2559,2025-11-07 15:03:05.105099769
2025-11-07 15:03:01.758639,0,2025-11-07 15:03:05.112792077
2025-11-07 15:03:01.758639,16,2025-11-07 15:03:05.120484385
2025-11-07 15:03:01.758639,3584,2025-11-07 15:03:05.128176692
2025-11-07 15:03:01.758639,0,2025-11-07 15:03:05.135869000
2025-11-07 15:03:01.758639,11,2025-11-07 15:03:05.143561308
2025-11-07 15:03:01.758639,4864,2025-11-07 15:03:05.151253615
2025-11-07 15:03:01.758639,0,2025-11-07 15:03:05.158945923
2025-11-07 15:03:01.758639,14,2025-11-07 15:03:05.166638231
2025-11-07 15:03:01.758639,0,2025-11-07 15:03:05.174330538
2025-11-07 15:03:01.758639,0,2025-11-07 15:03:05.182022846
2025-11-07 15:03:01.758639,2,2025-11-07 15:03:05.189715154
2025-11-07 15:03:01.758639,7680,2025-11-07 15:03:05.197407462
2025-11-07 15:03:01.758639,0,2025-11-07 15:03:05.205099769
2025-11-07 15:03:01.758639,42,2025-11-07 15:03:05.212792077
2025-11-07 15:03:01.758639,512,2025-11-07 15:03:05.220484385
2025-11-07 15:03:01.758639,0,2025-11-07 15:03:05.228176692
2025-11-07 15:03:01.758639,-7,2025-11-07 15:03:05.235869000
2025-11-07 15:03:01.758639,14079,2025-11-07 15:03:05.243561308
2025-11-07 15:03:01.758639,0,2025-11-07 15:03:05.251253615
2025-11-07 15:03:01.758639,73,2025-11-07 15:03:05.258945923
2025-11-07 15:03:01.758639,5376,2025-11-07 15:03:05.266638231
2025-11-07 15:03:01.758639,0,2025-11-07 15:03:05.274330538
2025-11-07 15:03:01.758639,9,2025-11-07 15:03:05.282022846
2025-11-07 15:03:01.758639,6656,2025-11-07 15:03:05.289715154
2025-11-07 15:03:01.758639,0,2025-11-07 15:03:05.297407462
2025-11-07 15:03:01.758639,7,2025-11-07 15:03:05.305099769
2025-11-07 15:03:01.758639,0,2025-11-07 15:03:05.312792077
2025-11-07 15:03:01.758639,0,2025-11-07 15:03:05.320484385
2025-11-07 15:03:01.758639,28,2025-11-07 15:03:05.328176692
2025-11-07 15:03:01.758639,5888,2025-11-07 15:03:05.335869000
2025-11-07 15:03:01.758639,0,2025-11-07 15:03:05.343561308
2025-11-07 15:03:01.758639,4,2025-11-07 15:03:05.351253615
2025-11-07 15:03:01.758639,3584,2025-11-07 15:03:05.358945923
2025-11-07 15:03:01.758639,0,2025-11-07 15:03:05.366638231
2025-11-07 15:03:01.758639,33,2025-11-07 15:03:05.374330538
2025-11-07 15:03:01.758639,7168,2025-11-07 15:03:05.382022846
2025-11-07 15:03:01.758639,0,2025-11-07 15:03:05.389715154
2025-11-07 15:03:01.758639,14,2025-11-07 15:03:05.397407462
2025-11-07 15:03:01.758639,4096,2025-11-07 15:03:05.405099769
2025-11-07 15:03:01.758639,0,2025-11-07 15:03:05.412792077
2025-11-07 15:03:01.758639,23,2025-11-07 15:03:05.420484385
2025-11-07 15:03:01.758639,4864,2025-11-07 15:03:05.428176692
2025-11-07 15:03:01.758639,0,2025-11-07 15:03:05.435869000
2025-11-07 15:03:01.758639,16,2025-11-07 15:03:05.443561308
2025-11-07 15:03:01.758639,5888,2025-11-07 15:03:05.451253615
2025-11-07 15:03:01.758639,0,2025-11-07 15:03:05.458945923
2025-11-07 15:03:01.758639,16,2025-11-07 15:03:05.466638231
2025-11-07 15:03:01.758639,-512,2025-11-07 15:03:05.474330538
2025-11-07 15:03:01.758639,-1,2025-11-07 15:03:05.482022846
2025-11-07 15:03:01.758639,-14,2025-11-07 15:03:05.489715154
2025-11-07 15:03:01.758639,255,2025-11-07 15:03:05.497407462
2025-11-07 15:03:01.758639,0,2025-11-07 15:03:05.505099769
2025-11-07 15:03:01.758639,16,2025-11-07 15:03:05.512792077
2025-11-07 15:03:01.758639,4096,2025-11-07 15:03:05.520484385
2025-11-07 15:03:01.758639,0,2025-11-07 15:03:05.528176692
2025-11-07 15:03:01.758639,19,2025-11-07 15:03:05.535869000
2025-11-07 15:03:01.758639,7680,2025-11-07 15:03:05.543561308
2025-11-07 15:03:01.758639,0,2025-11-07 15:03:05.551253615
2025-11-07 15:03:01.758639,40,2025-11-07 15:03:05.558945923
2025-11-07 15:03:01.758639,8448,2025-11-07 15:03:05.566638230
2025-11-07 15:03:01.758639,0,2025-11-07 15:03:05.574330538
2025-11-07 15:03:01.758639,21,2025-11-07 15:03:05.582022846
2025-11-07 15:03:01.758639,3584,2025-11-07 15:03:05.589715154
2025-11-07 15:03:01.758639,0,2025-11-07 15:03:05.597407462
2025-11-07 15:03:01.758639,16,2025-11-07 15:03:05.605099769
2025-11-07 15:03:01.758639,2816,2025-11-07 15:03:05.612792077
2025-11-07 15:03:01.758639,0,2025-11-07 15:03:05.620484385
2025-11-07 15:03:01.758639,4,2025-11-07 15:03:05.628176692
2025-11-07 15:03:01.758639,2816,2025-11-07 15:03:05.635869000
2025-11-07 15:03:01.758639,0,2025-11-07 15:03:05.643561308
2025-11-07 15:03:01.758639,21,2025-11-07 15:03:05.651253615
2025-11-07 15:03:01.758639,3584,2025-11-07 15:03:05.658945923
2025-11-07 15:03:01.758639,0,2025-11-07 15:03:05.666638231
2025-11-07 15:03:01.758639,-42,2025-11-07 15:03:05.674330538
2025-11-07 15:03:01.758639,11775,2025-11-07 15:03:05.682022846
2025-11-07 15:03:01.758639,-1,2025-11-07 15:03:05.689715154
2025-11-07 15:03:01.758639,-468,2025-11-07 15:03:05.697407462
2025-11-07 15:03:01.758639,31743,2025-11-07 15:03:05.705099769
2025-11-07 15:03:01.758639,-2,2025-11-07 15:03:05.712792077
2025-11-07 15:03:01.758639,470,2025-11-07 15:03:05.720484385
2025-11-07 15:03:01.758639,26368,2025-11-07 15:03:05.728176692
2025-11-07 15:03:01.758639,5,2025-11-07 15:03:05.735869000
2025-11-07 15:03:01.758639,1292,2025-11-07 15:03:05.743561308
2025-11-07 15:03:01.758639,13568,2025-11-07 15:03:05.751253615
2025-11-07 15:03:01.758639,2,2025-11-07 15:03:05.758945923
2025-11-07 15:03:01.758639,97,2025-11-07 15:03:05.766638231
2025-11-07 15:03:01.758639,-10240,2025-11-07 15:03:05.774330538
2025-11-07 15:03:01.758639,-1,2025-11-07 15:03:05.782022846
2025-11-07 15:03:01.758639,-133,2025-11-07 15:03:05.789715154
2025-11-07 15:03:01.758639,15359,2025-11-07 15:03:05.797407462
2025-11-07 15:03:01.758639,-1,2025-11-07 15:03:05.805099769
2025-11-07 15:03:01.758639,-192,2025-11-07 15:03:05.812792077
2025-11-07 15:03:01.758639,16639,2025-11-07 15:03:05.820484385
2025-11-07 15:03:01.758639,-1,2025-11-07 15:03:05.828176692
2025-11-07 15:03:01.758639,-209,2025-11-07 15:03:05.835869000
2025-11-07 15:03:01.758639,12287,2025-11-07 15:03:05.843561308
2025-11-07 15:03:01.758639,-1,2025-11-07 15:03:05.851253615
2025-11-07 15:03:01.758639,-204,2025-11-07 15:03:05.858945923
2025-11-07 15:03:01.758639,11775,2025-11-07 15:03:05.866638231
2025-11-07 15:03:01.758639,-1,2025-11-07 15:03:05.874330538
2025-11-07 15:03:01.758639,-218,2025-11-07 15:03:05.882022846
2025-11-07 15:03:01.758639,8703,2025-11-07 15:03:05.889715154
2025-11-07 15:03:01.758639,-1,2025-11-07 15:03:05.897407462
2025-11-07 15:03:01.758639,-230,2025-11-07 15:03:05.905099769
2025-11-07 15:03:01.758639,6399,2025-11-07 15:03:05.912792077
2025-11-07 15:03:01.758639,-1,2025-11-07 15:03:05.920484385
2025-11-07 15:03:01.758639,-235,2025-11-07 15:03:05.928176692
2025-11-07 15:03:02.299350,-235,2025-11-07 15:03:05.935869000
2025-11-07 15:03:02.299350,7423,2025-11-07 15:03:05.943561308
2025-11-07 15:03:02.299350,-1,2025-11-07 15:03:05.951253615
2025-11-07 15:03:02.299350,-211,2025-11-07 15:03:05.958945923
2025-11-07 15:03:02.299350,16639,2025-11-07 15:03:05.966638231
2025-11-07 15:03:02.299350,-1,2025-11-07 15:03:05.974330538
2025-11-07 15:03:02.299350,-168,2025-11-07 15:03:05.982022846
2025-11-07 15:03:02.299350,30719,2025-11-07 15:03:05.989715154
2025-11-07 15:03:02.299350,-1,2025-11-07 15:03:05.997407462
2025-11-07 15:03:02.299350,-109,2025-11-07 15:03:06.005099769
2025-11-07 15:03:02.299350,-22017,2025-11-07 15:03:06.012792077
2025-11-07 15:03:02.299350,-1,2025-11-07 15:03:06.020484385
2025-11-07 15:03:02.299350,-66,2025-11-07 15:03:06.028176692
2025-11-07 15:03:02.299350,-13569,2025-11-07 15:03:06.035869000
2025-11-07 15:03:02.299350,-1,2025-11-07 15:03:06.043561308
2025-11-07 15:03:02.299350,-49,2025-11-07 15:03:06.051253615
2025-11-07 15:03:02.299350,-10497,2025-11-07 15:03:06.058945923
2025-11-07 15:03:02.299350,-1,2025-11-07 15:03:06.066638231
2025-11-07 15:03:02.299350,-38,2025-11-07 15:03:06.074330538
2025-11-07 15:03:02.299350,-11265,2025-11-07 15:03:06.082022846
2025-11-07 15:03:02.299350,-1,2025-11-07 15:03:06.089715154
2025-11-07 15:03:02.299350,-49,2025-11-07 15:03:06.097407462
2025-11-07 15:03:02.299350,-11777,2025-11-07 15:03:06.105099769
2025-11-07 15:03:02.299350,-1,2025-11-07 15:03:06.112792077
2025-11-07 15:03:02.299350,-52,2025-11-07 15:03:06.120484385
2025-11-07 15:03:02.299350,-12289,2025-11-07 15:03:06.128176692
2025-11-07 15:03:02.299350,-1,2025-11-07 15:03:06.135869000
2025-11-07 15:03:02.299350,-49,2025-11-07 15:03:06.143561308
2025-11-07 15:03:02.299350,-13057,2025-11-07 15:03:06.151253615
2025-11-07 15:03:02.299350,-1,2025-11-07 15:03:06.158945923
2025-11-07 15:03:02.299350,-54,2025-11-07 15:03:06.166638231
2025-11-07 15:03:02.299350,-13569,2025-11-07 15:03:06.174330538
2025-11-07 15:03:02.299350,-1,2025-11-07 15:03:06.182022846
2025-11-07 15:03:02.299350,-59,2025-11-07 15:03:06.189715154
2025-11-07 15:03:02.299350,-15361,2025-11-07 15:03:06.197407462
2025-11-07 15:03:02.299350,-1,2025-11-07 15:03:06.205099769
2025-11-07 15:03:02.299350,-64,2025-11-07 15:03:06.212792077
2025-11-07 15:03:02.299350,-16641,2025-11-07 15:03:06.220484385
2025-11-07 15:03:02.299350,-1,2025-11-07 15:03:06.228176692
2025-11-07 15:03:02.299350,-68,2025-11-07 15:03:06.235869000
2025-11-07 15:03:02.299350,-17921,2025-11-07 15:03:06.243561308
2025-11-07 15:03:02.299350,-1,2025-11-07 15:03:06.251253615
2025-11-07 15:03:02.299350,-71,2025-11-07 15:03:06.258945923
2025-11-07 15:03:02.299350,-16641,2025-11-07 15:03:06.266638231
2025-11-07 15:03:02.299350,-1,2025-11-07 15:03:06.274330538
2025-11-07 15:03:02.299350,-61,2025-11-07 15:03:06.282022846
2025-11-07 15:03:02.299350,-15361,2025-11-07 15:03:06.289715154
2025-11-07 15:03:02.299350,-1,2025-11-07 15:03:06.297407462
2025-11-07 15:03:02.299350,-61,2025-11-07 15:03:06.305099769
2025-11-07 15:03:02.299350,-14337,2025-11-07 15:03:06.312792077
2025-11-07 15:03:02.299350,-1,2025-11-07 15:03:06.320484385
2025-11-07 15:03:02.299350,-57,2025-11-07 15:03:06.328176692
2025-11-07 15:03:02.299350,-14337,2025-11-07 15:03:06.335869000
2025-11-07 15:03:02.299350,-1,2025-11-07 15:03:06.343561308
2025-11-07 15:03:02.299350,-59,2025-11-07 15:03:06.351253615
2025-11-07 15:03:02.299350,-15361,2025-11-07 15:03:06.358945923
2025-11-07 15:03:02.299350,-1,2025-11-07 15:03:06.366638231
2025-11-07 15:03:02.299350,-64,2025-11-07 15:03:06.374330538
2025-11-07 15:03:02.299350,-17921,2025-11-07 15:03:06.382022846
2025-11-07 15:03:02.299350,-1,2025-11-07 15:03:06.389715154
2025-11-07 15:03:02.299350,-76,2025-11-07 15:03:06.397407462
2025-11-07 15:03:02.299350,-19201,2025-11-07 15:03:06.405099769
2025-11-07 15:03:02.299350,-1,2025-11-07 15:03:06.412792077
2025-11-07 15:03:02.299350,-71,2025-11-07 15:03:06.420484385
2025-11-07 15:03:02.299350,-14849,2025-11-07 15:03:06.428176692
2025-11-07 15:03:02.299350,-1,2025-11-07 15:03:06.435869000
2025-11-07 15:03:02.299350,-47,2025-11-07 15:03:06.443561308
2025-11-07 15:03:02.299350,-10497,2025-11-07 15:03:06.451253615
2025-11-07 15:03:02.299350,-1,2025-11-07 15:03:06.458945923
2025-11-07 15:03:02.299350,-40,2025-11-07 15:03:06.466638231
2025-11-07 15:03:02.299350,-12289,2025-11-07 15:03:06.474330538
2025-11-07 15:03:02.299350,-1,2025-11-07 15:03:06.482022846
2025-11-07 15:03:02.299350,-57,2025-11-07 15:03:06.489715154
2025-11-07 15:03:02.299350,-13057,2025-11-07 15:03:06.497407462
2025-11-07 15:03:02.299350,-1,2025-11-07 15:03:06.505099769
2025-11-07 15:03:02.299350,-47,2025-11-07 15:03:06.512792077
2025-11-07 15:03:02.299350,-11265,2025-11-07 15:03:06.520484385
2025-11-07 15:03:02.299350,-1,2025-11-07 15:03:06.528176692
2025-11-07 15:03:02.299350,-42,2025-11-07 15:03:06.535869000
2025-11-07 15:03:02.299350,-11265,2025-11-07 15:03:06.543561308
2025-11-07 15:03:02.299350,-1,2025-11-07 15:03:06.551253615
2025-11-07 15:03:02.299350,-54,2025-11-07 15:03:06.558945923
2025-11-07 15:03:02.299350,-22017,2025-11-07 15:03:06.566638230
2025-11-07 15:03:02.299350,-1,2025-11-07 15:03:06.574330538
2025-11-07 15:03:02.299350,-216,2025-11-07 15:03:06.582022846
2025-11-07 15:03:02.299350,10495,2025-11-07 15:03:06.589715154
2025-11-07 15:03:02.299350,-2,2025-11-07 15:03:06.597407462
2025-11-07 15:03:02.299350,-539,2025-11-07 15:03:06.605099769
2025-11-07 15:03:02.299350,-27649,2025-11-07 15:03:06.612792077
2025-11-07 15:03:02.299350,0,2025-11-07 15:03:06.620484385
2025-11-07 15:03:02.299350,1166,2025-11-07 15:03:06.628176692
2025-11-07 15:03:02.299350,11008,2025-11-07 15:03:06.635869000
2025-11-07 15:03:02.299350,5,2025-11-07 15:03:06.643561308
2025-11-07 15:03:02.299350,660,2025-11-07 15:03:06.651253615
2025-11-07 15:03:02.299350,-30976,2025-11-07 15:03:06.658945923
2025-11-07 15:03:02.299350,0,2025-11-07 15:03:06.666638231
2025-11-07 15:03:02.299350,-28,2025-11-07 15:03:06.674330538
2025-11-07 15:03:02.299350,29951,2025-11-07 15:03:06.682022846
2025-11-07 15:03:02.299350,-1,2025-11-07 15:03:06.689715154
2025-11-07 15:03:02.299350,-225,2025-11-07 15:03:06.697407462
2025-11-07 15:03:02.299350,9471,2025-11-07 15:03:06.705099769
2025-11-07 15:03:02.299350,-1,2025-11-07 15:03:06.712792077
2025-11-07 15:03:02.299350,-211,2025-11-07 15:03:06.720484385
2025-11-07 15:03:02.299350,6911,2025-11-07 15:03:06.728176692
2025-11-07 15:03:02.299350,-1,2025-11-07 15:03:06.735869000
2025-11-07 15:03:02.299350,-228,2025-11-07 15:03:06.743561308
2025-11-07 15:03:02.299350,8703,2025-11-07 15:03:06.751253615
2025-11-07 15:03:02.299350,-1,2025-11-07 15:03:06.758945923
2025-11-07 15:03:02.299350,-232,2025-11-07 15:03:06.766638231
2025-11-07 15:03:02.883637,-232,2025-11-07 15:03:06.774330538
2025-11-07 15:03:02.883637,6911,2025-11-07 15:03:06.782022846
2025-11-07 15:03:02.883637,-1,2025-11-07 15:03:06.789715154
2025-11-07 15:03:02.883637,-235,2025-11-07 15:03:06.797407462
2025-11-07 15:03:02.883637,3839,2025-11-07 15:03:06.805099769
2025-11-07 15:03:02.883637,-1,2025-11-07 15:03:06.812792077
2025-11-07 15:03:02.883637,-242,2025-11-07 15:03:06.820484385
2025-11-07 15:03:02.883637,3839,2025-11-07 15:03:06.828176692
2025-11-07 15:03:02.883637,-1,2025-11-07 15:03:06.835869000
2025-11-07 15:03:02.883637,-235,2025-11-07 15:03:06.843561308
2025-11-07 15:03:02.883637,10495,2025-11-07 15:03:06.851253615
2025-11-07 15:03:02.883637,-1,2025-11-07 15:03:06.858945923
2025-11-07 15:03:02.883637,-185,2025-11-07 15:03:06.866638231
2025-11-07 15:03:02.883637,28159,2025-11-07 15:03:06.874330538
2025-11-07 15:03:02.883637,-1,2025-11-07 15:03:06.882022846
2025-11-07 15:03:02.883637,-116,2025-11-07 15:03:06.889715154
2025-11-07 15:03:02.883637,-22017,2025-11-07 15:03:06.897407462
2025-11-07 15:03:02.883637,-1,2025-11-07 15:03:06.905099769
2025-11-07 15:03:02.883637,-59,2025-11-07 15:03:06.912792077
2025-11-07 15:03:02.883637,-7425,2025-11-07 15:03:06.920484385
2025-11-07 15:03:02.883637,-1,2025-11-07 15:03:06.928176692
2025-11-07 15:03:02.883637,-14,2025-11-07 15:03:06.935869000
2025-11-07 15:03:02.883637,-3329,2025-11-07 15:03:06.943561308
2025-11-07 15:03:02.883637,-1,2025-11-07 15:03:06.951253615
2025-11-07 15:03:02.883637,-23,2025-11-07 15:03:06.958945923
2025-11-07 15:03:02.883637,-6913,2025-11-07 15:03:06.966638231
2025-11-07 15:03:02.883637,-1,2025-11-07 15:03:06.974330538
2025-11-07 15:03:02.883637,-23,2025-11-07 15:03:06.982022846
2025-11-07 15:03:02.883637,-5633,2025-11-07 15:03:06.989715154
2025-11-07 15:03:02.883637,-1,2025-11-07 15:03:06.997407462
2025-11-07 15:03:02.883637,-28,2025-11-07 15:03:07.005099769
2025-11-07 15:03:02.883637,-6401,2025-11-07 15:03:07.012792077
2025-11-07 15:03:02.883637,-1,2025-11-07 15:03:07.020484385
2025-11-07 15:03:02.883637,-23,2025-11-07 15:03:07.028176692
2025-11-07 15:03:02.883637,-5121,2025-11-07 15:03:07.035869000
2025-11-07 15:03:02.883637,-1,2025-11-07 15:03:07.043561308
2025-11-07 15:03:02.883637,-21,2025-11-07 15:03:07.051253615
2025-11-07 15:03:02.883637,-6913,2025-11-07 15:03:07.058945923
2025-11-07 15:03:02.883637,-1,2025-11-07 15:03:07.066638231
2025-11-07 15:03:02.883637,-33,2025-11-07 15:03:07.074330538
2025-11-07 15:03:02.883637,-6913,2025-11-07 15:03:07.082022846
2025-11-07 15:03:02.883637,-1,2025-11-07 15:03:07.089715154
2025-11-07 15:03:02.883637,-26,2025-11-07 15:03:07.097407462
2025-11-07 15:03:02.883637,-7425,2025-11-07 15:03:07.105099769
2025-11-07 15:03:02.883637,-1,2025-11-07 15:03:07.112792077
2025-11-07 15:03:02.883637,-33,2025-11-07 15:03:07.120484385
2025-11-07 15:03:02.883637,-8705,2025-11-07 15:03:07.128176692
2025-11-07 15:03:02.883637,-1,2025-11-07 15:03:07.135869000
2025-11-07 15:03:02.883637,-33,2025-11-07 15:03:07.143561308
2025-11-07 15:03:02.883637,-7425,2025-11-07 15:03:07.151253615
2025-11-07 15:03:02.883637,-1,2025-11-07 15:03:07.158945923
2025-11-07 15:03:02.883637,-23,2025-11-07 15:03:07.166638231
2025-11-07 15:03:02.883637,-3841,2025-11-07 15:03:07.174330538
2025-11-07 15:03:02.883637,-1,2025-11-07 15:03:07.182022846
2025-11-07 15:03:02.883637,-16,2025-11-07 15:03:07.189715154
2025-11-07 15:03:02.883637,-3329,2025-11-07 15:03:07.197407462
2025-11-07 15:03:02.883637,-1,2025-11-07 15:03:07.205099769
2025-11-07 15:03:02.883637,-11,2025-11-07 15:03:07.212792077
2025-11-07 15:03:02.883637,-2561,2025-11-07 15:03:07.220484385
2025-11-07 15:03:02.883637,-1,2025-11-07 15:03:07.228176692
2025-11-07 15:03:02.883637,-14,2025-11-07 15:03:07.235869000
2025-11-07 15:03:02.883637,-4609,2025-11-07 15:03:07.243561308
2025-11-07 15:03:02.883637,-1,2025-11-07 15:03:07.251253615
2025-11-07 15:03:02.883637,-28,2025-11-07 15:03:07.258945923
2025-11-07 15:03:02.883637,-6913,2025-11-07 15:03:07.266638231
2025-11-07 15:03:02.883637,-1,2025-11-07 15:03:07.274330538
2025-11-07 15:03:02.883637,-14,2025-11-07 15:03:07.282022846
2025-11-07 15:03:02.883637,-1537,2025-11-07 15:03:07.289715154
2025-11-07 15:03:02.883637,-1,2025-11-07 15:03:07.297407462
2025-11-07 15:03:02.883637,-2,2025-11-07 15:03:07.305099769
2025-11-07 15:03:02.883637,2047,2025-11-07 15:03:07.312792077
2025-11-07 15:03:02.883637,0,2025-11-07 15:03:07.320484385
2025-11-07 15:03:02.883637,19,2025-11-07 15:03:07.328176692
2025-11-07 15:03:02.883637,3584,2025-11-07 15:03:07.335869000
2025-11-07 15:03:02.883637,0,2025-11-07 15:03:07.343561308
2025-11-07 15:03:02.883637,-2,2025-11-07 15:03:07.351253615
2025-11-07 15:03:02.883637,-769,2025-11-07 15:03:07.358945923
2025-11-07 15:03:02.883637,-1,2025-11-07 15:03:07.366638231
2025-11-07 15:03:02.883637,7,2025-11-07 15:03:07.374330538
2025-11-07 15:03:02.883637,2304,2025-11-07 15:03:07.382022846
2025-11-07 15:03:02.883637,0,2025-11-07 15:03:07.389715154
2025-11-07 15:03:02.883637,4,2025-11-07 15:03:07.397407462
2025-11-07 15:03:02.883637,512,2025-11-07 15:03:07.405099769
2025-11-07 15:03:02.883637,0,2025-11-07 15:03:07.412792077
2025-11-07 15:03:02.883637,0,2025-11-07 15:03:07.420484385
2025-11-07 15:03:02.883637,-5376,2025-11-07 15:03:07.428176692
2025-11-07 15:03:02.883637,-1,2025-11-07 15:03:07.435869000
2025-11-07 15:03:02.883637,-123,2025-11-07 15:03:07.443561308
2025-11-07 15:03:02.883637,-27649,2025-11-07 15:03:07.451253615
2025-11-07 15:03:02.883637,-2,2025-11-07 15:03:07.458945923
2025-11-07 15:03:02.883637,-548,2025-11-07 15:03:07.466638231
2025-11-07 15:03:02.883637,-14337,2025-11-07 15:03:07.474330538
2025-11-07 15:03:02.883637,-1,2025-11-07 15:03:07.482022846
2025-11-07 15:03:02.883637,1012,2025-11-07 15:03:07.489715154
2025-11-07 15:03:02.883637,-25856,2025-11-07 15:03:07.497407462
2025-11-07 15:03:02.883637,5,2025-11-07 15:03:07.505099769
2025-11-07 15:03:02.883637,876,2025-11-07 15:03:07.512792077
2025-11-07 15:03:02.883637,9728,2025-11-07 15:03:07.520484385
2025-11-07 15:03:02.883637,1,2025-11-07 15:03:07.528176692
2025-11-07 15:03:02.883637,90,2025-11-07 15:03:07.535869000
2025-11-07 15:03:02.883637,-10752,2025-11-07 15:03:07.543561308
2025-11-07 15:03:02.883637,-1,2025-11-07 15:03:07.551253615
2025-11-07 15:03:02.883637,-159,2025-11-07 15:03:07.558945923
2025-11-07 15:03:02.883637,23295,2025-11-07 15:03:07.566638230
2025-11-07 15:03:02.883637,-1,2025-11-07 15:03:07.574330538
2025-11-07 15:03:02.883637,-152,2025-11-07 15:03:07.582022846
2025-11-07 15:03:02.883637,20991,2025-11-07 15:03:07.589715154
2025-11-07 15:03:02.883637,-1,2025-11-07 15:03:07.597407462
2025-11-07 15:03:02.883637,-175,2025-11-07 15:03:07.605099769
2025-11-07 15:03:03.423633,-163,2025-11-07 15:03:07.612792077
2025-11-07 15:03:03.423633,22015,2025-11-07 15:03:07.620484385
2025-11-07 15:03:03.423633,-1,2025-11-07 15:03:07.628176692
2025-11-07 15:03:03.423633,-178,2025-11-07 15:03:07.635869000
2025-11-07 15:03:03.423633,20223,2025-11-07 15:03:07.643561308
2025-11-07 15:03:03.423633,-1,2025-11-07 15:03:07.651253615
2025-11-07 15:03:03.423633,-180,2025-11-07 15:03:07.658945923
2025-11-07 15:03:03.423633,19199,2025-11-07 15:03:07.666638231
2025-11-07 15:03:03.423633,-1,2025-11-07 15:03:07.674330538
2025-11-07 15:03:03.423633,-185,2025-11-07 15:03:07.682022846
2025-11-07 15:03:03.423633,17151,2025-11-07 15:03:07.689715154
2025-11-07 15:03:03.423633,-1,2025-11-07 15:03:07.697407462
2025-11-07 15:03:03.423633,-190,2025-11-07 15:03:07.705099769
2025-11-07 15:03:03.423633,20991,2025-11-07 15:03:07.712792077
2025-11-07 15:03:03.423633,-1,2025-11-07 15:03:07.720484385
2025-11-07 15:03:03.423633,-149,2025-11-07 15:03:07.728176692
2025-11-07 15:03:03.423633,-28929,2025-11-07 15:03:07.735869000
2025-11-07 15:03:03.423633,-1,2025-11-07 15:03:07.743561308
2025-11-07 15:03:03.423633,-68,2025-11-07 15:03:07.751253615
2025-11-07 15:03:03.423633,-8193,2025-11-07 15:03:07.758945923
2025-11-07 15:03:03.423633,-1,2025-11-07 15:03:07.766638231
2025-11-07 15:03:03.423633,-2,2025-11-07 15:03:07.774330538
2025-11-07 15:03:03.423633,7423,2025-11-07 15:03:07.782022846
2025-11-07 15:03:03.423633,0,2025-11-07 15:03:07.789715154
2025-11-07 15:03:03.423633,45,2025-11-07 15:03:07.797407462
2025-11-07 15:03:03.423633,11520,2025-11-07 15:03:07.805099769
2025-11-07 15:03:03.423633,0,2025-11-07 15:03:07.812792077
2025-11-07 15:03:03.423633,40,2025-11-07 15:03:07.820484385
2025-11-07 15:03:03.423633,8448,2025-11-07 15:03:07.828176692
2025-11-07 15:03:03.423633,0,2025-11-07 15:03:07.835869000
2025-11-07 15:03:03.423633,28,2025-11-07 15:03:07.843561308
2025-11-07 15:03:03.423633,6656,2025-11-07 15:03:07.851253615
2025-11-07 15:03:03.423633,0,2025-11-07 15:03:07.858945923
2025-11-07 15:03:03.423633,28,2025-11-07 15:03:07.866638231
2025-11-07 15:03:03.423633,7680,2025-11-07 15:03:07.874330538
2025-11-07 15:03:03.423633,0,2025-11-07 15:03:07.882022846
2025-11-07 15:03:03.423633,35,2025-11-07 15:03:07.889715154
2025-11-07 15:03:03.423633,8448,2025-11-07 15:03:07.897407462
2025-11-07 15:03:03.423633,0,2025-11-07 15:03:07.905099769
2025-11-07 15:03:03.423633,30,2025-11-07 15:03:07.912792077
2025-11-07 15:03:03.423633,6656,2025-11-07 15:03:07.920484385
2025-11-07 15:03:03.423633,0,2025-11-07 15:03:07.928176692
2025-11-07 15:03:03.423633,21,2025-11-07 15:03:07.935869000
2025-11-07 15:03:03.423633,4864,2025-11-07 15:03:07.943561308
2025-11-07 15:03:03.423633,0,2025-11-07 15:03:07.951253615
2025-11-07 15:03:03.423633,19,2025-11-07 15:03:07.958945923
2025-11-07 15:03:03.423633,4096,2025-11-07 15:03:07.966638231
2025-11-07 15:03:03.423633,0,2025-11-07 15:03:07.974330538
2025-11-07 15:03:03.423633,14,2025-11-07 15:03:07.982022846
2025-11-07 15:03:03.423633,2816,2025-11-07 15:03:07.989715154
2025-11-07 15:03:03.423633,0,2025-11-07 15:03:07.997407462
2025-11-07 15:03:03.423633,11,2025-11-07 15:03:08.005099769
2025-11-07 15:03:03.423633,4096,2025-11-07 15:03:08.012792077
2025-11-07 15:03:03.423633,0,2025-11-07 15:03:08.020484385
2025-11-07 15:03:03.423633,16,2025-11-07 15:03:08.028176692
2025-11-07 15:03:03.423633,4096,2025-11-07 15:03:08.035869000
2025-11-07 15:03:03.423633,0,2025-11-07 15:03:08.043561308
2025-11-07 15:03:03.423633,19,2025-11-07 15:03:08.051253615
2025-11-07 15:03:03.423633,5888,2025-11-07 15:03:08.058945923
2025-11-07 15:03:03.423633,0,2025-11-07 15:03:08.066638231
2025-11-07 15:03:03.423633,26,2025-11-07 15:03:08.074330538
2025-11-07 15:03:03.423633,6656,2025-11-07 15:03:08.082022846
2025-11-07 15:03:03.423633,0,2025-11-07 15:03:08.089715154
2025-11-07 15:03:03.423633,23,2025-11-07 15:03:08.097407462
2025-11-07 15:03:03.423633,4864,2025-11-07 15:03:08.105099769
2025-11-07 15:03:03.423633,0,2025-11-07 15:03:08.112792077
2025-11-07 15:03:03.423633,9,2025-11-07 15:03:08.120484385
2025-11-07 15:03:03.423633,1792,2025-11-07 15:03:08.128176692
2025-11-07 15:03:03.423633,0,2025-11-07 15:03:08.135869000
2025-11-07 15:03:03.423633,14,2025-11-07 15:03:08.143561308
2025-11-07 15:03:03.423633,6656,2025-11-07 15:03:08.151253615
2025-11-07 15:03:03.423633,0,2025-11-07 15:03:08.158945923
2025-11-07 15:03:03.423633,42,2025-11-07 15:03:08.166638231
2025-11-07 15:03:03.423633,12544,2025-11-07 15:03:08.174330538
2025-11-07 15:03:03.423633,0,2025-11-07 15:03:08.182022846
2025-11-07 15:03:03.423633,52,2025-11-07 15:03:08.189715154
2025-11-07 15:03:03.423633,12032,2025-11-07 15:03:08.197407462
2025-11-07 15:03:03.423633,0,2025-11-07 15:03:08.205099769
2025-11-07 15:03:03.423633,35,2025-11-07 15:03:08.212792077
2025-11-07 15:03:03.423633,7680,2025-11-07 15:03:08.220484385
2025-11-07 15:03:03.423633,0,2025-11-07 15:03:08.228176692
2025-11-07 15:03:03.423633,42,2025-11-07 15:03:08.235869000
2025-11-07 15:03:03.423633,11520,2025-11-07 15:03:08.243561308
2025-11-07 15:03:03.423633,0,2025-11-07 15:03:08.251253615
2025-11-07 15:03:03.423633,40,2025-11-07 15:03:08.258945923
2025-11-07 15:03:03.423633,9728,2025-11-07 15:03:08.266638231
2025-11-07 15:03:03.423633,0,2025-11-07 15:03:08.274330538
2025-11-07 15:03:03.423633,38,2025-11-07 15:03:08.282022846
2025-11-07 15:03:03.423633,3584,2025-11-07 15:03:08.289715154
2025-11-07 15:03:03.423633,0,2025-11-07 15:03:08.297407462
2025-11-07 15:03:03.423633,-99,2025-11-07 15:03:08.305099769
2025-11-07 15:03:03.423633,-26625,2025-11-07 15:03:08.312792077
2025-11-07 15:03:03.423633,-2,2025-11-07 15:03:08.320484385
2025-11-07 15:03:03.423633,-513,2025-11-07 15:03:08.328176692
2025-11-07 15:03:03.423633,19711,2025-11-07 15:03:08.335869000
2025-11-07 15:03:03.423633,0,2025-11-07 15:03:08.343561308
2025-11-07 15:03:03.423633,1223,2025-11-07 15:03:08.351253615
2025-11-07 15:03:03.423633,20992,2025-11-07 15:03:08.358945923
2025-11-07 15:03:03.423633,6,2025-11-07 15:03:08.366638231
2025-11-07 15:03:03.423633,962,2025-11-07 15:03:08.374330538
2025-11-07 15:03:03.423633,7424,2025-11-07 15:03:08.382022846
2025-11-07 15:03:03.423633,1,2025-11-07 15:03:08.389715154
2025-11-07 15:03:03.423633,54,2025-11-07 15:03:08.397407462
2025-11-07 15:03:03.423633,-11520,2025-11-07 15:03:08.405099769
2025-11-07 15:03:03.423633,-1,2025-11-07 15:03:08.412792077
2025-11-07 15:03:03.423633,-137,2025-11-07 15:03:08.420484385
2025-11-07 15:03:03.423633,29439,2025-11-07 15:03:08.428176692
2025-11-07 15:03:03.423633,-1,2025-11-07 15:03:08.435869000
2025-11-07 15:03:03.423633,-125,2025-11-07 15:03:08.443561308
2025-11-07 15:03:04.008778,-144,2025-11-07 15:03:08.451253615
2025-11-07 15:03:04.008778,27647,2025-11-07 15:03:08.458945923
2025-11-07 15:03:04.008778,-1,2025-11-07 15:03:08.466638231
2025-11-07 15:03:04.008778,-142,2025-11-07 15:03:08.474330538
2025-11-07 15:03:04.008778,28927,2025-11-07 15:03:08.482022846
2025-11-07 15:03:04.008778,-1,2025-11-07 15:03:08.489715154
2025-11-07 15:03:04.008778,-152,2025-11-07 15:03:08.497407462
2025-11-07 15:03:04.008778,26367,2025-11-07 15:03:08.505099769
2025-11-07 15:03:04.008778,-1,2025-11-07 15:03:08.512792077
2025-11-07 15:03:04.008778,-156,2025-11-07 15:03:08.520484385
2025-11-07 15:03:04.008778,25855,2025-11-07 15:03:08.528176692
2025-11-07 15:03:04.008778,-1,2025-11-07 15:03:08.535869000
2025-11-07 15:03:04.008778,-152,2025-11-07 15:03:08.543561308
2025-11-07 15:03:04.008778,29951,2025-11-07 15:03:08.551253615
2025-11-07 15:03:04.008778,-1,2025-11-07 15:03:08.558945923
2025-11-07 15:03:04.008778,-133,2025-11-07 15:03:08.566638230
2025-11-07 15:03:04.008778,-31233,2025-11-07 15:03:08.574330538
2025-11-07 15:03:04.008778,-1,2025-11-07 15:03:08.582022846
2025-11-07 15:03:04.008778,-104,2025-11-07 15:03:08.589715154
2025-11-07 15:03:04.008778,-19713,2025-11-07 15:03:08.597407462
2025-11-07 15:03:04.008778,-1,2025-11-07 15:03:08.605099769
2025-11-07 15:03:04.008778,-40,2025-11-07 15:03:08.612792077
2025-11-07 15:03:04.008778,-257,2025-11-07 15:03:08.620484385
2025-11-07 15:03:04.008778,-1,2025-11-07 15:03:08.628176692
2025-11-07 15:03:04.008778,26,2025-11-07 15:03:08.635869000
2025-11-07 15:03:04.008778,12032,2025-11-07 15:03:08.643561308
2025-11-07 15:03:04.008778,0,2025-11-07 15:03:08.651253615
2025-11-07 15:03:04.008778,61,2025-11-07 15:03:08.658945923
2025-11-07 15:03:04.008778,16384,2025-11-07 15:03:08.666638231
2025-11-07 15:03:04.008778,0,2025-11-07 15:03:08.674330538
2025-11-07 15:03:04.008778,64,2025-11-07 15:03:08.682022846
2025-11-07 15:03:04.008778,15104,2025-11-07 15:03:08.689715154
2025-11-07 15:03:04.008778,0,2025-11-07 15:03:08.697407462
2025-11-07 15:03:04.008778,54,2025-11-07 15:03:08.705099769
2025-11-07 15:03:04.008778,13824,2025-11-07 15:03:08.712792077
2025-11-07 15:03:04.008778,0,2025-11-07 15:03:08.720484385
2025-11-07 15:03:04.008778,57,2025-11-07 15:03:08.728176692
2025-11-07 15:03:04.008778,14592,2025-11-07 15:03:08.735869000
2025-11-07 15:03:04.008778,0,2025-11-07 15:03:08.743561308
2025-11-07 15:03:04.008778,59,2025-11-07 15:03:08.751253615
2025-11-07 15:03:04.008778,15616,2025-11-07 15:03:08.758945923
2025-11-07 15:03:04.008778,0,2025-11-07 15:03:08.766638231
2025-11-07 15:03:04.008778,59,2025-11-07 15:03:08.774330538
2025-11-07 15:03:04.008778,13824,2025-11-07 15:03:08.782022846
2025-11-07 15:03:04.008778,0,2025-11-07 15:03:08.789715154
2025-11-07 15:03:04.008778,49,2025-11-07 15:03:08.797407462
2025-11-07 15:03:04.008778,10752,2025-11-07 15:03:08.805099769
2025-11-07 15:03:04.008778,0,2025-11-07 15:03:08.812792077
2025-11-07 15:03:04.008778,42,2025-11-07 15:03:08.820484385
2025-11-07 15:03:04.008778,12032,2025-11-07 15:03:08.828176692
2025-11-07 15:03:04.008778,0,2025-11-07 15:03:08.835869000
2025-11-07 15:03:04.008778,42,2025-11-07 15:03:08.843561308
2025-11-07 15:03:04.008778,9728,2025-11-07 15:03:08.851253615
2025-11-07 15:03:04.008778,0,2025-11-07 15:03:08.858945923
2025-11-07 15:03:04.008778,40,2025-11-07 15:03:08.866638231
2025-11-07 15:03:04.008778,10752,2025-11-07 15:03:08.874330538
2025-11-07 15:03:04.008778,0,2025-11-07 15:03:08.882022846
2025-11-07 15:03:04.008778,40,2025-11-07 15:03:08.889715154
2025-11-07 15:03:04.008778,10752,2025-11-07 15:03:08.897407462
2025-11-07 15:03:04.008778,0,2025-11-07 15:03:08.905099769
2025-11-07 15:03:04.008778,45,2025-11-07 15:03:08.912792077
2025-11-07 15:03:04.008778,12032,2025-11-07 15:03:08.920484385
2025-11-07 15:03:04.008778,0,2025-11-07 15:03:08.928176692
2025-11-07 15:03:04.008778,49,2025-11-07 15:03:08.935869000
2025-11-07 15:03:04.008778,13312,2025-11-07 15:03:08.943561308
2025-11-07 15:03:04.008778,0,2025-11-07 15:03:08.951253615
2025-11-07 15:03:04.008778,54,2025-11-07 15:03:08.958945923
2025-11-07 15:03:04.008778,13824,2025-11-07 15:03:08.966638231
2025-11-07 15:03:04.008778,0,2025-11-07 15:03:08.974330538
2025-11-07 15:03:04.008778,52,2025-11-07 15:03:08.982022846
2025-11-07 15:03:04.008778,12544,2025-11-07 15:03:08.989715154
2025-11-07 15:03:04.008778,0,2025-11-07 15:03:08.997407462
2025-11-07 15:03:04.008778,42,2025-11-07 15:03:09.005099769
2025-11-07 15:03:04.008778,10240,2025-11-07 15:03:09.012792077
2025-11-07 15:03:04.008778,0,2025-11-07 15:03:09.020484385
2025-11-07 15:03:04.008778,47,2025-11-07 15:03:09.028176692
2025-11-07 15:03:04.008778,14592,2025-11-07 15:03:09.035869000
2025-11-07 15:03:04.008778,0,2025-11-07 15:03:09.043561308
2025-11-07 15:03:04.008778,68,2025-11-07 15:03:09.051253615
2025-11-07 15:03:04.008778,19968,2025-11-07 15:03:09.058945923
2025-11-07 15:03:04.008778,0,2025-11-07 15:03:09.066638231
2025-11-07 15:03:04.008778,78,2025-11-07 15:03:09.074330538
2025-11-07 15:03:04.008778,18176,2025-11-07 15:03:09.082022846
2025-11-07 15:03:04.008778,0,2025-11-07 15:03:09.089715154
2025-11-07 15:03:04.008778,61,2025-11-07 15:03:09.097407462
2025-11-07 15:03:04.008778,15104,2025-11-07 15:03:09.105099769
2025-11-07 15:03:04.008778,0,2025-11-07 15:03:09.112792077
2025-11-07 15:03:04.008778,61,2025-11-07 15:03:09.120484385
2025-11-07 15:03:04.008778,15104,2025-11-07 15:03:09.128176692
2025-11-07 15:03:04.008778,0,2025-11-07 15:03:09.135869000
2025-11-07 15:03:04.008778,49,2025-11-07 15:03:09.143561308
2025-11-07 15:03:04.008778,13824,2025-11-07 15:03:09.151253615
2025-11-07 15:03:04.008778,0,2025-11-07 15:03:09.158945923
2025-11-07 15:03:04.008778,64,2025-11-07 15:03:09.166638231
2025-11-07 15:03:04.008778,7680,2025-11-07 15:03:09.174330538
2025-11-07 15:03:04.008778,0,2025-11-07 15:03:09.182022846
2025-11-07 15:03:04.008778,-95,2025-11-07 15:03:09.189715154
2025-11-07 15:03:04.008778,-22273,2025-11-07 15:03:09.197407462
2025-11-07 15:03:04.008778,-2,2025-11-07 15:03:09.205099769
2025-11-07 15:03:04.008778,-461,2025-11-07 15:03:09.212792077
2025-11-07 15:03:04.008778,-24577,2025-11-07 15:03:09.220484385
2025-11-07 15:03:04.008778,0,2025-11-07 15:03:09.228176692
2025-11-07 15:03:04.008778,1252,2025-11-07 15:03:09.235869000
2025-11-07 15:03:04.008778,4608,2025-11-07 15:03:09.243561308
2025-11-07 15:03:04.008778,6,2025-11-07 15:03:09.251253615
2025-11-07 15:03:04.008778,886,2025-11-07 15:03:09.258945923
2025-11-07 15:03:04.008778,4352,2025-11-07 15:03:09.266638231
2025-11-07 15:03:04.008778,1,2025-11-07 15:03:09.274330538
2025-11-07 15:03:04.008778,83,2025-11-07 15:03:09.282022846
2025-11-07 15:03:04.504200,-16,2025-11-07 15:03:09.289715154
2025-11-07 15:03:04.504200,-29953,2025-11-07 15:03:09.297407462
2025-11-07 15:03:04.504200,-1,2025-11-07 15:03:09.305099769
2025-11-07 15:03:04.504200,-123,2025-11-07 15:03:09.312792077
2025-11-07 15:03:04.504200,-25089,2025-11-07 15:03:09.320484385
2025-11-07 15:03:04.504200,-1,2025-11-07 15:03:09.328176692
2025-11-07 15:03:04.504200,-118,2025-11-07 15:03:09.335869000
2025-11-07 15:03:04.504200,-32513,2025-11-07 15:03:09.343561308
2025-11-07 15:03:04.504200,-1,2025-11-07 15:03:09.351253615
2025-11-07 15:03:04.504200,-121,2025-11-07 15:03:09.358945923
2025-11-07 15:03:04.504200,-31745,2025-11-07 15:03:09.366638231
2025-11-07 15:03:04.504200,-1,2025-11-07 15:03:09.374330538
2025-11-07 15:03:04.504200,-140,2025-11-07 15:03:09.382022846
2025-11-07 15:03:04.504200,30719,2025-11-07 15:03:09.389715154
2025-11-07 15:03:04.504200,-1,2025-11-07 15:03:09.397407462
2025-11-07 15:03:04.504200,-128,2025-11-07 15:03:09.405099769
2025-11-07 15:03:04.504200,31231,2025-11-07 15:03:09.412792077
2025-11-07 15:03:04.504200,-1,2025-11-07 15:03:09.420484385
2025-11-07 15:03:04.504200,-133,2025-11-07 15:03:09.428176692
2025-11-07 15:03:04.504200,-26369,2025-11-07 15:03:09.435869000
2025-11-07 15:03:04.504200,-1,2025-11-07 15:03:09.443561308
2025-11-07 15:03:04.504200,-99,2025-11-07 15:03:09.451253615
2025-11-07 15:03:04.504200,-27649,2025-11-07 15:03:09.458945923
2025-11-07 15:03:04.504200,-1,2025-11-07 15:03:09.466638231
2025-11-07 15:03:04.504200,-80,2025-11-07 15:03:09.474330538
2025-11-07 15:03:04.504200,-11777,2025-11-07 15:03:09.482022846
2025-11-07 15:03:04.504200,-1,2025-11-07 15:03:09.489715154
2025-11-07 15:03:04.504200,-33,2025-11-07 15:03:09.497407462
2025-11-07 15:03:04.504200,-1537,2025-11-07 15:03:09.505099769
2025-11-07 15:03:04.504200,-1,2025-11-07 15:03:09.512792077
2025-11-07 15:03:04.504200,40,2025-11-07 15:03:09.520484385
2025-11-07 15:03:04.504200,19456,2025-11-07 15:03:09.528176692
2025-11-07 15:03:04.504200,0,2025-11-07 15:03:09.535869000
2025-11-07 15:03:04.504200,73,2025-11-07 15:03:09.543561308
2025-11-07 15:03:04.504200,16384,2025-11-07 15:03:09.551253615
2025-11-07 15:03:04.504200,0,2025-11-07 15:03:09.558945923
2025-11-07 15:03:04.504200,68,2025-11-07 15:03:09.566638230
2025-11-07 15:03:04.504200,16896,2025-11-07 15:03:09.574330538
2025-11-07 15:03:04.504200,0,2025-11-07 15:03:09.582022846
2025-11-07 15:03:04.504200,47,2025-11-07 15:03:09.589715154
2025-11-07 15:03:04.504200,10752,2025-11-07 15:03:09.597407462
2025-11-07 15:03:04.504200,0,2025-11-07 15:03:09.605099769
2025-11-07 15:03:04.504200,49,2025-11-07 15:03:09.612792077
2025-11-07 15:03:04.504200,12544,2025-11-07 15:03:09.620484385
2025-11-07 15:03:04.504200,0,2025-11-07 15:03:09.628176692
2025-11-07 15:03:04.504200,57,2025-11-07 15:03:09.635869000
2025-11-07 15:03:04.504200,16896,2025-11-07 15:03:09.643561308
2025-11-07 15:03:04.504200,0,2025-11-07 15:03:09.651253615
2025-11-07 15:03:04.504200,57,2025-11-07 15:03:09.658945923
2025-11-07 15:03:04.504200,10240,2025-11-07 15:03:09.666638231
2025-11-07 15:03:04.504200,0,2025-11-07 15:03:09.674330538
2025-11-07 15:03:04.504200,38,2025-11-07 15:03:09.682022846
2025-11-07 15:03:04.504200,9728,2025-11-07 15:03:09.689715154
2025-11-07 15:03:04.504200,0,2025-11-07 15:03:09.697407462
2025-11-07 15:03:04.504200,30,2025-11-07 15:03:09.705099769
2025-11-07 15:03:04.504200,7680,2025-11-07 15:03:09.712792077
2025-11-07 15:03:04.504200,0,2025-11-07 15:03:09.720484385
2025-11-07 15:03:04.504200,47,2025-11-07 15:03:09.728176692
2025-11-07 15:03:04.504200,14592,2025-11-07 15:03:09.735869000
2025-11-07 15:03:04.504200,0,2025-11-07 15:03:09.743561308
2025-11-07 15:03:04.504200,40,2025-11-07 15:03:09.751253615
2025-11-07 15:03:04.504200,7680,2025-11-07 15:03:09.758945923
2025-11-07 15:03:04.504200,0,2025-11-07 15:03:09.766638231
2025-11-07 15:03:04.504200,40,2025-11-07 15:03:09.774330538
2025-11-07 15:03:04.504200,9728,2025-11-07 15:03:09.782022846
2025-11-07 15:03:04.504200,0,2025-11-07 15:03:09.789715154
2025-11-07 15:03:04.504200,23,2025-11-07 15:03:09.797407462
2025-11-07 15:03:04.504200,10752,2025-11-07 15:03:09.805099769
2025-11-07 15:03:04.504200,0,2025-11-07 15:03:09.812792077
2025-11-07 15:03:04.504200,66,2025-11-07 15:03:09.820484385
2025-11-07 15:03:04.504200,15616,2025-11-07 15:03:09.828176692
2025-11-07 15:03:04.504200,0,2025-11-07 15:03:09.835869000
2025-11-07 15:03:04.504200,52,2025-11-07 15:03:09.843561308
2025-11-07 15:03:04.504200,13312,2025-11-07 15:03:09.851253615
2025-11-07 15:03:04.504200,0,2025-11-07 15:03:09.858945923
2025-11-07 15:03:04.504200,54,2025-11-07 15:03:09.866638231
2025-11-07 15:03:04.504200,11520,2025-11-07 15:03:09.874330538
2025-11-07 15:03:04.504200,0,2025-11-07 15:03:09.882022846
2025-11-07 15:03:04.504200,40,2025-11-07 15:03:09.889715154
2025-11-07 15:03:04.504200,13824,2025-11-07 15:03:09.897407462
2025-11-07 15:03:04.504200,0,2025-11-07 15:03:09.905099769
2025-11-07 15:03:04.504200,52,2025-11-07 15:03:09.912792077
2025-11-07 15:03:04.504200,6656,2025-11-07 15:03:09.920484385
2025-11-07 15:03:04.504200,0,2025-11-07 15:03:09.928176692
2025-11-07 15:03:04.504200,28,2025-11-07 15:03:09.935869000
2025-11-07 15:03:04.504200,12544,2025-11-07 15:03:09.943561308
2025-11-07 15:03:04.504200,0,2025-11-07 15:03:09.951253615
2025-11-07 15:03:04.504200,38,2025-11-07 15:03:09.958945923
2025-11-07 15:03:04.504200,5888,2025-11-07 15:03:09.966638231
2025-11-07 15:03:04.504200,0,2025-11-07 15:03:09.974330538
2025-11-07 15:03:04.504200,38,2025-11-07 15:03:09.982022846
2025-11-07 15:03:04.504200,12544,2025-11-07 15:03:09.989715154
2025-11-07 15:03:04.504200,0,2025-11-07 15:03:09.997407462
2025-11-07 15:03:04.504200,57,2025-11-07 15:03:10.005099769
2025-11-07 15:03:04.504200,17408,2025-11-07 15:03:10.012792077
2025-11-07 15:03:04.504200,0,2025-11-07 15:03:10.020484385
2025-11-07 15:03:04.504200,64,2025-11-07 15:03:10.028176692
2025-11-07 15:03:04.504200,10752,2025-11-07 15:03:10.035869000
2025-11-07 15:03:04.504200,0,2025-11-07 15:03:10.043561308
2025-11-07 15:03:04.504200,35,2025-11-07 15:03:10.051253615
2025-11-07 15:03:04.504200,12544,2025-11-07 15:03:10.058945923
2025-11-07 15:03:04.504200,0,2025-11-07 15:03:10.066638231
2025-11-07 15:03:04.504200,57,2025-11-07 15:03:10.074330538
2025-11-07 15:03:04.504200,13312,2025-11-07 15:03:10.082022846
2025-11-07 15:03:04.504200,0,2025-11-07 15:03:10.089715154
2025-11-07 15:03:04.504200,52,2025-11-07 15:03:10.097407462
2025-11-07 15:03:04.504200,12032,2025-11-07 15:03:10.105099769
2025-11-07 15:03:04.504200,0,2025-11-07 15:03:10.112792077
2025-11-07 15:03:04.504200,14,2025-11-07 15:03:10.120484385
2025-11-07 15:03:05.133641,-106,2025-11-07 15:03:10.128176692
2025-11-07 15:03:05.133641,-25345,2025-11-07 15:03:10.135869000
2025-11-07 15:03:05.133641,-2,2025-11-07 15:03:10.143561308
2025-11-07 15:03:05.133641,-446,2025-11-07 15:03:10.151253615
2025-11-07 15:03:05.133641,-6913,2025-11-07 15:03:10.158945923
2025-11-07 15:03:05.133641,0,2025-11-07 15:03:10.166638231
2025-11-07 15:03:05.133641,1302,2025-11-07 15:03:10.174330538
2025-11-07 15:03:05.133641,-2816,2025-11-07 15:03:10.182022846
