timestamp,ecg
16:06:01.343865,-33
16:06:01.343865,-11777
16:06:01.343865,-1
16:06:01.343865,-52
16:06:01.343865,-11009
16:06:01.343865,-1
16:06:01.343865,-37
16:06:01.343865,-9985
16:06:01.343865,-1
16:06:01.343865,-42
16:06:01.343865,-10497
16:06:01.343865,-1
16:06:01.343865,-30
16:06:01.343865,-5633
16:06:01.343865,-1
16:06:01.343865,-26
16:06:01.343865,-2561
16:06:01.343865,-1
16:06:01.343865,2
16:06:01.343865,-1792
16:06:01.343865,-1
16:06:01.343865,-7
16:06:01.343865,-257
16:06:01.343865,-1
16:06:01.343865,-7
16:06:01.343865,-1537
16:06:01.343865,-1
16:06:01.343865,-7
16:06:01.343865,-2561
16:06:01.343865,-1
16:06:01.343865,-9
16:06:01.343865,-2561
16:06:01.343865,-1
16:06:01.343865,-21
16:06:01.343865,-7425
16:06:01.343865,-1
16:06:01.343865,-33
16:06:01.343865,-8705
16:06:01.343865,-1
16:06:01.343865,-30
16:06:01.343865,1279
16:06:01.343865,0
16:06:01.343865,28
16:06:01.343865,4608
16:06:01.343865,0
16:06:01.343865,14
16:06:01.343865,2816
16:06:01.343865,0
16:06:01.343865,-14
16:06:01.343865,-6913
16:06:01.343865,-1
16:06:01.343865,-21
16:06:01.343865,-5633
16:06:01.343865,-1
16:06:01.343865,-37
16:06:01.343865,-8705
16:06:01.343865,-1
16:06:01.343865,-33
16:06:01.343865,-19713
16:06:01.343865,-1
16:06:01.343865,-104
16:06:01.343865,22527
16:06:01.343865,0
16:06:01.343865,563
16:06:01.343865,-2816
16:06:01.343865,3
16:06:01.343865,914
16:06:01.343865,16128
16:06:01.343865,1
16:06:01.343865,-59
16:06:01.343865,-20225
16:06:01.343865,-1
16:06:01.343865,-134
16:06:01.343865,15103
16:06:01.343865,-1
16:06:01.343865,-172
16:06:01.343865,26623
16:06:01.343865,-1
16:06:01.343865,-168
16:06:01.343865,24063
16:06:01.343865,-1
16:06:01.343865,-161
16:06:01.343865,26623
16:06:01.343865,-1
16:06:01.343865,-137
16:06:01.343865,32511
16:06:01.343865,-1
16:06:01.343865,-130
16:06:01.343865,-31233
16:06:01.343865,-1
16:06:01.343865,-118
16:06:01.343865,-28673
16:06:01.343865,-1
16:06:01.343865,-106
16:06:01.343865,-22529
16:06:01.343865,-1
16:06:01.343865,-71
16:06:01.343865,-14849
16:06:01.343865,-1
16:06:01.343865,-42
16:06:01.343865,-7425
16:06:01.343865,-1
16:06:01.343865,-23
16:06:01.343865,-3841
16:06:01.343865,-1
16:06:01.343865,-18
16:06:01.343865,-5121
16:06:01.343865,-1
16:06:01.343865,-14
16:06:01.884284,-16
16:06:01.884284,-5633
16:06:01.884284,-1
16:06:01.884284,-18
16:06:01.884284,-5121
16:06:01.884284,-1
16:06:01.884284,-30
16:06:01.884284,-6913
16:06:01.884284,-1
16:06:01.884284,-21
16:06:01.884284,-2561
16:06:01.884284,-1
16:06:01.884284,-7
16:06:01.884284,-3841
16:06:01.884284,-1
16:06:01.884284,-14
16:06:01.884284,-1537
16:06:01.884284,-1
16:06:01.884284,-11
16:06:01.884284,2047
16:06:01.884284,0
16:06:01.884284,42
16:06:01.884284,8448
16:06:01.884284,0
16:06:01.884284,14
16:06:01.884284,5376
16:06:01.884284,0
16:06:01.884284,28
16:06:01.884284,5376
16:06:01.884284,0
16:06:01.884284,26
16:06:01.884284,6656
16:06:01.884284,0
16:06:01.884284,21
16:06:01.884284,5376
16:06:01.884284,0
16:06:01.884284,16
16:06:01.884284,1024
16:06:01.884284,0
16:06:01.884284,-4
16:06:01.884284,1279
16:06:01.884284,0
16:06:01.884284,30
16:06:01.884284,12032
16:06:01.884284,0
16:06:01.884284,56
16:06:01.884284,15616
16:06:01.884284,0
16:06:01.884284,40
16:06:01.884284,2304
16:06:01.884284,0
16:06:01.884284,0
16:06:01.884284,0
16:06:01.884284,0
16:06:01.884284,2
16:06:01.884284,512
16:06:01.884284,0
16:06:01.884284,-2
16:06:01.884284,-2049
16:06:01.884284,-1
16:06:01.884284,-35
16:06:01.884284,-22017
16:06:01.884284,-1
16:06:01.884284,-23
16:06:01.884284,24319
16:06:01.884284,1
16:06:01.884284,925
16:06:01.884284,-31232
16:06:01.884284,4
16:06:01.884284,710
16:06:01.884284,24832
16:06:01.884284,0
16:06:01.884284,-92
16:06:01.884284,-22529
16:06:01.884284,-1
16:06:01.884284,-163
16:06:01.884284,19199
16:06:01.884284,-1
16:06:01.884284,-149
16:06:01.884284,28415
16:06:01.884284,-1
16:06:01.884284,-149
16:06:01.884284,31487
16:06:01.884284,-1
16:06:01.884284,-130
16:06:01.884284,-31745
16:06:01.884284,-1
16:06:01.884284,-111
16:06:01.884284,-25601
16:06:01.884284,-1
16:06:01.884284,-99
16:06:01.884284,-23809
16:06:01.884284,-1
16:06:01.884284,-82
16:06:01.884284,-18945
16:06:01.884284,-1
16:06:01.884284,-80
16:06:01.884284,-17153
16:06:01.884284,-1
16:06:01.884284,-42
16:06:01.884284,-8705
16:06:01.884284,-1
16:06:01.884284,-30
16:06:01.884284,-3841
16:06:01.884284,-1
16:06:01.884284,-9
16:06:01.884284,-2561
16:06:01.884284,-1
16:06:01.884284,-7
16:06:02.424689,4
16:06:02.424689,2304
16:06:02.424689,0
16:06:02.424689,7
16:06:02.424689,-1024
16:06:02.424689,-1
16:06:02.424689,-14
16:06:02.424689,-769
16:06:02.424689,-1
16:06:02.424689,-2
16:06:02.424689,-3329
16:06:02.424689,-1
16:06:02.424689,-11
16:06:02.424689,767
16:06:02.424689,0
16:06:02.424689,14
16:06:02.424689,6656
16:06:02.424689,0
16:06:02.424689,30
16:06:02.424689,6656
16:06:02.424689,0
16:06:02.424689,26
16:06:02.424689,7168
16:06:02.424689,0
16:06:02.424689,35
16:06:02.424689,9472
16:06:02.424689,0
16:06:02.424689,40
16:06:02.424689,9472
16:06:02.424689,0
16:06:02.424689,35
16:06:02.424689,10752
16:06:02.424689,0
16:06:02.424689,40
16:06:02.424689,7680
16:06:02.424689,0
16:06:02.424689,35
16:06:02.424689,8448
16:06:02.424689,0
16:06:02.424689,18
16:06:02.424689,4608
16:06:02.424689,0
16:06:02.424689,21
16:06:02.424689,4096
16:06:02.424689,0
16:06:02.424689,44
16:06:02.424689,20480
16:06:02.424689,0
16:06:02.424689,78
16:06:02.424689,16896
16:06:02.424689,0
16:06:02.424689,56
16:06:02.424689,10240
16:06:02.424689,0
16:06:02.424689,26
16:06:02.424689,5888
16:06:02.424689,0
16:06:02.424689,26
16:06:02.424689,6656
16:06:02.424689,0
16:06:02.424689,23
16:06:02.424689,5376
16:06:02.424689,0
16:06:02.424689,-14
16:06:02.424689,-14081
16:06:02.424689,-1
16:06:02.424689,78
16:06:02.424689,4096
16:06:02.424689,2
16:06:02.424689,1051
16:06:02.424689,18432
16:06:02.424689,4
16:06:02.424689,544
16:06:02.424689,11264
16:06:02.424689,0
16:06:02.424689,-47
16:06:02.424689,-15361
16:06:02.424689,-1
16:06:02.424689,-132
16:06:02.424689,-32257
16:06:02.424689,-1
16:06:02.424689,-94
16:06:02.424689,-26881
16:06:02.424689,-1
16:06:02.424689,-106
16:06:02.424689,-21505
16:06:02.424689,-1
16:06:02.424689,-82
16:06:02.424689,-20737
16:06:02.424689,-1
16:06:02.424689,-75
16:06:02.424689,-17921
16:06:02.424689,-1
16:06:02.424689,-66
16:06:02.424689,-15873
16:06:02.424689,-1
16:06:02.424689,-59
16:06:02.424689,-11009
16:06:02.424689,-1
16:06:02.424689,-30
16:06:02.424689,-5633
16:06:02.424689,-1
16:06:02.424689,-14
16:06:02.424689,2047
16:06:02.424689,0
16:06:02.424689,14
16:06:02.424689,2304
16:06:02.424689,0
16:06:02.424689,16
16:06:02.963713,23
16:06:02.963713,5888
16:06:02.963713,0
16:06:02.963713,33
16:06:02.963713,8448
16:06:02.963713,0
16:06:02.963713,28
16:06:02.963713,7168
16:06:02.963713,0
16:06:02.963713,28
16:06:02.963713,7168
16:06:02.963713,0
16:06:02.963713,42
16:06:02.963713,13312
16:06:02.963713,0
16:06:02.963713,52
16:06:02.963713,13312
16:06:02.963713,0
16:06:02.963713,52
16:06:02.963713,13824
16:06:02.963713,0
16:06:02.963713,54
16:06:02.963713,12032
16:06:02.963713,0
16:06:02.963713,42
16:06:02.963713,12032
16:06:02.963713,0
16:06:02.963713,47
16:06:02.963713,12544
16:06:02.963713,0
16:06:02.963713,54
16:06:02.963713,12544
16:06:02.963713,0
16:06:02.963713,56
16:06:02.963713,15104
16:06:02.963713,0
16:06:02.963713,52
16:06:02.963713,13824
16:06:02.963713,0
16:06:02.963713,61
16:06:02.963713,12544
16:06:02.963713,0
16:06:02.963713,40
16:06:02.963713,10240
16:06:02.963713,0
16:06:02.963713,33
16:06:02.963713,8960
16:06:02.963713,0
16:06:02.963713,66
16:06:02.963713,22784
16:06:02.963713,0
16:06:02.963713,94
16:06:02.963713,22272
16:06:02.963713,0
16:06:02.963713,78
16:06:02.963713,17408
16:06:02.963713,0
16:06:02.963713,54
16:06:02.963713,10752
16:06:02.963713,0
16:06:02.963713,52
16:06:02.963713,15104
16:06:02.963713,0
16:06:02.963713,49
16:06:02.963713,11264
16:06:02.963713,0
16:06:02.963713,23
16:06:02.963713,-4096
16:06:02.963713,-1
16:06:02.963713,78
16:06:02.963713,-13056
16:06:02.963713,1
16:06:02.963713,973
16:06:02.963713,22784
16:06:02.963713,4
16:06:02.963713,639
16:06:02.963713,26624
16:06:02.963713,0
16:06:02.963713,-26
16:06:02.963713,-7425
16:06:02.963713,-1
16:06:02.963713,-99
16:06:02.963713,-25601
16:06:02.963713,-1
16:06:02.963713,-73
16:06:02.963713,-22017
16:06:02.963713,-1
16:06:02.963713,-80
16:06:02.963713,-14081
16:06:02.963713,-1
16:06:02.963713,-59
16:06:02.963713,-16641
16:06:02.963713,-1
16:06:02.963713,-61
16:06:02.963713,-13057
16:06:02.963713,-1
16:06:02.963713,-44
16:06:02.963713,-11009
16:06:02.963713,-1
16:06:02.963713,-49
16:06:02.963713,-9985
16:06:02.963713,-1
16:06:02.963713,-23
16:06:02.963713,-5121
16:06:02.963713,-1
16:06:02.963713,-16
16:06:02.963713,-257
16:06:02.963713,-1
16:06:02.963713,11
16:06:03.550281,14
16:06:03.550281,2816
16:06:03.550281,0
16:06:03.550281,7
16:06:03.550281,4608
16:06:03.550281,0
16:06:03.550281,26
16:06:03.550281,8448
16:06:03.550281,0
16:06:03.550281,40
16:06:03.550281,8448
16:06:03.550281,0
16:06:03.550281,23
16:06:03.550281,3584
16:06:03.550281,0
16:06:03.550281,11
16:06:03.550281,3584
16:06:03.550281,0
16:06:03.550281,9
16:06:03.550281,2304
16:06:03.550281,0
16:06:03.550281,18
16:06:03.550281,4608
16:06:03.550281,0
16:06:03.550281,7
16:06:03.550281,0
16:06:03.550281,0
16:06:03.550281,4
16:06:03.550281,2816
16:06:03.550281,0
16:06:03.550281,0
16:06:03.550281,-1792
16:06:03.550281,-1
16:06:03.550281,9
16:06:03.550281,4096
16:06:03.550281,0
16:06:03.550281,-2
16:06:03.550281,-1537
16:06:03.550281,-1
16:06:03.550281,7
16:06:03.550281,1024
16:06:03.550281,0
16:06:03.550281,2
16:06:03.550281,512
16:06:03.550281,0
16:06:03.550281,-11
16:06:03.550281,-3841
16:06:03.550281,-1
16:06:03.550281,-16
16:06:03.550281,-3329
16:06:03.550281,-1
16:06:03.550281,14
16:06:03.550281,10752
16:06:03.550281,0
16:06:03.550281,49
16:06:03.550281,10752
16:06:03.550281,0
16:06:03.550281,26
16:06:03.550281,1024
16:06:03.550281,0
16:06:03.550281,7
16:06:03.550281,3584
16:06:03.550281,0
16:06:03.550281,2
16:06:03.550281,-1792
16:06:03.550281,-1
16:06:03.550281,0
16:06:03.550281,512
16:06:03.550281,0
16:06:03.550281,-18
16:06:03.550281,-15361
16:06:03.550281,-1
16:06:03.550281,4
16:06:03.550281,20480
16:06:03.550281,1
16:06:03.550281,838
16:06:03.550281,4352
16:06:03.550281,4
16:06:03.550281,629
16:06:03.550281,25856
16:06:03.550281,0
16:06:03.550281,-35
16:06:03.550281,-15361
16:06:03.550281,-1
16:06:03.550281,-151
16:06:03.550281,27135
16:06:03.550281,-1
16:06:03.550281,-123
16:06:03.550281,29439
16:06:03.550281,-1
16:06:03.550281,-139
16:06:03.550281,-29953
16:06:03.550281,-1
16:06:03.550281,-120
16:06:03.550281,-30465
16:06:03.550281,-1
16:06:03.550281,-104
16:06:03.550281,-23297
16:06:03.550281,-1
16:06:03.550281,-97
16:06:03.550281,-24577
16:06:03.550281,-1
16:06:03.550281,-80
16:06:03.550281,-17153
16:06:03.550281,-1
16:06:03.550281,-68
16:06:03.550281,-15361
16:06:03.550281,-1
16:06:03.550281,-47
16:06:04.135187,-37
16:06:04.135187,-6913
16:06:04.135187,-1
16:06:04.135187,-14
16:06:04.135187,-4353
16:06:04.135187,-1
16:06:04.135187,-28
16:06:04.135187,-6401
16:06:04.135187,-1
16:06:04.135187,-21
16:06:04.135187,-5121
16:06:04.135187,-1
16:06:04.135187,-7
16:06:04.135187,767
16:06:04.135187,0
16:06:04.135187,-2
16:06:04.135187,255
16:06:04.135187,0
16:06:04.135187,2
16:06:04.135187,-2816
16:06:04.135187,-1
16:06:04.135187,-9
16:06:04.135187,767
16:06:04.135187,0
16:06:04.135187,-7
16:06:04.135187,-2049
16:06:04.135187,-1
16:06:04.135187,0
16:06:04.135187,1792
16:06:04.135187,0
16:06:04.135187,11
16:06:04.135187,3584
16:06:04.135187,0
16:06:04.135187,14
16:06:04.135187,5888
16:06:04.135187,0
16:06:04.135187,23
16:06:04.135187,5376
16:06:04.135187,0
16:06:04.135187,23
16:06:04.135187,5888
16:06:04.135187,0
16:06:04.135187,26
16:06:04.135187,6656
16:06:04.135187,0
16:06:04.135187,21
16:06:04.135187,4096
16:06:04.135187,0
16:06:04.135187,14
16:06:04.135187,1024
16:06:04.135187,0
16:06:04.135187,0
16:06:04.135187,1792
16:06:04.135187,0
16:06:04.135187,40
16:06:04.135187,18176
16:06:04.135187,0
16:06:04.135187,80
16:06:04.135187,19200
16:06:04.135187,0
16:06:04.135187,54
16:06:04.135187,7680
16:06:04.135187,0
16:06:04.135187,28
16:06:04.135187,7168
16:06:04.135187,0
16:06:04.135187,28
16:06:04.135187,9472
16:06:04.135187,0
16:06:04.135187,42
16:06:04.135187,7168
16:06:04.135187,0
16:06:04.135187,-14
16:06:04.135187,-11777
16:06:04.135187,-1
16:06:04.135187,85
16:06:04.135187,-1536
16:06:04.135187,1
16:06:04.135187,1020
16:06:04.135187,16640
16:06:04.135187,4
16:06:04.135187,558
16:06:04.135187,17408
16:06:04.135187,0
16:06:04.135187,-23
16:06:04.135187,-12289
16:06:04.135187,-1
16:06:04.135187,-132
16:06:04.135187,32511
16:06:04.135187,-1
16:06:04.135187,-97
16:06:04.135187,-27393
16:06:04.135187,-1
16:06:04.135187,-108
16:06:04.135187,-23297
16:06:04.135187,-1
16:06:04.135187,-92
16:06:04.135187,-22529
16:06:04.135187,-1
16:06:04.135187,-82
16:06:04.135187,-20737
16:06:04.135187,-1
16:06:04.135187,-75
16:06:04.135187,-15361
16:06:04.135187,-1
16:06:04.135187,-59
16:06:04.135187,-14849
16:06:04.135187,-1
16:06:04.135187,-49
16:06:04.674451,-35
16:06:04.674451,-6913
16:06:04.674451,-1
16:06:04.674451,-23
16:06:04.674451,-2561
16:06:04.674451,-1
16:06:04.674451,2
16:06:04.674451,1024
16:06:04.674451,0
16:06:04.674451,0
16:06:04.674451,2304
16:06:04.674451,0
16:06:04.674451,14
16:06:04.674451,2816
16:06:04.674451,0
16:06:04.674451,18
16:06:04.674451,6656
16:06:04.674451,0
16:06:04.674451,35
16:06:04.674451,12032
16:06:04.674451,0
16:06:04.674451,44
16:06:04.674451,8448
16:06:04.674451,0
16:06:04.674451,33
16:06:04.674451,9472
16:06:04.674451,0
16:06:04.674451,40
16:06:04.674451,9472
16:06:04.674451,0
16:06:04.674451,35
16:06:04.674451,8448
16:06:04.674451,0
16:06:04.674451,35
16:06:04.674451,10752
16:06:04.674451,0
16:06:04.674451,42
16:06:04.674451,8960
16:06:04.674451,0
16:06:04.674451,44
16:06:04.674451,13824
16:06:04.674451,0
16:06:04.674451,47
16:06:04.674451,11264
16:06:04.674451,0
16:06:04.674451,54
16:06:04.674451,12544
16:06:04.674451,0
16:06:04.674451,37
16:06:04.674451,9472
16:06:04.674451,0
16:06:04.674451,33
16:06:04.674451,7680
16:06:04.674451,0
16:06:04.674451,44
16:06:04.674451,18176
16:06:04.674451,0
16:06:04.674451,104
16:06:04.674451,28928
16:06:04.674451,0
16:06:04.674451,97
16:06:04.674451,21760
16:06:04.674451,0
16:06:04.674451,73
16:06:04.674451,13312
16:06:04.674451,0
16:06:04.674451,47
16:06:04.674451,13824
16:06:04.674451,0
16:06:04.674451,54
16:06:04.674451,12032
16:06:04.674451,0
16:06:04.674451,44
16:06:04.674451,5376
16:06:04.674451,0
16:06:04.674451,-26
16:06:04.674451,8703
16:06:04.674451,0
16:06:04.674451,393
16:06:04.674451,-15616
16:06:04.674451,3
16:06:04.674451,1186
16:06:04.674451,-9472
16:06:04.674451,2
16:06:04.674451,139
16:06:04.674451,-10240
16:06:04.674451,-1
16:06:04.674451,-44
16:06:04.674451,-28161
16:06:04.674451,-1
16:06:04.674451,-134
16:06:04.674451,-27393
16:06:04.674451,-1
16:06:04.674451,-101
16:06:04.674451,-26881
16:06:04.674451,-1
16:06:04.674451,-99
16:06:04.674451,-24577
16:06:04.674451,-1
16:06:04.674451,-97
16:06:04.674451,-21505
16:06:04.674451,-1
16:06:04.674451,-78
16:06:04.674451,-18433
16:06:04.674451,-1
16:06:04.674451,-68
16:06:04.674451,-15873
16:06:04.674451,-1
16:06:04.674451,-56
16:06:05.214149,-44
16:06:05.214149,-9217
16:06:05.214149,-1
16:06:05.214149,-35
16:06:05.214149,-4353
16:06:05.214149,-1
16:06:05.214149,4
16:06:05.214149,1024
16:06:05.214149,0
16:06:05.214149,-2
16:06:05.214149,767
16:06:05.214149,0
16:06:05.214149,21
16:06:05.214149,11264
16:06:05.214149,0
16:06:05.214149,44
16:06:05.214149,8448
16:06:05.214149,0
16:06:05.214149,37
16:06:05.214149,8960
16:06:05.214149,0
16:06:05.214149,26
16:06:05.214149,7680
16:06:05.214149,0
16:06:05.214149,28
16:06:05.214149,5376
16:06:05.214149,0
16:06:05.214149,26
16:06:05.214149,8960
16:06:05.214149,0
16:06:05.214149,37
16:06:05.214149,6656
16:06:05.214149,0
16:06:05.214149,21
16:06:05.214149,8448
16:06:05.214149,0
16:06:05.214149,33
16:06:05.214149,8448
16:06:05.214149,0
16:06:05.214149,44
16:06:05.214149,11264
16:06:05.214149,0
16:06:05.214149,33
16:06:05.214149,10240
16:06:05.214149,0
16:06:05.214149,56
16:06:05.214149,14336
16:06:05.214149,0
16:06:05.214149,49
16:06:05.214149,14336
16:06:05.214149,0
16:06:05.214149,66
16:06:05.214149,13312
16:06:05.214149,0
16:06:05.214149,40
16:06:05.214149,11264
16:06:05.214149,0
16:06:05.214149,47
16:06:05.214149,12544
16:06:05.214149,0
16:06:05.214149,73
16:06:05.214149,25856
16:06:05.214149,0
16:06:05.214149,113
16:06:05.214149,28928
16:06:05.214149,0
16:06:05.214149,99
16:06:05.214149,22272
16:06:05.214149,0
16:06:05.214149,82
16:06:05.214149,18688
16:06:05.214149,0
16:06:05.214149,68
16:06:05.214149,20992
16:06:05.214149,0
16:06:05.214149,92
16:06:05.214149,18688
16:06:05.214149,0
16:06:05.214149,40
16:06:05.214149,0
16:06:05.214149,0
16:06:05.214149,59
16:06:05.214149,-28672
16:06:05.214149,1
16:06:05.214149,937
16:06:05.214149,-27136
16:06:05.214149,4
16:06:05.214149,767
16:06:05.214149,-18944
16:06:05.214149,0
16:06:05.214149,-14
16:06:05.214149,-4353
16:06:05.214149,-1
16:06:05.214149,-80
16:06:05.214149,-23809
16:06:05.214149,-1
16:06:05.214149,-68
16:06:05.214149,-18433
16:06:05.214149,-1
16:06:05.214149,-71
16:06:05.214149,-11777
16:06:05.214149,-1
16:06:05.214149,-52
16:06:05.214149,-15361
16:06:05.214149,-1
16:06:05.214149,-42
16:06:05.214149,-9217
16:06:05.214149,-1
16:06:05.214149,-44
16:06:05.799092,-28
16:06:05.799092,-4353
16:06:05.799092,-1
16:06:05.799092,-28
16:06:05.799092,-5121
16:06:05.799092,-1
16:06:05.799092,-7
16:06:05.799092,2047
16:06:05.799092,0
16:06:05.799092,33
16:06:05.799092,14336
16:06:05.799092,0
16:06:05.799092,52
16:06:05.799092,13312
16:06:05.799092,0
16:06:05.799092,59
16:06:05.799092,15616
16:06:05.799092,0
16:06:05.799092,66
16:06:05.799092,18176
16:06:05.799092,0
16:06:05.799092,59
16:06:05.799092,14336
16:06:05.799092,0
16:06:05.799092,59
16:06:05.799092,14336
16:06:05.799092,0
16:06:05.799092,49
16:06:05.799092,12032
16:06:05.799092,0
16:06:05.799092,54
16:06:05.799092,14336
16:06:05.799092,0
16:06:05.799092,44
16:06:05.799092,12032
16:06:05.799092,0
16:06:05.799092,66
16:06:05.799092,18688
16:06:05.799092,0
16:06:05.799092,63
16:06:05.799092,16128
16:06:05.799092,0
16:06:05.799092,63
16:06:05.799092,16128
16:06:05.799092,0
16:06:05.799092,75
16:06:05.799092,18176
16:06:05.799092,0
16:06:05.799092,59
16:06:05.799092,16896
16:06:05.799092,0
16:06:05.799092,78
16:06:05.799092,19200
16:06:05.799092,0
16:06:05.799092,73
16:06:05.799092,17408
16:06:05.799092,0
16:06:05.799092,68
16:06:05.799092,16896
16:06:05.799092,0
16:06:05.799092,52
16:06:05.799092,12032
16:06:05.799092,0
16:06:05.799092,66
16:06:05.799092,24064
16:06:05.799092,0
16:06:05.799092,101
16:06:05.799092,27136
16:06:05.799092,0
16:06:05.799092,113
16:06:05.799092,23552
16:06:05.799092,0
16:06:05.799092,66
16:06:05.799092,15104
16:06:05.799092,0
16:06:05.799092,56
16:06:05.799092,14336
16:06:05.799092,0
16:06:05.799092,56
16:06:05.799092,13824
16:06:05.799092,0
16:06:05.799092,54
16:06:05.799092,8448
16:06:05.799092,0
16:06:05.799092,-11
16:06:05.799092,18943
16:06:05.799092,0
16:06:05.799092,445
16:06:05.799092,-17408
16:06:05.799092,3
16:06:05.799092,1103
16:06:05.799092,31232
16:06:05.799092,2
16:06:05.799092,108
16:06:05.799092,-5888
16:06:05.799092,-1
16:06:05.799092,-40
16:06:05.799092,-26881
16:06:05.799092,-1
16:06:05.799092,-106
16:06:05.799092,-21505
16:06:05.799092,-1
16:06:05.799092,-97
16:06:05.799092,-23809
16:06:05.799092,-1
16:06:05.799092,-82
16:06:05.799092,-18945
16:06:05.799092,-1
16:06:05.799092,-66
16:06:06.383792,-71
16:06:06.383792,-19713
16:06:06.383792,-1
16:06:06.383792,-68
16:06:06.383792,-14081
16:06:06.383792,-1
16:06:06.383792,-54
16:06:06.383792,-13057
16:06:06.383792,-1
16:06:06.383792,-40
16:06:06.383792,-8193
16:06:06.383792,-1
16:06:06.383792,-30
16:06:06.383792,-1537
16:06:06.383792,-1
16:06:06.383792,23
16:06:06.383792,5888
16:06:06.383792,0
16:06:06.383792,14
16:06:06.383792,3584
16:06:06.383792,0
16:06:06.383792,14
16:06:06.383792,4608
16:06:06.383792,0
16:06:06.383792,30
16:06:06.383792,5888
16:06:06.383792,0
16:06:06.383792,11
16:06:06.383792,2304
16:06:06.383792,0
16:06:06.383792,7
16:06:06.383792,0
16:06:06.383792,0
16:06:06.383792,7
16:06:06.383792,2816
16:06:06.383792,0
16:06:06.383792,4
16:06:06.383792,512
16:06:06.383792,0
16:06:06.383792,7
16:06:06.383792,0
16:06:06.383792,0
16:06:06.383792,2
16:06:06.383792,2304
16:06:06.383792,0
16:06:06.383792,7
16:06:06.383792,512
16:06:06.383792,0
16:06:06.383792,4
16:06:06.383792,512
16:06:06.383792,0
16:06:06.383792,4
16:06:06.383792,2816
16:06:06.383792,0
16:06:06.383792,7
16:06:06.383792,0
16:06:06.383792,0
16:06:06.383792,7
16:06:06.383792,2304
16:06:06.383792,0
16:06:06.383792,7
16:06:06.383792,1792
16:06:06.383792,0
16:06:06.383792,2
16:06:06.383792,-1792
16:06:06.383792,-1
16:06:06.383792,-11
16:06:06.383792,-5121
16:06:06.383792,-1
16:06:06.383792,-18
16:06:06.383792,4351
16:06:06.383792,0
16:06:06.383792,40
16:06:06.383792,10752
16:06:06.383792,0
16:06:06.383792,49
16:06:06.383792,10240
16:06:06.383792,0
16:06:06.383792,9
16:06:06.383792,-1792
16:06:06.383792,-1
16:06:06.383792,-9
16:06:06.383792,-2561
16:06:06.383792,-1
16:06:06.383792,-4
16:06:06.383792,-1537
16:06:06.383792,-1
16:06:06.383792,-16
16:06:06.383792,-8193
16:06:06.383792,-1
16:06:06.383792,-71
16:06:06.383792,-7425
16:06:06.383792,-1
16:06:06.383792,265
16:06:06.383792,-3840
16:06:06.383792,2
16:06:06.383792,1020
16:06:06.383792,-17920
16:06:06.383792,2
16:06:06.383792,144
16:06:06.383792,-15104
16:06:06.383792,-1
16:06:06.383792,-73
16:06:06.383792,27135
16:06:06.383792,-1
16:06:06.383792,-175
16:06:06.383792,28415
16:06:06.383792,-1
16:06:06.383792,-153
16:06:06.878797,-156
16:06:06.878797,30719
16:06:06.878797,-1
16:06:06.878797,-132
16:06:06.878797,31999
16:06:06.878797,-1
16:06:06.878797,-120
16:06:06.878797,-29953
16:06:06.878797,-1
16:06:06.878797,-111
16:06:06.878797,-22529
16:06:06.878797,-1
16:06:06.878797,-78
16:06:06.878797,-20225
16:06:06.878797,-1
16:06:06.878797,-80
16:06:06.878797,-15873
16:06:06.878797,-1
16:06:06.878797,-37
16:06:06.878797,-4353
16:06:06.878797,-1
16:06:06.878797,-16
16:06:06.878797,-3329
16:06:06.878797,-1
16:06:06.878797,-14
16:06:06.878797,-5121
16:06:06.878797,-1
16:06:06.878797,-23
16:06:06.878797,-3841
16:06:06.878797,-1
16:06:06.878797,-16
16:06:06.878797,-4353
16:06:06.878797,-1
16:06:06.878797,-23
16:06:06.878797,-6401
16:06:06.878797,-1
16:06:06.878797,-23
16:06:06.878797,-5121
16:06:06.878797,-1
16:06:06.878797,-28
16:06:06.878797,-8193
16:06:06.878797,-1
16:06:06.878797,-26
16:06:06.878797,-6913
16:06:06.878797,-1
16:06:06.878797,-26
16:06:06.878797,-3329
16:06:06.878797,-1
16:06:06.878797,-14
16:06:06.878797,-3841
16:06:06.878797,-1
16:06:06.878797,-4
16:06:06.878797,767
16:06:06.878797,0
16:06:06.878797,2
16:06:06.878797,2304
16:06:06.878797,0
16:06:06.878797,14
16:06:06.878797,1792
16:06:06.878797,0
16:06:06.878797,11
16:06:06.878797,5376
16:06:06.878797,0
16:06:06.878797,16
16:06:06.878797,2304
16:06:06.878797,0
16:06:06.878797,2
16:06:06.878797,1024
16:06:06.878797,0
16:06:06.878797,2
16:06:06.878797,-2816
16:06:06.878797,-1
16:06:06.878797,-11
16:06:06.878797,5631
16:06:06.878797,0
16:06:06.878797,49
16:06:06.878797,13824
16:06:06.878797,0
16:06:06.878797,52
16:06:06.878797,9472
16:06:06.878797,0
16:06:06.878797,18
16:06:06.878797,2304
16:06:06.878797,0
16:06:06.878797,7
16:06:06.878797,1792
16:06:06.878797,0
16:06:06.878797,11
16:06:06.878797,2816
16:06:06.878797,0
16:06:06.878797,7
16:06:06.878797,-3584
16:06:06.878797,-1
16:06:06.878797,-56
16:06:06.878797,1279
16:06:06.878797,0
16:06:06.878797,331
16:06:06.878797,16640
16:06:06.878797,3
16:06:06.878797,1037
16:06:06.878797,27136
16:06:06.878797,2
16:06:06.878797,94
16:06:06.878797,-4608
16:06:06.878797,-1
16:06:06.878797,-30
16:06:06.878797,32511
16:06:06.878797,-1
16:06:06.878797,-144
16:06:07.509549,-104
16:06:07.509549,-27393
16:06:07.509549,-1
16:06:07.509549,-113
16:06:07.509549,-22017
16:06:07.509549,-1
16:06:07.509549,-63
16:06:07.509549,-14849
16:06:07.509549,-1
16:06:07.509549,-61
16:06:07.509549,-13057
16:06:07.509549,-1
16:06:07.509549,-44
16:06:07.509549,-10497
16:06:07.509549,-1
16:06:07.509549,-35
16:06:07.509549,-7425
16:06:07.509549,-1
16:06:07.509549,-28
16:06:07.509549,-3841
16:06:07.509549,-1
16:06:07.509549,-2
16:06:07.509549,2047
16:06:07.509549,0
16:06:07.509549,16
16:06:07.509549,5376
16:06:07.509549,0
16:06:07.509549,18
16:06:07.509549,3584
16:06:07.509549,0
16:06:07.509549,16
16:06:07.509549,4608
16:06:07.509549,0
16:06:07.509549,18
16:06:07.509549,3584
16:06:07.509549,0
16:06:07.509549,14
16:06:07.509549,4096
16:06:07.509549,0
16:06:07.509549,14
16:06:07.509549,3584
16:06:07.509549,0
16:06:07.509549,16
16:06:07.509549,4096
16:06:07.509549,0
16:06:07.509549,18
16:06:07.509549,4096
16:06:07.509549,0
16:06:07.509549,26
16:06:07.509549,7680
16:06:07.509549,0
16:06:07.509549,21
16:06:07.509549,8448
16:06:07.509549,0
16:06:07.509549,47
16:06:07.509549,9472
16:06:07.509549,0
16:06:07.509549,42
16:06:07.509549,16128
16:06:07.509549,0
16:06:07.509549,68
16:06:07.509549,14336
16:06:07.509549,0
16:06:07.509549,54
16:06:07.509549,15616
16:06:07.509549,0
16:06:07.509549,61
16:06:07.509549,14336
16:06:07.509549,0
16:06:07.509549,59
16:06:07.509549,13312
16:06:07.509549,0
16:06:07.509549,35
16:06:07.509549,7168
16:06:07.509549,0
16:06:07.509549,44
16:06:07.509549,18176
16:06:07.509549,0
16:06:07.509549,92
16:06:07.509549,27136
16:06:07.509549,0
16:06:07.509549,99
16:06:07.509549,19200
16:06:07.509549,0
16:06:07.509549,71
16:06:07.509549,16896
16:06:07.509549,0
16:06:07.509549,49
16:06:07.509549,12032
16:06:07.509549,0
16:06:07.509549,49
16:06:07.509549,13312
16:06:07.509549,0
16:06:07.509549,49
16:06:07.509549,8448
16:06:07.509549,0
16:06:07.509549,-7
16:06:07.509549,3071
16:06:07.509549,0
16:06:07.509549,293
16:06:07.509549,17152
16:06:07.509549,3
16:06:07.509549,1188
16:06:07.509549,-31232
16:06:07.509549,3
16:06:07.509549,286
16:06:07.509549,-512
16:06:07.509549,-1
16:06:07.509549,-26
16:06:08.048881,-87
16:06:08.048881,-28161
16:06:08.048881,-1
16:06:08.048881,-78
16:06:08.048881,-20225
16:06:08.048881,-1
16:06:08.048881,-97
16:06:08.048881,-22017
16:06:08.048881,-1
16:06:08.048881,-73
16:06:08.048881,-15873
16:06:08.048881,-1
16:06:08.048881,-61
16:06:08.048881,-15873
16:06:08.048881,-1
16:06:08.048881,-59
16:06:08.048881,-11777
16:06:08.048881,-1
16:06:08.048881,-37
16:06:08.048881,-5633
16:06:08.048881,-1
16:06:08.048881,-9
16:06:08.048881,-1537
16:06:08.048881,-1
16:06:08.048881,0
16:06:08.048881,2816
16:06:08.048881,0
16:06:08.048881,21
16:06:08.048881,8960
16:06:08.048881,0
16:06:08.048881,40
16:06:08.048881,8960
16:06:08.048881,0
16:06:08.048881,37
16:06:08.048881,12032
16:06:08.048881,0
16:06:08.048881,47
16:06:08.048881,9472
16:06:08.048881,0
16:06:08.048881,40
16:06:08.048881,10240
16:06:08.048881,0
16:06:08.048881,33
16:06:08.048881,8960
16:06:08.048881,0
16:06:08.048881,35
16:06:08.048881,7168
16:06:08.048881,0
16:06:08.048881,30
16:06:08.048881,9472
16:06:08.048881,0
16:06:08.048881,35
16:06:08.048881,8960
16:06:08.048881,0
16:06:08.048881,40
16:06:08.048881,12032
16:06:08.048881,0
16:06:08.048881,44
16:06:08.048881,8448
16:06:08.048881,0
16:06:08.048881,42
16:06:08.048881,13312
16:06:08.048881,0
16:06:08.048881,47
16:06:08.048881,12544
16:06:08.048881,0
16:06:08.048881,61
16:06:08.048881,14336
16:06:08.048881,0
16:06:08.048881,54
16:06:08.048881,13312
16:06:08.048881,0
16:06:08.048881,37
16:06:08.048881,7168
16:06:08.048881,0
16:06:08.048881,33
16:06:08.048881,8960
16:06:08.048881,0
16:06:08.048881,47
16:06:08.048881,20992
16:06:08.048881,0
16:06:08.048881,106
16:06:08.048881,25856
16:06:08.048881,0
16:06:08.048881,85
16:06:08.048881,17408
16:06:08.048881,0
16:06:08.048881,54
16:06:08.048881,12544
16:06:08.048881,0
16:06:08.048881,52
16:06:08.048881,12032
16:06:08.048881,0
16:06:08.048881,44
16:06:08.048881,13312
16:06:08.048881,0
16:06:08.048881,47
16:06:08.048881,0
16:06:08.048881,0
16:06:08.048881,-37
16:06:08.048881,26111
16:06:08.048881,0
16:06:08.048881,535
16:06:08.048881,2560
16:06:08.048881,4
16:06:08.048881,1070
16:06:08.048881,5888
16:06:08.048881,2
16:06:08.048881,59
16:06:08.588878,-33
16:06:08.588878,-14081
16:06:08.588878,-1
16:06:08.588878,-120
16:06:08.588878,-29953
16:06:08.588878,-1
16:06:08.588878,-89
16:06:08.588878,-24577
16:06:08.588878,-1
16:06:08.588878,-94
16:06:08.588878,-20225
16:06:08.588878,-1
16:06:08.588878,-85
16:06:08.588878,-20225
16:06:08.588878,-1
16:06:08.588878,-44
16:06:08.588878,-7425
16:06:08.588878,-1
16:06:08.588878,-35
16:06:08.588878,-6913
16:06:08.588878,-1
16:06:08.588878,-23
16:06:08.588878,-6401
16:06:08.588878,-1
16:06:08.588878,-18
16:06:08.588878,-1537
16:06:08.588878,-1
16:06:08.588878,-2
16:06:08.588878,2559
16:06:08.588878,0
16:06:08.588878,23
16:06:08.588878,5888
16:06:08.588878,0
16:06:08.588878,23
16:06:08.588878,7168
16:06:08.588878,0
16:06:08.588878,33
16:06:08.588878,8448
16:06:08.588878,0
16:06:08.588878,28
16:06:08.588878,7168
16:06:08.588878,0
16:06:08.588878,28
16:06:08.588878,5888
16:06:08.588878,0
16:06:08.588878,23
16:06:08.588878,5376
16:06:08.588878,0
16:06:08.588878,18
16:06:08.588878,5376
16:06:08.588878,0
16:06:08.588878,26
16:06:08.588878,6656
16:06:08.588878,0
16:06:08.588878,23
16:06:08.588878,5888
16:06:08.588878,0
16:06:08.588878,28
16:06:08.588878,8448
16:06:08.588878,0
16:06:08.588878,28
16:06:08.588878,7168
16:06:08.588878,0
16:06:08.588878,33
16:06:08.588878,10240
16:06:08.588878,0
16:06:08.588878,49
16:06:08.588878,13824
16:06:08.588878,0
16:06:08.588878,54
16:06:08.588878,12032
16:06:08.588878,0
16:06:08.588878,44
16:06:08.588878,11264
16:06:08.588878,0
16:06:08.588878,35
16:06:08.588878,6656
16:06:08.588878,0
16:06:08.588878,33
16:06:08.588878,12544
16:06:08.588878,0
16:06:08.588878,66
16:06:08.588878,21760
16:06:08.588878,0
16:06:08.588878,97
16:06:08.588878,26624
16:06:08.588878,0
16:06:08.588878,85
16:06:08.588878,15616
16:06:08.588878,0
16:06:08.588878,47
16:06:08.588878,9472
16:06:08.588878,0
16:06:08.588878,40
16:06:08.588878,11264
16:06:08.588878,0
16:06:08.588878,40
16:06:08.588878,7680
16:06:08.588878,0
16:06:08.588878,21
16:06:08.588878,-2816
16:06:08.588878,-1
16:06:08.588878,-33
16:06:08.588878,-28929
16:06:08.588878,0
16:06:08.588878,599
16:06:08.588878,6912
16:06:08.588878,4
16:06:08.588878,982
16:06:09.174407,416
16:06:09.174407,2304
16:06:09.174407,0
16:06:09.174407,-49
16:06:09.174407,-21505
16:06:09.174407,-1
16:06:09.174407,-130
16:06:09.174407,-28673
16:06:09.174407,-1
16:06:09.174407,-106
16:06:09.174407,-26881
16:06:09.174407,-1
16:06:09.174407,-78
16:06:09.174407,-16641
16:06:09.174407,-1
16:06:09.174407,-80
16:06:09.174407,-19713
16:06:09.174407,-1
16:06:09.174407,-63
16:06:09.174407,-14849
16:06:09.174407,-1
16:06:09.174407,-59
16:06:09.174407,-14849
16:06:09.174407,-1
16:06:09.174407,-59
16:06:09.174407,-13057
16:06:09.174407,-1
16:06:09.174407,-40
16:06:09.174407,-6913
16:06:09.174407,-1
16:06:09.174407,-16
16:06:09.174407,-3329
16:06:09.174407,-1
16:06:09.174407,-18
16:06:09.174407,-2049
16:06:09.174407,-1
16:06:09.174407,-4
16:06:09.174407,-2049
16:06:09.174407,-1
16:06:09.174407,-2
16:06:09.174407,767
16:06:09.174407,0
16:06:09.174407,-7
16:06:09.174407,-2049
16:06:09.174407,-1
16:06:09.174407,-7
16:06:09.174407,-769
16:06:09.174407,-1
16:06:09.174407,-11
16:06:09.174407,-5121
16:06:09.174407,-1
16:06:09.174407,-18
16:06:09.174407,-257
16:06:09.174407,-1
16:06:09.174407,-2
16:06:09.174407,-2049
16:06:09.174407,-1
16:06:09.174407,-4
16:06:09.174407,-257
16:06:09.174407,-1
16:06:09.174407,0
16:06:09.174407,2304
16:06:09.174407,0
16:06:09.174407,9
16:06:09.174407,0
16:06:09.174407,0
16:06:09.174407,4
16:06:09.174407,6656
16:06:09.174407,0
16:06:09.174407,28
16:06:09.174407,5376
16:06:09.174407,0
16:06:09.174407,26
16:06:09.174407,8448
16:06:09.174407,0
16:06:09.174407,23
16:06:09.174407,3584
16:06:09.174407,0
16:06:09.174407,7
16:06:09.174407,1024
16:06:09.174407,0
16:06:09.174407,7
16:06:09.174407,3584
16:06:09.174407,0
16:06:09.174407,33
16:06:09.174407,13312
16:06:09.174407,0
16:06:09.174407,66
16:06:09.174407,16896
16:06:09.174407,0
16:06:09.174407,49
16:06:09.174407,7680
16:06:09.174407,0
16:06:09.174407,16
16:06:09.174407,2816
16:06:09.174407,0
16:06:09.174407,11
16:06:09.174407,2816
16:06:09.174407,0
16:06:09.174407,14
16:06:09.174407,4608
16:06:09.174407,0
16:06:09.174407,-2
16:06:09.174407,-14081
16:06:09.174407,-1
16:06:09.174407,-28
16:06:09.174407,767
16:06:09.174407,1
16:06:09.174407,753
16:06:09.713988,1053
16:06:09.713988,-4608
16:06:09.713988,2
16:06:09.713988,189
16:06:09.713988,-5888
16:06:09.713988,-1
16:06:09.713988,-40
16:06:09.713988,-31233
16:06:09.713988,-1
16:06:09.713988,-151
16:06:09.713988,-30465
16:06:09.713988,-1
16:06:09.713988,-127
16:06:09.713988,31999
16:06:09.713988,-1
16:06:09.713988,-99
16:06:09.713988,-18945
16:06:09.713988,-1
16:06:09.713988,-78
16:06:09.713988,-19713
16:06:09.713988,-1
16:06:09.713988,-68
16:06:09.713988,-16641
16:06:09.713988,-1
16:06:09.713988,-61
16:06:09.713988,-12289
16:06:09.713988,-1
16:06:09.713988,-47
16:06:09.713988,-11777
16:06:09.713988,-1
16:06:09.713988,-35
16:06:09.713988,-3841
16:06:09.713988,-1
16:06:09.713988,-7
16:06:09.713988,767
16:06:09.713988,0
16:06:09.713988,11
16:06:09.713988,2304
16:06:09.713988,0
16:06:09.713988,7
16:06:09.713988,1792
16:06:09.713988,0
16:06:09.713988,9
16:06:09.713988,3584
16:06:09.713988,0
16:06:09.713988,16
16:06:09.713988,3584
16:06:09.713988,0
16:06:09.713988,9
16:06:09.713988,1792
16:06:09.713988,0
16:06:09.713988,11
16:06:09.713988,4096
16:06:09.713988,0
16:06:09.713988,7
16:06:09.713988,0
16:06:09.713988,0
16:06:09.713988,7
16:06:09.713988,5376
16:06:09.713988,0
16:06:09.713988,26
16:06:09.713988,6656
16:06:09.713988,0
16:06:09.713988,30
16:06:09.713988,9472
16:06:09.713988,0
16:06:09.713988,35
16:06:09.713988,10240
16:06:09.713988,0
16:06:09.713988,42
16:06:09.713988,11264
16:06:09.713988,0
16:06:09.713988,49
16:06:09.713988,12544
16:06:09.713988,0
16:06:09.713988,49
16:06:09.713988,15104
16:06:09.713988,0
16:06:09.713988,54
16:06:09.713988,11264
16:06:09.713988,0
16:06:09.713988,42
16:06:09.713988,8960
16:06:09.713988,0
16:06:09.713988,26
16:06:09.713988,5376
16:06:09.713988,0
16:06:09.713988,37
16:06:09.713988,16128
16:06:09.713988,0
16:06:09.713988,82
16:06:09.713988,24064
16:06:09.713988,0
16:06:09.713988,89
16:06:09.713988,17408
16:06:09.713988,0
16:06:09.713988,52
16:06:09.713988,11264
16:06:09.713988,0
16:06:09.713988,40
16:06:09.713988,8448
16:06:09.713988,0
16:06:09.713988,33
16:06:09.713988,9472
16:06:09.713988,0
16:06:09.713988,35
16:06:09.713988,1792
16:06:09.713988,0
16:06:09.713988,-42
16:06:10.254103,18
16:06:10.254103,30208
16:06:10.254103,1
16:06:10.254103,911
16:06:10.254103,31232
16:06:10.254103,4
16:06:10.254103,736
16:06:10.254103,-28672
16:06:10.254103,0
16:06:10.254103,-47
16:06:10.254103,-9217
16:06:10.254103,-1
16:06:10.254103,-94
16:06:10.254103,-28161
16:06:10.254103,-1
16:06:10.254103,-82
16:06:10.254103,-21505
16:06:10.254103,-1
16:06:10.254103,-92
16:06:10.254103,-20225
16:06:10.254103,-1
16:06:10.254103,-73
16:06:10.254103,-17921
16:06:10.254103,-1
16:06:10.254103,-68
16:06:10.254103,-14081
16:06:10.254103,-1
16:06:10.254103,-52
16:06:10.254103,-13569
16:06:10.254103,-1
16:06:10.254103,-42
16:06:10.254103,-8705
16:06:10.254103,-1
16:06:10.254103,-37
16:06:10.254103,-6401
16:06:10.254103,-1
16:06:10.254103,-7
16:06:10.254103,-257
16:06:10.254103,-1
16:06:10.254103,7
16:06:10.254103,5376
16:06:10.254103,0
16:06:10.254103,21
16:06:10.254103,3584
16:06:10.254103,0
16:06:10.254103,21
16:06:10.254103,7168
16:06:10.254103,0
16:06:10.254103,33
16:06:10.254103,8448
16:06:10.254103,0
16:06:10.254103,23
16:06:10.254103,5888
16:06:10.254103,0
16:06:10.254103,28
16:06:10.254103,5888
16:06:10.254103,0
16:06:10.254103,14
16:06:10.254103,4608
16:06:10.254103,0
16:06:10.254103,23
16:06:10.254103,5376
16:06:10.254103,0
16:06:10.254103,23
16:06:10.254103,7168
16:06:10.254103,0
16:06:10.254103,26
16:06:10.254103,7168
16:06:10.254103,0
16:06:10.254103,37
16:06:10.254103,8448
16:06:10.254103,0
16:06:10.254103,30
16:06:10.254103,9472
16:06:10.254103,0
16:06:10.254103,40
16:06:10.254103,12032
16:06:10.254103,0
16:06:10.254103,52
16:06:10.254103,12032
16:06:10.254103,0
16:06:10.254103,44
16:06:10.254103,13824
16:06:10.254103,0
16:06:10.254103,47
16:06:10.254103,7168
16:06:10.254103,0
16:06:10.254103,21
16:06:10.254103,6656
16:06:10.254103,0
16:06:10.254103,33
16:06:10.254103,11264
16:06:10.254103,0
16:06:10.254103,71
16:06:10.254103,24832
16:06:10.254103,0
16:06:10.254103,94
16:06:10.254103,18176
16:06:10.254103,0
16:06:10.254103,49
16:06:10.254103,10752
16:06:10.254103,0
16:06:10.254103,33
16:06:10.254103,8960
16:06:10.254103,0
16:06:10.254103,40
16:06:10.254103,7168
16:06:10.254103,0
16:06:10.254103,21
16:06:10.839407,21
16:06:10.839407,-4096
16:06:10.839407,-1
16:06:10.839407,-42
16:06:10.839407,-29697
16:06:10.839407,0
16:06:10.839407,610
16:06:10.839407,16640
16:06:10.839407,4
16:06:10.839407,1030
16:06:10.839407,-18432
16:06:10.839407,1
16:06:10.839407,30
16:06:10.839407,-3584
16:06:10.839407,-1
16:06:10.839407,-61
16:06:10.839407,-31233
16:06:10.839407,-1
16:06:10.839407,-108
16:06:10.839407,-24577
16:06:10.839407,-1
16:06:10.839407,-106
16:06:10.839407,-25601
16:06:10.839407,-1
16:06:10.839407,-92
16:06:10.839407,-22529
16:06:10.839407,-1
16:06:10.839407,-82
16:06:10.839407,-19713
16:06:10.839407,-1
16:06:10.839407,-78
16:06:10.839407,-17921
16:06:10.839407,-1
16:06:10.839407,-63
16:06:10.839407,-15361
16:06:10.839407,-1
16:06:10.839407,-52
16:06:10.839407,-9985
16:06:10.839407,-1
16:06:10.839407,-30
16:06:10.839407,-5121
16:06:10.839407,-1
16:06:10.839407,-11
16:06:10.839407,-2049
16:06:10.839407,-1
16:06:10.839407,-2
16:06:10.839407,-769
16:06:10.839407,-1
16:06:10.839407,-11
16:06:10.839407,-1537
16:06:10.839407,-1
16:06:10.839407,-2
16:06:10.839407,-769
16:06:10.839407,-1
16:06:10.839407,-4
16:06:10.839407,-257
16:06:10.839407,-1
16:06:10.839407,-11
16:06:10.839407,-4353
16:06:10.839407,-1
16:06:10.839407,-11
16:06:10.839407,-257
16:06:10.839407,-1
16:06:10.839407,-4
16:06:10.839407,-1537
16:06:10.839407,-1
16:06:10.839407,-2
16:06:10.839407,767
16:06:10.839407,0
16:06:10.839407,0
16:06:10.839407,1024
16:06:10.839407,0
16:06:10.839407,11
16:06:10.839407,2304
16:06:10.839407,0
16:06:10.839407,11
16:06:10.839407,4608
16:06:10.839407,0
16:06:10.839407,23
16:06:10.839407,7168
16:06:10.839407,0
16:06:10.839407,28
16:06:10.839407,5888
16:06:10.839407,0
16:06:10.839407,28
16:06:10.839407,8448
16:06:10.839407,0
16:06:10.839407,33
16:06:10.839407,7168
16:06:10.839407,0
16:06:10.839407,16
16:06:10.839407,3584
16:06:10.839407,0
16:06:10.839407,11
16:06:10.839407,4608
16:06:10.839407,0
16:06:10.839407,47
16:06:10.839407,18176
16:06:10.839407,0
16:06:10.839407,80
16:06:10.839407,19200
16:06:10.839407,0
16:06:10.839407,61
16:06:10.839407,11264
16:06:10.839407,0
16:06:10.839407,35
16:06:10.839407,7168
16:06:10.839407,0
16:06:10.839407,28
16:06:11.424520,33
16:06:11.424520,7680
16:06:11.424520,0
16:06:11.424520,23
16:06:11.424520,4096
16:06:11.424520,0
16:06:11.424520,-26
16:06:11.424520,-5121
16:06:11.424520,-1
16:06:11.424520,232
16:06:11.424520,-3840
16:06:11.424520,2
16:06:11.424520,1124
16:06:11.424520,25856
16:06:11.424520,3
16:06:11.424520,272
16:06:11.424520,2304
16:06:11.424520,0
16:06:11.424520,-2
16:06:11.424520,-19713
16:06:11.424520,-1
16:06:11.424520,-108
16:06:11.424520,-19713
16:06:11.424520,-1
16:06:11.424520,-82
16:06:11.424520,-22017
16:06:11.424520,-1
16:06:11.424520,-73
16:06:11.424520,-16641
16:06:11.424520,-1
16:06:11.424520,-63
16:06:11.424520,-14849
16:06:11.424520,-1
16:06:11.424520,-54
16:06:11.424520,-12289
16:06:11.424520,-1
16:06:11.424520,-44
16:06:11.424520,-9985
16:06:11.424520,-1
16:06:11.424520,-30
16:06:11.424520,-6401
16:06:11.424520,-1
16:06:11.424520,-21
16:06:11.424520,-769
16:06:11.424520,-1
16:06:11.424520,11
16:06:11.424520,3584
16:06:11.424520,0
16:06:11.424520,18
16:06:11.424520,7680
16:06:11.424520,0
16:06:11.424520,26
16:06:11.424520,5376
16:06:11.424520,0
16:06:11.424520,23
16:06:11.424520,5888
16:06:11.424520,0
16:06:11.424520,28
16:06:11.424520,8448
16:06:11.424520,0
16:06:11.424520,23
16:06:11.424520,4608
16:06:11.424520,0
16:06:11.424520,28
16:06:11.424520,6656
16:06:11.424520,0
16:06:11.424520,21
16:06:11.424520,6656
16:06:11.424520,0
16:06:11.424520,26
16:06:11.424520,5376
16:06:11.424520,0
16:06:11.424520,23
16:06:11.424520,7168
16:06:11.424520,0
16:06:11.424520,35
16:06:11.424520,9472
16:06:11.424520,0
16:06:11.424520,37
16:06:11.424520,11264
16:06:11.424520,0
16:06:11.424520,49
16:06:11.424520,12032
16:06:11.424520,0
16:06:11.424520,49
16:06:11.424520,13312
16:06:11.424520,0
16:06:11.424520,49
16:06:11.424520,12032
16:06:11.424520,0
16:06:11.424520,47
16:06:11.424520,11264
16:06:11.424520,0
16:06:11.424520,37
16:06:11.424520,9472
16:06:11.424520,0
16:06:11.424520,40
16:06:11.424520,8448
16:06:11.424520,0
16:06:11.424520,37
16:06:11.424520,18688
16:06:11.424520,0
16:06:11.424520,97
16:06:11.424520,23552
16:06:11.424520,0
16:06:11.424520,82
16:06:11.424520,16896
16:06:11.424520,0
16:06:11.424520,49
16:06:11.963785,40
16:06:11.963785,10240
16:06:11.963785,0
16:06:11.963785,49
16:06:11.963785,10752
16:06:11.963785,0
16:06:11.963785,33
16:06:11.963785,7680
16:06:11.963785,0
16:06:11.963785,0
16:06:11.963785,-10240
16:06:11.963785,-1
16:06:11.963785,87
16:06:11.963785,4096
16:06:11.963785,2
16:06:11.963785,1046
16:06:11.963785,21504
16:06:11.963785,4
16:06:11.963785,582
16:06:11.963785,22272
16:06:11.963785,0
16:06:11.963785,-21
16:06:11.963785,-9217
16:06:11.963785,-1
16:06:11.963785,-97
16:06:11.963785,-22529
16:06:11.963785,-1
16:06:11.963785,-66
16:06:11.963785,-19713
16:06:11.963785,-1
16:06:11.963785,-85
16:06:11.963785,-17921
16:06:11.963785,-1
16:06:11.963785,-59
16:06:11.963785,-15361
16:06:11.963785,-1
16:06:11.963785,-61
16:06:11.963785,-13057
16:06:11.963785,-1
16:06:11.963785,-44
16:06:11.963785,-10497
16:06:11.963785,-1
16:06:11.963785,-35
16:06:11.963785,-8193
16:06:11.963785,-1
16:06:11.963785,-28
16:06:11.963785,-4353
16:06:11.963785,-1
16:06:11.963785,-9
16:06:11.963785,255
16:06:11.963785,0
16:06:11.963785,14
16:06:11.963785,4096
16:06:11.963785,0
16:06:11.963785,7
16:06:11.963785,4096
16:06:11.963785,0
16:06:11.963785,18
16:06:11.963785,2816
16:06:11.963785,0
16:06:11.963785,11
16:06:11.963785,2304
16:06:11.963785,0
16:06:11.963785,4
16:06:11.963785,2304
16:06:11.963785,0
16:06:11.963785,7
16:06:11.963785,0
16:06:11.963785,0
16:06:11.963785,0
16:06:11.963785,1024
16:06:11.963785,0
16:06:11.963785,2
16:06:11.963785,0
16:06:11.963785,0
16:06:11.963785,7
16:06:11.963785,1024
16:06:11.963785,0
16:06:11.963785,2
16:06:11.963785,2816
16:06:11.963785,0
16:06:11.963785,21
16:06:11.963785,4608
16:06:11.963785,0
16:06:11.963785,14
16:06:11.963785,4096
16:06:11.963785,0
16:06:11.963785,23
16:06:11.963785,5888
16:06:11.963785,0
16:06:11.963785,26
16:06:11.963785,6656
16:06:11.963785,0
16:06:11.963785,23
16:06:11.963785,4608
16:06:11.963785,0
16:06:11.963785,21
16:06:11.963785,3584
16:06:11.963785,0
16:06:11.963785,-4
16:06:11.963785,255
16:06:11.963785,0
16:06:11.963785,11
16:06:11.963785,5376
16:06:11.963785,0
16:06:11.963785,49
16:06:11.963785,18176
16:06:11.963785,0
16:06:11.963785,59
16:06:12.504220,33
16:06:12.504220,5376
16:06:12.504220,0
16:06:12.504220,16
16:06:12.504220,3584
16:06:12.504220,0
16:06:12.504220,11
16:06:12.504220,2304
16:06:12.504220,0
16:06:12.504220,9
16:06:12.504220,1792
16:06:12.504220,0
16:06:12.504220,-4
16:06:12.504220,-8705
16:06:12.504220,-1
16:06:12.504220,-4
16:06:12.504220,-1
16:06:12.504220,0
16:06:12.504220,743
16:06:12.504220,10496
16:06:12.504220,4
16:06:12.504220,781
16:06:12.504220,-12800
16:06:12.504220,0
16:06:12.504220,-28
16:06:12.504220,-9217
16:06:12.504220,-1
16:06:12.504220,-111
16:06:12.504220,28927
16:06:12.504220,-1
16:06:12.504220,-120
16:06:12.504220,-31745
16:06:12.504220,-1
16:06:12.504220,-125
16:06:12.504220,-27393
16:06:12.504220,-1
16:06:12.504220,-108
16:06:12.504220,-26881
16:06:12.504220,-1
16:06:12.504220,-94
16:06:12.504220,-23809
16:06:12.504220,-1
16:06:12.504220,-87
16:06:12.504220,-18945
16:06:12.504220,-1
16:06:12.504220,-75
16:06:12.504220,-17153
16:06:12.504220,-1
16:06:12.504220,-59
16:06:12.504220,-13569
16:06:12.504220,-1
16:06:12.504220,-37
16:06:12.504220,-5633
16:06:12.504220,-1
16:06:12.504220,-18
16:06:12.504220,-3841
16:06:12.504220,-1
16:06:12.504220,-14
16:06:12.504220,-3841
16:06:12.504220,-1
16:06:12.504220,-21
16:06:12.504220,-3329
16:06:12.504220,-1
16:06:12.504220,-14
16:06:12.504220,-6913
16:06:12.504220,-1
16:06:12.504220,-23
16:06:12.504220,-2561
16:06:12.504220,-1
16:06:12.504220,-18
16:06:12.504220,-6401
16:06:12.504220,-1
16:06:12.504220,-21
16:06:12.504220,-3329
16:06:12.504220,-1
16:06:12.504220,-16
16:06:12.504220,-5633
16:06:12.504220,-1
16:06:12.504220,-21
16:06:12.504220,-2561
16:06:12.504220,-1
16:06:12.504220,-7
16:06:12.504220,-257
16:06:12.504220,-1
16:06:12.504220,2
16:06:12.504220,1024
16:06:12.504220,0
16:06:12.504220,7
16:06:12.504220,2816
16:06:12.504220,0
16:06:12.504220,16
16:06:12.504220,5376
16:06:12.504220,0
16:06:12.504220,18
16:06:12.504220,4096
16:06:12.504220,0
16:06:12.504220,21
16:06:12.504220,5376
16:06:12.504220,0
16:06:12.504220,14
16:06:12.504220,1792
16:06:12.504220,0
16:06:12.504220,4
16:06:12.504220,1792
16:06:12.504220,0
16:06:12.504220,11
16:06:12.504220,9472
16:06:12.504220,0
16:06:12.504220,66
16:06:13.089529,68
16:06:13.089529,16896
16:06:13.089529,0
16:06:13.089529,59
16:06:13.089529,8448
16:06:13.089529,0
16:06:13.089529,21
16:06:13.089529,10240
16:06:13.089529,0
16:06:13.089529,54
16:06:13.089529,13312
16:06:13.089529,0
16:06:13.089529,52
16:06:13.089529,12032
16:06:13.089529,0
16:06:13.089529,16
16:06:13.089529,-8960
16:06:13.089529,-1
16:06:13.089529,21
16:06:13.089529,26368
16:06:13.089529,1
16:06:13.089529,897
16:06:13.089529,-30720
16:06:13.089529,4
16:06:13.089529,764
16:06:13.089529,-23808
16:06:13.089529,0
16:06:13.089529,-30
16:06:13.089529,-7425
16:06:13.089529,-1
16:06:13.089529,-116
16:06:13.089529,28415
16:06:13.089529,-1
16:06:13.089529,-101
16:06:13.089529,-25089
16:06:13.089529,-1
16:06:13.089529,-113
16:06:13.089529,-24577
16:06:13.089529,-1
16:06:13.089529,-89
16:06:13.089529,-23297
16:06:13.089529,-1
16:06:13.089529,-85
16:06:13.089529,-19713
16:06:13.089529,-1
16:06:13.089529,-78
16:06:13.089529,-17153
16:06:13.089529,-1
16:06:13.089529,-61
16:06:13.089529,-15873
16:06:13.089529,-1
16:06:13.089529,-54
16:06:13.089529,-9217
16:06:13.089529,-1
16:06:13.089529,-26
16:06:13.089529,-3329
16:06:13.089529,-1
16:06:13.089529,-9
16:06:13.089529,-257
16:06:13.089529,-1
16:06:13.089529,7
16:06:13.089529,1024
16:06:13.089529,0
16:06:13.089529,-4
16:06:13.089529,-769
16:06:13.089529,-1
16:06:13.089529,7
16:06:13.089529,1024
16:06:13.089529,0
16:06:13.089529,-2
16:06:13.089529,255
16:06:13.089529,0
16:06:13.089529,2
16:06:13.089529,-512
16:06:13.089529,-1
16:06:13.089529,-4
16:06:13.089529,-769
16:06:13.089529,-1
16:06:13.089529,2
16:06:13.089529,512
16:06:13.089529,0
16:06:13.089529,-2
16:06:13.089529,767
16:06:13.089529,0
16:06:13.089529,18
16:06:13.089529,4096
16:06:13.089529,0
16:06:13.089529,7
16:06:13.089529,4096
16:06:13.089529,0
16:06:13.089529,28
16:06:13.089529,7680
16:06:13.089529,0
16:06:13.089529,30
16:06:13.089529,10240
16:06:13.089529,0
16:06:13.089529,44
16:06:13.089529,12032
16:06:13.089529,0
16:06:13.089529,42
16:06:13.089529,7168
16:06:13.089529,0
16:06:13.089529,33
16:06:13.089529,11264
16:06:13.089529,0
16:06:13.089529,30
16:06:13.089529,4608
16:06:13.089529,0
16:06:13.089529,26
16:06:13.629945,23
16:06:13.629945,10240
16:06:13.629945,0
16:06:13.629945,75
16:06:13.629945,22272
16:06:13.629945,0
16:06:13.629945,87
16:06:13.629945,17408
16:06:13.629945,0
16:06:13.629945,37
16:06:13.629945,8448
16:06:13.629945,0
16:06:13.629945,37
16:06:13.629945,12032
16:06:13.629945,0
16:06:13.629945,56
16:06:13.629945,13312
16:06:13.629945,0
16:06:13.629945,47
16:06:13.629945,8448
16:06:13.629945,0
16:06:13.629945,-16
16:06:13.629945,1279
16:06:13.629945,0
16:06:13.629945,277
16:06:13.629945,6400
16:06:13.629945,3
16:06:13.629945,1143
16:06:13.629945,22784
16:06:13.629945,3
16:06:13.629945,243
16:06:13.629945,-4608
16:06:13.629945,-1
16:06:13.629945,-26
16:06:13.629945,-24577
16:06:13.629945,-1
16:06:13.629945,-130
16:06:13.629945,-22529
16:06:13.629945,-1
16:06:13.629945,-89
16:06:13.629945,-26369
16:06:13.629945,-1
16:06:13.629945,-87
16:06:13.629945,-16641
16:06:13.629945,-1
16:06:13.629945,-73
16:06:13.629945,-20225
16:06:13.629945,-1
16:06:13.629945,-59
16:06:13.629945,-12289
16:06:13.629945,-1
16:06:13.629945,-56
16:06:13.629945,-13569
16:06:13.629945,-1
16:06:13.629945,-44
16:06:13.629945,-9985
16:06:13.629945,-1
16:06:13.629945,-28
16:06:13.629945,-2561
16:06:13.629945,-1
16:06:13.629945,-4
16:06:13.629945,1279
16:06:13.629945,0
16:06:13.629945,18
16:06:13.629945,3584
16:06:13.629945,0
16:06:13.629945,7
16:06:13.629945,4608
16:06:13.629945,0
16:06:13.629945,23
16:06:13.629945,3584
16:06:13.629945,0
16:06:13.629945,11
16:06:13.629945,4096
16:06:13.629945,0
16:06:13.629945,11
16:06:13.629945,2816
16:06:13.629945,0
16:06:13.629945,11
16:06:13.629945,2304
16:06:13.629945,0
16:06:13.629945,16
16:06:13.629945,5376
16:06:13.629945,0
16:06:13.629945,23
16:06:13.629945,7680
16:06:13.629945,0
16:06:13.629945,28
16:06:13.629945,5888
16:06:13.629945,0
16:06:13.629945,33
16:06:13.629945,9472
16:06:13.629945,0
16:06:13.629945,33
16:06:13.629945,8448
16:06:13.629945,0
16:06:13.629945,40
16:06:13.629945,12032
16:06:13.629945,0
16:06:13.629945,47
16:06:13.629945,12032
16:06:13.629945,0
16:06:13.629945,47
16:06:13.629945,12032
16:06:13.629945,0
16:06:13.629945,49
16:06:13.629945,11264
16:06:13.629945,0
16:06:13.629945,28
16:06:14.260202,26
16:06:14.260202,7680
16:06:14.260202,0
16:06:14.260202,28
16:06:14.260202,8960
16:06:14.260202,0
16:06:14.260202,63
16:06:14.260202,22272
16:06:14.260202,0
16:06:14.260202,101
16:06:14.260202,26624
16:06:14.260202,0
16:06:14.260202,85
16:06:14.260202,13824
16:06:14.260202,0
16:06:14.260202,49
16:06:14.260202,15616
16:06:14.260202,0
16:06:14.260202,49
16:06:14.260202,11264
16:06:14.260202,0
16:06:14.260202,49
16:06:14.260202,10240
16:06:14.260202,0
16:06:14.260202,4
16:06:14.260202,-7168
16:06:14.260202,-1
16:06:14.260202,94
16:06:14.260202,-2560
16:06:14.260202,1
16:06:14.260202,985
16:06:14.260202,2560
16:06:14.260202,4
16:06:14.260202,523
16:06:14.260202,15104
16:06:14.260202,0
16:06:14.260202,-30
16:06:14.260202,-13569
16:06:14.260202,-1
16:06:14.260202,-116
16:06:14.260202,-26369
16:06:14.260202,-1
16:06:14.260202,-78
16:06:14.260202,-23809
16:06:14.260202,-1
16:06:14.260202,-89
16:06:14.260202,-17921
16:06:14.260202,-1
16:06:14.260202,-78
16:06:14.260202,-20225
16:06:14.260202,-1
16:06:14.260202,-61
16:06:14.260202,-14081
16:06:14.260202,-1
16:06:14.260202,-61
16:06:14.260202,-14081
16:06:14.260202,-1
16:06:14.260202,-47
16:06:14.260202,-9217
16:06:14.260202,-1
16:06:14.260202,-35
16:06:14.260202,-5633
16:06:14.260202,-1
16:06:14.260202,-14
16:06:14.260202,-1537
16:06:14.260202,-1
16:06:14.260202,4
16:06:14.260202,2304
16:06:14.260202,0
16:06:14.260202,9
16:06:14.260202,2816
16:06:14.260202,0
16:06:14.260202,14
16:06:14.260202,2816
16:06:14.260202,0
16:06:14.260202,9
16:06:14.260202,3584
16:06:14.260202,0
16:06:14.260202,9
16:06:14.260202,1792
16:06:14.260202,0
16:06:14.260202,9
16:06:14.260202,512
16:06:14.260202,0
16:06:14.260202,-4
16:06:14.260202,767
16:06:14.260202,0
16:06:14.260202,2
16:06:14.260202,1792
16:06:14.260202,0
16:06:14.260202,14
16:06:14.260202,1792
16:06:14.260202,0
16:06:14.260202,4
16:06:14.260202,4096
16:06:14.260202,0
16:06:14.260202,16
16:06:14.260202,3584
16:06:14.260202,0
16:06:14.260202,16
16:06:14.260202,3584
16:06:14.260202,0
16:06:14.260202,18
16:06:14.260202,7168
16:06:14.260202,0
16:06:14.260202,28
16:06:14.260202,7680
16:06:14.260202,0
16:06:14.260202,30
16:06:14.753627,18
16:06:14.753627,2304
16:06:14.753627,0
16:06:14.753627,16
16:06:14.753627,3584
16:06:14.753627,0
16:06:14.753627,2
16:06:14.753627,2816
16:06:14.753627,0
16:06:14.753627,33
16:06:14.753627,13824
16:06:14.753627,0
16:06:14.753627,68
16:06:14.753627,16128
16:06:14.753627,0
16:06:14.753627,44
16:06:14.753627,7168
16:06:14.753627,0
16:06:14.753627,18
16:06:14.753627,4096
16:06:14.753627,0
16:06:14.753627,18
16:06:14.753627,6656
16:06:14.753627,0
16:06:14.753627,37
16:06:14.753627,10240
16:06:14.753627,0
16:06:14.753627,18
16:06:14.753627,-7680
16:06:14.753627,-1
16:06:14.753627,-18
16:06:14.753627,-3073
16:06:14.753627,0
16:06:14.753627,729
16:06:14.753627,7424
16:06:14.753627,4
16:06:14.753627,800
16:06:14.753627,-6912
16:06:14.753627,0
16:06:14.753627,-28
16:06:14.753627,-9217
16:06:14.753627,-1
16:06:14.753627,-108
16:06:14.753627,27647
16:06:14.753627,-1
16:06:14.753627,-116
16:06:14.753627,-28161
16:06:14.753627,-1
16:06:14.753627,-120
16:06:14.753627,-26881
16:06:14.753627,-1
16:06:14.753627,-99
16:06:14.753627,-25089
16:06:14.753627,-1
16:06:14.753627,-94
16:06:14.753627,-23297
16:06:14.753627,-1
16:06:14.753627,-80
16:06:14.753627,-17921
16:06:14.753627,-1
16:06:14.753627,-68
16:06:14.753627,-14849
16:06:14.753627,-1
16:06:14.753627,-47
16:06:14.753627,-9985
16:06:14.753627,-1
16:06:14.753627,-28
16:06:14.753627,-4353
16:06:14.753627,-1
16:06:14.753627,-14
16:06:14.753627,-769
16:06:14.753627,-1
16:06:14.753627,-4
16:06:14.753627,-3329
16:06:14.753627,-1
16:06:14.753627,-14
16:06:14.753627,-1537
16:06:14.753627,-1
16:06:14.753627,-11
16:06:14.753627,-5633
16:06:14.753627,-1
16:06:14.753627,-21
16:06:14.753627,-4353
16:06:14.753627,-1
16:06:14.753627,-23
16:06:14.753627,-6401
16:06:14.753627,-1
16:06:14.753627,-23
16:06:14.753627,-6401
16:06:14.753627,-1
16:06:14.753627,-26
16:06:14.753627,-6401
16:06:14.753627,-1
16:06:14.753627,-21
16:06:14.753627,-2049
16:06:14.753627,-1
16:06:14.753627,-7
16:06:14.753627,-2561
16:06:14.753627,-1
16:06:14.753627,-14
16:06:14.753627,-2049
16:06:14.753627,-1
16:06:14.753627,2
16:06:14.753627,1792
16:06:14.753627,0
16:06:14.753627,4
16:06:14.753627,1792
16:06:14.753627,0
16:06:14.753627,4
16:06:15.339206,2
16:06:15.339206,1792
16:06:15.339206,0
16:06:15.339206,7
16:06:15.339206,0
16:06:15.339206,0
16:06:15.339206,-2
16:06:15.339206,-2561
16:06:15.339206,-1
16:06:15.339206,-11
16:06:15.339206,6911
16:06:15.339206,0
16:06:15.339206,63
16:06:15.339206,17408
16:06:15.339206,0
16:06:15.339206,73
16:06:15.339206,18176
16:06:15.339206,0
16:06:15.339206,47
16:06:15.339206,6656
16:06:15.339206,0
16:06:15.339206,16
16:06:15.339206,3584
16:06:15.339206,0
16:06:15.339206,14
16:06:15.339206,2816
16:06:15.339206,0
16:06:15.339206,16
16:06:15.339206,3584
16:06:15.339206,0
16:06:15.339206,-26
16:06:15.339206,-15873
16:06:15.339206,-1
16:06:15.339206,66
16:06:15.339206,-13568
16:06:15.339206,1
16:06:15.339206,925
16:06:15.339206,-13824
16:06:15.339206,3
16:06:15.339206,464
16:06:15.339206,8448
16:06:15.339206,0
16:06:15.339206,-35
16:06:15.339206,-18433
16:06:15.339206,-1
16:06:15.339206,-142
16:06:15.339206,-32257
16:06:15.339206,-1
16:06:15.339206,-111
16:06:15.339206,-31233
16:06:15.339206,-1
16:06:15.339206,-108
16:06:15.339206,-23297
16:06:15.339206,-1
16:06:15.339206,-97
16:06:15.339206,-24577
16:06:15.339206,-1
16:06:15.339206,-82
16:06:15.339206,-17921
16:06:15.339206,-1
16:06:15.339206,-73
16:06:15.339206,-18945
16:06:15.339206,-1
16:06:15.339206,-63
16:06:15.339206,-11009
16:06:15.339206,-1
16:06:15.339206,-35
16:06:15.339206,-8193
16:06:15.339206,-1
16:06:15.339206,-23
16:06:15.339206,-1537
16:06:15.339206,-1
16:06:15.339206,0
16:06:15.339206,0
16:06:15.339206,0
16:06:15.339206,-4
16:06:15.339206,-3841
16:06:15.339206,-1
16:06:15.339206,-16
16:06:15.339206,255
16:06:15.339206,0
16:06:15.339206,0
16:06:15.339206,-4096
16:06:15.339206,-1
16:06:15.339206,-16
16:06:15.339206,-1537
16:06:15.339206,-1
16:06:15.339206,-14
16:06:15.339206,-6401
16:06:15.339206,-1
16:06:15.339206,-18
16:06:15.339206,-2049
16:06:15.339206,-1
16:06:15.339206,-16
16:06:15.339206,-5633
16:06:15.339206,-1
16:06:15.339206,-9
16:06:15.339206,1279
16:06:15.339206,0
16:06:15.339206,0
16:06:15.339206,1024
16:06:15.339206,0
16:06:15.339206,11
16:06:15.339206,1792
16:06:15.339206,0
16:06:15.339206,9
16:06:15.339206,6656
16:06:15.339206,0
16:06:15.339206,26
16:06:15.879739,21
16:06:15.879739,6656
16:06:15.879739,0
16:06:15.879739,26
16:06:15.879739,4096
16:06:15.879739,0
16:06:15.879739,14
16:06:15.879739,2816
16:06:15.879739,0
16:06:15.879739,0
16:06:15.879739,1024
16:06:15.879739,0
16:06:15.879739,35
16:06:15.879739,15616
16:06:15.879739,0
16:06:15.879739,92
16:06:15.879739,27648
16:06:15.879739,0
16:06:15.879739,85
16:06:15.879739,14336
16:06:15.879739,0
16:06:15.879739,44
16:06:15.879739,9472
16:06:15.879739,0
16:06:15.879739,35
16:06:15.879739,10240
16:06:15.879739,0
16:06:15.879739,40
16:06:15.879739,8960
16:06:15.879739,0
16:06:15.879739,23
16:06:15.879739,-5888
16:06:15.879739,-1
16:06:15.879739,-26
16:06:15.879739,-8961
16:06:15.879739,0
16:06:15.879739,729
16:06:15.879739,18944
16:06:15.879739,4
16:06:15.879739,873
16:06:15.879739,8192
16:06:15.879739,1
16:06:15.879739,-11
16:06:15.879739,-7425
16:06:15.879739,-1
16:06:15.879739,-80
16:06:15.879739,-30465
16:06:15.879739,-1
16:06:15.879739,-101
16:06:15.879739,-23297
16:06:15.879739,-1
16:06:15.879739,-99
16:06:15.879739,-23297
16:06:15.879739,-1
16:06:15.879739,-85
16:06:15.879739,-21505
16:06:15.879739,-1
16:06:15.879739,-80
16:06:15.879739,-16641
16:06:15.879739,-1
16:06:15.879739,-56
16:06:15.879739,-14081
16:06:15.879739,-1
16:06:15.879739,-56
16:06:15.879739,-13057
16:06:15.879739,-1
16:06:15.879739,-42
16:06:15.879739,-6401
16:06:15.879739,-1
16:06:15.879739,-16
16:06:15.879739,-3329
16:06:15.879739,-1
16:06:15.879739,-2
16:06:15.879739,2559
16:06:15.879739,0
16:06:15.879739,14
16:06:15.879739,2304
16:06:15.879739,0
16:06:15.879739,7
16:06:15.879739,2304
16:06:15.879739,0
16:06:15.879739,11
16:06:15.879739,1024
16:06:15.879739,0
16:06:15.879739,4
16:06:15.879739,1792
16:06:15.879739,0
16:06:15.879739,0
16:06:15.879739,0
16:06:15.879739,0
16:06:15.879739,4
16:06:15.879739,0
16:06:15.879739,0
16:06:15.879739,0
16:06:15.879739,1024
16:06:15.879739,0
16:06:15.879739,0
16:06:15.879739,1792
16:06:15.879739,0
16:06:15.879739,18
16:06:15.879739,1792
16:06:15.879739,0
16:06:15.879739,11
16:06:15.879739,7168
16:06:15.879739,0
16:06:15.879739,23
16:06:15.879739,4608
16:06:15.879739,0
16:06:15.879739,26
16:06:16.418880,28
16:06:16.418880,7168
16:06:16.418880,0
16:06:16.418880,28
16:06:16.418880,6656
16:06:16.418880,0
16:06:16.418880,21
16:06:16.418880,4096
16:06:16.418880,0
16:06:16.418880,18
16:06:16.418880,10240
16:06:16.418880,0
16:06:16.418880,89
16:06:16.418880,27648
16:06:16.418880,0
16:06:16.418880,94
16:06:16.418880,24064
16:06:16.418880,0
16:06:16.418880,80
16:06:16.418880,13312
16:06:16.418880,0
16:06:16.418880,47
16:06:16.418880,12032
16:06:16.418880,0
16:06:16.418880,47
16:06:16.418880,12032
16:06:16.418880,0
16:06:16.418880,47
16:06:16.418880,10752
16:06:16.418880,0
16:06:16.418880,18
16:06:16.418880,-7168
16:06:16.418880,-1
16:06:16.418880,47
16:06:16.418880,-26368
16:06:16.418880,1
16:06:16.418880,923
16:06:16.418880,18432
16:06:16.418880,4
16:06:16.418880,646
16:06:16.418880,25344
16:06:16.418880,0
16:06:16.418880,-40
16:06:16.418880,-11009
16:06:16.418880,-1
16:06:16.418880,-125
16:06:16.418880,30719
16:06:16.418880,-1
16:06:16.418880,-106
16:06:16.418880,-28673
16:06:16.418880,-1
16:06:16.418880,-113
16:06:16.418880,-24577
16:06:16.418880,-1
16:06:16.418880,-99
16:06:16.418880,-26369
16:06:16.418880,-1
16:06:16.418880,-92
16:06:16.418880,-21505
16:06:16.418880,-1
16:06:16.418880,-85
16:06:16.418880,-20225
16:06:16.418880,-1
16:06:16.418880,-73
16:06:16.418880,-16641
16:06:16.418880,-1
16:06:16.418880,-61
16:06:16.418880,-13057
16:06:16.418880,-1
16:06:16.418880,-35
16:06:16.418880,-5633
16:06:16.418880,-1
16:06:16.418880,-21
16:06:16.418880,-4353
16:06:16.418880,-1
16:06:16.418880,-23
16:06:16.418880,-7425
16:06:16.418880,-1
16:06:16.418880,-28
16:06:16.418880,-5633
16:06:16.418880,-1
16:06:16.418880,-21
16:06:16.418880,-5121
16:06:16.418880,-1
16:06:16.418880,-28
16:06:16.418880,-9985
16:06:16.418880,-1
16:06:16.418880,-40
16:06:16.418880,-8705
16:06:16.418880,-1
16:06:16.418880,-30
16:06:16.418880,-7425
16:06:16.418880,-1
16:06:16.418880,-35
16:06:16.418880,-9217
16:06:16.418880,-1
16:06:16.418880,-33
16:06:16.418880,-8193
16:06:16.418880,-1
16:06:16.418880,-33
16:06:16.418880,-6401
16:06:16.418880,-1
16:06:16.418880,-21
16:06:16.418880,-4353
16:06:16.418880,-1
16:06:16.418880,-21
16:06:16.418880,-5633
16:06:16.418880,-1
16:06:16.418880,-16
16:06:17.003953,-23
16:06:17.003953,-8193
16:06:17.003953,-1
16:06:17.003953,-23
16:06:17.003953,-5121
16:06:17.003953,-1
16:06:17.003953,-28
16:06:17.003953,1279
16:06:17.003953,0
16:06:17.003953,56
16:06:17.003953,19200
16:06:17.003953,0
16:06:17.003953,68
16:06:17.003953,16128
16:06:17.003953,0
16:06:17.003953,49
16:06:17.003953,6656
16:06:17.003953,0
16:06:17.003953,9
16:06:17.003953,3584
16:06:17.003953,0
16:06:17.003953,14
16:06:17.003953,1792
16:06:17.003953,0
16:06:17.003953,14
16:06:17.003953,2816
16:06:17.003953,0
16:06:17.003953,-30
16:06:17.003953,-14849
16:06:17.003953,-1
16:06:17.003953,71
16:06:17.003953,-14080
16:06:17.003953,1
16:06:17.003953,925
16:06:17.003953,-14848
16:06:17.003953,3
16:06:17.003953,438
16:06:17.003953,4608
16:06:17.003953,0
16:06:17.003953,-23
16:06:17.003953,-18945
16:06:17.003953,-1
16:06:17.003953,-165
16:06:17.003953,28927
16:06:17.003953,-1
16:06:17.003953,-125
16:06:17.003953,28415
16:06:17.003953,-1
16:06:17.003953,-137
16:06:17.003953,-29953
16:06:17.003953,-1
16:06:17.003953,-123
16:06:17.003953,-30465
16:06:17.003953,-1
16:06:17.003953,-104
16:06:17.003953,-22017
16:06:17.003953,-1
16:06:17.003953,-97
16:06:17.003953,-25601
16:06:17.003953,-1
16:06:17.003953,-71
16:06:17.003953,-14081
16:06:17.003953,-1
16:06:17.003953,-68
16:06:17.003953,-14849
16:06:17.003953,-1
16:06:17.003953,-35
16:06:17.003953,-7425
16:06:17.003953,-1
16:06:17.003953,-23
16:06:17.003953,-4353
16:06:17.003953,-1
16:06:17.003953,-33
16:06:17.003953,-9985
16:06:17.003953,-1
16:06:17.003953,-35
16:06:17.003953,-8193
16:06:17.003953,-1
16:06:17.003953,-35
16:06:17.003953,-8193
16:06:17.003953,-1
16:06:17.003953,-30
16:06:17.003953,-10497
16:06:17.003953,-1
16:06:17.003953,-47
16:06:17.003953,-9217
16:06:17.003953,-1
16:06:17.003953,-35
16:06:17.003953,-9985
16:06:17.003953,-1
16:06:17.003953,-40
16:06:17.003953,-8705
16:06:17.003953,-1
16:06:17.003953,-28
16:06:17.003953,-5633
16:06:17.003953,-1
16:06:17.003953,-21
16:06:17.003953,-6401
16:06:17.003953,-1
16:06:17.003953,-23
16:06:17.003953,-769
16:06:17.003953,-1
16:06:17.003953,0
16:06:17.003953,-2304
16:06:17.003953,-1
16:06:17.003953,-7
16:06:17.003953,-257
16:06:17.003953,-1
16:06:17.003953,-11
16:06:17.589844,-18
16:06:17.589844,-2561
16:06:17.589844,-1
16:06:17.589844,2
16:06:17.589844,8960
16:06:17.589844,0
16:06:17.589844,66
16:06:17.589844,15616
16:06:17.589844,0
16:06:17.589844,40
16:06:17.589844,7680
16:06:17.589844,0
16:06:17.589844,37
16:06:17.589844,9472
16:06:17.589844,0
16:06:17.589844,33
16:06:17.589844,8448
16:06:17.589844,0
16:06:17.589844,26
16:06:17.589844,4608
16:06:17.589844,0
16:06:17.589844,9
16:06:17.589844,-7680
16:06:17.589844,-1
16:06:17.589844,-26
16:06:17.589844,-8449
16:06:17.589844,0
16:06:17.589844,727
16:06:17.589844,18432
16:06:17.589844,4
16:06:17.589844,840
16:06:17.589844,-3840
16:06:17.589844,0
16:06:17.589844,-11
16:06:17.589844,-3841
16:06:17.589844,-1
16:06:17.589844,-106
16:06:17.589844,27647
16:06:17.589844,-1
16:06:17.589844,-111
16:06:17.589844,-27393
16:06:17.589844,-1
16:06:17.589844,-118
16:06:17.589844,-26881
16:06:17.589844,-1
16:06:17.589844,-99
16:06:17.589844,-23809
16:06:17.589844,-1
16:06:17.589844,-82
16:06:17.589844,-17921
16:06:17.589844,-1
16:06:17.589844,-71
16:06:17.589844,-17921
16:06:17.589844,-1
16:06:17.589844,-68
16:06:17.589844,-15361
16:06:17.589844,-1
16:06:17.589844,-49
16:06:17.589844,-7425
16:06:17.589844,-1
16:06:17.589844,-26
16:06:17.589844,-5121
16:06:17.589844,-1
16:06:17.589844,-9
16:06:17.589844,-257
16:06:17.589844,-1
16:06:17.589844,-4
16:06:17.589844,-2561
16:06:17.589844,-1
16:06:17.589844,-11
16:06:17.589844,-1537
16:06:17.589844,-1
16:06:17.589844,-4
16:06:17.589844,-2561
16:06:17.589844,-1
16:06:17.589844,-16
16:06:17.589844,-2561
16:06:17.589844,-1
16:06:17.589844,-9
16:06:17.589844,-2561
16:06:17.589844,-1
16:06:17.589844,-16
16:06:17.589844,-3841
16:06:17.589844,-1
16:06:17.589844,-11
16:06:17.589844,-1537
16:06:17.589844,-1
16:06:17.589844,-7
16:06:17.589844,-1537
16:06:17.589844,-1
16:06:17.589844,-2
16:06:17.589844,767
16:06:17.589844,0
16:06:17.589844,9
16:06:17.589844,2304
16:06:17.589844,0
16:06:17.589844,7
16:06:17.589844,2816
16:06:17.589844,0
16:06:17.589844,7
16:06:17.589844,512
16:06:17.589844,0
16:06:17.589844,7
16:06:17.589844,4608
16:06:17.589844,0
16:06:17.589844,47
16:06:17.589844,19968
16:06:17.589844,0
16:06:17.589844,78
16:06:18.129219,59
16:06:18.129219,12032
16:06:18.129219,0
16:06:18.129219,37
16:06:18.129219,7168
16:06:18.129219,0
16:06:18.129219,26
16:06:18.129219,7168
16:06:18.129219,0
16:06:18.129219,26
16:06:18.129219,4608
16:06:18.129219,0
16:06:18.129219,11
16:06:18.129219,-512
16:06:18.129219,-1
16:06:18.129219,-33
16:06:18.129219,16383
16:06:18.129219,0
16:06:18.129219,464
16:06:18.129219,-7680
16:06:18.129219,3
16:06:18.129219,1124
16:06:18.129219,28160
16:06:18.129219,2
16:06:18.129219,106
16:06:18.129219,512
16:06:18.129219,0
16:06:18.129219,-30
16:06:18.129219,-29953
16:06:18.129219,-1
16:06:18.129219,-104
16:06:18.129219,-18433
16:06:18.129219,-1
16:06:18.129219,-94
16:06:18.129219,-22017
16:06:18.129219,-1
16:06:18.129219,-66
16:06:18.129219,-17153
16:06:18.129219,-1
16:06:18.129219,-73
16:06:18.129219,-15873
16:06:18.129219,-1
16:06:18.129219,-54
16:06:18.129219,-13569
16:06:18.129219,-1
16:06:18.129219,-56
16:06:18.129219,-11009
16:06:18.129219,-1
16:06:18.129219,-33
16:06:18.129219,-6401
16:06:18.129219,-1
16:06:18.129219,-14
16:06:18.129219,255
16:06:18.129219,0
16:06:18.129219,9
16:06:18.129219,1792
16:06:18.129219,0
16:06:18.129219,9
16:06:18.129219,4608
16:06:18.129219,0
16:06:18.129219,23
16:06:18.129219,3584
16:06:18.129219,0
16:06:18.129219,7
16:06:18.129219,4096
16:06:18.129219,0
16:06:18.129219,23
16:06:18.129219,3584
16:06:18.129219,0
16:06:18.129219,9
16:06:18.129219,2304
16:06:18.129219,0
16:06:18.129219,11
16:06:18.129219,2816
16:06:18.129219,0
16:06:18.129219,9
16:06:18.129219,2816
16:06:18.129219,0
16:06:18.129219,11
16:06:18.129219,4096
16:06:18.129219,0
16:06:18.129219,23
16:06:18.129219,5888
16:06:18.129219,0
16:06:18.129219,23
16:06:18.129219,8448
16:06:18.129219,0
16:06:18.129219,35
16:06:18.129219,6656
16:06:18.129219,0
16:06:18.129219,26
16:06:18.129219,9472
16:06:18.129219,0
16:06:18.129219,35
16:06:18.129219,6656
16:06:18.129219,0
16:06:18.129219,42
16:06:18.129219,20992
16:06:18.129219,0
16:06:18.129219,97
16:06:18.129219,22272
16:06:18.129219,0
16:06:18.129219,73
16:06:18.129219,15104
16:06:18.129219,0
16:06:18.129219,52
16:06:18.129219,10752
16:06:18.129219,0
16:06:18.129219,35
16:06:18.714412,33
16:06:18.714412,7168
16:06:18.714412,0
16:06:18.714412,35
16:06:18.714412,7680
16:06:18.714412,0
16:06:18.714412,-18
16:06:18.714412,-11009
16:06:18.714412,-1
16:06:18.714412,134
16:06:18.714412,22272
16:06:18.714412,2
16:06:18.714412,1096
16:06:18.714412,14080
16:06:18.714412,4
16:06:18.714412,492
16:06:18.714412,12544
16:06:18.714412,0
16:06:18.714412,-2
16:06:18.714412,-8705
16:06:18.714412,-1
16:06:18.714412,-89
16:06:18.714412,-18433
16:06:18.714412,-1
16:06:18.714412,-63
16:06:18.714412,-17921
16:06:18.714412,-1
16:06:18.714412,-63
16:06:18.714412,-14849
16:06:18.714412,-1
16:06:18.714412,-52
16:06:18.714412,-11777
16:06:18.714412,-1
16:06:18.714412,-49
16:06:18.714412,-10497
16:06:18.714412,-1
16:06:18.714412,-33
16:06:18.714412,-5633
16:06:18.714412,-1
16:06:18.714412,-18
16:06:18.714412,-5121
16:06:18.714412,-1
16:06:18.714412,-18
16:06:18.714412,767
16:06:18.714412,0
16:06:18.714412,14
16:06:18.714412,4096
16:06:18.714412,0
16:06:18.714412,30
16:06:18.714412,8448
16:06:18.714412,0
16:06:18.714412,26
16:06:18.714412,7680
16:06:18.714412,0
16:06:18.714412,33
16:06:18.714412,7680
16:06:18.714412,0
16:06:18.714412,23
16:06:18.714412,4608
16:06:18.714412,0
16:06:18.714412,21
16:06:18.714412,3584
16:06:18.714412,0
16:06:18.714412,9
16:06:18.714412,2304
16:06:18.714412,0
16:06:18.714412,16
16:06:18.714412,4608
16:06:18.714412,0
16:06:18.714412,11
16:06:18.714412,3584
16:06:18.714412,0
16:06:18.714412,26
16:06:18.714412,7168
16:06:18.714412,0
16:06:18.714412,11
16:06:18.714412,3584
16:06:18.714412,0
16:06:18.714412,30
16:06:18.714412,7680
16:06:18.714412,0
16:06:18.714412,26
16:06:18.714412,7168
16:06:18.714412,0
16:06:18.714412,26
16:06:18.714412,5888
16:06:18.714412,0
16:06:18.714412,14
16:06:18.714412,1024
16:06:18.714412,0
16:06:18.714412,30
16:06:18.714412,18176
16:06:18.714412,0
16:06:18.714412,82
16:06:18.714412,18688
16:06:18.714412,0
16:06:18.714412,63
16:06:18.714412,13312
16:06:18.714412,0
16:06:18.714412,35
16:06:18.714412,5888
16:06:18.714412,0
16:06:18.714412,18
16:06:18.714412,4096
16:06:18.714412,0
16:06:18.714412,16
16:06:18.714412,2816
16:06:18.714412,0
16:06:18.714412,9
16:06:19.253564,-18
16:06:19.253564,-12289
16:06:19.253564,-1
16:06:19.253564,73
16:06:19.253564,-7424
16:06:19.253564,1
16:06:19.253564,982
16:06:19.253564,1536
16:06:19.253564,4
16:06:19.253564,497
16:06:19.253564,10752
16:06:19.253564,0
16:06:19.253564,-30
16:06:19.253564,-17921
16:06:19.253564,-1
16:06:19.253564,-137
16:06:19.253564,-26881
16:06:19.253564,-1
16:06:19.253564,-75
16:06:19.253564,-22529
16:06:19.253564,-1
16:06:19.253564,-87
16:06:19.253564,-18433
16:06:19.253564,-1
16:06:19.253564,-71
16:06:19.253564,-14081
16:06:19.253564,-1
16:06:19.253564,-47
16:06:19.253564,-11777
16:06:19.253564,-1
16:06:19.253564,-37
16:06:19.253564,-8705
16:06:19.253564,-1
16:06:19.253564,-35
16:06:19.253564,-6401
16:06:19.253564,-1
16:06:19.253564,-16
16:06:19.253564,-1537
16:06:19.253564,-1
16:06:19.253564,4
16:06:19.253564,3584
16:06:19.253564,0
16:06:19.253564,21
16:06:19.253564,7168
16:06:19.253564,0
16:06:19.253564,30
16:06:19.253564,5888
16:06:19.253564,0
16:06:19.253564,11
16:06:19.253564,6656
16:06:19.253564,0
16:06:19.253564,37
16:06:19.253564,4096
16:06:19.253564,0
16:06:19.253564,9
16:06:19.253564,5888
16:06:19.253564,0
16:06:19.253564,16
16:06:19.253564,1024
16:06:19.253564,0
16:06:19.253564,9
16:06:19.253564,2816
16:06:19.253564,0
16:06:19.253564,18
16:06:19.253564,6656
16:06:19.253564,0
16:06:19.253564,14
16:06:19.253564,4096
16:06:19.253564,0
16:06:19.253564,28
16:06:19.253564,6656
16:06:19.253564,0
16:06:19.253564,21
16:06:19.253564,7680
16:06:19.253564,0
16:06:19.253564,37
16:06:19.253564,6656
16:06:19.253564,0
16:06:19.253564,23
16:06:19.253564,9472
16:06:19.253564,0
16:06:19.253564,26
16:06:19.253564,1024
16:06:19.253564,0
16:06:19.253564,11
16:06:19.253564,4096
16:06:19.253564,0
16:06:19.253564,9
16:06:19.253564,12032
16:06:19.253564,0
16:06:19.253564,82
16:06:19.253564,19200
16:06:19.253564,0
16:06:19.253564,61
16:06:19.253564,12544
16:06:19.253564,0
16:06:19.253564,30
16:06:19.253564,5888
16:06:19.253564,0
16:06:19.253564,21
16:06:19.253564,4096
16:06:19.253564,0
16:06:19.253564,16
16:06:19.253564,5376
16:06:19.253564,0
16:06:19.253564,16
16:06:19.253564,-512
16:06:19.253564,-1
16:06:19.253564,-49
16:06:19.927381,0
16:06:19.927381,21760
16:06:19.927381,1
16:06:19.927381,864
16:06:19.927381,15360
16:06:19.927381,4
16:06:19.927381,696
16:06:19.927381,-28672
16:06:19.927381,0
16:06:19.927381,-52
16:06:19.927381,-17921
16:06:19.927381,-1
16:06:19.927381,-118
16:06:19.927381,-28161
16:06:19.927381,-1
16:06:19.927381,-80
16:06:19.927381,-23297
16:06:19.927381,-1
16:06:19.927381,-87
16:06:19.927381,-18945
16:06:19.927381,-1
16:06:19.927381,-78
16:06:19.927381,-17153
16:06:19.927381,-1
16:06:19.927381,-56
16:06:19.927381,-13057
16:06:19.927381,-1
16:06:19.927381,-52
16:06:19.927381,-11009
16:06:19.927381,-1
16:06:19.927381,-33
16:06:19.927381,-7425
16:06:19.927381,-1
16:06:19.927381,-28
16:06:19.927381,-2561
16:06:19.927381,-1
16:06:19.927381,-4
16:06:19.927381,-769
16:06:19.927381,-1
16:06:19.927381,18
16:06:19.927381,8960
16:06:19.927381,0
16:06:19.927381,18
16:06:19.927381,2304
16:06:19.927381,0
16:06:19.927381,26
16:06:19.927381,8448
16:06:19.927381,0
16:06:19.927381,23
16:06:19.927381,3584
16:06:19.927381,0
16:06:19.927381,16
16:06:19.927381,4096
16:06:19.927381,0
16:06:19.927381,2
16:06:19.927381,-512
16:06:19.927381,-1
16:06:19.927381,4
16:06:19.927381,2816
16:06:19.927381,0
16:06:19.927381,23
16:06:19.927381,5888
16:06:19.927381,0
16:06:19.927381,0
16:06:19.927381,1792
16:06:19.927381,0
16:06:19.927381,26
16:06:19.927381,4608
16:06:19.927381,0
16:06:19.927381,9
16:06:19.927381,3584
16:06:19.927381,0
16:06:19.927381,11
16:06:19.927381,3584
16:06:19.927381,0
16:06:19.927381,21
16:06:19.927381,2816
16:06:19.927381,0
16:06:19.927381,4
16:06:19.927381,2304
16:06:19.927381,0
16:06:19.927381,9
16:06:19.927381,1024
16:06:19.927381,0
16:06:19.927381,-9
16:06:19.927381,-6913
16:06:19.927381,-1
16:06:19.927381,-9
16:06:19.927381,6911
16:06:19.927381,0
16:06:19.927381,35
16:06:19.927381,10752
16:06:19.927381,0
16:06:19.927381,56
16:06:19.927381,11264
16:06:19.927381,0
16:06:19.927381,7
16:06:19.927381,-2304
16:06:19.927381,-1
16:06:19.927381,0
16:06:19.927381,-1024
16:06:19.927381,-1
16:06:19.927381,-21
16:06:19.927381,-5633
16:06:19.927381,-1
16:06:19.927381,-9
16:06:19.927381,-4353
16:06:19.927381,-1
16:06:19.927381,-75
16:06:20.334334,-78
16:06:20.334334,-31489
16:06:20.334334,0
16:06:20.334334,584
16:06:20.334334,-7168
16:06:20.334334,3
16:06:20.334334,864
16:06:20.334334,8192
16:06:20.334334,1
16:06:20.334334,-26
16:06:20.334334,-13057
16:06:20.334334,-1
16:06:20.334334,-130
16:06:20.334334,20479
16:06:20.334334,-1
16:06:20.334334,-139
16:06:20.334334,31999
16:06:20.334334,-1
16:06:20.334334,-151
16:06:20.334334,30719
16:06:20.334334,-1
16:06:20.334334,-127
16:06:20.334334,-31745
16:06:20.334334,-1
16:06:20.334334,-108
16:06:20.334334,-25089
16:06:20.334334,-1
16:06:20.334334,-101
16:06:20.334334,-22529
16:06:20.334334,-1
16:06:20.334334,-85
16:06:20.334334,-20737
16:06:20.334334,-1
16:06:20.334334,-66
16:06:20.334334,-12289
16:06:20.334334,-1
16:06:20.334334,-28
16:06:20.334334,-3329
16:06:20.334334,-1
16:06:20.334334,-11
16:06:20.334334,-769
16:06:20.334334,-1
16:06:20.334334,-9
16:06:20.334334,-6401
16:06:20.334334,-1
16:06:20.334334,-18
16:06:20.334334,-257
16:06:20.334334,-1
16:06:20.334334,-9
16:06:20.334334,-5121
16:06:20.334334,-1
16:06:20.334334,-9
16:06:20.334334,-257
16:06:20.334334,-1
16:06:20.334334,-16
16:06:20.334334,-6401
16:06:20.334334,-1
16:06:20.334334,-18
16:06:20.334334,-5121
16:06:20.334334,-1
16:06:20.334334,-28
16:06:20.334334,-5633
16:06:20.334334,-1
16:06:20.334334,-21
16:06:20.334334,-5633
16:06:20.334334,-1
16:06:20.334334,-16
16:06:20.334334,-2561
16:06:20.334334,-1
16:06:20.334334,-9
16:06:20.334334,-1537
16:06:20.334334,-1
16:06:20.334334,-11
16:06:20.334334,-2049
16:06:20.334334,-1
16:06:20.334334,2
16:06:20.334334,2304
16:06:20.334334,0
16:06:20.334334,0
16:06:20.334334,-1024
16:06:20.334334,-1
16:06:20.334334,0
16:06:20.334334,-2304
16:06:20.334334,-1
16:06:20.334334,-30
16:06:20.334334,-7425
16:06:20.334334,-1
16:06:20.334334,-16
16:06:20.334334,767
16:06:20.334334,0
16:06:20.334334,18
16:06:20.334334,7680
16:06:20.334334,0
16:06:20.334334,44
16:06:20.334334,8448
16:06:20.334334,0
16:06:20.334334,7
16:06:20.334334,1792
16:06:20.334334,0
16:06:20.334334,0
16:06:20.334334,-3584
16:06:20.334334,-1
16:06:20.334334,-11
16:06:20.334334,-1537
16:06:20.334334,-1
16:06:20.334334,-2
16:06:20.334334,-1537
16:06:20.334334,-1
16:06:20.334334,-52
16:06:20.963740,-80
16:06:20.963740,17663
16:06:20.963740,0
16:06:20.963740,478
16:06:20.963740,-13824
16:06:20.963740,3
16:06:20.963740,996
16:06:20.963740,-18944
16:06:20.963740,1
16:06:20.963740,26
16:06:20.963740,-1024
16:06:20.963740,-1
16:06:20.963740,-54
16:06:20.963740,31487
16:06:20.963740,-1
16:06:20.963740,-118
16:06:20.963740,-25601
16:06:20.963740,-1
16:06:20.963740,-116
16:06:20.963740,-26881
16:06:20.963740,-1
16:06:20.963740,-94
16:06:20.963740,-24577
16:06:20.963740,-1
16:06:20.963740,-80
16:06:20.963740,-16641
16:06:20.963740,-1
16:06:20.963740,-68
16:06:20.963740,-15361
16:06:20.963740,-1
16:06:20.963740,-54
16:06:20.963740,-10497
16:06:20.963740,-1
16:06:20.963740,-30
16:06:20.963740,-8193
16:06:20.963740,-1
16:06:20.963740,-30
16:06:20.963740,-257
16:06:20.963740,-1
16:06:20.963740,23
16:06:20.963740,5888
16:06:20.963740,0
16:06:20.963740,21
16:06:20.963740,5376
16:06:20.963740,0
16:06:20.963740,9
16:06:20.963740,2304
16:06:20.963740,0
16:06:20.963740,16
16:06:20.963740,4608
16:06:20.963740,0
16:06:20.963740,18
16:06:20.963740,2816
16:06:20.963740,0
16:06:20.963740,9
16:06:20.963740,1024
16:06:20.963740,0
16:06:20.963740,2
16:06:20.963740,4608
16:06:20.963740,0
16:06:20.963740,16
16:06:20.963740,512
16:06:20.963740,0
16:06:20.963740,26
16:06:20.963740,10752
16:06:20.963740,0
16:06:20.963740,16
16:06:20.963740,2816
16:06:20.963740,0
16:06:20.963740,40
16:06:20.963740,12032
16:06:20.963740,0
16:06:20.963740,37
16:06:20.963740,12032
16:06:20.963740,0
16:06:20.963740,54
16:06:20.963740,11264
16:06:20.963740,0
16:06:20.963740,44
16:06:20.963740,13824
16:06:20.963740,0
16:06:20.963740,30
16:06:20.963740,4096
16:06:20.963740,0
16:06:20.963740,35
16:06:20.963740,8960
16:06:20.963740,0
16:06:20.963740,21
16:06:20.963740,3584
16:06:20.963740,0
16:06:20.963740,11
16:06:20.963740,12544
16:06:20.963740,0
16:06:20.963740,82
16:06:20.963740,20480
16:06:20.963740,0
16:06:20.963740,68
16:06:20.963740,14336
16:06:20.963740,0
16:06:20.963740,37
16:06:20.963740,6656
16:06:20.963740,0
16:06:20.963740,23
16:06:20.963740,5376
16:06:20.963740,0
16:06:20.963740,14
16:06:20.963740,4096
16:06:20.963740,0
16:06:20.963740,33
16:06:21.503564,9
16:06:21.503564,-13312
16:06:21.503564,-1
16:06:21.503564,26
16:06:21.503564,-25088
16:06:21.503564,1
16:06:21.503564,966
16:06:21.503564,27392
16:06:21.503564,4
16:06:21.503564,655
16:06:21.503564,28416
16:06:21.503564,0
16:06:21.503564,-30
16:06:21.503564,-12289
16:06:21.503564,-1
16:06:21.503564,-125
16:06:21.503564,32511
16:06:21.503564,-1
16:06:21.503564,-89
16:06:21.503564,-19713
16:06:21.503564,-1
16:06:21.503564,-80
16:06:21.503564,-18433
16:06:21.503564,-1
16:06:21.503564,-56
16:06:21.503564,-13057
16:06:21.503564,-1
16:06:21.503564,-49
16:06:21.503564,-8705
16:06:21.503564,-1
16:06:21.503564,-35
16:06:21.503564,-11009
16:06:21.503564,-1
16:06:21.503564,-30
16:06:21.503564,-4353
16:06:21.503564,-1
16:06:21.503564,-18
16:06:21.503564,-2049
16:06:21.503564,-1
16:06:21.503564,7
16:06:21.503564,4608
16:06:21.503564,0
16:06:21.503564,26
16:06:21.503564,5888
16:06:21.503564,0
16:06:21.503564,21
16:06:21.503564,7168
16:06:21.503564,0
16:06:21.503564,30
16:06:21.503564,10240
16:06:21.503564,0
16:06:21.503564,42
16:06:21.503564,7168
16:06:21.503564,0
16:06:21.503564,28
16:06:21.503564,6656
16:06:21.503564,0
16:06:21.503564,14
16:06:21.503564,4096
16:06:21.503564,0
16:06:21.503564,23
16:06:21.503564,6656
16:06:21.503564,0
16:06:21.503564,18
16:06:21.503564,2816
16:06:21.503564,0
16:06:21.503564,33
16:06:21.503564,10752
16:06:21.503564,0
16:06:21.503564,9
16:06:21.503564,1792
16:06:21.503564,0
16:06:21.503564,37
16:06:21.503564,8448
16:06:21.503564,0
16:06:21.503564,18
16:06:21.503564,8448
16:06:21.503564,0
16:06:21.503564,37
16:06:21.503564,7680
16:06:21.503564,0
16:06:21.503564,35
16:06:21.503564,11264
16:06:21.503564,0
16:06:21.503564,40
16:06:21.503564,7168
16:06:21.503564,0
16:06:21.503564,23
16:06:21.503564,5888
16:06:21.503564,0
16:06:21.503564,18
16:06:21.503564,3584
16:06:21.503564,0
16:06:21.503564,14
16:06:21.503564,6656
16:06:21.503564,0
16:06:21.503564,63
16:06:21.503564,23552
16:06:21.503564,0
16:06:21.503564,87
16:06:21.503564,16896
16:06:21.503564,0
16:06:21.503564,44
16:06:21.503564,10240
16:06:21.503564,0
16:06:21.503564,35
16:06:21.503564,6656
16:06:21.503564,0
16:06:21.503564,28
16:06:22.044245,35
16:06:22.044245,7680
16:06:22.044245,0
16:06:22.044245,18
16:06:22.044245,-4096
16:06:22.044245,-1
16:06:22.044245,-49
16:06:22.044245,18431
16:06:22.044245,0
16:06:22.044245,483
16:06:22.044245,-3328
16:06:22.044245,3
16:06:22.044245,1103
16:06:22.044245,18432
16:06:22.044245,2
16:06:22.044245,94
16:06:22.044245,-1792
16:06:22.044245,-1
16:06:22.044245,-33
16:06:22.044245,-24577
16:06:22.044245,-1
16:06:22.044245,-92
16:06:22.044245,-17921
16:06:22.044245,-1
16:06:22.044245,-82
16:06:22.044245,-20737
16:06:22.044245,-1
16:06:22.044245,-73
16:06:22.044245,-16641
16:06:22.044245,-1
16:06:22.044245,-61
16:06:22.044245,-13569
16:06:22.044245,-1
16:06:22.044245,-44
16:06:22.044245,-10497
16:06:22.044245,-1
16:06:22.044245,-40
16:06:22.044245,-8193
16:06:22.044245,-1
16:06:22.044245,-30
16:06:22.044245,-6401
16:06:22.044245,-1
16:06:22.044245,-14
16:06:22.044245,-257
16:06:22.044245,-1
16:06:22.044245,7
16:06:22.044245,4096
16:06:22.044245,0
16:06:22.044245,23
16:06:22.044245,5888
16:06:22.044245,0
16:06:22.044245,26
16:06:22.044245,6656
16:06:22.044245,0
16:06:22.044245,26
16:06:22.044245,7168
16:06:22.044245,0
16:06:22.044245,23
16:06:22.044245,2304
16:06:22.044245,0
16:06:22.044245,7
16:06:22.044245,2816
16:06:22.044245,0
16:06:22.044245,7
16:06:22.044245,1024
16:06:22.044245,0
16:06:22.044245,7
16:06:22.044245,2816
16:06:22.044245,0
16:06:22.044245,18
16:06:22.044245,5376
16:06:22.044245,0
16:06:22.044245,16
16:06:22.044245,3584
16:06:22.044245,0
16:06:22.044245,14
16:06:22.044245,4608
16:06:22.044245,0
16:06:22.044245,16
16:06:22.044245,4096
16:06:22.044245,0
16:06:22.044245,14
16:06:22.044245,4096
16:06:22.044245,0
16:06:22.044245,37
16:06:22.044245,11264
16:06:22.044245,0
16:06:22.044245,23
16:06:22.044245,3584
16:06:22.044245,0
16:06:22.044245,30
16:06:22.044245,7680
16:06:22.044245,0
16:06:22.044245,14
16:06:22.044245,3584
16:06:22.044245,0
16:06:22.044245,7
16:06:22.044245,-1792
16:06:22.044245,-1
16:06:22.044245,9
16:06:22.044245,10752
16:06:22.044245,0
16:06:22.044245,68
16:06:22.044245,18176
16:06:22.044245,0
16:06:22.044245,56
16:06:22.044245,13312
16:06:22.044245,0
16:06:22.044245,42
16:06:22.629160,23
16:06:22.629160,4608
16:06:22.629160,0
16:06:22.629160,23
16:06:22.629160,5376
16:06:22.629160,0
16:06:22.629160,33
16:06:22.629160,10240
16:06:22.629160,0
16:06:22.629160,18
16:06:22.629160,-1792
16:06:22.629160,-1
16:06:22.629160,33
16:06:22.629160,9472
16:06:22.629160,1
16:06:22.629160,798
16:06:22.629160,29952
16:06:22.629160,4
16:06:22.629160,850
16:06:22.629160,-2048
16:06:22.629160,0
16:06:22.629160,-9
16:06:22.629160,-5121
16:06:22.629160,-1
16:06:22.629160,-82
16:06:22.629160,-27393
16:06:22.629160,-1
16:06:22.629160,-78
16:06:22.629160,-20737
16:06:22.629160,-1
16:06:22.629160,-89
16:06:22.629160,-18433
16:06:22.629160,-1
16:06:22.629160,-68
16:06:22.629160,-17153
16:06:22.629160,-1
16:06:22.629160,-56
16:06:22.629160,-13569
16:06:22.629160,-1
16:06:22.629160,-59
16:06:22.629160,-13057
16:06:22.629160,-1
16:06:22.629160,-37
16:06:22.629160,-8705
16:06:22.629160,-1
16:06:22.629160,-33
16:06:22.629160,-4353
16:06:22.629160,-1
16:06:22.629160,-14
16:06:22.629160,-2049
16:06:22.629160,-1
16:06:22.629160,7
16:06:22.629160,4608
16:06:22.629160,0
16:06:22.629160,16
16:06:22.629160,4608
16:06:22.629160,0
16:06:22.629160,28
16:06:22.629160,5376
16:06:22.629160,0
16:06:22.629160,9
16:06:22.629160,4096
16:06:22.629160,0
16:06:22.629160,16
16:06:22.629160,1024
16:06:22.629160,0
16:06:22.629160,-2
16:06:22.629160,2047
16:06:22.629160,0
16:06:22.629160,11
16:06:22.629160,1024
16:06:22.629160,0
16:06:22.629160,11
16:06:22.629160,4608
16:06:22.629160,0
16:06:22.629160,11
16:06:22.629160,2304
16:06:22.629160,0
16:06:22.629160,11
16:06:22.629160,4608
16:06:22.629160,0
16:06:22.629160,18
16:06:22.629160,1792
16:06:22.629160,0
16:06:22.629160,11
16:06:22.629160,5376
16:06:22.629160,0
16:06:22.629160,14
16:06:22.629160,4096
16:06:22.629160,0
16:06:22.629160,30
16:06:22.629160,5888
16:06:22.629160,0
16:06:22.629160,14
16:06:22.629160,4608
16:06:22.629160,0
16:06:22.629160,14
16:06:22.629160,2816
16:06:22.629160,0
16:06:22.629160,23
16:06:22.629160,4096
16:06:22.629160,0
16:06:22.629160,4
16:06:22.629160,2816
16:06:22.629160,0
16:06:22.629160,11
16:06:22.629160,1792
16:06:22.629160,0
16:06:22.629160,21
16:06:23.169377,52
16:06:23.169377,17408
16:06:23.169377,0
16:06:23.169377,71
16:06:23.169377,16896
16:06:23.169377,0
16:06:23.169377,49
16:06:23.169377,8960
16:06:23.169377,0
16:06:23.169377,30
16:06:23.169377,7168
16:06:23.169377,0
16:06:23.169377,21
16:06:23.169377,5888
16:06:23.169377,0
16:06:23.169377,44
16:06:23.169377,13312
16:06:23.169377,0
16:06:23.169377,7
16:06:23.169377,-10240
16:06:23.169377,-1
16:06:23.169377,73
16:06:23.169377,-10496
16:06:23.169377,1
16:06:23.169377,963
16:06:23.169377,8192
16:06:23.169377,4
16:06:23.169377,561
16:06:23.169377,18688
16:06:23.169377,0
16:06:23.169377,-30
16:06:23.169377,-14849
16:06:23.169377,-1
16:06:23.169377,-130
16:06:23.169377,-31233
16:06:23.169377,-1
16:06:23.169377,-99
16:06:23.169377,-27393
16:06:23.169377,-1
16:06:23.169377,-106
16:06:23.169377,-25089
16:06:23.169377,-1
16:06:23.169377,-101
16:06:23.169377,-23809
16:06:23.169377,-1
16:06:23.169377,-80
16:06:23.169377,-22017
16:06:23.169377,-1
16:06:23.169377,-87
16:06:23.169377,-18945
16:06:23.169377,-1
16:06:23.169377,-71
16:06:23.169377,-16641
16:06:23.169377,-1
16:06:23.169377,-54
16:06:23.169377,-11777
16:06:23.169377,-1
16:06:23.169377,-33
16:06:23.169377,-5121
16:06:23.169377,-1
16:06:23.169377,-18
16:06:23.169377,-3841
16:06:23.169377,-1
16:06:23.169377,-16
16:06:23.169377,-6913
16:06:23.169377,-1
16:06:23.169377,-30
16:06:23.169377,-5633
16:06:23.169377,-1
16:06:23.169377,-21
16:06:23.169377,-5633
16:06:23.169377,-1
16:06:23.169377,-30
16:06:23.169377,-9985
16:06:23.169377,-1
16:06:23.169377,-42
16:06:23.169377,-8705
16:06:23.169377,-1
16:06:23.169377,-35
16:06:23.169377,-9217
16:06:23.169377,-1
16:06:23.169377,-37
16:06:23.169377,-9217
16:06:23.169377,-1
16:06:23.169377,-33
16:06:23.169377,-8705
16:06:23.169377,-1
16:06:23.169377,-37
16:06:23.169377,-6913
16:06:23.169377,-1
16:06:23.169377,-23
16:06:23.169377,-5633
16:06:23.169377,-1
16:06:23.169377,-16
16:06:23.169377,-3329
16:06:23.169377,-1
16:06:23.169377,-16
16:06:23.169377,-257
16:06:23.169377,-1
16:06:23.169377,0
16:06:23.169377,-2304
16:06:23.169377,-1
16:06:23.169377,-4
16:06:23.169377,767
16:06:23.169377,0
16:06:23.169377,-2
16:06:23.169377,-257
16:06:23.169377,-1
16:06:23.169377,-9
16:06:23.709690,-18
16:06:23.709690,-4353
16:06:23.709690,-1
16:06:23.709690,-11
16:06:23.709690,2559
16:06:23.709690,0
16:06:23.709690,42
16:06:23.709690,13824
16:06:23.709690,0
16:06:23.709690,47
16:06:23.709690,12032
16:06:23.709690,0
16:06:23.709690,49
16:06:23.709690,7680
16:06:23.709690,0
16:06:23.709690,9
16:06:23.709690,5888
16:06:23.709690,0
16:06:23.709690,33
16:06:23.709690,4608
16:06:23.709690,0
16:06:23.709690,16
16:06:23.709690,1792
16:06:23.709690,0
16:06:23.709690,-40
16:06:23.709690,-5121
16:06:23.709690,-1
16:06:23.709690,258
16:06:23.709690,-3840
16:06:23.709690,2
16:06:23.709690,1030
16:06:23.709690,-16128
16:06:23.709690,2
16:06:23.709690,170
16:06:23.709690,-2304
16:06:23.709690,-1
16:06:23.709690,-26
16:06:23.709690,-29953
16:06:23.709690,-1
16:06:23.709690,-142
16:06:23.709690,-25089
16:06:23.709690,-1
16:06:23.709690,-97
16:06:23.709690,-27393
16:06:23.709690,-1
16:06:23.709690,-104
16:06:23.709690,-24577
16:06:23.709690,-1
16:06:23.709690,-89
16:06:23.709690,-20737
16:06:23.709690,-1
16:06:23.709690,-75
16:06:23.709690,-15873
16:06:23.709690,-1
16:06:23.709690,-61
16:06:23.709690,-14081
16:06:23.709690,-1
16:06:23.709690,-47
16:06:23.709690,-9217
16:06:23.709690,-1
16:06:23.709690,-35
16:06:23.709690,-6401
16:06:23.709690,-1
16:06:23.709690,-2
16:06:23.709690,2559
16:06:23.709690,0
16:06:23.709690,9
16:06:23.709690,1792
16:06:23.709690,0
16:06:23.709690,4
16:06:23.709690,1024
16:06:23.709690,0
16:06:23.709690,4
16:06:23.709690,0
16:06:23.709690,0
16:06:23.709690,-4
16:06:23.709690,-2561
16:06:23.709690,-1
16:06:23.709690,-11
16:06:23.709690,-2049
16:06:23.709690,-1
16:06:23.709690,-9
16:06:23.709690,-1537
16:06:23.709690,-1
16:06:23.709690,-4
16:06:23.709690,-1537
16:06:23.709690,-1
16:06:23.709690,-7
16:06:23.709690,-257
16:06:23.709690,-1
16:06:23.709690,7
16:06:23.709690,1792
16:06:23.709690,0
16:06:23.709690,9
16:06:23.709690,3584
16:06:23.709690,0
16:06:23.709690,9
16:06:23.709690,4608
16:06:23.709690,0
16:06:23.709690,37
16:06:23.709690,8960
16:06:23.709690,0
16:06:23.709690,21
16:06:23.709690,6656
16:06:23.709690,0
16:06:23.709690,30
16:06:23.709690,4608
16:06:23.709690,0
16:06:23.709690,9
16:06:24.339873,7
16:06:24.339873,0
16:06:24.339873,0
16:06:24.339873,0
16:06:24.339873,5888
16:06:24.339873,0
16:06:24.339873,61
16:06:24.339873,24832
16:06:24.339873,0
16:06:24.339873,99
16:06:24.339873,19200
16:06:24.339873,0
16:06:24.339873,52
16:06:24.339873,10240
16:06:24.339873,0
16:06:24.339873,30
16:06:24.339873,6656
16:06:24.339873,0
16:06:24.339873,30
16:06:24.339873,5888
16:06:24.339873,0
16:06:24.339873,11
16:06:24.339873,1792
16:06:24.339873,0
16:06:24.339873,-23
16:06:24.339873,-12289
16:06:24.339873,-1
16:06:24.339873,125
16:06:24.339873,24064
16:06:24.339873,2
16:06:24.339873,1070
16:06:24.339873,-16640
16:06:24.339873,3
16:06:24.339873,369
16:06:24.339873,2304
16:06:24.339873,0
16:06:24.339873,-28
16:06:24.339873,-22017
16:06:24.339873,-1
16:06:24.339873,-146
16:06:24.339873,-31233
16:06:24.339873,-1
16:06:24.339873,-108
16:06:24.339873,-31233
16:06:24.339873,-1
16:06:24.339873,-116
16:06:24.339873,-27393
16:06:24.339873,-1
16:06:24.339873,-104
16:06:24.339873,-23809
16:06:24.339873,-1
16:06:24.339873,-87
16:06:24.339873,-21505
16:06:24.339873,-1
16:06:24.339873,-80
16:06:24.339873,-18433
16:06:24.339873,-1
16:06:24.339873,-61
16:06:24.339873,-12289
16:06:24.339873,-1
16:06:24.339873,-52
16:06:24.339873,-11009
16:06:24.339873,-1
16:06:24.339873,-23
16:06:24.339873,-2561
16:06:24.339873,-1
16:06:24.339873,-9
16:06:24.339873,767
16:06:24.339873,0
16:06:24.339873,4
16:06:24.339873,512
16:06:24.339873,0
16:06:24.339873,4
16:06:24.339873,1792
16:06:24.339873,0
16:06:24.339873,2
16:06:24.339873,0
16:06:24.339873,0
16:06:24.339873,4
16:06:24.339873,1792
16:06:24.339873,0
16:06:24.339873,0
16:06:24.339873,-1024
16:06:24.339873,-1
16:06:24.339873,-2
16:06:24.339873,767
16:06:24.339873,0
16:06:24.339873,9
16:06:24.339873,1792
16:06:24.339873,0
16:06:24.339873,-2
16:06:24.339873,1279
16:06:24.339873,0
16:06:24.339873,26
16:06:24.339873,6656
16:06:24.339873,0
16:06:24.339873,14
16:06:24.339873,5376
16:06:24.339873,0
16:06:24.339873,30
16:06:24.339873,8960
16:06:24.339873,0
16:06:24.339873,40
16:06:24.339873,10752
16:06:24.339873,0
16:06:24.339873,37
16:06:24.339873,7680
16:06:24.339873,0
16:06:24.339873,26
16:06:24.879611,16
16:06:24.879611,4096
16:06:24.879611,0
16:06:24.879611,47
16:06:24.879611,20480
16:06:24.879611,0
16:06:24.879611,87
16:06:24.879611,20992
16:06:24.879611,0
16:06:24.879611,68
16:06:24.879611,12032
16:06:24.879611,0
16:06:24.879611,26
16:06:24.879611,4096
16:06:24.879611,0
16:06:24.879611,21
16:06:24.879611,6656
16:06:24.879611,0
16:06:24.879611,21
16:06:24.879611,7680
16:06:24.879611,0
16:06:24.879611,35
16:06:24.879611,-2304
16:06:24.879611,-1
16:06:24.879611,-33
16:06:24.879611,-24833
16:06:24.879611,0
16:06:24.879611,620
16:06:24.879611,3328
16:06:24.879611,4
16:06:24.879611,907
16:06:24.879611,20992
16:06:24.879611,1
16:06:24.879611,16
16:06:24.879611,-2304
16:06:24.879611,-1
16:06:24.879611,-87
16:06:24.879611,30207
16:06:24.879611,-1
16:06:24.879611,-104
16:06:24.879611,-26881
16:06:24.879611,-1
16:06:24.879611,-120
16:06:24.879611,-27393
16:06:24.879611,-1
16:06:24.879611,-104
16:06:24.879611,-25089
16:06:24.879611,-1
16:06:24.879611,-94
16:06:24.879611,-25089
16:06:24.879611,-1
16:06:24.879611,-80
16:06:24.879611,-18433
16:06:24.879611,-1
16:06:24.879611,-78
16:06:24.879611,-15873
16:06:24.879611,-1
16:06:24.879611,-49
16:06:24.879611,-13057
16:06:24.879611,-1
16:06:24.879611,-47
16:06:24.879611,-5121
16:06:24.879611,-1
16:06:24.879611,4
16:06:24.879611,2816
16:06:24.879611,0
16:06:24.879611,7
16:06:24.879611,1792
16:06:24.879611,0
16:06:24.879611,2
16:06:24.879611,-2304
16:06:24.879611,-1
16:06:24.879611,-16
16:06:24.879611,-1537
16:06:24.879611,-1
16:06:24.879611,-9
16:06:24.879611,-6913
16:06:24.879611,-1
16:06:24.879611,-33
16:06:24.879611,-6401
16:06:24.879611,-1
16:06:24.879611,-33
16:06:24.879611,-8705
16:06:24.879611,-1
16:06:24.879611,-26
16:06:24.879611,-6913
16:06:24.879611,-1
16:06:24.879611,-35
16:06:24.879611,-6913
16:06:24.879611,-1
16:06:24.879611,-14
16:06:24.879611,-2561
16:06:24.879611,-1
16:06:24.879611,-14
16:06:24.879611,-3329
16:06:24.879611,-1
16:06:24.879611,-7
16:06:24.879611,-769
16:06:24.879611,-1
16:06:24.879611,-7
16:06:24.879611,-2049
16:06:24.879611,-1
16:06:24.879611,-11
16:06:24.879611,-3329
16:06:24.879611,-1
16:06:24.879611,-7
16:06:24.879611,1279
16:06:24.879611,0
16:06:24.879611,18
16:06:25.418742,44
16:06:25.418742,16896
16:06:25.418742,0
16:06:25.418742,61
16:06:25.418742,8960
16:06:25.418742,0
16:06:25.418742,21
16:06:25.418742,3584
16:06:25.418742,0
16:06:25.418742,9
16:06:25.418742,2304
16:06:25.418742,0
16:06:25.418742,4
16:06:25.418742,0
16:06:25.418742,0
16:06:25.418742,9
16:06:25.418742,3584
16:06:25.418742,0
16:06:25.418742,-28
16:06:25.418742,767
16:06:25.418742,0
16:06:25.418742,293
16:06:25.418742,-2816
16:06:25.418742,2
16:06:25.418742,987
16:06:25.418742,-27648
16:06:25.418742,2
16:06:25.418742,158
16:06:25.418742,-512
16:06:25.418742,-1
16:06:25.418742,-23
16:06:25.418742,-28673
16:06:25.418742,-1
16:06:25.418742,-125
16:06:25.418742,-24577
16:06:25.418742,-1
16:06:25.418742,-113
16:06:25.418742,-29953
16:06:25.418742,-1
16:06:25.418742,-99
16:06:25.418742,-24577
16:06:25.418742,-1
16:06:25.418742,-99
16:06:25.418742,-20737
16:06:25.418742,-1
16:06:25.418742,-71
16:06:25.418742,-18433
16:06:25.418742,-1
16:06:25.418742,-71
16:06:25.418742,-14081
16:06:25.418742,-1
16:06:25.418742,-44
16:06:25.418742,-8705
16:06:25.418742,-1
16:06:25.418742,-26
16:06:25.418742,-2561
16:06:25.418742,-1
16:06:25.418742,0
16:06:25.418742,1792
16:06:25.418742,0
16:06:25.418742,14
16:06:25.418742,3584
16:06:25.418742,0
16:06:25.418742,4
16:06:25.418742,-1024
16:06:25.418742,-1
16:06:25.418742,0
16:06:25.418742,512
16:06:25.418742,0
16:06:25.418742,-11
16:06:25.418742,-5121
16:06:25.418742,-1
16:06:25.418742,-16
16:06:25.418742,-3841
16:06:25.418742,-1
16:06:25.418742,-18
16:06:25.418742,-6401
16:06:25.418742,-1
16:06:25.418742,-35
16:06:25.418742,-6401
16:06:25.418742,-1
16:06:25.418742,-11
16:06:25.418742,-3841
16:06:25.418742,-1
16:06:25.418742,-21
16:06:25.418742,-3329
16:06:25.418742,-1
16:06:25.418742,-7
16:06:25.418742,-1537
16:06:25.418742,-1
16:06:25.418742,0
16:06:25.418742,2816
16:06:25.418742,0
16:06:25.418742,11
16:06:25.418742,2304
16:06:25.418742,0
16:06:25.418742,4
16:06:25.418742,0
16:06:25.418742,0
16:06:25.418742,-4
16:06:25.418742,-1537
16:06:25.418742,-1
16:06:25.418742,18
16:06:25.418742,16128
16:06:25.418742,0
16:06:25.418742,73
16:06:25.418742,16896
16:06:25.418742,0
16:06:25.418742,61
16:06:25.958945,42
16:06:25.958945,5888
16:06:25.958945,0
16:06:25.958945,18
16:06:25.958945,5376
16:06:25.958945,0
16:06:25.958945,18
16:06:25.958945,4096
16:06:25.958945,0
16:06:25.958945,18
16:06:25.958945,4096
16:06:25.958945,0
16:06:25.958945,-9
16:06:25.958945,-2561
16:06:25.958945,-1
16:06:25.958945,168
16:06:25.958945,25088
16:06:25.958945,2
16:06:25.958945,1025
16:06:25.958945,-32512
16:06:25.958945,3
16:06:25.958945,326
16:06:25.958945,6656
16:06:25.958945,0
16:06:25.958945,21
16:06:25.958945,-16896
16:06:25.958945,-1
16:06:25.958945,-137
16:06:25.958945,-24577
16:06:25.958945,-1
16:06:25.958945,-87
16:06:25.958945,-26369
16:06:25.958945,-1
16:06:25.958945,-94
16:06:25.958945,-22017
16:06:25.958945,-1
16:06:25.958945,-85
16:06:25.958945,-16641
16:06:25.958945,-1
16:06:25.958945,-56
16:06:25.958945,-13569
16:06:25.958945,-1
16:06:25.958945,-49
16:06:25.958945,-11777
16:06:25.958945,-1
16:06:25.958945,-37
16:06:25.958945,-6401
16:06:25.958945,-1
16:06:25.958945,-23
16:06:25.958945,-4353
16:06:25.958945,-1
16:06:25.958945,7
16:06:25.958945,6656
16:06:25.958945,0
16:06:25.958945,21
16:06:25.958945,4608
16:06:25.958945,0
16:06:25.958945,16
16:06:25.958945,2816
16:06:25.958945,0
16:06:25.958945,11
16:06:25.958945,2304
16:06:25.958945,0
16:06:25.958945,2
16:06:25.958945,0
16:06:25.958945,0
16:06:25.958945,2
16:06:25.958945,0
16:06:25.958945,0
16:06:25.958945,-9
16:06:25.958945,-2049
16:06:25.958945,-1
16:06:25.958945,-9
16:06:25.958945,-2049
16:06:25.958945,-1
16:06:25.958945,-2
16:06:25.958945,767
16:06:25.958945,0
16:06:25.958945,0
16:06:25.958945,0
16:06:25.958945,0
16:06:25.958945,14
16:06:25.958945,4096
16:06:25.958945,0
16:06:25.958945,14
16:06:25.958945,5888
16:06:25.958945,0
16:06:25.958945,30
16:06:25.958945,5376
16:06:25.958945,0
16:06:25.958945,16
16:06:25.958945,3584
16:06:25.958945,0
16:06:25.958945,9
16:06:25.958945,5888
16:06:25.958945,0
16:06:25.958945,56
16:06:25.958945,20992
16:06:25.958945,0
16:06:25.958945,87
16:06:25.958945,17408
16:06:25.958945,0
16:06:25.958945,54
16:06:25.958945,11264
16:06:25.958945,0
16:06:25.958945,28
16:06:25.958945,5376
16:06:25.958945,0
16:06:25.958945,33
16:06:26.544709,42
16:06:26.544709,10752
16:06:26.544709,0
16:06:26.544709,28
16:06:26.544709,-2304
16:06:26.544709,-1
16:06:26.544709,-40
16:06:26.544709,26879
16:06:26.544709,0
16:06:26.544709,577
16:06:26.544709,23808
16:06:26.544709,4
16:06:26.544709,1131
16:06:26.544709,8960
16:06:26.544709,2
16:06:26.544709,80
16:06:26.544709,1024
16:06:26.544709,0
16:06:26.544709,-40
16:06:26.544709,-29441
16:06:26.544709,-1
16:06:26.544709,-99
16:06:26.544709,-19713
16:06:26.544709,-1
16:06:26.544709,-89
16:06:26.544709,-20225
16:06:26.544709,-1
16:06:26.544709,-66
16:06:26.544709,-15361
16:06:26.544709,-1
16:06:26.544709,-59
16:06:26.544709,-14849
16:06:26.544709,-1
16:06:26.544709,-49
16:06:26.544709,-9985
16:06:26.544709,-1
16:06:26.544709,-44
16:06:26.544709,-11009
16:06:26.544709,-1
16:06:26.544709,-35
16:06:26.544709,-6913
16:06:26.544709,-1
16:06:26.544709,-18
16:06:26.544709,767
16:06:26.544709,0
16:06:26.544709,11
16:06:26.544709,2304
16:06:26.544709,0
16:06:26.544709,11
16:06:26.544709,4608
16:06:26.544709,0
16:06:26.544709,23
16:06:26.544709,5888
16:06:26.544709,0
16:06:26.544709,21
16:06:26.544709,4608
16:06:26.544709,0
16:06:26.544709,16
16:06:26.544709,4096
16:06:26.544709,0
16:06:26.544709,14
16:06:26.544709,2816
16:06:26.544709,0
16:06:26.544709,9
16:06:26.544709,1024
16:06:26.544709,0
16:06:26.544709,7
16:06:26.544709,4096
16:06:26.544709,0
16:06:26.544709,16
16:06:26.544709,5376
16:06:26.544709,0
16:06:26.544709,26
16:06:26.544709,5888
16:06:26.544709,0
16:06:26.544709,18
16:06:26.544709,4608
16:06:26.544709,0
16:06:26.544709,28
16:06:26.544709,7680
16:06:26.544709,0
16:06:26.544709,16
16:06:26.544709,2816
16:06:26.544709,0
16:06:26.544709,14
16:06:26.544709,1792
16:06:26.544709,0
16:06:26.544709,9
16:06:26.544709,7680
16:06:26.544709,0
16:06:26.544709,63
16:06:26.544709,19968
16:06:26.544709,0
16:06:26.544709,61
16:06:26.544709,13824
16:06:26.544709,0
16:06:26.544709,49
16:06:26.544709,8448
16:06:26.544709,0
16:06:26.544709,18
16:06:26.544709,3584
16:06:26.544709,0
16:06:26.544709,23
16:06:26.544709,5376
16:06:26.544709,0
16:06:26.544709,18
16:06:26.544709,2304
16:06:26.544709,0
16:06:26.544709,-35
16:06:27.083746,-52
16:06:27.083746,-18177
16:06:27.083746,0
16:06:27.083746,727
16:06:27.083746,-26624
16:06:27.083746,4
16:06:27.083746,987
16:06:27.083746,21760
16:06:27.083746,1
16:06:27.083746,-21
16:06:27.083746,-9985
16:06:27.083746,-1
16:06:27.083746,-73
16:06:27.083746,-28161
16:06:27.083746,-1
16:06:27.083746,-85
16:06:27.083746,-17921
16:06:27.083746,-1
16:06:27.083746,-80
16:06:27.083746,-19713
16:06:27.083746,-1
16:06:27.083746,-71
16:06:27.083746,-17921
16:06:27.083746,-1
16:06:27.083746,-63
16:06:27.083746,-13569
16:06:27.083746,-1
16:06:27.083746,-61
16:06:27.083746,-16641
16:06:27.083746,-1
16:06:27.083746,-52
16:06:27.083746,-11777
16:06:27.083746,-1
16:06:27.083746,-52
16:06:27.083746,-9217
16:06:27.083746,-1
16:06:27.083746,-18
16:06:27.083746,-2561
16:06:27.083746,-1
16:06:27.083746,-7
16:06:27.083746,767
16:06:27.083746,0
16:06:27.083746,7
16:06:27.083746,2816
16:06:27.083746,0
16:06:27.083746,14
16:06:27.083746,1792
16:06:27.083746,0
16:06:27.083746,9
16:06:27.083746,4096
16:06:27.083746,0
16:06:27.083746,7
16:06:27.083746,0
16:06:27.083746,0
16:06:27.083746,-2
16:06:27.083746,-257
16:06:27.083746,-1
16:06:27.083746,-2
16:06:27.083746,1279
16:06:27.083746,0
16:06:27.083746,11
16:06:27.083746,2304
16:06:27.083746,0
16:06:27.083746,14
16:06:27.083746,2816
16:06:27.083746,0
16:06:27.083746,4
16:06:27.083746,2304
16:06:27.083746,0
16:06:27.083746,14
16:06:27.083746,2816
16:06:27.083746,0
16:06:27.083746,11
16:06:27.083746,3584
16:06:27.083746,0
16:06:27.083746,7
16:06:27.083746,512
16:06:27.083746,0
16:06:27.083746,4
16:06:27.083746,-512
16:06:27.083746,-1
16:06:27.083746,-9
16:06:27.083746,2559
16:06:27.083746,0
16:06:27.083746,42
16:06:27.083746,16128
16:06:27.083746,0
16:06:27.083746,61
16:06:27.083746,11264
16:06:27.083746,0
16:06:27.083746,35
16:06:27.083746,5888
16:06:27.083746,0
16:06:27.083746,11
16:06:27.083746,2304
16:06:27.083746,0
16:06:27.083746,4
16:06:27.083746,0
16:06:27.083746,0
16:06:27.083746,7
16:06:27.083746,1024
16:06:27.083746,0
16:06:27.083746,-33
16:06:27.083746,-20225
16:06:27.083746,-1
16:06:27.083746,18
16:06:27.083746,-20224
16:06:27.083746,1
16:06:27.083746,987
16:06:27.668963,1110
16:06:27.668963,20992
16:06:27.668963,2
16:06:27.668963,66
16:06:27.668963,-13824
16:06:27.668963,-1
16:06:27.668963,-71
16:06:27.668963,32511
16:06:27.668963,-1
16:06:27.668963,-113
16:06:27.668963,-20225
16:06:27.668963,-1
16:06:27.668963,-89
16:06:27.668963,-23809
16:06:27.668963,-1
16:06:27.668963,-85
16:06:27.668963,-17921
16:06:27.668963,-1
16:06:27.668963,-59
16:06:27.668963,-15873
16:06:27.668963,-1
16:06:27.668963,-68
16:06:27.668963,-14081
16:06:27.668963,-1
16:06:27.668963,-47
16:06:27.668963,-12289
16:06:27.668963,-1
16:06:27.668963,-47
16:06:27.668963,-9217
16:06:27.668963,-1
16:06:27.668963,-35
16:06:27.668963,-5633
16:06:27.668963,-1
16:06:27.668963,2
16:06:27.668963,1792
16:06:27.668963,0
16:06:27.668963,2
16:06:27.668963,1792
16:06:27.668963,0
16:06:27.668963,9
16:06:27.668963,1792
16:06:27.668963,0
16:06:27.668963,11
16:06:27.668963,2304
16:06:27.668963,0
16:06:27.668963,4
16:06:27.668963,-512
16:06:27.668963,-1
16:06:27.668963,-7
16:06:27.668963,-769
16:06:27.668963,-1
16:06:27.668963,-4
16:06:27.668963,-769
16:06:27.668963,-1
16:06:27.668963,-4
16:06:27.668963,-769
16:06:27.668963,-1
16:06:27.668963,4
16:06:27.668963,2816
16:06:27.668963,0
16:06:27.668963,4
16:06:27.668963,512
16:06:27.668963,0
16:06:27.668963,9
16:06:27.668963,512
16:06:27.668963,0
16:06:27.668963,2
16:06:27.668963,3584
16:06:27.668963,0
16:06:27.668963,9
16:06:27.668963,0
16:06:27.668963,0
16:06:27.668963,-2
16:06:27.668963,-769
16:06:27.668963,-1
16:06:27.668963,-9
16:06:27.668963,-3329
16:06:27.668963,-1
16:06:27.668963,0
16:06:27.668963,8960
16:06:27.668963,0
16:06:27.668963,54
16:06:27.668963,15104
16:06:27.668963,0
16:06:27.668963,61
16:06:27.668963,12032
16:06:27.668963,0
16:06:27.668963,18
16:06:27.668963,2304
16:06:27.668963,0
16:06:27.668963,11
16:06:27.668963,1024
16:06:27.668963,0
16:06:27.668963,2
16:06:27.668963,2816
16:06:27.668963,0
16:06:27.668963,9
16:06:27.668963,-2816
16:06:27.668963,-1
16:06:27.668963,-56
16:06:27.668963,-7425
16:06:27.668963,-1
16:06:27.668963,262
16:06:27.668963,7680
16:06:27.668963,3
16:06:27.668963,1136
16:06:27.668963,14336
16:06:27.668963,3
16:06:27.668963,206
16:06:28.299698,-56
16:06:28.299698,-14081
16:06:28.299698,-1
16:06:28.299698,-120
16:06:28.299698,27135
16:06:28.299698,-1
16:06:28.299698,-113
16:06:28.299698,-27393
16:06:28.299698,-1
16:06:28.299698,-120
16:06:28.299698,-28161
16:06:28.299698,-1
16:06:28.299698,-92
16:06:28.299698,-17921
16:06:28.299698,-1
16:06:28.299698,-59
16:06:28.299698,-14849
16:06:28.299698,-1
16:06:28.299698,-56
16:06:28.299698,-11777
16:06:28.299698,-1
16:06:28.299698,-40
16:06:28.299698,-8193
16:06:28.299698,-1
16:06:28.299698,-26
16:06:28.299698,-3841
16:06:28.299698,-1
16:06:28.299698,-7
16:06:28.299698,767
16:06:28.299698,0
16:06:28.299698,16
16:06:28.299698,5888
16:06:28.299698,0
16:06:28.299698,26
16:06:28.299698,5888
16:06:28.299698,0
16:06:28.299698,23
16:06:28.299698,7680
16:06:28.299698,0
16:06:28.299698,33
16:06:28.299698,5888
16:06:28.299698,0
16:06:28.299698,21
16:06:28.299698,4608
16:06:28.299698,0
16:06:28.299698,14
16:06:28.299698,2304
16:06:28.299698,0
16:06:28.299698,9
16:06:28.299698,4608
16:06:28.299698,0
16:06:28.299698,16
16:06:28.299698,3584
16:06:28.299698,0
16:06:28.299698,21
16:06:28.299698,5376
16:06:28.299698,0
16:06:28.299698,16
16:06:28.299698,4608
16:06:28.299698,0
16:06:28.299698,18
16:06:28.299698,5376
16:06:28.299698,0
16:06:28.299698,26
16:06:28.299698,5376
16:06:28.299698,0
16:06:28.299698,18
16:06:28.299698,7168
16:06:28.299698,0
16:06:28.299698,23
16:06:28.299698,2304
16:06:28.299698,0
16:06:28.299698,9
16:06:28.299698,2816
16:06:28.299698,0
16:06:28.299698,2
16:06:28.299698,512
16:06:28.299698,0
16:06:28.299698,21
16:06:28.299698,12544
16:06:28.299698,0
16:06:28.299698,68
16:06:28.299698,18176
16:06:28.299698,0
16:06:28.299698,63
16:06:28.299698,10752
16:06:28.299698,0
16:06:28.299698,21
16:06:28.299698,2816
16:06:28.299698,0
16:06:28.299698,11
16:06:28.299698,2816
16:06:28.299698,0
16:06:28.299698,14
16:06:28.299698,4608
16:06:28.299698,0
16:06:28.299698,18
16:06:28.299698,-4096
16:06:28.299698,-1
16:06:28.299698,-63
16:06:28.299698,7935
16:06:28.299698,0
16:06:28.299698,404
16:06:28.299698,-27648
16:06:28.299698,3
16:06:28.299698,1079
16:06:28.299698,28160
16:06:28.299698,2
16:06:28.299698,80
16:06:28.794517,-59
16:06:28.794517,-15361
16:06:28.794517,-1
16:06:28.794517,-132
16:06:28.794517,28415
16:06:28.794517,-1
16:06:28.794517,-116
16:06:28.794517,-29953
16:06:28.794517,-1
16:06:28.794517,-118
16:06:28.794517,-26881
16:06:28.794517,-1
16:06:28.794517,-106
16:06:28.794517,-26369
16:06:28.794517,-1
16:06:28.794517,-92
16:06:28.794517,-21505
16:06:28.794517,-1
16:06:28.794517,-78
16:06:28.794517,-16641
16:06:28.794517,-1
16:06:28.794517,-54
16:06:28.794517,-14849
16:06:28.794517,-1
16:06:28.794517,-56
16:06:28.794517,-6913
16:06:28.794517,-1
16:06:28.794517,0
16:06:28.794517,2304
16:06:28.794517,0
16:06:28.794517,16
16:06:28.794517,5376
16:06:28.794517,0
16:06:28.794517,18
16:06:28.794517,4096
16:06:28.794517,0
16:06:28.794517,16
16:06:28.794517,4096
16:06:28.794517,0
16:06:28.794517,11
16:06:28.794517,2816
16:06:28.794517,0
16:06:28.794517,4
16:06:28.794517,-512
16:06:28.794517,-1
16:06:28.794517,0
16:06:28.794517,0
16:06:28.794517,0
16:06:28.794517,-4
16:06:28.794517,255
16:06:28.794517,0
16:06:28.794517,4
16:06:28.794517,1024
16:06:28.794517,0
16:06:28.794517,4
16:06:28.794517,1024
16:06:28.794517,0
16:06:28.794517,7
16:06:28.794517,1024
16:06:28.794517,0
16:06:28.794517,2
16:06:28.794517,512
16:06:28.794517,0
16:06:28.794517,4
16:06:28.794517,2816
16:06:28.794517,0
16:06:28.794517,14
16:06:28.794517,2304
16:06:28.794517,0
16:06:28.794517,14
16:06:28.794517,2816
16:06:28.794517,0
16:06:28.794517,-4
16:06:28.794517,-2049
16:06:28.794517,-1
16:06:28.794517,-7
16:06:28.794517,-769
16:06:28.794517,-1
16:06:28.794517,14
16:06:28.794517,11264
16:06:28.794517,0
16:06:28.794517,61
16:06:28.794517,15616
16:06:28.794517,0
16:06:28.794517,40
16:06:28.794517,5376
16:06:28.794517,0
16:06:28.794517,9
16:06:28.794517,0
16:06:28.794517,0
16:06:28.794517,0
16:06:28.794517,1792
16:06:28.794517,0
16:06:28.794517,2
16:06:28.794517,-2304
16:06:28.794517,-1
16:06:28.794517,-23
16:06:28.794517,-17153
16:06:28.794517,-1
16:06:28.794517,-49
16:06:28.794517,-7169
16:06:28.794517,0
16:06:28.794517,727
16:06:28.794517,-256
16:06:28.794517,3
16:06:28.794517,724
16:06:28.794517,-22528
16:06:28.794517,0
16:06:28.794517,-44
16:06:29.334671,-52
16:06:29.334671,-32257
16:06:29.334671,-1
16:06:29.334671,-163
16:06:29.334671,31999
16:06:29.334671,-1
16:06:29.334671,-125
16:06:29.334671,31999
16:06:29.334671,-1
16:06:29.334671,-130
16:06:29.334671,-29441
16:06:29.334671,-1
16:06:29.334671,-101
16:06:29.334671,-22017
16:06:29.334671,-1
16:06:29.334671,-71
16:06:29.334671,-15361
16:06:29.334671,-1
16:06:29.334671,-56
16:06:29.334671,-11009
16:06:29.334671,-1
16:06:29.334671,-35
16:06:29.334671,-6913
16:06:29.334671,-1
16:06:29.334671,-23
16:06:29.334671,-3841
16:06:29.334671,-1
16:06:29.334671,2
16:06:29.334671,4608
16:06:29.334671,0
16:06:29.334671,18
16:06:29.334671,2816
16:06:29.334671,0
16:06:29.334671,7
16:06:29.334671,1792
16:06:29.334671,0
16:06:29.334671,11
16:06:29.334671,1792
16:06:29.334671,0
16:06:29.334671,-2
16:06:29.334671,-257
16:06:29.334671,-1
16:06:29.334671,-2
16:06:29.334671,-1537
16:06:29.334671,-1
16:06:29.334671,-9
16:06:29.334671,-257
16:06:29.334671,-1
16:06:29.334671,-7
16:06:29.334671,-2561
16:06:29.334671,-1
16:06:29.334671,-4
16:06:29.334671,767
16:06:29.334671,0
16:06:29.334671,2
16:06:29.334671,1792
16:06:29.334671,0
16:06:29.334671,11
16:06:29.334671,4608
16:06:29.334671,0
16:06:29.334671,18
16:06:29.334671,4096
16:06:29.334671,0
16:06:29.334671,23
16:06:29.334671,7680
16:06:29.334671,0
16:06:29.334671,26
16:06:29.334671,4096
16:06:29.334671,0
16:06:29.334671,14
16:06:29.334671,2816
16:06:29.334671,0
16:06:29.334671,11
16:06:29.334671,2304
16:06:29.334671,0
16:06:29.334671,16
16:06:29.334671,10240
16:06:29.334671,0
16:06:29.334671,63
16:06:29.334671,18176
16:06:29.334671,0
16:06:29.334671,63
16:06:29.334671,11264
16:06:29.334671,0
16:06:29.334671,33
16:06:29.334671,5376
16:06:29.334671,0
16:06:29.334671,9
16:06:29.334671,4096
16:06:29.334671,0
16:06:29.334671,21
16:06:29.334671,3584
16:06:29.334671,0
16:06:29.334671,14
16:06:29.334671,-1792
16:06:29.334671,-1
16:06:29.334671,-61
16:06:29.334671,3071
16:06:29.334671,0
16:06:29.334671,386
16:06:29.334671,-26368
16:06:29.334671,3
16:06:29.334671,1101
16:06:29.334671,-32512
16:06:29.334671,2
16:06:29.334671,101
16:06:29.334671,-8960
16:06:29.334671,-1
16:06:29.334671,-52
16:06:29.874176,-132
16:06:29.874176,31999
16:06:29.874176,-1
16:06:29.874176,-94
16:06:29.874176,-28673
16:06:29.874176,-1
16:06:29.874176,-123
16:06:29.874176,-23297
16:06:29.874176,-1
16:06:29.874176,-73
16:06:29.874176,-16641
16:06:29.874176,-1
16:06:29.874176,-49
16:06:29.874176,-12289
16:06:29.874176,-1
16:06:29.874176,-49
16:06:29.874176,-9217
16:06:29.874176,-1
16:06:29.874176,-30
16:06:29.874176,-5633
16:06:29.874176,-1
16:06:29.874176,-21
16:06:29.874176,-3329
16:06:29.874176,-1
16:06:29.874176,2
16:06:29.874176,4096
16:06:29.874176,0
16:06:29.874176,23
16:06:29.874176,8448
16:06:29.874176,0
16:06:29.874176,33
16:06:29.874176,7680
16:06:29.874176,0
16:06:29.874176,30
16:06:29.874176,7168
16:06:29.874176,0
16:06:29.874176,26
16:06:29.874176,6656
16:06:29.874176,0
16:06:29.874176,26
16:06:29.874176,5376
16:06:29.874176,0
16:06:29.874176,21
16:06:29.874176,5376
16:06:29.874176,0
16:06:29.874176,21
16:06:29.874176,5376
16:06:29.874176,0
16:06:29.874176,16
16:06:29.874176,4096
16:06:29.874176,0
16:06:29.874176,26
16:06:29.874176,6656
16:06:29.874176,0
16:06:29.874176,16
16:06:29.874176,5376
16:06:29.874176,0
16:06:29.874176,30
16:06:29.874176,7168
16:06:29.874176,0
16:06:29.874176,33
16:06:29.874176,10752
16:06:29.874176,0
16:06:29.874176,37
16:06:29.874176,8960
16:06:29.874176,0
16:06:29.874176,33
16:06:29.874176,5888
16:06:29.874176,0
16:06:29.874176,14
16:06:29.874176,5376
16:06:29.874176,0
16:06:29.874176,42
16:06:29.874176,16128
16:06:29.874176,0
16:06:29.874176,78
16:06:29.874176,19968
16:06:29.874176,0
16:06:29.874176,68
16:06:29.874176,13312
16:06:29.874176,0
16:06:29.874176,40
16:06:29.874176,7168
16:06:29.874176,0
16:06:29.874176,21
16:06:29.874176,5888
16:06:29.874176,0
16:06:29.874176,28
16:06:29.874176,7680
16:06:29.874176,0
16:06:29.874176,21
16:06:29.874176,-5376
16:06:29.874176,-1
16:06:29.874176,-54
16:06:29.874176,25087
16:06:29.874176,0
16:06:29.874176,539
16:06:29.874176,2560
16:06:29.874176,4
16:06:29.874176,1037
16:06:29.874176,-8704
16:06:29.874176,1
16:06:29.874176,30
16:06:29.874176,-9472
16:06:29.874176,-1
16:06:29.874176,-75
16:06:29.874176,30719
16:06:29.874176,-1
16:06:29.874176,-113
16:06:30.458771,-92
16:06:30.458771,-28161
16:06:30.458771,-1
16:06:30.458771,-106
16:06:30.458771,-19713
16:06:30.458771,-1
16:06:30.458771,-56
16:06:30.458771,-11777
16:06:30.458771,-1
16:06:30.458771,-49
16:06:30.458771,-11009
16:06:30.458771,-1
16:06:30.458771,-33
16:06:30.458771,-8193
16:06:30.458771,-1
16:06:30.458771,-28
16:06:30.458771,-3841
16:06:30.458771,-1
16:06:30.458771,-11
16:06:30.458771,-2049
16:06:30.458771,-1
16:06:30.458771,7
16:06:30.458771,6656
16:06:30.458771,0
16:06:30.458771,30
16:06:30.458771,8448
16:06:30.458771,0
16:06:30.458771,37
16:06:30.458771,9472
16:06:30.458771,0
16:06:30.458771,37
16:06:30.458771,9472
16:06:30.458771,0
16:06:30.458771,35
16:06:30.458771,7680
16:06:30.458771,0
16:06:30.458771,23
16:06:30.458771,4096
16:06:30.458771,0
16:06:30.458771,18
16:06:30.458771,6656
16:06:30.458771,0
16:06:30.458771,21
16:06:30.458771,3584
16:06:30.458771,0
16:06:30.458771,18
16:06:30.458771,5376
16:06:30.458771,0
16:06:30.458771,21
16:06:30.458771,7680
16:06:30.458771,0
16:06:30.458771,35
16:06:30.458771,6656
16:06:30.458771,0
16:06:30.458771,30
16:06:30.458771,8960
16:06:30.458771,0
16:06:30.458771,30
16:06:30.458771,7680
16:06:30.458771,0
16:06:30.458771,37
16:06:30.458771,9472
16:06:30.458771,0
16:06:30.458771,28
16:06:30.458771,5376
16:06:30.458771,0
16:06:30.458771,21
16:06:30.458771,4608
16:06:30.458771,0
16:06:30.458771,11
16:06:30.458771,4608
16:06:30.458771,0
16:06:30.458771,42
16:06:30.458771,18176
16:06:30.458771,0
16:06:30.458771,87
16:06:30.458771,20480
16:06:30.458771,0
16:06:30.458771,59
16:06:30.458771,11264
16:06:30.458771,0
16:06:30.458771,35
16:06:30.458771,4608
16:06:30.458771,0
16:06:30.458771,18
16:06:30.458771,7168
16:06:30.458771,0
16:06:30.458771,23
16:06:30.458771,4096
16:06:30.458771,0
16:06:30.458771,0
16:06:30.458771,-12032
16:06:30.458771,-1
16:06:30.458771,-30
16:06:30.458771,-3073
16:06:30.458771,0
16:06:30.458771,767
16:06:30.458771,22784
16:06:30.458771,4
16:06:30.458771,828
16:06:30.458771,-7424
16:06:30.458771,0
16:06:30.458771,-42
16:06:30.458771,-13057
16:06:30.458771,-1
16:06:30.458771,-108
16:06:30.458771,30207
16:06:30.458771,-1
16:06:30.458771,-106
16:06:31.088691,-104
16:06:31.088691,-28161
16:06:31.088691,-1
16:06:31.088691,-92
16:06:31.088691,-20225
16:06:31.088691,-1
16:06:31.088691,-85
16:06:31.088691,-20225
16:06:31.088691,-1
16:06:31.088691,-63
16:06:31.088691,-10497
16:06:31.088691,-1
16:06:31.088691,-26
16:06:31.088691,-5633
16:06:31.088691,-1
16:06:31.088691,-21
16:06:31.088691,-2049
16:06:31.088691,-1
16:06:31.088691,-4
16:06:31.088691,255
16:06:31.088691,0
16:06:31.088691,18
16:06:31.088691,8448
16:06:31.088691,0
16:06:31.088691,30
16:06:31.088691,7168
16:06:31.088691,0
16:06:31.088691,35
16:06:31.088691,8448
16:06:31.088691,0
16:06:31.088691,28
16:06:31.088691,7168
16:06:31.088691,0
16:06:31.088691,26
16:06:31.088691,4608
16:06:31.088691,0
16:06:31.088691,14
16:06:31.088691,4096
16:06:31.088691,0
16:06:31.088691,21
16:06:31.088691,4096
16:06:31.088691,0
16:06:31.088691,14
16:06:31.088691,5376
16:06:31.088691,0
16:06:31.088691,21
16:06:31.088691,3584
16:06:31.088691,0
16:06:31.088691,18
16:06:31.088691,5376
16:06:31.088691,0
16:06:31.088691,16
16:06:31.088691,4608
16:06:31.088691,0
16:06:31.088691,18
16:06:31.088691,4608
16:06:31.088691,0
16:06:31.088691,18
16:06:31.088691,4608
16:06:31.088691,0
16:06:31.088691,18
16:06:31.088691,2304
16:06:31.088691,0
16:06:31.088691,7
16:06:31.088691,2816
16:06:31.088691,0
16:06:31.088691,2
16:06:31.088691,3584
16:06:31.088691,0
16:06:31.088691,52
16:06:31.088691,18176
16:06:31.088691,0
16:06:31.088691,66
16:06:31.088691,15104
16:06:31.088691,0
16:06:31.088691,40
16:06:31.088691,5888
16:06:31.088691,0
16:06:31.088691,18
16:06:31.088691,3584
16:06:31.088691,0
16:06:31.088691,16
16:06:31.088691,3584
16:06:31.088691,0
16:06:31.088691,9
16:06:31.088691,1024
16:06:31.088691,0
16:06:31.088691,-23
16:06:31.088691,-15361
16:06:31.088691,-1
16:06:31.088691,33
16:06:31.088691,-29952
16:06:31.088691,1
16:06:31.088691,897
16:06:31.088691,4352
16:06:31.088691,4
16:06:31.088691,575
16:06:31.088691,16896
16:06:31.088691,0
16:06:31.088691,-47
16:06:31.088691,-15873
16:06:31.088691,-1
16:06:31.088691,-137
16:06:31.088691,29439
16:06:31.088691,-1
16:06:31.088691,-111
16:06:31.088691,-29441
16:06:31.088691,-1
16:06:31.088691,-123
16:06:31.583628,-111
16:06:31.583628,-24577
16:06:31.583628,-1
16:06:31.583628,-89
16:06:31.583628,-23809
16:06:31.583628,-1
16:06:31.583628,-87
16:06:31.583628,-16641
16:06:31.583628,-1
16:06:31.583628,-66
16:06:31.583628,-18433
16:06:31.583628,-1
16:06:31.583628,-61
16:06:31.583628,-13057
16:06:31.583628,-1
16:06:31.583628,-52
16:06:31.583628,-9985
16:06:31.583628,-1
16:06:31.583628,-18
16:06:31.583628,-2049
16:06:31.583628,-1
16:06:31.583628,-18
16:06:31.583628,-4353
16:06:31.583628,-1
16:06:31.583628,4
16:06:31.583628,5376
16:06:31.583628,0
16:06:31.583628,14
16:06:31.583628,1792
16:06:31.583628,0
16:06:31.583628,2
16:06:31.583628,-1024
16:06:31.583628,-1
16:06:31.583628,-9
16:06:31.583628,-1537
16:06:31.583628,-1
16:06:31.583628,-16
16:06:31.583628,-4353
16:06:31.583628,-1
16:06:31.583628,-4
16:06:31.583628,-257
16:06:31.583628,-1
16:06:31.583628,-16
16:06:31.583628,-4353
16:06:31.583628,-1
16:06:31.583628,-11
16:06:31.583628,-2049
16:06:31.583628,-1
16:06:31.583628,-7
16:06:31.583628,-1537
16:06:31.583628,-1
16:06:31.583628,-14
16:06:31.583628,-1537
16:06:31.583628,-1
16:06:31.583628,0
16:06:31.583628,-2304
16:06:31.583628,-1
16:06:31.583628,-18
16:06:31.583628,-4353
16:06:31.583628,-1
16:06:31.583628,-18
16:06:31.583628,-6401
16:06:31.583628,-1
16:06:31.583628,-23
16:06:31.583628,2047
16:06:31.583628,0
16:06:31.583628,35
16:06:31.583628,8960
16:06:31.583628,0
16:06:31.583628,28
16:06:31.583628,4608
16:06:31.583628,0
16:06:31.583628,0
16:06:31.583628,-4096
16:06:31.583628,-1
16:06:31.583628,-18
16:06:31.583628,-3329
16:06:31.583628,-1
16:06:31.583628,-21
16:06:31.583628,-8193
16:06:31.583628,-1
16:06:31.583628,-28
16:06:31.583628,-9217
16:06:31.583628,-1
16:06:31.583628,-80
16:06:31.583628,-6913
16:06:31.583628,-1
16:06:31.583628,277
16:06:31.583628,-1536
16:06:31.583628,2
16:06:31.583628,980
16:06:31.583628,20480
16:06:31.583628,2
16:06:31.583628,80
16:06:31.583628,-6656
16:06:31.583628,-1
16:06:31.583628,-30
16:06:31.583628,29439
16:06:31.583628,-1
16:06:31.583628,-163
16:06:31.583628,-30465
16:06:31.583628,-1
16:06:31.583628,-132
16:06:31.583628,30719
16:06:31.583628,-1
16:06:31.583628,-116
16:06:31.583628,-27393
16:06:31.583628,-1
16:06:31.583628,-113
16:06:32.168096,-104
16:06:32.168096,-23297
16:06:32.168096,-1
16:06:32.168096,-89
16:06:32.168096,-21505
16:06:32.168096,-1
16:06:32.168096,-73
16:06:32.168096,-15873
16:06:32.168096,-1
16:06:32.168096,-56
16:06:32.168096,-9217
16:06:32.168096,-1
16:06:32.168096,-7
16:06:32.168096,767
16:06:32.168096,0
16:06:32.168096,2
16:06:32.168096,2816
16:06:32.168096,0
16:06:32.168096,14
16:06:32.168096,2816
16:06:32.168096,0
16:06:32.168096,2
16:06:32.168096,-1792
16:06:32.168096,-1
16:06:32.168096,-7
16:06:32.168096,-3329
16:06:32.168096,-1
16:06:32.168096,-21
16:06:32.168096,-3329
16:06:32.168096,-1
16:06:32.168096,-11
16:06:32.168096,-5121
16:06:32.168096,-1
16:06:32.168096,-28
16:06:32.168096,-5121
16:06:32.168096,-1
16:06:32.168096,-9
16:06:32.168096,-2049
16:06:32.168096,-1
16:06:32.168096,-14
16:06:32.168096,-2561
16:06:32.168096,-1
16:06:32.168096,-9
16:06:32.168096,-2049
16:06:32.168096,-1
16:06:32.168096,0
16:06:32.168096,2816
16:06:32.168096,0
16:06:32.168096,11
16:06:32.168096,1792
16:06:32.168096,0
16:06:32.168096,2
16:06:32.168096,0
16:06:32.168096,0
16:06:32.168096,0
