timestamp,ecg,reconstructed_time
2025-11-07 21:54:11.403434,-615,2025-11-07 21:54:11.403434000
2025-11-07 21:54:11.403434,-22017,2025-11-07 21:54:11.411126308
2025-11-07 21:54:11.403434,-3,2025-11-07 21:54:11.418818615
2025-11-07 21:54:11.403434,-587,2025-11-07 21:54:11.426510923
2025-11-07 21:54:11.403434,-8705,2025-11-07 21:54:11.434203231
2025-11-07 21:54:11.403434,-3,2025-11-07 21:54:11.441895538
2025-11-07 21:54:11.403434,-513,2025-11-07 21:54:11.449587846
2025-11-07 21:54:11.403434,5887,2025-11-07 21:54:11.457280154
2025-11-07 21:54:11.403434,-2,2025-11-07 21:54:11.464972462
2025-11-07 21:54:11.403434,-468,2025-11-07 21:54:11.472664769
2025-11-07 21:54:11.403434,14335,2025-11-07 21:54:11.480357077
2025-11-07 21:54:11.403434,-2,2025-11-07 21:54:11.488049385
2025-11-07 21:54:11.403434,-445,2025-11-07 21:54:11.495741692
2025-11-07 21:54:11.403434,20479,2025-11-07 21:54:11.503434000
2025-11-07 21:54:11.403434,-2,2025-11-07 21:54:11.511126308
2025-11-07 21:54:11.403434,-431,2025-11-07 21:54:11.518818615
2025-11-07 21:54:11.403434,19967,2025-11-07 21:54:11.526510923
2025-11-07 21:54:11.403434,-2,2025-11-07 21:54:11.534203231
2025-11-07 21:54:11.403434,-440,2025-11-07 21:54:11.541895538
2025-11-07 21:54:11.403434,15615,2025-11-07 21:54:11.549587846
2025-11-07 21:54:11.403434,-2,2025-11-07 21:54:11.557280154
2025-11-07 21:54:11.403434,-473,2025-11-07 21:54:11.564972462
2025-11-07 21:54:11.403434,4095,2025-11-07 21:54:11.572664769
2025-11-07 21:54:11.403434,-2,2025-11-07 21:54:11.580357077
2025-11-07 21:54:11.403434,-525,2025-11-07 21:54:11.588049385
2025-11-07 21:54:11.403434,-9729,2025-11-07 21:54:11.595741692
2025-11-07 21:54:11.403434,-3,2025-11-07 21:54:11.603434000
2025-11-07 21:54:11.403434,-577,2025-11-07 21:54:11.611126308
2025-11-07 21:54:11.403434,-23041,2025-11-07 21:54:11.618818615
2025-11-07 21:54:11.403434,-3,2025-11-07 21:54:11.626510923
2025-11-07 21:54:11.403434,-613,2025-11-07 21:54:11.634203231
2025-11-07 21:54:11.403434,-23809,2025-11-07 21:54:11.641895538
2025-11-07 21:54:11.403434,-3,2025-11-07 21:54:11.649587846
2025-11-07 21:54:11.403434,-587,2025-11-07 21:54:11.657280154
2025-11-07 21:54:11.403434,-10497,2025-11-07 21:54:11.664972462
2025-11-07 21:54:11.403434,-3,2025-11-07 21:54:11.672664769
2025-11-07 21:54:11.403434,-494,2025-11-07 21:54:11.680357077
2025-11-07 21:54:11.403434,25343,2025-11-07 21:54:11.688049385
2025-11-07 21:54:11.403434,-2,2025-11-07 21:54:11.695741692
2025-11-07 21:54:11.403434,-307,2025-11-07 21:54:11.703434000
2025-11-07 21:54:11.403434,17407,2025-11-07 21:54:11.711126308
2025-11-07 21:54:11.403434,-1,2025-11-07 21:54:11.718818615
2025-11-07 21:54:11.403434,-75,2025-11-07 21:54:11.726510923
2025-11-07 21:54:11.403434,255,2025-11-07 21:54:11.734203231
2025-11-07 21:54:11.403434,0,2025-11-07 21:54:11.741895538
2025-11-07 21:54:11.403434,49,2025-11-07 21:54:11.749587846
2025-11-07 21:54:11.403434,25856,2025-11-07 21:54:11.757280154
2025-11-07 21:54:11.403434,0,2025-11-07 21:54:11.764972462
2025-11-07 21:54:11.403434,120,2025-11-07 21:54:11.772664769
2025-11-07 21:54:11.403434,25344,2025-11-07 21:54:11.780357077
2025-11-07 21:54:11.403434,0,2025-11-07 21:54:11.788049385
2025-11-07 21:54:11.403434,97,2025-11-07 21:54:11.795741692
2025-11-07 21:54:11.403434,29696,2025-11-07 21:54:11.803434000
2025-11-07 21:54:11.403434,0,2025-11-07 21:54:11.811126308
2025-11-07 21:54:11.403434,118,2025-11-07 21:54:11.818818615
2025-11-07 21:54:11.403434,27136,2025-11-07 21:54:11.826510923
2025-11-07 21:54:11.403434,0,2025-11-07 21:54:11.834203231
2025-11-07 21:54:11.403434,99,2025-11-07 21:54:11.841895538
2025-11-07 21:54:11.403434,26624,2025-11-07 21:54:11.849587846
2025-11-07 21:54:11.403434,0,2025-11-07 21:54:11.857280154
2025-11-07 21:54:11.403434,99,2025-11-07 21:54:11.864972462
2025-11-07 21:54:11.403434,20480,2025-11-07 21:54:11.872664769
2025-11-07 21:54:11.403434,0,2025-11-07 21:54:11.880357077
2025-11-07 21:54:11.403434,68,2025-11-07 21:54:11.888049385
2025-11-07 21:54:11.403434,17408,2025-11-07 21:54:11.895741692
2025-11-07 21:54:11.403434,0,2025-11-07 21:54:11.903434000
2025-11-07 21:54:11.403434,56,2025-11-07 21:54:11.911126308
2025-11-07 21:54:11.403434,10752,2025-11-07 21:54:11.918818615
2025-11-07 21:54:11.403434,0,2025-11-07 21:54:11.926510923
2025-11-07 21:54:11.403434,33,2025-11-07 21:54:11.934203230
2025-11-07 21:54:11.403434,4096,2025-11-07 21:54:11.941895538
2025-11-07 21:54:11.403434,0,2025-11-07 21:54:11.949587846
2025-11-07 21:54:11.403434,4,2025-11-07 21:54:11.957280154
2025-11-07 21:54:11.403434,2304,2025-11-07 21:54:11.964972462
2025-11-07 21:54:11.403434,0,2025-11-07 21:54:11.972664769
2025-11-07 21:54:11.403434,9,2025-11-07 21:54:11.980357077
2025-11-07 21:54:11.403434,512,2025-11-07 21:54:11.988049385
2025-11-07 21:54:11.403434,0,2025-11-07 21:54:11.995741692
2025-11-07 21:54:11.403434,-7,2025-11-07 21:54:12.003434000
2025-11-07 21:54:11.403434,-3329,2025-11-07 21:54:12.011126308
2025-11-07 21:54:11.403434,-1,2025-11-07 21:54:12.018818615
2025-11-07 21:54:11.403434,-4,2025-11-07 21:54:12.026510923
2025-11-07 21:54:11.403434,3071,2025-11-07 21:54:12.034203231
2025-11-07 21:54:11.403434,0,2025-11-07 21:54:12.041895538
2025-11-07 21:54:11.403434,11,2025-11-07 21:54:12.049587846
2025-11-07 21:54:11.403434,1792,2025-11-07 21:54:12.057280154
2025-11-07 21:54:11.403434,0,2025-11-07 21:54:12.064972462
2025-11-07 21:54:11.403434,11,2025-11-07 21:54:12.072664769
2025-11-07 21:54:11.403434,2304,2025-11-07 21:54:12.080357077
2025-11-07 21:54:11.403434,0,2025-11-07 21:54:12.088049385
2025-11-07 21:54:11.403434,4,2025-11-07 21:54:12.095741692
2025-11-07 21:54:11.403434,0,2025-11-07 21:54:12.103434000
2025-11-07 21:54:11.403434,0,2025-11-07 21:54:12.111126308
2025-11-07 21:54:11.403434,-7,2025-11-07 21:54:12.118818615
2025-11-07 21:54:11.403434,-1537,2025-11-07 21:54:12.126510923
2025-11-07 21:54:11.403434,-1,2025-11-07 21:54:12.134203231
2025-11-07 21:54:11.403434,9,2025-11-07 21:54:12.141895538
2025-11-07 21:54:11.403434,7680,2025-11-07 21:54:12.149587846
2025-11-07 21:54:11.403434,0,2025-11-07 21:54:12.157280154
2025-11-07 21:54:11.403434,40,2025-11-07 21:54:12.164972462
2025-11-07 21:54:11.403434,15104,2025-11-07 21:54:12.172664769
2025-11-07 21:54:11.403434,0,2025-11-07 21:54:12.180357077
2025-11-07 21:54:11.403434,80,2025-11-07 21:54:12.188049385
2025-11-07 21:54:11.403434,20992,2025-11-07 21:54:12.195741692
2025-11-07 21:54:11.403434,0,2025-11-07 21:54:12.203434000
2025-11-07 21:54:11.403434,66,2025-11-07 21:54:12.211126308
2025-11-07 21:54:11.403434,14336,2025-11-07 21:54:12.218818615
2025-11-07 21:54:11.403434,0,2025-11-07 21:54:12.226510923
2025-11-07 21:54:11.403434,49,2025-11-07 21:54:12.234203231
2025-11-07 21:54:11.943842,33,2025-11-07 21:54:12.241895538
2025-11-07 21:54:11.943842,5376,2025-11-07 21:54:12.249587846
2025-11-07 21:54:11.943842,0,2025-11-07 21:54:12.257280154
2025-11-07 21:54:11.943842,23,2025-11-07 21:54:12.264972462
2025-11-07 21:54:11.943842,5376,2025-11-07 21:54:12.272664769
2025-11-07 21:54:11.943842,0,2025-11-07 21:54:12.280357077
2025-11-07 21:54:11.943842,0,2025-11-07 21:54:12.288049385
2025-11-07 21:54:11.943842,-1792,2025-11-07 21:54:12.295741692
2025-11-07 21:54:11.943842,-1,2025-11-07 21:54:12.303434000
2025-11-07 21:54:11.943842,14,2025-11-07 21:54:12.311126308
2025-11-07 21:54:11.943842,2304,2025-11-07 21:54:12.318818615
2025-11-07 21:54:11.943842,0,2025-11-07 21:54:12.326510923
2025-11-07 21:54:11.943842,-56,2025-11-07 21:54:12.334203231
2025-11-07 21:54:11.943842,-18945,2025-11-07 21:54:12.341895538
2025-11-07 21:54:11.943842,-1,2025-11-07 21:54:12.349587846
2025-11-07 21:54:11.943842,175,2025-11-07 21:54:12.357280154
2025-11-07 21:54:11.943842,20224,2025-11-07 21:54:12.364972462
2025-11-07 21:54:11.943842,3,2025-11-07 21:54:12.372664769
2025-11-07 21:54:11.943842,1979,2025-11-07 21:54:12.380357077
2025-11-07 21:54:11.943842,-24064,2025-11-07 21:54:12.388049385
2025-11-07 21:54:11.943842,12,2025-11-07 21:54:12.395741692
2025-11-07 21:54:11.943842,3815,2025-11-07 21:54:12.403434000
2025-11-07 21:54:11.943842,20224,2025-11-07 21:54:12.411126308
2025-11-07 21:54:11.943842,13,2025-11-07 21:54:12.418818615
2025-11-07 21:54:11.943842,2604,2025-11-07 21:54:12.426510923
2025-11-07 21:54:11.943842,20736,2025-11-07 21:54:12.434203231
2025-11-07 21:54:11.943842,6,2025-11-07 21:54:12.441895538
2025-11-07 21:54:11.943842,146,2025-11-07 21:54:12.449587846
2025-11-07 21:54:11.943842,5120,2025-11-07 21:54:12.457280154
2025-11-07 21:54:11.943842,-4,2025-11-07 21:54:12.464972462
2025-11-07 21:54:11.943842,-961,2025-11-07 21:54:12.472664769
2025-11-07 21:54:11.943842,32767,2025-11-07 21:54:12.480357077
2025-11-07 21:54:11.943842,-3,2025-11-07 21:54:12.488049385
2025-11-07 21:54:11.943842,-757,2025-11-07 21:54:12.495741692
2025-11-07 21:54:11.943842,-4865,2025-11-07 21:54:12.503434000
2025-11-07 21:54:11.943842,-4,2025-11-07 21:54:12.511126308
2025-11-07 21:54:11.943842,-655,2025-11-07 21:54:12.518818615
2025-11-07 21:54:11.943842,-30977,2025-11-07 21:54:12.526510923
2025-11-07 21:54:11.943842,-3,2025-11-07 21:54:12.534203231
2025-11-07 21:54:11.943842,-627,2025-11-07 21:54:12.541895538
2025-11-07 21:54:11.943842,-14081,2025-11-07 21:54:12.549587846
2025-11-07 21:54:11.943842,-3,2025-11-07 21:54:12.557280154
2025-11-07 21:54:11.943842,-547,2025-11-07 21:54:12.564972462
2025-11-07 21:54:11.943842,-7425,2025-11-07 21:54:12.572664769
2025-11-07 21:54:11.943842,-3,2025-11-07 21:54:12.580357077
2025-11-07 21:54:11.943842,-513,2025-11-07 21:54:12.588049385
2025-11-07 21:54:11.943842,7679,2025-11-07 21:54:12.595741692
2025-11-07 21:54:11.943842,-2,2025-11-07 21:54:12.603434000
2025-11-07 21:54:11.943842,-468,2025-11-07 21:54:12.611126308
2025-11-07 21:54:11.943842,13823,2025-11-07 21:54:12.618818615
2025-11-07 21:54:11.943842,-2,2025-11-07 21:54:12.626510923
2025-11-07 21:54:11.943842,-454,2025-11-07 21:54:12.634203231
2025-11-07 21:54:11.943842,17407,2025-11-07 21:54:12.641895538
2025-11-07 21:54:11.943842,-2,2025-11-07 21:54:12.649587846
2025-11-07 21:54:11.943842,-421,2025-11-07 21:54:12.657280154
2025-11-07 21:54:11.943842,24831,2025-11-07 21:54:12.664972462
2025-11-07 21:54:11.943842,-2,2025-11-07 21:54:12.672664769
2025-11-07 21:54:11.943842,-431,2025-11-07 21:54:12.680357077
2025-11-07 21:54:11.943842,20991,2025-11-07 21:54:12.688049385
2025-11-07 21:54:11.943842,-2,2025-11-07 21:54:12.695741692
2025-11-07 21:54:11.943842,-435,2025-11-07 21:54:12.703434000
2025-11-07 21:54:11.943842,13311,2025-11-07 21:54:12.711126308
2025-11-07 21:54:11.943842,-2,2025-11-07 21:54:12.718818615
2025-11-07 21:54:11.943842,-494,2025-11-07 21:54:12.726510923
2025-11-07 21:54:11.943842,-1793,2025-11-07 21:54:12.734203231
2025-11-07 21:54:11.943842,-3,2025-11-07 21:54:12.741895538
2025-11-07 21:54:11.943842,-544,2025-11-07 21:54:12.749587846
2025-11-07 21:54:11.943842,-14081,2025-11-07 21:54:12.757280154
2025-11-07 21:54:11.943842,-3,2025-11-07 21:54:12.764972462
2025-11-07 21:54:11.943842,-587,2025-11-07 21:54:12.772664769
2025-11-07 21:54:11.943842,-22017,2025-11-07 21:54:12.780357077
2025-11-07 21:54:11.943842,-3,2025-11-07 21:54:12.788049385
2025-11-07 21:54:11.943842,-599,2025-11-07 21:54:12.795741692
2025-11-07 21:54:11.943842,-16385,2025-11-07 21:54:12.803434000
2025-11-07 21:54:11.943842,-3,2025-11-07 21:54:12.811126308
2025-11-07 21:54:11.943842,-539,2025-11-07 21:54:12.818818615
2025-11-07 21:54:11.943842,5887,2025-11-07 21:54:12.826510923
2025-11-07 21:54:11.943842,-2,2025-11-07 21:54:12.834203231
2025-11-07 21:54:11.943842,-414,2025-11-07 21:54:12.841895538
2025-11-07 21:54:11.943842,-12289,2025-11-07 21:54:12.849587846
2025-11-07 21:54:11.943842,-2,2025-11-07 21:54:12.857280154
2025-11-07 21:54:11.943842,-189,2025-11-07 21:54:12.864972462
2025-11-07 21:54:11.943842,-22529,2025-11-07 21:54:12.872664769
2025-11-07 21:54:11.943842,-1,2025-11-07 21:54:12.880357077
2025-11-07 21:54:11.943842,-11,2025-11-07 21:54:12.888049385
2025-11-07 21:54:11.943842,11007,2025-11-07 21:54:12.895741692
2025-11-07 21:54:11.943842,0,2025-11-07 21:54:12.903434000
2025-11-07 21:54:11.943842,73,2025-11-07 21:54:12.911126308
2025-11-07 21:54:11.943842,23552,2025-11-07 21:54:12.918818615
2025-11-07 21:54:11.943842,0,2025-11-07 21:54:12.926510923
2025-11-07 21:54:11.943842,104,2025-11-07 21:54:12.934203230
2025-11-07 21:54:11.943842,27136,2025-11-07 21:54:12.941895538
2025-11-07 21:54:11.943842,0,2025-11-07 21:54:12.949587846
2025-11-07 21:54:11.943842,111,2025-11-07 21:54:12.957280154
2025-11-07 21:54:11.943842,28416,2025-11-07 21:54:12.964972462
2025-11-07 21:54:11.943842,0,2025-11-07 21:54:12.972664769
2025-11-07 21:54:11.943842,106,2025-11-07 21:54:12.980357077
2025-11-07 21:54:11.943842,25856,2025-11-07 21:54:12.988049385
2025-11-07 21:54:11.943842,0,2025-11-07 21:54:12.995741692
2025-11-07 21:54:11.943842,97,2025-11-07 21:54:13.003434000
2025-11-07 21:54:11.943842,24064,2025-11-07 21:54:13.011126308
2025-11-07 21:54:11.943842,0,2025-11-07 21:54:13.018818615
2025-11-07 21:54:11.943842,92,2025-11-07 21:54:13.026510923
2025-11-07 21:54:11.943842,20992,2025-11-07 21:54:13.034203231
2025-11-07 21:54:11.943842,0,2025-11-07 21:54:13.041895538
2025-11-07 21:54:11.943842,73,2025-11-07 21:54:13.049587846
2025-11-07 21:54:11.943842,18176,2025-11-07 21:54:13.057280154
2025-11-07 21:54:11.943842,0,2025-11-07 21:54:13.064972462
2025-11-07 21:54:11.943842,61,2025-11-07 21:54:13.072664769
2025-11-07 21:54:12.529533,47,2025-11-07 21:54:13.080357077
2025-11-07 21:54:12.529533,11264,2025-11-07 21:54:13.088049385
2025-11-07 21:54:12.529533,0,2025-11-07 21:54:13.095741692
2025-11-07 21:54:12.529533,44,2025-11-07 21:54:13.103434000
2025-11-07 21:54:12.529533,9472,2025-11-07 21:54:13.111126308
2025-11-07 21:54:12.529533,0,2025-11-07 21:54:13.118818615
2025-11-07 21:54:12.529533,33,2025-11-07 21:54:13.126510923
2025-11-07 21:54:12.529533,8448,2025-11-07 21:54:13.134203231
2025-11-07 21:54:12.529533,0,2025-11-07 21:54:13.141895538
2025-11-07 21:54:12.529533,40,2025-11-07 21:54:13.149587846
2025-11-07 21:54:12.529533,11264,2025-11-07 21:54:13.157280154
2025-11-07 21:54:12.529533,0,2025-11-07 21:54:13.164972462
2025-11-07 21:54:12.529533,40,2025-11-07 21:54:13.172664769
2025-11-07 21:54:12.529533,10240,2025-11-07 21:54:13.180357077
2025-11-07 21:54:12.529533,0,2025-11-07 21:54:13.188049385
2025-11-07 21:54:12.529533,63,2025-11-07 21:54:13.195741692
2025-11-07 21:54:12.529533,22272,2025-11-07 21:54:13.203434000
2025-11-07 21:54:12.529533,0,2025-11-07 21:54:13.211126308
2025-11-07 21:54:12.529533,92,2025-11-07 21:54:13.218818615
2025-11-07 21:54:12.529533,22784,2025-11-07 21:54:13.226510923
2025-11-07 21:54:12.529533,0,2025-11-07 21:54:13.234203231
2025-11-07 21:54:12.529533,92,2025-11-07 21:54:13.241895538
2025-11-07 21:54:12.529533,24064,2025-11-07 21:54:13.249587846
2025-11-07 21:54:12.529533,0,2025-11-07 21:54:13.257280154
2025-11-07 21:54:12.529533,92,2025-11-07 21:54:13.264972462
2025-11-07 21:54:12.529533,24832,2025-11-07 21:54:13.272664769
2025-11-07 21:54:12.529533,0,2025-11-07 21:54:13.280357077
2025-11-07 21:54:12.529533,99,2025-11-07 21:54:13.288049385
2025-11-07 21:54:12.529533,24832,2025-11-07 21:54:13.295741692
2025-11-07 21:54:12.529533,0,2025-11-07 21:54:13.303434000
2025-11-07 21:54:12.529533,101,2025-11-07 21:54:13.311126308
2025-11-07 21:54:12.529533,25856,2025-11-07 21:54:13.318818615
2025-11-07 21:54:12.529533,0,2025-11-07 21:54:13.326510923
2025-11-07 21:54:12.529533,101,2025-11-07 21:54:13.334203231
2025-11-07 21:54:12.529533,25856,2025-11-07 21:54:13.341895538
2025-11-07 21:54:12.529533,0,2025-11-07 21:54:13.349587846
2025-11-07 21:54:12.529533,94,2025-11-07 21:54:13.357280154
2025-11-07 21:54:12.529533,21760,2025-11-07 21:54:13.364972462
2025-11-07 21:54:12.529533,0,2025-11-07 21:54:13.372664769
2025-11-07 21:54:12.529533,75,2025-11-07 21:54:13.380357077
2025-11-07 21:54:12.529533,19200,2025-11-07 21:54:13.388049385
2025-11-07 21:54:12.529533,0,2025-11-07 21:54:13.395741692
2025-11-07 21:54:12.529533,92,2025-11-07 21:54:13.403434000
2025-11-07 21:54:12.529533,27648,2025-11-07 21:54:13.411126308
2025-11-07 21:54:12.529533,0,2025-11-07 21:54:13.418818615
2025-11-07 21:54:12.529533,120,2025-11-07 21:54:13.426510923
2025-11-07 21:54:12.529533,-27392,2025-11-07 21:54:13.434203231
2025-11-07 21:54:12.529533,0,2025-11-07 21:54:13.441895538
2025-11-07 21:54:12.529533,168,2025-11-07 21:54:13.449587846
2025-11-07 21:54:12.529533,-25600,2025-11-07 21:54:13.457280154
2025-11-07 21:54:12.529533,0,2025-11-07 21:54:13.464972462
2025-11-07 21:54:12.529533,142,2025-11-07 21:54:13.472664769
2025-11-07 21:54:12.529533,-31232,2025-11-07 21:54:13.480357077
2025-11-07 21:54:12.529533,0,2025-11-07 21:54:13.488049385
2025-11-07 21:54:12.529533,113,2025-11-07 21:54:13.495741692
2025-11-07 21:54:12.529533,22272,2025-11-07 21:54:13.503434000
2025-11-07 21:54:12.529533,0,2025-11-07 21:54:13.511126308
2025-11-07 21:54:12.529533,82,2025-11-07 21:54:13.518818615
2025-11-07 21:54:12.529533,22272,2025-11-07 21:54:13.526510923
2025-11-07 21:54:12.529533,0,2025-11-07 21:54:13.534203231
2025-11-07 21:54:12.529533,80,2025-11-07 21:54:13.541895538
2025-11-07 21:54:12.529533,19200,2025-11-07 21:54:13.549587846
2025-11-07 21:54:12.529533,0,2025-11-07 21:54:13.557280154
2025-11-07 21:54:12.529533,80,2025-11-07 21:54:13.564972462
2025-11-07 21:54:12.529533,19200,2025-11-07 21:54:13.572664769
2025-11-07 21:54:12.529533,0,2025-11-07 21:54:13.580357077
2025-11-07 21:54:12.529533,52,2025-11-07 21:54:13.588049385
2025-11-07 21:54:12.529533,0,2025-11-07 21:54:13.595741692
2025-11-07 21:54:12.529533,0,2025-11-07 21:54:13.603434000
2025-11-07 21:54:12.529533,21,2025-11-07 21:54:13.611126308
2025-11-07 21:54:12.529533,22272,2025-11-07 21:54:13.618818615
2025-11-07 21:54:12.529533,1,2025-11-07 21:54:13.626510923
2025-11-07 21:54:12.529533,1127,2025-11-07 21:54:13.634203231
2025-11-07 21:54:12.529533,12544,2025-11-07 21:54:13.641895538
2025-11-07 21:54:12.529533,9,2025-11-07 21:54:13.649587846
2025-11-07 21:54:12.529533,3620,2025-11-07 21:54:13.657280154
2025-11-07 21:54:12.529533,11008,2025-11-07 21:54:13.664972462
2025-11-07 21:54:12.529533,16,2025-11-07 21:54:13.672664769
2025-11-07 21:54:12.529533,3609,2025-11-07 21:54:13.680357077
2025-11-07 21:54:12.529533,19968,2025-11-07 21:54:13.688049385
2025-11-07 21:54:12.529533,10,2025-11-07 21:54:13.695741692
2025-11-07 21:54:12.529533,1468,2025-11-07 21:54:13.703434000
2025-11-07 21:54:12.529533,-21760,2025-11-07 21:54:13.711126308
2025-11-07 21:54:12.529533,-1,2025-11-07 21:54:13.718818615
2025-11-07 21:54:12.529533,-1091,2025-11-07 21:54:13.726510923
2025-11-07 21:54:12.529533,30207,2025-11-07 21:54:13.734203231
2025-11-07 21:54:12.529533,-4,2025-11-07 21:54:13.741895538
2025-11-07 21:54:12.529533,-637,2025-11-07 21:54:13.749587846
2025-11-07 21:54:12.529533,-6145,2025-11-07 21:54:13.757280154
2025-11-07 21:54:12.529533,-4,2025-11-07 21:54:13.764972462
2025-11-07 21:54:12.529533,-776,2025-11-07 21:54:13.772664769
2025-11-07 21:54:12.529533,-30977,2025-11-07 21:54:13.780357077
2025-11-07 21:54:12.529533,-3,2025-11-07 21:54:13.788049385
2025-11-07 21:54:12.529533,-646,2025-11-07 21:54:13.795741692
2025-11-07 21:54:12.529533,31487,2025-11-07 21:54:13.803434000
2025-11-07 21:54:12.529533,-3,2025-11-07 21:54:13.811126308
2025-11-07 21:54:12.529533,-570,2025-11-07 21:54:13.818818615
2025-11-07 21:54:12.529533,-9217,2025-11-07 21:54:13.826510923
2025-11-07 21:54:12.529533,-3,2025-11-07 21:54:13.834203231
2025-11-07 21:54:12.529533,-547,2025-11-07 21:54:13.841895538
2025-11-07 21:54:12.529533,1023,2025-11-07 21:54:13.849587846
2025-11-07 21:54:12.529533,-2,2025-11-07 21:54:13.857280154
2025-11-07 21:54:12.529533,-478,2025-11-07 21:54:13.864972462
2025-11-07 21:54:12.529533,11519,2025-11-07 21:54:13.872664769
2025-11-07 21:54:12.529533,-2,2025-11-07 21:54:13.880357077
2025-11-07 21:54:12.529533,-449,2025-11-07 21:54:13.888049385
2025-11-07 21:54:12.529533,20479,2025-11-07 21:54:13.895741692
2025-11-07 21:54:12.529533,-2,2025-11-07 21:54:13.903434000
2025-11-07 21:54:12.529533,-428,2025-11-07 21:54:13.911126308
2025-11-07 21:54:13.024069,-428,2025-11-07 21:54:13.918818615
2025-11-07 21:54:13.024069,23039,2025-11-07 21:54:13.926510923
2025-11-07 21:54:13.024069,-2,2025-11-07 21:54:13.934203230
2025-11-07 21:54:13.024069,-419,2025-11-07 21:54:13.941895538
2025-11-07 21:54:13.024069,22271,2025-11-07 21:54:13.949587846
2025-11-07 21:54:13.024069,-2,2025-11-07 21:54:13.957280154
2025-11-07 21:54:13.024069,-445,2025-11-07 21:54:13.964972462
2025-11-07 21:54:13.024069,12031,2025-11-07 21:54:13.972664769
2025-11-07 21:54:13.024069,-2,2025-11-07 21:54:13.980357077
2025-11-07 21:54:13.024069,-483,2025-11-07 21:54:13.988049385
2025-11-07 21:54:13.024069,3583,2025-11-07 21:54:13.995741692
2025-11-07 21:54:13.024069,-2,2025-11-07 21:54:14.003434000
2025-11-07 21:54:13.024069,-532,2025-11-07 21:54:14.011126308
2025-11-07 21:54:13.024069,-14593,2025-11-07 21:54:14.018818615
2025-11-07 21:54:13.024069,-3,2025-11-07 21:54:14.026510923
2025-11-07 21:54:13.024069,-596,2025-11-07 21:54:14.034203231
2025-11-07 21:54:13.024069,-24833,2025-11-07 21:54:14.041895538
2025-11-07 21:54:13.024069,-3,2025-11-07 21:54:14.049587846
2025-11-07 21:54:13.024069,-608,2025-11-07 21:54:14.057280154
2025-11-07 21:54:13.024069,-18177,2025-11-07 21:54:14.064972462
2025-11-07 21:54:13.024069,-3,2025-11-07 21:54:14.072664769
2025-11-07 21:54:13.024069,-539,2025-11-07 21:54:14.080357077
2025-11-07 21:54:13.024069,9471,2025-11-07 21:54:14.088049385
2025-11-07 21:54:13.024069,-2,2025-11-07 21:54:14.095741692
2025-11-07 21:54:13.024069,-395,2025-11-07 21:54:14.103434000
2025-11-07 21:54:13.024069,-6913,2025-11-07 21:54:14.111126308
2025-11-07 21:54:13.024069,-2,2025-11-07 21:54:14.118818615
2025-11-07 21:54:13.024069,-161,2025-11-07 21:54:14.126510923
2025-11-07 21:54:13.024069,-13057,2025-11-07 21:54:14.134203231
2025-11-07 21:54:13.024069,-1,2025-11-07 21:54:14.141895538
2025-11-07 21:54:13.024069,28,2025-11-07 21:54:14.149587846
2025-11-07 21:54:13.024069,20992,2025-11-07 21:54:14.157280154
2025-11-07 21:54:13.024069,0,2025-11-07 21:54:14.164972462
2025-11-07 21:54:13.024069,113,2025-11-07 21:54:14.172664769
2025-11-07 21:54:13.024069,-29952,2025-11-07 21:54:14.180357077
2025-11-07 21:54:13.024069,0,2025-11-07 21:54:14.188049385
2025-11-07 21:54:13.024069,151,2025-11-07 21:54:14.195741692
2025-11-07 21:54:13.024069,-28160,2025-11-07 21:54:14.203434000
2025-11-07 21:54:13.024069,0,2025-11-07 21:54:14.211126308
2025-11-07 21:54:13.024069,137,2025-11-07 21:54:14.218818615
2025-11-07 21:54:13.024069,-31232,2025-11-07 21:54:14.226510923
2025-11-07 21:54:13.024069,0,2025-11-07 21:54:14.234203231
2025-11-07 21:54:13.024069,134,2025-11-07 21:54:14.241895538
2025-11-07 21:54:13.024069,32512,2025-11-07 21:54:14.249587846
2025-11-07 21:54:13.024069,0,2025-11-07 21:54:14.257280154
2025-11-07 21:54:13.024069,116,2025-11-07 21:54:14.264972462
2025-11-07 21:54:13.024069,27648,2025-11-07 21:54:14.272664769
2025-11-07 21:54:13.024069,0,2025-11-07 21:54:14.280357077
2025-11-07 21:54:13.024069,99,2025-11-07 21:54:14.288049385
2025-11-07 21:54:13.024069,24832,2025-11-07 21:54:14.295741692
2025-11-07 21:54:13.024069,0,2025-11-07 21:54:14.303434000
2025-11-07 21:54:13.024069,87,2025-11-07 21:54:14.311126308
2025-11-07 21:54:13.024069,18688,2025-11-07 21:54:14.318818615
2025-11-07 21:54:13.024069,0,2025-11-07 21:54:14.326510923
2025-11-07 21:54:13.024069,66,2025-11-07 21:54:14.334203231
2025-11-07 21:54:13.024069,15616,2025-11-07 21:54:14.341895538
2025-11-07 21:54:13.024069,0,2025-11-07 21:54:14.349587846
2025-11-07 21:54:13.024069,52,2025-11-07 21:54:14.357280154
2025-11-07 21:54:13.024069,10240,2025-11-07 21:54:14.364972462
2025-11-07 21:54:13.024069,0,2025-11-07 21:54:14.372664769
2025-11-07 21:54:13.024069,30,2025-11-07 21:54:14.380357077
2025-11-07 21:54:13.024069,6656,2025-11-07 21:54:14.388049385
2025-11-07 21:54:13.024069,0,2025-11-07 21:54:14.395741692
2025-11-07 21:54:13.024069,23,2025-11-07 21:54:14.403434000
2025-11-07 21:54:13.024069,5888,2025-11-07 21:54:14.411126308
2025-11-07 21:54:13.024069,0,2025-11-07 21:54:14.418818615
2025-11-07 21:54:13.024069,21,2025-11-07 21:54:14.426510923
2025-11-07 21:54:13.024069,5888,2025-11-07 21:54:14.434203231
2025-11-07 21:54:13.024069,0,2025-11-07 21:54:14.441895538
2025-11-07 21:54:13.024069,28,2025-11-07 21:54:14.449587846
2025-11-07 21:54:13.024069,7680,2025-11-07 21:54:14.457280154
2025-11-07 21:54:13.024069,0,2025-11-07 21:54:14.464972462
2025-11-07 21:54:13.024069,35,2025-11-07 21:54:14.472664769
2025-11-07 21:54:13.024069,9472,2025-11-07 21:54:14.480357077
2025-11-07 21:54:13.024069,0,2025-11-07 21:54:14.488049385
2025-11-07 21:54:13.024069,40,2025-11-07 21:54:14.495741692
2025-11-07 21:54:13.024069,12032,2025-11-07 21:54:14.503434000
2025-11-07 21:54:13.024069,0,2025-11-07 21:54:14.511126308
2025-11-07 21:54:13.024069,44,2025-11-07 21:54:14.518818615
2025-11-07 21:54:13.024069,9472,2025-11-07 21:54:14.526510923
2025-11-07 21:54:13.024069,0,2025-11-07 21:54:14.534203231
2025-11-07 21:54:13.024069,42,2025-11-07 21:54:14.541895538
2025-11-07 21:54:13.024069,13312,2025-11-07 21:54:14.549587846
2025-11-07 21:54:13.024069,0,2025-11-07 21:54:14.557280154
2025-11-07 21:54:13.024069,47,2025-11-07 21:54:14.564972462
2025-11-07 21:54:13.024069,10752,2025-11-07 21:54:14.572664769
2025-11-07 21:54:13.024069,0,2025-11-07 21:54:14.580357077
2025-11-07 21:54:13.024069,47,2025-11-07 21:54:14.588049385
2025-11-07 21:54:13.024069,12544,2025-11-07 21:54:14.595741692
2025-11-07 21:54:13.024069,0,2025-11-07 21:54:14.603434000
2025-11-07 21:54:13.024069,42,2025-11-07 21:54:14.611126308
2025-11-07 21:54:13.024069,9472,2025-11-07 21:54:14.618818615
2025-11-07 21:54:13.024069,0,2025-11-07 21:54:14.626510923
2025-11-07 21:54:13.024069,33,2025-11-07 21:54:14.634203231
2025-11-07 21:54:13.024069,5376,2025-11-07 21:54:14.641895538
2025-11-07 21:54:13.024069,0,2025-11-07 21:54:14.649587846
2025-11-07 21:54:13.024069,26,2025-11-07 21:54:14.657280154
2025-11-07 21:54:13.024069,13824,2025-11-07 21:54:14.664972462
2025-11-07 21:54:13.024069,0,2025-11-07 21:54:14.672664769
2025-11-07 21:54:13.024069,73,2025-11-07 21:54:14.680357077
2025-11-07 21:54:13.024069,20992,2025-11-07 21:54:14.688049385
2025-11-07 21:54:13.024069,0,2025-11-07 21:54:14.695741692
2025-11-07 21:54:13.024069,111,2025-11-07 21:54:14.703434000
2025-11-07 21:54:13.024069,30208,2025-11-07 21:54:14.711126308
2025-11-07 21:54:13.024069,0,2025-11-07 21:54:14.718818615
2025-11-07 21:54:13.024069,94,2025-11-07 21:54:14.726510923
2025-11-07 21:54:13.024069,21760,2025-11-07 21:54:14.734203231
2025-11-07 21:54:13.024069,0,2025-11-07 21:54:14.741895538
2025-11-07 21:54:13.024069,92,2025-11-07 21:54:14.749587846
2025-11-07 21:54:13.608926,66,2025-11-07 21:54:14.757280154
2025-11-07 21:54:13.608926,7680,2025-11-07 21:54:14.764972462
2025-11-07 21:54:13.608926,0,2025-11-07 21:54:14.772664769
2025-11-07 21:54:13.608926,33,2025-11-07 21:54:14.780357077
2025-11-07 21:54:13.608926,10752,2025-11-07 21:54:14.788049385
2025-11-07 21:54:13.608926,0,2025-11-07 21:54:14.795741692
2025-11-07 21:54:13.608926,40,2025-11-07 21:54:14.803434000
2025-11-07 21:54:13.608926,13312,2025-11-07 21:54:14.811126308
2025-11-07 21:54:13.608926,0,2025-11-07 21:54:14.818818615
2025-11-07 21:54:13.608926,61,2025-11-07 21:54:14.826510923
2025-11-07 21:54:13.608926,12544,2025-11-07 21:54:14.834203231
2025-11-07 21:54:13.608926,0,2025-11-07 21:54:14.841895538
2025-11-07 21:54:13.608926,14,2025-11-07 21:54:14.849587846
2025-11-07 21:54:13.608926,-8960,2025-11-07 21:54:14.857280154
2025-11-07 21:54:13.608926,-1,2025-11-07 21:54:14.864972462
2025-11-07 21:54:13.608926,61,2025-11-07 21:54:14.872664769
2025-11-07 21:54:13.608926,6912,2025-11-07 21:54:14.880357077
2025-11-07 21:54:13.608926,2,2025-11-07 21:54:14.888049385
2025-11-07 21:54:13.608926,1506,2025-11-07 21:54:14.895741692
2025-11-07 21:54:13.608926,5888,2025-11-07 21:54:14.903434000
2025-11-07 21:54:13.608926,11,2025-11-07 21:54:14.911126308
2025-11-07 21:54:13.608926,3924,2025-11-07 21:54:14.918818615
2025-11-07 21:54:13.608926,-17408,2025-11-07 21:54:14.926510923
2025-11-07 21:54:13.608926,15,2025-11-07 21:54:14.934203230
2025-11-07 21:54:13.608926,3279,2025-11-07 21:54:14.941895538
2025-11-07 21:54:13.608926,-3072,2025-11-07 21:54:14.949587846
2025-11-07 21:54:13.608926,8,2025-11-07 21:54:14.957280154
2025-11-07 21:54:13.608926,966,2025-11-07 21:54:14.964972462
2025-11-07 21:54:13.608926,-15616,2025-11-07 21:54:14.972664769
2025-11-07 21:54:13.608926,-3,2025-11-07 21:54:14.980357077
2025-11-07 21:54:13.608926,-1172,2025-11-07 21:54:14.988049385
2025-11-07 21:54:13.608926,-12801,2025-11-07 21:54:14.995741692
2025-11-07 21:54:13.608926,-4,2025-11-07 21:54:15.003434000
2025-11-07 21:54:13.608926,-712,2025-11-07 21:54:15.011126308
2025-11-07 21:54:13.608926,-22529,2025-11-07 21:54:15.018818615
2025-11-07 21:54:13.608926,-4,2025-11-07 21:54:15.026510923
2025-11-07 21:54:13.608926,-753,2025-11-07 21:54:15.034203231
2025-11-07 21:54:13.608926,29183,2025-11-07 21:54:15.041895538
2025-11-07 21:54:13.608926,-3,2025-11-07 21:54:15.049587846
2025-11-07 21:54:13.608926,-686,2025-11-07 21:54:15.057280154
2025-11-07 21:54:13.608926,29695,2025-11-07 21:54:15.064972462
2025-11-07 21:54:13.608926,-3,2025-11-07 21:54:15.072664769
2025-11-07 21:54:13.608926,-589,2025-11-07 21:54:15.080357077
2025-11-07 21:54:13.608926,-17153,2025-11-07 21:54:15.088049385
2025-11-07 21:54:13.608926,-3,2025-11-07 21:54:15.095741692
2025-11-07 21:54:13.608926,-561,2025-11-07 21:54:15.103434000
2025-11-07 21:54:13.608926,-2561,2025-11-07 21:54:15.111126308
2025-11-07 21:54:13.608926,-3,2025-11-07 21:54:15.118818615
2025-11-07 21:54:13.608926,-506,2025-11-07 21:54:15.126510923
2025-11-07 21:54:13.608926,4863,2025-11-07 21:54:15.134203231
2025-11-07 21:54:13.608926,-2,2025-11-07 21:54:15.141895538
2025-11-07 21:54:13.608926,-468,2025-11-07 21:54:15.149587846
2025-11-07 21:54:13.608926,16383,2025-11-07 21:54:15.157280154
2025-11-07 21:54:13.608926,-2,2025-11-07 21:54:15.164972462
2025-11-07 21:54:13.608926,-442,2025-11-07 21:54:15.172664769
2025-11-07 21:54:13.608926,19967,2025-11-07 21:54:15.180357077
2025-11-07 21:54:13.608926,-2,2025-11-07 21:54:15.188049385
2025-11-07 21:54:13.608926,-431,2025-11-07 21:54:15.195741692
2025-11-07 21:54:13.608926,19967,2025-11-07 21:54:15.203434000
2025-11-07 21:54:13.608926,-2,2025-11-07 21:54:15.211126308
2025-11-07 21:54:13.608926,-447,2025-11-07 21:54:15.218818615
2025-11-07 21:54:13.608926,15103,2025-11-07 21:54:15.226510923
2025-11-07 21:54:13.608926,-2,2025-11-07 21:54:15.234203231
2025-11-07 21:54:13.608926,-476,2025-11-07 21:54:15.241895538
2025-11-07 21:54:13.608926,1023,2025-11-07 21:54:15.249587846
2025-11-07 21:54:13.608926,-2,2025-11-07 21:54:15.257280154
2025-11-07 21:54:13.608926,-532,2025-11-07 21:54:15.264972462
2025-11-07 21:54:13.608926,-12289,2025-11-07 21:54:15.272664769
2025-11-07 21:54:13.608926,-3,2025-11-07 21:54:15.280357077
2025-11-07 21:54:13.608926,-596,2025-11-07 21:54:15.288049385
2025-11-07 21:54:13.608926,-26113,2025-11-07 21:54:15.295741692
2025-11-07 21:54:13.608926,-3,2025-11-07 21:54:15.303434000
2025-11-07 21:54:13.608926,-622,2025-11-07 21:54:15.311126308
2025-11-07 21:54:13.608926,-27393,2025-11-07 21:54:15.318818615
2025-11-07 21:54:13.608926,-3,2025-11-07 21:54:15.326510923
2025-11-07 21:54:13.608926,-599,2025-11-07 21:54:15.334203231
2025-11-07 21:54:13.608926,-9729,2025-11-07 21:54:15.341895538
2025-11-07 21:54:13.608926,-3,2025-11-07 21:54:15.349587846
2025-11-07 21:54:13.608926,-485,2025-11-07 21:54:15.357280154
2025-11-07 21:54:13.608926,30719,2025-11-07 21:54:15.364972462
2025-11-07 21:54:13.608926,-2,2025-11-07 21:54:15.372664769
2025-11-07 21:54:13.608926,-274,2025-11-07 21:54:15.380357077
2025-11-07 21:54:13.608926,25855,2025-11-07 21:54:15.388049385
2025-11-07 21:54:13.608926,-1,2025-11-07 21:54:15.395741692
2025-11-07 21:54:13.608926,-63,2025-11-07 21:54:15.403434000
2025-11-07 21:54:13.608926,2047,2025-11-07 21:54:15.411126308
2025-11-07 21:54:13.608926,0,2025-11-07 21:54:15.418818615
2025-11-07 21:54:13.608926,63,2025-11-07 21:54:15.426510923
2025-11-07 21:54:13.608926,25856,2025-11-07 21:54:15.434203231
2025-11-07 21:54:13.608926,0,2025-11-07 21:54:15.441895538
2025-11-07 21:54:13.608926,113,2025-11-07 21:54:15.449587846
2025-11-07 21:54:13.608926,29696,2025-11-07 21:54:15.457280154
2025-11-07 21:54:13.608926,0,2025-11-07 21:54:15.464972462
2025-11-07 21:54:13.608926,120,2025-11-07 21:54:15.472664769
2025-11-07 21:54:13.608926,29696,2025-11-07 21:54:15.480357077
2025-11-07 21:54:13.608926,0,2025-11-07 21:54:15.488049385
2025-11-07 21:54:13.608926,116,2025-11-07 21:54:15.495741692
2025-11-07 21:54:13.608926,30208,2025-11-07 21:54:15.503434000
2025-11-07 21:54:13.608926,0,2025-11-07 21:54:15.511126308
2025-11-07 21:54:13.608926,111,2025-11-07 21:54:15.518818615
2025-11-07 21:54:13.608926,26624,2025-11-07 21:54:15.526510923
2025-11-07 21:54:13.608926,0,2025-11-07 21:54:15.534203231
2025-11-07 21:54:13.608926,97,2025-11-07 21:54:15.541895538
2025-11-07 21:54:13.608926,23552,2025-11-07 21:54:15.549587846
2025-11-07 21:54:13.608926,0,2025-11-07 21:54:15.557280154
2025-11-07 21:54:13.608926,87,2025-11-07 21:54:15.564972462
2025-11-07 21:54:13.608926,19200,2025-11-07 21:54:15.572664769
2025-11-07 21:54:13.608926,0,2025-11-07 21:54:15.580357077
2025-11-07 21:54:13.608926,63,2025-11-07 21:54:15.588049385
2025-11-07 21:54:14.148392,56,2025-11-07 21:54:15.595741692
2025-11-07 21:54:14.148392,13312,2025-11-07 21:54:15.603434000
2025-11-07 21:54:14.148392,0,2025-11-07 21:54:15.611126308
2025-11-07 21:54:14.148392,47,2025-11-07 21:54:15.618818615
2025-11-07 21:54:14.148392,10240,2025-11-07 21:54:15.626510923
2025-11-07 21:54:14.148392,0,2025-11-07 21:54:15.634203231
2025-11-07 21:54:14.148392,35,2025-11-07 21:54:15.641895538
2025-11-07 21:54:14.148392,8448,2025-11-07 21:54:15.649587846
2025-11-07 21:54:14.148392,0,2025-11-07 21:54:15.657280154
2025-11-07 21:54:14.148392,33,2025-11-07 21:54:15.664972462
2025-11-07 21:54:14.148392,8960,2025-11-07 21:54:15.672664769
2025-11-07 21:54:14.148392,0,2025-11-07 21:54:15.680357077
2025-11-07 21:54:14.148392,49,2025-11-07 21:54:15.688049385
2025-11-07 21:54:14.148392,16128,2025-11-07 21:54:15.695741692
2025-11-07 21:54:14.148392,0,2025-11-07 21:54:15.703434000
2025-11-07 21:54:14.148392,66,2025-11-07 21:54:15.711126308
2025-11-07 21:54:14.148392,15616,2025-11-07 21:54:15.718818615
2025-11-07 21:54:14.148392,0,2025-11-07 21:54:15.726510923
2025-11-07 21:54:14.148392,63,2025-11-07 21:54:15.734203231
2025-11-07 21:54:14.148392,17408,2025-11-07 21:54:15.741895538
2025-11-07 21:54:14.148392,0,2025-11-07 21:54:15.749587846
2025-11-07 21:54:14.148392,66,2025-11-07 21:54:15.757280154
2025-11-07 21:54:14.148392,16896,2025-11-07 21:54:15.764972462
2025-11-07 21:54:14.148392,0,2025-11-07 21:54:15.772664769
2025-11-07 21:54:14.148392,68,2025-11-07 21:54:15.780357077
2025-11-07 21:54:14.148392,16896,2025-11-07 21:54:15.788049385
2025-11-07 21:54:14.148392,0,2025-11-07 21:54:15.795741692
2025-11-07 21:54:14.148392,63,2025-11-07 21:54:15.803434000
2025-11-07 21:54:14.148392,16128,2025-11-07 21:54:15.811126308
2025-11-07 21:54:14.148392,0,2025-11-07 21:54:15.818818615
2025-11-07 21:54:14.148392,66,2025-11-07 21:54:15.826510923
2025-11-07 21:54:14.148392,16896,2025-11-07 21:54:15.834203231
2025-11-07 21:54:14.148392,0,2025-11-07 21:54:15.841895538
2025-11-07 21:54:14.148392,56,2025-11-07 21:54:15.849587846
2025-11-07 21:54:14.148392,14336,2025-11-07 21:54:15.857280154
2025-11-07 21:54:14.148392,0,2025-11-07 21:54:15.864972462
2025-11-07 21:54:14.148392,61,2025-11-07 21:54:15.872664769
2025-11-07 21:54:14.148392,15616,2025-11-07 21:54:15.880357077
2025-11-07 21:54:14.148392,0,2025-11-07 21:54:15.888049385
2025-11-07 21:54:14.148392,61,2025-11-07 21:54:15.895741692
2025-11-07 21:54:14.148392,15104,2025-11-07 21:54:15.903434000
2025-11-07 21:54:14.148392,0,2025-11-07 21:54:15.911126308
2025-11-07 21:54:14.148392,59,2025-11-07 21:54:15.918818615
2025-11-07 21:54:14.148392,15104,2025-11-07 21:54:15.926510923
2025-11-07 21:54:14.148392,0,2025-11-07 21:54:15.934203230
2025-11-07 21:54:14.148392,56,2025-11-07 21:54:15.941895538
2025-11-07 21:54:14.148392,13312,2025-11-07 21:54:15.949587846
2025-11-07 21:54:14.148392,0,2025-11-07 21:54:15.957280154
2025-11-07 21:54:14.148392,49,2025-11-07 21:54:15.964972462
2025-11-07 21:54:14.148392,13312,2025-11-07 21:54:15.972664769
2025-11-07 21:54:14.148392,0,2025-11-07 21:54:15.980357077
2025-11-07 21:54:14.148392,49,2025-11-07 21:54:15.988049385
2025-11-07 21:54:14.148392,10240,2025-11-07 21:54:15.995741692
2025-11-07 21:54:14.148392,0,2025-11-07 21:54:16.003434000
2025-11-07 21:54:14.148392,30,2025-11-07 21:54:16.011126308
2025-11-07 21:54:14.148392,6656,2025-11-07 21:54:16.018818615
2025-11-07 21:54:14.148392,0,2025-11-07 21:54:16.026510923
2025-11-07 21:54:14.148392,26,2025-11-07 21:54:16.034203231
2025-11-07 21:54:14.148392,10752,2025-11-07 21:54:16.041895538
2025-11-07 21:54:14.148392,0,2025-11-07 21:54:16.049587846
2025-11-07 21:54:14.148392,63,2025-11-07 21:54:16.057280154
2025-11-07 21:54:14.148392,19200,2025-11-07 21:54:16.064972462
2025-11-07 21:54:14.148392,0,2025-11-07 21:54:16.072664769
2025-11-07 21:54:14.148392,87,2025-11-07 21:54:16.080357077
2025-11-07 21:54:14.148392,25856,2025-11-07 21:54:16.088049385
2025-11-07 21:54:14.148392,0,2025-11-07 21:54:16.095741692
2025-11-07 21:54:14.148392,99,2025-11-07 21:54:16.103434000
2025-11-07 21:54:14.148392,20992,2025-11-07 21:54:16.111126308
2025-11-07 21:54:14.148392,0,2025-11-07 21:54:16.118818615
2025-11-07 21:54:14.148392,75,2025-11-07 21:54:16.126510923
2025-11-07 21:54:14.148392,16128,2025-11-07 21:54:16.134203231
2025-11-07 21:54:14.148392,0,2025-11-07 21:54:16.141895538
2025-11-07 21:54:14.148392,40,2025-11-07 21:54:16.149587846
2025-11-07 21:54:14.148392,4608,2025-11-07 21:54:16.157280154
2025-11-07 21:54:14.148392,0,2025-11-07 21:54:16.164972462
2025-11-07 21:54:14.148392,18,2025-11-07 21:54:16.172664769
2025-11-07 21:54:14.148392,4608,2025-11-07 21:54:16.180357077
2025-11-07 21:54:14.148392,0,2025-11-07 21:54:16.188049385
2025-11-07 21:54:14.148392,14,2025-11-07 21:54:16.195741692
2025-11-07 21:54:14.148392,3584,2025-11-07 21:54:16.203434000
2025-11-07 21:54:14.148392,0,2025-11-07 21:54:16.211126308
2025-11-07 21:54:14.148392,16,2025-11-07 21:54:16.218818615
2025-11-07 21:54:14.148392,512,2025-11-07 21:54:16.226510923
2025-11-07 21:54:14.148392,0,2025-11-07 21:54:16.234203231
2025-11-07 21:54:14.148392,-44,2025-11-07 21:54:16.241895538
2025-11-07 21:54:14.148392,-16641,2025-11-07 21:54:16.249587846
2025-11-07 21:54:14.148392,-1,2025-11-07 21:54:16.257280154
2025-11-07 21:54:14.148392,149,2025-11-07 21:54:16.264972462
2025-11-07 21:54:14.148392,7680,2025-11-07 21:54:16.272664769
2025-11-07 21:54:14.148392,3,2025-11-07 21:54:16.280357077
2025-11-07 21:54:14.148392,1930,2025-11-07 21:54:16.288049385
2025-11-07 21:54:14.148392,-17408,2025-11-07 21:54:16.295741692
2025-11-07 21:54:14.148392,12,2025-11-07 21:54:16.303434000
2025-11-07 21:54:14.148392,4040,2025-11-07 21:54:16.311126308
2025-11-07 21:54:14.148392,-15616,2025-11-07 21:54:16.318818615
2025-11-07 21:54:14.148392,14,2025-11-07 21:54:16.326510923
2025-11-07 21:54:14.148392,2927,2025-11-07 21:54:16.334203231
2025-11-07 21:54:14.148392,28672,2025-11-07 21:54:16.341895538
2025-11-07 21:54:14.148392,7,2025-11-07 21:54:16.349587846
2025-11-07 21:54:14.148392,447,2025-11-07 21:54:16.357280154
2025-11-07 21:54:14.148392,25344,2025-11-07 21:54:16.364972462
2025-11-07 21:54:14.148392,-4,2025-11-07 21:54:16.372664769
2025-11-07 21:54:14.148392,-1122,2025-11-07 21:54:16.380357077
2025-11-07 21:54:14.148392,8447,2025-11-07 21:54:16.388049385
2025-11-07 21:54:14.148392,-3,2025-11-07 21:54:16.395741692
2025-11-07 21:54:14.148392,-781,2025-11-07 21:54:16.403434000
2025-11-07 21:54:14.148392,-25601,2025-11-07 21:54:16.411126308
2025-11-07 21:54:14.148392,-4,2025-11-07 21:54:16.418818615
2025-11-07 21:54:14.148392,-724,2025-11-07 21:54:16.426510923
2025-11-07 21:54:14.778884,-677,2025-11-07 21:54:16.434203231
2025-11-07 21:54:14.778884,16895,2025-11-07 21:54:16.441895538
2025-11-07 21:54:14.778884,-3,2025-11-07 21:54:16.449587846
2025-11-07 21:54:14.778884,-648,2025-11-07 21:54:16.457280154
2025-11-07 21:54:14.778884,-22017,2025-11-07 21:54:16.464972462
2025-11-07 21:54:14.778884,-3,2025-11-07 21:54:16.472664769
2025-11-07 21:54:14.778884,-589,2025-11-07 21:54:16.480357077
2025-11-07 21:54:14.778884,-11521,2025-11-07 21:54:16.488049385
2025-11-07 21:54:14.778884,-3,2025-11-07 21:54:16.495741692
2025-11-07 21:54:14.778884,-511,2025-11-07 21:54:16.503434000
2025-11-07 21:54:14.778884,7679,2025-11-07 21:54:16.511126308
2025-11-07 21:54:14.778884,-2,2025-11-07 21:54:16.518818615
2025-11-07 21:54:14.778884,-471,2025-11-07 21:54:16.526510923
2025-11-07 21:54:14.778884,14335,2025-11-07 21:54:16.534203231
2025-11-07 21:54:14.778884,-2,2025-11-07 21:54:16.541895538
2025-11-07 21:54:14.778884,-445,2025-11-07 21:54:16.549587846
2025-11-07 21:54:14.778884,19199,2025-11-07 21:54:16.557280154
2025-11-07 21:54:14.778884,-2,2025-11-07 21:54:16.564972462
2025-11-07 21:54:14.778884,-431,2025-11-07 21:54:16.572664769
2025-11-07 21:54:14.778884,20479,2025-11-07 21:54:16.580357077
2025-11-07 21:54:14.778884,-2,2025-11-07 21:54:16.588049385
2025-11-07 21:54:14.778884,-447,2025-11-07 21:54:16.595741692
2025-11-07 21:54:14.778884,14335,2025-11-07 21:54:16.603434000
2025-11-07 21:54:14.778884,-2,2025-11-07 21:54:16.611126308
2025-11-07 21:54:14.778884,-466,2025-11-07 21:54:16.618818615
2025-11-07 21:54:14.778884,5375,2025-11-07 21:54:16.626510923
2025-11-07 21:54:14.778884,-2,2025-11-07 21:54:16.634203231
2025-11-07 21:54:14.778884,-520,2025-11-07 21:54:16.641895538
2025-11-07 21:54:14.778884,-7937,2025-11-07 21:54:16.649587846
2025-11-07 21:54:14.778884,-3,2025-11-07 21:54:16.657280154
2025-11-07 21:54:14.778884,-573,2025-11-07 21:54:16.664972462
2025-11-07 21:54:14.778884,-22529,2025-11-07 21:54:16.672664769
2025-11-07 21:54:14.778884,-3,2025-11-07 21:54:16.680357077
2025-11-07 21:54:14.778884,-627,2025-11-07 21:54:16.688049385
2025-11-07 21:54:14.778884,-30977,2025-11-07 21:54:16.695741692
2025-11-07 21:54:14.778884,-3,2025-11-07 21:54:16.703434000
2025-11-07 21:54:14.778884,-618,2025-11-07 21:54:16.711126308
2025-11-07 21:54:14.778884,-18177,2025-11-07 21:54:16.718818615
2025-11-07 21:54:14.778884,-3,2025-11-07 21:54:16.726510923
2025-11-07 21:54:14.778884,-542,2025-11-07 21:54:16.734203231
2025-11-07 21:54:14.778884,11519,2025-11-07 21:54:16.741895538
2025-11-07 21:54:14.778884,-2,2025-11-07 21:54:16.749587846
2025-11-07 21:54:14.778884,-359,2025-11-07 21:54:16.757280154
2025-11-07 21:54:14.778884,4095,2025-11-07 21:54:16.764972462
2025-11-07 21:54:14.778884,-1,2025-11-07 21:54:16.772664769
2025-11-07 21:54:14.778884,-127,2025-11-07 21:54:16.780357077
2025-11-07 21:54:14.778884,-8705,2025-11-07 21:54:16.788049385
2025-11-07 21:54:14.778884,-1,2025-11-07 21:54:16.795741692
2025-11-07 21:54:14.778884,37,2025-11-07 21:54:16.803434000
2025-11-07 21:54:14.778884,24064,2025-11-07 21:54:16.811126308
2025-11-07 21:54:14.778884,0,2025-11-07 21:54:16.818818615
2025-11-07 21:54:14.778884,125,2025-11-07 21:54:16.826510923
2025-11-07 21:54:14.778884,-30464,2025-11-07 21:54:16.834203231
2025-11-07 21:54:14.778884,0,2025-11-07 21:54:16.841895538
2025-11-07 21:54:14.778884,139,2025-11-07 21:54:16.849587846
2025-11-07 21:54:14.778884,-31232,2025-11-07 21:54:16.857280154
2025-11-07 21:54:14.778884,0,2025-11-07 21:54:16.864972462
2025-11-07 21:54:14.778884,137,2025-11-07 21:54:16.872664769
2025-11-07 21:54:14.778884,-31744,2025-11-07 21:54:16.880357077
2025-11-07 21:54:14.778884,0,2025-11-07 21:54:16.888049385
2025-11-07 21:54:14.778884,125,2025-11-07 21:54:16.895741692
2025-11-07 21:54:14.778884,32000,2025-11-07 21:54:16.903434000
2025-11-07 21:54:14.778884,0,2025-11-07 21:54:16.911126308
2025-11-07 21:54:14.778884,120,2025-11-07 21:54:16.918818615
2025-11-07 21:54:14.778884,28416,2025-11-07 21:54:16.926510923
2025-11-07 21:54:14.778884,0,2025-11-07 21:54:16.934203230
2025-11-07 21:54:14.778884,101,2025-11-07 21:54:16.941895538
2025-11-07 21:54:14.778884,23552,2025-11-07 21:54:16.949587846
2025-11-07 21:54:14.778884,0,2025-11-07 21:54:16.957280154
2025-11-07 21:54:14.778884,87,2025-11-07 21:54:16.964972462
2025-11-07 21:54:14.778884,19968,2025-11-07 21:54:16.972664769
2025-11-07 21:54:14.778884,0,2025-11-07 21:54:16.980357077
2025-11-07 21:54:14.778884,63,2025-11-07 21:54:16.988049385
2025-11-07 21:54:14.778884,14336,2025-11-07 21:54:16.995741692
2025-11-07 21:54:14.778884,0,2025-11-07 21:54:17.003434000
2025-11-07 21:54:14.778884,56,2025-11-07 21:54:17.011126308
2025-11-07 21:54:14.778884,12544,2025-11-07 21:54:17.018818615
2025-11-07 21:54:14.778884,0,2025-11-07 21:54:17.026510923
2025-11-07 21:54:14.778884,37,2025-11-07 21:54:17.034203231
2025-11-07 21:54:14.778884,8448,2025-11-07 21:54:17.041895538
2025-11-07 21:54:14.778884,0,2025-11-07 21:54:17.049587846
2025-11-07 21:54:14.778884,33,2025-11-07 21:54:17.057280154
2025-11-07 21:54:14.778884,7168,2025-11-07 21:54:17.064972462
2025-11-07 21:54:14.778884,0,2025-11-07 21:54:17.072664769
2025-11-07 21:54:14.778884,30,2025-11-07 21:54:17.080357077
2025-11-07 21:54:14.778884,9472,2025-11-07 21:54:17.088049385
2025-11-07 21:54:14.778884,0,2025-11-07 21:54:17.095741692
2025-11-07 21:54:14.778884,40,2025-11-07 21:54:17.103434000
2025-11-07 21:54:14.778884,12032,2025-11-07 21:54:17.111126308
2025-11-07 21:54:14.778884,0,2025-11-07 21:54:17.118818615
2025-11-07 21:54:14.778884,49,2025-11-07 21:54:17.126510923
2025-11-07 21:54:14.778884,12032,2025-11-07 21:54:17.134203231
2025-11-07 21:54:14.778884,0,2025-11-07 21:54:17.141895538
2025-11-07 21:54:14.778884,49,2025-11-07 21:54:17.149587846
2025-11-07 21:54:14.778884,15104,2025-11-07 21:54:17.157280154
2025-11-07 21:54:14.778884,0,2025-11-07 21:54:17.164972462
2025-11-07 21:54:14.778884,66,2025-11-07 21:54:17.172664769
2025-11-07 21:54:14.778884,16896,2025-11-07 21:54:17.180357077
2025-11-07 21:54:14.778884,0,2025-11-07 21:54:17.188049385
2025-11-07 21:54:14.778884,63,2025-11-07 21:54:17.195741692
2025-11-07 21:54:14.778884,17408,2025-11-07 21:54:17.203434000
2025-11-07 21:54:14.778884,0,2025-11-07 21:54:17.211126308
2025-11-07 21:54:14.778884,68,2025-11-07 21:54:17.218818615
2025-11-07 21:54:14.778884,18176,2025-11-07 21:54:17.226510923
2025-11-07 21:54:14.778884,0,2025-11-07 21:54:17.234203231
2025-11-07 21:54:14.778884,75,2025-11-07 21:54:17.241895538
2025-11-07 21:54:14.778884,18688,2025-11-07 21:54:17.249587846
2025-11-07 21:54:14.778884,0,2025-11-07 21:54:17.257280154
2025-11-07 21:54:14.778884,75,2025-11-07 21:54:17.264972462
2025-11-07 21:54:15.318344,78,2025-11-07 21:54:17.272664769
2025-11-07 21:54:15.318344,18688,2025-11-07 21:54:17.280357077
2025-11-07 21:54:15.318344,0,2025-11-07 21:54:17.288049385
2025-11-07 21:54:15.318344,71,2025-11-07 21:54:17.295741692
2025-11-07 21:54:15.318344,19200,2025-11-07 21:54:17.303434000
2025-11-07 21:54:15.318344,0,2025-11-07 21:54:17.311126308
2025-11-07 21:54:15.318344,80,2025-11-07 21:54:17.318818615
2025-11-07 21:54:15.318344,18688,2025-11-07 21:54:17.326510923
2025-11-07 21:54:15.318344,0,2025-11-07 21:54:17.334203231
2025-11-07 21:54:15.318344,73,2025-11-07 21:54:17.341895538
2025-11-07 21:54:15.318344,19200,2025-11-07 21:54:17.349587846
2025-11-07 21:54:15.318344,0,2025-11-07 21:54:17.357280154
2025-11-07 21:54:15.318344,75,2025-11-07 21:54:17.364972462
2025-11-07 21:54:15.318344,18176,2025-11-07 21:54:17.372664769
2025-11-07 21:54:15.318344,0,2025-11-07 21:54:17.380357077
2025-11-07 21:54:15.318344,63,2025-11-07 21:54:17.388049385
2025-11-07 21:54:15.318344,14336,2025-11-07 21:54:17.395741692
2025-11-07 21:54:15.318344,0,2025-11-07 21:54:17.403434000
2025-11-07 21:54:15.318344,59,2025-11-07 21:54:17.411126308
2025-11-07 21:54:15.318344,18688,2025-11-07 21:54:17.418818615
2025-11-07 21:54:15.318344,0,2025-11-07 21:54:17.426510923
2025-11-07 21:54:15.318344,101,2025-11-07 21:54:17.434203231
2025-11-07 21:54:15.318344,-31744,2025-11-07 21:54:17.441895538
2025-11-07 21:54:15.318344,0,2025-11-07 21:54:17.449587846
2025-11-07 21:54:15.318344,144,2025-11-07 21:54:17.457280154
2025-11-07 21:54:15.318344,-26880,2025-11-07 21:54:17.464972462
2025-11-07 21:54:15.318344,0,2025-11-07 21:54:17.472664769
2025-11-07 21:54:15.318344,151,2025-11-07 21:54:17.480357077
2025-11-07 21:54:15.318344,-29952,2025-11-07 21:54:17.488049385
2025-11-07 21:54:15.318344,0,2025-11-07 21:54:17.495741692
2025-11-07 21:54:15.318344,130,2025-11-07 21:54:17.503434000
2025-11-07 21:54:15.318344,31488,2025-11-07 21:54:17.511126308
2025-11-07 21:54:15.318344,0,2025-11-07 21:54:17.518818615
2025-11-07 21:54:15.318344,94,2025-11-07 21:54:17.526510923
2025-11-07 21:54:15.318344,16896,2025-11-07 21:54:17.534203231
2025-11-07 21:54:15.318344,0,2025-11-07 21:54:17.541895538
2025-11-07 21:54:15.318344,63,2025-11-07 21:54:17.549587846
2025-11-07 21:54:15.318344,17408,2025-11-07 21:54:17.557280154
2025-11-07 21:54:15.318344,0,2025-11-07 21:54:17.564972462
2025-11-07 21:54:15.318344,66,2025-11-07 21:54:17.572664769
2025-11-07 21:54:15.318344,15616,2025-11-07 21:54:17.580357077
2025-11-07 21:54:15.318344,0,2025-11-07 21:54:17.588049385
2025-11-07 21:54:15.318344,54,2025-11-07 21:54:17.595741692
2025-11-07 21:54:15.318344,10752,2025-11-07 21:54:17.603434000
2025-11-07 21:54:15.318344,0,2025-11-07 21:54:17.611126308
2025-11-07 21:54:15.318344,2,2025-11-07 21:54:17.618818615
2025-11-07 21:54:15.318344,-9472,2025-11-07 21:54:17.626510923
2025-11-07 21:54:15.318344,-1,2025-11-07 21:54:17.634203231
2025-11-07 21:54:15.318344,127,2025-11-07 21:54:17.641895538
2025-11-07 21:54:15.318344,-18432,2025-11-07 21:54:17.649587846
2025-11-07 21:54:15.318344,2,2025-11-07 21:54:17.657280154
2025-11-07 21:54:15.318344,1752,2025-11-07 21:54:17.664972462
2025-11-07 21:54:15.318344,17920,2025-11-07 21:54:17.672664769
2025-11-07 21:54:15.318344,12,2025-11-07 21:54:17.680357077
2025-11-07 21:54:15.318344,4137,2025-11-07 21:54:17.688049385
2025-11-07 21:54:15.318344,-19200,2025-11-07 21:54:17.695741692
2025-11-07 21:54:15.318344,15,2025-11-07 21:54:17.703434000
2025-11-07 21:54:15.318344,3135,2025-11-07 21:54:17.711126308
2025-11-07 21:54:15.318344,7168,2025-11-07 21:54:17.718818615
2025-11-07 21:54:15.318344,8,2025-11-07 21:54:17.726510923
2025-11-07 21:54:15.318344,632,2025-11-07 21:54:17.734203231
2025-11-07 21:54:15.318344,-15360,2025-11-07 21:54:17.741895538
2025-11-07 21:54:15.318344,-4,2025-11-07 21:54:17.749587846
2025-11-07 21:54:15.318344,-1139,2025-11-07 21:54:17.757280154
2025-11-07 21:54:15.318344,8447,2025-11-07 21:54:17.764972462
2025-11-07 21:54:15.318344,-3,2025-11-07 21:54:17.772664769
2025-11-07 21:54:15.318344,-738,2025-11-07 21:54:17.780357077
2025-11-07 21:54:15.318344,-20737,2025-11-07 21:54:17.788049385
2025-11-07 21:54:15.318344,-4,2025-11-07 21:54:17.795741692
2025-11-07 21:54:15.318344,-712,2025-11-07 21:54:17.803434000
2025-11-07 21:54:15.318344,30975,2025-11-07 21:54:17.811126308
2025-11-07 21:54:15.318344,-3,2025-11-07 21:54:17.818818615
2025-11-07 21:54:15.318344,-682,2025-11-07 21:54:17.826510923
2025-11-07 21:54:15.318344,-30465,2025-11-07 21:54:17.834203231
2025-11-07 21:54:15.318344,-3,2025-11-07 21:54:17.841895538
2025-11-07 21:54:15.318344,-575,2025-11-07 21:54:17.849587846
2025-11-07 21:54:15.318344,-14081,2025-11-07 21:54:17.857280154
2025-11-07 21:54:15.318344,-3,2025-11-07 21:54:17.864972462
2025-11-07 21:54:15.318344,-547,2025-11-07 21:54:17.872664769
2025-11-07 21:54:15.318344,-1,2025-11-07 21:54:17.880357077
2025-11-07 21:54:15.318344,-3,2025-11-07 21:54:17.888049385
2025-11-07 21:54:15.318344,-497,2025-11-07 21:54:17.895741692
2025-11-07 21:54:15.318344,8447,2025-11-07 21:54:17.903434000
2025-11-07 21:54:15.318344,-2,2025-11-07 21:54:17.911126308
2025-11-07 21:54:15.318344,-459,2025-11-07 21:54:17.918818615
2025-11-07 21:54:15.318344,17407,2025-11-07 21:54:17.926510923
2025-11-07 21:54:15.318344,-2,2025-11-07 21:54:17.934203230
2025-11-07 21:54:15.318344,-438,2025-11-07 21:54:17.941895538
2025-11-07 21:54:15.318344,20991,2025-11-07 21:54:17.949587846
2025-11-07 21:54:15.318344,-2,2025-11-07 21:54:17.957280154
2025-11-07 21:54:15.318344,-433,2025-11-07 21:54:17.964972462
2025-11-07 21:54:15.318344,19967,2025-11-07 21:54:17.972664769
2025-11-07 21:54:15.318344,-2,2025-11-07 21:54:17.980357077
2025-11-07 21:54:15.318344,-438,2025-11-07 21:54:17.988049385
2025-11-07 21:54:15.318344,16895,2025-11-07 21:54:17.995741692
2025-11-07 21:54:15.318344,-2,2025-11-07 21:54:18.003434000
2025-11-07 21:54:15.318344,-466,2025-11-07 21:54:18.011126308
2025-11-07 21:54:15.318344,5887,2025-11-07 21:54:18.018818615
2025-11-07 21:54:15.318344,-2,2025-11-07 21:54:18.026510923
2025-11-07 21:54:15.318344,-518,2025-11-07 21:54:18.034203231
2025-11-07 21:54:15.318344,-9217,2025-11-07 21:54:18.041895538
2025-11-07 21:54:15.318344,-3,2025-11-07 21:54:18.049587846
2025-11-07 21:54:15.318344,-580,2025-11-07 21:54:18.057280154
2025-11-07 21:54:15.318344,-22529,2025-11-07 21:54:18.064972462
2025-11-07 21:54:15.318344,-3,2025-11-07 21:54:18.072664769
2025-11-07 21:54:15.318344,-610,2025-11-07 21:54:18.080357077
2025-11-07 21:54:15.318344,-23809,2025-11-07 21:54:18.088049385
2025-11-07 21:54:15.318344,-3,2025-11-07 21:54:18.095741692
2025-11-07 21:54:15.318344,-584,2025-11-07 21:54:18.103434000
2025-11-07 21:54:15.858559,-539,2025-11-07 21:54:18.111126308
2025-11-07 21:54:15.858559,9471,2025-11-07 21:54:18.118818615
2025-11-07 21:54:15.858559,-2,2025-11-07 21:54:18.126510923
2025-11-07 21:54:15.858559,-388,2025-11-07 21:54:18.134203231
2025-11-07 21:54:15.858559,-4353,2025-11-07 21:54:18.141895538
2025-11-07 21:54:15.858559,-2,2025-11-07 21:54:18.149587846
2025-11-07 21:54:15.858559,-156,2025-11-07 21:54:18.157280154
2025-11-07 21:54:15.858559,-14849,2025-11-07 21:54:18.164972462
2025-11-07 21:54:15.858559,-1,2025-11-07 21:54:18.172664769
2025-11-07 21:54:15.858559,11,2025-11-07 21:54:18.180357077
2025-11-07 21:54:15.858559,16896,2025-11-07 21:54:18.188049385
2025-11-07 21:54:15.858559,0,2025-11-07 21:54:18.195741692
2025-11-07 21:54:15.858559,97,2025-11-07 21:54:18.203434000
2025-11-07 21:54:15.858559,28416,2025-11-07 21:54:18.211126308
2025-11-07 21:54:15.858559,0,2025-11-07 21:54:18.218818615
2025-11-07 21:54:15.858559,118,2025-11-07 21:54:18.226510923
2025-11-07 21:54:15.858559,31488,2025-11-07 21:54:18.234203231
2025-11-07 21:54:15.858559,0,2025-11-07 21:54:18.241895538
2025-11-07 21:54:15.858559,134,2025-11-07 21:54:18.249587846
2025-11-07 21:54:15.858559,-31232,2025-11-07 21:54:18.257280154
2025-11-07 21:54:15.858559,0,2025-11-07 21:54:18.264972462
2025-11-07 21:54:15.858559,120,2025-11-07 21:54:18.272664769
2025-11-07 21:54:15.858559,28928,2025-11-07 21:54:18.280357077
2025-11-07 21:54:15.858559,0,2025-11-07 21:54:18.288049385
2025-11-07 21:54:15.858559,113,2025-11-07 21:54:18.295741692
2025-11-07 21:54:15.858559,25856,2025-11-07 21:54:18.303434000
2025-11-07 21:54:15.858559,0,2025-11-07 21:54:18.311126308
2025-11-07 21:54:15.858559,87,2025-11-07 21:54:18.318818615
2025-11-07 21:54:15.858559,20992,2025-11-07 21:54:18.326510923
2025-11-07 21:54:15.858559,0,2025-11-07 21:54:18.334203231
2025-11-07 21:54:15.858559,75,2025-11-07 21:54:18.341895538
2025-11-07 21:54:15.858559,15616,2025-11-07 21:54:18.349587846
2025-11-07 21:54:15.858559,0,2025-11-07 21:54:18.357280154
2025-11-07 21:54:15.858559,47,2025-11-07 21:54:18.364972462
2025-11-07 21:54:15.858559,9472,2025-11-07 21:54:18.372664769
2025-11-07 21:54:15.858559,0,2025-11-07 21:54:18.380357077
2025-11-07 21:54:15.858559,33,2025-11-07 21:54:18.388049385
2025-11-07 21:54:15.858559,7168,2025-11-07 21:54:18.395741692
2025-11-07 21:54:15.858559,0,2025-11-07 21:54:18.403434000
2025-11-07 21:54:15.858559,23,2025-11-07 21:54:18.411126308
2025-11-07 21:54:15.858559,6656,2025-11-07 21:54:18.418818615
2025-11-07 21:54:15.858559,0,2025-11-07 21:54:18.426510923
2025-11-07 21:54:15.858559,28,2025-11-07 21:54:18.434203231
2025-11-07 21:54:15.858559,10752,2025-11-07 21:54:18.441895538
2025-11-07 21:54:15.858559,0,2025-11-07 21:54:18.449587846
2025-11-07 21:54:15.858559,73,2025-11-07 21:54:18.457280154
2025-11-07 21:54:15.858559,28416,2025-11-07 21:54:18.464972462
2025-11-07 21:54:15.858559,0,2025-11-07 21:54:18.472664769
2025-11-07 21:54:15.858559,151,2025-11-07 21:54:18.480357077
2025-11-07 21:54:15.858559,-3840,2025-11-07 21:54:18.488049385
2025-11-07 21:54:15.858559,0,2025-11-07 21:54:18.495741692
2025-11-07 21:54:15.858559,352,2025-11-07 21:54:18.503434000
2025-11-07 21:54:15.858559,19200,2025-11-07 21:54:18.511126308
2025-11-07 21:54:15.858559,1,2025-11-07 21:54:18.518818615
2025-11-07 21:54:15.858559,130,2025-11-07 21:54:18.526510923
2025-11-07 21:54:15.858559,27392,2025-11-07 21:54:18.534203231
2025-11-07 21:54:15.858559,-1,2025-11-07 21:54:18.541895538
2025-11-07 21:54:15.858559,-592,2025-11-07 21:54:18.549587846
2025-11-07 21:54:15.858559,-25345,2025-11-07 21:54:18.557280154
2025-11-07 21:54:15.858559,-6,2025-11-07 21:54:18.564972462
2025-11-07 21:54:15.858559,-2183,2025-11-07 21:54:18.572664769
2025-11-07 21:54:15.858559,22271,2025-11-07 21:54:18.580357077
2025-11-07 21:54:15.858559,-10,2025-11-07 21:54:18.588049385
2025-11-07 21:54:15.858559,-2271,2025-11-07 21:54:18.595741692
2025-11-07 21:54:15.858559,-3329,2025-11-07 21:54:18.603434000
2025-11-07 21:54:15.858559,-8,2025-11-07 21:54:18.611126308
2025-11-07 21:54:15.858559,-1238,2025-11-07 21:54:18.618818615
2025-11-07 21:54:15.858559,30207,2025-11-07 21:54:18.626510923
2025-11-07 21:54:15.858559,-3,2025-11-07 21:54:18.634203231
2025-11-07 21:54:15.858559,-52,2025-11-07 21:54:18.641895538
2025-11-07 21:54:15.858559,-15105,2025-11-07 21:54:18.649587846
2025-11-07 21:54:15.858559,1,2025-11-07 21:54:18.657280154
2025-11-07 21:54:15.858559,719,2025-11-07 21:54:18.664972462
2025-11-07 21:54:15.858559,-5120,2025-11-07 21:54:18.672664769
2025-11-07 21:54:15.858559,2,2025-11-07 21:54:18.680357077
2025-11-07 21:54:15.858559,700,2025-11-07 21:54:18.688049385
2025-11-07 21:54:15.858559,-19200,2025-11-07 21:54:18.695741692
2025-11-07 21:54:15.858559,2,2025-11-07 21:54:18.703434000
2025-11-07 21:54:15.858559,679,2025-11-07 21:54:18.711126308
2025-11-07 21:54:15.858559,-31232,2025-11-07 21:54:18.718818615
2025-11-07 21:54:15.858559,2,2025-11-07 21:54:18.726510923
2025-11-07 21:54:15.858559,627,2025-11-07 21:54:18.734203231
2025-11-07 21:54:15.858559,26368,2025-11-07 21:54:18.741895538
2025-11-07 21:54:15.858559,2,2025-11-07 21:54:18.749587846
2025-11-07 21:54:15.858559,589,2025-11-07 21:54:18.757280154
2025-11-07 21:54:15.858559,14848,2025-11-07 21:54:18.764972462
2025-11-07 21:54:15.858559,2,2025-11-07 21:54:18.772664769
2025-11-07 21:54:15.858559,582,2025-11-07 21:54:18.780357077
2025-11-07 21:54:15.858559,22784,2025-11-07 21:54:18.788049385
2025-11-07 21:54:15.858559,2,2025-11-07 21:54:18.795741692
2025-11-07 21:54:15.858559,608,2025-11-07 21:54:18.803434000
2025-11-07 21:54:15.858559,27648,2025-11-07 21:54:18.811126308
2025-11-07 21:54:15.858559,2,2025-11-07 21:54:18.818818615
2025-11-07 21:54:15.858559,648,2025-11-07 21:54:18.826510923
2025-11-07 21:54:15.858559,-28928,2025-11-07 21:54:18.834203231
2025-11-07 21:54:15.858559,2,2025-11-07 21:54:18.841895538
2025-11-07 21:54:15.858559,644,2025-11-07 21:54:18.849587846
2025-11-07 21:54:15.858559,-29440,2025-11-07 21:54:18.857280154
2025-11-07 21:54:15.858559,2,2025-11-07 21:54:18.864972462
2025-11-07 21:54:15.858559,674,2025-11-07 21:54:18.872664769
2025-11-07 21:54:15.858559,-23296,2025-11-07 21:54:18.880357077
2025-11-07 21:54:15.858559,2,2025-11-07 21:54:18.888049385
2025-11-07 21:54:15.858559,686,2025-11-07 21:54:18.895741692
2025-11-07 21:54:15.858559,-10496,2025-11-07 21:54:18.903434000
2025-11-07 21:54:15.858559,2,2025-11-07 21:54:18.911126308
2025-11-07 21:54:15.858559,772,2025-11-07 21:54:18.918818615
2025-11-07 21:54:15.858559,8704,2025-11-07 21:54:18.926510923
2025-11-07 21:54:15.858559,3,2025-11-07 21:54:18.934203230
2025-11-07 21:54:15.858559,833,2025-11-07 21:54:18.941895538
2025-11-07 21:54:16.398536,859,2025-11-07 21:54:18.949587846
2025-11-07 21:54:16.398536,22784,2025-11-07 21:54:18.957280154
2025-11-07 21:54:16.398536,3,2025-11-07 21:54:18.964972462
2025-11-07 21:54:16.398536,828,2025-11-07 21:54:18.972664769
2025-11-07 21:54:16.398536,2048,2025-11-07 21:54:18.980357077
2025-11-07 21:54:16.398536,3,2025-11-07 21:54:18.988049385
2025-11-07 21:54:16.398536,693,2025-11-07 21:54:18.995741692
2025-11-07 21:54:16.398536,17920,2025-11-07 21:54:19.003434000
2025-11-07 21:54:16.398536,2,2025-11-07 21:54:19.011126308
2025-11-07 21:54:16.398536,452,2025-11-07 21:54:19.018818615
2025-11-07 21:54:16.398536,13824,2025-11-07 21:54:19.026510923
2025-11-07 21:54:16.398536,1,2025-11-07 21:54:19.034203231
2025-11-07 21:54:16.398536,163,2025-11-07 21:54:19.041895538
2025-11-07 21:54:16.398536,9472,2025-11-07 21:54:19.049587846
2025-11-07 21:54:16.398536,0,2025-11-07 21:54:19.057280154
2025-11-07 21:54:16.398536,-66,2025-11-07 21:54:19.064972462
2025-11-07 21:54:16.398536,24063,2025-11-07 21:54:19.072664769
2025-11-07 21:54:16.398536,-1,2025-11-07 21:54:19.080357077
2025-11-07 21:54:16.398536,-234,2025-11-07 21:54:19.088049385
2025-11-07 21:54:16.398536,-5633,2025-11-07 21:54:19.095741692
2025-11-07 21:54:16.398536,-2,2025-11-07 21:54:19.103434000
2025-11-07 21:54:16.398536,-307,2025-11-07 21:54:19.111126308
2025-11-07 21:54:16.398536,-15873,2025-11-07 21:54:19.118818615
2025-11-07 21:54:16.398536,-2,2025-11-07 21:54:19.126510923
2025-11-07 21:54:16.398536,-317,2025-11-07 21:54:19.134203231
2025-11-07 21:54:16.398536,-14593,2025-11-07 21:54:19.141895538
2025-11-07 21:54:16.398536,-2,2025-11-07 21:54:19.149587846
2025-11-07 21:54:16.398536,-303,2025-11-07 21:54:19.157280154
2025-11-07 21:54:16.398536,-6913,2025-11-07 21:54:19.164972462
2025-11-07 21:54:16.398536,-2,2025-11-07 21:54:19.172664769
2025-11-07 21:54:16.398536,-272,2025-11-07 21:54:19.180357077
2025-11-07 21:54:16.398536,-769,2025-11-07 21:54:19.188049385
2025-11-07 21:54:16.398536,-2,2025-11-07 21:54:19.195741692
2025-11-07 21:54:16.398536,-241,2025-11-07 21:54:19.203434000
2025-11-07 21:54:16.398536,9471,2025-11-07 21:54:19.211126308
2025-11-07 21:54:16.398536,-1,2025-11-07 21:54:19.218818615
2025-11-07 21:54:16.398536,-201,2025-11-07 21:54:19.226510923
2025-11-07 21:54:16.398536,17407,2025-11-07 21:54:19.234203231
2025-11-07 21:54:16.398536,-1,2025-11-07 21:54:19.241895538
2025-11-07 21:54:16.398536,-179,2025-11-07 21:54:19.249587846
2025-11-07 21:54:16.398536,23551,2025-11-07 21:54:19.257280154
2025-11-07 21:54:16.398536,-1,2025-11-07 21:54:19.264972462
2025-11-07 21:54:16.398536,-151,2025-11-07 21:54:19.272664769
2025-11-07 21:54:16.398536,28927,2025-11-07 21:54:19.280357077
2025-11-07 21:54:16.398536,-1,2025-11-07 21:54:19.288049385
2025-11-07 21:54:16.398536,-139,2025-11-07 21:54:19.295741692
2025-11-07 21:54:16.398536,31487,2025-11-07 21:54:19.303434000
2025-11-07 21:54:16.398536,-1,2025-11-07 21:54:19.311126308
2025-11-07 21:54:16.398536,-127,2025-11-07 21:54:19.318818615
2025-11-07 21:54:16.398536,-30465,2025-11-07 21:54:19.326510923
2025-11-07 21:54:16.398536,-1,2025-11-07 21:54:19.334203231
2025-11-07 21:54:16.398536,-113,2025-11-07 21:54:19.341895538
2025-11-07 21:54:16.398536,-27393,2025-11-07 21:54:19.349587846
2025-11-07 21:54:16.398536,-1,2025-11-07 21:54:19.357280154
2025-11-07 21:54:16.398536,-99,2025-11-07 21:54:19.364972462
2025-11-07 21:54:16.398536,-23297,2025-11-07 21:54:19.372664769
2025-11-07 21:54:16.398536,-1,2025-11-07 21:54:19.380357077
2025-11-07 21:54:16.398536,-92,2025-11-07 21:54:19.388049385
2025-11-07 21:54:16.398536,-23809,2025-11-07 21:54:19.395741692
2025-11-07 21:54:16.398536,-1,2025-11-07 21:54:19.403434000
2025-11-07 21:54:16.398536,-87,2025-11-07 21:54:19.411126308
2025-11-07 21:54:16.398536,-19713,2025-11-07 21:54:19.418818615
2025-11-07 21:54:16.398536,-1,2025-11-07 21:54:19.426510923
2025-11-07 21:54:16.398536,-78,2025-11-07 21:54:19.434203231
2025-11-07 21:54:16.398536,-20225,2025-11-07 21:54:19.441895538
2025-11-07 21:54:16.398536,-1,2025-11-07 21:54:19.449587846
2025-11-07 21:54:16.398536,-71,2025-11-07 21:54:19.457280154
2025-11-07 21:54:16.398536,-16641,2025-11-07 21:54:19.464972462
2025-11-07 21:54:16.398536,-1,2025-11-07 21:54:19.472664769
2025-11-07 21:54:16.398536,-66,2025-11-07 21:54:19.480357077
2025-11-07 21:54:16.398536,-15361,2025-11-07 21:54:19.488049385
2025-11-07 21:54:16.398536,-1,2025-11-07 21:54:19.495741692
2025-11-07 21:54:16.398536,-52,2025-11-07 21:54:19.503434000
2025-11-07 21:54:16.398536,-12289,2025-11-07 21:54:19.511126308
2025-11-07 21:54:16.398536,-1,2025-11-07 21:54:19.518818615
2025-11-07 21:54:16.398536,-54,2025-11-07 21:54:19.526510923
2025-11-07 21:54:16.398536,-12289,2025-11-07 21:54:19.534203231
2025-11-07 21:54:16.398536,-1,2025-11-07 21:54:19.541895538
2025-11-07 21:54:16.398536,-42,2025-11-07 21:54:19.549587846
2025-11-07 21:54:16.398536,-10497,2025-11-07 21:54:19.557280154
2025-11-07 21:54:16.398536,-1,2025-11-07 21:54:19.564972462
2025-11-07 21:54:16.398536,-42,2025-11-07 21:54:19.572664769
2025-11-07 21:54:16.398536,-8705,2025-11-07 21:54:19.580357077
2025-11-07 21:54:16.398536,-1,2025-11-07 21:54:19.588049385
2025-11-07 21:54:16.398536,-33,2025-11-07 21:54:19.595741692
2025-11-07 21:54:16.398536,-7425,2025-11-07 21:54:19.603434000
2025-11-07 21:54:16.398536,-1,2025-11-07 21:54:19.611126308
2025-11-07 21:54:16.398536,-30,2025-11-07 21:54:19.618818615
2025-11-07 21:54:16.398536,-6913,2025-11-07 21:54:19.626510923
2025-11-07 21:54:16.398536,-1,2025-11-07 21:54:19.634203231
2025-11-07 21:54:16.398536,-26,2025-11-07 21:54:19.641895538
2025-11-07 21:54:16.398536,-4353,2025-11-07 21:54:19.649587846
2025-11-07 21:54:16.398536,-1,2025-11-07 21:54:19.657280154
2025-11-07 21:54:16.398536,-18,2025-11-07 21:54:19.664972462
2025-11-07 21:54:16.398536,-5121,2025-11-07 21:54:19.672664769
2025-11-07 21:54:16.398536,-1,2025-11-07 21:54:19.680357077
2025-11-07 21:54:16.398536,-18,2025-11-07 21:54:19.688049385
2025-11-07 21:54:16.398536,-3841,2025-11-07 21:54:19.695741692
2025-11-07 21:54:16.398536,-1,2025-11-07 21:54:19.703434000
2025-11-07 21:54:16.398536,-16,2025-11-07 21:54:19.711126308
2025-11-07 21:54:16.398536,-2561,2025-11-07 21:54:19.718818615
2025-11-07 21:54:16.398536,-1,2025-11-07 21:54:19.726510923
2025-11-07 21:54:16.398536,-4,2025-11-07 21:54:19.734203231
2025-11-07 21:54:16.398536,-2049,2025-11-07 21:54:19.741895538
2025-11-07 21:54:16.398536,-1,2025-11-07 21:54:19.749587846
2025-11-07 21:54:16.398536,-16,2025-11-07 21:54:19.757280154
2025-11-07 21:54:16.398536,-2561,2025-11-07 21:54:19.764972462
2025-11-07 21:54:16.398536,-1,2025-11-07 21:54:19.772664769
2025-11-07 21:54:16.398536,-4,2025-11-07 21:54:19.780357077
2025-11-07 21:54:16.983383,-4,2025-11-07 21:54:19.788049385
2025-11-07 21:54:16.983383,-1537,2025-11-07 21:54:19.795741692
2025-11-07 21:54:16.983383,-1,2025-11-07 21:54:19.803434000
2025-11-07 21:54:16.983383,-4,2025-11-07 21:54:19.811126308
2025-11-07 21:54:16.983383,-1537,2025-11-07 21:54:19.818818615
2025-11-07 21:54:16.983383,-1,2025-11-07 21:54:19.826510923
2025-11-07 21:54:16.983383,-7,2025-11-07 21:54:19.834203231
2025-11-07 21:54:16.983383,-257,2025-11-07 21:54:19.841895538
2025-11-07 21:54:16.983383,-1,2025-11-07 21:54:19.849587846
2025-11-07 21:54:16.983383,7,2025-11-07 21:54:19.857280154
2025-11-07 21:54:16.983383,4096,2025-11-07 21:54:19.864972462
2025-11-07 21:54:16.983383,0,2025-11-07 21:54:19.872664769
2025-11-07 21:54:16.983383,18,2025-11-07 21:54:19.880357077
2025-11-07 21:54:16.983383,3584,2025-11-07 21:54:19.888049385
2025-11-07 21:54:16.983383,0,2025-11-07 21:54:19.895741692
2025-11-07 21:54:16.983383,9,2025-11-07 21:54:19.903434000
2025-11-07 21:54:16.983383,2304,2025-11-07 21:54:19.911126308
2025-11-07 21:54:16.983383,0,2025-11-07 21:54:19.918818615
2025-11-07 21:54:16.983383,9,2025-11-07 21:54:19.926510923
2025-11-07 21:54:16.983383,2304,2025-11-07 21:54:19.934203230
2025-11-07 21:54:16.983383,0,2025-11-07 21:54:19.941895538
2025-11-07 21:54:16.983383,11,2025-11-07 21:54:19.949587846
2025-11-07 21:54:16.983383,2816,2025-11-07 21:54:19.957280154
2025-11-07 21:54:16.983383,0,2025-11-07 21:54:19.964972462
2025-11-07 21:54:16.983383,9,2025-11-07 21:54:19.972664769
2025-11-07 21:54:16.983383,2816,2025-11-07 21:54:19.980357077
2025-11-07 21:54:16.983383,0,2025-11-07 21:54:19.988049385
2025-11-07 21:54:16.983383,14,2025-11-07 21:54:19.995741692
2025-11-07 21:54:16.983383,4096,2025-11-07 21:54:20.003434000
2025-11-07 21:54:16.983383,0,2025-11-07 21:54:20.011126308
2025-11-07 21:54:16.983383,21,2025-11-07 21:54:20.018818615
2025-11-07 21:54:16.983383,5888,2025-11-07 21:54:20.026510923
2025-11-07 21:54:16.983383,0,2025-11-07 21:54:20.034203231
2025-11-07 21:54:16.983383,21,2025-11-07 21:54:20.041895538
2025-11-07 21:54:16.983383,4608,2025-11-07 21:54:20.049587846
2025-11-07 21:54:16.983383,0,2025-11-07 21:54:20.057280154
2025-11-07 21:54:16.983383,16,2025-11-07 21:54:20.064972462
2025-11-07 21:54:16.983383,4608,2025-11-07 21:54:20.072664769
2025-11-07 21:54:16.983383,0,2025-11-07 21:54:20.080357077
2025-11-07 21:54:16.983383,14,2025-11-07 21:54:20.088049385
2025-11-07 21:54:16.983383,2816,2025-11-07 21:54:20.095741692
2025-11-07 21:54:16.983383,0,2025-11-07 21:54:20.103434000
2025-11-07 21:54:16.983383,7,2025-11-07 21:54:20.111126308
2025-11-07 21:54:16.983383,-1024,2025-11-07 21:54:20.118818615
2025-11-07 21:54:16.983383,-1,2025-11-07 21:54:20.126510923
2025-11-07 21:54:16.983383,-7,2025-11-07 21:54:20.134203231
2025-11-07 21:54:16.983383,3071,2025-11-07 21:54:20.141895538
2025-11-07 21:54:16.983383,0,2025-11-07 21:54:20.149587846
2025-11-07 21:54:16.983383,37,2025-11-07 21:54:20.157280154
2025-11-07 21:54:16.983383,12544,2025-11-07 21:54:20.164972462
2025-11-07 21:54:16.983383,0,2025-11-07 21:54:20.172664769
2025-11-07 21:54:16.983383,66,2025-11-07 21:54:20.180357077
2025-11-07 21:54:16.983383,20480,2025-11-07 21:54:20.188049385
2025-11-07 21:54:16.983383,0,2025-11-07 21:54:20.195741692
2025-11-07 21:54:16.983383,75,2025-11-07 21:54:20.203434000
2025-11-07 21:54:16.983383,16128,2025-11-07 21:54:20.211126308
2025-11-07 21:54:16.983383,0,2025-11-07 21:54:20.218818615
2025-11-07 21:54:16.983383,59,2025-11-07 21:54:20.226510923
2025-11-07 21:54:16.983383,12544,2025-11-07 21:54:20.234203231
2025-11-07 21:54:16.983383,0,2025-11-07 21:54:20.241895538
2025-11-07 21:54:16.983383,28,2025-11-07 21:54:20.249587846
2025-11-07 21:54:16.983383,1024,2025-11-07 21:54:20.257280154
2025-11-07 21:54:16.983383,0,2025-11-07 21:54:20.264972462
2025-11-07 21:54:16.983383,0,2025-11-07 21:54:20.272664769
2025-11-07 21:54:16.983383,1024,2025-11-07 21:54:20.280357077
2025-11-07 21:54:16.983383,0,2025-11-07 21:54:20.288049385
2025-11-07 21:54:16.983383,2,2025-11-07 21:54:20.295741692
2025-11-07 21:54:16.983383,0,2025-11-07 21:54:20.303434000
2025-11-07 21:54:16.983383,0,2025-11-07 21:54:20.311126308
2025-11-07 21:54:16.983383,4,2025-11-07 21:54:20.318818615
2025-11-07 21:54:16.983383,-1792,2025-11-07 21:54:20.326510923
2025-11-07 21:54:16.983383,-1,2025-11-07 21:54:20.334203231
2025-11-07 21:54:16.983383,-66,2025-11-07 21:54:20.341895538
2025-11-07 21:54:16.983383,-8705,2025-11-07 21:54:20.349587846
2025-11-07 21:54:16.983383,-1,2025-11-07 21:54:20.357280154
2025-11-07 21:54:16.983383,336,2025-11-07 21:54:20.364972462
2025-11-07 21:54:16.983383,-19200,2025-11-07 21:54:20.372664769
2025-11-07 21:54:16.983383,4,2025-11-07 21:54:20.380357077
2025-11-07 21:54:16.983383,2522,2025-11-07 21:54:20.388049385
2025-11-07 21:54:16.983383,-22272,2025-11-07 21:54:20.395741692
2025-11-07 21:54:16.983383,14,2025-11-07 21:54:20.403434000
2025-11-07 21:54:16.983383,4106,2025-11-07 21:54:20.411126308
2025-11-07 21:54:16.983383,-16640,2025-11-07 21:54:20.418818615
2025-11-07 21:54:16.983383,13,2025-11-07 21:54:20.426510923
2025-11-07 21:54:16.983383,2631,2025-11-07 21:54:20.434203231
2025-11-07 21:54:16.983383,-10752,2025-11-07 21:54:20.441895538
2025-11-07 21:54:16.983383,5,2025-11-07 21:54:20.449587846
2025-11-07 21:54:16.983383,-118,2025-11-07 21:54:20.457280154
2025-11-07 21:54:16.983383,21247,2025-11-07 21:54:20.464972462
2025-11-07 21:54:16.983383,-5,2025-11-07 21:54:20.472664769
2025-11-07 21:54:16.983383,-1018,2025-11-07 21:54:20.480357077
2025-11-07 21:54:16.983383,10239,2025-11-07 21:54:20.488049385
2025-11-07 21:54:16.983383,-3,2025-11-07 21:54:20.495741692
2025-11-07 21:54:16.983383,-892,2025-11-07 21:54:20.503434000
2025-11-07 21:54:16.983383,-27393,2025-11-07 21:54:20.511126308
2025-11-07 21:54:16.983383,-4,2025-11-07 21:54:20.518818615
2025-11-07 21:54:16.983383,-724,2025-11-07 21:54:20.526510923
2025-11-07 21:54:16.983383,9727,2025-11-07 21:54:20.534203231
2025-11-07 21:54:16.983383,-3,2025-11-07 21:54:20.541895538
2025-11-07 21:54:16.983383,-729,2025-11-07 21:54:20.549587846
2025-11-07 21:54:16.983383,30207,2025-11-07 21:54:20.557280154
2025-11-07 21:54:16.983383,-3,2025-11-07 21:54:20.564972462
2025-11-07 21:54:16.983383,-622,2025-11-07 21:54:20.572664769
2025-11-07 21:54:16.983383,-24833,2025-11-07 21:54:20.580357077
2025-11-07 21:54:16.983383,-3,2025-11-07 21:54:20.588049385
2025-11-07 21:54:16.983383,-573,2025-11-07 21:54:20.595741692
2025-11-07 21:54:16.983383,-7425,2025-11-07 21:54:20.603434000
2025-11-07 21:54:16.983383,-3,2025-11-07 21:54:20.611126308
2025-11-07 21:54:16.983383,-532,2025-11-07 21:54:20.618818615
2025-11-07 21:54:17.523365,-516,2025-11-07 21:54:20.626510923
2025-11-07 21:54:17.523365,4863,2025-11-07 21:54:20.634203231
2025-11-07 21:54:17.523365,-2,2025-11-07 21:54:20.641895538
2025-11-07 21:54:17.523365,-490,2025-11-07 21:54:20.649587846
2025-11-07 21:54:17.523365,5887,2025-11-07 21:54:20.657280154
2025-11-07 21:54:17.523365,-2,2025-11-07 21:54:20.664972462
2025-11-07 21:54:17.523365,-485,2025-11-07 21:54:20.672664769
2025-11-07 21:54:17.523365,6655,2025-11-07 21:54:20.680357077
2025-11-07 21:54:17.523365,-2,2025-11-07 21:54:20.688049385
2025-11-07 21:54:17.523365,-494,2025-11-07 21:54:20.695741692
2025-11-07 21:54:17.523365,2303,2025-11-07 21:54:20.703434000
2025-11-07 21:54:17.523365,-2,2025-11-07 21:54:20.711126308
2025-11-07 21:54:17.523365,-523,2025-11-07 21:54:20.718818615
2025-11-07 21:54:17.523365,-8705,2025-11-07 21:54:20.726510923
2025-11-07 21:54:17.523365,-3,2025-11-07 21:54:20.734203231
2025-11-07 21:54:17.523365,-561,2025-11-07 21:54:20.741895538
2025-11-07 21:54:17.523365,-18945,2025-11-07 21:54:20.749587846
2025-11-07 21:54:17.523365,-3,2025-11-07 21:54:20.757280154
2025-11-07 21:54:17.523365,-622,2025-11-07 21:54:20.764972462
2025-11-07 21:54:17.523365,29183,2025-11-07 21:54:20.772664769
2025-11-07 21:54:17.523365,-3,2025-11-07 21:54:20.780357077
2025-11-07 21:54:17.523365,-677,2025-11-07 21:54:20.788049385
2025-11-07 21:54:17.523365,21247,2025-11-07 21:54:20.795741692
2025-11-07 21:54:17.523365,-3,2025-11-07 21:54:20.803434000
2025-11-07 21:54:17.523365,-672,2025-11-07 21:54:20.811126308
2025-11-07 21:54:17.523365,32767,2025-11-07 21:54:20.818818615
2025-11-07 21:54:17.523365,-3,2025-11-07 21:54:20.826510923
2025-11-07 21:54:17.523365,-589,2025-11-07 21:54:20.834203231
2025-11-07 21:54:17.523365,1791,2025-11-07 21:54:20.841895538
2025-11-07 21:54:17.523365,-2,2025-11-07 21:54:20.849587846
2025-11-07 21:54:17.523365,-393,2025-11-07 21:54:20.857280154
2025-11-07 21:54:17.523365,-1281,2025-11-07 21:54:20.864972462
2025-11-07 21:54:17.523365,-2,2025-11-07 21:54:20.872664769
2025-11-07 21:54:17.523365,-139,2025-11-07 21:54:20.880357077
2025-11-07 21:54:17.523365,-9217,2025-11-07 21:54:20.888049385
2025-11-07 21:54:17.523365,-1,2025-11-07 21:54:20.895741692
2025-11-07 21:54:17.523365,42,2025-11-07 21:54:20.903434000
2025-11-07 21:54:17.523365,25344,2025-11-07 21:54:20.911126308
2025-11-07 21:54:17.523365,0,2025-11-07 21:54:20.918818615
2025-11-07 21:54:17.523365,132,2025-11-07 21:54:20.926510923
2025-11-07 21:54:17.523365,-27392,2025-11-07 21:54:20.934203230
2025-11-07 21:54:17.523365,0,2025-11-07 21:54:20.941895538
2025-11-07 21:54:17.523365,153,2025-11-07 21:54:20.949587846
2025-11-07 21:54:17.523365,-26880,2025-11-07 21:54:20.957280154
2025-11-07 21:54:17.523365,0,2025-11-07 21:54:20.964972462
2025-11-07 21:54:17.523365,146,2025-11-07 21:54:20.972664769
2025-11-07 21:54:17.523365,-28672,2025-11-07 21:54:20.980357077
2025-11-07 21:54:17.523365,0,2025-11-07 21:54:20.988049385
2025-11-07 21:54:17.523365,142,2025-11-07 21:54:20.995741692
2025-11-07 21:54:17.523365,-31232,2025-11-07 21:54:21.003434000
2025-11-07 21:54:17.523365,0,2025-11-07 21:54:21.011126308
2025-11-07 21:54:17.523365,130,2025-11-07 21:54:21.018818615
2025-11-07 21:54:17.523365,31488,2025-11-07 21:54:21.026510923
2025-11-07 21:54:17.523365,0,2025-11-07 21:54:21.034203231
2025-11-07 21:54:17.523365,113,2025-11-07 21:54:21.041895538
2025-11-07 21:54:17.523365,27136,2025-11-07 21:54:21.049587846
2025-11-07 21:54:17.523365,0,2025-11-07 21:54:21.057280154
2025-11-07 21:54:17.523365,104,2025-11-07 21:54:21.064972462
2025-11-07 21:54:17.523365,24832,2025-11-07 21:54:21.072664769
2025-11-07 21:54:17.523365,0,2025-11-07 21:54:21.080357077
2025-11-07 21:54:17.523365,80,2025-11-07 21:54:21.088049385
2025-11-07 21:54:17.523365,17408,2025-11-07 21:54:21.095741692
2025-11-07 21:54:17.523365,0,2025-11-07 21:54:21.103434000
2025-11-07 21:54:17.523365,61,2025-11-07 21:54:21.111126308
2025-11-07 21:54:17.523365,12544,2025-11-07 21:54:21.118818615
2025-11-07 21:54:17.523365,0,2025-11-07 21:54:21.126510923
2025-11-07 21:54:17.523365,33,2025-11-07 21:54:21.134203231
2025-11-07 21:54:17.523365,5888,2025-11-07 21:54:21.141895538
2025-11-07 21:54:17.523365,0,2025-11-07 21:54:21.149587846
2025-11-07 21:54:17.523365,16,2025-11-07 21:54:21.157280154
2025-11-07 21:54:17.523365,2816,2025-11-07 21:54:21.164972462
2025-11-07 21:54:17.523365,0,2025-11-07 21:54:21.172664769
2025-11-07 21:54:17.523365,4,2025-11-07 21:54:21.180357077
2025-11-07 21:54:17.523365,-1024,2025-11-07 21:54:21.188049385
2025-11-07 21:54:17.523365,-1,2025-11-07 21:54:21.195741692
2025-11-07 21:54:17.523365,-7,2025-11-07 21:54:21.203434000
2025-11-07 21:54:17.523365,-769,2025-11-07 21:54:21.211126308
2025-11-07 21:54:17.523365,-1,2025-11-07 21:54:21.218818615
2025-11-07 21:54:17.523365,-4,2025-11-07 21:54:21.226510923
2025-11-07 21:54:17.523365,-769,2025-11-07 21:54:21.234203231
2025-11-07 21:54:17.523365,-1,2025-11-07 21:54:21.241895538
2025-11-07 21:54:17.523365,-2,2025-11-07 21:54:21.249587846
2025-11-07 21:54:17.523365,767,2025-11-07 21:54:21.257280154
2025-11-07 21:54:17.523365,0,2025-11-07 21:54:21.264972462
2025-11-07 21:54:17.523365,11,2025-11-07 21:54:21.272664769
2025-11-07 21:54:17.523365,4608,2025-11-07 21:54:21.280357077
2025-11-07 21:54:17.523365,0,2025-11-07 21:54:21.288049385
2025-11-07 21:54:17.523365,21,2025-11-07 21:54:21.295741692
2025-11-07 21:54:17.523365,5888,2025-11-07 21:54:21.303434000
2025-11-07 21:54:17.523365,0,2025-11-07 21:54:21.311126308
2025-11-07 21:54:17.523365,30,2025-11-07 21:54:21.318818615
2025-11-07 21:54:17.523365,8448,2025-11-07 21:54:21.326510923
2025-11-07 21:54:17.523365,0,2025-11-07 21:54:21.334203231
2025-11-07 21:54:17.523365,35,2025-11-07 21:54:21.341895538
2025-11-07 21:54:17.523365,10240,2025-11-07 21:54:21.349587846
2025-11-07 21:54:17.523365,0,2025-11-07 21:54:21.357280154
2025-11-07 21:54:17.523365,44,2025-11-07 21:54:21.364972462
2025-11-07 21:54:17.523365,11264,2025-11-07 21:54:21.372664769
2025-11-07 21:54:17.523365,0,2025-11-07 21:54:21.380357077
2025-11-07 21:54:17.523365,44,2025-11-07 21:54:21.388049385
2025-11-07 21:54:17.523365,10752,2025-11-07 21:54:21.395741692
2025-11-07 21:54:17.523365,0,2025-11-07 21:54:21.403434000
2025-11-07 21:54:17.523365,42,2025-11-07 21:54:21.411126308
2025-11-07 21:54:17.523365,12032,2025-11-07 21:54:21.418818615
2025-11-07 21:54:17.523365,0,2025-11-07 21:54:21.426510923
2025-11-07 21:54:17.523365,37,2025-11-07 21:54:21.434203231
2025-11-07 21:54:17.523365,8960,2025-11-07 21:54:21.441895538
2025-11-07 21:54:17.523365,0,2025-11-07 21:54:21.449587846
2025-11-07 21:54:17.523365,56,2025-11-07 21:54:21.457280154
2025-11-07 21:54:18.153496,80,2025-11-07 21:54:21.464972462
2025-11-07 21:54:18.153496,22272,2025-11-07 21:54:21.472664769
2025-11-07 21:54:18.153496,0,2025-11-07 21:54:21.480357077
2025-11-07 21:54:18.153496,106,2025-11-07 21:54:21.488049385
2025-11-07 21:54:18.153496,31488,2025-11-07 21:54:21.495741692
2025-11-07 21:54:18.153496,0,2025-11-07 21:54:21.503434000
2025-11-07 21:54:18.153496,118,2025-11-07 21:54:21.511126308
2025-11-07 21:54:18.153496,27648,2025-11-07 21:54:21.518818615
2025-11-07 21:54:18.153496,0,2025-11-07 21:54:21.526510923
2025-11-07 21:54:18.153496,111,2025-11-07 21:54:21.534203231
2025-11-07 21:54:18.153496,27648,2025-11-07 21:54:21.541895538
2025-11-07 21:54:18.153496,0,2025-11-07 21:54:21.549587846
2025-11-07 21:54:18.153496,89,2025-11-07 21:54:21.557280154
2025-11-07 21:54:18.153496,19200,2025-11-07 21:54:21.564972462
2025-11-07 21:54:18.153496,0,2025-11-07 21:54:21.572664769
2025-11-07 21:54:18.153496,73,2025-11-07 21:54:21.580357077
2025-11-07 21:54:18.153496,17408,2025-11-07 21:54:21.588049385
2025-11-07 21:54:18.153496,0,2025-11-07 21:54:21.595741692
2025-11-07 21:54:18.153496,63,2025-11-07 21:54:21.603434000
2025-11-07 21:54:18.153496,16128,2025-11-07 21:54:21.611126308
2025-11-07 21:54:18.153496,0,2025-11-07 21:54:21.618818615
2025-11-07 21:54:18.153496,63,2025-11-07 21:54:21.626510923
2025-11-07 21:54:18.153496,13312,2025-11-07 21:54:21.634203231
2025-11-07 21:54:18.153496,0,2025-11-07 21:54:21.641895538
2025-11-07 21:54:18.153496,0,2025-11-07 21:54:21.649587846
2025-11-07 21:54:18.153496,-4096,2025-11-07 21:54:21.657280154
2025-11-07 21:54:18.153496,-1,2025-11-07 21:54:21.664972462
2025-11-07 21:54:18.153496,227,2025-11-07 21:54:21.672664769
2025-11-07 21:54:18.153496,-32000,2025-11-07 21:54:21.680357077
2025-11-07 21:54:18.153496,3,2025-11-07 21:54:21.688049385
2025-11-07 21:54:18.153496,2029,2025-11-07 21:54:21.695741692
2025-11-07 21:54:18.153496,6912,2025-11-07 21:54:21.703434000
2025-11-07 21:54:18.153496,13,2025-11-07 21:54:21.711126308
2025-11-07 21:54:18.153496,4115,2025-11-07 21:54:21.718818615
2025-11-07 21:54:18.153496,-10240,2025-11-07 21:54:21.726510923
2025-11-07 21:54:18.153496,14,2025-11-07 21:54:21.734203231
2025-11-07 21:54:18.153496,2874,2025-11-07 21:54:21.741895538
2025-11-07 21:54:18.153496,-6656,2025-11-07 21:54:21.749587846
2025-11-07 21:54:18.153496,6,2025-11-07 21:54:21.757280154
2025-11-07 21:54:18.153496,265,2025-11-07 21:54:21.764972462
2025-11-07 21:54:18.153496,14848,2025-11-07 21:54:21.772664769
2025-11-07 21:54:18.153496,-4,2025-11-07 21:54:21.780357077
2025-11-07 21:54:18.153496,-1006,2025-11-07 21:54:21.788049385
2025-11-07 21:54:18.153496,26623,2025-11-07 21:54:21.795741692
2025-11-07 21:54:18.153496,-3,2025-11-07 21:54:21.803434000
2025-11-07 21:54:18.153496,-755,2025-11-07 21:54:21.811126308
2025-11-07 21:54:18.153496,-7425,2025-11-07 21:54:21.818818615
2025-11-07 21:54:18.153496,-4,2025-11-07 21:54:21.826510923
2025-11-07 21:54:18.153496,-651,2025-11-07 21:54:21.834203231
2025-11-07 21:54:18.153496,-28673,2025-11-07 21:54:21.841895538
2025-11-07 21:54:18.153496,-3,2025-11-07 21:54:21.849587846
2025-11-07 21:54:18.153496,-637,2025-11-07 21:54:21.857280154
2025-11-07 21:54:18.153496,-15873,2025-11-07 21:54:21.864972462
2025-11-07 21:54:18.153496,-3,2025-11-07 21:54:21.872664769
2025-11-07 21:54:18.153496,-532,2025-11-07 21:54:21.880357077
2025-11-07 21:54:18.153496,-2561,2025-11-07 21:54:21.888049385
2025-11-07 21:54:18.153496,-3,2025-11-07 21:54:21.895741692
2025-11-07 21:54:18.153496,-492,2025-11-07 21:54:21.903434000
2025-11-07 21:54:18.153496,12543,2025-11-07 21:54:21.911126308
2025-11-07 21:54:18.153496,-2,2025-11-07 21:54:21.918818615
2025-11-07 21:54:18.153496,-449,2025-11-07 21:54:21.926510923
2025-11-07 21:54:18.153496,20991,2025-11-07 21:54:21.934203230
2025-11-07 21:54:18.153496,-2,2025-11-07 21:54:21.941895538
2025-11-07 21:54:18.153496,-407,2025-11-07 21:54:21.949587846
2025-11-07 21:54:18.153496,30207,2025-11-07 21:54:21.957280154
2025-11-07 21:54:18.153496,-2,2025-11-07 21:54:21.964972462
2025-11-07 21:54:18.153496,-390,2025-11-07 21:54:21.972664769
2025-11-07 21:54:18.153496,-31745,2025-11-07 21:54:21.980357077
2025-11-07 21:54:18.153496,-2,2025-11-07 21:54:21.988049385
2025-11-07 21:54:18.153496,-383,2025-11-07 21:54:21.995741692
2025-11-07 21:54:18.153496,31999,2025-11-07 21:54:22.003434000
2025-11-07 21:54:18.153496,-2,2025-11-07 21:54:22.011126308
2025-11-07 21:54:18.153496,-395,2025-11-07 21:54:22.018818615
2025-11-07 21:54:18.153496,25343,2025-11-07 21:54:22.026510923
2025-11-07 21:54:18.153496,-2,2025-11-07 21:54:22.034203231
2025-11-07 21:54:18.153496,-435,2025-11-07 21:54:22.041895538
2025-11-07 21:54:18.153496,15615,2025-11-07 21:54:22.049587846
2025-11-07 21:54:18.153496,-2,2025-11-07 21:54:22.057280154
2025-11-07 21:54:18.153496,-480,2025-11-07 21:54:22.064972462
2025-11-07 21:54:18.153496,-769,2025-11-07 21:54:22.072664769
2025-11-07 21:54:18.153496,-3,2025-11-07 21:54:22.080357077
2025-11-07 21:54:18.153496,-542,2025-11-07 21:54:22.088049385
2025-11-07 21:54:18.153496,-11009,2025-11-07 21:54:22.095741692
2025-11-07 21:54:18.153496,-3,2025-11-07 21:54:22.103434000
2025-11-07 21:54:18.153496,-554,2025-11-07 21:54:22.111126308
2025-11-07 21:54:18.153496,-6657,2025-11-07 21:54:22.118818615
2025-11-07 21:54:18.153496,-3,2025-11-07 21:54:22.126510923
2025-11-07 21:54:18.153496,-518,2025-11-07 21:54:22.134203231
2025-11-07 21:54:18.153496,9471,2025-11-07 21:54:22.141895538
2025-11-07 21:54:18.153496,-2,2025-11-07 21:54:22.149587846
2025-11-07 21:54:18.153496,-407,2025-11-07 21:54:22.157280154
2025-11-07 21:54:18.153496,-15361,2025-11-07 21:54:22.164972462
2025-11-07 21:54:18.153496,-2,2025-11-07 21:54:22.172664769
2025-11-07 21:54:18.153496,-213,2025-11-07 21:54:22.180357077
2025-11-07 21:54:18.153496,-26369,2025-11-07 21:54:22.188049385
2025-11-07 21:54:18.153496,-1,2025-11-07 21:54:22.195741692
2025-11-07 21:54:18.153496,-11,2025-11-07 21:54:22.203434000
2025-11-07 21:54:18.153496,14591,2025-11-07 21:54:22.211126308
2025-11-07 21:54:18.153496,0,2025-11-07 21:54:22.218818615
2025-11-07 21:54:18.153496,104,2025-11-07 21:54:22.226510923
2025-11-07 21:54:18.153496,32512,2025-11-07 21:54:22.234203231
2025-11-07 21:54:18.153496,0,2025-11-07 21:54:22.241895538
2025-11-07 21:54:18.153496,139,2025-11-07 21:54:22.249587846
2025-11-07 21:54:18.153496,-29184,2025-11-07 21:54:22.257280154
2025-11-07 21:54:18.153496,0,2025-11-07 21:54:22.264972462
2025-11-07 21:54:18.153496,139,2025-11-07 21:54:22.272664769
2025-11-07 21:54:18.153496,-29184,2025-11-07 21:54:22.280357077
2025-11-07 21:54:18.153496,0,2025-11-07 21:54:22.288049385
2025-11-07 21:54:18.153496,142,2025-11-07 21:54:22.295741692
2025-11-07 21:54:18.693899,127,2025-11-07 21:54:22.303434000
2025-11-07 21:54:18.693899,30720,2025-11-07 21:54:22.311126308
2025-11-07 21:54:18.693899,0,2025-11-07 21:54:22.318818615
2025-11-07 21:54:18.693899,118,2025-11-07 21:54:22.326510923
2025-11-07 21:54:18.693899,27136,2025-11-07 21:54:22.334203231
2025-11-07 21:54:18.693899,0,2025-11-07 21:54:22.341895538
2025-11-07 21:54:18.693899,97,2025-11-07 21:54:22.349587846
2025-11-07 21:54:18.693899,23552,2025-11-07 21:54:22.357280154
2025-11-07 21:54:18.693899,0,2025-11-07 21:54:22.364972462
2025-11-07 21:54:18.693899,78,2025-11-07 21:54:22.372664769
2025-11-07 21:54:18.693899,15616,2025-11-07 21:54:22.380357077
2025-11-07 21:54:18.693899,0,2025-11-07 21:54:22.388049385
2025-11-07 21:54:18.693899,61,2025-11-07 21:54:22.395741692
2025-11-07 21:54:18.693899,15616,2025-11-07 21:54:22.403434000
2025-11-07 21:54:18.693899,0,2025-11-07 21:54:22.411126308
2025-11-07 21:54:18.693899,56,2025-11-07 21:54:22.418818615
2025-11-07 21:54:18.693899,12544,2025-11-07 21:54:22.426510923
2025-11-07 21:54:18.693899,0,2025-11-07 21:54:22.434203231
2025-11-07 21:54:18.693899,42,2025-11-07 21:54:22.441895538
2025-11-07 21:54:18.693899,11264,2025-11-07 21:54:22.449587846
2025-11-07 21:54:18.693899,0,2025-11-07 21:54:22.457280154
2025-11-07 21:54:18.693899,47,2025-11-07 21:54:22.464972462
2025-11-07 21:54:18.693899,12544,2025-11-07 21:54:22.472664769
2025-11-07 21:54:18.693899,0,2025-11-07 21:54:22.480357077
2025-11-07 21:54:18.693899,63,2025-11-07 21:54:22.488049385
2025-11-07 21:54:18.693899,17408,2025-11-07 21:54:22.495741692
2025-11-07 21:54:18.693899,0,2025-11-07 21:54:22.503434000
2025-11-07 21:54:18.693899,61,2025-11-07 21:54:22.511126308
2025-11-07 21:54:18.693899,15104,2025-11-07 21:54:22.518818615
2025-11-07 21:54:18.693899,0,2025-11-07 21:54:22.526510923
2025-11-07 21:54:18.693899,66,2025-11-07 21:54:22.534203231
2025-11-07 21:54:18.693899,17408,2025-11-07 21:54:22.541895538
2025-11-07 21:54:18.693899,0,2025-11-07 21:54:22.549587846
2025-11-07 21:54:18.693899,61,2025-11-07 21:54:22.557280154
2025-11-07 21:54:18.693899,14336,2025-11-07 21:54:22.564972462
2025-11-07 21:54:18.693899,0,2025-11-07 21:54:22.572664769
2025-11-07 21:54:18.693899,56,2025-11-07 21:54:22.580357077
2025-11-07 21:54:18.693899,15104,2025-11-07 21:54:22.588049385
2025-11-07 21:54:18.693899,0,2025-11-07 21:54:22.595741692
2025-11-07 21:54:18.693899,56,2025-11-07 21:54:22.603434000
2025-11-07 21:54:18.693899,13312,2025-11-07 21:54:22.611126308
2025-11-07 21:54:18.693899,0,2025-11-07 21:54:22.618818615
2025-11-07 21:54:18.693899,49,2025-11-07 21:54:22.626510923
2025-11-07 21:54:18.693899,11264,2025-11-07 21:54:22.634203231
2025-11-07 21:54:18.693899,0,2025-11-07 21:54:22.641895538
2025-11-07 21:54:18.693899,33,2025-11-07 21:54:22.649587846
2025-11-07 21:54:18.693899,5376,2025-11-07 21:54:22.657280154
2025-11-07 21:54:18.693899,0,2025-11-07 21:54:22.664972462
2025-11-07 21:54:18.693899,28,2025-11-07 21:54:22.672664769
2025-11-07 21:54:18.693899,12544,2025-11-07 21:54:22.680357077
2025-11-07 21:54:18.693899,0,2025-11-07 21:54:22.688049385
2025-11-07 21:54:18.693899,61,2025-11-07 21:54:22.695741692
2025-11-07 21:54:18.693899,20480,2025-11-07 21:54:22.703434000
2025-11-07 21:54:18.693899,0,2025-11-07 21:54:22.711126308
2025-11-07 21:54:18.693899,111,2025-11-07 21:54:22.718818615
2025-11-07 21:54:18.693899,28928,2025-11-07 21:54:22.726510923
2025-11-07 21:54:18.693899,0,2025-11-07 21:54:22.734203231
2025-11-07 21:54:18.693899,92,2025-11-07 21:54:22.741895538
2025-11-07 21:54:18.693899,21760,2025-11-07 21:54:22.749587846
2025-11-07 21:54:18.693899,0,2025-11-07 21:54:22.757280154
2025-11-07 21:54:18.693899,80,2025-11-07 21:54:22.764972462
2025-11-07 21:54:18.693899,12544,2025-11-07 21:54:22.772664769
2025-11-07 21:54:18.693899,0,2025-11-07 21:54:22.780357077
2025-11-07 21:54:18.693899,23,2025-11-07 21:54:22.788049385
2025-11-07 21:54:18.693899,6656,2025-11-07 21:54:22.795741692
2025-11-07 21:54:18.693899,0,2025-11-07 21:54:22.803434000
2025-11-07 21:54:18.693899,28,2025-11-07 21:54:22.811126308
2025-11-07 21:54:18.693899,5888,2025-11-07 21:54:22.818818615
2025-11-07 21:54:18.693899,0,2025-11-07 21:54:22.826510923
2025-11-07 21:54:18.693899,18,2025-11-07 21:54:22.834203231
2025-11-07 21:54:18.693899,4608,2025-11-07 21:54:22.841895538
2025-11-07 21:54:18.693899,0,2025-11-07 21:54:22.849587846
2025-11-07 21:54:18.693899,14,2025-11-07 21:54:22.857280154
2025-11-07 21:54:18.693899,-5376,2025-11-07 21:54:22.864972462
2025-11-07 21:54:18.693899,-1,2025-11-07 21:54:22.872664769
2025-11-07 21:54:18.693899,-71,2025-11-07 21:54:22.880357077
2025-11-07 21:54:18.693899,10495,2025-11-07 21:54:22.888049385
2025-11-07 21:54:18.693899,0,2025-11-07 21:54:22.895741692
2025-11-07 21:54:18.693899,539,2025-11-07 21:54:22.903434000
2025-11-07 21:54:18.693899,1280,2025-11-07 21:54:22.911126308
2025-11-07 21:54:18.693899,6,2025-11-07 21:54:22.918818615
2025-11-07 21:54:18.693899,2917,2025-11-07 21:54:22.926510923
2025-11-07 21:54:18.693899,-20480,2025-11-07 21:54:22.934203230
2025-11-07 21:54:18.693899,15,2025-11-07 21:54:22.941895538
2025-11-07 21:54:18.693899,4089,2025-11-07 21:54:22.949587846
2025-11-07 21:54:18.693899,-3328,2025-11-07 21:54:22.957280154
2025-11-07 21:54:18.693899,12,2025-11-07 21:54:22.964972462
2025-11-07 21:54:18.693899,2332,2025-11-07 21:54:22.972664769
2025-11-07 21:54:18.693899,-6400,2025-11-07 21:54:22.980357077
2025-11-07 21:54:18.693899,3,2025-11-07 21:54:22.988049385
2025-11-07 21:54:18.693899,-601,2025-11-07 21:54:22.995741692
2025-11-07 21:54:18.693899,11007,2025-11-07 21:54:23.003434000
2025-11-07 21:54:18.693899,-5,2025-11-07 21:54:23.011126308
2025-11-07 21:54:18.693899,-857,2025-11-07 21:54:23.018818615
2025-11-07 21:54:18.693899,7167,2025-11-07 21:54:23.026510923
2025-11-07 21:54:18.693899,-3,2025-11-07 21:54:23.034203231
2025-11-07 21:54:18.693899,-902,2025-11-07 21:54:23.041895538
2025-11-07 21:54:18.693899,-6657,2025-11-07 21:54:23.049587846
2025-11-07 21:54:18.693899,-4,2025-11-07 21:54:23.057280154
2025-11-07 21:54:18.693899,-686,2025-11-07 21:54:23.064972462
2025-11-07 21:54:18.693899,13823,2025-11-07 21:54:23.072664769
2025-11-07 21:54:18.693899,-3,2025-11-07 21:54:23.080357077
2025-11-07 21:54:18.693899,-682,2025-11-07 21:54:23.088049385
2025-11-07 21:54:18.693899,-26113,2025-11-07 21:54:23.095741692
2025-11-07 21:54:18.693899,-3,2025-11-07 21:54:23.103434000
2025-11-07 21:54:18.693899,-606,2025-11-07 21:54:23.111126308
2025-11-07 21:54:18.693899,-18945,2025-11-07 21:54:23.118818615
2025-11-07 21:54:18.693899,-3,2025-11-07 21:54:23.126510923
2025-11-07 21:54:18.693899,-549,2025-11-07 21:54:23.134203231
2025-11-07 21:54:19.233353,-525,2025-11-07 21:54:23.141895538
2025-11-07 21:54:19.233353,1023,2025-11-07 21:54:23.149587846
2025-11-07 21:54:19.233353,-2,2025-11-07 21:54:23.157280154
2025-11-07 21:54:19.233353,-483,2025-11-07 21:54:23.164972462
2025-11-07 21:54:19.233353,11519,2025-11-07 21:54:23.172664769
2025-11-07 21:54:19.233353,-2,2025-11-07 21:54:23.180357077
2025-11-07 21:54:19.233353,-464,2025-11-07 21:54:23.188049385
2025-11-07 21:54:19.233353,14335,2025-11-07 21:54:23.195741692
2025-11-07 21:54:19.233353,-2,2025-11-07 21:54:23.203434000
2025-11-07 21:54:19.233353,-449,2025-11-07 21:54:23.211126308
2025-11-07 21:54:19.233353,15615,2025-11-07 21:54:23.218818615
2025-11-07 21:54:19.233353,-2,2025-11-07 21:54:23.226510923
2025-11-07 21:54:19.233353,-461,2025-11-07 21:54:23.234203231
2025-11-07 21:54:19.233353,10239,2025-11-07 21:54:23.241895538
2025-11-07 21:54:19.233353,-2,2025-11-07 21:54:23.249587846
2025-11-07 21:54:19.233353,-490,2025-11-07 21:54:23.257280154
2025-11-07 21:54:19.233353,511,2025-11-07 21:54:23.264972462
2025-11-07 21:54:19.233353,-2,2025-11-07 21:54:23.272664769
2025-11-07 21:54:19.233353,-535,2025-11-07 21:54:23.280357077
2025-11-07 21:54:19.233353,-11009,2025-11-07 21:54:23.288049385
2025-11-07 21:54:19.233353,-3,2025-11-07 21:54:23.295741692
2025-11-07 21:54:19.233353,-570,2025-11-07 21:54:23.303434000
2025-11-07 21:54:19.233353,-19457,2025-11-07 21:54:23.311126308
2025-11-07 21:54:19.233353,-3,2025-11-07 21:54:23.318818615
2025-11-07 21:54:19.233353,-606,2025-11-07 21:54:23.326510923
2025-11-07 21:54:19.233353,-22529,2025-11-07 21:54:23.334203231
2025-11-07 21:54:19.233353,-3,2025-11-07 21:54:23.341895538
2025-11-07 21:54:19.233353,-580,2025-11-07 21:54:23.349587846
2025-11-07 21:54:19.233353,-6145,2025-11-07 21:54:23.357280154
2025-11-07 21:54:19.233353,-3,2025-11-07 21:54:23.364972462
2025-11-07 21:54:19.233353,-471,2025-11-07 21:54:23.372664769
2025-11-07 21:54:19.233353,-32257,2025-11-07 21:54:23.380357077
2025-11-07 21:54:19.233353,-2,2025-11-07 21:54:23.388049385
2025-11-07 21:54:19.233353,-272,2025-11-07 21:54:23.395741692
2025-11-07 21:54:19.233353,27135,2025-11-07 21:54:23.403434000
2025-11-07 21:54:19.233353,-1,2025-11-07 21:54:23.411126308
2025-11-07 21:54:19.233353,-47,2025-11-07 21:54:23.418818615
2025-11-07 21:54:19.233353,7935,2025-11-07 21:54:23.426510923
2025-11-07 21:54:19.233353,0,2025-11-07 21:54:23.434203231
2025-11-07 21:54:19.233353,82,2025-11-07 21:54:23.441895538
2025-11-07 21:54:19.233353,28928,2025-11-07 21:54:23.449587846
2025-11-07 21:54:19.233353,0,2025-11-07 21:54:23.457280154
2025-11-07 21:54:19.233353,127,2025-11-07 21:54:23.464972462
2025-11-07 21:54:19.233353,-31744,2025-11-07 21:54:23.472664769
2025-11-07 21:54:19.233353,0,2025-11-07 21:54:23.480357077
2025-11-07 21:54:19.233353,134,2025-11-07 21:54:23.488049385
2025-11-07 21:54:19.233353,-31744,2025-11-07 21:54:23.495741692
2025-11-07 21:54:19.233353,0,2025-11-07 21:54:23.503434000
2025-11-07 21:54:19.233353,123,2025-11-07 21:54:23.511126308
2025-11-07 21:54:19.233353,30208,2025-11-07 21:54:23.518818615
2025-11-07 21:54:19.233353,0,2025-11-07 21:54:23.526510923
2025-11-07 21:54:19.233353,113,2025-11-07 21:54:23.534203231
2025-11-07 21:54:19.233353,27136,2025-11-07 21:54:23.541895538
2025-11-07 21:54:19.233353,0,2025-11-07 21:54:23.549587846
2025-11-07 21:54:19.233353,99,2025-11-07 21:54:23.557280154
2025-11-07 21:54:19.233353,24064,2025-11-07 21:54:23.564972462
2025-11-07 21:54:19.233353,0,2025-11-07 21:54:23.572664769
2025-11-07 21:54:19.233353,82,2025-11-07 21:54:23.580357077
2025-11-07 21:54:19.233353,18176,2025-11-07 21:54:23.588049385
2025-11-07 21:54:19.233353,0,2025-11-07 21:54:23.595741692
2025-11-07 21:54:19.233353,63,2025-11-07 21:54:23.603434000
2025-11-07 21:54:19.233353,15104,2025-11-07 21:54:23.611126308
2025-11-07 21:54:19.233353,0,2025-11-07 21:54:23.618818615
2025-11-07 21:54:19.233353,52,2025-11-07 21:54:23.626510923
2025-11-07 21:54:19.233353,10752,2025-11-07 21:54:23.634203231
2025-11-07 21:54:19.233353,0,2025-11-07 21:54:23.641895538
2025-11-07 21:54:19.233353,40,2025-11-07 21:54:23.649587846
2025-11-07 21:54:19.233353,8960,2025-11-07 21:54:23.657280154
2025-11-07 21:54:19.233353,0,2025-11-07 21:54:23.664972462
2025-11-07 21:54:19.233353,28,2025-11-07 21:54:23.672664769
2025-11-07 21:54:19.233353,7168,2025-11-07 21:54:23.680357077
2025-11-07 21:54:19.233353,0,2025-11-07 21:54:23.688049385
2025-11-07 21:54:19.233353,26,2025-11-07 21:54:23.695741692
2025-11-07 21:54:19.233353,5888,2025-11-07 21:54:23.703434000
2025-11-07 21:54:19.233353,0,2025-11-07 21:54:23.711126308
2025-11-07 21:54:19.233353,26,2025-11-07 21:54:23.718818615
2025-11-07 21:54:19.233353,7168,2025-11-07 21:54:23.726510923
2025-11-07 21:54:19.233353,0,2025-11-07 21:54:23.734203231
2025-11-07 21:54:19.233353,28,2025-11-07 21:54:23.741895538
2025-11-07 21:54:19.233353,8960,2025-11-07 21:54:23.749587846
2025-11-07 21:54:19.233353,0,2025-11-07 21:54:23.757280154
2025-11-07 21:54:19.233353,42,2025-11-07 21:54:23.764972462
2025-11-07 21:54:19.233353,11264,2025-11-07 21:54:23.772664769
2025-11-07 21:54:19.233353,0,2025-11-07 21:54:23.780357077
2025-11-07 21:54:19.233353,49,2025-11-07 21:54:23.788049385
2025-11-07 21:54:19.233353,13312,2025-11-07 21:54:23.795741692
2025-11-07 21:54:19.233353,0,2025-11-07 21:54:23.803434000
2025-11-07 21:54:19.233353,49,2025-11-07 21:54:23.811126308
2025-11-07 21:54:19.233353,13312,2025-11-07 21:54:23.818818615
2025-11-07 21:54:19.233353,0,2025-11-07 21:54:23.826510923
2025-11-07 21:54:19.233353,54,2025-11-07 21:54:23.834203231
2025-11-07 21:54:19.233353,13312,2025-11-07 21:54:23.841895538
2025-11-07 21:54:19.233353,0,2025-11-07 21:54:23.849587846
2025-11-07 21:54:19.233353,52,2025-11-07 21:54:23.857280154
2025-11-07 21:54:19.233353,12544,2025-11-07 21:54:23.864972462
2025-11-07 21:54:19.233353,0,2025-11-07 21:54:23.872664769
2025-11-07 21:54:19.233353,44,2025-11-07 21:54:23.880357077
2025-11-07 21:54:19.233353,11264,2025-11-07 21:54:23.888049385
2025-11-07 21:54:19.233353,0,2025-11-07 21:54:23.895741692
2025-11-07 21:54:19.233353,47,2025-11-07 21:54:23.903434000
2025-11-07 21:54:19.233353,11264,2025-11-07 21:54:23.911126308
2025-11-07 21:54:19.233353,0,2025-11-07 21:54:23.918818615
2025-11-07 21:54:19.233353,40,2025-11-07 21:54:23.926510923
2025-11-07 21:54:19.233353,10240,2025-11-07 21:54:23.934203230
2025-11-07 21:54:19.233353,0,2025-11-07 21:54:23.941895538
2025-11-07 21:54:19.233353,35,2025-11-07 21:54:23.949587846
2025-11-07 21:54:19.233353,8448,2025-11-07 21:54:23.957280154
2025-11-07 21:54:19.233353,0,2025-11-07 21:54:23.964972462
2025-11-07 21:54:19.233353,35,2025-11-07 21:54:23.972664769
2025-11-07 21:54:19.773366,30,2025-11-07 21:54:23.980357077
2025-11-07 21:54:19.773366,3584,2025-11-07 21:54:23.988049385
2025-11-07 21:54:19.773366,0,2025-11-07 21:54:23.995741692
2025-11-07 21:54:19.773366,11,2025-11-07 21:54:24.003434000
2025-11-07 21:54:19.773366,6656,2025-11-07 21:54:24.011126308
2025-11-07 21:54:19.773366,0,2025-11-07 21:54:24.018818615
2025-11-07 21:54:19.773366,49,2025-11-07 21:54:24.026510923
2025-11-07 21:54:19.773366,16896,2025-11-07 21:54:24.034203231
2025-11-07 21:54:19.773366,0,2025-11-07 21:54:24.041895538
2025-11-07 21:54:19.773366,75,2025-11-07 21:54:24.049587846
2025-11-07 21:54:19.773366,24064,2025-11-07 21:54:24.057280154
2025-11-07 21:54:19.773366,0,2025-11-07 21:54:24.064972462
2025-11-07 21:54:19.773366,99,2025-11-07 21:54:24.072664769
2025-11-07 21:54:19.773366,20992,2025-11-07 21:54:24.080357077
2025-11-07 21:54:19.773366,0,2025-11-07 21:54:24.088049385
2025-11-07 21:54:19.773366,85,2025-11-07 21:54:24.095741692
2025-11-07 21:54:19.773366,26624,2025-11-07 21:54:24.103434000
2025-11-07 21:54:19.773366,0,2025-11-07 21:54:24.111126308
2025-11-07 21:54:19.773366,73,2025-11-07 21:54:24.118818615
2025-11-07 21:54:19.773366,7680,2025-11-07 21:54:24.126510923
2025-11-07 21:54:19.773366,0,2025-11-07 21:54:24.134203231
2025-11-07 21:54:19.773366,33,2025-11-07 21:54:24.141895538
2025-11-07 21:54:19.773366,10240,2025-11-07 21:54:24.149587846
2025-11-07 21:54:19.773366,0,2025-11-07 21:54:24.157280154
2025-11-07 21:54:19.773366,30,2025-11-07 21:54:24.164972462
2025-11-07 21:54:19.773366,5888,2025-11-07 21:54:24.172664769
2025-11-07 21:54:19.773366,0,2025-11-07 21:54:24.180357077
2025-11-07 21:54:19.773366,30,2025-11-07 21:54:24.188049385
2025-11-07 21:54:19.773366,7680,2025-11-07 21:54:24.195741692
2025-11-07 21:54:19.773366,0,2025-11-07 21:54:24.203434000
2025-11-07 21:54:19.773366,-11,2025-11-07 21:54:24.211126308
2025-11-07 21:54:19.773366,-15873,2025-11-07 21:54:24.218818615
2025-11-07 21:54:19.773366,-1,2025-11-07 21:54:24.226510923
2025-11-07 21:54:19.773366,52,2025-11-07 21:54:24.234203231
2025-11-07 21:54:19.773366,13568,2025-11-07 21:54:24.241895538
2025-11-07 21:54:19.773366,2,2025-11-07 21:54:24.249587846
2025-11-07 21:54:19.773366,1589,2025-11-07 21:54:24.257280154
2025-11-07 21:54:19.773366,-28672,2025-11-07 21:54:24.264972462
2025-11-07 21:54:19.773366,11,2025-11-07 21:54:24.272664769
2025-11-07 21:54:19.773366,4009,2025-11-07 21:54:24.280357077
2025-11-07 21:54:19.773366,-12032,2025-11-07 21:54:24.288049385
2025-11-07 21:54:19.773366,15,2025-11-07 21:54:24.295741692
2025-11-07 21:54:19.773366,3282,2025-11-07 21:54:24.303434000
2025-11-07 21:54:19.773366,512,2025-11-07 21:54:24.311126308
2025-11-07 21:54:19.773366,9,2025-11-07 21:54:24.318818615
2025-11-07 21:54:19.773366,975,2025-11-07 21:54:24.326510923
2025-11-07 21:54:19.773366,-24064,2025-11-07 21:54:24.334203231
2025-11-07 21:54:19.773366,-3,2025-11-07 21:54:24.341895538
2025-11-07 21:54:19.773366,-1229,2025-11-07 21:54:24.349587846
2025-11-07 21:54:19.773366,-21249,2025-11-07 21:54:24.357280154
2025-11-07 21:54:19.773366,-4,2025-11-07 21:54:24.364972462
2025-11-07 21:54:19.773366,-743,2025-11-07 21:54:24.372664769
2025-11-07 21:54:19.773366,30975,2025-11-07 21:54:24.380357077
2025-11-07 21:54:19.773366,-4,2025-11-07 21:54:24.388049385
2025-11-07 21:54:19.773366,-798,2025-11-07 21:54:24.395741692
2025-11-07 21:54:19.773366,19967,2025-11-07 21:54:24.403434000
2025-11-07 21:54:19.773366,-3,2025-11-07 21:54:24.411126308
2025-11-07 21:54:19.773366,-722,2025-11-07 21:54:24.418818615
2025-11-07 21:54:19.773366,20479,2025-11-07 21:54:24.426510923
2025-11-07 21:54:19.773366,-3,2025-11-07 21:54:24.434203231
2025-11-07 21:54:19.773366,-627,2025-11-07 21:54:24.441895538
2025-11-07 21:54:19.773366,-26881,2025-11-07 21:54:24.449587846
2025-11-07 21:54:19.773366,-3,2025-11-07 21:54:24.457280154
2025-11-07 21:54:19.773366,-592,2025-11-07 21:54:24.464972462
2025-11-07 21:54:19.773366,-9729,2025-11-07 21:54:24.472664769
2025-11-07 21:54:19.773366,-3,2025-11-07 21:54:24.480357077
2025-11-07 21:54:19.773366,-535,2025-11-07 21:54:24.488049385
2025-11-07 21:54:19.773366,-1281,2025-11-07 21:54:24.495741692
2025-11-07 21:54:19.773366,-3,2025-11-07 21:54:24.503434000
2025-11-07 21:54:19.773366,-497,2025-11-07 21:54:24.511126308
2025-11-07 21:54:19.773366,8959,2025-11-07 21:54:24.518818615
2025-11-07 21:54:19.773366,-2,2025-11-07 21:54:24.526510923
2025-11-07 21:54:19.773366,-461,2025-11-07 21:54:24.534203231
2025-11-07 21:54:19.773366,15615,2025-11-07 21:54:24.541895538
2025-11-07 21:54:19.773366,-2,2025-11-07 21:54:24.549587846
2025-11-07 21:54:19.773366,-457,2025-11-07 21:54:24.557280154
2025-11-07 21:54:19.773366,13823,2025-11-07 21:54:24.564972462
2025-11-07 21:54:19.773366,-2,2025-11-07 21:54:24.572664769
2025-11-07 21:54:19.773366,-464,2025-11-07 21:54:24.580357077
2025-11-07 21:54:19.773366,8447,2025-11-07 21:54:24.588049385
2025-11-07 21:54:19.773366,-2,2025-11-07 21:54:24.595741692
2025-11-07 21:54:19.773366,-502,2025-11-07 21:54:24.603434000
2025-11-07 21:54:19.773366,-3073,2025-11-07 21:54:24.611126308
2025-11-07 21:54:19.773366,-3,2025-11-07 21:54:24.618818615
2025-11-07 21:54:19.773366,-554,2025-11-07 21:54:24.626510923
2025-11-07 21:54:19.773366,-17665,2025-11-07 21:54:24.634203231
2025-11-07 21:54:19.773366,-3,2025-11-07 21:54:24.641895538
2025-11-07 21:54:19.773366,-608,2025-11-07 21:54:24.649587846
2025-11-07 21:54:19.773366,-30977,2025-11-07 21:54:24.657280154
2025-11-07 21:54:19.773366,-3,2025-11-07 21:54:24.664972462
2025-11-07 21:54:19.773366,-644,2025-11-07 21:54:24.672664769
2025-11-07 21:54:19.773366,-30465,2025-11-07 21:54:24.680357077
2025-11-07 21:54:19.773366,-3,2025-11-07 21:54:24.688049385
2025-11-07 21:54:19.773366,-608,2025-11-07 21:54:24.695741692
2025-11-07 21:54:19.773366,-14593,2025-11-07 21:54:24.703434000
2025-11-07 21:54:19.773366,-3,2025-11-07 21:54:24.711126308
2025-11-07 21:54:19.773366,-509,2025-11-07 21:54:24.718818615
2025-11-07 21:54:19.773366,24831,2025-11-07 21:54:24.726510923
2025-11-07 21:54:19.773366,-2,2025-11-07 21:54:24.734203231
2025-11-07 21:54:19.773366,-300,2025-11-07 21:54:24.741895538
2025-11-07 21:54:19.773366,20479,2025-11-07 21:54:24.749587846
2025-11-07 21:54:19.773366,-1,2025-11-07 21:54:24.757280154
2025-11-07 21:54:19.773366,-75,2025-11-07 21:54:24.764972462
2025-11-07 21:54:19.773366,1279,2025-11-07 21:54:24.772664769
2025-11-07 21:54:19.773366,0,2025-11-07 21:54:24.780357077
2025-11-07 21:54:19.773366,56,2025-11-07 21:54:24.788049385
2025-11-07 21:54:19.773366,22784,2025-11-07 21:54:24.795741692
2025-11-07 21:54:19.773366,0,2025-11-07 21:54:24.803434000
2025-11-07 21:54:19.773366,108,2025-11-07 21:54:24.811126308
2025-11-07 21:54:20.358357,116,2025-11-07 21:54:24.818818615
2025-11-07 21:54:20.358357,30208,2025-11-07 21:54:24.826510923
2025-11-07 21:54:20.358357,0,2025-11-07 21:54:24.834203231
2025-11-07 21:54:20.358357,113,2025-11-07 21:54:24.841895538
2025-11-07 21:54:20.358357,27136,2025-11-07 21:54:24.849587846
2025-11-07 21:54:20.358357,0,2025-11-07 21:54:24.857280154
2025-11-07 21:54:20.358357,104,2025-11-07 21:54:24.864972462
2025-11-07 21:54:20.358357,25856,2025-11-07 21:54:24.872664769
2025-11-07 21:54:20.358357,0,2025-11-07 21:54:24.880357077
2025-11-07 21:54:20.358357,94,2025-11-07 21:54:24.888049385
2025-11-07 21:54:20.358357,23552,2025-11-07 21:54:24.895741692
2025-11-07 21:54:20.358357,0,2025-11-07 21:54:24.903434000
2025-11-07 21:54:20.358357,101,2025-11-07 21:54:24.911126308
2025-11-07 21:54:20.358357,25344,2025-11-07 21:54:24.918818615
2025-11-07 21:54:20.358357,0,2025-11-07 21:54:24.926510923
2025-11-07 21:54:20.358357,85,2025-11-07 21:54:24.934203230
2025-11-07 21:54:20.358357,19200,2025-11-07 21:54:24.941895538
2025-11-07 21:54:20.358357,0,2025-11-07 21:54:24.949587846
2025-11-07 21:54:20.358357,68,2025-11-07 21:54:24.957280154
2025-11-07 21:54:20.358357,15104,2025-11-07 21:54:24.964972462
2025-11-07 21:54:20.358357,0,2025-11-07 21:54:24.972664769
2025-11-07 21:54:20.358357,52,2025-11-07 21:54:24.980357077
2025-11-07 21:54:20.358357,11264,2025-11-07 21:54:24.988049385
2025-11-07 21:54:20.358357,0,2025-11-07 21:54:24.995741692
2025-11-07 21:54:20.358357,35,2025-11-07 21:54:25.003434000
2025-11-07 21:54:20.358357,8448,2025-11-07 21:54:25.011126308
2025-11-07 21:54:20.358357,0,2025-11-07 21:54:25.018818615
2025-11-07 21:54:20.358357,28,2025-11-07 21:54:25.026510923
2025-11-07 21:54:20.358357,6656,2025-11-07 21:54:25.034203231
2025-11-07 21:54:20.358357,0,2025-11-07 21:54:25.041895538
2025-11-07 21:54:20.358357,26,2025-11-07 21:54:25.049587846
2025-11-07 21:54:20.358357,6656,2025-11-07 21:54:25.057280154
2025-11-07 21:54:20.358357,0,2025-11-07 21:54:25.064972462
2025-11-07 21:54:20.358357,26,2025-11-07 21:54:25.072664769
2025-11-07 21:54:20.358357,7168,2025-11-07 21:54:25.080357077
2025-11-07 21:54:20.358357,0,2025-11-07 21:54:25.088049385
2025-11-07 21:54:20.358357,30,2025-11-07 21:54:25.095741692
2025-11-07 21:54:20.358357,8960,2025-11-07 21:54:25.103434000
2025-11-07 21:54:20.358357,0,2025-11-07 21:54:25.111126308
2025-11-07 21:54:20.358357,40,2025-11-07 21:54:25.118818615
2025-11-07 21:54:20.358357,10240,2025-11-07 21:54:25.126510923
2025-11-07 21:54:20.358357,0,2025-11-07 21:54:25.134203231
2025-11-07 21:54:20.358357,40,2025-11-07 21:54:25.141895538
2025-11-07 21:54:20.358357,10752,2025-11-07 21:54:25.149587846
2025-11-07 21:54:20.358357,0,2025-11-07 21:54:25.157280154
2025-11-07 21:54:20.358357,44,2025-11-07 21:54:25.164972462
2025-11-07 21:54:20.358357,11264,2025-11-07 21:54:25.172664769
2025-11-07 21:54:20.358357,0,2025-11-07 21:54:25.180357077
2025-11-07 21:54:20.358357,44,2025-11-07 21:54:25.188049385
2025-11-07 21:54:20.358357,10752,2025-11-07 21:54:25.195741692
2025-11-07 21:54:20.358357,0,2025-11-07 21:54:25.203434000
2025-11-07 21:54:20.358357,42,2025-11-07 21:54:25.211126308
2025-11-07 21:54:20.358357,11264,2025-11-07 21:54:25.218818615
2025-11-07 21:54:20.358357,0,2025-11-07 21:54:25.226510923
2025-11-07 21:54:20.358357,42,2025-11-07 21:54:25.234203231
2025-11-07 21:54:20.358357,10240,2025-11-07 21:54:25.241895538
2025-11-07 21:54:20.358357,0,2025-11-07 21:54:25.249587846
2025-11-07 21:54:20.358357,40,2025-11-07 21:54:25.257280154
2025-11-07 21:54:20.358357,10752,2025-11-07 21:54:25.264972462
2025-11-07 21:54:20.358357,0,2025-11-07 21:54:25.272664769
2025-11-07 21:54:20.358357,42,2025-11-07 21:54:25.280357077
2025-11-07 21:54:20.358357,11264,2025-11-07 21:54:25.288049385
2025-11-07 21:54:20.358357,0,2025-11-07 21:54:25.295741692
2025-11-07 21:54:20.358357,44,2025-11-07 21:54:25.303434000
2025-11-07 21:54:20.358357,10240,2025-11-07 21:54:25.311126308
2025-11-07 21:54:20.358357,0,2025-11-07 21:54:25.318818615
2025-11-07 21:54:20.358357,37,2025-11-07 21:54:25.326510923
2025-11-07 21:54:20.358357,9472,2025-11-07 21:54:25.334203231
2025-11-07 21:54:20.358357,0,2025-11-07 21:54:25.341895538
2025-11-07 21:54:20.358357,40,2025-11-07 21:54:25.349587846
2025-11-07 21:54:20.358357,10240,2025-11-07 21:54:25.357280154
2025-11-07 21:54:20.358357,0,2025-11-07 21:54:25.364972462
2025-11-07 21:54:20.358357,37,2025-11-07 21:54:25.372664769
2025-11-07 21:54:20.358357,7680,2025-11-07 21:54:25.380357077
2025-11-07 21:54:20.358357,0,2025-11-07 21:54:25.388049385
2025-11-07 21:54:20.358357,23,2025-11-07 21:54:25.395741692
2025-11-07 21:54:20.358357,4096,2025-11-07 21:54:25.403434000
2025-11-07 21:54:20.358357,0,2025-11-07 21:54:25.411126308
2025-11-07 21:54:20.358357,18,2025-11-07 21:54:25.418818615
2025-11-07 21:54:20.358357,10240,2025-11-07 21:54:25.426510923
2025-11-07 21:54:20.358357,0,2025-11-07 21:54:25.434203231
2025-11-07 21:54:20.358357,63,2025-11-07 21:54:25.441895538
2025-11-07 21:54:20.358357,19968,2025-11-07 21:54:25.449587846
2025-11-07 21:54:20.358357,0,2025-11-07 21:54:25.457280154
2025-11-07 21:54:20.358357,89,2025-11-07 21:54:25.464972462
2025-11-07 21:54:20.358357,24832,2025-11-07 21:54:25.472664769
2025-11-07 21:54:20.358357,0,2025-11-07 21:54:25.480357077
2025-11-07 21:54:20.358357,94,2025-11-07 21:54:25.488049385
2025-11-07 21:54:20.358357,21760,2025-11-07 21:54:25.495741692
2025-11-07 21:54:20.358357,0,2025-11-07 21:54:25.503434000
2025-11-07 21:54:20.358357,82,2025-11-07 21:54:25.511126308
2025-11-07 21:54:20.358357,18688,2025-11-07 21:54:25.518818615
2025-11-07 21:54:20.358357,0,2025-11-07 21:54:25.526510923
2025-11-07 21:54:20.358357,37,2025-11-07 21:54:25.534203231
2025-11-07 21:54:20.358357,3584,2025-11-07 21:54:25.541895538
2025-11-07 21:54:20.358357,0,2025-11-07 21:54:25.549587846
2025-11-07 21:54:20.358357,18,2025-11-07 21:54:25.557280154
2025-11-07 21:54:20.358357,5888,2025-11-07 21:54:25.564972462
2025-11-07 21:54:20.358357,0,2025-11-07 21:54:25.572664769
2025-11-07 21:54:20.358357,18,2025-11-07 21:54:25.580357077
2025-11-07 21:54:20.358357,4096,2025-11-07 21:54:25.588049385
2025-11-07 21:54:20.358357,0,2025-11-07 21:54:25.595741692
2025-11-07 21:54:20.358357,16,2025-11-07 21:54:25.603434000
2025-11-07 21:54:20.358357,1024,2025-11-07 21:54:25.611126308
2025-11-07 21:54:20.358357,0,2025-11-07 21:54:25.618818615
2025-11-07 21:54:20.358357,-33,2025-11-07 21:54:25.626510923
2025-11-07 21:54:20.358357,-14849,2025-11-07 21:54:25.634203231
2025-11-07 21:54:20.358357,-1,2025-11-07 21:54:25.641895538
2025-11-07 21:54:20.358357,127,2025-11-07 21:54:25.649587846
2025-11-07 21:54:20.988365,734,2025-11-07 21:54:25.657280154
2025-11-07 21:54:20.988365,6656,2025-11-07 21:54:25.664972462
2025-11-07 21:54:20.988365,7,2025-11-07 21:54:25.672664769
2025-11-07 21:54:20.988365,3156,2025-11-07 21:54:25.680357077
2025-11-07 21:54:20.988365,-15616,2025-11-07 21:54:25.688049385
2025-11-07 21:54:20.988365,15,2025-11-07 21:54:25.695741692
2025-11-07 21:54:20.988365,3845,2025-11-07 21:54:25.703434000
2025-11-07 21:54:20.988365,-30464,2025-11-07 21:54:25.711126308
2025-11-07 21:54:20.988365,11,2025-11-07 21:54:25.718818615
2025-11-07 21:54:20.988365,1887,2025-11-07 21:54:25.726510923
2025-11-07 21:54:20.988365,-11776,2025-11-07 21:54:25.734203231
2025-11-07 21:54:20.988365,1,2025-11-07 21:54:25.741895538
2025-11-07 21:54:20.988365,-878,2025-11-07 21:54:25.749587846
2025-11-07 21:54:20.988365,-22529,2025-11-07 21:54:25.757280154
2025-11-07 21:54:20.988365,-5,2025-11-07 21:54:25.764972462
2025-11-07 21:54:20.988365,-738,2025-11-07 21:54:25.772664769
2025-11-07 21:54:20.988365,3071,2025-11-07 21:54:25.780357077
2025-11-07 21:54:20.988365,-3,2025-11-07 21:54:25.788049385
2025-11-07 21:54:20.988365,-835,2025-11-07 21:54:25.795741692
2025-11-07 21:54:20.988365,19455,2025-11-07 21:54:25.803434000
2025-11-07 21:54:20.988365,-3,2025-11-07 21:54:25.811126308
2025-11-07 21:54:20.988365,-646,2025-11-07 21:54:25.818818615
2025-11-07 21:54:20.988365,26111,2025-11-07 21:54:25.826510923
2025-11-07 21:54:20.988365,-3,2025-11-07 21:54:25.834203231
2025-11-07 21:54:20.988365,-606,2025-11-07 21:54:25.841895538
2025-11-07 21:54:20.988365,-11009,2025-11-07 21:54:25.849587846
2025-11-07 21:54:20.988365,-3,2025-11-07 21:54:25.857280154
2025-11-07 21:54:20.988365,-551,2025-11-07 21:54:25.864972462
2025-11-07 21:54:20.988365,-3073,2025-11-07 21:54:25.872664769
2025-11-07 21:54:20.988365,-3,2025-11-07 21:54:25.880357077
2025-11-07 21:54:20.988365,-490,2025-11-07 21:54:25.888049385
2025-11-07 21:54:20.988365,10751,2025-11-07 21:54:25.895741692
2025-11-07 21:54:20.988365,-2,2025-11-07 21:54:25.903434000
2025-11-07 21:54:20.988365,-452,2025-11-07 21:54:25.911126308
2025-11-07 21:54:20.988365,20991,2025-11-07 21:54:25.918818615
2025-11-07 21:54:20.988365,-2,2025-11-07 21:54:25.926510923
2025-11-07 21:54:20.988365,-416,2025-11-07 21:54:25.934203230
2025-11-07 21:54:20.988365,25855,2025-11-07 21:54:25.941895538
2025-11-07 21:54:20.988365,-2,2025-11-07 21:54:25.949587846
2025-11-07 21:54:20.988365,-404,2025-11-07 21:54:25.957280154
2025-11-07 21:54:20.988365,28927,2025-11-07 21:54:25.964972462
2025-11-07 21:54:20.988365,-2,2025-11-07 21:54:25.972664769
2025-11-07 21:54:20.988365,-404,2025-11-07 21:54:25.980357077
2025-11-07 21:54:20.988365,25343,2025-11-07 21:54:25.988049385
2025-11-07 21:54:20.988365,-2,2025-11-07 21:54:25.995741692
2025-11-07 21:54:20.988365,-421,2025-11-07 21:54:26.003434000
2025-11-07 21:54:20.988365,19199,2025-11-07 21:54:26.011126308
2025-11-07 21:54:20.988365,-2,2025-11-07 21:54:26.018818615
2025-11-07 21:54:20.988365,-464,2025-11-07 21:54:26.026510923
2025-11-07 21:54:20.988365,5887,2025-11-07 21:54:26.034203231
2025-11-07 21:54:20.988365,-2,2025-11-07 21:54:26.041895538
2025-11-07 21:54:20.988365,-516,2025-11-07 21:54:26.049587846
2025-11-07 21:54:20.988365,-7425,2025-11-07 21:54:26.057280154
2025-11-07 21:54:20.988365,-3,2025-11-07 21:54:26.064972462
2025-11-07 21:54:20.988365,-568,2025-11-07 21:54:26.072664769
2025-11-07 21:54:20.988365,-16385,2025-11-07 21:54:26.080357077
2025-11-07 21:54:20.988365,-3,2025-11-07 21:54:26.088049385
2025-11-07 21:54:20.988365,-563,2025-11-07 21:54:26.095741692
2025-11-07 21:54:20.988365,-6657,2025-11-07 21:54:26.103434000
2025-11-07 21:54:20.988365,-3,2025-11-07 21:54:26.111126308
2025-11-07 21:54:20.988365,-497,2025-11-07 21:54:26.118818615
2025-11-07 21:54:20.988365,20479,2025-11-07 21:54:26.126510923
2025-11-07 21:54:20.988365,-2,2025-11-07 21:54:26.134203231
2025-11-07 21:54:20.988365,-345,2025-11-07 21:54:26.141895538
2025-11-07 21:54:20.988365,4607,2025-11-07 21:54:26.149587846
2025-11-07 21:54:20.988365,-1,2025-11-07 21:54:26.157280154
2025-11-07 21:54:20.988365,-120,2025-11-07 21:54:26.164972462
2025-11-07 21:54:20.988365,-3841,2025-11-07 21:54:26.172664769
2025-11-07 21:54:20.988365,-1,2025-11-07 21:54:26.180357077
2025-11-07 21:54:20.988365,56,2025-11-07 21:54:26.188049385
2025-11-07 21:54:20.988365,27648,2025-11-07 21:54:26.195741692
2025-11-07 21:54:20.988365,0,2025-11-07 21:54:26.203434000
2025-11-07 21:54:20.988365,144,2025-11-07 21:54:26.211126308
2025-11-07 21:54:20.988365,-24320,2025-11-07 21:54:26.218818615
2025-11-07 21:54:20.988365,0,2025-11-07 21:54:26.226510923
2025-11-07 21:54:20.988365,163,2025-11-07 21:54:26.234203231
2025-11-07 21:54:20.988365,-22016,2025-11-07 21:54:26.241895538
2025-11-07 21:54:20.988365,0,2025-11-07 21:54:26.249587846
2025-11-07 21:54:20.988365,170,2025-11-07 21:54:26.257280154
2025-11-07 21:54:20.988365,-25600,2025-11-07 21:54:26.264972462
2025-11-07 21:54:20.988365,0,2025-11-07 21:54:26.272664769
2025-11-07 21:54:20.988365,144,2025-11-07 21:54:26.280357077
2025-11-07 21:54:20.988365,-27392,2025-11-07 21:54:26.288049385
2025-11-07 21:54:20.988365,0,2025-11-07 21:54:26.295741692
2025-11-07 21:54:20.988365,144,2025-11-07 21:54:26.303434000
2025-11-07 21:54:20.988365,-32256,2025-11-07 21:54:26.311126308
2025-11-07 21:54:20.988365,0,2025-11-07 21:54:26.318818615
2025-11-07 21:54:20.988365,123,2025-11-07 21:54:26.326510923
2025-11-07 21:54:20.988365,28928,2025-11-07 21:54:26.334203231
2025-11-07 21:54:20.988365,0,2025-11-07 21:54:26.341895538
2025-11-07 21:54:20.988365,104,2025-11-07 21:54:26.349587846
2025-11-07 21:54:20.988365,23552,2025-11-07 21:54:26.357280154
2025-11-07 21:54:20.988365,0,2025-11-07 21:54:26.364972462
2025-11-07 21:54:20.988365,78,2025-11-07 21:54:26.372664769
2025-11-07 21:54:20.988365,17408,2025-11-07 21:54:26.380357077
2025-11-07 21:54:20.988365,0,2025-11-07 21:54:26.388049385
2025-11-07 21:54:20.988365,63,2025-11-07 21:54:26.395741692
2025-11-07 21:54:20.988365,13824,2025-11-07 21:54:26.403434000
2025-11-07 21:54:20.988365,0,2025-11-07 21:54:26.411126308
2025-11-07 21:54:20.988365,49,2025-11-07 21:54:26.418818615
2025-11-07 21:54:20.988365,10752,2025-11-07 21:54:26.426510923
2025-11-07 21:54:20.988365,0,2025-11-07 21:54:26.434203231
2025-11-07 21:54:20.988365,35,2025-11-07 21:54:26.441895538
2025-11-07 21:54:20.988365,9472,2025-11-07 21:54:26.449587846
2025-11-07 21:54:20.988365,0,2025-11-07 21:54:26.457280154
2025-11-07 21:54:20.988365,40,2025-11-07 21:54:26.464972462
2025-11-07 21:54:20.988365,8448,2025-11-07 21:54:26.472664769
2025-11-07 21:54:20.988365,0,2025-11-07 21:54:26.480357077
2025-11-07 21:54:20.988365,30,2025-11-07 21:54:26.488049385
2025-11-07 21:54:21.483361,35,2025-11-07 21:54:26.495741692
