timestamp,ecg,reconstructed_time
2025-11-07 13:39:49.882436,-29,2025-11-07 13:39:49.882436000
2025-11-07 13:39:49.882436,-5121,2025-11-07 13:39:49.890128308
2025-11-07 13:39:49.882436,-1,2025-11-07 13:39:49.897820615
2025-11-07 13:39:49.882436,-16,2025-11-07 13:39:49.905512923
2025-11-07 13:39:49.882436,-4609,2025-11-07 13:39:49.913205231
2025-11-07 13:39:49.882436,-1,2025-11-07 13:39:49.920897538
2025-11-07 13:39:49.882436,-16,2025-11-07 13:39:49.928589846
2025-11-07 13:39:49.882436,16383,2025-11-07 13:39:49.936282154
2025-11-07 13:39:49.882436,0,2025-11-07 13:39:49.943974462
2025-11-07 13:39:49.882436,366,2025-11-07 13:39:49.951666769
2025-11-07 13:39:49.882436,-29440,2025-11-07 13:39:49.959359077
2025-11-07 13:39:49.882436,3,2025-11-07 13:39:49.967051385
2025-11-07 13:39:49.882436,1168,2025-11-07 13:39:49.974743692
2025-11-07 13:39:49.882436,-19968,2025-11-07 13:39:49.982436000
2025-11-07 13:39:49.882436,1,2025-11-07 13:39:49.990128308
2025-11-07 13:39:49.882436,-526,2025-11-07 13:39:49.997820615
2025-11-07 13:39:49.882436,28415,2025-11-07 13:39:50.005512923
2025-11-07 13:39:49.882436,-2,2025-11-07 13:39:50.013205231
2025-11-07 13:39:49.882436,48,2025-11-07 13:39:50.020897538
2025-11-07 13:39:49.882436,-19712,2025-11-07 13:39:50.028589846
2025-11-07 13:39:49.882436,-1,2025-11-07 13:39:50.036282154
2025-11-07 13:39:49.882436,-152,2025-11-07 13:39:50.043974462
2025-11-07 13:39:49.882436,-3329,2025-11-07 13:39:50.051666769
2025-11-07 13:39:49.882436,-1,2025-11-07 13:39:50.059359077
2025-11-07 13:39:49.882436,-33,2025-11-07 13:39:50.067051385
2025-11-07 13:39:49.882436,-20737,2025-11-07 13:39:50.074743692
2025-11-07 13:39:49.882436,-1,2025-11-07 13:39:50.082436000
2025-11-07 13:39:49.882436,-33,2025-11-07 13:39:50.090128308
2025-11-07 13:39:49.882436,-5121,2025-11-07 13:39:50.097820615
2025-11-07 13:39:49.882436,-1,2025-11-07 13:39:50.105512923
2025-11-07 13:39:49.882436,-38,2025-11-07 13:39:50.113205231
2025-11-07 13:39:49.882436,-6401,2025-11-07 13:39:50.120897538
2025-11-07 13:39:49.882436,-1,2025-11-07 13:39:50.128589846
2025-11-07 13:39:49.882436,-12,2025-11-07 13:39:50.136282154
2025-11-07 13:39:49.882436,-257,2025-11-07 13:39:50.143974462
2025-11-07 13:39:49.882436,-1,2025-11-07 13:39:50.151666769
2025-11-07 13:39:49.882436,12,2025-11-07 13:39:50.159359077
2025-11-07 13:39:49.882436,6144,2025-11-07 13:39:50.167051385
2025-11-07 13:39:49.882436,0,2025-11-07 13:39:50.174743692
2025-11-07 13:39:49.882436,29,2025-11-07 13:39:50.182436000
2025-11-07 13:39:49.882436,9216,2025-11-07 13:39:50.190128308
2025-11-07 13:39:49.882436,0,2025-11-07 13:39:50.197820615
2025-11-07 13:39:49.882436,53,2025-11-07 13:39:50.205512923
2025-11-07 13:39:49.882436,18432,2025-11-07 13:39:50.213205231
2025-11-07 13:39:49.882436,0,2025-11-07 13:39:50.220897538
2025-11-07 13:39:49.882436,80,2025-11-07 13:39:50.228589846
2025-11-07 13:39:49.882436,22784,2025-11-07 13:39:50.236282154
2025-11-07 13:39:49.882436,0,2025-11-07 13:39:50.243974462
2025-11-07 13:39:49.882436,101,2025-11-07 13:39:50.251666769
2025-11-07 13:39:49.882436,27904,2025-11-07 13:39:50.259359077
2025-11-07 13:39:49.882436,0,2025-11-07 13:39:50.267051385
2025-11-07 13:39:49.882436,113,2025-11-07 13:39:50.274743692
2025-11-07 13:39:49.882436,29696,2025-11-07 13:39:50.282436000
2025-11-07 13:39:49.882436,0,2025-11-07 13:39:50.290128308
2025-11-07 13:39:49.882436,111,2025-11-07 13:39:50.297820615
2025-11-07 13:39:49.882436,24832,2025-11-07 13:39:50.305512923
2025-11-07 13:39:49.882436,0,2025-11-07 13:39:50.313205231
2025-11-07 13:39:49.882436,87,2025-11-07 13:39:50.320897538
2025-11-07 13:39:49.882436,16128,2025-11-07 13:39:50.328589846
2025-11-07 13:39:49.882436,0,2025-11-07 13:39:50.336282154
2025-11-07 13:39:49.882436,21,2025-11-07 13:39:50.343974462
2025-11-07 13:39:49.882436,-3584,2025-11-07 13:39:50.351666769
2025-11-07 13:39:49.882436,-1,2025-11-07 13:39:50.359359077
2025-11-07 13:39:49.882436,-41,2025-11-07 13:39:50.367051385
2025-11-07 13:39:49.882436,-16897,2025-11-07 13:39:50.374743692
2025-11-07 13:39:49.882436,-1,2025-11-07 13:39:50.382436000
2025-11-07 13:39:49.882436,-80,2025-11-07 13:39:50.390128308
2025-11-07 13:39:49.882436,-20737,2025-11-07 13:39:50.397820615
2025-11-07 13:39:49.882436,-1,2025-11-07 13:39:50.405512923
2025-11-07 13:39:49.882436,-87,2025-11-07 13:39:50.413205230
2025-11-07 13:39:49.882436,-20225,2025-11-07 13:39:50.420897538
2025-11-07 13:39:49.882436,-1,2025-11-07 13:39:50.428589846
2025-11-07 13:39:49.882436,-77,2025-11-07 13:39:50.436282154
2025-11-07 13:39:49.882436,-19457,2025-11-07 13:39:50.443974462
2025-11-07 13:39:49.882436,-1,2025-11-07 13:39:50.451666769
2025-11-07 13:39:49.882436,-70,2025-11-07 13:39:50.459359077
2025-11-07 13:39:49.882436,-15105,2025-11-07 13:39:50.467051385
2025-11-07 13:39:49.882436,-1,2025-11-07 13:39:50.474743692
2025-11-07 13:39:49.882436,-55,2025-11-07 13:39:50.482436000
2025-11-07 13:39:49.882436,-12545,2025-11-07 13:39:50.490128308
2025-11-07 13:39:49.882436,-1,2025-11-07 13:39:50.497820615
2025-11-07 13:39:49.882436,-46,2025-11-07 13:39:50.505512923
2025-11-07 13:39:49.882436,-9473,2025-11-07 13:39:50.513205231
2025-11-07 13:39:49.882436,-1,2025-11-07 13:39:50.520897538
2025-11-07 13:39:49.882436,-33,2025-11-07 13:39:50.528589846
2025-11-07 13:39:49.882436,-8961,2025-11-07 13:39:50.536282154
2025-11-07 13:39:49.882436,-1,2025-11-07 13:39:50.543974462
2025-11-07 13:39:49.882436,-36,2025-11-07 13:39:50.551666769
2025-11-07 13:39:49.882436,-7681,2025-11-07 13:39:50.559359077
2025-11-07 13:39:49.882436,-1,2025-11-07 13:39:50.567051385
2025-11-07 13:39:49.882436,-31,2025-11-07 13:39:50.574743692
2025-11-07 13:39:49.882436,-8961,2025-11-07 13:39:50.582436000
2025-11-07 13:39:49.882436,-1,2025-11-07 13:39:50.590128308
2025-11-07 13:39:49.882436,-33,2025-11-07 13:39:50.597820615
2025-11-07 13:39:49.882436,-7169,2025-11-07 13:39:50.605512923
2025-11-07 13:39:49.882436,-1,2025-11-07 13:39:50.613205231
2025-11-07 13:39:49.882436,-31,2025-11-07 13:39:50.620897538
2025-11-07 13:39:49.882436,-8961,2025-11-07 13:39:50.628589846
2025-11-07 13:39:49.882436,-1,2025-11-07 13:39:50.636282154
2025-11-07 13:39:49.882436,-41,2025-11-07 13:39:50.643974462
2025-11-07 13:39:49.882436,-9473,2025-11-07 13:39:50.651666769
2025-11-07 13:39:49.882436,-1,2025-11-07 13:39:50.659359077
2025-11-07 13:39:49.882436,-41,2025-11-07 13:39:50.667051385
2025-11-07 13:39:49.882436,-12545,2025-11-07 13:39:50.674743692
2025-11-07 13:39:49.882436,-1,2025-11-07 13:39:50.682436000
2025-11-07 13:39:49.882436,-53,2025-11-07 13:39:50.690128308
2025-11-07 13:39:49.882436,-10753,2025-11-07 13:39:50.697820615
2025-11-07 13:39:49.882436,-1,2025-11-07 13:39:50.705512923
2025-11-07 13:39:49.882436,-26,2025-11-07 13:39:50.713205231
2025-11-07 13:39:50.423175,-14,2025-11-07 13:39:50.720897538
2025-11-07 13:39:50.423175,-2817,2025-11-07 13:39:50.728589846
2025-11-07 13:39:50.423175,-1,2025-11-07 13:39:50.736282154
2025-11-07 13:39:50.423175,-19,2025-11-07 13:39:50.743974462
2025-11-07 13:39:50.423175,-6401,2025-11-07 13:39:50.751666769
2025-11-07 13:39:50.423175,-1,2025-11-07 13:39:50.759359077
2025-11-07 13:39:50.423175,-33,2025-11-07 13:39:50.767051385
2025-11-07 13:39:50.423175,-10241,2025-11-07 13:39:50.774743692
2025-11-07 13:39:50.423175,-1,2025-11-07 13:39:50.782436000
2025-11-07 13:39:50.423175,-36,2025-11-07 13:39:50.790128308
2025-11-07 13:39:50.423175,-7169,2025-11-07 13:39:50.797820615
2025-11-07 13:39:50.423175,-1,2025-11-07 13:39:50.805512923
2025-11-07 13:39:50.423175,-19,2025-11-07 13:39:50.813205231
2025-11-07 13:39:50.423175,-2049,2025-11-07 13:39:50.820897538
2025-11-07 13:39:50.423175,-1,2025-11-07 13:39:50.828589846
2025-11-07 13:39:50.423175,-2,2025-11-07 13:39:50.836282154
2025-11-07 13:39:50.423175,19967,2025-11-07 13:39:50.843974462
2025-11-07 13:39:50.423175,0,2025-11-07 13:39:50.851666769
2025-11-07 13:39:50.423175,397,2025-11-07 13:39:50.859359077
2025-11-07 13:39:50.423175,-25088,2025-11-07 13:39:50.867051385
2025-11-07 13:39:50.423175,3,2025-11-07 13:39:50.874743692
2025-11-07 13:39:50.423175,1071,2025-11-07 13:39:50.882436000
2025-11-07 13:39:50.423175,3328,2025-11-07 13:39:50.890128308
2025-11-07 13:39:50.423175,1,2025-11-07 13:39:50.897820615
2025-11-07 13:39:50.423175,-528,2025-11-07 13:39:50.905512923
2025-11-07 13:39:50.423175,-9217,2025-11-07 13:39:50.913205231
2025-11-07 13:39:50.423175,-2,2025-11-07 13:39:50.920897538
2025-11-07 13:39:50.423175,46,2025-11-07 13:39:50.928589846
2025-11-07 13:39:50.423175,-30208,2025-11-07 13:39:50.936282154
2025-11-07 13:39:50.423175,-1,2025-11-07 13:39:50.943974462
2025-11-07 13:39:50.423175,-143,2025-11-07 13:39:50.951666769
2025-11-07 13:39:50.423175,-4609,2025-11-07 13:39:50.959359077
2025-11-07 13:39:50.423175,-1,2025-11-07 13:39:50.967051385
2025-11-07 13:39:50.423175,-55,2025-11-07 13:39:50.974743692
2025-11-07 13:39:50.423175,-22017,2025-11-07 13:39:50.982436000
2025-11-07 13:39:50.423175,-1,2025-11-07 13:39:50.990128308
2025-11-07 13:39:50.423175,-36,2025-11-07 13:39:50.997820615
2025-11-07 13:39:50.423175,-6401,2025-11-07 13:39:51.005512923
2025-11-07 13:39:50.423175,-1,2025-11-07 13:39:51.013205231
2025-11-07 13:39:50.423175,-41,2025-11-07 13:39:51.020897538
2025-11-07 13:39:50.423175,-5121,2025-11-07 13:39:51.028589846
2025-11-07 13:39:50.423175,-1,2025-11-07 13:39:51.036282154
2025-11-07 13:39:50.423175,-4,2025-11-07 13:39:51.043974462
2025-11-07 13:39:50.423175,-1537,2025-11-07 13:39:51.051666769
2025-11-07 13:39:50.423175,-1,2025-11-07 13:39:51.059359077
2025-11-07 13:39:50.423175,-2,2025-11-07 13:39:51.067051385
2025-11-07 13:39:50.423175,3839,2025-11-07 13:39:51.074743692
2025-11-07 13:39:50.423175,0,2025-11-07 13:39:51.082436000
2025-11-07 13:39:50.423175,26,2025-11-07 13:39:51.090128308
2025-11-07 13:39:50.423175,8448,2025-11-07 13:39:51.097820615
2025-11-07 13:39:50.423175,0,2025-11-07 13:39:51.105512923
2025-11-07 13:39:50.423175,41,2025-11-07 13:39:51.113205231
2025-11-07 13:39:50.423175,14080,2025-11-07 13:39:51.120897538
2025-11-07 13:39:50.423175,0,2025-11-07 13:39:51.128589846
2025-11-07 13:39:50.423175,72,2025-11-07 13:39:51.136282154
2025-11-07 13:39:50.423175,22272,2025-11-07 13:39:51.143974462
2025-11-07 13:39:50.423175,0,2025-11-07 13:39:51.151666769
2025-11-07 13:39:50.423175,97,2025-11-07 13:39:51.159359077
2025-11-07 13:39:50.423175,26624,2025-11-07 13:39:51.167051385
2025-11-07 13:39:50.423175,0,2025-11-07 13:39:51.174743692
2025-11-07 13:39:50.423175,109,2025-11-07 13:39:51.182436000
2025-11-07 13:39:50.423175,27136,2025-11-07 13:39:51.190128308
2025-11-07 13:39:50.423175,0,2025-11-07 13:39:51.197820615
2025-11-07 13:39:50.423175,99,2025-11-07 13:39:51.205512923
2025-11-07 13:39:50.423175,23552,2025-11-07 13:39:51.213205231
2025-11-07 13:39:50.423175,0,2025-11-07 13:39:51.220897538
2025-11-07 13:39:50.423175,77,2025-11-07 13:39:51.228589846
2025-11-07 13:39:50.423175,12288,2025-11-07 13:39:51.236282154
2025-11-07 13:39:50.423175,0,2025-11-07 13:39:51.243974462
2025-11-07 13:39:50.423175,7,2025-11-07 13:39:51.251666769
2025-11-07 13:39:50.423175,-7424,2025-11-07 13:39:51.259359077
2025-11-07 13:39:50.423175,-1,2025-11-07 13:39:51.267051385
2025-11-07 13:39:50.423175,-55,2025-11-07 13:39:51.274743692
2025-11-07 13:39:50.423175,-18945,2025-11-07 13:39:51.282436000
2025-11-07 13:39:50.423175,-1,2025-11-07 13:39:51.290128308
2025-11-07 13:39:50.423175,-84,2025-11-07 13:39:51.297820615
2025-11-07 13:39:50.423175,-23297,2025-11-07 13:39:51.305512923
2025-11-07 13:39:50.423175,-1,2025-11-07 13:39:51.313205231
2025-11-07 13:39:50.423175,-89,2025-11-07 13:39:51.320897538
2025-11-07 13:39:50.423175,-22017,2025-11-07 13:39:51.328589846
2025-11-07 13:39:50.423175,-1,2025-11-07 13:39:51.336282154
2025-11-07 13:39:50.423175,-84,2025-11-07 13:39:51.343974462
2025-11-07 13:39:50.423175,-17665,2025-11-07 13:39:51.351666769
2025-11-07 13:39:50.423175,-1,2025-11-07 13:39:51.359359077
2025-11-07 13:39:50.423175,-65,2025-11-07 13:39:51.367051385
2025-11-07 13:39:50.423175,-16385,2025-11-07 13:39:51.374743692
2025-11-07 13:39:50.423175,-1,2025-11-07 13:39:51.382436000
2025-11-07 13:39:50.423175,-58,2025-11-07 13:39:51.390128308
2025-11-07 13:39:50.423175,-12033,2025-11-07 13:39:51.397820615
2025-11-07 13:39:50.423175,-1,2025-11-07 13:39:51.405512923
2025-11-07 13:39:50.423175,-43,2025-11-07 13:39:51.413205230
2025-11-07 13:39:50.423175,-10753,2025-11-07 13:39:51.420897538
2025-11-07 13:39:50.423175,-1,2025-11-07 13:39:51.428589846
2025-11-07 13:39:50.423175,-43,2025-11-07 13:39:51.436282154
2025-11-07 13:39:50.423175,-8961,2025-11-07 13:39:51.443974462
2025-11-07 13:39:50.423175,-1,2025-11-07 13:39:51.451666769
2025-11-07 13:39:50.423175,-36,2025-11-07 13:39:51.459359077
2025-11-07 13:39:50.423175,-8193,2025-11-07 13:39:51.467051385
2025-11-07 13:39:50.423175,-1,2025-11-07 13:39:51.474743692
2025-11-07 13:39:50.423175,-24,2025-11-07 13:39:51.482436000
2025-11-07 13:39:50.423175,-5889,2025-11-07 13:39:51.490128308
2025-11-07 13:39:50.423175,-1,2025-11-07 13:39:51.497820615
2025-11-07 13:39:50.423175,-33,2025-11-07 13:39:51.505512923
2025-11-07 13:39:50.423175,-7681,2025-11-07 13:39:51.513205231
2025-11-07 13:39:50.423175,-1,2025-11-07 13:39:51.520897538
2025-11-07 13:39:50.423175,-26,2025-11-07 13:39:51.528589846
2025-11-07 13:39:50.423175,-8193,2025-11-07 13:39:51.536282154
2025-11-07 13:39:50.423175,-1,2025-11-07 13:39:51.543974462
2025-11-07 13:39:50.423175,-36,2025-11-07 13:39:51.551666769
2025-11-07 13:39:51.006258,-36,2025-11-07 13:39:51.559359077
2025-11-07 13:39:51.006258,-8961,2025-11-07 13:39:51.567051385
2025-11-07 13:39:51.006258,-1,2025-11-07 13:39:51.574743692
2025-11-07 13:39:51.006258,-36,2025-11-07 13:39:51.582436000
2025-11-07 13:39:51.006258,-10241,2025-11-07 13:39:51.590128308
2025-11-07 13:39:51.006258,-1,2025-11-07 13:39:51.597820615
2025-11-07 13:39:51.006258,-43,2025-11-07 13:39:51.605512923
2025-11-07 13:39:51.006258,-7681,2025-11-07 13:39:51.613205231
2025-11-07 13:39:51.006258,-1,2025-11-07 13:39:51.620897538
2025-11-07 13:39:51.006258,-9,2025-11-07 13:39:51.628589846
2025-11-07 13:39:51.006258,3327,2025-11-07 13:39:51.636282154
2025-11-07 13:39:51.006258,0,2025-11-07 13:39:51.643974462
2025-11-07 13:39:51.006258,19,2025-11-07 13:39:51.651666769
2025-11-07 13:39:51.006258,1024,2025-11-07 13:39:51.659359077
2025-11-07 13:39:51.006258,0,2025-11-07 13:39:51.667051385
2025-11-07 13:39:51.006258,-9,2025-11-07 13:39:51.674743692
2025-11-07 13:39:51.006258,-3329,2025-11-07 13:39:51.682436000
2025-11-07 13:39:51.006258,-1,2025-11-07 13:39:51.690128308
2025-11-07 13:39:51.006258,-12,2025-11-07 13:39:51.697820615
2025-11-07 13:39:51.006258,-2049,2025-11-07 13:39:51.705512923
2025-11-07 13:39:51.006258,-1,2025-11-07 13:39:51.713205231
2025-11-07 13:39:51.006258,-4,2025-11-07 13:39:51.720897538
2025-11-07 13:39:51.006258,767,2025-11-07 13:39:51.728589846
2025-11-07 13:39:51.006258,0,2025-11-07 13:39:51.736282154
2025-11-07 13:39:51.006258,2,2025-11-07 13:39:51.743974462
2025-11-07 13:39:51.006258,3584,2025-11-07 13:39:51.751666769
2025-11-07 13:39:51.006258,0,2025-11-07 13:39:51.759359077
2025-11-07 13:39:51.006258,140,2025-11-07 13:39:51.767051385
2025-11-07 13:39:51.006258,-768,2025-11-07 13:39:51.774743692
2025-11-07 13:39:51.006258,1,2025-11-07 13:39:51.782436000
2025-11-07 13:39:51.006258,1013,2025-11-07 13:39:51.790128308
2025-11-07 13:39:51.006258,-7680,2025-11-07 13:39:51.797820615
2025-11-07 13:39:51.006258,3,2025-11-07 13:39:51.805512923
2025-11-07 13:39:51.006258,29,2025-11-07 13:39:51.813205231
2025-11-07 13:39:51.006258,18432,2025-11-07 13:39:51.820897538
2025-11-07 13:39:51.006258,-3,2025-11-07 13:39:51.828589846
2025-11-07 13:39:51.006258,-286,2025-11-07 13:39:51.836282154
2025-11-07 13:39:51.006258,21759,2025-11-07 13:39:51.843974462
2025-11-07 13:39:51.006258,0,2025-11-07 13:39:51.851666769
2025-11-07 13:39:51.006258,-111,2025-11-07 13:39:51.859359077
2025-11-07 13:39:51.006258,-29441,2025-11-07 13:39:51.867051385
2025-11-07 13:39:51.006258,-1,2025-11-07 13:39:51.874743692
2025-11-07 13:39:51.006258,19,2025-11-07 13:39:51.882436000
2025-11-07 13:39:51.006258,-7936,2025-11-07 13:39:51.890128308
2025-11-07 13:39:51.006258,-1,2025-11-07 13:39:51.897820615
2025-11-07 13:39:51.006258,-63,2025-11-07 13:39:51.905512923
2025-11-07 13:39:51.006258,-1537,2025-11-07 13:39:51.913205231
2025-11-07 13:39:51.006258,-1,2025-11-07 13:39:51.920897538
2025-11-07 13:39:51.006258,0,2025-11-07 13:39:51.928589846
2025-11-07 13:39:51.006258,-3072,2025-11-07 13:39:51.936282154
2025-11-07 13:39:51.006258,-1,2025-11-07 13:39:51.943974462
2025-11-07 13:39:51.006258,2,2025-11-07 13:39:51.951666769
2025-11-07 13:39:51.006258,3584,2025-11-07 13:39:51.959359077
2025-11-07 13:39:51.006258,0,2025-11-07 13:39:51.967051385
2025-11-07 13:39:51.006258,19,2025-11-07 13:39:51.974743692
2025-11-07 13:39:51.006258,7936,2025-11-07 13:39:51.982436000
2025-11-07 13:39:51.006258,0,2025-11-07 13:39:51.990128308
2025-11-07 13:39:51.006258,43,2025-11-07 13:39:51.997820615
2025-11-07 13:39:51.006258,12800,2025-11-07 13:39:52.005512923
2025-11-07 13:39:51.006258,0,2025-11-07 13:39:52.013205231
2025-11-07 13:39:51.006258,60,2025-11-07 13:39:52.020897538
2025-11-07 13:39:51.006258,19712,2025-11-07 13:39:52.028589846
2025-11-07 13:39:51.006258,0,2025-11-07 13:39:52.036282154
2025-11-07 13:39:51.006258,94,2025-11-07 13:39:52.043974462
2025-11-07 13:39:51.006258,27904,2025-11-07 13:39:52.051666769
2025-11-07 13:39:51.006258,0,2025-11-07 13:39:52.059359077
2025-11-07 13:39:51.006258,126,2025-11-07 13:39:52.067051385
2025-11-07 13:39:51.006258,-32256,2025-11-07 13:39:52.074743692
2025-11-07 13:39:51.006258,0,2025-11-07 13:39:52.082436000
2025-11-07 13:39:51.006258,133,2025-11-07 13:39:52.090128308
2025-11-07 13:39:51.006258,-29696,2025-11-07 13:39:52.097820615
2025-11-07 13:39:51.006258,0,2025-11-07 13:39:52.105512923
2025-11-07 13:39:51.006258,138,2025-11-07 13:39:52.113205231
2025-11-07 13:39:51.006258,32256,2025-11-07 13:39:52.120897538
2025-11-07 13:39:51.006258,0,2025-11-07 13:39:52.128589846
2025-11-07 13:39:51.006258,113,2025-11-07 13:39:52.136282154
2025-11-07 13:39:51.006258,24064,2025-11-07 13:39:52.143974462
2025-11-07 13:39:51.006258,0,2025-11-07 13:39:52.151666769
2025-11-07 13:39:51.006258,53,2025-11-07 13:39:52.159359077
2025-11-07 13:39:51.006258,0,2025-11-07 13:39:52.167051385
2025-11-07 13:39:51.006258,0,2025-11-07 13:39:52.174743692
2025-11-07 13:39:51.006258,-36,2025-11-07 13:39:52.182436000
2025-11-07 13:39:51.006258,-15105,2025-11-07 13:39:52.190128308
2025-11-07 13:39:51.006258,-1,2025-11-07 13:39:52.197820615
2025-11-07 13:39:51.006258,-80,2025-11-07 13:39:52.205512923
2025-11-07 13:39:51.006258,-23297,2025-11-07 13:39:52.213205231
2025-11-07 13:39:51.006258,-1,2025-11-07 13:39:52.220897538
2025-11-07 13:39:51.006258,-97,2025-11-07 13:39:52.228589846
2025-11-07 13:39:51.006258,-25089,2025-11-07 13:39:52.236282154
2025-11-07 13:39:51.006258,-1,2025-11-07 13:39:52.243974462
2025-11-07 13:39:51.006258,-97,2025-11-07 13:39:52.251666769
2025-11-07 13:39:51.006258,-23297,2025-11-07 13:39:52.259359077
2025-11-07 13:39:51.006258,-1,2025-11-07 13:39:52.267051385
2025-11-07 13:39:51.006258,-87,2025-11-07 13:39:52.274743692
2025-11-07 13:39:51.006258,-19457,2025-11-07 13:39:52.282436000
2025-11-07 13:39:51.006258,-1,2025-11-07 13:39:52.290128308
2025-11-07 13:39:51.006258,-63,2025-11-07 13:39:52.297820615
2025-11-07 13:39:51.006258,-13313,2025-11-07 13:39:52.305512923
2025-11-07 13:39:51.006258,-1,2025-11-07 13:39:52.313205231
2025-11-07 13:39:51.006258,-46,2025-11-07 13:39:52.320897538
2025-11-07 13:39:51.006258,-9473,2025-11-07 13:39:52.328589846
2025-11-07 13:39:51.006258,-1,2025-11-07 13:39:52.336282154
2025-11-07 13:39:51.006258,-31,2025-11-07 13:39:52.343974462
2025-11-07 13:39:51.006258,-5889,2025-11-07 13:39:52.351666769
2025-11-07 13:39:51.006258,-1,2025-11-07 13:39:52.359359077
2025-11-07 13:39:51.006258,-24,2025-11-07 13:39:52.367051385
2025-11-07 13:39:51.006258,-6401,2025-11-07 13:39:52.374743692
2025-11-07 13:39:51.006258,-1,2025-11-07 13:39:52.382436000
2025-11-07 13:39:51.006258,-24,2025-11-07 13:39:52.390128308
2025-11-07 13:39:51.546765,-21,2025-11-07 13:39:52.397820615
2025-11-07 13:39:51.546765,-6401,2025-11-07 13:39:52.405512923
2025-11-07 13:39:51.546765,-1,2025-11-07 13:39:52.413205230
2025-11-07 13:39:51.546765,-33,2025-11-07 13:39:52.420897538
2025-11-07 13:39:51.546765,-8193,2025-11-07 13:39:52.428589846
2025-11-07 13:39:51.546765,-1,2025-11-07 13:39:52.436282154
2025-11-07 13:39:51.546765,-36,2025-11-07 13:39:52.443974462
2025-11-07 13:39:51.546765,-9473,2025-11-07 13:39:52.451666769
2025-11-07 13:39:51.546765,-1,2025-11-07 13:39:52.459359077
2025-11-07 13:39:51.546765,-33,2025-11-07 13:39:52.467051385
2025-11-07 13:39:51.546765,-8193,2025-11-07 13:39:52.474743692
2025-11-07 13:39:51.546765,-1,2025-11-07 13:39:52.482436000
2025-11-07 13:39:51.546765,-33,2025-11-07 13:39:52.490128308
2025-11-07 13:39:51.546765,-2049,2025-11-07 13:39:52.497820615
2025-11-07 13:39:51.546765,-1,2025-11-07 13:39:52.505512923
2025-11-07 13:39:51.546765,19,2025-11-07 13:39:52.513205231
2025-11-07 13:39:51.546765,4096,2025-11-07 13:39:52.520897538
2025-11-07 13:39:51.546765,0,2025-11-07 13:39:52.528589846
2025-11-07 13:39:51.546765,2,2025-11-07 13:39:52.536282154
2025-11-07 13:39:51.546765,-512,2025-11-07 13:39:52.543974462
2025-11-07 13:39:51.546765,-1,2025-11-07 13:39:52.551666769
2025-11-07 13:39:51.546765,-9,2025-11-07 13:39:52.559359077
2025-11-07 13:39:51.546765,-5121,2025-11-07 13:39:52.567051385
2025-11-07 13:39:51.546765,-1,2025-11-07 13:39:52.574743692
2025-11-07 13:39:51.546765,-24,2025-11-07 13:39:52.582436000
2025-11-07 13:39:51.546765,-3329,2025-11-07 13:39:52.590128308
2025-11-07 13:39:51.546765,-1,2025-11-07 13:39:52.597820615
2025-11-07 13:39:51.546765,-7,2025-11-07 13:39:52.605512923
2025-11-07 13:39:51.546765,-1537,2025-11-07 13:39:52.613205231
2025-11-07 13:39:51.546765,-1,2025-11-07 13:39:52.620897538
2025-11-07 13:39:51.546765,-9,2025-11-07 13:39:52.628589846
2025-11-07 13:39:51.546765,7679,2025-11-07 13:39:52.636282154
2025-11-07 13:39:51.546765,0,2025-11-07 13:39:52.643974462
2025-11-07 13:39:51.546765,264,2025-11-07 13:39:52.651666769
2025-11-07 13:39:51.546765,768,2025-11-07 13:39:52.659359077
2025-11-07 13:39:51.546765,3,2025-11-07 13:39:52.667051385
2025-11-07 13:39:51.546765,1171,2025-11-07 13:39:52.674743692
2025-11-07 13:39:51.546765,-29696,2025-11-07 13:39:52.682436000
2025-11-07 13:39:51.546765,2,2025-11-07 13:39:52.690128308
2025-11-07 13:39:51.546765,-438,2025-11-07 13:39:52.697820615
2025-11-07 13:39:51.546765,-12033,2025-11-07 13:39:52.705512923
2025-11-07 13:39:51.546765,-3,2025-11-07 13:39:52.713205231
2025-11-07 13:39:51.546765,-2,2025-11-07 13:39:52.720897538
2025-11-07 13:39:51.546765,-2817,2025-11-07 13:39:52.728589846
2025-11-07 13:39:51.546765,-1,2025-11-07 13:39:52.736282154
2025-11-07 13:39:51.546765,-174,2025-11-07 13:39:52.743974462
2025-11-07 13:39:51.546765,-8961,2025-11-07 13:39:52.751666769
2025-11-07 13:39:51.546765,-1,2025-11-07 13:39:52.759359077
2025-11-07 13:39:51.546765,-2,2025-11-07 13:39:52.767051385
2025-11-07 13:39:51.546765,-19457,2025-11-07 13:39:52.774743692
2025-11-07 13:39:51.546765,-1,2025-11-07 13:39:52.782436000
2025-11-07 13:39:51.546765,-43,2025-11-07 13:39:52.790128308
2025-11-07 13:39:51.546765,-2049,2025-11-07 13:39:52.797820615
2025-11-07 13:39:51.546765,-1,2025-11-07 13:39:52.805512923
2025-11-07 13:39:51.546765,-26,2025-11-07 13:39:52.813205231
2025-11-07 13:39:51.546765,-3329,2025-11-07 13:39:52.820897538
2025-11-07 13:39:51.546765,-1,2025-11-07 13:39:52.828589846
2025-11-07 13:39:51.546765,9,2025-11-07 13:39:52.836282154
2025-11-07 13:39:51.546765,2304,2025-11-07 13:39:52.843974462
2025-11-07 13:39:51.546765,0,2025-11-07 13:39:52.851666769
2025-11-07 13:39:51.546765,14,2025-11-07 13:39:52.859359077
2025-11-07 13:39:51.546765,6656,2025-11-07 13:39:52.867051385
2025-11-07 13:39:51.546765,0,2025-11-07 13:39:52.874743692
2025-11-07 13:39:51.546765,36,2025-11-07 13:39:52.882436000
2025-11-07 13:39:51.546765,12800,2025-11-07 13:39:52.890128308
2025-11-07 13:39:51.546765,0,2025-11-07 13:39:52.897820615
2025-11-07 13:39:51.546765,75,2025-11-07 13:39:52.905512923
2025-11-07 13:39:51.546765,22784,2025-11-07 13:39:52.913205231
2025-11-07 13:39:51.546765,0,2025-11-07 13:39:52.920897538
2025-11-07 13:39:51.546765,99,2025-11-07 13:39:52.928589846
2025-11-07 13:39:51.546765,28928,2025-11-07 13:39:52.936282154
2025-11-07 13:39:51.546765,0,2025-11-07 13:39:52.943974462
2025-11-07 13:39:51.546765,128,2025-11-07 13:39:52.951666769
2025-11-07 13:39:51.546765,-30208,2025-11-07 13:39:52.959359077
2025-11-07 13:39:51.546765,0,2025-11-07 13:39:52.967051385
2025-11-07 13:39:51.546765,140,2025-11-07 13:39:52.974743692
2025-11-07 13:39:51.546765,-29696,2025-11-07 13:39:52.982436000
2025-11-07 13:39:51.546765,0,2025-11-07 13:39:52.990128308
2025-11-07 13:39:51.546765,135,2025-11-07 13:39:52.997820615
2025-11-07 13:39:51.546765,30976,2025-11-07 13:39:53.005512923
2025-11-07 13:39:51.546765,0,2025-11-07 13:39:53.013205231
2025-11-07 13:39:51.546765,99,2025-11-07 13:39:53.020897538
2025-11-07 13:39:51.546765,16128,2025-11-07 13:39:53.028589846
2025-11-07 13:39:51.546765,0,2025-11-07 13:39:53.036282154
2025-11-07 13:39:51.546765,9,2025-11-07 13:39:53.043974462
2025-11-07 13:39:51.546765,-9728,2025-11-07 13:39:53.051666769
2025-11-07 13:39:51.546765,-1,2025-11-07 13:39:53.059359077
2025-11-07 13:39:51.546765,-72,2025-11-07 13:39:53.067051385
2025-11-07 13:39:51.546765,-23297,2025-11-07 13:39:53.074743692
2025-11-07 13:39:51.546765,-1,2025-11-07 13:39:53.082436000
2025-11-07 13:39:51.546765,-99,2025-11-07 13:39:53.090128308
2025-11-07 13:39:51.546765,-25089,2025-11-07 13:39:53.097820615
2025-11-07 13:39:51.546765,-1,2025-11-07 13:39:53.105512923
2025-11-07 13:39:51.546765,-89,2025-11-07 13:39:53.113205231
2025-11-07 13:39:51.546765,-22529,2025-11-07 13:39:53.120897538
2025-11-07 13:39:51.546765,-1,2025-11-07 13:39:53.128589846
2025-11-07 13:39:51.546765,-89,2025-11-07 13:39:53.136282154
2025-11-07 13:39:51.546765,-22017,2025-11-07 13:39:53.143974462
2025-11-07 13:39:51.546765,-1,2025-11-07 13:39:53.151666769
2025-11-07 13:39:51.546765,-80,2025-11-07 13:39:53.159359077
2025-11-07 13:39:51.546765,-19457,2025-11-07 13:39:53.167051385
2025-11-07 13:39:51.546765,-1,2025-11-07 13:39:53.174743692
2025-11-07 13:39:51.546765,-72,2025-11-07 13:39:53.182436000
2025-11-07 13:39:51.546765,-14593,2025-11-07 13:39:53.190128308
2025-11-07 13:39:51.546765,-1,2025-11-07 13:39:53.197820615
2025-11-07 13:39:51.546765,-46,2025-11-07 13:39:53.205512923
2025-11-07 13:39:51.546765,-10753,2025-11-07 13:39:53.213205231
2025-11-07 13:39:51.546765,-1,2025-11-07 13:39:53.220897538
2025-11-07 13:39:51.546765,-38,2025-11-07 13:39:53.228589846
2025-11-07 13:39:52.087339,-31,2025-11-07 13:39:53.236282154
2025-11-07 13:39:52.087339,-7169,2025-11-07 13:39:53.243974462
2025-11-07 13:39:52.087339,-1,2025-11-07 13:39:53.251666769
2025-11-07 13:39:52.087339,-36,2025-11-07 13:39:53.259359077
2025-11-07 13:39:52.087339,-7681,2025-11-07 13:39:53.267051385
2025-11-07 13:39:52.087339,-1,2025-11-07 13:39:53.274743692
2025-11-07 13:39:52.087339,-29,2025-11-07 13:39:53.282436000
2025-11-07 13:39:52.087339,-8193,2025-11-07 13:39:53.290128308
2025-11-07 13:39:52.087339,-1,2025-11-07 13:39:53.297820615
2025-11-07 13:39:52.087339,-29,2025-11-07 13:39:53.305512923
2025-11-07 13:39:52.087339,-4609,2025-11-07 13:39:53.313205231
2025-11-07 13:39:52.087339,-1,2025-11-07 13:39:53.320897538
2025-11-07 13:39:52.087339,-31,2025-11-07 13:39:53.328589846
2025-11-07 13:39:52.087339,-10753,2025-11-07 13:39:53.336282154
2025-11-07 13:39:52.087339,-1,2025-11-07 13:39:53.343974462
2025-11-07 13:39:52.087339,-38,2025-11-07 13:39:53.351666769
2025-11-07 13:39:52.087339,-7169,2025-11-07 13:39:53.359359077
2025-11-07 13:39:52.087339,-1,2025-11-07 13:39:53.367051385
2025-11-07 13:39:52.087339,-12,2025-11-07 13:39:53.374743692
2025-11-07 13:39:52.087339,-257,2025-11-07 13:39:53.382436000
2025-11-07 13:39:52.087339,-1,2025-11-07 13:39:53.390128308
2025-11-07 13:39:52.087339,-9,2025-11-07 13:39:53.397820615
2025-11-07 13:39:52.087339,-4609,2025-11-07 13:39:53.405512923
2025-11-07 13:39:52.087339,-1,2025-11-07 13:39:53.413205230
2025-11-07 13:39:52.087339,-16,2025-11-07 13:39:53.420897538
2025-11-07 13:39:52.087339,-5889,2025-11-07 13:39:53.428589846
2025-11-07 13:39:52.087339,-1,2025-11-07 13:39:53.436282154
2025-11-07 13:39:52.087339,-26,2025-11-07 13:39:53.443974462
2025-11-07 13:39:52.087339,-3329,2025-11-07 13:39:53.451666769
2025-11-07 13:39:52.087339,-1,2025-11-07 13:39:53.459359077
2025-11-07 13:39:52.087339,-9,2025-11-07 13:39:53.467051385
2025-11-07 13:39:52.087339,-2817,2025-11-07 13:39:53.474743692
2025-11-07 13:39:52.087339,-1,2025-11-07 13:39:53.482436000
2025-11-07 13:39:52.087339,-9,2025-11-07 13:39:53.490128308
2025-11-07 13:39:52.087339,2047,2025-11-07 13:39:53.497820615
2025-11-07 13:39:52.087339,0,2025-11-07 13:39:53.505512923
2025-11-07 13:39:52.087339,201,2025-11-07 13:39:53.513205231
2025-11-07 13:39:52.087339,-11008,2025-11-07 13:39:53.520897538
2025-11-07 13:39:52.087339,2,2025-11-07 13:39:53.528589846
2025-11-07 13:39:52.087339,1280,2025-11-07 13:39:53.536282154
2025-11-07 13:39:52.087339,-18176,2025-11-07 13:39:53.543974462
2025-11-07 13:39:52.087339,3,2025-11-07 13:39:53.551666769
2025-11-07 13:39:52.087339,-213,2025-11-07 13:39:53.559359077
2025-11-07 13:39:52.087339,-18689,2025-11-07 13:39:53.567051385
2025-11-07 13:39:52.087339,-3,2025-11-07 13:39:53.574743692
2025-11-07 13:39:52.087339,-50,2025-11-07 13:39:53.582436000
2025-11-07 13:39:52.087339,3839,2025-11-07 13:39:53.590128308
2025-11-07 13:39:52.087339,0,2025-11-07 13:39:53.597820615
2025-11-07 13:39:52.087339,-194,2025-11-07 13:39:53.605512923
2025-11-07 13:39:52.087339,-18177,2025-11-07 13:39:53.613205231
2025-11-07 13:39:52.087339,-1,2025-11-07 13:39:53.620897538
2025-11-07 13:39:52.087339,-9,2025-11-07 13:39:53.628589846
2025-11-07 13:39:52.087339,-22529,2025-11-07 13:39:53.636282154
2025-11-07 13:39:52.087339,-1,2025-11-07 13:39:53.643974462
2025-11-07 13:39:52.087339,-65,2025-11-07 13:39:53.651666769
2025-11-07 13:39:52.087339,-4609,2025-11-07 13:39:53.659359077
2025-11-07 13:39:52.087339,-1,2025-11-07 13:39:53.667051385
2025-11-07 13:39:52.087339,-36,2025-11-07 13:39:53.674743692
2025-11-07 13:39:52.087339,-7681,2025-11-07 13:39:53.682436000
2025-11-07 13:39:52.087339,-1,2025-11-07 13:39:53.690128308
2025-11-07 13:39:52.087339,-9,2025-11-07 13:39:53.697820615
2025-11-07 13:39:52.087339,-2817,2025-11-07 13:39:53.705512923
2025-11-07 13:39:52.087339,-1,2025-11-07 13:39:53.713205231
2025-11-07 13:39:52.087339,-7,2025-11-07 13:39:53.720897538
2025-11-07 13:39:52.087339,3327,2025-11-07 13:39:53.728589846
2025-11-07 13:39:52.087339,0,2025-11-07 13:39:53.736282154
2025-11-07 13:39:52.087339,24,2025-11-07 13:39:53.743974462
2025-11-07 13:39:52.087339,8448,2025-11-07 13:39:53.751666769
2025-11-07 13:39:52.087339,0,2025-11-07 13:39:53.759359077
2025-11-07 13:39:52.087339,50,2025-11-07 13:39:53.767051385
2025-11-07 13:39:52.087339,17920,2025-11-07 13:39:53.774743692
2025-11-07 13:39:52.087339,0,2025-11-07 13:39:53.782436000
2025-11-07 13:39:52.087339,87,2025-11-07 13:39:53.790128308
2025-11-07 13:39:52.087339,27136,2025-11-07 13:39:53.797820615
2025-11-07 13:39:52.087339,0,2025-11-07 13:39:53.805512923
2025-11-07 13:39:52.087339,123,2025-11-07 13:39:53.813205231
2025-11-07 13:39:52.087339,-30976,2025-11-07 13:39:53.820897538
2025-11-07 13:39:52.087339,0,2025-11-07 13:39:53.828589846
2025-11-07 13:39:52.087339,145,2025-11-07 13:39:53.836282154
2025-11-07 13:39:52.087339,-27904,2025-11-07 13:39:53.843974462
2025-11-07 13:39:52.087339,0,2025-11-07 13:39:53.851666769
2025-11-07 13:39:52.087339,145,2025-11-07 13:39:53.859359077
2025-11-07 13:39:52.087339,-31488,2025-11-07 13:39:53.867051385
2025-11-07 13:39:52.087339,0,2025-11-07 13:39:53.874743692
2025-11-07 13:39:52.087339,101,2025-11-07 13:39:53.882436000
2025-11-07 13:39:52.087339,13568,2025-11-07 13:39:53.890128308
2025-11-07 13:39:52.087339,0,2025-11-07 13:39:53.897820615
2025-11-07 13:39:52.087339,2,2025-11-07 13:39:53.905512923
2025-11-07 13:39:52.087339,-9728,2025-11-07 13:39:53.913205231
2025-11-07 13:39:52.087339,-1,2025-11-07 13:39:53.920897538
2025-11-07 13:39:52.087339,-70,2025-11-07 13:39:53.928589846
2025-11-07 13:39:52.087339,-22529,2025-11-07 13:39:53.936282154
2025-11-07 13:39:52.087339,-1,2025-11-07 13:39:53.943974462
2025-11-07 13:39:52.087339,-97,2025-11-07 13:39:53.951666769
2025-11-07 13:39:52.087339,-25089,2025-11-07 13:39:53.959359077
2025-11-07 13:39:52.087339,-1,2025-11-07 13:39:53.967051385
2025-11-07 13:39:52.087339,-99,2025-11-07 13:39:53.974743692
2025-11-07 13:39:52.087339,-24577,2025-11-07 13:39:53.982436000
2025-11-07 13:39:52.087339,-1,2025-11-07 13:39:53.990128308
2025-11-07 13:39:52.087339,-89,2025-11-07 13:39:53.997820615
2025-11-07 13:39:52.087339,-22017,2025-11-07 13:39:54.005512923
2025-11-07 13:39:52.087339,-1,2025-11-07 13:39:54.013205231
2025-11-07 13:39:52.087339,-84,2025-11-07 13:39:54.020897538
2025-11-07 13:39:52.087339,-21249,2025-11-07 13:39:54.028589846
2025-11-07 13:39:52.087339,-1,2025-11-07 13:39:54.036282154
2025-11-07 13:39:52.087339,-80,2025-11-07 13:39:54.043974462
2025-11-07 13:39:52.087339,-17665,2025-11-07 13:39:54.051666769
2025-11-07 13:39:52.087339,-1,2025-11-07 13:39:54.059359077
2025-11-07 13:39:52.087339,-70,2025-11-07 13:39:54.067051385
2025-11-07 13:39:52.717221,-67,2025-11-07 13:39:54.074743692
2025-11-07 13:39:52.717221,-13313,2025-11-07 13:39:54.082436000
2025-11-07 13:39:52.717221,-1,2025-11-07 13:39:54.090128308
2025-11-07 13:39:52.717221,-43,2025-11-07 13:39:54.097820615
2025-11-07 13:39:52.717221,-9473,2025-11-07 13:39:54.105512923
2025-11-07 13:39:52.717221,-1,2025-11-07 13:39:54.113205231
2025-11-07 13:39:52.717221,-24,2025-11-07 13:39:54.120897538
2025-11-07 13:39:52.717221,-2049,2025-11-07 13:39:54.128589846
2025-11-07 13:39:52.717221,-1,2025-11-07 13:39:54.136282154
2025-11-07 13:39:52.717221,-16,2025-11-07 13:39:54.143974462
2025-11-07 13:39:52.717221,-6401,2025-11-07 13:39:54.151666769
2025-11-07 13:39:52.717221,-1,2025-11-07 13:39:54.159359077
2025-11-07 13:39:52.717221,-21,2025-11-07 13:39:54.167051385
2025-11-07 13:39:52.717221,-3841,2025-11-07 13:39:54.174743692
2025-11-07 13:39:52.717221,-1,2025-11-07 13:39:54.182436000
2025-11-07 13:39:52.717221,-19,2025-11-07 13:39:54.190128308
2025-11-07 13:39:52.717221,-5889,2025-11-07 13:39:54.197820615
2025-11-07 13:39:52.717221,-1,2025-11-07 13:39:54.205512923
2025-11-07 13:39:52.717221,-31,2025-11-07 13:39:54.213205231
2025-11-07 13:39:52.717221,-7681,2025-11-07 13:39:54.220897538
2025-11-07 13:39:52.717221,-1,2025-11-07 13:39:54.228589846
2025-11-07 13:39:52.717221,-24,2025-11-07 13:39:54.236282154
2025-11-07 13:39:52.717221,-4609,2025-11-07 13:39:54.243974462
2025-11-07 13:39:52.717221,-1,2025-11-07 13:39:54.251666769
2025-11-07 13:39:52.717221,-7,2025-11-07 13:39:54.259359077
2025-11-07 13:39:52.717221,767,2025-11-07 13:39:54.267051385
2025-11-07 13:39:52.717221,0,2025-11-07 13:39:54.274743692
2025-11-07 13:39:52.717221,-7,2025-11-07 13:39:54.282436000
2025-11-07 13:39:52.717221,-5889,2025-11-07 13:39:54.290128308
2025-11-07 13:39:52.717221,-1,2025-11-07 13:39:54.297820615
2025-11-07 13:39:52.717221,-21,2025-11-07 13:39:54.305512923
2025-11-07 13:39:52.717221,-2049,2025-11-07 13:39:54.313205231
2025-11-07 13:39:52.717221,-1,2025-11-07 13:39:54.320897538
2025-11-07 13:39:52.717221,-16,2025-11-07 13:39:54.328589846
2025-11-07 13:39:52.717221,-5121,2025-11-07 13:39:54.336282154
2025-11-07 13:39:52.717221,-1,2025-11-07 13:39:54.343974462
2025-11-07 13:39:52.717221,-16,2025-11-07 13:39:54.351666769
2025-11-07 13:39:52.717221,-2817,2025-11-07 13:39:54.359359077
2025-11-07 13:39:52.717221,-1,2025-11-07 13:39:54.367051385
2025-11-07 13:39:52.717221,-4,2025-11-07 13:39:54.374743692
2025-11-07 13:39:52.717221,2047,2025-11-07 13:39:54.382436000
2025-11-07 13:39:52.717221,0,2025-11-07 13:39:54.390128308
2025-11-07 13:39:52.717221,123,2025-11-07 13:39:54.397820615
2025-11-07 13:39:52.717221,5376,2025-11-07 13:39:54.405512923
2025-11-07 13:39:52.717221,2,2025-11-07 13:39:54.413205230
2025-11-07 13:39:52.717221,1127,2025-11-07 13:39:54.420897538
2025-11-07 13:39:52.717221,-19968,2025-11-07 13:39:54.428589846
2025-11-07 13:39:52.717221,4,2025-11-07 13:39:54.436282154
2025-11-07 13:39:52.717221,232,2025-11-07 13:39:54.443974462
2025-11-07 13:39:52.717221,-24064,2025-11-07 13:39:54.451666769
2025-11-07 13:39:52.717221,-3,2025-11-07 13:39:54.459359077
2025-11-07 13:39:52.717221,-283,2025-11-07 13:39:54.467051385
2025-11-07 13:39:52.717221,11263,2025-11-07 13:39:54.474743692
2025-11-07 13:39:52.717221,0,2025-11-07 13:39:54.482436000
2025-11-07 13:39:52.717221,-164,2025-11-07 13:39:54.490128308
2025-11-07 13:39:52.717221,26111,2025-11-07 13:39:54.497820615
2025-11-07 13:39:52.717221,-1,2025-11-07 13:39:54.505512923
2025-11-07 13:39:52.717221,-24,2025-11-07 13:39:54.513205231
2025-11-07 13:39:52.717221,-18177,2025-11-07 13:39:54.520897538
2025-11-07 13:39:52.717221,-1,2025-11-07 13:39:54.528589846
2025-11-07 13:39:52.717221,-80,2025-11-07 13:39:54.536282154
2025-11-07 13:39:52.717221,-8961,2025-11-07 13:39:54.543974462
2025-11-07 13:39:52.717221,-1,2025-11-07 13:39:54.551666769
2025-11-07 13:39:52.717221,-60,2025-11-07 13:39:54.559359077
2025-11-07 13:39:52.717221,-18945,2025-11-07 13:39:54.567051385
2025-11-07 13:39:52.717221,-1,2025-11-07 13:39:54.574743692
2025-11-07 13:39:52.717221,-41,2025-11-07 13:39:54.582436000
2025-11-07 13:39:52.717221,-7169,2025-11-07 13:39:54.590128308
2025-11-07 13:39:52.717221,-1,2025-11-07 13:39:54.597820615
2025-11-07 13:39:52.717221,-36,2025-11-07 13:39:54.605512923
2025-11-07 13:39:52.717221,-2817,2025-11-07 13:39:54.613205231
2025-11-07 13:39:52.717221,-1,2025-11-07 13:39:54.620897538
2025-11-07 13:39:52.717221,12,2025-11-07 13:39:54.628589846
2025-11-07 13:39:52.717221,4096,2025-11-07 13:39:54.636282154
2025-11-07 13:39:52.717221,0,2025-11-07 13:39:54.643974462
2025-11-07 13:39:52.717221,26,2025-11-07 13:39:54.651666769
2025-11-07 13:39:52.717221,11008,2025-11-07 13:39:54.659359077
2025-11-07 13:39:52.717221,0,2025-11-07 13:39:54.667051385
2025-11-07 13:39:52.717221,63,2025-11-07 13:39:54.674743692
2025-11-07 13:39:52.717221,23552,2025-11-07 13:39:54.682436000
2025-11-07 13:39:52.717221,0,2025-11-07 13:39:54.690128308
2025-11-07 13:39:52.717221,116,2025-11-07 13:39:54.697820615
2025-11-07 13:39:52.717221,-32768,2025-11-07 13:39:54.705512923
2025-11-07 13:39:52.717221,0,2025-11-07 13:39:54.713205231
2025-11-07 13:39:52.717221,143,2025-11-07 13:39:54.720897538
2025-11-07 13:39:52.717221,-25344,2025-11-07 13:39:54.728589846
2025-11-07 13:39:52.717221,0,2025-11-07 13:39:54.736282154
2025-11-07 13:39:52.717221,162,2025-11-07 13:39:54.743974462
2025-11-07 13:39:52.717221,-25344,2025-11-07 13:39:54.751666769
2025-11-07 13:39:52.717221,0,2025-11-07 13:39:54.759359077
2025-11-07 13:39:52.717221,135,2025-11-07 13:39:54.767051385
2025-11-07 13:39:52.717221,21504,2025-11-07 13:39:54.774743692
2025-11-07 13:39:52.717221,0,2025-11-07 13:39:54.782436000
2025-11-07 13:39:52.717221,14,2025-11-07 13:39:54.790128308
2025-11-07 13:39:52.717221,-9728,2025-11-07 13:39:54.797820615
2025-11-07 13:39:52.717221,-1,2025-11-07 13:39:54.805512923
2025-11-07 13:39:52.717221,-72,2025-11-07 13:39:54.813205231
2025-11-07 13:39:52.717221,-25601,2025-11-07 13:39:54.820897538
2025-11-07 13:39:52.717221,-1,2025-11-07 13:39:54.828589846
2025-11-07 13:39:52.717221,-128,2025-11-07 13:39:54.836282154
2025-11-07 13:39:52.717221,-32001,2025-11-07 13:39:54.843974462
2025-11-07 13:39:52.717221,-1,2025-11-07 13:39:54.851666769
2025-11-07 13:39:52.717221,-104,2025-11-07 13:39:54.859359077
2025-11-07 13:39:52.717221,-28161,2025-11-07 13:39:54.867051385
2025-11-07 13:39:52.717221,-1,2025-11-07 13:39:54.874743692
2025-11-07 13:39:52.717221,-135,2025-11-07 13:39:54.882436000
2025-11-07 13:39:52.717221,-30721,2025-11-07 13:39:54.890128308
2025-11-07 13:39:52.717221,-1,2025-11-07 13:39:54.897820615
2025-11-07 13:39:52.717221,-118,2025-11-07 13:39:54.905512923
2025-11-07 13:39:53.258171,-140,2025-11-07 13:39:54.913205231
2025-11-07 13:39:53.258171,32511,2025-11-07 13:39:54.920897538
2025-11-07 13:39:53.258171,-1,2025-11-07 13:39:54.928589846
2025-11-07 13:39:53.258171,-113,2025-11-07 13:39:54.936282154
2025-11-07 13:39:53.258171,-29441,2025-11-07 13:39:54.943974462
2025-11-07 13:39:53.258171,-1,2025-11-07 13:39:54.951666769
2025-11-07 13:39:53.258171,-109,2025-11-07 13:39:54.959359077
2025-11-07 13:39:53.258171,-23297,2025-11-07 13:39:54.967051385
2025-11-07 13:39:53.258171,-1,2025-11-07 13:39:54.974743692
2025-11-07 13:39:53.258171,-77,2025-11-07 13:39:54.982436000
2025-11-07 13:39:53.258171,-17665,2025-11-07 13:39:54.990128308
2025-11-07 13:39:53.258171,-1,2025-11-07 13:39:54.997820615
2025-11-07 13:39:53.258171,-65,2025-11-07 13:39:55.005512923
2025-11-07 13:39:53.258171,-15105,2025-11-07 13:39:55.013205231
2025-11-07 13:39:53.258171,-1,2025-11-07 13:39:55.020897538
2025-11-07 13:39:53.258171,-53,2025-11-07 13:39:55.028589846
2025-11-07 13:39:53.258171,-12033,2025-11-07 13:39:55.036282154
2025-11-07 13:39:53.258171,-1,2025-11-07 13:39:55.043974462
2025-11-07 13:39:53.258171,-43,2025-11-07 13:39:55.051666769
2025-11-07 13:39:53.258171,-6401,2025-11-07 13:39:55.059359077
2025-11-07 13:39:53.258171,-1,2025-11-07 13:39:55.067051385
2025-11-07 13:39:53.258171,-16,2025-11-07 13:39:55.074743692
2025-11-07 13:39:53.258171,-5889,2025-11-07 13:39:55.082436000
2025-11-07 13:39:53.258171,-1,2025-11-07 13:39:55.090128308
2025-11-07 13:39:53.258171,-36,2025-11-07 13:39:55.097820615
2025-11-07 13:39:53.258171,-10753,2025-11-07 13:39:55.105512923
2025-11-07 13:39:53.258171,-1,2025-11-07 13:39:55.113205231
2025-11-07 13:39:53.258171,-41,2025-11-07 13:39:55.120897538
2025-11-07 13:39:53.258171,-9473,2025-11-07 13:39:55.128589846
2025-11-07 13:39:53.258171,-1,2025-11-07 13:39:55.136282154
2025-11-07 13:39:53.258171,-46,2025-11-07 13:39:55.143974462
2025-11-07 13:39:53.258171,-10753,2025-11-07 13:39:55.151666769
2025-11-07 13:39:53.258171,-1,2025-11-07 13:39:55.159359077
2025-11-07 13:39:53.258171,-33,2025-11-07 13:39:55.167051385
2025-11-07 13:39:53.258171,-9473,2025-11-07 13:39:55.174743692
2025-11-07 13:39:53.258171,-1,2025-11-07 13:39:55.182436000
2025-11-07 13:39:53.258171,-50,2025-11-07 13:39:55.190128308
2025-11-07 13:39:53.258171,-12545,2025-11-07 13:39:55.197820615
2025-11-07 13:39:53.258171,-1,2025-11-07 13:39:55.205512923
2025-11-07 13:39:53.258171,-48,2025-11-07 13:39:55.213205231
2025-11-07 13:39:53.258171,-12545,2025-11-07 13:39:55.220897538
2025-11-07 13:39:53.258171,-1,2025-11-07 13:39:55.228589846
2025-11-07 13:39:53.258171,-41,2025-11-07 13:39:55.236282154
2025-11-07 13:39:53.258171,-5121,2025-11-07 13:39:55.243974462
2025-11-07 13:39:53.258171,-1,2025-11-07 13:39:55.251666769
2025-11-07 13:39:53.258171,-21,2025-11-07 13:39:55.259359077
2025-11-07 13:39:53.258171,-7681,2025-11-07 13:39:55.267051385
2025-11-07 13:39:53.258171,-1,2025-11-07 13:39:55.274743692
2025-11-07 13:39:53.258171,-36,2025-11-07 13:39:55.282436000
2025-11-07 13:39:53.258171,-8961,2025-11-07 13:39:55.290128308
2025-11-07 13:39:53.258171,-1,2025-11-07 13:39:55.297820615
2025-11-07 13:39:53.258171,-38,2025-11-07 13:39:55.305512923
2025-11-07 13:39:53.258171,-10241,2025-11-07 13:39:55.313205231
2025-11-07 13:39:53.258171,-1,2025-11-07 13:39:55.320897538
2025-11-07 13:39:53.258171,-41,2025-11-07 13:39:55.328589846
2025-11-07 13:39:53.258171,-8193,2025-11-07 13:39:55.336282154
2025-11-07 13:39:53.258171,-1,2025-11-07 13:39:55.343974462
2025-11-07 13:39:53.258171,-33,2025-11-07 13:39:55.351666769
2025-11-07 13:39:53.258171,-5889,2025-11-07 13:39:55.359359077
2025-11-07 13:39:53.258171,-1,2025-11-07 13:39:55.367051385
2025-11-07 13:39:53.258171,77,2025-11-07 13:39:55.374743692
2025-11-07 13:39:53.258171,-22016,2025-11-07 13:39:55.382436000
2025-11-07 13:39:53.258171,1,2025-11-07 13:39:55.390128308
2025-11-07 13:39:53.258171,999,2025-11-07 13:39:55.397820615
2025-11-07 13:39:53.258171,-15616,2025-11-07 13:39:55.405512923
2025-11-07 13:39:53.258171,4,2025-11-07 13:39:55.413205230
2025-11-07 13:39:53.258171,361,2025-11-07 13:39:55.420897538
2025-11-07 13:39:53.258171,9216,2025-11-07 13:39:55.428589846
2025-11-07 13:39:53.258171,-3,2025-11-07 13:39:55.436282154
2025-11-07 13:39:53.258171,-582,2025-11-07 13:39:55.443974462
2025-11-07 13:39:53.258171,-769,2025-11-07 13:39:55.451666769
2025-11-07 13:39:53.258171,-1,2025-11-07 13:39:55.459359077
2025-11-07 13:39:53.258171,-92,2025-11-07 13:39:55.467051385
2025-11-07 13:39:53.258171,18175,2025-11-07 13:39:55.474743692
2025-11-07 13:39:53.258171,-1,2025-11-07 13:39:55.482436000
2025-11-07 13:39:53.258171,-29,2025-11-07 13:39:55.490128308
2025-11-07 13:39:53.258171,-7681,2025-11-07 13:39:55.497820615
2025-11-07 13:39:53.258171,-1,2025-11-07 13:39:55.505512923
2025-11-07 13:39:53.258171,-84,2025-11-07 13:39:55.513205231
2025-11-07 13:39:53.258171,-8961,2025-11-07 13:39:55.520897538
2025-11-07 13:39:53.258171,-1,2025-11-07 13:39:55.528589846
2025-11-07 13:39:53.258171,-19,2025-11-07 13:39:55.536282154
2025-11-07 13:39:53.258171,-8193,2025-11-07 13:39:55.543974462
2025-11-07 13:39:53.258171,-1,2025-11-07 13:39:55.551666769
2025-11-07 13:39:53.258171,-12,2025-11-07 13:39:55.559359077
2025-11-07 13:39:53.258171,-769,2025-11-07 13:39:55.567051385
2025-11-07 13:39:53.258171,-1,2025-11-07 13:39:55.574743692
2025-11-07 13:39:53.258171,-16,2025-11-07 13:39:55.582436000
2025-11-07 13:39:53.258171,767,2025-11-07 13:39:55.590128308
2025-11-07 13:39:53.258171,0,2025-11-07 13:39:55.597820615
2025-11-07 13:39:53.258171,29,2025-11-07 13:39:55.605512923
2025-11-07 13:39:53.258171,8448,2025-11-07 13:39:55.613205231
2025-11-07 13:39:53.258171,0,2025-11-07 13:39:55.620897538
2025-11-07 13:39:53.258171,46,2025-11-07 13:39:55.628589846
2025-11-07 13:39:53.258171,17152,2025-11-07 13:39:55.636282154
2025-11-07 13:39:53.258171,0,2025-11-07 13:39:55.643974462
2025-11-07 13:39:53.258171,84,2025-11-07 13:39:55.651666769
2025-11-07 13:39:53.258171,24064,2025-11-07 13:39:55.659359077
2025-11-07 13:39:53.258171,0,2025-11-07 13:39:55.667051385
2025-11-07 13:39:53.258171,116,2025-11-07 13:39:55.674743692
2025-11-07 13:39:53.258171,-28416,2025-11-07 13:39:55.682436000
2025-11-07 13:39:53.258171,0,2025-11-07 13:39:55.690128308
2025-11-07 13:39:53.258171,150,2025-11-07 13:39:55.697820615
2025-11-07 13:39:53.258171,-28416,2025-11-07 13:39:55.705512923
2025-11-07 13:39:53.258171,0,2025-11-07 13:39:55.713205231
2025-11-07 13:39:53.258171,157,2025-11-07 13:39:55.720897538
2025-11-07 13:39:53.258171,-25344,2025-11-07 13:39:55.728589846
2025-11-07 13:39:53.258171,0,2025-11-07 13:39:55.736282154
2025-11-07 13:39:53.258171,133,2025-11-07 13:39:55.743974462
2025-11-07 13:39:53.795683,104,2025-11-07 13:39:55.751666769
2025-11-07 13:39:53.795683,15360,2025-11-07 13:39:55.759359077
2025-11-07 13:39:53.795683,0,2025-11-07 13:39:55.767051385
2025-11-07 13:39:53.795683,2,2025-11-07 13:39:55.774743692
2025-11-07 13:39:53.795683,-11776,2025-11-07 13:39:55.782436000
2025-11-07 13:39:53.795683,-1,2025-11-07 13:39:55.790128308
2025-11-07 13:39:53.795683,-80,2025-11-07 13:39:55.797820615
2025-11-07 13:39:53.795683,-26369,2025-11-07 13:39:55.805512923
2025-11-07 13:39:53.795683,-1,2025-11-07 13:39:55.813205231
2025-11-07 13:39:53.795683,-116,2025-11-07 13:39:55.820897538
2025-11-07 13:39:53.795683,-29953,2025-11-07 13:39:55.828589846
2025-11-07 13:39:53.795683,-1,2025-11-07 13:39:55.836282154
2025-11-07 13:39:53.795683,-118,2025-11-07 13:39:55.843974462
2025-11-07 13:39:53.795683,-28161,2025-11-07 13:39:55.851666769
2025-11-07 13:39:53.795683,-1,2025-11-07 13:39:55.859359077
2025-11-07 13:39:53.795683,-101,2025-11-07 13:39:55.867051385
2025-11-07 13:39:53.795683,-23809,2025-11-07 13:39:55.874743692
2025-11-07 13:39:53.795683,-1,2025-11-07 13:39:55.882436000
2025-11-07 13:39:53.795683,-97,2025-11-07 13:39:55.890128308
2025-11-07 13:39:53.795683,-23297,2025-11-07 13:39:55.897820615
2025-11-07 13:39:53.795683,-1,2025-11-07 13:39:55.905512923
2025-11-07 13:39:53.795683,-84,2025-11-07 13:39:55.913205231
2025-11-07 13:39:53.795683,-20737,2025-11-07 13:39:55.920897538
2025-11-07 13:39:53.795683,-1,2025-11-07 13:39:55.928589846
2025-11-07 13:39:53.795683,-72,2025-11-07 13:39:55.936282154
2025-11-07 13:39:53.795683,-15105,2025-11-07 13:39:55.943974462
2025-11-07 13:39:53.795683,-1,2025-11-07 13:39:55.951666769
2025-11-07 13:39:53.795683,-53,2025-11-07 13:39:55.959359077
2025-11-07 13:39:53.795683,-12033,2025-11-07 13:39:55.967051385
2025-11-07 13:39:53.795683,-1,2025-11-07 13:39:55.974743692
2025-11-07 13:39:53.795683,-41,2025-11-07 13:39:55.982436000
2025-11-07 13:39:53.795683,-7681,2025-11-07 13:39:55.990128308
2025-11-07 13:39:53.795683,-1,2025-11-07 13:39:55.997820615
2025-11-07 13:39:53.795683,-29,2025-11-07 13:39:56.005512923
2025-11-07 13:39:53.795683,-8961,2025-11-07 13:39:56.013205231
2025-11-07 13:39:53.795683,-1,2025-11-07 13:39:56.020897538
2025-11-07 13:39:53.795683,-36,2025-11-07 13:39:56.028589846
2025-11-07 13:39:53.795683,-8193,2025-11-07 13:39:56.036282154
2025-11-07 13:39:53.795683,-1,2025-11-07 13:39:56.043974462
2025-11-07 13:39:53.795683,-36,2025-11-07 13:39:56.051666769
2025-11-07 13:39:53.795683,-10241,2025-11-07 13:39:56.059359077
2025-11-07 13:39:53.795683,-1,2025-11-07 13:39:56.067051385
2025-11-07 13:39:53.795683,-41,2025-11-07 13:39:56.074743692
2025-11-07 13:39:53.795683,-10753,2025-11-07 13:39:56.082436000
2025-11-07 13:39:53.795683,-1,2025-11-07 13:39:56.090128308
2025-11-07 13:39:53.795683,-43,2025-11-07 13:39:56.097820615
2025-11-07 13:39:53.795683,-10753,2025-11-07 13:39:56.105512923
2025-11-07 13:39:53.795683,-1,2025-11-07 13:39:56.113205231
2025-11-07 13:39:53.795683,-43,2025-11-07 13:39:56.120897538
2025-11-07 13:39:53.795683,-11521,2025-11-07 13:39:56.128589846
2025-11-07 13:39:53.795683,-1,2025-11-07 13:39:56.136282154
2025-11-07 13:39:53.795683,-50,2025-11-07 13:39:56.143974462
2025-11-07 13:39:53.795683,-13825,2025-11-07 13:39:56.151666769
2025-11-07 13:39:53.795683,-1,2025-11-07 13:39:56.159359077
2025-11-07 13:39:53.795683,-60,2025-11-07 13:39:56.167051385
2025-11-07 13:39:53.795683,-13825,2025-11-07 13:39:56.174743692
2025-11-07 13:39:53.795683,-1,2025-11-07 13:39:56.182436000
2025-11-07 13:39:53.795683,-38,2025-11-07 13:39:56.190128308
2025-11-07 13:39:53.795683,-4609,2025-11-07 13:39:56.197820615
2025-11-07 13:39:53.795683,-1,2025-11-07 13:39:56.205512923
2025-11-07 13:39:53.795683,-16,2025-11-07 13:39:56.213205231
2025-11-07 13:39:53.795683,-7169,2025-11-07 13:39:56.220897538
2025-11-07 13:39:53.795683,-1,2025-11-07 13:39:56.228589846
2025-11-07 13:39:53.795683,-36,2025-11-07 13:39:56.236282154
2025-11-07 13:39:53.795683,-9473,2025-11-07 13:39:56.243974462
2025-11-07 13:39:53.795683,-1,2025-11-07 13:39:56.251666769
2025-11-07 13:39:53.795683,-41,2025-11-07 13:39:56.259359077
2025-11-07 13:39:53.795683,-10241,2025-11-07 13:39:56.267051385
2025-11-07 13:39:53.795683,-1,2025-11-07 13:39:56.274743692
2025-11-07 13:39:53.795683,-33,2025-11-07 13:39:56.282436000
2025-11-07 13:39:53.795683,-7681,2025-11-07 13:39:56.290128308
2025-11-07 13:39:53.795683,-1,2025-11-07 13:39:56.297820615
2025-11-07 13:39:53.795683,-29,2025-11-07 13:39:56.305512923
2025-11-07 13:39:53.795683,-3841,2025-11-07 13:39:56.313205231
2025-11-07 13:39:53.795683,-1,2025-11-07 13:39:56.320897538
2025-11-07 13:39:53.795683,77,2025-11-07 13:39:56.328589846
2025-11-07 13:39:53.795683,-16384,2025-11-07 13:39:56.336282154
2025-11-07 13:39:53.795683,1,2025-11-07 13:39:56.343974462
2025-11-07 13:39:53.795683,1117,2025-11-07 13:39:56.351666769
2025-11-07 13:39:53.795683,-25856,2025-11-07 13:39:56.359359077
2025-11-07 13:39:53.795683,5,2025-11-07 13:39:56.367051385
2025-11-07 13:39:53.795683,552,2025-11-07 13:39:56.374743692
2025-11-07 13:39:53.795683,27136,2025-11-07 13:39:56.382436000
2025-11-07 13:39:53.795683,-3,2025-11-07 13:39:56.390128308
2025-11-07 13:39:53.795683,-569,2025-11-07 13:39:56.397820615
2025-11-07 13:39:53.795683,1279,2025-11-07 13:39:56.405512923
2025-11-07 13:39:53.795683,0,2025-11-07 13:39:56.413205230
2025-11-07 13:39:53.795683,-118,2025-11-07 13:39:56.420897538
2025-11-07 13:39:53.795683,9471,2025-11-07 13:39:56.428589846
2025-11-07 13:39:53.795683,-1,2025-11-07 13:39:56.436282154
2025-11-07 13:39:53.795683,-41,2025-11-07 13:39:56.443974462
2025-11-07 13:39:53.795683,-13825,2025-11-07 13:39:56.451666769
2025-11-07 13:39:53.795683,-1,2025-11-07 13:39:56.459359077
2025-11-07 13:39:53.795683,-123,2025-11-07 13:39:56.467051385
2025-11-07 13:39:53.795683,-16385,2025-11-07 13:39:56.474743692
2025-11-07 13:39:53.795683,-1,2025-11-07 13:39:56.482436000
2025-11-07 13:39:53.795683,-41,2025-11-07 13:39:56.490128308
2025-11-07 13:39:53.795683,-15105,2025-11-07 13:39:56.497820615
2025-11-07 13:39:53.795683,-1,2025-11-07 13:39:56.505512923
2025-11-07 13:39:53.795683,-38,2025-11-07 13:39:56.513205231
2025-11-07 13:39:53.795683,-2817,2025-11-07 13:39:56.520897538
2025-11-07 13:39:53.795683,-1,2025-11-07 13:39:56.528589846
2025-11-07 13:39:53.795683,-7,2025-11-07 13:39:56.536282154
2025-11-07 13:39:53.795683,-257,2025-11-07 13:39:56.543974462
2025-11-07 13:39:53.795683,-1,2025-11-07 13:39:56.551666769
2025-11-07 13:39:53.795683,9,2025-11-07 13:39:56.559359077
2025-11-07 13:39:53.795683,5376,2025-11-07 13:39:56.567051385
2025-11-07 13:39:53.795683,0,2025-11-07 13:39:56.574743692
2025-11-07 13:39:53.795683,38,2025-11-07 13:39:56.582436000
2025-11-07 13:39:54.380276,53,2025-11-07 13:39:56.590128308
2025-11-07 13:39:54.380276,17152,2025-11-07 13:39:56.597820615
2025-11-07 13:39:54.380276,0,2025-11-07 13:39:56.605512923
2025-11-07 13:39:54.380276,84,2025-11-07 13:39:56.613205231
2025-11-07 13:39:54.380276,27904,2025-11-07 13:39:56.620897538
2025-11-07 13:39:54.380276,0,2025-11-07 13:39:56.628589846
2025-11-07 13:39:54.380276,128,2025-11-07 13:39:56.636282154
2025-11-07 13:39:54.380276,-27904,2025-11-07 13:39:56.643974462
2025-11-07 13:39:54.380276,0,2025-11-07 13:39:56.651666769
2025-11-07 13:39:54.380276,155,2025-11-07 13:39:56.659359077
2025-11-07 13:39:54.380276,-23552,2025-11-07 13:39:56.667051385
2025-11-07 13:39:54.380276,0,2025-11-07 13:39:56.674743692
2025-11-07 13:39:54.380276,174,2025-11-07 13:39:56.682436000
2025-11-07 13:39:54.380276,-25856,2025-11-07 13:39:56.690128308
2025-11-07 13:39:54.380276,0,2025-11-07 13:39:56.697820615
2025-11-07 13:39:54.380276,111,2025-11-07 13:39:56.705512923
2025-11-07 13:39:54.380276,14848,2025-11-07 13:39:56.713205231
2025-11-07 13:39:54.380276,0,2025-11-07 13:39:56.720897538
2025-11-07 13:39:54.380276,0,2025-11-07 13:39:56.728589846
2025-11-07 13:39:54.380276,-12800,2025-11-07 13:39:56.736282154
2025-11-07 13:39:54.380276,-1,2025-11-07 13:39:56.743974462
2025-11-07 13:39:54.380276,-82,2025-11-07 13:39:56.751666769
2025-11-07 13:39:54.380276,-24577,2025-11-07 13:39:56.759359077
2025-11-07 13:39:54.380276,-1,2025-11-07 13:39:56.767051385
2025-11-07 13:39:54.380276,-113,2025-11-07 13:39:56.774743692
2025-11-07 13:39:54.380276,-32513,2025-11-07 13:39:56.782436000
2025-11-07 13:39:54.380276,-1,2025-11-07 13:39:56.790128308
2025-11-07 13:39:54.380276,-116,2025-11-07 13:39:56.797820615
2025-11-07 13:39:54.380276,-26881,2025-11-07 13:39:56.805512923
2025-11-07 13:39:54.380276,-1,2025-11-07 13:39:56.813205231
2025-11-07 13:39:54.380276,-121,2025-11-07 13:39:56.820897538
2025-11-07 13:39:54.380276,-30721,2025-11-07 13:39:56.828589846
2025-11-07 13:39:54.380276,-1,2025-11-07 13:39:56.836282154
2025-11-07 13:39:54.380276,-104,2025-11-07 13:39:56.843974462
2025-11-07 13:39:54.380276,-26369,2025-11-07 13:39:56.851666769
2025-11-07 13:39:54.380276,-1,2025-11-07 13:39:56.859359077
2025-11-07 13:39:54.380276,-109,2025-11-07 13:39:56.867051385
2025-11-07 13:39:54.380276,-23297,2025-11-07 13:39:56.874743692
2025-11-07 13:39:54.380276,-1,2025-11-07 13:39:56.882436000
2025-11-07 13:39:54.380276,-75,2025-11-07 13:39:56.890128308
2025-11-07 13:39:54.380276,-18177,2025-11-07 13:39:56.897820615
2025-11-07 13:39:54.380276,-1,2025-11-07 13:39:56.905512923
2025-11-07 13:39:54.380276,-67,2025-11-07 13:39:56.913205231
2025-11-07 13:39:54.380276,-13825,2025-11-07 13:39:56.920897538
2025-11-07 13:39:54.380276,-1,2025-11-07 13:39:56.928589846
2025-11-07 13:39:54.380276,-55,2025-11-07 13:39:56.936282154
2025-11-07 13:39:54.380276,-13313,2025-11-07 13:39:56.943974462
2025-11-07 13:39:54.380276,-1,2025-11-07 13:39:56.951666769
2025-11-07 13:39:54.380276,-41,2025-11-07 13:39:56.959359077
2025-11-07 13:39:54.380276,-8193,2025-11-07 13:39:56.967051385
2025-11-07 13:39:54.380276,-1,2025-11-07 13:39:56.974743692
2025-11-07 13:39:54.380276,-46,2025-11-07 13:39:56.982436000
2025-11-07 13:39:54.380276,-13825,2025-11-07 13:39:56.990128308
2025-11-07 13:39:54.380276,-1,2025-11-07 13:39:56.997820615
2025-11-07 13:39:54.380276,-48,2025-11-07 13:39:57.005512923
2025-11-07 13:39:54.380276,-12033,2025-11-07 13:39:57.013205231
2025-11-07 13:39:54.380276,-1,2025-11-07 13:39:57.020897538
2025-11-07 13:39:54.380276,-48,2025-11-07 13:39:57.028589846
2025-11-07 13:39:54.380276,-10241,2025-11-07 13:39:57.036282154
2025-11-07 13:39:54.380276,-1,2025-11-07 13:39:57.043974462
2025-11-07 13:39:54.380276,-38,2025-11-07 13:39:57.051666769
2025-11-07 13:39:54.380276,-10241,2025-11-07 13:39:57.059359077
2025-11-07 13:39:54.380276,-1,2025-11-07 13:39:57.067051385
2025-11-07 13:39:54.380276,-41,2025-11-07 13:39:57.074743692
2025-11-07 13:39:54.380276,-10241,2025-11-07 13:39:57.082436000
2025-11-07 13:39:54.380276,-1,2025-11-07 13:39:57.090128308
2025-11-07 13:39:54.380276,-41,2025-11-07 13:39:57.097820615
2025-11-07 13:39:54.380276,-9473,2025-11-07 13:39:57.105512923
2025-11-07 13:39:54.380276,-1,2025-11-07 13:39:57.113205231
2025-11-07 13:39:54.380276,-38,2025-11-07 13:39:57.120897538
2025-11-07 13:39:54.380276,-9473,2025-11-07 13:39:57.128589846
2025-11-07 13:39:54.380276,-1,2025-11-07 13:39:57.136282154
2025-11-07 13:39:54.380276,-36,2025-11-07 13:39:57.143974462
2025-11-07 13:39:54.380276,-10241,2025-11-07 13:39:57.151666769
2025-11-07 13:39:54.380276,-1,2025-11-07 13:39:57.159359077
2025-11-07 13:39:54.380276,-46,2025-11-07 13:39:57.167051385
2025-11-07 13:39:54.380276,-10753,2025-11-07 13:39:57.174743692
2025-11-07 13:39:54.380276,-1,2025-11-07 13:39:57.182436000
2025-11-07 13:39:54.380276,-38,2025-11-07 13:39:57.190128308
2025-11-07 13:39:54.380276,-5889,2025-11-07 13:39:57.197820615
2025-11-07 13:39:54.380276,-1,2025-11-07 13:39:57.205512923
2025-11-07 13:39:54.380276,-9,2025-11-07 13:39:57.213205231
2025-11-07 13:39:54.380276,-2817,2025-11-07 13:39:57.220897538
2025-11-07 13:39:54.380276,-1,2025-11-07 13:39:57.228589846
2025-11-07 13:39:54.380276,-16,2025-11-07 13:39:57.236282154
2025-11-07 13:39:54.380276,-3329,2025-11-07 13:39:57.243974462
2025-11-07 13:39:54.380276,-1,2025-11-07 13:39:57.251666769
2025-11-07 13:39:54.380276,-19,2025-11-07 13:39:57.259359077
2025-11-07 13:39:54.380276,-7169,2025-11-07 13:39:57.267051385
2025-11-07 13:39:54.380276,-1,2025-11-07 13:39:57.274743692
2025-11-07 13:39:54.380276,-29,2025-11-07 13:39:57.282436000
2025-11-07 13:39:54.380276,-4609,2025-11-07 13:39:57.290128308
2025-11-07 13:39:54.380276,-1,2025-11-07 13:39:57.297820615
2025-11-07 13:39:54.380276,-19,2025-11-07 13:39:57.305512923
2025-11-07 13:39:54.380276,-4609,2025-11-07 13:39:57.313205231
2025-11-07 13:39:54.380276,-1,2025-11-07 13:39:57.320897538
2025-11-07 13:39:54.380276,9,2025-11-07 13:39:57.328589846
2025-11-07 13:39:54.380276,-17152,2025-11-07 13:39:57.336282154
2025-11-07 13:39:54.380276,0,2025-11-07 13:39:57.343974462
2025-11-07 13:39:54.380276,681,2025-11-07 13:39:57.351666769
2025-11-07 13:39:54.380276,6912,2025-11-07 13:39:57.359359077
2025-11-07 13:39:54.380276,5,2025-11-07 13:39:57.367051385
2025-11-07 13:39:54.380276,1190,2025-11-07 13:39:57.374743692
2025-11-07 13:39:54.380276,-8448,2025-11-07 13:39:57.382436000
2025-11-07 13:39:54.380276,-1,2025-11-07 13:39:57.390128308
2025-11-07 13:39:54.380276,-778,2025-11-07 13:39:57.397820615
2025-11-07 13:39:54.380276,1279,2025-11-07 13:39:57.405512923
2025-11-07 13:39:54.380276,-1,2025-11-07 13:39:57.413205230
2025-11-07 13:39:54.380276,33,2025-11-07 13:39:57.420897538
2025-11-07 13:39:54.965142,-215,2025-11-07 13:39:57.428589846
2025-11-07 13:39:54.965142,28671,2025-11-07 13:39:57.436282154
2025-11-07 13:39:54.965142,-1,2025-11-07 13:39:57.443974462
2025-11-07 13:39:54.965142,-14,2025-11-07 13:39:57.451666769
2025-11-07 13:39:54.965142,-23809,2025-11-07 13:39:57.459359077
2025-11-07 13:39:54.965142,-1,2025-11-07 13:39:57.467051385
2025-11-07 13:39:54.965142,-97,2025-11-07 13:39:57.474743692
2025-11-07 13:39:54.965142,-8961,2025-11-07 13:39:57.482436000
2025-11-07 13:39:54.965142,-1,2025-11-07 13:39:57.490128308
2025-11-07 13:39:54.965142,-50,2025-11-07 13:39:57.497820615
2025-11-07 13:39:54.965142,-14593,2025-11-07 13:39:57.505512923
2025-11-07 13:39:54.965142,-1,2025-11-07 13:39:57.513205231
2025-11-07 13:39:54.965142,-29,2025-11-07 13:39:57.520897538
2025-11-07 13:39:54.965142,-4609,2025-11-07 13:39:57.528589846
2025-11-07 13:39:54.965142,-1,2025-11-07 13:39:57.536282154
2025-11-07 13:39:54.965142,-12,2025-11-07 13:39:57.543974462
2025-11-07 13:39:54.965142,4351,2025-11-07 13:39:57.551666769
2025-11-07 13:39:54.965142,0,2025-11-07 13:39:57.559359077
2025-11-07 13:39:54.965142,33,2025-11-07 13:39:57.567051385
2025-11-07 13:39:54.965142,8448,2025-11-07 13:39:57.574743692
2025-11-07 13:39:54.965142,0,2025-11-07 13:39:57.582436000
2025-11-07 13:39:54.965142,43,2025-11-07 13:39:57.590128308
2025-11-07 13:39:54.965142,16128,2025-11-07 13:39:57.597820615
2025-11-07 13:39:54.965142,0,2025-11-07 13:39:57.605512923
2025-11-07 13:39:54.965142,84,2025-11-07 13:39:57.613205231
2025-11-07 13:39:54.965142,26624,2025-11-07 13:39:57.620897538
2025-11-07 13:39:54.965142,0,2025-11-07 13:39:57.628589846
2025-11-07 13:39:54.965142,121,2025-11-07 13:39:57.636282154
2025-11-07 13:39:54.965142,-29696,2025-11-07 13:39:57.643974462
2025-11-07 13:39:54.965142,0,2025-11-07 13:39:57.651666769
2025-11-07 13:39:54.965142,160,2025-11-07 13:39:57.659359077
2025-11-07 13:39:54.965142,-22272,2025-11-07 13:39:57.667051385
2025-11-07 13:39:54.965142,0,2025-11-07 13:39:57.674743692
2025-11-07 13:39:54.965142,167,2025-11-07 13:39:57.682436000
2025-11-07 13:39:54.965142,-24576,2025-11-07 13:39:57.690128308
2025-11-07 13:39:54.965142,0,2025-11-07 13:39:57.697820615
2025-11-07 13:39:54.965142,138,2025-11-07 13:39:57.705512923
2025-11-07 13:39:54.965142,24832,2025-11-07 13:39:57.713205231
2025-11-07 13:39:54.965142,0,2025-11-07 13:39:57.720897538
2025-11-07 13:39:54.965142,43,2025-11-07 13:39:57.728589846
2025-11-07 13:39:54.965142,-3072,2025-11-07 13:39:57.736282154
2025-11-07 13:39:54.965142,-1,2025-11-07 13:39:57.743974462
2025-11-07 13:39:54.965142,-58,2025-11-07 13:39:57.751666769
2025-11-07 13:39:54.965142,-21249,2025-11-07 13:39:57.759359077
2025-11-07 13:39:54.965142,-1,2025-11-07 13:39:57.767051385
2025-11-07 13:39:54.965142,-101,2025-11-07 13:39:57.774743692
2025-11-07 13:39:54.965142,-28161,2025-11-07 13:39:57.782436000
2025-11-07 13:39:54.965142,-1,2025-11-07 13:39:57.790128308
2025-11-07 13:39:54.965142,-111,2025-11-07 13:39:57.797820615
2025-11-07 13:39:54.965142,-27649,2025-11-07 13:39:57.805512923
2025-11-07 13:39:54.965142,-1,2025-11-07 13:39:57.813205231
2025-11-07 13:39:54.965142,-104,2025-11-07 13:39:57.820897538
2025-11-07 13:39:54.965142,-25601,2025-11-07 13:39:57.828589846
2025-11-07 13:39:54.965142,-1,2025-11-07 13:39:57.836282154
2025-11-07 13:39:54.965142,-97,2025-11-07 13:39:57.843974462
2025-11-07 13:39:54.965142,-23809,2025-11-07 13:39:57.851666769
2025-11-07 13:39:54.965142,-1,2025-11-07 13:39:57.859359077
2025-11-07 13:39:54.965142,-92,2025-11-07 13:39:57.867051385
2025-11-07 13:39:54.965142,-22017,2025-11-07 13:39:57.874743692
2025-11-07 13:39:54.965142,-1,2025-11-07 13:39:57.882436000
2025-11-07 13:39:54.965142,-82,2025-11-07 13:39:57.890128308
2025-11-07 13:39:54.965142,-18945,2025-11-07 13:39:57.897820615
2025-11-07 13:39:54.965142,-1,2025-11-07 13:39:57.905512923
2025-11-07 13:39:54.965142,-70,2025-11-07 13:39:57.913205231
2025-11-07 13:39:54.965142,-16385,2025-11-07 13:39:57.920897538
2025-11-07 13:39:54.965142,-1,2025-11-07 13:39:57.928589846
2025-11-07 13:39:54.965142,-53,2025-11-07 13:39:57.936282154
2025-11-07 13:39:54.965142,-11521,2025-11-07 13:39:57.943974462
2025-11-07 13:39:54.965142,-1,2025-11-07 13:39:57.951666769
2025-11-07 13:39:54.965142,-43,2025-11-07 13:39:57.959359077
2025-11-07 13:39:54.965142,-10241,2025-11-07 13:39:57.967051385
2025-11-07 13:39:54.965142,-1,2025-11-07 13:39:57.974743692
2025-11-07 13:39:54.965142,-36,2025-11-07 13:39:57.982436000
2025-11-07 13:39:54.965142,-8961,2025-11-07 13:39:57.990128308
2025-11-07 13:39:54.965142,-1,2025-11-07 13:39:57.997820615
2025-11-07 13:39:54.965142,-38,2025-11-07 13:39:58.005512923
2025-11-07 13:39:54.965142,-9473,2025-11-07 13:39:58.013205231
2025-11-07 13:39:54.965142,-1,2025-11-07 13:39:58.020897538
2025-11-07 13:39:54.965142,-41,2025-11-07 13:39:58.028589846
2025-11-07 13:39:54.965142,-10241,2025-11-07 13:39:58.036282154
2025-11-07 13:39:54.965142,-1,2025-11-07 13:39:58.043974462
2025-11-07 13:39:54.965142,-41,2025-11-07 13:39:58.051666769
2025-11-07 13:39:54.965142,-10241,2025-11-07 13:39:58.059359077
2025-11-07 13:39:54.965142,-1,2025-11-07 13:39:58.067051385
2025-11-07 13:39:54.965142,-43,2025-11-07 13:39:58.074743692
2025-11-07 13:39:54.965142,-10753,2025-11-07 13:39:58.082436000
2025-11-07 13:39:54.965142,-1,2025-11-07 13:39:58.090128308
2025-11-07 13:39:54.965142,-38,2025-11-07 13:39:58.097820615
2025-11-07 13:39:54.965142,-8961,2025-11-07 13:39:58.105512923
2025-11-07 13:39:54.965142,-1,2025-11-07 13:39:58.113205231
2025-11-07 13:39:54.965142,-36,2025-11-07 13:39:58.120897538
2025-11-07 13:39:54.965142,-10241,2025-11-07 13:39:58.128589846
2025-11-07 13:39:54.965142,-1,2025-11-07 13:39:58.136282154
2025-11-07 13:39:54.965142,-41,2025-11-07 13:39:58.143974462
2025-11-07 13:39:54.965142,-8193,2025-11-07 13:39:58.151666769
2025-11-07 13:39:54.965142,-1,2025-11-07 13:39:58.159359077
2025-11-07 13:39:54.965142,-31,2025-11-07 13:39:58.167051385
2025-11-07 13:39:54.965142,-8193,2025-11-07 13:39:58.174743692
2025-11-07 13:39:54.965142,-1,2025-11-07 13:39:58.182436000
2025-11-07 13:39:54.965142,-36,2025-11-07 13:39:58.190128308
2025-11-07 13:39:54.965142,-8961,2025-11-07 13:39:58.197820615
2025-11-07 13:39:54.965142,-1,2025-11-07 13:39:58.205512923
2025-11-07 13:39:54.965142,-41,2025-11-07 13:39:58.213205231
2025-11-07 13:39:54.965142,-12033,2025-11-07 13:39:58.220897538
2025-11-07 13:39:54.965142,-1,2025-11-07 13:39:58.228589846
2025-11-07 13:39:54.965142,-41,2025-11-07 13:39:58.236282154
2025-11-07 13:39:54.965142,-4609,2025-11-07 13:39:58.243974462
2025-11-07 13:39:54.965142,-1,2025-11-07 13:39:58.251666769
2025-11-07 13:39:54.965142,0,2025-11-07 13:39:58.259359077
2025-11-07 13:39:55.460602,0,2025-11-07 13:39:58.267051385
2025-11-07 13:39:55.460602,-5376,2025-11-07 13:39:58.274743692
2025-11-07 13:39:55.460602,-1,2025-11-07 13:39:58.282436000
2025-11-07 13:39:55.460602,-33,2025-11-07 13:39:58.290128308
2025-11-07 13:39:55.460602,-6401,2025-11-07 13:39:58.297820615
2025-11-07 13:39:55.460602,-1,2025-11-07 13:39:58.305512923
2025-11-07 13:39:55.460602,-33,2025-11-07 13:39:58.313205231
2025-11-07 13:39:55.460602,-9473,2025-11-07 13:39:58.320897538
2025-11-07 13:39:55.460602,-1,2025-11-07 13:39:58.328589846
2025-11-07 13:39:55.460602,-16,2025-11-07 13:39:58.336282154
2025-11-07 13:39:55.460602,-1537,2025-11-07 13:39:58.343974462
2025-11-07 13:39:55.460602,-1,2025-11-07 13:39:58.351666769
2025-11-07 13:39:55.460602,-19,2025-11-07 13:39:58.359359077
2025-11-07 13:39:55.460602,-3329,2025-11-07 13:39:58.367051385
2025-11-07 13:39:55.460602,-1,2025-11-07 13:39:58.374743692
2025-11-07 13:39:55.460602,128,2025-11-07 13:39:58.382436000
2025-11-07 13:39:55.460602,14592,2025-11-07 13:39:58.390128308
2025-11-07 13:39:55.460602,2,2025-11-07 13:39:58.397820615
2025-11-07 13:39:55.460602,1222,2025-11-07 13:39:58.405512923
2025-11-07 13:39:55.460602,13568,2025-11-07 13:39:58.413205230
2025-11-07 13:39:55.460602,5,2025-11-07 13:39:58.420897538
2025-11-07 13:39:55.460602,276,2025-11-07 13:39:58.428589846
2025-11-07 13:39:55.460602,22272,2025-11-07 13:39:58.436282154
2025-11-07 13:39:55.460602,-3,2025-11-07 13:39:58.443974462
2025-11-07 13:39:55.460602,-344,2025-11-07 13:39:58.451666769
2025-11-07 13:39:55.460602,12543,2025-11-07 13:39:58.459359077
2025-11-07 13:39:55.460602,0,2025-11-07 13:39:58.467051385
2025-11-07 13:39:55.460602,-169,2025-11-07 13:39:58.474743692
2025-11-07 13:39:55.460602,23039,2025-11-07 13:39:58.482436000
2025-11-07 13:39:55.460602,-1,2025-11-07 13:39:58.490128308
2025-11-07 13:39:55.460602,-14,2025-11-07 13:39:58.497820615
2025-11-07 13:39:55.460602,-16897,2025-11-07 13:39:58.505512923
2025-11-07 13:39:55.460602,-1,2025-11-07 13:39:58.513205231
2025-11-07 13:39:55.460602,-94,2025-11-07 13:39:58.520897538
2025-11-07 13:39:55.460602,-7681,2025-11-07 13:39:58.528589846
2025-11-07 13:39:55.460602,-1,2025-11-07 13:39:58.536282154
2025-11-07 13:39:55.460602,-33,2025-11-07 13:39:58.543974462
2025-11-07 13:39:55.460602,-13313,2025-11-07 13:39:58.551666769
2025-11-07 13:39:55.460602,-1,2025-11-07 13:39:58.559359077
2025-11-07 13:39:55.460602,-26,2025-11-07 13:39:58.567051385
2025-11-07 13:39:55.460602,-2817,2025-11-07 13:39:58.574743692
2025-11-07 13:39:55.460602,-1,2025-11-07 13:39:58.582436000
2025-11-07 13:39:55.460602,-16,2025-11-07 13:39:58.590128308
2025-11-07 13:39:55.460602,-257,2025-11-07 13:39:58.597820615
2025-11-07 13:39:55.460602,-1,2025-11-07 13:39:58.605512923
2025-11-07 13:39:55.460602,16,2025-11-07 13:39:58.613205231
2025-11-07 13:39:55.460602,3584,2025-11-07 13:39:58.620897538
2025-11-07 13:39:55.460602,0,2025-11-07 13:39:58.628589846
2025-11-07 13:39:55.460602,21,2025-11-07 13:39:58.636282154
2025-11-07 13:39:55.460602,13568,2025-11-07 13:39:58.643974462
2025-11-07 13:39:55.460602,0,2025-11-07 13:39:58.651666769
2025-11-07 13:39:55.460602,72,2025-11-07 13:39:58.659359077
2025-11-07 13:39:55.460602,18432,2025-11-07 13:39:58.667051385
2025-11-07 13:39:55.460602,0,2025-11-07 13:39:58.674743692
2025-11-07 13:39:55.460602,92,2025-11-07 13:39:58.682436000
2025-11-07 13:39:55.460602,30976,2025-11-07 13:39:58.690128308
2025-11-07 13:39:55.460602,0,2025-11-07 13:39:58.697820615
2025-11-07 13:39:55.460602,135,2025-11-07 13:39:58.705512923
2025-11-07 13:39:55.460602,-28928,2025-11-07 13:39:58.713205231
2025-11-07 13:39:55.460602,0,2025-11-07 13:39:58.720897538
2025-11-07 13:39:55.460602,145,2025-11-07 13:39:58.728589846
2025-11-07 13:39:55.460602,-30976,2025-11-07 13:39:58.736282154
2025-11-07 13:39:55.460602,0,2025-11-07 13:39:58.743974462
2025-11-07 13:39:55.460602,128,2025-11-07 13:39:58.751666769
2025-11-07 13:39:55.460602,27904,2025-11-07 13:39:58.759359077
2025-11-07 13:39:55.460602,0,2025-11-07 13:39:58.767051385
2025-11-07 13:39:55.460602,58,2025-11-07 13:39:58.774743692
2025-11-07 13:39:55.460602,-1024,2025-11-07 13:39:58.782436000
2025-11-07 13:39:55.460602,-1,2025-11-07 13:39:58.790128308
2025-11-07 13:39:55.460602,-50,2025-11-07 13:39:58.797820615
2025-11-07 13:39:55.460602,-21249,2025-11-07 13:39:58.805512923
2025-11-07 13:39:55.460602,-1,2025-11-07 13:39:58.813205231
2025-11-07 13:39:55.460602,-104,2025-11-07 13:39:58.820897538
2025-11-07 13:39:55.460602,-28161,2025-11-07 13:39:58.828589846
2025-11-07 13:39:55.460602,-1,2025-11-07 13:39:58.836282154
2025-11-07 13:39:55.460602,-113,2025-11-07 13:39:58.843974462
2025-11-07 13:39:55.460602,-29441,2025-11-07 13:39:58.851666769
2025-11-07 13:39:55.460602,-1,2025-11-07 13:39:58.859359077
2025-11-07 13:39:55.460602,-111,2025-11-07 13:39:58.867051385
2025-11-07 13:39:55.460602,-27649,2025-11-07 13:39:58.874743692
2025-11-07 13:39:55.460602,-1,2025-11-07 13:39:58.882436000
2025-11-07 13:39:55.460602,-104,2025-11-07 13:39:58.890128308
2025-11-07 13:39:55.460602,-25601,2025-11-07 13:39:58.897820615
2025-11-07 13:39:55.460602,-1,2025-11-07 13:39:58.905512923
2025-11-07 13:39:55.460602,-104,2025-11-07 13:39:58.913205231
2025-11-07 13:39:55.460602,-24577,2025-11-07 13:39:58.920897538
2025-11-07 13:39:55.460602,-1,2025-11-07 13:39:58.928589846
2025-11-07 13:39:55.460602,-89,2025-11-07 13:39:58.936282154
2025-11-07 13:39:55.460602,-22017,2025-11-07 13:39:58.943974462
2025-11-07 13:39:55.460602,-1,2025-11-07 13:39:58.951666769
2025-11-07 13:39:55.460602,-77,2025-11-07 13:39:58.959359077
2025-11-07 13:39:55.460602,-18177,2025-11-07 13:39:58.967051385
2025-11-07 13:39:55.460602,-1,2025-11-07 13:39:58.974743692
2025-11-07 13:39:55.460602,-72,2025-11-07 13:39:58.982436000
2025-11-07 13:39:55.460602,-15873,2025-11-07 13:39:58.990128308
2025-11-07 13:39:55.460602,-1,2025-11-07 13:39:58.997820615
2025-11-07 13:39:55.460602,-53,2025-11-07 13:39:59.005512923
2025-11-07 13:39:55.460602,-14593,2025-11-07 13:39:59.013205231
2025-11-07 13:39:55.460602,-1,2025-11-07 13:39:59.020897538
2025-11-07 13:39:55.460602,-63,2025-11-07 13:39:59.028589846
2025-11-07 13:39:55.460602,-12033,2025-11-07 13:39:59.036282154
2025-11-07 13:39:55.460602,-1,2025-11-07 13:39:59.043974462
2025-11-07 13:39:55.460602,-43,2025-11-07 13:39:59.051666769
2025-11-07 13:39:55.460602,-10753,2025-11-07 13:39:59.059359077
2025-11-07 13:39:55.460602,-1,2025-11-07 13:39:59.067051385
2025-11-07 13:39:55.460602,-38,2025-11-07 13:39:59.074743692
2025-11-07 13:39:55.460602,-9473,2025-11-07 13:39:59.082436000
2025-11-07 13:39:55.460602,-1,2025-11-07 13:39:59.090128308
2025-11-07 13:39:55.460602,-38,2025-11-07 13:39:59.097820615
2025-11-07 13:39:56.047830,-33,2025-11-07 13:39:59.105512923
2025-11-07 13:39:56.047830,-8193,2025-11-07 13:39:59.113205231
2025-11-07 13:39:56.047830,-1,2025-11-07 13:39:59.120897538
2025-11-07 13:39:56.047830,-41,2025-11-07 13:39:59.128589846
2025-11-07 13:39:56.047830,-9473,2025-11-07 13:39:59.136282154
2025-11-07 13:39:56.047830,-1,2025-11-07 13:39:59.143974462
2025-11-07 13:39:56.047830,-33,2025-11-07 13:39:59.151666769
2025-11-07 13:39:56.047830,-7169,2025-11-07 13:39:59.159359077
2025-11-07 13:39:56.047830,-1,2025-11-07 13:39:59.167051385
2025-11-07 13:39:56.047830,-21,2025-11-07 13:39:59.174743692
2025-11-07 13:39:56.047830,-5889,2025-11-07 13:39:59.182436000
2025-11-07 13:39:56.047830,-1,2025-11-07 13:39:59.190128308
2025-11-07 13:39:56.047830,-29,2025-11-07 13:39:59.197820615
2025-11-07 13:39:56.047830,-6401,2025-11-07 13:39:59.205512923
2025-11-07 13:39:56.047830,-1,2025-11-07 13:39:59.213205231
2025-11-07 13:39:56.047830,-21,2025-11-07 13:39:59.220897538
2025-11-07 13:39:56.047830,-5121,2025-11-07 13:39:59.228589846
2025-11-07 13:39:56.047830,-1,2025-11-07 13:39:59.236282154
2025-11-07 13:39:56.047830,-24,2025-11-07 13:39:59.243974462
2025-11-07 13:39:56.047830,-4609,2025-11-07 13:39:59.251666769
2025-11-07 13:39:56.047830,-1,2025-11-07 13:39:59.259359077
2025-11-07 13:39:56.047830,-19,2025-11-07 13:39:59.267051385
2025-11-07 13:39:56.047830,-7681,2025-11-07 13:39:59.274743692
2025-11-07 13:39:56.047830,-1,2025-11-07 13:39:59.282436000
2025-11-07 13:39:56.047830,-33,2025-11-07 13:39:59.290128308
2025-11-07 13:39:56.047830,-7681,2025-11-07 13:39:59.297820615
2025-11-07 13:39:56.047830,-1,2025-11-07 13:39:59.305512923
2025-11-07 13:39:56.047830,-21,2025-11-07 13:39:59.313205231
2025-11-07 13:39:56.047830,-769,2025-11-07 13:39:59.320897538
2025-11-07 13:39:56.047830,-1,2025-11-07 13:39:59.328589846
2025-11-07 13:39:56.047830,9,2025-11-07 13:39:59.336282154
2025-11-07 13:39:56.047830,0,2025-11-07 13:39:59.343974462
2025-11-07 13:39:56.047830,0,2025-11-07 13:39:59.351666769
2025-11-07 13:39:56.047830,-14,2025-11-07 13:39:59.359359077
2025-11-07 13:39:56.047830,-6401,2025-11-07 13:39:59.367051385
2025-11-07 13:39:56.047830,-1,2025-11-07 13:39:59.374743692
2025-11-07 13:39:56.047830,-33,2025-11-07 13:39:59.382436000
2025-11-07 13:39:56.047830,-9473,2025-11-07 13:39:59.390128308
2025-11-07 13:39:56.047830,-1,2025-11-07 13:39:59.397820615
2025-11-07 13:39:56.047830,-26,2025-11-07 13:39:59.405512923
2025-11-07 13:39:56.047830,-3329,2025-11-07 13:39:59.413205230
2025-11-07 13:39:56.047830,-1,2025-11-07 13:39:59.420897538
2025-11-07 13:39:56.047830,-21,2025-11-07 13:39:59.428589846
2025-11-07 13:39:56.047830,-5121,2025-11-07 13:39:59.436282154
2025-11-07 13:39:56.047830,-1,2025-11-07 13:39:59.443974462
2025-11-07 13:39:56.047830,36,2025-11-07 13:39:59.451666769
2025-11-07 13:39:56.047830,10752,2025-11-07 13:39:59.459359077
2025-11-07 13:39:56.047830,1,2025-11-07 13:39:59.467051385
2025-11-07 13:39:56.047830,865,2025-11-07 13:39:59.474743692
2025-11-07 13:39:56.047830,23040,2025-11-07 13:39:59.482436000
2025-11-07 13:39:56.047830,5,2025-11-07 13:39:59.490128308
2025-11-07 13:39:56.047830,906,2025-11-07 13:39:59.497820615
2025-11-07 13:39:56.047830,-22528,2025-11-07 13:39:59.505512923
2025-11-07 13:39:56.047830,-2,2025-11-07 13:39:59.513205231
2025-11-07 13:39:56.047830,-659,2025-11-07 13:39:59.520897538
2025-11-07 13:39:56.047830,-20225,2025-11-07 13:39:59.528589846
2025-11-07 13:39:56.047830,-1,2025-11-07 13:39:59.536282154
2025-11-07 13:39:56.047830,-38,2025-11-07 13:39:59.543974462
2025-11-07 13:39:56.047830,5631,2025-11-07 13:39:59.551666769
2025-11-07 13:39:56.047830,-1,2025-11-07 13:39:59.559359077
2025-11-07 13:39:56.047830,-89,2025-11-07 13:39:59.567051385
2025-11-07 13:39:56.047830,-8961,2025-11-07 13:39:59.574743692
2025-11-07 13:39:56.047830,-1,2025-11-07 13:39:59.582436000
2025-11-07 13:39:56.047830,-118,2025-11-07 13:39:59.590128308
2025-11-07 13:39:56.047830,-21249,2025-11-07 13:39:59.597820615
2025-11-07 13:39:56.047830,-1,2025-11-07 13:39:59.605512923
2025-11-07 13:39:56.047830,-38,2025-11-07 13:39:59.613205231
2025-11-07 13:39:56.047830,-14593,2025-11-07 13:39:59.620897538
2025-11-07 13:39:56.047830,-1,2025-11-07 13:39:59.628589846
2025-11-07 13:39:56.047830,-58,2025-11-07 13:39:59.636282154
2025-11-07 13:39:56.047830,-11521,2025-11-07 13:39:59.643974462
2025-11-07 13:39:56.047830,-1,2025-11-07 13:39:59.651666769
2025-11-07 13:39:56.047830,-38,2025-11-07 13:39:59.659359077
2025-11-07 13:39:56.047830,-5889,2025-11-07 13:39:59.667051385
2025-11-07 13:39:56.047830,-1,2025-11-07 13:39:59.674743692
2025-11-07 13:39:56.047830,-14,2025-11-07 13:39:59.682436000
2025-11-07 13:39:56.047830,-2049,2025-11-07 13:39:59.690128308
2025-11-07 13:39:56.047830,-1,2025-11-07 13:39:59.697820615
2025-11-07 13:39:56.047830,9,2025-11-07 13:39:59.705512923
2025-11-07 13:39:56.047830,7936,2025-11-07 13:39:59.713205231
2025-11-07 13:39:56.047830,0,2025-11-07 13:39:59.720897538
2025-11-07 13:39:56.047830,41,2025-11-07 13:39:59.728589846
2025-11-07 13:39:56.047830,12288,2025-11-07 13:39:59.736282154
2025-11-07 13:39:56.047830,0,2025-11-07 13:39:59.743974462
2025-11-07 13:39:56.047830,70,2025-11-07 13:39:59.751666769
2025-11-07 13:39:56.047830,23552,2025-11-07 13:39:59.759359077
2025-11-07 13:39:56.047830,0,2025-11-07 13:39:59.767051385
2025-11-07 13:39:56.047830,104,2025-11-07 13:39:59.774743692
2025-11-07 13:39:56.047830,30208,2025-11-07 13:39:59.782436000
2025-11-07 13:39:56.047830,0,2025-11-07 13:39:59.790128308
2025-11-07 13:39:56.047830,126,2025-11-07 13:39:59.797820615
2025-11-07 13:39:56.047830,30208,2025-11-07 13:39:59.805512923
2025-11-07 13:39:56.047830,0,2025-11-07 13:39:59.813205231
2025-11-07 13:39:56.047830,111,2025-11-07 13:39:59.820897538
2025-11-07 13:39:56.047830,26624,2025-11-07 13:39:59.828589846
2025-11-07 13:39:56.047830,0,2025-11-07 13:39:59.836282154
2025-11-07 13:39:56.047830,82,2025-11-07 13:39:59.843974462
2025-11-07 13:39:56.047830,10496,2025-11-07 13:39:59.851666769
2025-11-07 13:39:56.047830,0,2025-11-07 13:39:59.859359077
2025-11-07 13:39:56.047830,-12,2025-11-07 13:39:59.867051385
2025-11-07 13:39:56.047830,-14593,2025-11-07 13:39:59.874743692
2025-11-07 13:39:56.047830,-1,2025-11-07 13:39:59.882436000
2025-11-07 13:39:56.047830,-82,2025-11-07 13:39:59.890128308
2025-11-07 13:39:56.047830,-22529,2025-11-07 13:39:59.897820615
2025-11-07 13:39:56.047830,-1,2025-11-07 13:39:59.905512923
2025-11-07 13:39:56.047830,-101,2025-11-07 13:39:59.913205231
2025-11-07 13:39:56.047830,-27649,2025-11-07 13:39:59.920897538
2025-11-07 13:39:56.047830,-1,2025-11-07 13:39:59.928589846
2025-11-07 13:39:56.047830,-104,2025-11-07 13:39:59.936282154
2025-11-07 13:39:56.633384,-99,2025-11-07 13:39:59.943974462
2025-11-07 13:39:56.633384,-25089,2025-11-07 13:39:59.951666769
2025-11-07 13:39:56.633384,-1,2025-11-07 13:39:59.959359077
2025-11-07 13:39:56.633384,-94,2025-11-07 13:39:59.967051385
2025-11-07 13:39:56.633384,-21249,2025-11-07 13:39:59.974743692
2025-11-07 13:39:56.633384,-1,2025-11-07 13:39:59.982436000
2025-11-07 13:39:56.633384,-80,2025-11-07 13:39:59.990128308
2025-11-07 13:39:56.633384,-19457,2025-11-07 13:39:59.997820615
2025-11-07 13:39:56.633384,-1,2025-11-07 13:40:00.005512923
2025-11-07 13:39:56.633384,-70,2025-11-07 13:40:00.013205231
2025-11-07 13:39:56.633384,-15873,2025-11-07 13:40:00.020897538
2025-11-07 13:39:56.633384,-1,2025-11-07 13:40:00.028589846
2025-11-07 13:39:56.633384,-48,2025-11-07 13:40:00.036282154
2025-11-07 13:39:56.633384,-7681,2025-11-07 13:40:00.043974462
2025-11-07 13:39:56.633384,-1,2025-11-07 13:40:00.051666769
2025-11-07 13:39:56.633384,-31,2025-11-07 13:40:00.059359077
2025-11-07 13:39:56.633384,-10241,2025-11-07 13:40:00.067051385
2025-11-07 13:39:56.633384,-1,2025-11-07 13:40:00.074743692
2025-11-07 13:39:56.633384,-38,2025-11-07 13:40:00.082436000
2025-11-07 13:39:56.633384,-9473,2025-11-07 13:40:00.090128308
2025-11-07 13:39:56.633384,-1,2025-11-07 13:40:00.097820615
2025-11-07 13:39:56.633384,-38,2025-11-07 13:40:00.105512923
2025-11-07 13:39:56.633384,-8193,2025-11-07 13:40:00.113205231
2025-11-07 13:39:56.633384,-1,2025-11-07 13:40:00.120897538
2025-11-07 13:39:56.633384,-31,2025-11-07 13:40:00.128589846
2025-11-07 13:39:56.633384,-7681,2025-11-07 13:40:00.136282154
2025-11-07 13:39:56.633384,-1,2025-11-07 13:40:00.143974462
2025-11-07 13:39:56.633384,-38,2025-11-07 13:40:00.151666769
2025-11-07 13:39:56.633384,-12545,2025-11-07 13:40:00.159359077
2025-11-07 13:39:56.633384,-1,2025-11-07 13:40:00.167051385
2025-11-07 13:39:56.633384,-43,2025-11-07 13:40:00.174743692
2025-11-07 13:39:56.633384,-8193,2025-11-07 13:40:00.182436000
2025-11-07 13:39:56.633384,-1,2025-11-07 13:40:00.190128308
2025-11-07 13:39:56.633384,-38,2025-11-07 13:40:00.197820615
2025-11-07 13:39:56.633384,-10241,2025-11-07 13:40:00.205512923
2025-11-07 13:39:56.633384,-1,2025-11-07 13:40:00.213205231
2025-11-07 13:39:56.633384,-36,2025-11-07 13:40:00.220897538
2025-11-07 13:39:56.633384,-7681,2025-11-07 13:40:00.228589846
2025-11-07 13:39:56.633384,-1,2025-11-07 13:40:00.236282154
2025-11-07 13:39:56.633384,-36,2025-11-07 13:40:00.243974462
2025-11-07 13:39:56.633384,-9473,2025-11-07 13:40:00.251666769
2025-11-07 13:39:56.633384,-1,2025-11-07 13:40:00.259359077
2025-11-07 13:39:56.633384,-33,2025-11-07 13:40:00.267051385
2025-11-07 13:39:56.633384,-8193,2025-11-07 13:40:00.274743692
2025-11-07 13:39:56.633384,-1,2025-11-07 13:40:00.282436000
2025-11-07 13:39:56.633384,-41,2025-11-07 13:40:00.290128308
2025-11-07 13:39:56.633384,-10241,2025-11-07 13:40:00.297820615
2025-11-07 13:39:56.633384,-1,2025-11-07 13:40:00.305512923
2025-11-07 13:39:56.633384,-36,2025-11-07 13:40:00.313205231
2025-11-07 13:39:56.633384,-7681,2025-11-07 13:40:00.320897538
2025-11-07 13:39:56.633384,-1,2025-11-07 13:40:00.328589846
2025-11-07 13:39:56.633384,-14,2025-11-07 13:40:00.336282154
2025-11-07 13:39:56.633384,-257,2025-11-07 13:40:00.343974462
2025-11-07 13:39:56.633384,-1,2025-11-07 13:40:00.351666769
2025-11-07 13:39:56.633384,-12,2025-11-07 13:40:00.359359077
2025-11-07 13:39:56.633384,-6401,2025-11-07 13:40:00.367051385
2025-11-07 13:39:56.633384,-1,2025-11-07 13:40:00.374743692
2025-11-07 13:39:56.633384,-29,2025-11-07 13:40:00.382436000
2025-11-07 13:39:56.633384,-7169,2025-11-07 13:40:00.390128308
2025-11-07 13:39:56.633384,-1,2025-11-07 13:40:00.397820615
2025-11-07 13:39:56.633384,-36,2025-11-07 13:40:00.405512923
2025-11-07 13:39:56.633384,-8193,2025-11-07 13:40:00.413205230
2025-11-07 13:39:56.633384,-1,2025-11-07 13:40:00.420897538
2025-11-07 13:39:56.633384,-26,2025-11-07 13:40:00.428589846
2025-11-07 13:39:56.633384,-7169,2025-11-07 13:40:00.436282154
2025-11-07 13:39:56.633384,-1,2025-11-07 13:40:00.443974462
2025-11-07 13:39:56.633384,-26,2025-11-07 13:40:00.451666769
2025-11-07 13:39:56.633384,8191,2025-11-07 13:40:00.459359077
2025-11-07 13:39:56.633384,0,2025-11-07 13:40:00.467051385
2025-11-07 13:39:56.633384,303,2025-11-07 13:40:00.474743692
2025-11-07 13:39:56.633384,24320,2025-11-07 13:40:00.482436000
2025-11-07 13:39:56.633384,3,2025-11-07 13:40:00.490128308
2025-11-07 13:39:56.633384,1316,2025-11-07 13:40:00.497820615
2025-11-07 13:39:56.633384,6912,2025-11-07 13:40:00.505512923
2025-11-07 13:39:56.633384,3,2025-11-07 13:40:00.513205231
2025-11-07 13:39:56.633384,-417,2025-11-07 13:40:00.520897538
2025-11-07 13:39:56.633384,31743,2025-11-07 13:40:00.528589846
2025-11-07 13:39:56.633384,-3,2025-11-07 13:40:00.536282154
2025-11-07 13:39:56.633384,-65,2025-11-07 13:40:00.543974462
2025-11-07 13:39:56.633384,-12545,2025-11-07 13:40:00.551666769
2025-11-07 13:39:56.633384,-1,2025-11-07 13:40:00.559359077
2025-11-07 13:39:56.633384,-223,2025-11-07 13:40:00.567051385
2025-11-07 13:39:56.633384,-18177,2025-11-07 13:40:00.574743692
2025-11-07 13:39:56.633384,-1,2025-11-07 13:40:00.582436000
2025-11-07 13:39:56.633384,-29,2025-11-07 13:40:00.590128308
2025-11-07 13:39:56.633384,-26881,2025-11-07 13:40:00.597820615
2025-11-07 13:39:56.633384,-1,2025-11-07 13:40:00.605512923
2025-11-07 13:39:56.633384,-72,2025-11-07 13:40:00.613205231
2025-11-07 13:39:56.633384,-8193,2025-11-07 13:40:00.620897538
2025-11-07 13:39:56.633384,-1,2025-11-07 13:40:00.628589846
2025-11-07 13:39:56.633384,-50,2025-11-07 13:40:00.636282154
2025-11-07 13:39:56.633384,-10241,2025-11-07 13:40:00.643974462
2025-11-07 13:39:56.633384,-1,2025-11-07 13:40:00.651666769
2025-11-07 13:39:56.633384,-19,2025-11-07 13:40:00.659359077
2025-11-07 13:39:56.633384,-4609,2025-11-07 13:40:00.667051385
2025-11-07 13:39:56.633384,-1,2025-11-07 13:40:00.674743692
2025-11-07 13:39:56.633384,-16,2025-11-07 13:40:00.682436000
2025-11-07 13:39:56.633384,767,2025-11-07 13:40:00.690128308
2025-11-07 13:39:56.633384,0,2025-11-07 13:40:00.697820615
2025-11-07 13:39:56.633384,12,2025-11-07 13:40:00.705512923
2025-11-07 13:39:56.633384,5376,2025-11-07 13:40:00.713205231
2025-11-07 13:39:56.633384,0,2025-11-07 13:40:00.720897538
2025-11-07 13:39:56.633384,38,2025-11-07 13:40:00.728589846
2025-11-07 13:39:56.633384,12288,2025-11-07 13:40:00.736282154
2025-11-07 13:39:56.633384,0,2025-11-07 13:40:00.743974462
2025-11-07 13:39:56.633384,55,2025-11-07 13:40:00.751666769
2025-11-07 13:39:56.633384,21504,2025-11-07 13:40:00.759359077
2025-11-07 13:39:56.633384,0,2025-11-07 13:40:00.767051385
2025-11-07 13:39:56.633384,118,2025-11-07 13:40:00.774743692
2025-11-07 13:39:57.174052,126,2025-11-07 13:40:00.782436000
2025-11-07 13:39:57.174052,30976,2025-11-07 13:40:00.790128308
2025-11-07 13:39:57.174052,0,2025-11-07 13:40:00.797820615
2025-11-07 13:39:57.174052,121,2025-11-07 13:40:00.805512923
2025-11-07 13:39:57.174052,30976,2025-11-07 13:40:00.813205231
2025-11-07 13:39:57.174052,0,2025-11-07 13:40:00.820897538
2025-11-07 13:39:57.174052,113,2025-11-07 13:40:00.828589846
2025-11-07 13:39:57.174052,25856,2025-11-07 13:40:00.836282154
2025-11-07 13:39:57.174052,0,2025-11-07 13:40:00.843974462
2025-11-07 13:39:57.174052,72,2025-11-07 13:40:00.851666769
2025-11-07 13:39:57.174052,7936,2025-11-07 13:40:00.859359077
2025-11-07 13:39:57.174052,0,2025-11-07 13:40:00.867051385
2025-11-07 13:39:57.174052,-12,2025-11-07 13:40:00.874743692
2025-11-07 13:39:57.174052,-12545,2025-11-07 13:40:00.882436000
2025-11-07 13:39:57.174052,-1,2025-11-07 13:40:00.890128308
2025-11-07 13:39:57.174052,-82,2025-11-07 13:40:00.897820615
2025-11-07 13:39:57.174052,-22017,2025-11-07 13:40:00.905512923
2025-11-07 13:39:57.174052,-1,2025-11-07 13:40:00.913205231
2025-11-07 13:39:57.174052,-82,2025-11-07 13:40:00.920897538
2025-11-07 13:39:57.174052,-20737,2025-11-07 13:40:00.928589846
2025-11-07 13:39:57.174052,-1,2025-11-07 13:40:00.936282154
2025-11-07 13:39:57.174052,-82,2025-11-07 13:40:00.943974462
2025-11-07 13:39:57.174052,-20225,2025-11-07 13:40:00.951666769
2025-11-07 13:39:57.174052,-1,2025-11-07 13:40:00.959359077
2025-11-07 13:39:57.174052,-80,2025-11-07 13:40:00.967051385
2025-11-07 13:39:57.174052,-18177,2025-11-07 13:40:00.974743692
2025-11-07 13:39:57.174052,-1,2025-11-07 13:40:00.982436000
2025-11-07 13:39:57.174052,-60,2025-11-07 13:40:00.990128308
2025-11-07 13:39:57.174052,-14593,2025-11-07 13:40:00.997820615
2025-11-07 13:39:57.174052,-1,2025-11-07 13:40:01.005512923
2025-11-07 13:39:57.174052,-55,2025-11-07 13:40:01.013205231
2025-11-07 13:39:57.174052,-9473,2025-11-07 13:40:01.020897538
2025-11-07 13:39:57.174052,-1,2025-11-07 13:40:01.028589846
2025-11-07 13:39:57.174052,-36,2025-11-07 13:40:01.036282154
2025-11-07 13:39:57.174052,-14593,2025-11-07 13:40:01.043974462
2025-11-07 13:39:57.174052,-1,2025-11-07 13:40:01.051666769
2025-11-07 13:39:57.174052,-58,2025-11-07 13:40:01.059359077
2025-11-07 13:39:57.174052,-7681,2025-11-07 13:40:01.067051385
2025-11-07 13:39:57.174052,-1,2025-11-07 13:40:01.074743692
2025-11-07 13:39:57.174052,-33,2025-11-07 13:40:01.082436000
2025-11-07 13:39:57.174052,-11521,2025-11-07 13:40:01.090128308
2025-11-07 13:39:57.174052,-1,2025-11-07 13:40:01.097820615
2025-11-07 13:39:57.174052,-36,2025-11-07 13:40:01.105512923
2025-11-07 13:39:57.174052,-7681,2025-11-07 13:40:01.113205231
2025-11-07 13:39:57.174052,-1,2025-11-07 13:40:01.120897538
2025-11-07 13:39:57.174052,-36,2025-11-07 13:40:01.128589846
2025-11-07 13:39:57.174052,-8961,2025-11-07 13:40:01.136282154
2025-11-07 13:39:57.174052,-1,2025-11-07 13:40:01.143974462
2025-11-07 13:39:57.174052,-33,2025-11-07 13:40:01.151666769
2025-11-07 13:39:57.174052,-8961,2025-11-07 13:40:01.159359077
2025-11-07 13:39:57.174052,-1,2025-11-07 13:40:01.167051385
2025-11-07 13:39:57.174052,-36,2025-11-07 13:40:01.174743692
2025-11-07 13:39:57.174052,-8961,2025-11-07 13:40:01.182436000
2025-11-07 13:39:57.174052,-1,2025-11-07 13:40:01.190128308
2025-11-07 13:39:57.174052,-36,2025-11-07 13:40:01.197820615
2025-11-07 13:39:57.174052,-8961,2025-11-07 13:40:01.205512923
2025-11-07 13:39:57.174052,-1,2025-11-07 13:40:01.213205231
2025-11-07 13:39:57.174052,-33,2025-11-07 13:40:01.220897538
2025-11-07 13:39:57.174052,-9473,2025-11-07 13:40:01.228589846
2025-11-07 13:39:57.174052,-1,2025-11-07 13:40:01.236282154
2025-11-07 13:39:57.174052,-53,2025-11-07 13:40:01.243974462
2025-11-07 13:39:57.174052,-13825,2025-11-07 13:40:01.251666769
2025-11-07 13:39:57.174052,-1,2025-11-07 13:40:01.259359077
2025-11-07 13:39:57.174052,-46,2025-11-07 13:40:01.267051385
2025-11-07 13:39:57.174052,-10753,2025-11-07 13:40:01.274743692
2025-11-07 13:39:57.174052,-1,2025-11-07 13:40:01.282436000
2025-11-07 13:39:57.174052,-33,2025-11-07 13:40:01.290128308
2025-11-07 13:39:57.174052,-3841,2025-11-07 13:40:01.297820615
2025-11-07 13:39:57.174052,-1,2025-11-07 13:40:01.305512923
2025-11-07 13:39:57.174052,-12,2025-11-07 13:40:01.313205231
2025-11-07 13:39:57.174052,-4609,2025-11-07 13:40:01.320897538
2025-11-07 13:39:57.174052,-1,2025-11-07 13:40:01.328589846
2025-11-07 13:39:57.174052,-26,2025-11-07 13:40:01.336282154
2025-11-07 13:39:57.174052,-7169,2025-11-07 13:40:01.343974462
2025-11-07 13:39:57.174052,-1,2025-11-07 13:40:01.351666769
2025-11-07 13:39:57.174052,-33,2025-11-07 13:40:01.359359077
2025-11-07 13:39:57.174052,-5121,2025-11-07 13:40:01.367051385
2025-11-07 13:39:57.174052,-1,2025-11-07 13:40:01.374743692
2025-11-07 13:39:57.174052,-14,2025-11-07 13:40:01.382436000
2025-11-07 13:39:57.174052,-8961,2025-11-07 13:40:01.390128308
2025-11-07 13:39:57.174052,-1,2025-11-07 13:40:01.397820615
2025-11-07 13:39:57.174052,-50,2025-11-07 13:40:01.405512923
2025-11-07 13:39:57.174052,-4609,2025-11-07 13:40:01.413205230
2025-11-07 13:39:57.174052,-1,2025-11-07 13:40:01.420897538
2025-11-07 13:39:57.174052,128,2025-11-07 13:40:01.428589846
2025-11-07 13:39:57.174052,6656,2025-11-07 13:40:01.436282154
2025-11-07 13:39:57.174052,2,2025-11-07 13:40:01.443974462
2025-11-07 13:39:57.174052,1120,2025-11-07 13:40:01.451666769
2025-11-07 13:39:57.174052,-23040,2025-11-07 13:40:01.459359077
2025-11-07 13:39:57.174052,4,2025-11-07 13:40:01.467051385
2025-11-07 13:39:57.174052,196,2025-11-07 13:40:01.474743692
2025-11-07 13:39:57.174052,21760,2025-11-07 13:40:01.482436000
2025-11-07 13:39:57.174052,-3,2025-11-07 13:40:01.490128308
2025-11-07 13:39:57.174052,-351,2025-11-07 13:40:01.497820615
2025-11-07 13:39:57.174052,8191,2025-11-07 13:40:01.505512923
2025-11-07 13:39:57.174052,0,2025-11-07 13:40:01.513205231
2025-11-07 13:39:57.174052,-172,2025-11-07 13:40:01.520897538
2025-11-07 13:39:57.174052,21247,2025-11-07 13:40:01.528589846
2025-11-07 13:39:57.174052,-1,2025-11-07 13:40:01.536282154
2025-11-07 13:39:57.174052,-21,2025-11-07 13:40:01.543974462
2025-11-07 13:39:57.174052,-15873,2025-11-07 13:40:01.551666769
2025-11-07 13:39:57.174052,-1,2025-11-07 13:40:01.559359077
2025-11-07 13:39:57.174052,-94,2025-11-07 13:40:01.567051385
2025-11-07 13:39:57.174052,-12545,2025-11-07 13:40:01.574743692
2025-11-07 13:39:57.174052,-1,2025-11-07 13:40:01.582436000
2025-11-07 13:39:57.174052,-50,2025-11-07 13:40:01.590128308
2025-11-07 13:39:57.174052,-12033,2025-11-07 13:40:01.597820615
2025-11-07 13:39:57.174052,-1,2025-11-07 13:40:01.605512923
2025-11-07 13:39:57.174052,-16,2025-11-07 13:40:01.613205231
2025-11-07 13:39:57.758534,-7,2025-11-07 13:40:01.620897538
2025-11-07 13:39:57.758534,-2817,2025-11-07 13:40:01.628589846
2025-11-07 13:39:57.758534,-1,2025-11-07 13:40:01.636282154
2025-11-07 13:39:57.758534,0,2025-11-07 13:40:01.643974462
2025-11-07 13:39:57.758534,4096,2025-11-07 13:40:01.651666769
2025-11-07 13:39:57.758534,0,2025-11-07 13:40:01.659359077
2025-11-07 13:39:57.758534,29,2025-11-07 13:40:01.667051385
2025-11-07 13:39:57.758534,10496,2025-11-07 13:40:01.674743692
2025-11-07 13:39:57.758534,0,2025-11-07 13:40:01.682436000
2025-11-07 13:39:57.758534,53,2025-11-07 13:40:01.690128308
2025-11-07 13:39:57.758534,16640,2025-11-07 13:40:01.697820615
2025-11-07 13:39:57.758534,0,2025-11-07 13:40:01.705512923
2025-11-07 13:39:57.758534,82,2025-11-07 13:40:01.713205231
2025-11-07 13:39:57.758534,26624,2025-11-07 13:40:01.720897538
2025-11-07 13:39:57.758534,0,2025-11-07 13:40:01.728589846
2025-11-07 13:39:57.758534,123,2025-11-07 13:40:01.736282154
2025-11-07 13:39:57.758534,-32768,2025-11-07 13:40:01.743974462
2025-11-07 13:39:57.758534,0,2025-11-07 13:40:01.751666769
2025-11-07 13:39:57.758534,123,2025-11-07 13:40:01.759359077
2025-11-07 13:39:57.758534,28928,2025-11-07 13:40:01.767051385
2025-11-07 13:39:57.758534,0,2025-11-07 13:40:01.774743692
2025-11-07 13:39:57.758534,106,2025-11-07 13:40:01.782436000
2025-11-07 13:39:57.758534,25344,2025-11-07 13:40:01.790128308
2025-11-07 13:39:57.758534,0,2025-11-07 13:40:01.797820615
2025-11-07 13:39:57.758534,80,2025-11-07 13:40:01.805512923
2025-11-07 13:39:57.758534,11008,2025-11-07 13:40:01.813205231
2025-11-07 13:39:57.758534,0,2025-11-07 13:40:01.820897538
2025-11-07 13:39:57.758534,0,2025-11-07 13:40:01.828589846
2025-11-07 13:39:57.758534,-10496,2025-11-07 13:40:01.836282154
2025-11-07 13:39:57.758534,-1,2025-11-07 13:40:01.843974462
2025-11-07 13:39:57.758534,-67,2025-11-07 13:40:01.851666769
2025-11-07 13:39:57.758534,-19457,2025-11-07 13:40:01.859359077
2025-11-07 13:39:57.758534,-1,2025-11-07 13:40:01.867051385
2025-11-07 13:39:57.758534,-87,2025-11-07 13:40:01.874743692
2025-11-07 13:39:57.758534,-25089,2025-11-07 13:40:01.882436000
2025-11-07 13:39:57.758534,-1,2025-11-07 13:40:01.890128308
2025-11-07 13:39:57.758534,-109,2025-11-07 13:40:01.897820615
2025-11-07 13:39:57.758534,-26369,2025-11-07 13:40:01.905512923
2025-11-07 13:39:57.758534,-1,2025-11-07 13:40:01.913205231
2025-11-07 13:39:57.758534,-89,2025-11-07 13:40:01.920897538
2025-11-07 13:39:57.758534,-22017,2025-11-07 13:40:01.928589846
2025-11-07 13:39:57.758534,-1,2025-11-07 13:40:01.936282154
2025-11-07 13:39:57.758534,-82,2025-11-07 13:40:01.943974462
2025-11-07 13:39:57.758534,-18177,2025-11-07 13:40:01.951666769
2025-11-07 13:39:57.758534,-1,2025-11-07 13:40:01.959359077
2025-11-07 13:39:57.758534,-65,2025-11-07 13:40:01.967051385
2025-11-07 13:39:57.758534,-15105,2025-11-07 13:40:01.974743692
2025-11-07 13:39:57.758534,-1,2025-11-07 13:40:01.982436000
2025-11-07 13:39:57.758534,-55,2025-11-07 13:40:01.990128308
2025-11-07 13:39:57.758534,-13313,2025-11-07 13:40:01.997820615
2025-11-07 13:39:57.758534,-1,2025-11-07 13:40:02.005512923
2025-11-07 13:39:57.758534,-50,2025-11-07 13:40:02.013205231
2025-11-07 13:39:57.758534,-11521,2025-11-07 13:40:02.020897538
2025-11-07 13:39:57.758534,-1,2025-11-07 13:40:02.028589846
2025-11-07 13:39:57.758534,-41,2025-11-07 13:40:02.036282154
2025-11-07 13:39:57.758534,-10241,2025-11-07 13:40:02.043974462
2025-11-07 13:39:57.758534,-1,2025-11-07 13:40:02.051666769
2025-11-07 13:39:57.758534,-46,2025-11-07 13:40:02.059359077
2025-11-07 13:39:57.758534,-12033,2025-11-07 13:40:02.067051385
2025-11-07 13:39:57.758534,-1,2025-11-07 13:40:02.074743692
2025-11-07 13:39:57.758534,-46,2025-11-07 13:40:02.082436000
2025-11-07 13:39:57.758534,-11521,2025-11-07 13:40:02.090128308
2025-11-07 13:39:57.758534,-1,2025-11-07 13:40:02.097820615
2025-11-07 13:39:57.758534,-48,2025-11-07 13:40:02.105512923
2025-11-07 13:39:57.758534,-11521,2025-11-07 13:40:02.113205231
2025-11-07 13:39:57.758534,-1,2025-11-07 13:40:02.120897538
2025-11-07 13:39:57.758534,-48,2025-11-07 13:40:02.128589846
2025-11-07 13:39:57.758534,-12545,2025-11-07 13:40:02.136282154
2025-11-07 13:39:57.758534,-1,2025-11-07 13:40:02.143974462
2025-11-07 13:39:57.758534,-55,2025-11-07 13:40:02.151666769
2025-11-07 13:39:57.758534,-14593,2025-11-07 13:40:02.159359077
2025-11-07 13:39:57.758534,-1,2025-11-07 13:40:02.167051385
2025-11-07 13:39:57.758534,-53,2025-11-07 13:40:02.174743692
2025-11-07 13:39:57.758534,-11521,2025-11-07 13:40:02.182436000
2025-11-07 13:39:57.758534,-1,2025-11-07 13:40:02.190128308
2025-11-07 13:39:57.758534,-29,2025-11-07 13:40:02.197820615
2025-11-07 13:39:57.758534,-1537,2025-11-07 13:40:02.205512923
2025-11-07 13:39:57.758534,-1,2025-11-07 13:40:02.213205231
2025-11-07 13:39:57.758534,-2,2025-11-07 13:40:02.220897538
2025-11-07 13:39:57.758534,-3841,2025-11-07 13:40:02.228589846
2025-11-07 13:39:57.758534,-1,2025-11-07 13:40:02.236282154
2025-11-07 13:39:57.758534,-29,2025-11-07 13:40:02.243974462
2025-11-07 13:39:57.758534,-8961,2025-11-07 13:40:02.251666769
2025-11-07 13:39:57.758534,-1,2025-11-07 13:40:02.259359077
2025-11-07 13:39:57.758534,-43,2025-11-07 13:40:02.267051385
2025-11-07 13:39:57.758534,-8193,2025-11-07 13:40:02.274743692
2025-11-07 13:39:57.758534,-1,2025-11-07 13:40:02.282436000
2025-11-07 13:39:57.758534,-26,2025-11-07 13:40:02.290128308
2025-11-07 13:39:57.758534,-8961,2025-11-07 13:40:02.297820615
2025-11-07 13:39:57.758534,-1,2025-11-07 13:40:02.305512923
2025-11-07 13:39:57.758534,-26,2025-11-07 13:40:02.313205231
2025-11-07 13:39:57.758534,-3841,2025-11-07 13:40:02.320897538
2025-11-07 13:39:57.758534,-1,2025-11-07 13:40:02.328589846
2025-11-07 13:39:57.758534,36,2025-11-07 13:40:02.336282154
2025-11-07 13:39:57.758534,13056,2025-11-07 13:40:02.343974462
2025-11-07 13:39:57.758534,1,2025-11-07 13:40:02.351666769
2025-11-07 13:39:57.758534,858,2025-11-07 13:40:02.359359077
2025-11-07 13:39:57.758534,-12544,2025-11-07 13:40:02.367051385
2025-11-07 13:39:57.758534,4,2025-11-07 13:40:02.374743692
2025-11-07 13:39:57.758534,623,2025-11-07 13:40:02.382436000
2025-11-07 13:39:57.758534,13312,2025-11-07 13:40:02.390128308
2025-11-07 13:39:57.758534,-2,2025-11-07 13:40:02.397820615
2025-11-07 13:39:57.758534,-514,2025-11-07 13:40:02.405512923
2025-11-07 13:39:57.758534,-2049,2025-11-07 13:40:02.413205230
2025-11-07 13:39:57.758534,-1,2025-11-07 13:40:02.420897538
2025-11-07 13:39:57.758534,-75,2025-11-07 13:40:02.428589846
2025-11-07 13:39:57.758534,15103,2025-11-07 13:40:02.436282154
2025-11-07 13:39:57.758534,-1,2025-11-07 13:40:02.443974462
2025-11-07 13:39:57.758534,-53,2025-11-07 13:40:02.451666769
2025-11-07 13:39:58.297677,-31,2025-11-07 13:40:02.459359077
2025-11-07 13:39:58.297677,-20737,2025-11-07 13:40:02.467051385
2025-11-07 13:39:58.297677,-1,2025-11-07 13:40:02.474743692
2025-11-07 13:39:58.297677,-48,2025-11-07 13:40:02.482436000
2025-11-07 13:39:58.297677,-6401,2025-11-07 13:40:02.490128308
2025-11-07 13:39:58.297677,-1,2025-11-07 13:40:02.497820615
2025-11-07 13:39:58.297677,-46,2025-11-07 13:40:02.505512923
2025-11-07 13:39:58.297677,-7169,2025-11-07 13:40:02.513205231
2025-11-07 13:39:58.297677,-1,2025-11-07 13:40:02.520897538
2025-11-07 13:39:58.297677,4,2025-11-07 13:40:02.528589846
2025-11-07 13:39:58.297677,3584,2025-11-07 13:40:02.536282154
2025-11-07 13:39:58.297677,0,2025-11-07 13:40:02.543974462
2025-11-07 13:39:58.297677,12,2025-11-07 13:40:02.551666769
2025-11-07 13:39:58.297677,4096,2025-11-07 13:40:02.559359077
2025-11-07 13:39:58.297677,0,2025-11-07 13:40:02.567051385
2025-11-07 13:39:58.297677,36,2025-11-07 13:40:02.574743692
2025-11-07 13:39:58.297677,13568,2025-11-07 13:40:02.582436000
2025-11-07 13:39:58.297677,0,2025-11-07 13:40:02.590128308
2025-11-07 13:39:58.297677,84,2025-11-07 13:40:02.597820615
2025-11-07 13:39:58.297677,-32256,2025-11-07 13:40:02.605512923
2025-11-07 13:39:58.297677,0,2025-11-07 13:40:02.613205231
2025-11-07 13:39:58.297677,138,2025-11-07 13:40:02.620897538
2025-11-07 13:39:58.297677,32256,2025-11-07 13:40:02.628589846
2025-11-07 13:39:58.297677,0,2025-11-07 13:40:02.636282154
2025-11-07 13:39:58.297677,145,2025-11-07 13:40:02.643974462
2025-11-07 13:39:58.297677,-22784,2025-11-07 13:40:02.651666769
2025-11-07 13:39:58.297677,0,2025-11-07 13:40:02.659359077
2025-11-07 13:39:58.297677,164,2025-11-07 13:40:02.667051385
2025-11-07 13:39:58.297677,-23552,2025-11-07 13:40:02.674743692
2025-11-07 13:39:58.297677,0,2025-11-07 13:40:02.682436000
2025-11-07 13:39:58.297677,172,2025-11-07 13:40:02.690128308
2025-11-07 13:39:58.297677,-25344,2025-11-07 13:40:02.697820615
2025-11-07 13:39:58.297677,0,2025-11-07 13:40:02.705512923
2025-11-07 13:39:58.297677,123,2025-11-07 13:40:02.713205231
2025-11-07 13:39:58.297677,22784,2025-11-07 13:40:02.720897538
2025-11-07 13:39:58.297677,0,2025-11-07 13:40:02.728589846
2025-11-07 13:39:58.297677,53,2025-11-07 13:40:02.736282154
2025-11-07 13:39:58.297677,-512,2025-11-07 13:40:02.743974462
2025-11-07 13:39:58.297677,-1,2025-11-07 13:40:02.751666769
2025-11-07 13:39:58.297677,-48,2025-11-07 13:40:02.759359077
2025-11-07 13:39:58.297677,-15873,2025-11-07 13:40:02.767051385
2025-11-07 13:39:58.297677,-1,2025-11-07 13:40:02.774743692
2025-11-07 13:39:58.297677,-60,2025-11-07 13:40:02.782436000
2025-11-07 13:39:58.297677,-17665,2025-11-07 13:40:02.790128308
2025-11-07 13:39:58.297677,-1,2025-11-07 13:40:02.797820615
2025-11-07 13:39:58.297677,-80,2025-11-07 13:40:02.805512923
2025-11-07 13:39:58.297677,-17665,2025-11-07 13:40:02.813205231
2025-11-07 13:39:58.297677,-1,2025-11-07 13:40:02.820897538
2025-11-07 13:39:58.297677,-55,2025-11-07 13:40:02.828589846
2025-11-07 13:39:58.297677,-12545,2025-11-07 13:40:02.836282154
2025-11-07 13:39:58.297677,-1,2025-11-07 13:40:02.843974462
2025-11-07 13:39:58.297677,-46,2025-11-07 13:40:02.851666769
2025-11-07 13:39:58.297677,-10753,2025-11-07 13:40:02.859359077
2025-11-07 13:39:58.297677,-1,2025-11-07 13:40:02.867051385
2025-11-07 13:39:58.297677,-46,2025-11-07 13:40:02.874743692
2025-11-07 13:39:58.297677,-8961,2025-11-07 13:40:02.882436000
2025-11-07 13:39:58.297677,-1,2025-11-07 13:40:02.890128308
2025-11-07 13:39:58.297677,-24,2025-11-07 13:40:02.897820615
2025-11-07 13:39:58.297677,-3329,2025-11-07 13:40:02.905512923
2025-11-07 13:39:58.297677,-1,2025-11-07 13:40:02.913205231
2025-11-07 13:39:58.297677,-16,2025-11-07 13:40:02.920897538
2025-11-07 13:39:58.297677,-5121,2025-11-07 13:40:02.928589846
2025-11-07 13:39:58.297677,-1,2025-11-07 13:40:02.936282154
2025-11-07 13:39:58.297677,-19,2025-11-07 13:40:02.943974462
2025-11-07 13:39:58.297677,-3841,2025-11-07 13:40:02.951666769
2025-11-07 13:39:58.297677,-1,2025-11-07 13:40:02.959359077
2025-11-07 13:39:58.297677,-14,2025-11-07 13:40:02.967051385
2025-11-07 13:39:58.297677,-3841,2025-11-07 13:40:02.974743692
2025-11-07 13:39:58.297677,-1,2025-11-07 13:40:02.982436000
2025-11-07 13:39:58.297677,-33,2025-11-07 13:40:02.990128308
2025-11-07 13:39:58.297677,-10241,2025-11-07 13:40:02.997820615
2025-11-07 13:39:58.297677,-1,2025-11-07 13:40:03.005512923
2025-11-07 13:39:58.297677,-33,2025-11-07 13:40:03.013205231
2025-11-07 13:39:58.297677,-9473,2025-11-07 13:40:03.020897538
2025-11-07 13:39:58.297677,-1,2025-11-07 13:40:03.028589846
2025-11-07 13:39:58.297677,-41,2025-11-07 13:40:03.036282154
2025-11-07 13:39:58.297677,-7169,2025-11-07 13:40:03.043974462
2025-11-07 13:39:58.297677,-1,2025-11-07 13:40:03.051666769
2025-11-07 13:39:58.297677,-12,2025-11-07 13:40:03.059359077
2025-11-07 13:39:58.297677,-257,2025-11-07 13:40:03.067051385
2025-11-07 13:39:58.297677,-1,2025-11-07 13:40:03.074743692
2025-11-07 13:39:58.297677,-4,2025-11-07 13:40:03.082436000
2025-11-07 13:39:58.297677,-3841,2025-11-07 13:40:03.090128308
2025-11-07 13:39:58.297677,-1,2025-11-07 13:40:03.097820615
2025-11-07 13:39:58.297677,-21,2025-11-07 13:40:03.105512923
2025-11-07 13:39:58.297677,-7169,2025-11-07 13:40:03.113205231
2025-11-07 13:39:58.297677,-1,2025-11-07 13:40:03.120897538
2025-11-07 13:39:58.297677,-41,2025-11-07 13:40:03.128589846
2025-11-07 13:39:58.297677,-8193,2025-11-07 13:40:03.136282154
2025-11-07 13:39:58.297677,-1,2025-11-07 13:40:03.143974462
2025-11-07 13:39:58.297677,-14,2025-11-07 13:40:03.151666769
2025-11-07 13:39:58.297677,-2817,2025-11-07 13:40:03.159359077
2025-11-07 13:39:58.297677,-1,2025-11-07 13:40:03.167051385
2025-11-07 13:39:58.297677,-21,2025-11-07 13:40:03.174743692
2025-11-07 13:39:58.297677,-3329,2025-11-07 13:40:03.182436000
2025-11-07 13:39:58.297677,-1,2025-11-07 13:40:03.190128308
2025-11-07 13:39:58.297677,94,2025-11-07 13:40:03.197820615
2025-11-07 13:39:58.297677,-13824,2025-11-07 13:40:03.205512923
2025-11-07 13:39:58.297677,1,2025-11-07 13:40:03.213205231
2025-11-07 13:39:58.297677,979,2025-11-07 13:40:03.220897538
2025-11-07 13:39:58.297677,-4608,2025-11-07 13:40:03.228589846
2025-11-07 13:39:58.297677,3,2025-11-07 13:40:03.236282154
2025-11-07 13:39:58.297677,19,2025-11-07 13:40:03.243974462
2025-11-07 13:39:58.297677,-22528,2025-11-07 13:40:03.251666769
2025-11-07 13:39:58.297677,-4,2025-11-07 13:40:03.259359077
2025-11-07 13:39:58.297677,-458,2025-11-07 13:40:03.267051385
2025-11-07 13:39:58.297677,16895,2025-11-07 13:40:03.274743692
2025-11-07 13:39:58.297677,0,2025-11-07 13:40:03.282436000
2025-11-07 13:39:58.297677,-75,2025-11-07 13:40:03.290128308
2025-11-07 13:39:58.838232,-106,2025-11-07 13:40:03.297820615
2025-11-07 13:39:58.838232,5631,2025-11-07 13:40:03.305512923
2025-11-07 13:39:58.838232,0,2025-11-07 13:40:03.313205231
2025-11-07 13:39:58.838232,-41,2025-11-07 13:40:03.320897538
2025-11-07 13:39:58.838232,-18177,2025-11-07 13:40:03.328589846
2025-11-07 13:39:58.838232,-1,2025-11-07 13:40:03.336282154
2025-11-07 13:39:58.838232,4,2025-11-07 13:40:03.343974462
2025-11-07 13:39:58.838232,1792,2025-11-07 13:40:03.351666769
2025-11-07 13:39:58.838232,0,2025-11-07 13:40:03.359359077
2025-11-07 13:39:58.838232,-16,2025-11-07 13:40:03.367051385
2025-11-07 13:39:58.838232,3327,2025-11-07 13:40:03.374743692
2025-11-07 13:39:58.838232,0,2025-11-07 13:40:03.382436000
2025-11-07 13:39:58.838232,33,2025-11-07 13:40:03.390128308
2025-11-07 13:39:58.838232,12288,2025-11-07 13:40:03.397820615
2025-11-07 13:39:58.838232,0,2025-11-07 13:40:03.405512923
2025-11-07 13:39:58.838232,72,2025-11-07 13:40:03.413205230
2025-11-07 13:39:58.838232,19200,2025-11-07 13:40:03.420897538
2025-11-07 13:39:58.838232,0,2025-11-07 13:40:03.428589846
2025-11-07 13:39:58.838232,75,2025-11-07 13:40:03.436282154
2025-11-07 13:39:58.838232,27904,2025-11-07 13:40:03.443974462
2025-11-07 13:39:58.838232,0,2025-11-07 13:40:03.451666769
2025-11-07 13:39:58.838232,128,2025-11-07 13:40:03.459359077
2025-11-07 13:39:58.838232,30208,2025-11-07 13:40:03.467051385
2025-11-07 13:39:58.838232,0,2025-11-07 13:40:03.474743692
2025-11-07 13:39:58.838232,128,2025-11-07 13:40:03.482436000
2025-11-07 13:39:58.838232,-22784,2025-11-07 13:40:03.490128308
2025-11-07 13:39:58.838232,0,2025-11-07 13:40:03.497820615
2025-11-07 13:39:58.838232,184,2025-11-07 13:40:03.505512923
2025-11-07 13:39:58.838232,-21504,2025-11-07 13:40:03.513205231
2025-11-07 13:39:58.838232,0,2025-11-07 13:40:03.520897538
2025-11-07 13:39:58.838232,167,2025-11-07 13:40:03.528589846
2025-11-07 13:39:58.838232,-20224,2025-11-07 13:40:03.536282154
2025-11-07 13:39:58.838232,0,2025-11-07 13:40:03.543974462
2025-11-07 13:39:58.838232,164,2025-11-07 13:40:03.551666769
2025-11-07 13:39:58.838232,-32768,2025-11-07 13:40:03.559359077
2025-11-07 13:39:58.838232,0,2025-11-07 13:40:03.567051385
2025-11-07 13:39:58.838232,99,2025-11-07 13:40:03.574743692
2025-11-07 13:39:58.838232,14848,2025-11-07 13:40:03.582436000
2025-11-07 13:39:58.838232,0,2025-11-07 13:40:03.590128308
2025-11-07 13:39:58.838232,-4,2025-11-07 13:40:03.597820615
2025-11-07 13:39:58.838232,-13825,2025-11-07 13:40:03.605512923
2025-11-07 13:39:58.838232,-1,2025-11-07 13:40:03.613205231
2025-11-07 13:39:58.838232,-72,2025-11-07 13:40:03.620897538
2025-11-07 13:39:58.838232,-20737,2025-11-07 13:40:03.628589846
2025-11-07 13:39:58.838232,-1,2025-11-07 13:40:03.636282154
2025-11-07 13:39:58.838232,-84,2025-11-07 13:40:03.643974462
2025-11-07 13:39:58.838232,-20737,2025-11-07 13:40:03.651666769
2025-11-07 13:39:58.838232,-1,2025-11-07 13:40:03.659359077
2025-11-07 13:39:58.838232,-97,2025-11-07 13:40:03.667051385
2025-11-07 13:39:58.838232,-23809,2025-11-07 13:40:03.674743692
2025-11-07 13:39:58.838232,-1,2025-11-07 13:40:03.682436000
2025-11-07 13:39:58.838232,-84,2025-11-07 13:40:03.690128308
2025-11-07 13:39:58.838232,-28161,2025-11-07 13:40:03.697820615
2025-11-07 13:39:58.838232,-1,2025-11-07 13:40:03.705512923
2025-11-07 13:39:58.838232,-109,2025-11-07 13:40:03.713205231
2025-11-07 13:39:58.838232,-13825,2025-11-07 13:40:03.720897538
2025-11-07 13:39:58.838232,-1,2025-11-07 13:40:03.728589846
2025-11-07 13:39:58.838232,-41,2025-11-07 13:40:03.736282154
2025-11-07 13:39:58.838232,-13825,2025-11-07 13:40:03.743974462
2025-11-07 13:39:58.838232,-1,2025-11-07 13:40:03.751666769
2025-11-07 13:39:58.838232,-38,2025-11-07 13:40:03.759359077
2025-11-07 13:39:58.838232,-5121,2025-11-07 13:40:03.767051385
2025-11-07 13:39:58.838232,-1,2025-11-07 13:40:03.774743692
2025-11-07 13:39:58.838232,-26,2025-11-07 13:40:03.782436000
2025-11-07 13:39:58.838232,-3841,2025-11-07 13:40:03.790128308
2025-11-07 13:39:58.838232,-1,2025-11-07 13:40:03.797820615
2025-11-07 13:39:58.838232,-16,2025-11-07 13:40:03.805512923
2025-11-07 13:39:58.838232,-11521,2025-11-07 13:40:03.813205231
2025-11-07 13:39:58.838232,-1,2025-11-07 13:40:03.820897538
2025-11-07 13:39:58.838232,-43,2025-11-07 13:40:03.828589846
2025-11-07 13:39:58.838232,-3841,2025-11-07 13:40:03.836282154
2025-11-07 13:39:58.838232,-1,2025-11-07 13:40:03.843974462
2025-11-07 13:39:58.838232,-21,2025-11-07 13:40:03.851666769
2025-11-07 13:39:58.838232,-8961,2025-11-07 13:40:03.859359077
2025-11-07 13:39:58.838232,-1,2025-11-07 13:40:03.867051385
2025-11-07 13:39:58.838232,-31,2025-11-07 13:40:03.874743692
2025-11-07 13:39:58.838232,-3841,2025-11-07 13:40:03.882436000
2025-11-07 13:39:58.838232,-1,2025-11-07 13:40:03.890128308
2025-11-07 13:39:58.838232,-19,2025-11-07 13:40:03.897820615
2025-11-07 13:39:58.838232,-6401,2025-11-07 13:40:03.905512923
2025-11-07 13:39:58.838232,-1,2025-11-07 13:40:03.913205231
2025-11-07 13:39:58.838232,-26,2025-11-07 13:40:03.920897538
2025-11-07 13:39:58.838232,-5121,2025-11-07 13:40:03.928589846
2025-11-07 13:39:58.838232,-1,2025-11-07 13:40:03.936282154
2025-11-07 13:39:58.838232,-24,2025-11-07 13:40:03.943974462
2025-11-07 13:39:58.838232,-7681,2025-11-07 13:40:03.951666769
2025-11-07 13:39:58.838232,-1,2025-11-07 13:40:03.959359077
2025-11-07 13:39:58.838232,-31,2025-11-07 13:40:03.967051385
2025-11-07 13:39:58.838232,-5889,2025-11-07 13:40:03.974743692
2025-11-07 13:39:58.838232,-1,2025-11-07 13:40:03.982436000
2025-11-07 13:39:58.838232,-36,2025-11-07 13:40:03.990128308
2025-11-07 13:39:58.838232,-10753,2025-11-07 13:40:03.997820615
2025-11-07 13:39:58.838232,-1,2025-11-07 13:40:04.005512923
2025-11-07 13:39:58.838232,-29,2025-11-07 13:40:04.013205231
2025-11-07 13:39:58.838232,-6401,2025-11-07 13:40:04.020897538
2025-11-07 13:39:58.838232,-1,2025-11-07 13:40:04.028589846
2025-11-07 13:39:58.838232,9,2025-11-07 13:40:04.036282154
2025-11-07 13:39:58.838232,2048,2025-11-07 13:40:04.043974462
2025-11-07 13:39:58.838232,1,2025-11-07 13:40:04.051666769
2025-11-07 13:39:58.838232,817,2025-11-07 13:40:04.059359077
2025-11-07 13:39:58.838232,-14848,2025-11-07 13:40:04.067051385
2025-11-07 13:39:58.838232,4,2025-11-07 13:40:04.074743692
2025-11-07 13:39:58.838232,611,2025-11-07 13:40:04.082436000
2025-11-07 13:39:58.838232,-8448,2025-11-07 13:40:04.090128308
2025-11-07 13:39:58.838232,-3,2025-11-07 13:40:04.097820615
2025-11-07 13:39:58.838232,-601,2025-11-07 13:40:04.105512923
2025-11-07 13:39:58.838232,3327,2025-11-07 13:40:04.113205231
2025-11-07 13:39:58.838232,0,2025-11-07 13:40:04.120897538
2025-11-07 13:39:58.838232,-31,2025-11-07 13:40:04.128589846
2025-11-07 13:39:59.422194,-198,2025-11-07 13:40:04.136282154
2025-11-07 13:39:59.422194,-8961,2025-11-07 13:40:04.143974462
2025-11-07 13:39:59.422194,-1,2025-11-07 13:40:04.151666769
2025-11-07 13:39:59.422194,-9,2025-11-07 13:40:04.159359077
2025-11-07 13:39:59.422194,-23297,2025-11-07 13:40:04.167051385
2025-11-07 13:39:59.422194,-1,2025-11-07 13:40:04.174743692
2025-11-07 13:39:59.422194,-53,2025-11-07 13:40:04.182436000
2025-11-07 13:39:59.422194,-5121,2025-11-07 13:40:04.190128308
2025-11-07 13:39:59.422194,-1,2025-11-07 13:40:04.197820615
2025-11-07 13:39:59.422194,-26,2025-11-07 13:40:04.205512923
2025-11-07 13:39:59.422194,-257,2025-11-07 13:40:04.213205231
2025-11-07 13:39:59.422194,-1,2025-11-07 13:40:04.220897538
2025-11-07 13:39:59.422194,14,2025-11-07 13:40:04.228589846
2025-11-07 13:39:59.422194,1792,2025-11-07 13:40:04.236282154
2025-11-07 13:39:59.422194,0,2025-11-07 13:40:04.243974462
2025-11-07 13:39:59.422194,16,2025-11-07 13:40:04.251666769
2025-11-07 13:39:59.422194,9216,2025-11-07 13:40:04.259359077
2025-11-07 13:39:59.422194,0,2025-11-07 13:40:04.267051385
2025-11-07 13:39:59.422194,41,2025-11-07 13:40:04.274743692
2025-11-07 13:39:59.422194,13568,2025-11-07 13:40:04.282436000
2025-11-07 13:39:59.422194,0,2025-11-07 13:40:04.290128308
2025-11-07 13:39:59.422194,67,2025-11-07 13:40:04.297820615
2025-11-07 13:39:59.422194,19712,2025-11-07 13:40:04.305512923
2025-11-07 13:39:59.422194,0,2025-11-07 13:40:04.313205231
2025-11-07 13:39:59.422194,89,2025-11-07 13:40:04.320897538
2025-11-07 13:39:59.422194,25856,2025-11-07 13:40:04.328589846
2025-11-07 13:39:59.422194,0,2025-11-07 13:40:04.336282154
2025-11-07 13:39:59.422194,109,2025-11-07 13:40:04.343974462
2025-11-07 13:39:59.422194,28928,2025-11-07 13:40:04.351666769
2025-11-07 13:39:59.422194,0,2025-11-07 13:40:04.359359077
2025-11-07 13:39:59.422194,111,2025-11-07 13:40:04.367051385
2025-11-07 13:39:59.422194,25856,2025-11-07 13:40:04.374743692
2025-11-07 13:39:59.422194,0,2025-11-07 13:40:04.382436000
2025-11-07 13:39:59.422194,92,2025-11-07 13:40:04.390128308
2025-11-07 13:39:59.422194,20992,2025-11-07 13:40:04.397820615
2025-11-07 13:39:59.422194,0,2025-11-07 13:40:04.405512923
2025-11-07 13:39:59.422194,60,2025-11-07 13:40:04.413205230
2025-11-07 13:39:59.422194,5376,2025-11-07 13:40:04.420897538
2025-11-07 13:39:59.422194,0,2025-11-07 13:40:04.428589846
2025-11-07 13:39:59.422194,-31,2025-11-07 13:40:04.436282154
2025-11-07 13:39:59.422194,-16385,2025-11-07 13:40:04.443974462
2025-11-07 13:39:59.422194,-1,2025-11-07 13:40:04.451666769
2025-11-07 13:39:59.422194,-65,2025-11-07 13:40:04.459359077
2025-11-07 13:39:59.422194,-16385,2025-11-07 13:40:04.467051385
2025-11-07 13:39:59.422194,-1,2025-11-07 13:40:04.474743692
2025-11-07 13:39:59.422194,-89,2025-11-07 13:40:04.482436000
2025-11-07 13:39:59.422194,-25601,2025-11-07 13:40:04.490128308
2025-11-07 13:39:59.422194,-1,2025-11-07 13:40:04.497820615
2025-11-07 13:39:59.422194,-99,2025-11-07 13:40:04.505512923
2025-11-07 13:39:59.422194,-25089,2025-11-07 13:40:04.513205231
2025-11-07 13:39:59.422194,-1,2025-11-07 13:40:04.520897538
2025-11-07 13:39:59.422194,-99,2025-11-07 13:40:04.528589846
2025-11-07 13:39:59.422194,-23809,2025-11-07 13:40:04.536282154
2025-11-07 13:39:59.422194,-1,2025-11-07 13:40:04.543974462
2025-11-07 13:39:59.422194,-80,2025-11-07 13:40:04.551666769
2025-11-07 13:39:59.422194,-15873,2025-11-07 13:40:04.559359077
2025-11-07 13:39:59.422194,-1,2025-11-07 13:40:04.567051385
2025-11-07 13:39:59.422194,-58,2025-11-07 13:40:04.574743692
2025-11-07 13:39:59.422194,-14593,2025-11-07 13:40:04.582436000
2025-11-07 13:39:59.422194,-1,2025-11-07 13:40:04.590128308
2025-11-07 13:39:59.422194,-46,2025-11-07 13:40:04.597820615
2025-11-07 13:39:59.422194,-11521,2025-11-07 13:40:04.605512923
2025-11-07 13:39:59.422194,-1,2025-11-07 13:40:04.613205231
2025-11-07 13:39:59.422194,-55,2025-11-07 13:40:04.620897538
2025-11-07 13:39:59.422194,-12545,2025-11-07 13:40:04.628589846
2025-11-07 13:39:59.422194,-1,2025-11-07 13:40:04.636282154
2025-11-07 13:39:59.422194,-41,2025-11-07 13:40:04.643974462
2025-11-07 13:39:59.422194,-12033,2025-11-07 13:40:04.651666769
2025-11-07 13:39:59.422194,-1,2025-11-07 13:40:04.659359077
2025-11-07 13:39:59.422194,-46,2025-11-07 13:40:04.667051385
2025-11-07 13:39:59.422194,-9473,2025-11-07 13:40:04.674743692
2025-11-07 13:39:59.422194,-1,2025-11-07 13:40:04.682436000
2025-11-07 13:39:59.422194,-58,2025-11-07 13:40:04.690128308
2025-11-07 13:39:59.422194,-18945,2025-11-07 13:40:04.697820615
2025-11-07 13:39:59.422194,-1,2025-11-07 13:40:04.705512923
2025-11-07 13:39:59.422194,-38,2025-11-07 13:40:04.713205231
2025-11-07 13:39:59.422194,-2817,2025-11-07 13:40:04.720897538
2025-11-07 13:39:59.422194,-1,2025-11-07 13:40:04.728589846
2025-11-07 13:39:59.422194,-19,2025-11-07 13:40:04.736282154
2025-11-07 13:39:59.422194,-10241,2025-11-07 13:40:04.743974462
2025-11-07 13:39:59.422194,-1,2025-11-07 13:40:04.751666769
2025-11-07 13:39:59.422194,-58,2025-11-07 13:40:04.759359077
2025-11-07 13:39:59.422194,-13313,2025-11-07 13:40:04.767051385
2025-11-07 13:39:59.422194,-1,2025-11-07 13:40:04.774743692
2025-11-07 13:39:59.422194,-48,2025-11-07 13:40:04.782436000
2025-11-07 13:39:59.422194,-13313,2025-11-07 13:40:04.790128308
2025-11-07 13:39:59.422194,-1,2025-11-07 13:40:04.797820615
2025-11-07 13:39:59.422194,-41,2025-11-07 13:40:04.805512923
2025-11-07 13:39:59.422194,-9473,2025-11-07 13:40:04.813205231
2025-11-07 13:39:59.422194,-1,2025-11-07 13:40:04.820897538
2025-11-07 13:39:59.422194,-48,2025-11-07 13:40:04.828589846
2025-11-07 13:39:59.422194,-8961,2025-11-07 13:40:04.836282154
2025-11-07 13:39:59.422194,-1,2025-11-07 13:40:04.843974462
2025-11-07 13:39:59.422194,0,2025-11-07 13:40:04.851666769
2025-11-07 13:39:59.422194,-12288,2025-11-07 13:40:04.859359077
2025-11-07 13:39:59.422194,0,2025-11-07 13:40:04.867051385
2025-11-07 13:39:59.422194,766,2025-11-07 13:40:04.874743692
2025-11-07 13:39:59.422194,2560,2025-11-07 13:40:04.882436000
2025-11-07 13:39:59.422194,5,2025-11-07 13:40:04.890128308
2025-11-07 13:39:59.422194,802,2025-11-07 13:40:04.897820615
2025-11-07 13:39:59.422194,-31744,2025-11-07 13:40:04.905512923
2025-11-07 13:39:59.422194,-2,2025-11-07 13:40:04.913205231
2025-11-07 13:39:59.422194,-545,2025-11-07 13:40:04.920897538
2025-11-07 13:39:59.422194,5119,2025-11-07 13:40:04.928589846
