timestamp,ecg,reconstructed_time
2025-11-07 14:48:08.283571,-47,2025-11-07 14:48:08.283571000
2025-11-07 14:48:08.283571,-17409,2025-11-07 14:48:08.291263308
2025-11-07 14:48:08.283571,-1,2025-11-07 14:48:08.298955615
2025-11-07 14:48:08.283571,-67,2025-11-07 14:48:08.306647923
2025-11-07 14:48:08.283571,-13057,2025-11-07 14:48:08.314340231
2025-11-07 14:48:08.283571,-1,2025-11-07 14:48:08.322032538
2025-11-07 14:48:08.283571,-55,2025-11-07 14:48:08.329724846
2025-11-07 14:48:08.283571,-17921,2025-11-07 14:48:08.337417154
2025-11-07 14:48:08.283571,-1,2025-11-07 14:48:08.345109462
2025-11-07 14:48:08.283571,-47,2025-11-07 14:48:08.352801769
2025-11-07 14:48:08.283571,-3329,2025-11-07 14:48:08.360494077
2025-11-07 14:48:08.283571,-1,2025-11-07 14:48:08.368186385
2025-11-07 14:48:08.283571,-33,2025-11-07 14:48:08.375878692
2025-11-07 14:48:08.283571,-8705,2025-11-07 14:48:08.383571000
2025-11-07 14:48:08.283571,-1,2025-11-07 14:48:08.391263308
2025-11-07 14:48:08.283571,-9,2025-11-07 14:48:08.398955615
2025-11-07 14:48:08.283571,-5121,2025-11-07 14:48:08.406647923
2025-11-07 14:48:08.283571,-1,2025-11-07 14:48:08.414340231
2025-11-07 14:48:08.283571,-28,2025-11-07 14:48:08.422032538
2025-11-07 14:48:08.283571,-3329,2025-11-07 14:48:08.429724846
2025-11-07 14:48:08.283571,-1,2025-11-07 14:48:08.437417154
2025-11-07 14:48:08.283571,-26,2025-11-07 14:48:08.445109462
2025-11-07 14:48:08.283571,-8193,2025-11-07 14:48:08.452801769
2025-11-07 14:48:08.283571,-1,2025-11-07 14:48:08.460494077
2025-11-07 14:48:08.283571,11,2025-11-07 14:48:08.468186385
2025-11-07 14:48:08.283571,10240,2025-11-07 14:48:08.475878692
2025-11-07 14:48:08.283571,0,2025-11-07 14:48:08.483571000
2025-11-07 14:48:08.283571,9,2025-11-07 14:48:08.491263308
2025-11-07 14:48:08.283571,512,2025-11-07 14:48:08.498955615
2025-11-07 14:48:08.283571,0,2025-11-07 14:48:08.506647923
2025-11-07 14:48:08.283571,16,2025-11-07 14:48:08.514340231
2025-11-07 14:48:08.283571,-2816,2025-11-07 14:48:08.522032538
2025-11-07 14:48:08.283571,-1,2025-11-07 14:48:08.529724846
2025-11-07 14:48:08.283571,-31,2025-11-07 14:48:08.537417154
2025-11-07 14:48:08.283571,-257,2025-11-07 14:48:08.545109462
2025-11-07 14:48:08.283571,-1,2025-11-07 14:48:08.552801769
2025-11-07 14:48:08.283571,16,2025-11-07 14:48:08.560494077
2025-11-07 14:48:08.283571,512,2025-11-07 14:48:08.568186385
2025-11-07 14:48:08.283571,0,2025-11-07 14:48:08.575878692
2025-11-07 14:48:08.283571,-7,2025-11-07 14:48:08.583571000
2025-11-07 14:48:08.283571,2047,2025-11-07 14:48:08.591263308
2025-11-07 14:48:08.283571,0,2025-11-07 14:48:08.598955615
2025-11-07 14:48:08.283571,11,2025-11-07 14:48:08.606647923
2025-11-07 14:48:08.283571,-1792,2025-11-07 14:48:08.614340231
2025-11-07 14:48:08.283571,-1,2025-11-07 14:48:08.622032538
2025-11-07 14:48:08.283571,-16,2025-11-07 14:48:08.629724846
2025-11-07 14:48:08.283571,1279,2025-11-07 14:48:08.637417154
2025-11-07 14:48:08.283571,0,2025-11-07 14:48:08.645109462
2025-11-07 14:48:08.283571,11,2025-11-07 14:48:08.652801769
2025-11-07 14:48:08.283571,-4096,2025-11-07 14:48:08.660494077
2025-11-07 14:48:08.283571,-1,2025-11-07 14:48:08.668186385
2025-11-07 14:48:08.283571,-9,2025-11-07 14:48:08.675878692
2025-11-07 14:48:08.283571,5631,2025-11-07 14:48:08.683571000
2025-11-07 14:48:08.283571,0,2025-11-07 14:48:08.691263308
2025-11-07 14:48:08.283571,26,2025-11-07 14:48:08.698955615
2025-11-07 14:48:08.283571,1792,2025-11-07 14:48:08.706647923
2025-11-07 14:48:08.283571,0,2025-11-07 14:48:08.714340231
2025-11-07 14:48:08.283571,-11,2025-11-07 14:48:08.722032538
2025-11-07 14:48:08.283571,-1537,2025-11-07 14:48:08.729724846
2025-11-07 14:48:08.283571,-1,2025-11-07 14:48:08.737417154
2025-11-07 14:48:08.283571,19,2025-11-07 14:48:08.745109462
2025-11-07 14:48:08.283571,4864,2025-11-07 14:48:08.752801769
2025-11-07 14:48:08.283571,0,2025-11-07 14:48:08.760494077
2025-11-07 14:48:08.283571,-16,2025-11-07 14:48:08.768186385
2025-11-07 14:48:08.283571,-5633,2025-11-07 14:48:08.775878692
2025-11-07 14:48:08.283571,-1,2025-11-07 14:48:08.783571000
2025-11-07 14:48:08.283571,16,2025-11-07 14:48:08.791263308
2025-11-07 14:48:08.283571,11520,2025-11-07 14:48:08.798955615
2025-11-07 14:48:08.283571,0,2025-11-07 14:48:08.806647923
2025-11-07 14:48:08.283571,21,2025-11-07 14:48:08.814340230
2025-11-07 14:48:08.283571,1024,2025-11-07 14:48:08.822032538
2025-11-07 14:48:08.283571,0,2025-11-07 14:48:08.829724846
2025-11-07 14:48:08.283571,19,2025-11-07 14:48:08.837417154
2025-11-07 14:48:08.283571,3584,2025-11-07 14:48:08.845109462
2025-11-07 14:48:08.283571,0,2025-11-07 14:48:08.852801769
2025-11-07 14:48:08.283571,2,2025-11-07 14:48:08.860494077
2025-11-07 14:48:08.283571,1024,2025-11-07 14:48:08.868186385
2025-11-07 14:48:08.283571,0,2025-11-07 14:48:08.875878692
2025-11-07 14:48:08.283571,-4,2025-11-07 14:48:08.883571000
2025-11-07 14:48:08.283571,-2049,2025-11-07 14:48:08.891263308
2025-11-07 14:48:08.283571,-1,2025-11-07 14:48:08.898955615
2025-11-07 14:48:08.283571,16,2025-11-07 14:48:08.906647923
2025-11-07 14:48:08.283571,9728,2025-11-07 14:48:08.914340231
2025-11-07 14:48:08.283571,0,2025-11-07 14:48:08.922032538
2025-11-07 14:48:08.283571,21,2025-11-07 14:48:08.929724846
2025-11-07 14:48:08.283571,1024,2025-11-07 14:48:08.937417154
2025-11-07 14:48:08.283571,0,2025-11-07 14:48:08.945109462
2025-11-07 14:48:08.283571,23,2025-11-07 14:48:08.952801769
2025-11-07 14:48:08.283571,10240,2025-11-07 14:48:08.960494077
2025-11-07 14:48:08.283571,0,2025-11-07 14:48:08.968186385
2025-11-07 14:48:08.283571,28,2025-11-07 14:48:08.975878692
2025-11-07 14:48:08.283571,7936,2025-11-07 14:48:08.983571000
2025-11-07 14:48:08.283571,0,2025-11-07 14:48:08.991263308
2025-11-07 14:48:08.283571,35,2025-11-07 14:48:08.998955615
2025-11-07 14:48:08.283571,5376,2025-11-07 14:48:09.006647923
2025-11-07 14:48:08.283571,0,2025-11-07 14:48:09.014340231
2025-11-07 14:48:08.283571,28,2025-11-07 14:48:09.022032538
2025-11-07 14:48:08.283571,11520,2025-11-07 14:48:09.029724846
2025-11-07 14:48:08.283571,0,2025-11-07 14:48:09.037417154
2025-11-07 14:48:08.283571,31,2025-11-07 14:48:09.045109462
2025-11-07 14:48:08.283571,4864,2025-11-07 14:48:09.052801769
2025-11-07 14:48:08.283571,0,2025-11-07 14:48:09.060494077
2025-11-07 14:48:08.283571,11,2025-11-07 14:48:09.068186385
2025-11-07 14:48:08.283571,-6656,2025-11-07 14:48:09.075878692
2025-11-07 14:48:08.283571,-1,2025-11-07 14:48:09.083571000
2025-11-07 14:48:08.283571,-81,2025-11-07 14:48:09.091263308
2025-11-07 14:48:08.283571,-14337,2025-11-07 14:48:09.098955615
2025-11-07 14:48:08.283571,-1,2025-11-07 14:48:09.106647923
2025-11-07 14:48:08.283571,208,2025-11-07 14:48:09.114340231
2025-11-07 14:48:08.823985,695,2025-11-07 14:48:09.122032538
2025-11-07 14:48:08.823985,-16896,2025-11-07 14:48:09.129724846
2025-11-07 14:48:08.823985,3,2025-11-07 14:48:09.137417154
2025-11-07 14:48:08.823985,747,2025-11-07 14:48:09.145109462
2025-11-07 14:48:08.823985,32512,2025-11-07 14:48:09.152801769
2025-11-07 14:48:08.823985,1,2025-11-07 14:48:09.160494077
2025-11-07 14:48:08.823985,134,2025-11-07 14:48:09.168186385
2025-11-07 14:48:08.823985,512,2025-11-07 14:48:09.175878692
2025-11-07 14:48:08.823985,0,2025-11-07 14:48:09.183571000
2025-11-07 14:48:08.823985,-52,2025-11-07 14:48:09.191263308
2025-11-07 14:48:08.823985,-19201,2025-11-07 14:48:09.198955615
2025-11-07 14:48:08.823985,-1,2025-11-07 14:48:09.206647923
2025-11-07 14:48:08.823985,-86,2025-11-07 14:48:09.214340231
2025-11-07 14:48:08.823985,-18689,2025-11-07 14:48:09.222032538
2025-11-07 14:48:08.823985,-1,2025-11-07 14:48:09.229724846
2025-11-07 14:48:08.823985,-69,2025-11-07 14:48:09.237417154
2025-11-07 14:48:08.823985,-13825,2025-11-07 14:48:09.245109462
2025-11-07 14:48:08.823985,-1,2025-11-07 14:48:09.252801769
2025-11-07 14:48:08.823985,-33,2025-11-07 14:48:09.260494077
2025-11-07 14:48:08.823985,-11265,2025-11-07 14:48:09.268186385
2025-11-07 14:48:08.823985,-1,2025-11-07 14:48:09.275878692
2025-11-07 14:48:08.823985,-67,2025-11-07 14:48:09.283571000
2025-11-07 14:48:08.823985,-15617,2025-11-07 14:48:09.291263308
2025-11-07 14:48:08.823985,-1,2025-11-07 14:48:09.298955615
2025-11-07 14:48:08.823985,-55,2025-11-07 14:48:09.306647923
2025-11-07 14:48:08.823985,-17409,2025-11-07 14:48:09.314340231
2025-11-07 14:48:08.823985,-1,2025-11-07 14:48:09.322032538
2025-11-07 14:48:08.823985,-64,2025-11-07 14:48:09.329724846
2025-11-07 14:48:08.823985,-3329,2025-11-07 14:48:09.337417154
2025-11-07 14:48:08.823985,-1,2025-11-07 14:48:09.345109462
2025-11-07 14:48:08.823985,-2,2025-11-07 14:48:09.352801769
2025-11-07 14:48:08.823985,-12545,2025-11-07 14:48:09.360494077
2025-11-07 14:48:08.823985,-1,2025-11-07 14:48:09.368186385
2025-11-07 14:48:08.823985,-64,2025-11-07 14:48:09.375878692
2025-11-07 14:48:08.823985,-8705,2025-11-07 14:48:09.383571000
2025-11-07 14:48:08.823985,-1,2025-11-07 14:48:09.391263308
2025-11-07 14:48:08.823985,-31,2025-11-07 14:48:09.398955615
2025-11-07 14:48:08.823985,-9473,2025-11-07 14:48:09.406647923
2025-11-07 14:48:08.823985,-1,2025-11-07 14:48:09.414340231
2025-11-07 14:48:08.823985,-38,2025-11-07 14:48:09.422032538
2025-11-07 14:48:08.823985,-8193,2025-11-07 14:48:09.429724846
2025-11-07 14:48:08.823985,-1,2025-11-07 14:48:09.437417154
2025-11-07 14:48:08.823985,-9,2025-11-07 14:48:09.445109462
2025-11-07 14:48:08.823985,255,2025-11-07 14:48:09.452801769
2025-11-07 14:48:08.823985,0,2025-11-07 14:48:09.460494077
2025-11-07 14:48:08.823985,-14,2025-11-07 14:48:09.468186385
2025-11-07 14:48:08.823985,-1537,2025-11-07 14:48:09.475878692
2025-11-07 14:48:08.823985,-1,2025-11-07 14:48:09.483571000
2025-11-07 14:48:08.823985,7,2025-11-07 14:48:09.491263308
2025-11-07 14:48:08.823985,1792,2025-11-07 14:48:09.498955615
2025-11-07 14:48:08.823985,0,2025-11-07 14:48:09.506647923
2025-11-07 14:48:08.823985,0,2025-11-07 14:48:09.514340231
2025-11-07 14:48:08.823985,-4096,2025-11-07 14:48:09.522032538
2025-11-07 14:48:08.823985,-1,2025-11-07 14:48:09.529724846
2025-11-07 14:48:08.823985,-23,2025-11-07 14:48:09.537417154
2025-11-07 14:48:08.823985,-1537,2025-11-07 14:48:09.545109462
2025-11-07 14:48:08.823985,-1,2025-11-07 14:48:09.552801769
2025-11-07 14:48:08.823985,-4,2025-11-07 14:48:09.560494077
2025-11-07 14:48:08.823985,-2561,2025-11-07 14:48:09.568186385
2025-11-07 14:48:08.823985,-1,2025-11-07 14:48:09.575878692
2025-11-07 14:48:08.823985,4,2025-11-07 14:48:09.583571000
2025-11-07 14:48:08.823985,3584,2025-11-07 14:48:09.591263308
2025-11-07 14:48:08.823985,0,2025-11-07 14:48:09.598955615
2025-11-07 14:48:08.823985,-11,2025-11-07 14:48:09.606647923
2025-11-07 14:48:08.823985,-6913,2025-11-07 14:48:09.614340231
2025-11-07 14:48:08.823985,-1,2025-11-07 14:48:09.622032538
2025-11-07 14:48:08.823985,-16,2025-11-07 14:48:09.629724846
2025-11-07 14:48:08.823985,255,2025-11-07 14:48:09.637417154
2025-11-07 14:48:08.823985,0,2025-11-07 14:48:09.645109462
2025-11-07 14:48:08.823985,14,2025-11-07 14:48:09.652801769
2025-11-07 14:48:08.823985,4864,2025-11-07 14:48:09.660494077
2025-11-07 14:48:08.823985,0,2025-11-07 14:48:09.668186385
2025-11-07 14:48:08.823985,0,2025-11-07 14:48:09.675878692
2025-11-07 14:48:08.823985,-2304,2025-11-07 14:48:09.683571000
2025-11-07 14:48:08.823985,-1,2025-11-07 14:48:09.691263308
2025-11-07 14:48:08.823985,11,2025-11-07 14:48:09.698955615
2025-11-07 14:48:08.823985,5888,2025-11-07 14:48:09.706647923
2025-11-07 14:48:08.823985,0,2025-11-07 14:48:09.714340231
2025-11-07 14:48:08.823985,0,2025-11-07 14:48:09.722032538
2025-11-07 14:48:08.823985,-5376,2025-11-07 14:48:09.729724846
2025-11-07 14:48:08.823985,-1,2025-11-07 14:48:09.737417154
2025-11-07 14:48:08.823985,0,2025-11-07 14:48:09.745109462
2025-11-07 14:48:08.823985,8448,2025-11-07 14:48:09.752801769
2025-11-07 14:48:08.823985,0,2025-11-07 14:48:09.760494077
2025-11-07 14:48:08.823985,19,2025-11-07 14:48:09.768186385
2025-11-07 14:48:08.823985,-1792,2025-11-07 14:48:09.775878692
2025-11-07 14:48:08.823985,-1,2025-11-07 14:48:09.783571000
2025-11-07 14:48:08.823985,19,2025-11-07 14:48:09.791263308
2025-11-07 14:48:08.823985,7936,2025-11-07 14:48:09.798955615
2025-11-07 14:48:08.823985,0,2025-11-07 14:48:09.806647923
2025-11-07 14:48:08.823985,-7,2025-11-07 14:48:09.814340230
2025-11-07 14:48:08.823985,-6401,2025-11-07 14:48:09.822032538
2025-11-07 14:48:08.823985,-1,2025-11-07 14:48:09.829724846
2025-11-07 14:48:08.823985,16,2025-11-07 14:48:09.837417154
2025-11-07 14:48:08.823985,11520,2025-11-07 14:48:09.845109462
2025-11-07 14:48:08.823985,0,2025-11-07 14:48:09.852801769
2025-11-07 14:48:08.823985,7,2025-11-07 14:48:09.860494077
2025-11-07 14:48:08.823985,-5376,2025-11-07 14:48:09.868186385
2025-11-07 14:48:08.823985,-1,2025-11-07 14:48:09.875878692
2025-11-07 14:48:08.823985,0,2025-11-07 14:48:09.883571000
2025-11-07 14:48:08.823985,-512,2025-11-07 14:48:09.891263308
2025-11-07 14:48:08.823985,-1,2025-11-07 14:48:09.898955615
2025-11-07 14:48:08.823985,-14,2025-11-07 14:48:09.906647923
2025-11-07 14:48:08.823985,2047,2025-11-07 14:48:09.914340231
2025-11-07 14:48:08.823985,0,2025-11-07 14:48:09.922032538
2025-11-07 14:48:08.823985,23,2025-11-07 14:48:09.929724846
2025-11-07 14:48:08.823985,2304,2025-11-07 14:48:09.937417154
2025-11-07 14:48:08.823985,0,2025-11-07 14:48:09.945109462
2025-11-07 14:48:08.823985,16,2025-11-07 14:48:09.952801769
2025-11-07 14:48:09.393646,38,2025-11-07 14:48:09.960494077
2025-11-07 14:48:09.393646,8960,2025-11-07 14:48:09.968186385
2025-11-07 14:48:09.393646,0,2025-11-07 14:48:09.975878692
2025-11-07 14:48:09.393646,26,2025-11-07 14:48:09.983571000
2025-11-07 14:48:09.393646,6656,2025-11-07 14:48:09.991263308
2025-11-07 14:48:09.393646,0,2025-11-07 14:48:09.998955615
2025-11-07 14:48:09.393646,19,2025-11-07 14:48:10.006647923
2025-11-07 14:48:09.393646,2816,2025-11-07 14:48:10.014340231
2025-11-07 14:48:09.393646,0,2025-11-07 14:48:10.022032538
2025-11-07 14:48:09.393646,9,2025-11-07 14:48:10.029724846
2025-11-07 14:48:09.393646,2816,2025-11-07 14:48:10.037417154
2025-11-07 14:48:09.393646,0,2025-11-07 14:48:10.045109462
2025-11-07 14:48:09.393646,35,2025-11-07 14:48:10.052801769
2025-11-07 14:48:09.393646,4864,2025-11-07 14:48:10.060494077
2025-11-07 14:48:09.393646,0,2025-11-07 14:48:10.068186385
2025-11-07 14:48:09.393646,-74,2025-11-07 14:48:10.075878692
2025-11-07 14:48:09.393646,-14337,2025-11-07 14:48:10.083571000
2025-11-07 14:48:09.393646,-1,2025-11-07 14:48:10.091263308
2025-11-07 14:48:09.393646,227,2025-11-07 14:48:10.098955615
2025-11-07 14:48:09.393646,-30464,2025-11-07 14:48:10.106647923
2025-11-07 14:48:09.393646,2,2025-11-07 14:48:10.114340231
2025-11-07 14:48:09.393646,850,2025-11-07 14:48:10.122032538
2025-11-07 14:48:09.393646,-23040,2025-11-07 14:48:10.129724846
2025-11-07 14:48:09.393646,2,2025-11-07 14:48:10.137417154
2025-11-07 14:48:09.393646,385,2025-11-07 14:48:10.145109462
2025-11-07 14:48:09.393646,-25088,2025-11-07 14:48:10.152801769
2025-11-07 14:48:09.393646,0,2025-11-07 14:48:10.160494077
2025-11-07 14:48:09.393646,2,2025-11-07 14:48:10.168186385
2025-11-07 14:48:09.393646,-14080,2025-11-07 14:48:10.175878692
2025-11-07 14:48:09.393646,-1,2025-11-07 14:48:10.183571000
2025-11-07 14:48:09.393646,-52,2025-11-07 14:48:10.191263308
2025-11-07 14:48:09.393646,-17409,2025-11-07 14:48:10.198955615
2025-11-07 14:48:09.393646,-1,2025-11-07 14:48:10.206647923
2025-11-07 14:48:09.393646,-100,2025-11-07 14:48:10.214340231
2025-11-07 14:48:09.393646,-26625,2025-11-07 14:48:10.222032538
2025-11-07 14:48:09.393646,-1,2025-11-07 14:48:10.229724846
2025-11-07 14:48:09.393646,-55,2025-11-07 14:48:10.237417154
2025-11-07 14:48:09.393646,-7681,2025-11-07 14:48:10.245109462
2025-11-07 14:48:09.393646,-1,2025-11-07 14:48:10.252801769
2025-11-07 14:48:09.393646,-62,2025-11-07 14:48:10.260494077
2025-11-07 14:48:09.393646,-18689,2025-11-07 14:48:10.268186385
2025-11-07 14:48:09.393646,-1,2025-11-07 14:48:10.275878692
2025-11-07 14:48:09.393646,-52,2025-11-07 14:48:10.283571000
2025-11-07 14:48:09.393646,-12545,2025-11-07 14:48:10.291263308
2025-11-07 14:48:09.393646,-1,2025-11-07 14:48:10.298955615
2025-11-07 14:48:09.393646,-64,2025-11-07 14:48:10.306647923
2025-11-07 14:48:09.393646,-18689,2025-11-07 14:48:10.314340231
2025-11-07 14:48:09.393646,-1,2025-11-07 14:48:10.322032538
2025-11-07 14:48:09.393646,-59,2025-11-07 14:48:10.329724846
2025-11-07 14:48:09.393646,-7681,2025-11-07 14:48:10.337417154
2025-11-07 14:48:09.393646,-1,2025-11-07 14:48:10.345109462
2025-11-07 14:48:09.393646,-28,2025-11-07 14:48:10.352801769
2025-11-07 14:48:09.393646,-9985,2025-11-07 14:48:10.360494077
2025-11-07 14:48:09.393646,-1,2025-11-07 14:48:10.368186385
2025-11-07 14:48:09.393646,-45,2025-11-07 14:48:10.375878692
2025-11-07 14:48:09.393646,-13825,2025-11-07 14:48:10.383571000
2025-11-07 14:48:09.393646,-1,2025-11-07 14:48:10.391263308
2025-11-07 14:48:09.393646,-55,2025-11-07 14:48:10.398955615
2025-11-07 14:48:09.393646,-4609,2025-11-07 14:48:10.406647923
2025-11-07 14:48:09.393646,-1,2025-11-07 14:48:10.414340231
2025-11-07 14:48:09.393646,-4,2025-11-07 14:48:10.422032538
2025-11-07 14:48:09.393646,-6401,2025-11-07 14:48:10.429724846
2025-11-07 14:48:09.393646,-1,2025-11-07 14:48:10.437417154
2025-11-07 14:48:09.393646,-28,2025-11-07 14:48:10.445109462
2025-11-07 14:48:09.393646,255,2025-11-07 14:48:10.452801769
2025-11-07 14:48:09.393646,0,2025-11-07 14:48:10.460494077
2025-11-07 14:48:09.393646,14,2025-11-07 14:48:10.468186385
2025-11-07 14:48:09.393646,2304,2025-11-07 14:48:10.475878692
2025-11-07 14:48:09.393646,0,2025-11-07 14:48:10.483571000
2025-11-07 14:48:09.393646,-7,2025-11-07 14:48:10.491263308
2025-11-07 14:48:09.393646,-1537,2025-11-07 14:48:10.498955615
2025-11-07 14:48:09.393646,-1,2025-11-07 14:48:10.506647923
2025-11-07 14:48:09.393646,-4,2025-11-07 14:48:10.514340231
2025-11-07 14:48:09.393646,-6401,2025-11-07 14:48:10.522032538
2025-11-07 14:48:09.393646,-1,2025-11-07 14:48:10.529724846
2025-11-07 14:48:09.393646,-45,2025-11-07 14:48:10.537417154
2025-11-07 14:48:09.393646,-6401,2025-11-07 14:48:10.545109462
2025-11-07 14:48:09.393646,-1,2025-11-07 14:48:10.552801769
2025-11-07 14:48:09.393646,2,2025-11-07 14:48:10.560494077
2025-11-07 14:48:09.393646,-1024,2025-11-07 14:48:10.568186385
2025-11-07 14:48:09.393646,-1,2025-11-07 14:48:10.575878692
2025-11-07 14:48:09.393646,-14,2025-11-07 14:48:10.583571000
2025-11-07 14:48:09.393646,2559,2025-11-07 14:48:10.591263308
2025-11-07 14:48:09.393646,0,2025-11-07 14:48:10.598955615
2025-11-07 14:48:09.393646,11,2025-11-07 14:48:10.606647923
2025-11-07 14:48:09.393646,-4864,2025-11-07 14:48:10.614340231
2025-11-07 14:48:09.393646,-1,2025-11-07 14:48:10.622032538
2025-11-07 14:48:09.393646,-21,2025-11-07 14:48:10.629724846
2025-11-07 14:48:09.393646,2559,2025-11-07 14:48:10.637417154
2025-11-07 14:48:09.393646,0,2025-11-07 14:48:10.645109462
2025-11-07 14:48:09.393646,2,2025-11-07 14:48:10.652801769
2025-11-07 14:48:09.393646,-6656,2025-11-07 14:48:10.660494077
2025-11-07 14:48:09.393646,-1,2025-11-07 14:48:10.668186385
2025-11-07 14:48:09.393646,-11,2025-11-07 14:48:10.675878692
2025-11-07 14:48:09.393646,2559,2025-11-07 14:48:10.683571000
2025-11-07 14:48:09.393646,0,2025-11-07 14:48:10.691263308
2025-11-07 14:48:09.393646,7,2025-11-07 14:48:10.698955615
2025-11-07 14:48:09.393646,1024,2025-11-07 14:48:10.706647923
2025-11-07 14:48:09.393646,0,2025-11-07 14:48:10.714340231
2025-11-07 14:48:09.393646,0,2025-11-07 14:48:10.722032538
2025-11-07 14:48:09.393646,-1024,2025-11-07 14:48:10.729724846
2025-11-07 14:48:09.393646,-1,2025-11-07 14:48:10.737417154
2025-11-07 14:48:09.393646,0,2025-11-07 14:48:10.745109462
2025-11-07 14:48:09.393646,-2304,2025-11-07 14:48:10.752801769
2025-11-07 14:48:09.393646,-1,2025-11-07 14:48:10.760494077
2025-11-07 14:48:09.393646,-14,2025-11-07 14:48:10.768186385
2025-11-07 14:48:09.393646,2047,2025-11-07 14:48:10.775878692
2025-11-07 14:48:09.393646,0,2025-11-07 14:48:10.783571000
2025-11-07 14:48:09.393646,16,2025-11-07 14:48:10.791263308
2025-11-07 14:48:09.962987,4,2025-11-07 14:48:10.798955615
2025-11-07 14:48:09.962987,1024,2025-11-07 14:48:10.806647923
2025-11-07 14:48:09.962987,0,2025-11-07 14:48:10.814340230
2025-11-07 14:48:09.962987,11,2025-11-07 14:48:10.822032538
2025-11-07 14:48:09.962987,2816,2025-11-07 14:48:10.829724846
2025-11-07 14:48:09.962987,0,2025-11-07 14:48:10.837417154
2025-11-07 14:48:09.962987,-7,2025-11-07 14:48:10.845109462
2025-11-07 14:48:09.962987,-6401,2025-11-07 14:48:10.852801769
2025-11-07 14:48:09.962987,-1,2025-11-07 14:48:10.860494077
2025-11-07 14:48:09.962987,-14,2025-11-07 14:48:10.868186385
2025-11-07 14:48:09.962987,1279,2025-11-07 14:48:10.875878692
2025-11-07 14:48:09.962987,0,2025-11-07 14:48:10.883571000
2025-11-07 14:48:09.962987,-4,2025-11-07 14:48:10.891263308
2025-11-07 14:48:09.962987,255,2025-11-07 14:48:10.898955615
2025-11-07 14:48:09.962987,0,2025-11-07 14:48:10.906647923
2025-11-07 14:48:09.962987,28,2025-11-07 14:48:10.914340231
2025-11-07 14:48:09.962987,6656,2025-11-07 14:48:10.922032538
2025-11-07 14:48:09.962987,0,2025-11-07 14:48:10.929724846
2025-11-07 14:48:09.962987,14,2025-11-07 14:48:10.937417154
2025-11-07 14:48:09.962987,11520,2025-11-07 14:48:10.945109462
2025-11-07 14:48:09.962987,0,2025-11-07 14:48:10.952801769
2025-11-07 14:48:09.962987,76,2025-11-07 14:48:10.960494077
2025-11-07 14:48:09.962987,11008,2025-11-07 14:48:10.968186385
2025-11-07 14:48:09.962987,0,2025-11-07 14:48:10.975878692
2025-11-07 14:48:09.962987,19,2025-11-07 14:48:10.983571000
2025-11-07 14:48:09.962987,7168,2025-11-07 14:48:10.991263308
2025-11-07 14:48:09.962987,0,2025-11-07 14:48:10.998955615
2025-11-07 14:48:09.962987,28,2025-11-07 14:48:11.006647923
2025-11-07 14:48:09.962987,6656,2025-11-07 14:48:11.014340231
2025-11-07 14:48:09.962987,0,2025-11-07 14:48:11.022032538
2025-11-07 14:48:09.962987,26,2025-11-07 14:48:11.029724846
2025-11-07 14:48:09.962987,5376,2025-11-07 14:48:11.037417154
2025-11-07 14:48:09.962987,0,2025-11-07 14:48:11.045109462
2025-11-07 14:48:09.962987,16,2025-11-07 14:48:11.052801769
2025-11-07 14:48:09.962987,-1792,2025-11-07 14:48:11.060494077
2025-11-07 14:48:09.962987,-1,2025-11-07 14:48:11.068186385
2025-11-07 14:48:09.962987,-69,2025-11-07 14:48:11.075878692
2025-11-07 14:48:09.962987,-12545,2025-11-07 14:48:11.083571000
2025-11-07 14:48:09.962987,-1,2025-11-07 14:48:11.091263308
2025-11-07 14:48:09.962987,227,2025-11-07 14:48:11.098955615
2025-11-07 14:48:09.962987,-26112,2025-11-07 14:48:11.106647923
2025-11-07 14:48:09.962987,2,2025-11-07 14:48:11.114340231
2025-11-07 14:48:09.962987,877,2025-11-07 14:48:11.122032538
2025-11-07 14:48:09.962987,-23040,2025-11-07 14:48:11.129724846
2025-11-07 14:48:09.962987,2,2025-11-07 14:48:11.137417154
2025-11-07 14:48:09.962987,345,2025-11-07 14:48:11.145109462
2025-11-07 14:48:09.962987,-32512,2025-11-07 14:48:11.152801769
2025-11-07 14:48:09.962987,0,2025-11-07 14:48:11.160494077
2025-11-07 14:48:09.962987,9,2025-11-07 14:48:11.168186385
2025-11-07 14:48:09.962987,-15104,2025-11-07 14:48:11.175878692
2025-11-07 14:48:09.962987,-1,2025-11-07 14:48:11.183571000
2025-11-07 14:48:09.962987,-71,2025-11-07 14:48:11.191263308
2025-11-07 14:48:09.962987,-18689,2025-11-07 14:48:11.198955615
2025-11-07 14:48:09.962987,-1,2025-11-07 14:48:11.206647923
2025-11-07 14:48:09.962987,-93,2025-11-07 14:48:11.214340231
2025-11-07 14:48:09.962987,-25345,2025-11-07 14:48:11.222032538
2025-11-07 14:48:09.962987,-1,2025-11-07 14:48:11.229724846
2025-11-07 14:48:09.962987,-93,2025-11-07 14:48:11.237417154
2025-11-07 14:48:09.962987,-19969,2025-11-07 14:48:11.245109462
2025-11-07 14:48:09.962987,-1,2025-11-07 14:48:11.252801769
2025-11-07 14:48:09.962987,-57,2025-11-07 14:48:11.260494077
2025-11-07 14:48:09.962987,-14849,2025-11-07 14:48:11.268186385
2025-11-07 14:48:09.962987,-1,2025-11-07 14:48:11.275878692
2025-11-07 14:48:09.962987,-81,2025-11-07 14:48:11.283571000
2025-11-07 14:48:09.962987,-17409,2025-11-07 14:48:11.291263308
2025-11-07 14:48:09.962987,-1,2025-11-07 14:48:11.298955615
2025-11-07 14:48:09.962987,-47,2025-11-07 14:48:11.306647923
2025-11-07 14:48:09.962987,-15617,2025-11-07 14:48:11.314340231
2025-11-07 14:48:09.962987,-1,2025-11-07 14:48:11.322032538
2025-11-07 14:48:09.962987,-64,2025-11-07 14:48:11.329724846
2025-11-07 14:48:09.962987,-11265,2025-11-07 14:48:11.337417154
2025-11-07 14:48:09.962987,-1,2025-11-07 14:48:11.345109462
2025-11-07 14:48:09.962987,-52,2025-11-07 14:48:11.352801769
2025-11-07 14:48:09.962987,-16129,2025-11-07 14:48:11.360494077
2025-11-07 14:48:09.962987,-1,2025-11-07 14:48:11.368186385
2025-11-07 14:48:09.962987,-38,2025-11-07 14:48:11.375878692
2025-11-07 14:48:09.962987,-8193,2025-11-07 14:48:11.383571000
2025-11-07 14:48:09.962987,-1,2025-11-07 14:48:11.391263308
2025-11-07 14:48:09.962987,-57,2025-11-07 14:48:11.398955615
2025-11-07 14:48:09.962987,-6913,2025-11-07 14:48:11.406647923
2025-11-07 14:48:09.962987,-1,2025-11-07 14:48:11.414340231
2025-11-07 14:48:09.962987,0,2025-11-07 14:48:11.422032538
2025-11-07 14:48:09.962987,-3584,2025-11-07 14:48:11.429724846
2025-11-07 14:48:09.962987,-1,2025-11-07 14:48:11.437417154
2025-11-07 14:48:09.962987,-23,2025-11-07 14:48:11.445109462
2025-11-07 14:48:09.962987,-257,2025-11-07 14:48:11.452801769
2025-11-07 14:48:09.962987,-1,2025-11-07 14:48:11.460494077
2025-11-07 14:48:09.962987,9,2025-11-07 14:48:11.468186385
2025-11-07 14:48:09.962987,-2816,2025-11-07 14:48:11.475878692
2025-11-07 14:48:09.962987,-1,2025-11-07 14:48:11.483571000
2025-11-07 14:48:09.962987,-31,2025-11-07 14:48:11.491263308
2025-11-07 14:48:09.962987,-1537,2025-11-07 14:48:11.498955615
2025-11-07 14:48:09.962987,-1,2025-11-07 14:48:11.506647923
2025-11-07 14:48:09.962987,2,2025-11-07 14:48:11.514340231
2025-11-07 14:48:09.962987,-7936,2025-11-07 14:48:11.522032538
2025-11-07 14:48:09.962987,-1,2025-11-07 14:48:11.529724846
2025-11-07 14:48:09.962987,-31,2025-11-07 14:48:11.537417154
2025-11-07 14:48:09.962987,1279,2025-11-07 14:48:11.545109462
2025-11-07 14:48:09.962987,0,2025-11-07 14:48:11.552801769
2025-11-07 14:48:09.962987,7,2025-11-07 14:48:11.560494077
2025-11-07 14:48:09.962987,-3584,2025-11-07 14:48:11.568186385
2025-11-07 14:48:09.962987,-1,2025-11-07 14:48:11.575878692
2025-11-07 14:48:09.962987,-28,2025-11-07 14:48:11.583571000
2025-11-07 14:48:09.962987,-2049,2025-11-07 14:48:11.591263308
2025-11-07 14:48:09.962987,-1,2025-11-07 14:48:11.598955615
2025-11-07 14:48:09.962987,7,2025-11-07 14:48:11.606647923
2025-11-07 14:48:09.962987,-512,2025-11-07 14:48:11.614340231
2025-11-07 14:48:09.962987,-1,2025-11-07 14:48:11.622032538
2025-11-07 14:48:09.962987,-19,2025-11-07 14:48:11.629724846
2025-11-07 14:48:10.500175,-19,2025-11-07 14:48:11.637417154
2025-11-07 14:48:10.500175,2559,2025-11-07 14:48:11.645109462
2025-11-07 14:48:10.500175,0,2025-11-07 14:48:11.652801769
2025-11-07 14:48:10.500175,26,2025-11-07 14:48:11.660494077
2025-11-07 14:48:10.500175,1024,2025-11-07 14:48:11.668186385
2025-11-07 14:48:10.500175,0,2025-11-07 14:48:11.675878692
2025-11-07 14:48:10.500175,-4,2025-11-07 14:48:11.683571000
2025-11-07 14:48:10.500175,255,2025-11-07 14:48:11.691263308
2025-11-07 14:48:10.500175,0,2025-11-07 14:48:11.698955615
2025-11-07 14:48:10.500175,-11,2025-11-07 14:48:11.706647923
2025-11-07 14:48:10.500175,-2049,2025-11-07 14:48:11.714340231
2025-11-07 14:48:10.500175,-1,2025-11-07 14:48:11.722032538
2025-11-07 14:48:10.500175,11,2025-11-07 14:48:11.729724846
2025-11-07 14:48:10.500175,4864,2025-11-07 14:48:11.737417154
2025-11-07 14:48:10.500175,0,2025-11-07 14:48:11.745109462
2025-11-07 14:48:10.500175,11,2025-11-07 14:48:11.752801769
2025-11-07 14:48:10.500175,7936,2025-11-07 14:48:11.760494077
2025-11-07 14:48:10.500175,0,2025-11-07 14:48:11.768186385
2025-11-07 14:48:10.500175,50,2025-11-07 14:48:11.775878692
2025-11-07 14:48:10.500175,9728,2025-11-07 14:48:11.783571000
2025-11-07 14:48:10.500175,0,2025-11-07 14:48:11.791263308
2025-11-07 14:48:10.500175,28,2025-11-07 14:48:11.798955615
2025-11-07 14:48:10.500175,7936,2025-11-07 14:48:11.806647923
2025-11-07 14:48:10.500175,0,2025-11-07 14:48:11.814340230
2025-11-07 14:48:10.500175,23,2025-11-07 14:48:11.822032538
2025-11-07 14:48:10.500175,4096,2025-11-07 14:48:11.829724846
2025-11-07 14:48:10.500175,0,2025-11-07 14:48:11.837417154
2025-11-07 14:48:10.500175,21,2025-11-07 14:48:11.845109462
2025-11-07 14:48:10.500175,3584,2025-11-07 14:48:11.852801769
2025-11-07 14:48:10.500175,0,2025-11-07 14:48:11.860494077
2025-11-07 14:48:10.500175,-11,2025-11-07 14:48:11.868186385
2025-11-07 14:48:10.500175,2047,2025-11-07 14:48:11.875878692
2025-11-07 14:48:10.500175,0,2025-11-07 14:48:11.883571000
2025-11-07 14:48:10.500175,45,2025-11-07 14:48:11.891263308
2025-11-07 14:48:10.500175,5888,2025-11-07 14:48:11.898955615
2025-11-07 14:48:10.500175,0,2025-11-07 14:48:11.906647923
2025-11-07 14:48:10.500175,2,2025-11-07 14:48:11.914340231
2025-11-07 14:48:10.500175,7168,2025-11-07 14:48:11.922032538
2025-11-07 14:48:10.500175,0,2025-11-07 14:48:11.929724846
2025-11-07 14:48:10.500175,23,2025-11-07 14:48:11.937417154
2025-11-07 14:48:10.500175,2304,2025-11-07 14:48:11.945109462
2025-11-07 14:48:10.500175,0,2025-11-07 14:48:11.952801769
2025-11-07 14:48:10.500175,40,2025-11-07 14:48:11.960494077
2025-11-07 14:48:10.500175,16384,2025-11-07 14:48:11.968186385
2025-11-07 14:48:10.500175,0,2025-11-07 14:48:11.975878692
2025-11-07 14:48:10.500175,43,2025-11-07 14:48:11.983571000
2025-11-07 14:48:10.500175,5888,2025-11-07 14:48:11.991263308
2025-11-07 14:48:10.500175,0,2025-11-07 14:48:11.998955615
2025-11-07 14:48:10.500175,21,2025-11-07 14:48:12.006647923
2025-11-07 14:48:10.500175,2816,2025-11-07 14:48:12.014340231
2025-11-07 14:48:10.500175,0,2025-11-07 14:48:12.022032538
2025-11-07 14:48:10.500175,31,2025-11-07 14:48:12.029724846
2025-11-07 14:48:10.500175,14592,2025-11-07 14:48:12.037417154
2025-11-07 14:48:10.500175,0,2025-11-07 14:48:12.045109462
2025-11-07 14:48:10.500175,28,2025-11-07 14:48:12.052801769
2025-11-07 14:48:10.500175,2304,2025-11-07 14:48:12.060494077
2025-11-07 14:48:10.500175,0,2025-11-07 14:48:12.068186385
2025-11-07 14:48:10.500175,7,2025-11-07 14:48:12.075878692
2025-11-07 14:48:10.500175,-13312,2025-11-07 14:48:12.083571000
2025-11-07 14:48:10.500175,-1,2025-11-07 14:48:12.091263308
2025-11-07 14:48:10.500175,-95,2025-11-07 14:48:12.098955615
2025-11-07 14:48:10.500175,11263,2025-11-07 14:48:12.106647923
2025-11-07 14:48:10.500175,0,2025-11-07 14:48:12.114340231
2025-11-07 14:48:10.500175,417,2025-11-07 14:48:12.122032538
2025-11-07 14:48:10.500175,8704,2025-11-07 14:48:12.129724846
2025-11-07 14:48:10.500175,3,2025-11-07 14:48:12.137417154
2025-11-07 14:48:10.500175,831,2025-11-07 14:48:12.145109462
2025-11-07 14:48:10.500175,5120,2025-11-07 14:48:12.152801769
2025-11-07 14:48:10.500175,2,2025-11-07 14:48:12.160494077
2025-11-07 14:48:10.500175,246,2025-11-07 14:48:12.168186385
2025-11-07 14:48:10.500175,17152,2025-11-07 14:48:12.175878692
2025-11-07 14:48:10.500175,0,2025-11-07 14:48:12.183571000
2025-11-07 14:48:10.500175,-38,2025-11-07 14:48:12.191263308
2025-11-07 14:48:10.500175,-18689,2025-11-07 14:48:12.198955615
2025-11-07 14:48:10.500175,-1,2025-11-07 14:48:12.206647923
2025-11-07 14:48:10.500175,-83,2025-11-07 14:48:12.214340231
2025-11-07 14:48:10.500175,-23041,2025-11-07 14:48:12.222032538
2025-11-07 14:48:10.500175,-1,2025-11-07 14:48:12.229724846
2025-11-07 14:48:10.500175,-98,2025-11-07 14:48:12.237417154
2025-11-07 14:48:10.500175,-23553,2025-11-07 14:48:12.245109462
2025-11-07 14:48:10.500175,-1,2025-11-07 14:48:12.252801769
2025-11-07 14:48:10.500175,-81,2025-11-07 14:48:12.260494077
2025-11-07 14:48:10.500175,-20993,2025-11-07 14:48:12.268186385
2025-11-07 14:48:10.500175,-1,2025-11-07 14:48:12.275878692
2025-11-07 14:48:10.500175,-76,2025-11-07 14:48:12.283571000
2025-11-07 14:48:10.500175,-13825,2025-11-07 14:48:12.291263308
2025-11-07 14:48:10.500175,-1,2025-11-07 14:48:12.298955615
2025-11-07 14:48:10.500175,-69,2025-11-07 14:48:12.306647923
2025-11-07 14:48:10.500175,-19969,2025-11-07 14:48:12.314340231
2025-11-07 14:48:10.500175,-1,2025-11-07 14:48:12.322032538
2025-11-07 14:48:10.500175,-69,2025-11-07 14:48:12.329724846
2025-11-07 14:48:10.500175,-17921,2025-11-07 14:48:12.337417154
2025-11-07 14:48:10.500175,-1,2025-11-07 14:48:12.345109462
2025-11-07 14:48:10.500175,-79,2025-11-07 14:48:12.352801769
2025-11-07 14:48:10.500175,-19969,2025-11-07 14:48:12.360494077
2025-11-07 14:48:10.500175,-1,2025-11-07 14:48:12.368186385
2025-11-07 14:48:10.500175,-74,2025-11-07 14:48:12.375878692
2025-11-07 14:48:10.500175,-9473,2025-11-07 14:48:12.383571000
2025-11-07 14:48:10.500175,-1,2025-11-07 14:48:12.391263308
2025-11-07 14:48:10.500175,-23,2025-11-07 14:48:12.398955615
2025-11-07 14:48:10.500175,-12545,2025-11-07 14:48:12.406647923
2025-11-07 14:48:10.500175,-1,2025-11-07 14:48:12.414340231
2025-11-07 14:48:10.500175,-43,2025-11-07 14:48:12.422032538
2025-11-07 14:48:10.500175,-4609,2025-11-07 14:48:12.429724846
2025-11-07 14:48:10.500175,-1,2025-11-07 14:48:12.437417154
2025-11-07 14:48:10.500175,-26,2025-11-07 14:48:12.445109462
2025-11-07 14:48:10.500175,-7681,2025-11-07 14:48:12.452801769
2025-11-07 14:48:10.500175,-1,2025-11-07 14:48:12.460494077
2025-11-07 14:48:10.500175,-26,2025-11-07 14:48:12.468186385
2025-11-07 14:48:11.040676,-9,2025-11-07 14:48:12.475878692
2025-11-07 14:48:11.040676,2047,2025-11-07 14:48:12.483571000
2025-11-07 14:48:11.040676,0,2025-11-07 14:48:12.491263308
2025-11-07 14:48:11.040676,-19,2025-11-07 14:48:12.498955615
2025-11-07 14:48:11.040676,-8193,2025-11-07 14:48:12.506647923
2025-11-07 14:48:11.040676,-1,2025-11-07 14:48:12.514340231
2025-11-07 14:48:11.040676,9,2025-11-07 14:48:12.522032538
2025-11-07 14:48:11.040676,4864,2025-11-07 14:48:12.529724846
2025-11-07 14:48:11.040676,0,2025-11-07 14:48:12.537417154
2025-11-07 14:48:11.040676,-31,2025-11-07 14:48:12.545109462
2025-11-07 14:48:11.040676,-5121,2025-11-07 14:48:12.552801769
2025-11-07 14:48:11.040676,-1,2025-11-07 14:48:12.560494077
2025-11-07 14:48:11.040676,26,2025-11-07 14:48:12.568186385
2025-11-07 14:48:11.040676,3584,2025-11-07 14:48:12.575878692
2025-11-07 14:48:11.040676,0,2025-11-07 14:48:12.583571000
2025-11-07 14:48:11.040676,-9,2025-11-07 14:48:12.591263308
2025-11-07 14:48:11.040676,255,2025-11-07 14:48:12.598955615
2025-11-07 14:48:11.040676,0,2025-11-07 14:48:12.606647923
2025-11-07 14:48:11.040676,4,2025-11-07 14:48:12.614340231
2025-11-07 14:48:11.040676,1024,2025-11-07 14:48:12.622032538
2025-11-07 14:48:11.040676,0,2025-11-07 14:48:12.629724846
2025-11-07 14:48:11.040676,7,2025-11-07 14:48:12.637417154
2025-11-07 14:48:11.040676,-512,2025-11-07 14:48:12.645109462
2025-11-07 14:48:11.040676,-1,2025-11-07 14:48:12.652801769
2025-11-07 14:48:11.040676,9,2025-11-07 14:48:12.660494077
2025-11-07 14:48:11.040676,7168,2025-11-07 14:48:12.668186385
2025-11-07 14:48:11.040676,0,2025-11-07 14:48:12.675878692
2025-11-07 14:48:11.040676,9,2025-11-07 14:48:12.683571000
2025-11-07 14:48:11.040676,0,2025-11-07 14:48:12.691263308
2025-11-07 14:48:11.040676,0,2025-11-07 14:48:12.698955615
2025-11-07 14:48:11.040676,14,2025-11-07 14:48:12.706647923
2025-11-07 14:48:11.040676,3584,2025-11-07 14:48:12.714340231
2025-11-07 14:48:11.040676,0,2025-11-07 14:48:12.722032538
2025-11-07 14:48:11.040676,7,2025-11-07 14:48:12.729724846
2025-11-07 14:48:11.040676,512,2025-11-07 14:48:12.737417154
2025-11-07 14:48:11.040676,0,2025-11-07 14:48:12.745109462
2025-11-07 14:48:11.040676,-9,2025-11-07 14:48:12.752801769
2025-11-07 14:48:11.040676,255,2025-11-07 14:48:12.760494077
2025-11-07 14:48:11.040676,0,2025-11-07 14:48:12.768186385
2025-11-07 14:48:11.040676,33,2025-11-07 14:48:12.775878692
2025-11-07 14:48:11.040676,5888,2025-11-07 14:48:12.783571000
2025-11-07 14:48:11.040676,0,2025-11-07 14:48:12.791263308
2025-11-07 14:48:11.040676,-2,2025-11-07 14:48:12.798955615
2025-11-07 14:48:11.040676,5631,2025-11-07 14:48:12.806647923
2025-11-07 14:48:11.040676,0,2025-11-07 14:48:12.814340230
2025-11-07 14:48:11.040676,31,2025-11-07 14:48:12.822032538
2025-11-07 14:48:11.040676,1792,2025-11-07 14:48:12.829724846
2025-11-07 14:48:11.040676,0,2025-11-07 14:48:12.837417154
2025-11-07 14:48:11.040676,7,2025-11-07 14:48:12.845109462
2025-11-07 14:48:11.040676,5376,2025-11-07 14:48:12.852801769
2025-11-07 14:48:11.040676,0,2025-11-07 14:48:12.860494077
2025-11-07 14:48:11.040676,16,2025-11-07 14:48:12.868186385
2025-11-07 14:48:11.040676,2304,2025-11-07 14:48:12.875878692
2025-11-07 14:48:11.040676,0,2025-11-07 14:48:12.883571000
2025-11-07 14:48:11.040676,9,2025-11-07 14:48:12.891263308
2025-11-07 14:48:11.040676,3584,2025-11-07 14:48:12.898955615
2025-11-07 14:48:11.040676,0,2025-11-07 14:48:12.906647923
2025-11-07 14:48:11.040676,16,2025-11-07 14:48:12.914340231
2025-11-07 14:48:11.040676,3584,2025-11-07 14:48:12.922032538
2025-11-07 14:48:11.040676,0,2025-11-07 14:48:12.929724846
2025-11-07 14:48:11.040676,7,2025-11-07 14:48:12.937417154
2025-11-07 14:48:11.040676,512,2025-11-07 14:48:12.945109462
2025-11-07 14:48:11.040676,0,2025-11-07 14:48:12.952801769
2025-11-07 14:48:11.040676,0,2025-11-07 14:48:12.960494077
2025-11-07 14:48:11.040676,0,2025-11-07 14:48:12.968186385
2025-11-07 14:48:11.040676,0,2025-11-07 14:48:12.975878692
2025-11-07 14:48:11.040676,2,2025-11-07 14:48:12.983571000
2025-11-07 14:48:11.040676,2816,2025-11-07 14:48:12.991263308
2025-11-07 14:48:11.040676,0,2025-11-07 14:48:12.998955615
2025-11-07 14:48:11.040676,23,2025-11-07 14:48:13.006647923
2025-11-07 14:48:11.040676,7168,2025-11-07 14:48:13.014340231
2025-11-07 14:48:11.040676,0,2025-11-07 14:48:13.022032538
2025-11-07 14:48:11.040676,33,2025-11-07 14:48:13.029724846
2025-11-07 14:48:11.040676,10240,2025-11-07 14:48:13.037417154
2025-11-07 14:48:11.040676,0,2025-11-07 14:48:13.045109462
2025-11-07 14:48:11.040676,35,2025-11-07 14:48:13.052801769
2025-11-07 14:48:11.040676,5888,2025-11-07 14:48:13.060494077
2025-11-07 14:48:11.040676,0,2025-11-07 14:48:13.068186385
2025-11-07 14:48:11.040676,23,2025-11-07 14:48:13.075878692
2025-11-07 14:48:11.040676,6656,2025-11-07 14:48:13.083571000
2025-11-07 14:48:11.040676,0,2025-11-07 14:48:13.091263308
2025-11-07 14:48:11.040676,23,2025-11-07 14:48:13.098955615
2025-11-07 14:48:11.040676,4864,2025-11-07 14:48:13.106647923
2025-11-07 14:48:11.040676,0,2025-11-07 14:48:13.114340231
2025-11-07 14:48:11.040676,14,2025-11-07 14:48:13.122032538
2025-11-07 14:48:11.040676,0,2025-11-07 14:48:13.129724846
2025-11-07 14:48:11.040676,0,2025-11-07 14:48:13.137417154
2025-11-07 14:48:11.040676,-43,2025-11-07 14:48:13.145109462
2025-11-07 14:48:11.040676,-24065,2025-11-07 14:48:13.152801769
2025-11-07 14:48:11.040676,-1,2025-11-07 14:48:13.160494077
2025-11-07 14:48:11.040676,-14,2025-11-07 14:48:13.168186385
2025-11-07 14:48:11.040676,19199,2025-11-07 14:48:13.175878692
2025-11-07 14:48:11.040676,1,2025-11-07 14:48:13.183571000
2025-11-07 14:48:11.040676,762,2025-11-07 14:48:13.191263308
2025-11-07 14:48:11.040676,21760,2025-11-07 14:48:13.198955615
2025-11-07 14:48:11.040676,3,2025-11-07 14:48:13.206647923
2025-11-07 14:48:11.040676,572,2025-11-07 14:48:13.214340231
2025-11-07 14:48:11.040676,3072,2025-11-07 14:48:13.222032538
2025-11-07 14:48:11.040676,1,2025-11-07 14:48:13.229724846
2025-11-07 14:48:11.040676,81,2025-11-07 14:48:13.237417154
2025-11-07 14:48:11.040676,-7936,2025-11-07 14:48:13.245109462
2025-11-07 14:48:11.040676,-1,2025-11-07 14:48:13.252801769
2025-11-07 14:48:11.040676,-74,2025-11-07 14:48:13.260494077
2025-11-07 14:48:11.040676,-20993,2025-11-07 14:48:13.268186385
2025-11-07 14:48:11.040676,-1,2025-11-07 14:48:13.275878692
2025-11-07 14:48:11.040676,-86,2025-11-07 14:48:13.283571000
2025-11-07 14:48:11.040676,-21761,2025-11-07 14:48:13.291263308
2025-11-07 14:48:11.040676,-1,2025-11-07 14:48:13.298955615
2025-11-07 14:48:11.040676,-91,2025-11-07 14:48:13.306647923
2025-11-07 14:48:11.643507,-91,2025-11-07 14:48:13.314340231
2025-11-07 14:48:11.643507,-20481,2025-11-07 14:48:13.322032538
2025-11-07 14:48:11.643507,-1,2025-11-07 14:48:13.329724846
2025-11-07 14:48:11.643507,-79,2025-11-07 14:48:13.337417154
2025-11-07 14:48:11.643507,-19969,2025-11-07 14:48:13.345109462
2025-11-07 14:48:11.643507,-1,2025-11-07 14:48:13.352801769
2025-11-07 14:48:11.643507,-67,2025-11-07 14:48:13.360494077
2025-11-07 14:48:11.643507,-12545,2025-11-07 14:48:13.368186385
2025-11-07 14:48:11.643507,-1,2025-11-07 14:48:13.375878692
2025-11-07 14:48:11.643507,-45,2025-11-07 14:48:13.383571000
2025-11-07 14:48:11.643507,-13057,2025-11-07 14:48:13.391263308
2025-11-07 14:48:11.643507,-1,2025-11-07 14:48:13.398955615
2025-11-07 14:48:11.643507,-47,2025-11-07 14:48:13.406647923
2025-11-07 14:48:11.643507,-10753,2025-11-07 14:48:13.414340231
2025-11-07 14:48:11.643507,-1,2025-11-07 14:48:13.422032538
2025-11-07 14:48:11.643507,-43,2025-11-07 14:48:13.429724846
2025-11-07 14:48:11.643507,-9473,2025-11-07 14:48:13.437417154
2025-11-07 14:48:11.643507,-1,2025-11-07 14:48:13.445109462
2025-11-07 14:48:11.643507,-28,2025-11-07 14:48:13.452801769
2025-11-07 14:48:11.643507,-6401,2025-11-07 14:48:13.460494077
2025-11-07 14:48:11.643507,-1,2025-11-07 14:48:13.468186385
2025-11-07 14:48:11.643507,-21,2025-11-07 14:48:13.475878692
2025-11-07 14:48:11.643507,-3329,2025-11-07 14:48:13.483571000
2025-11-07 14:48:11.643507,-1,2025-11-07 14:48:13.491263308
2025-11-07 14:48:11.643507,-11,2025-11-07 14:48:13.498955615
2025-11-07 14:48:11.643507,-1537,2025-11-07 14:48:13.506647923
2025-11-07 14:48:11.643507,-1,2025-11-07 14:48:13.514340231
2025-11-07 14:48:11.643507,0,2025-11-07 14:48:13.522032538
2025-11-07 14:48:11.643507,1792,2025-11-07 14:48:13.529724846
2025-11-07 14:48:11.643507,0,2025-11-07 14:48:13.537417154
2025-11-07 14:48:11.643507,11,2025-11-07 14:48:13.545109462
2025-11-07 14:48:11.643507,2816,2025-11-07 14:48:13.552801769
2025-11-07 14:48:11.643507,0,2025-11-07 14:48:13.560494077
2025-11-07 14:48:11.643507,4,2025-11-07 14:48:13.568186385
2025-11-07 14:48:11.643507,-512,2025-11-07 14:48:13.575878692
2025-11-07 14:48:11.643507,-1,2025-11-07 14:48:13.583571000
2025-11-07 14:48:11.643507,-2,2025-11-07 14:48:13.591263308
2025-11-07 14:48:11.643507,-257,2025-11-07 14:48:13.598955615
2025-11-07 14:48:11.643507,-1,2025-11-07 14:48:13.606647923
2025-11-07 14:48:11.643507,-2,2025-11-07 14:48:13.614340231
2025-11-07 14:48:11.643507,255,2025-11-07 14:48:13.622032538
2025-11-07 14:48:11.643507,0,2025-11-07 14:48:13.629724846
2025-11-07 14:48:11.643507,0,2025-11-07 14:48:13.637417154
2025-11-07 14:48:11.643507,-512,2025-11-07 14:48:13.645109462
2025-11-07 14:48:11.643507,-1,2025-11-07 14:48:13.652801769
2025-11-07 14:48:11.643507,-2,2025-11-07 14:48:13.660494077
2025-11-07 14:48:11.643507,255,2025-11-07 14:48:13.668186385
2025-11-07 14:48:11.643507,0,2025-11-07 14:48:13.675878692
2025-11-07 14:48:11.643507,0,2025-11-07 14:48:13.683571000
2025-11-07 14:48:11.643507,512,2025-11-07 14:48:13.691263308
2025-11-07 14:48:11.643507,0,2025-11-07 14:48:13.698955615
2025-11-07 14:48:11.643507,-2,2025-11-07 14:48:13.706647923
2025-11-07 14:48:11.643507,-257,2025-11-07 14:48:13.714340231
2025-11-07 14:48:11.643507,-1,2025-11-07 14:48:13.722032538
2025-11-07 14:48:11.643507,2,2025-11-07 14:48:13.729724846
2025-11-07 14:48:11.643507,512,2025-11-07 14:48:13.737417154
2025-11-07 14:48:11.643507,0,2025-11-07 14:48:13.745109462
2025-11-07 14:48:11.643507,-2,2025-11-07 14:48:13.752801769
2025-11-07 14:48:11.643507,255,2025-11-07 14:48:13.760494077
2025-11-07 14:48:11.643507,0,2025-11-07 14:48:13.768186385
2025-11-07 14:48:11.643507,2,2025-11-07 14:48:13.775878692
2025-11-07 14:48:11.643507,512,2025-11-07 14:48:13.783571000
2025-11-07 14:48:11.643507,0,2025-11-07 14:48:13.791263308
2025-11-07 14:48:11.643507,0,2025-11-07 14:48:13.798955615
2025-11-07 14:48:11.643507,512,2025-11-07 14:48:13.806647923
2025-11-07 14:48:11.643507,0,2025-11-07 14:48:13.814340230
2025-11-07 14:48:11.643507,7,2025-11-07 14:48:13.822032538
2025-11-07 14:48:11.643507,1792,2025-11-07 14:48:13.829724846
2025-11-07 14:48:11.643507,0,2025-11-07 14:48:13.837417154
2025-11-07 14:48:11.643507,4,2025-11-07 14:48:13.845109462
2025-11-07 14:48:11.643507,1792,2025-11-07 14:48:13.852801769
2025-11-07 14:48:11.643507,0,2025-11-07 14:48:13.860494077
2025-11-07 14:48:11.643507,7,2025-11-07 14:48:13.868186385
2025-11-07 14:48:11.643507,1792,2025-11-07 14:48:13.875878692
2025-11-07 14:48:11.643507,0,2025-11-07 14:48:13.883571000
2025-11-07 14:48:11.643507,7,2025-11-07 14:48:13.891263308
2025-11-07 14:48:11.643507,1792,2025-11-07 14:48:13.898955615
2025-11-07 14:48:11.643507,0,2025-11-07 14:48:13.906647923
2025-11-07 14:48:11.643507,16,2025-11-07 14:48:13.914340231
2025-11-07 14:48:11.643507,4096,2025-11-07 14:48:13.922032538
2025-11-07 14:48:11.643507,0,2025-11-07 14:48:13.929724846
2025-11-07 14:48:11.643507,9,2025-11-07 14:48:13.937417154
2025-11-07 14:48:11.643507,2816,2025-11-07 14:48:13.945109462
2025-11-07 14:48:11.643507,0,2025-11-07 14:48:13.952801769
2025-11-07 14:48:11.643507,16,2025-11-07 14:48:13.960494077
2025-11-07 14:48:11.643507,3584,2025-11-07 14:48:13.968186385
2025-11-07 14:48:11.643507,0,2025-11-07 14:48:13.975878692
2025-11-07 14:48:11.643507,11,2025-11-07 14:48:13.983571000
2025-11-07 14:48:11.643507,4096,2025-11-07 14:48:13.991263308
2025-11-07 14:48:11.643507,0,2025-11-07 14:48:13.998955615
2025-11-07 14:48:11.643507,14,2025-11-07 14:48:14.006647923
2025-11-07 14:48:11.643507,2304,2025-11-07 14:48:14.014340231
2025-11-07 14:48:11.643507,0,2025-11-07 14:48:14.022032538
2025-11-07 14:48:11.643507,7,2025-11-07 14:48:14.029724846
2025-11-07 14:48:11.643507,1024,2025-11-07 14:48:14.037417154
2025-11-07 14:48:11.643507,0,2025-11-07 14:48:14.045109462
2025-11-07 14:48:11.643507,4,2025-11-07 14:48:14.052801769
2025-11-07 14:48:11.643507,1024,2025-11-07 14:48:14.060494077
2025-11-07 14:48:11.643507,0,2025-11-07 14:48:14.068186385
2025-11-07 14:48:11.643507,7,2025-11-07 14:48:14.075878692
2025-11-07 14:48:11.643507,2816,2025-11-07 14:48:14.083571000
2025-11-07 14:48:11.643507,0,2025-11-07 14:48:14.091263308
2025-11-07 14:48:11.643507,19,2025-11-07 14:48:14.098955615
2025-11-07 14:48:11.643507,7936,2025-11-07 14:48:14.106647923
2025-11-07 14:48:11.643507,0,2025-11-07 14:48:14.114340231
2025-11-07 14:48:11.643507,40,2025-11-07 14:48:14.122032538
2025-11-07 14:48:11.643507,9728,2025-11-07 14:48:14.129724846
2025-11-07 14:48:11.643507,0,2025-11-07 14:48:14.137417154
2025-11-07 14:48:11.643507,28,2025-11-07 14:48:14.145109462
2025-11-07 14:48:12.184652,19,2025-11-07 14:48:14.152801769
2025-11-07 14:48:12.184652,5376,2025-11-07 14:48:14.160494077
2025-11-07 14:48:12.184652,0,2025-11-07 14:48:14.168186385
2025-11-07 14:48:12.184652,26,2025-11-07 14:48:14.175878692
2025-11-07 14:48:12.184652,7168,2025-11-07 14:48:14.183571000
2025-11-07 14:48:12.184652,0,2025-11-07 14:48:14.191263308
2025-11-07 14:48:12.184652,33,2025-11-07 14:48:14.198955615
2025-11-07 14:48:12.184652,7936,2025-11-07 14:48:14.206647923
2025-11-07 14:48:12.184652,0,2025-11-07 14:48:14.214340231
2025-11-07 14:48:12.184652,4,2025-11-07 14:48:14.222032538
2025-11-07 14:48:12.184652,-12800,2025-11-07 14:48:14.229724846
2025-11-07 14:48:12.184652,-1,2025-11-07 14:48:14.237417154
2025-11-07 14:48:12.184652,-83,2025-11-07 14:48:14.245109462
2025-11-07 14:48:12.184652,17919,2025-11-07 14:48:14.252801769
2025-11-07 14:48:12.184652,0,2025-11-07 14:48:14.260494077
2025-11-07 14:48:12.184652,498,2025-11-07 14:48:14.268186385
2025-11-07 14:48:12.184652,29696,2025-11-07 14:48:14.275878692
2025-11-07 14:48:12.184652,3,2025-11-07 14:48:14.283571000
2025-11-07 14:48:12.184652,812,2025-11-07 14:48:14.291263308
2025-11-07 14:48:12.184652,-11520,2025-11-07 14:48:14.298955615
2025-11-07 14:48:12.184652,1,2025-11-07 14:48:14.306647923
2025-11-07 14:48:12.184652,242,2025-11-07 14:48:14.314340231
2025-11-07 14:48:12.184652,26880,2025-11-07 14:48:14.322032538
2025-11-07 14:48:12.184652,0,2025-11-07 14:48:14.329724846
2025-11-07 14:48:12.184652,-9,2025-11-07 14:48:14.337417154
2025-11-07 14:48:12.184652,-12545,2025-11-07 14:48:14.345109462
2025-11-07 14:48:12.184652,-1,2025-11-07 14:48:14.352801769
2025-11-07 14:48:12.184652,-52,2025-11-07 14:48:14.360494077
2025-11-07 14:48:12.184652,-16129,2025-11-07 14:48:14.368186385
2025-11-07 14:48:12.184652,-1,2025-11-07 14:48:14.375878692
2025-11-07 14:48:12.184652,-69,2025-11-07 14:48:14.383571000
2025-11-07 14:48:12.184652,-16897,2025-11-07 14:48:14.391263308
2025-11-07 14:48:12.184652,-1,2025-11-07 14:48:14.398955615
2025-11-07 14:48:12.184652,-67,2025-11-07 14:48:14.406647923
2025-11-07 14:48:12.184652,-16129,2025-11-07 14:48:14.414340231
2025-11-07 14:48:12.184652,-1,2025-11-07 14:48:14.422032538
2025-11-07 14:48:12.184652,-62,2025-11-07 14:48:14.429724846
2025-11-07 14:48:12.184652,-13825,2025-11-07 14:48:14.437417154
2025-11-07 14:48:12.184652,-1,2025-11-07 14:48:14.445109462
2025-11-07 14:48:12.184652,-50,2025-11-07 14:48:14.452801769
2025-11-07 14:48:12.184652,-11777,2025-11-07 14:48:14.460494077
2025-11-07 14:48:12.184652,-1,2025-11-07 14:48:14.468186385
2025-11-07 14:48:12.184652,-45,2025-11-07 14:48:14.475878692
2025-11-07 14:48:12.184652,-9985,2025-11-07 14:48:14.483571000
2025-11-07 14:48:12.184652,-1,2025-11-07 14:48:14.491263308
2025-11-07 14:48:12.184652,-40,2025-11-07 14:48:14.498955615
2025-11-07 14:48:12.184652,-11265,2025-11-07 14:48:14.506647923
2025-11-07 14:48:12.184652,-1,2025-11-07 14:48:14.514340231
2025-11-07 14:48:12.184652,-40,2025-11-07 14:48:14.522032538
2025-11-07 14:48:12.184652,-8193,2025-11-07 14:48:14.529724846
2025-11-07 14:48:12.184652,-1,2025-11-07 14:48:14.537417154
2025-11-07 14:48:12.184652,-31,2025-11-07 14:48:14.545109462
2025-11-07 14:48:12.184652,-7681,2025-11-07 14:48:14.552801769
2025-11-07 14:48:12.184652,-1,2025-11-07 14:48:14.560494077
2025-11-07 14:48:12.184652,-26,2025-11-07 14:48:14.568186385
2025-11-07 14:48:12.184652,-3841,2025-11-07 14:48:14.575878692
2025-11-07 14:48:12.184652,-1,2025-11-07 14:48:14.583571000
2025-11-07 14:48:12.184652,-7,2025-11-07 14:48:14.591263308
2025-11-07 14:48:12.184652,-257,2025-11-07 14:48:14.598955615
2025-11-07 14:48:12.184652,-1,2025-11-07 14:48:14.606647923
2025-11-07 14:48:12.184652,2,2025-11-07 14:48:14.614340231
2025-11-07 14:48:12.184652,2304,2025-11-07 14:48:14.622032538
2025-11-07 14:48:12.184652,0,2025-11-07 14:48:14.629724846
2025-11-07 14:48:12.184652,7,2025-11-07 14:48:14.637417154
2025-11-07 14:48:12.184652,1024,2025-11-07 14:48:14.645109462
2025-11-07 14:48:12.184652,0,2025-11-07 14:48:14.652801769
2025-11-07 14:48:12.184652,-2,2025-11-07 14:48:14.660494077
2025-11-07 14:48:12.184652,-1537,2025-11-07 14:48:14.668186385
2025-11-07 14:48:12.184652,-1,2025-11-07 14:48:14.675878692
2025-11-07 14:48:12.184652,-11,2025-11-07 14:48:14.683571000
2025-11-07 14:48:12.184652,-2561,2025-11-07 14:48:14.691263308
2025-11-07 14:48:12.184652,-1,2025-11-07 14:48:14.698955615
2025-11-07 14:48:12.184652,-9,2025-11-07 14:48:14.706647923
2025-11-07 14:48:12.184652,-1537,2025-11-07 14:48:14.714340231
2025-11-07 14:48:12.184652,-1,2025-11-07 14:48:14.722032538
2025-11-07 14:48:12.184652,-7,2025-11-07 14:48:14.729724846
2025-11-07 14:48:12.184652,-769,2025-11-07 14:48:14.737417154
2025-11-07 14:48:12.184652,-1,2025-11-07 14:48:14.745109462
2025-11-07 14:48:12.184652,-4,2025-11-07 14:48:14.752801769
2025-11-07 14:48:12.184652,-1537,2025-11-07 14:48:14.760494077
2025-11-07 14:48:12.184652,-1,2025-11-07 14:48:14.768186385
2025-11-07 14:48:12.184652,-7,2025-11-07 14:48:14.775878692
2025-11-07 14:48:12.184652,-1537,2025-11-07 14:48:14.783571000
2025-11-07 14:48:12.184652,-1,2025-11-07 14:48:14.791263308
2025-11-07 14:48:12.184652,-4,2025-11-07 14:48:14.798955615
2025-11-07 14:48:12.184652,-257,2025-11-07 14:48:14.806647923
2025-11-07 14:48:12.184652,-1,2025-11-07 14:48:14.814340230
2025-11-07 14:48:12.184652,-2,2025-11-07 14:48:14.822032538
2025-11-07 14:48:12.184652,-257,2025-11-07 14:48:14.829724846
2025-11-07 14:48:12.184652,-1,2025-11-07 14:48:14.837417154
2025-11-07 14:48:12.184652,0,2025-11-07 14:48:14.845109462
2025-11-07 14:48:12.184652,512,2025-11-07 14:48:14.852801769
2025-11-07 14:48:12.184652,0,2025-11-07 14:48:14.860494077
2025-11-07 14:48:12.184652,7,2025-11-07 14:48:14.868186385
2025-11-07 14:48:12.184652,2304,2025-11-07 14:48:14.875878692
2025-11-07 14:48:12.184652,0,2025-11-07 14:48:14.883571000
2025-11-07 14:48:12.184652,9,2025-11-07 14:48:14.891263308
2025-11-07 14:48:12.184652,2304,2025-11-07 14:48:14.898955615
2025-11-07 14:48:12.184652,0,2025-11-07 14:48:14.906647923
2025-11-07 14:48:12.184652,11,2025-11-07 14:48:14.914340231
2025-11-07 14:48:12.184652,4096,2025-11-07 14:48:14.922032538
2025-11-07 14:48:12.184652,0,2025-11-07 14:48:14.929724846
2025-11-07 14:48:12.184652,21,2025-11-07 14:48:14.937417154
2025-11-07 14:48:12.184652,4864,2025-11-07 14:48:14.945109462
2025-11-07 14:48:12.184652,0,2025-11-07 14:48:14.952801769
2025-11-07 14:48:12.184652,21,2025-11-07 14:48:14.960494077
2025-11-07 14:48:12.184652,6656,2025-11-07 14:48:14.968186385
2025-11-07 14:48:12.184652,0,2025-11-07 14:48:14.975878692
2025-11-07 14:48:12.184652,26,2025-11-07 14:48:14.983571000
2025-11-07 14:48:12.753690,23,2025-11-07 14:48:14.991263308
2025-11-07 14:48:12.753690,5888,2025-11-07 14:48:14.998955615
2025-11-07 14:48:12.753690,0,2025-11-07 14:48:15.006647923
2025-11-07 14:48:12.753690,26,2025-11-07 14:48:15.014340231
2025-11-07 14:48:12.753690,7936,2025-11-07 14:48:15.022032538
2025-11-07 14:48:12.753690,0,2025-11-07 14:48:15.029724846
2025-11-07 14:48:12.753690,21,2025-11-07 14:48:15.037417154
2025-11-07 14:48:12.753690,4864,2025-11-07 14:48:15.045109462
2025-11-07 14:48:12.753690,0,2025-11-07 14:48:15.052801769
2025-11-07 14:48:12.753690,26,2025-11-07 14:48:15.060494077
2025-11-07 14:48:12.753690,9728,2025-11-07 14:48:15.068186385
2025-11-07 14:48:12.753690,0,2025-11-07 14:48:15.075878692
2025-11-07 14:48:12.753690,45,2025-11-07 14:48:15.083571000
2025-11-07 14:48:12.753690,11520,2025-11-07 14:48:15.091263308
2025-11-07 14:48:12.753690,0,2025-11-07 14:48:15.098955615
2025-11-07 14:48:12.753690,50,2025-11-07 14:48:15.106647923
2025-11-07 14:48:12.753690,15872,2025-11-07 14:48:15.114340231
2025-11-07 14:48:12.753690,0,2025-11-07 14:48:15.122032538
2025-11-07 14:48:12.753690,71,2025-11-07 14:48:15.129724846
2025-11-07 14:48:12.753690,17664,2025-11-07 14:48:15.137417154
2025-11-07 14:48:12.753690,0,2025-11-07 14:48:15.145109462
2025-11-07 14:48:12.753690,57,2025-11-07 14:48:15.152801769
2025-11-07 14:48:12.753690,14080,2025-11-07 14:48:15.160494077
2025-11-07 14:48:12.753690,0,2025-11-07 14:48:15.168186385
2025-11-07 14:48:12.753690,52,2025-11-07 14:48:15.175878692
2025-11-07 14:48:12.753690,12800,2025-11-07 14:48:15.183571000
2025-11-07 14:48:12.753690,0,2025-11-07 14:48:15.191263308
2025-11-07 14:48:12.753690,55,2025-11-07 14:48:15.198955615
2025-11-07 14:48:12.753690,14080,2025-11-07 14:48:15.206647923
2025-11-07 14:48:12.753690,0,2025-11-07 14:48:15.214340231
2025-11-07 14:48:12.753690,45,2025-11-07 14:48:15.222032538
2025-11-07 14:48:12.753690,8960,2025-11-07 14:48:15.229724846
2025-11-07 14:48:12.753690,0,2025-11-07 14:48:15.237417154
2025-11-07 14:48:12.753690,4,2025-11-07 14:48:15.245109462
2025-11-07 14:48:12.753690,-16384,2025-11-07 14:48:15.252801769
2025-11-07 14:48:12.753690,-1,2025-11-07 14:48:15.260494077
2025-11-07 14:48:12.753690,-67,2025-11-07 14:48:15.268186385
2025-11-07 14:48:12.753690,-23041,2025-11-07 14:48:15.275878692
2025-11-07 14:48:12.753690,0,2025-11-07 14:48:15.283571000
2025-11-07 14:48:12.753690,608,2025-11-07 14:48:15.291263308
2025-11-07 14:48:12.753690,19200,2025-11-07 14:48:15.298955615
2025-11-07 14:48:12.753690,3,2025-11-07 14:48:15.306647923
2025-11-07 14:48:12.753690,627,2025-11-07 14:48:15.314340231
2025-11-07 14:48:12.753690,24576,2025-11-07 14:48:15.322032538
2025-11-07 14:48:12.753690,1,2025-11-07 14:48:15.329724846
2025-11-07 14:48:12.753690,225,2025-11-07 14:48:15.337417154
2025-11-07 14:48:12.753690,20736,2025-11-07 14:48:15.345109462
2025-11-07 14:48:12.753690,0,2025-11-07 14:48:15.352801769
2025-11-07 14:48:12.753690,-35,2025-11-07 14:48:15.360494077
2025-11-07 14:48:12.753690,-12545,2025-11-07 14:48:15.368186385
2025-11-07 14:48:12.753690,-1,2025-11-07 14:48:15.375878692
2025-11-07 14:48:12.753690,-52,2025-11-07 14:48:15.383571000
2025-11-07 14:48:12.753690,-17409,2025-11-07 14:48:15.391263308
2025-11-07 14:48:12.753690,-1,2025-11-07 14:48:15.398955615
2025-11-07 14:48:12.753690,-67,2025-11-07 14:48:15.406647923
2025-11-07 14:48:12.753690,-14849,2025-11-07 14:48:15.414340231
2025-11-07 14:48:12.753690,-1,2025-11-07 14:48:15.422032538
2025-11-07 14:48:12.753690,-59,2025-11-07 14:48:15.429724846
2025-11-07 14:48:12.753690,-13825,2025-11-07 14:48:15.437417154
2025-11-07 14:48:12.753690,-1,2025-11-07 14:48:15.445109462
2025-11-07 14:48:12.753690,-50,2025-11-07 14:48:15.452801769
2025-11-07 14:48:12.753690,-12545,2025-11-07 14:48:15.460494077
2025-11-07 14:48:12.753690,-1,2025-11-07 14:48:15.468186385
2025-11-07 14:48:12.753690,-45,2025-11-07 14:48:15.475878692
2025-11-07 14:48:12.753690,-9473,2025-11-07 14:48:15.483571000
2025-11-07 14:48:12.753690,-1,2025-11-07 14:48:15.491263308
2025-11-07 14:48:12.753690,-40,2025-11-07 14:48:15.498955615
2025-11-07 14:48:12.753690,-9985,2025-11-07 14:48:15.506647923
2025-11-07 14:48:12.753690,-1,2025-11-07 14:48:15.514340231
2025-11-07 14:48:12.753690,-33,2025-11-07 14:48:15.522032538
2025-11-07 14:48:12.753690,-7681,2025-11-07 14:48:15.529724846
2025-11-07 14:48:12.753690,-1,2025-11-07 14:48:15.537417154
2025-11-07 14:48:12.753690,-33,2025-11-07 14:48:15.545109462
2025-11-07 14:48:12.753690,-6401,2025-11-07 14:48:15.552801769
2025-11-07 14:48:12.753690,-1,2025-11-07 14:48:15.560494077
2025-11-07 14:48:12.753690,-19,2025-11-07 14:48:15.568186385
2025-11-07 14:48:12.753690,-3841,2025-11-07 14:48:15.575878692
2025-11-07 14:48:12.753690,-1,2025-11-07 14:48:15.583571000
2025-11-07 14:48:12.753690,-9,2025-11-07 14:48:15.591263308
2025-11-07 14:48:12.753690,255,2025-11-07 14:48:15.598955615
2025-11-07 14:48:12.753690,0,2025-11-07 14:48:15.606647923
2025-11-07 14:48:12.753690,11,2025-11-07 14:48:15.614340231
2025-11-07 14:48:12.753690,5376,2025-11-07 14:48:15.622032538
2025-11-07 14:48:12.753690,0,2025-11-07 14:48:15.629724846
2025-11-07 14:48:12.753690,28,2025-11-07 14:48:15.637417154
2025-11-07 14:48:12.753690,6656,2025-11-07 14:48:15.645109462
2025-11-07 14:48:12.753690,0,2025-11-07 14:48:15.652801769
2025-11-07 14:48:12.753690,19,2025-11-07 14:48:15.660494077
2025-11-07 14:48:12.753690,1024,2025-11-07 14:48:15.668186385
2025-11-07 14:48:12.753690,0,2025-11-07 14:48:15.675878692
2025-11-07 14:48:12.753690,-4,2025-11-07 14:48:15.683571000
2025-11-07 14:48:12.753690,-1537,2025-11-07 14:48:15.691263308
2025-11-07 14:48:12.753690,-1,2025-11-07 14:48:15.698955615
2025-11-07 14:48:12.753690,-7,2025-11-07 14:48:15.706647923
2025-11-07 14:48:12.753690,-2049,2025-11-07 14:48:15.714340231
2025-11-07 14:48:12.753690,-1,2025-11-07 14:48:15.722032538
2025-11-07 14:48:12.753690,-9,2025-11-07 14:48:15.729724846
2025-11-07 14:48:12.753690,-769,2025-11-07 14:48:15.737417154
2025-11-07 14:48:12.753690,-1,2025-11-07 14:48:15.745109462
2025-11-07 14:48:12.753690,0,2025-11-07 14:48:15.752801769
2025-11-07 14:48:12.753690,0,2025-11-07 14:48:15.760494077
2025-11-07 14:48:12.753690,0,2025-11-07 14:48:15.768186385
2025-11-07 14:48:12.753690,-4,2025-11-07 14:48:15.775878692
2025-11-07 14:48:12.753690,-769,2025-11-07 14:48:15.783571000
2025-11-07 14:48:12.753690,-1,2025-11-07 14:48:15.791263308
2025-11-07 14:48:12.753690,-4,2025-11-07 14:48:15.798955615
2025-11-07 14:48:12.753690,-769,2025-11-07 14:48:15.806647923
2025-11-07 14:48:12.753690,-1,2025-11-07 14:48:15.814340230
2025-11-07 14:48:12.753690,-2,2025-11-07 14:48:15.822032538
2025-11-07 14:48:13.294577,0,2025-11-07 14:48:15.829724846
2025-11-07 14:48:13.294577,0,2025-11-07 14:48:15.837417154
2025-11-07 14:48:13.294577,0,2025-11-07 14:48:15.845109462
2025-11-07 14:48:13.294577,-2,2025-11-07 14:48:15.852801769
2025-11-07 14:48:13.294577,-257,2025-11-07 14:48:15.860494077
2025-11-07 14:48:13.294577,-1,2025-11-07 14:48:15.868186385
2025-11-07 14:48:13.294577,0,2025-11-07 14:48:15.875878692
2025-11-07 14:48:13.294577,1792,2025-11-07 14:48:15.883571000
2025-11-07 14:48:13.294577,0,2025-11-07 14:48:15.891263308
2025-11-07 14:48:13.294577,9,2025-11-07 14:48:15.898955615
2025-11-07 14:48:13.294577,2304,2025-11-07 14:48:15.906647923
2025-11-07 14:48:13.294577,0,2025-11-07 14:48:15.914340231
2025-11-07 14:48:13.294577,19,2025-11-07 14:48:15.922032538
2025-11-07 14:48:13.294577,8960,2025-11-07 14:48:15.929724846
2025-11-07 14:48:13.294577,0,2025-11-07 14:48:15.937417154
2025-11-07 14:48:13.294577,35,2025-11-07 14:48:15.945109462
2025-11-07 14:48:13.294577,6656,2025-11-07 14:48:15.952801769
2025-11-07 14:48:13.294577,0,2025-11-07 14:48:15.960494077
2025-11-07 14:48:13.294577,33,2025-11-07 14:48:15.968186385
2025-11-07 14:48:13.294577,8960,2025-11-07 14:48:15.975878692
2025-11-07 14:48:13.294577,0,2025-11-07 14:48:15.983571000
2025-11-07 14:48:13.294577,28,2025-11-07 14:48:15.991263308
2025-11-07 14:48:13.294577,6656,2025-11-07 14:48:15.998955615
2025-11-07 14:48:13.294577,0,2025-11-07 14:48:16.006647923
2025-11-07 14:48:13.294577,28,2025-11-07 14:48:16.014340231
2025-11-07 14:48:13.294577,6656,2025-11-07 14:48:16.022032538
2025-11-07 14:48:13.294577,0,2025-11-07 14:48:16.029724846
2025-11-07 14:48:13.294577,21,2025-11-07 14:48:16.037417154
2025-11-07 14:48:13.294577,4096,2025-11-07 14:48:16.045109462
2025-11-07 14:48:13.294577,0,2025-11-07 14:48:16.052801769
2025-11-07 14:48:13.294577,9,2025-11-07 14:48:16.060494077
2025-11-07 14:48:13.294577,1792,2025-11-07 14:48:16.068186385
2025-11-07 14:48:13.294577,0,2025-11-07 14:48:16.075878692
2025-11-07 14:48:13.294577,9,2025-11-07 14:48:16.083571000
2025-11-07 14:48:13.294577,4096,2025-11-07 14:48:16.091263308
2025-11-07 14:48:13.294577,0,2025-11-07 14:48:16.098955615
2025-11-07 14:48:13.294577,28,2025-11-07 14:48:16.106647923
2025-11-07 14:48:13.294577,9728,2025-11-07 14:48:16.114340231
2025-11-07 14:48:13.294577,0,2025-11-07 14:48:16.122032538
2025-11-07 14:48:13.294577,45,2025-11-07 14:48:16.129724846
2025-11-07 14:48:13.294577,11520,2025-11-07 14:48:16.137417154
2025-11-07 14:48:13.294577,0,2025-11-07 14:48:16.145109462
2025-11-07 14:48:13.294577,33,2025-11-07 14:48:16.152801769
2025-11-07 14:48:13.294577,6656,2025-11-07 14:48:16.160494077
2025-11-07 14:48:13.294577,0,2025-11-07 14:48:16.168186385
2025-11-07 14:48:13.294577,33,2025-11-07 14:48:16.175878692
2025-11-07 14:48:13.294577,8448,2025-11-07 14:48:16.183571000
2025-11-07 14:48:13.294577,0,2025-11-07 14:48:16.191263308
2025-11-07 14:48:13.294577,31,2025-11-07 14:48:16.198955615
2025-11-07 14:48:13.294577,7936,2025-11-07 14:48:16.206647923
2025-11-07 14:48:13.294577,0,2025-11-07 14:48:16.214340231
2025-11-07 14:48:13.294577,28,2025-11-07 14:48:16.222032538
2025-11-07 14:48:13.294577,1792,2025-11-07 14:48:16.229724846
2025-11-07 14:48:13.294577,0,2025-11-07 14:48:16.237417154
2025-11-07 14:48:13.294577,-52,2025-11-07 14:48:16.245109462
2025-11-07 14:48:13.294577,-26113,2025-11-07 14:48:16.252801769
2025-11-07 14:48:13.294577,-1,2025-11-07 14:48:16.260494077
2025-11-07 14:48:13.294577,19,2025-11-07 14:48:16.268186385
2025-11-07 14:48:13.294577,-19456,2025-11-07 14:48:16.275878692
2025-11-07 14:48:13.294577,1,2025-11-07 14:48:16.283571000
2025-11-07 14:48:13.294577,884,2025-11-07 14:48:16.291263308
2025-11-07 14:48:13.294577,-32256,2025-11-07 14:48:16.298955615
2025-11-07 14:48:13.294577,3,2025-11-07 14:48:16.306647923
2025-11-07 14:48:13.294577,551,2025-11-07 14:48:16.314340231
2025-11-07 14:48:13.294577,0,2025-11-07 14:48:16.322032538
2025-11-07 14:48:13.294577,1,2025-11-07 14:48:16.329724846
2025-11-07 14:48:13.294577,81,2025-11-07 14:48:16.337417154
2025-11-07 14:48:13.294577,-11520,2025-11-07 14:48:16.345109462
2025-11-07 14:48:13.294577,-1,2025-11-07 14:48:16.352801769
2025-11-07 14:48:13.294577,-88,2025-11-07 14:48:16.360494077
2025-11-07 14:48:13.294577,-23041,2025-11-07 14:48:16.368186385
2025-11-07 14:48:13.294577,-1,2025-11-07 14:48:16.375878692
2025-11-07 14:48:13.294577,-103,2025-11-07 14:48:16.383571000
2025-11-07 14:48:13.294577,-27137,2025-11-07 14:48:16.391263308
2025-11-07 14:48:13.294577,-1,2025-11-07 14:48:16.398955615
2025-11-07 14:48:13.294577,-100,2025-11-07 14:48:16.406647923
2025-11-07 14:48:13.294577,-24833,2025-11-07 14:48:16.414340231
2025-11-07 14:48:13.294577,-1,2025-11-07 14:48:16.422032538
2025-11-07 14:48:13.294577,-95,2025-11-07 14:48:16.429724846
2025-11-07 14:48:13.294577,-22273,2025-11-07 14:48:16.437417154
2025-11-07 14:48:13.294577,-1,2025-11-07 14:48:16.445109462
2025-11-07 14:48:13.294577,-81,2025-11-07 14:48:16.452801769
2025-11-07 14:48:13.294577,-18689,2025-11-07 14:48:16.460494077
2025-11-07 14:48:13.294577,-1,2025-11-07 14:48:16.468186385
2025-11-07 14:48:13.294577,-74,2025-11-07 14:48:16.475878692
2025-11-07 14:48:13.294577,-18689,2025-11-07 14:48:16.483571000
2025-11-07 14:48:13.294577,-1,2025-11-07 14:48:16.491263308
2025-11-07 14:48:13.294577,-67,2025-11-07 14:48:16.498955615
2025-11-07 14:48:13.294577,-16129,2025-11-07 14:48:16.506647923
2025-11-07 14:48:13.294577,-1,2025-11-07 14:48:16.514340231
2025-11-07 14:48:13.294577,-69,2025-11-07 14:48:16.522032538
2025-11-07 14:48:13.294577,-17921,2025-11-07 14:48:16.529724846
2025-11-07 14:48:13.294577,-1,2025-11-07 14:48:16.537417154
2025-11-07 14:48:13.294577,-69,2025-11-07 14:48:16.545109462
2025-11-07 14:48:13.294577,-17409,2025-11-07 14:48:16.552801769
2025-11-07 14:48:13.294577,-1,2025-11-07 14:48:16.560494077
2025-11-07 14:48:13.294577,-69,2025-11-07 14:48:16.568186385
2025-11-07 14:48:13.294577,-16129,2025-11-07 14:48:16.575878692
2025-11-07 14:48:13.294577,-1,2025-11-07 14:48:16.583571000
2025-11-07 14:48:13.294577,-57,2025-11-07 14:48:16.591263308
2025-11-07 14:48:13.294577,-12545,2025-11-07 14:48:16.598955615
2025-11-07 14:48:13.294577,-1,2025-11-07 14:48:16.606647923
2025-11-07 14:48:13.294577,-43,2025-11-07 14:48:16.614340231
2025-11-07 14:48:13.294577,-7681,2025-11-07 14:48:16.622032538
2025-11-07 14:48:13.294577,-1,2025-11-07 14:48:16.629724846
2025-11-07 14:48:13.294577,-21,2025-11-07 14:48:16.637417154
2025-11-07 14:48:13.294577,-3329,2025-11-07 14:48:16.645109462
2025-11-07 14:48:13.294577,-1,2025-11-07 14:48:16.652801769
2025-11-07 14:48:13.294577,-14,2025-11-07 14:48:16.660494077
2025-11-07 14:48:13.893666,-19,2025-11-07 14:48:16.668186385
2025-11-07 14:48:13.893666,-4609,2025-11-07 14:48:16.675878692
2025-11-07 14:48:13.893666,-1,2025-11-07 14:48:16.683571000
2025-11-07 14:48:13.893666,-16,2025-11-07 14:48:16.691263308
2025-11-07 14:48:13.893666,-3841,2025-11-07 14:48:16.698955615
2025-11-07 14:48:13.893666,-1,2025-11-07 14:48:16.706647923
2025-11-07 14:48:13.893666,-16,2025-11-07 14:48:16.714340231
2025-11-07 14:48:13.893666,-257,2025-11-07 14:48:16.722032538
2025-11-07 14:48:13.893666,-1,2025-11-07 14:48:16.729724846
2025-11-07 14:48:13.893666,14,2025-11-07 14:48:16.737417154
2025-11-07 14:48:13.893666,4096,2025-11-07 14:48:16.745109462
2025-11-07 14:48:13.893666,0,2025-11-07 14:48:16.752801769
2025-11-07 14:48:13.893666,11,2025-11-07 14:48:16.760494077
2025-11-07 14:48:13.893666,3584,2025-11-07 14:48:16.768186385
2025-11-07 14:48:13.893666,0,2025-11-07 14:48:16.775878692
2025-11-07 14:48:13.893666,14,2025-11-07 14:48:16.783571000
2025-11-07 14:48:13.893666,2816,2025-11-07 14:48:16.791263308
2025-11-07 14:48:13.893666,0,2025-11-07 14:48:16.798955615
2025-11-07 14:48:13.893666,9,2025-11-07 14:48:16.806647923
2025-11-07 14:48:13.893666,2816,2025-11-07 14:48:16.814340230
2025-11-07 14:48:13.893666,0,2025-11-07 14:48:16.822032538
2025-11-07 14:48:13.893666,9,2025-11-07 14:48:16.829724846
2025-11-07 14:48:13.893666,1792,2025-11-07 14:48:16.837417154
2025-11-07 14:48:13.893666,0,2025-11-07 14:48:16.845109462
2025-11-07 14:48:13.893666,9,2025-11-07 14:48:16.852801769
2025-11-07 14:48:13.893666,2816,2025-11-07 14:48:16.860494077
2025-11-07 14:48:13.893666,0,2025-11-07 14:48:16.868186385
2025-11-07 14:48:13.893666,11,2025-11-07 14:48:16.875878692
2025-11-07 14:48:13.893666,1792,2025-11-07 14:48:16.883571000
2025-11-07 14:48:13.893666,0,2025-11-07 14:48:16.891263308
2025-11-07 14:48:13.893666,9,2025-11-07 14:48:16.898955615
2025-11-07 14:48:13.893666,2816,2025-11-07 14:48:16.906647923
2025-11-07 14:48:13.893666,0,2025-11-07 14:48:16.914340231
2025-11-07 14:48:13.893666,9,2025-11-07 14:48:16.922032538
2025-11-07 14:48:13.893666,1792,2025-11-07 14:48:16.929724846
2025-11-07 14:48:13.893666,0,2025-11-07 14:48:16.937417154
2025-11-07 14:48:13.893666,11,2025-11-07 14:48:16.945109462
2025-11-07 14:48:13.893666,2816,2025-11-07 14:48:16.952801769
2025-11-07 14:48:13.893666,0,2025-11-07 14:48:16.960494077
2025-11-07 14:48:13.893666,9,2025-11-07 14:48:16.968186385
2025-11-07 14:48:13.893666,1792,2025-11-07 14:48:16.975878692
2025-11-07 14:48:13.893666,0,2025-11-07 14:48:16.983571000
2025-11-07 14:48:13.893666,9,2025-11-07 14:48:16.991263308
2025-11-07 14:48:13.893666,2304,2025-11-07 14:48:16.998955615
2025-11-07 14:48:13.893666,0,2025-11-07 14:48:17.006647923
2025-11-07 14:48:13.893666,9,2025-11-07 14:48:17.014340231
2025-11-07 14:48:13.893666,1792,2025-11-07 14:48:17.022032538
2025-11-07 14:48:13.893666,0,2025-11-07 14:48:17.029724846
2025-11-07 14:48:13.893666,4,2025-11-07 14:48:17.037417154
2025-11-07 14:48:13.893666,1024,2025-11-07 14:48:17.045109462
2025-11-07 14:48:13.893666,0,2025-11-07 14:48:17.052801769
2025-11-07 14:48:13.893666,2,2025-11-07 14:48:17.060494077
2025-11-07 14:48:13.893666,-512,2025-11-07 14:48:17.068186385
2025-11-07 14:48:13.893666,-1,2025-11-07 14:48:17.075878692
2025-11-07 14:48:13.893666,-4,2025-11-07 14:48:17.083571000
2025-11-07 14:48:13.893666,-2049,2025-11-07 14:48:17.091263308
2025-11-07 14:48:13.893666,-1,2025-11-07 14:48:17.098955615
2025-11-07 14:48:13.893666,-11,2025-11-07 14:48:17.106647923
2025-11-07 14:48:13.893666,-2561,2025-11-07 14:48:17.114340231
2025-11-07 14:48:13.893666,-1,2025-11-07 14:48:17.122032538
2025-11-07 14:48:13.893666,-4,2025-11-07 14:48:17.129724846
2025-11-07 14:48:13.893666,2047,2025-11-07 14:48:17.137417154
2025-11-07 14:48:13.893666,0,2025-11-07 14:48:17.145109462
2025-11-07 14:48:13.893666,14,2025-11-07 14:48:17.152801769
2025-11-07 14:48:13.893666,5376,2025-11-07 14:48:17.160494077
2025-11-07 14:48:13.893666,0,2025-11-07 14:48:17.168186385
2025-11-07 14:48:13.893666,26,2025-11-07 14:48:17.175878692
2025-11-07 14:48:13.893666,4096,2025-11-07 14:48:17.183571000
2025-11-07 14:48:13.893666,0,2025-11-07 14:48:17.191263308
2025-11-07 14:48:13.893666,14,2025-11-07 14:48:17.198955615
2025-11-07 14:48:13.893666,5888,2025-11-07 14:48:17.206647923
2025-11-07 14:48:13.893666,0,2025-11-07 14:48:17.214340231
2025-11-07 14:48:13.893666,28,2025-11-07 14:48:17.222032538
2025-11-07 14:48:13.893666,6656,2025-11-07 14:48:17.229724846
2025-11-07 14:48:13.893666,0,2025-11-07 14:48:17.237417154
2025-11-07 14:48:13.893666,23,2025-11-07 14:48:17.245109462
2025-11-07 14:48:13.893666,5888,2025-11-07 14:48:17.252801769
2025-11-07 14:48:13.893666,0,2025-11-07 14:48:17.260494077
2025-11-07 14:48:13.893666,7,2025-11-07 14:48:17.268186385
2025-11-07 14:48:13.893666,-11520,2025-11-07 14:48:17.275878692
2025-11-07 14:48:13.893666,-1,2025-11-07 14:48:17.283571000
2025-11-07 14:48:13.893666,-110,2025-11-07 14:48:17.291263308
2025-11-07 14:48:13.893666,-4609,2025-11-07 14:48:17.298955615
2025-11-07 14:48:13.893666,-1,2025-11-07 14:48:17.306647923
2025-11-07 14:48:13.893666,371,2025-11-07 14:48:17.314340231
2025-11-07 14:48:13.893666,24832,2025-11-07 14:48:17.322032538
2025-11-07 14:48:13.893666,3,2025-11-07 14:48:17.329724846
2025-11-07 14:48:13.893666,992,2025-11-07 14:48:17.337417154
2025-11-07 14:48:13.893666,-23808,2025-11-07 14:48:17.345109462
2025-11-07 14:48:13.893666,2,2025-11-07 14:48:17.352801769
2025-11-07 14:48:13.893666,285,2025-11-07 14:48:17.360494077
2025-11-07 14:48:13.893666,12800,2025-11-07 14:48:17.368186385
2025-11-07 14:48:13.893666,0,2025-11-07 14:48:17.375878692
2025-11-07 14:48:13.893666,-50,2025-11-07 14:48:17.383571000
2025-11-07 14:48:13.893666,-22273,2025-11-07 14:48:17.391263308
2025-11-07 14:48:13.893666,-1,2025-11-07 14:48:17.398955615
2025-11-07 14:48:13.893666,-105,2025-11-07 14:48:17.406647923
2025-11-07 14:48:13.893666,-27905,2025-11-07 14:48:17.414340231
2025-11-07 14:48:13.893666,-1,2025-11-07 14:48:17.422032538
2025-11-07 14:48:13.893666,-112,2025-11-07 14:48:17.429724846
2025-11-07 14:48:13.893666,-27905,2025-11-07 14:48:17.437417154
2025-11-07 14:48:13.893666,-1,2025-11-07 14:48:17.445109462
2025-11-07 14:48:13.893666,-105,2025-11-07 14:48:17.452801769
2025-11-07 14:48:13.893666,-24833,2025-11-07 14:48:17.460494077
2025-11-07 14:48:13.893666,-1,2025-11-07 14:48:17.468186385
2025-11-07 14:48:13.893666,-95,2025-11-07 14:48:17.475878692
2025-11-07 14:48:13.893666,-22273,2025-11-07 14:48:17.483571000
2025-11-07 14:48:13.893666,-1,2025-11-07 14:48:17.491263308
2025-11-07 14:48:13.893666,-86,2025-11-07 14:48:17.498955615
2025-11-07 14:48:14.401330,-86,2025-11-07 14:48:17.506647923
2025-11-07 14:48:14.401330,-20993,2025-11-07 14:48:17.514340231
2025-11-07 14:48:14.401330,-1,2025-11-07 14:48:17.522032538
2025-11-07 14:48:14.401330,-83,2025-11-07 14:48:17.529724846
2025-11-07 14:48:14.401330,-20481,2025-11-07 14:48:17.537417154
2025-11-07 14:48:14.401330,-1,2025-11-07 14:48:17.545109462
2025-11-07 14:48:14.401330,-81,2025-11-07 14:48:17.552801769
2025-11-07 14:48:14.401330,-20481,2025-11-07 14:48:17.560494077
2025-11-07 14:48:14.401330,-1,2025-11-07 14:48:17.568186385
2025-11-07 14:48:14.401330,-83,2025-11-07 14:48:17.575878692
2025-11-07 14:48:14.401330,-20481,2025-11-07 14:48:17.583571000
2025-11-07 14:48:14.401330,-1,2025-11-07 14:48:17.591263308
2025-11-07 14:48:14.401330,-81,2025-11-07 14:48:17.598955615
2025-11-07 14:48:14.401330,-18689,2025-11-07 14:48:17.606647923
2025-11-07 14:48:14.401330,-1,2025-11-07 14:48:17.614340231
2025-11-07 14:48:14.401330,-59,2025-11-07 14:48:17.622032538
2025-11-07 14:48:14.401330,-9473,2025-11-07 14:48:17.629724846
2025-11-07 14:48:14.401330,-1,2025-11-07 14:48:17.637417154
2025-11-07 14:48:14.401330,-28,2025-11-07 14:48:17.645109462
2025-11-07 14:48:14.401330,-5121,2025-11-07 14:48:17.652801769
2025-11-07 14:48:14.401330,-1,2025-11-07 14:48:17.660494077
2025-11-07 14:48:14.401330,-9,2025-11-07 14:48:17.668186385
2025-11-07 14:48:14.401330,255,2025-11-07 14:48:17.675878692
2025-11-07 14:48:14.401330,0,2025-11-07 14:48:17.683571000
2025-11-07 14:48:14.401330,2,2025-11-07 14:48:17.691263308
2025-11-07 14:48:14.401330,0,2025-11-07 14:48:17.698955615
2025-11-07 14:48:14.401330,0,2025-11-07 14:48:17.706647923
2025-11-07 14:48:14.401330,2,2025-11-07 14:48:17.714340231
2025-11-07 14:48:14.401330,512,2025-11-07 14:48:17.722032538
2025-11-07 14:48:14.401330,0,2025-11-07 14:48:17.729724846
2025-11-07 14:48:14.401330,2,2025-11-07 14:48:17.737417154
2025-11-07 14:48:14.401330,1024,2025-11-07 14:48:17.745109462
2025-11-07 14:48:14.401330,0,2025-11-07 14:48:17.752801769
2025-11-07 14:48:14.401330,9,2025-11-07 14:48:17.760494077
2025-11-07 14:48:14.401330,2816,2025-11-07 14:48:17.768186385
2025-11-07 14:48:14.401330,0,2025-11-07 14:48:17.775878692
2025-11-07 14:48:14.401330,9,2025-11-07 14:48:17.783571000
2025-11-07 14:48:14.401330,2304,2025-11-07 14:48:17.791263308
2025-11-07 14:48:14.401330,0,2025-11-07 14:48:17.798955615
2025-11-07 14:48:14.401330,9,2025-11-07 14:48:17.806647923
2025-11-07 14:48:14.401330,2816,2025-11-07 14:48:17.814340230
2025-11-07 14:48:14.401330,0,2025-11-07 14:48:17.822032538
2025-11-07 14:48:14.401330,11,2025-11-07 14:48:17.829724846
2025-11-07 14:48:14.401330,2816,2025-11-07 14:48:17.837417154
2025-11-07 14:48:14.401330,0,2025-11-07 14:48:17.845109462
2025-11-07 14:48:14.401330,9,2025-11-07 14:48:17.852801769
2025-11-07 14:48:14.401330,2304,2025-11-07 14:48:17.860494077
2025-11-07 14:48:14.401330,0,2025-11-07 14:48:17.868186385
2025-11-07 14:48:14.401330,7,2025-11-07 14:48:17.875878692
2025-11-07 14:48:14.401330,1024,2025-11-07 14:48:17.883571000
2025-11-07 14:48:14.401330,0,2025-11-07 14:48:17.891263308
2025-11-07 14:48:14.401330,7,2025-11-07 14:48:17.898955615
2025-11-07 14:48:14.401330,1024,2025-11-07 14:48:17.906647923
2025-11-07 14:48:14.401330,0,2025-11-07 14:48:17.914340231
2025-11-07 14:48:14.401330,2,2025-11-07 14:48:17.922032538
2025-11-07 14:48:14.401330,512,2025-11-07 14:48:17.929724846
2025-11-07 14:48:14.401330,0,2025-11-07 14:48:17.937417154
2025-11-07 14:48:14.401330,4,2025-11-07 14:48:17.945109462
2025-11-07 14:48:14.401330,2816,2025-11-07 14:48:17.952801769
2025-11-07 14:48:14.401330,0,2025-11-07 14:48:17.960494077
2025-11-07 14:48:14.401330,16,2025-11-07 14:48:17.968186385
2025-11-07 14:48:14.401330,4864,2025-11-07 14:48:17.975878692
2025-11-07 14:48:14.401330,0,2025-11-07 14:48:17.983571000
2025-11-07 14:48:14.401330,16,2025-11-07 14:48:17.991263308
2025-11-07 14:48:14.401330,4864,2025-11-07 14:48:17.998955615
2025-11-07 14:48:14.401330,0,2025-11-07 14:48:18.006647923
2025-11-07 14:48:14.401330,19,2025-11-07 14:48:18.014340231
2025-11-07 14:48:14.401330,4096,2025-11-07 14:48:18.022032538
2025-11-07 14:48:14.401330,0,2025-11-07 14:48:18.029724846
2025-11-07 14:48:14.401330,19,2025-11-07 14:48:18.037417154
2025-11-07 14:48:14.401330,4864,2025-11-07 14:48:18.045109462
2025-11-07 14:48:14.401330,0,2025-11-07 14:48:18.052801769
2025-11-07 14:48:14.401330,16,2025-11-07 14:48:18.060494077
2025-11-07 14:48:14.401330,4096,2025-11-07 14:48:18.068186385
2025-11-07 14:48:14.401330,0,2025-11-07 14:48:18.075878692
2025-11-07 14:48:14.401330,16,2025-11-07 14:48:18.083571000
2025-11-07 14:48:14.401330,3584,2025-11-07 14:48:18.091263308
2025-11-07 14:48:14.401330,0,2025-11-07 14:48:18.098955615
2025-11-07 14:48:14.401330,16,2025-11-07 14:48:18.106647923
2025-11-07 14:48:14.401330,4096,2025-11-07 14:48:18.114340231
2025-11-07 14:48:14.401330,0,2025-11-07 14:48:18.122032538
2025-11-07 14:48:14.401330,14,2025-11-07 14:48:18.129724846
2025-11-07 14:48:14.401330,3584,2025-11-07 14:48:18.137417154
2025-11-07 14:48:14.401330,0,2025-11-07 14:48:18.145109462
2025-11-07 14:48:14.401330,11,2025-11-07 14:48:18.152801769
2025-11-07 14:48:14.401330,2304,2025-11-07 14:48:18.160494077
2025-11-07 14:48:14.401330,0,2025-11-07 14:48:18.168186385
2025-11-07 14:48:14.401330,7,2025-11-07 14:48:18.175878692
2025-11-07 14:48:14.401330,512,2025-11-07 14:48:18.183571000
2025-11-07 14:48:14.401330,0,2025-11-07 14:48:18.191263308
2025-11-07 14:48:14.401330,-2,2025-11-07 14:48:18.198955615
2025-11-07 14:48:14.401330,-257,2025-11-07 14:48:18.206647923
2025-11-07 14:48:14.401330,-1,2025-11-07 14:48:18.214340231
2025-11-07 14:48:14.401330,0,2025-11-07 14:48:18.222032538
2025-11-07 14:48:14.401330,1792,2025-11-07 14:48:18.229724846
2025-11-07 14:48:14.401330,0,2025-11-07 14:48:18.237417154
2025-11-07 14:48:14.401330,19,2025-11-07 14:48:18.245109462
2025-11-07 14:48:14.401330,7936,2025-11-07 14:48:18.252801769
2025-11-07 14:48:14.401330,0,2025-11-07 14:48:18.260494077
2025-11-07 14:48:14.401330,38,2025-11-07 14:48:18.268186385
2025-11-07 14:48:14.401330,7936,2025-11-07 14:48:18.275878692
2025-11-07 14:48:14.401330,0,2025-11-07 14:48:18.283571000
2025-11-07 14:48:14.401330,23,2025-11-07 14:48:18.291263308
2025-11-07 14:48:14.401330,5888,2025-11-07 14:48:18.298955615
2025-11-07 14:48:14.401330,0,2025-11-07 14:48:18.306647923
2025-11-07 14:48:14.401330,26,2025-11-07 14:48:18.314340231
2025-11-07 14:48:14.401330,5888,2025-11-07 14:48:18.322032538
2025-11-07 14:48:14.401330,0,2025-11-07 14:48:18.329724846
2025-11-07 14:48:14.401330,26,2025-11-07 14:48:18.337417154
2025-11-07 14:48:15.002226,28,2025-11-07 14:48:18.345109462
2025-11-07 14:48:15.002226,4864,2025-11-07 14:48:18.352801769
2025-11-07 14:48:15.002226,0,2025-11-07 14:48:18.360494077
2025-11-07 14:48:15.002226,-19,2025-11-07 14:48:18.368186385
2025-11-07 14:48:15.002226,-19969,2025-11-07 14:48:18.375878692
2025-11-07 14:48:15.002226,-1,2025-11-07 14:48:18.383571000
2025-11-07 14:48:15.002226,-57,2025-11-07 14:48:18.391263308
2025-11-07 14:48:15.002226,-13313,2025-11-07 14:48:18.398955615
2025-11-07 14:48:15.002226,0,2025-11-07 14:48:18.406647923
2025-11-07 14:48:15.002226,690,2025-11-07 14:48:18.414340231
2025-11-07 14:48:15.002226,-3328,2025-11-07 14:48:18.422032538
2025-11-07 14:48:15.002226,3,2025-11-07 14:48:18.429724846
2025-11-07 14:48:15.002226,860,2025-11-07 14:48:18.437417154
2025-11-07 14:48:15.002226,-14080,2025-11-07 14:48:18.445109462
2025-11-07 14:48:15.002226,1,2025-11-07 14:48:18.452801769
2025-11-07 14:48:15.002226,148,2025-11-07 14:48:18.460494077
2025-11-07 14:48:15.002226,512,2025-11-07 14:48:18.468186385
2025-11-07 14:48:15.002226,0,2025-11-07 14:48:18.475878692
2025-11-07 14:48:15.002226,-50,2025-11-07 14:48:18.483571000
2025-11-07 14:48:15.002226,-18689,2025-11-07 14:48:18.491263308
2025-11-07 14:48:15.002226,-1,2025-11-07 14:48:18.498955615
2025-11-07 14:48:15.002226,-88,2025-11-07 14:48:18.506647923
2025-11-07 14:48:15.002226,-22273,2025-11-07 14:48:18.514340231
2025-11-07 14:48:15.002226,-1,2025-11-07 14:48:18.522032538
2025-11-07 14:48:15.002226,-83,2025-11-07 14:48:18.529724846
2025-11-07 14:48:15.002226,-20481,2025-11-07 14:48:18.537417154
2025-11-07 14:48:15.002226,-1,2025-11-07 14:48:18.545109462
2025-11-07 14:48:15.002226,-81,2025-11-07 14:48:18.552801769
2025-11-07 14:48:15.002226,-20481,2025-11-07 14:48:18.560494077
2025-11-07 14:48:15.002226,-1,2025-11-07 14:48:18.568186385
2025-11-07 14:48:15.002226,-74,2025-11-07 14:48:18.575878692
2025-11-07 14:48:15.002226,-17921,2025-11-07 14:48:18.583571000
2025-11-07 14:48:15.002226,-1,2025-11-07 14:48:18.591263308
2025-11-07 14:48:15.002226,-71,2025-11-07 14:48:18.598955615
2025-11-07 14:48:15.002226,-17921,2025-11-07 14:48:18.606647923
2025-11-07 14:48:15.002226,-1,2025-11-07 14:48:18.614340231
2025-11-07 14:48:15.002226,-69,2025-11-07 14:48:18.622032538
2025-11-07 14:48:15.002226,-17921,2025-11-07 14:48:18.629724846
2025-11-07 14:48:15.002226,-1,2025-11-07 14:48:18.637417154
2025-11-07 14:48:15.002226,-71,2025-11-07 14:48:18.645109462
2025-11-07 14:48:15.002226,-16897,2025-11-07 14:48:18.652801769
2025-11-07 14:48:15.002226,-1,2025-11-07 14:48:18.660494077
2025-11-07 14:48:15.002226,-67,2025-11-07 14:48:18.668186385
2025-11-07 14:48:15.002226,-17921,2025-11-07 14:48:18.675878692
2025-11-07 14:48:15.002226,-1,2025-11-07 14:48:18.683571000
2025-11-07 14:48:15.002226,-71,2025-11-07 14:48:18.691263308
2025-11-07 14:48:15.002226,-16129,2025-11-07 14:48:18.698955615
2025-11-07 14:48:15.002226,-1,2025-11-07 14:48:18.706647923
2025-11-07 14:48:15.002226,-57,2025-11-07 14:48:18.714340231
2025-11-07 14:48:15.002226,-11777,2025-11-07 14:48:18.722032538
2025-11-07 14:48:15.002226,-1,2025-11-07 14:48:18.729724846
2025-11-07 14:48:15.002226,-40,2025-11-07 14:48:18.737417154
2025-11-07 14:48:15.002226,-8193,2025-11-07 14:48:18.745109462
2025-11-07 14:48:15.002226,-1,2025-11-07 14:48:18.752801769
2025-11-07 14:48:15.002226,-23,2025-11-07 14:48:18.760494077
2025-11-07 14:48:15.002226,-3329,2025-11-07 14:48:18.768186385
2025-11-07 14:48:15.002226,-1,2025-11-07 14:48:18.775878692
2025-11-07 14:48:15.002226,-7,2025-11-07 14:48:18.783571000
2025-11-07 14:48:15.002226,-1537,2025-11-07 14:48:18.791263308
2025-11-07 14:48:15.002226,-1,2025-11-07 14:48:18.798955615
2025-11-07 14:48:15.002226,-7,2025-11-07 14:48:18.806647923
2025-11-07 14:48:15.002226,-1537,2025-11-07 14:48:18.814340230
2025-11-07 14:48:15.002226,-1,2025-11-07 14:48:18.822032538
2025-11-07 14:48:15.002226,-9,2025-11-07 14:48:18.829724846
2025-11-07 14:48:15.002226,-2049,2025-11-07 14:48:18.837417154
2025-11-07 14:48:15.002226,-1,2025-11-07 14:48:18.845109462
2025-11-07 14:48:15.002226,-2,2025-11-07 14:48:18.852801769
2025-11-07 14:48:15.002226,255,2025-11-07 14:48:18.860494077
2025-11-07 14:48:15.002226,0,2025-11-07 14:48:18.868186385
2025-11-07 14:48:15.002226,-2,2025-11-07 14:48:18.875878692
2025-11-07 14:48:15.002226,255,2025-11-07 14:48:18.883571000
2025-11-07 14:48:15.002226,0,2025-11-07 14:48:18.891263308
2025-11-07 14:48:15.002226,2,2025-11-07 14:48:18.898955615
2025-11-07 14:48:15.002226,0,2025-11-07 14:48:18.906647923
2025-11-07 14:48:15.002226,0,2025-11-07 14:48:18.914340231
2025-11-07 14:48:15.002226,2,2025-11-07 14:48:18.922032538
2025-11-07 14:48:15.002226,1024,2025-11-07 14:48:18.929724846
2025-11-07 14:48:15.002226,0,2025-11-07 14:48:18.937417154
2025-11-07 14:48:15.002226,2,2025-11-07 14:48:18.945109462
2025-11-07 14:48:15.002226,0,2025-11-07 14:48:18.952801769
2025-11-07 14:48:15.002226,0,2025-11-07 14:48:18.960494077
2025-11-07 14:48:15.002226,0,2025-11-07 14:48:18.968186385
2025-11-07 14:48:15.002226,0,2025-11-07 14:48:18.975878692
2025-11-07 14:48:15.002226,0,2025-11-07 14:48:18.983571000
2025-11-07 14:48:15.002226,0,2025-11-07 14:48:18.991263308
2025-11-07 14:48:15.002226,0,2025-11-07 14:48:18.998955615
2025-11-07 14:48:15.002226,0,2025-11-07 14:48:19.006647923
2025-11-07 14:48:15.002226,0,2025-11-07 14:48:19.014340231
2025-11-07 14:48:15.002226,0,2025-11-07 14:48:19.022032538
2025-11-07 14:48:15.002226,0,2025-11-07 14:48:19.029724846
2025-11-07 14:48:15.002226,2,2025-11-07 14:48:19.037417154
2025-11-07 14:48:15.002226,512,2025-11-07 14:48:19.045109462
2025-11-07 14:48:15.002226,0,2025-11-07 14:48:19.052801769
2025-11-07 14:48:15.002226,2,2025-11-07 14:48:19.060494077
2025-11-07 14:48:15.002226,1792,2025-11-07 14:48:19.068186385
2025-11-07 14:48:15.002226,0,2025-11-07 14:48:19.075878692
2025-11-07 14:48:15.002226,9,2025-11-07 14:48:19.083571000
2025-11-07 14:48:15.002226,1792,2025-11-07 14:48:19.091263308
2025-11-07 14:48:15.002226,0,2025-11-07 14:48:19.098955615
2025-11-07 14:48:15.002226,7,2025-11-07 14:48:19.106647923
2025-11-07 14:48:15.002226,2304,2025-11-07 14:48:19.114340231
2025-11-07 14:48:15.002226,0,2025-11-07 14:48:19.122032538
2025-11-07 14:48:15.002226,9,2025-11-07 14:48:19.129724846
2025-11-07 14:48:15.002226,2304,2025-11-07 14:48:19.137417154
2025-11-07 14:48:15.002226,0,2025-11-07 14:48:19.145109462
2025-11-07 14:48:15.002226,9,2025-11-07 14:48:19.152801769
2025-11-07 14:48:15.002226,2304,2025-11-07 14:48:19.160494077
2025-11-07 14:48:15.002226,0,2025-11-07 14:48:19.168186385
2025-11-07 14:48:15.002226,7,2025-11-07 14:48:19.175878692
2025-11-07 14:48:15.574175,7,2025-11-07 14:48:19.183571000
2025-11-07 14:48:15.574175,2304,2025-11-07 14:48:19.191263308
2025-11-07 14:48:15.574175,0,2025-11-07 14:48:19.198955615
2025-11-07 14:48:15.574175,9,2025-11-07 14:48:19.206647923
2025-11-07 14:48:15.574175,2304,2025-11-07 14:48:19.214340231
2025-11-07 14:48:15.574175,0,2025-11-07 14:48:19.222032538
2025-11-07 14:48:15.574175,7,2025-11-07 14:48:19.229724846
2025-11-07 14:48:15.574175,1792,2025-11-07 14:48:19.237417154
2025-11-07 14:48:15.574175,0,2025-11-07 14:48:19.245109462
2025-11-07 14:48:15.574175,9,2025-11-07 14:48:19.252801769
2025-11-07 14:48:15.574175,2304,2025-11-07 14:48:19.260494077
2025-11-07 14:48:15.574175,0,2025-11-07 14:48:19.268186385
2025-11-07 14:48:15.574175,11,2025-11-07 14:48:19.275878692
2025-11-07 14:48:15.574175,6656,2025-11-07 14:48:19.283571000
2025-11-07 14:48:15.574175,0,2025-11-07 14:48:19.291263308
2025-11-07 14:48:15.574175,33,2025-11-07 14:48:19.298955615
2025-11-07 14:48:15.574175,5888,2025-11-07 14:48:19.306647923
2025-11-07 14:48:15.574175,0,2025-11-07 14:48:19.314340231
2025-11-07 14:48:15.574175,16,2025-11-07 14:48:19.322032538
2025-11-07 14:48:15.574175,5376,2025-11-07 14:48:19.329724846
2025-11-07 14:48:15.574175,0,2025-11-07 14:48:19.337417154
2025-11-07 14:48:15.574175,21,2025-11-07 14:48:19.345109462
2025-11-07 14:48:15.574175,3584,2025-11-07 14:48:19.352801769
2025-11-07 14:48:15.574175,0,2025-11-07 14:48:19.360494077
2025-11-07 14:48:15.574175,19,2025-11-07 14:48:19.368186385
2025-11-07 14:48:15.574175,8960,2025-11-07 14:48:19.375878692
2025-11-07 14:48:15.574175,0,2025-11-07 14:48:19.383571000
2025-11-07 14:48:15.574175,45,2025-11-07 14:48:19.391263308
2025-11-07 14:48:15.574175,11520,2025-11-07 14:48:19.398955615
2025-11-07 14:48:15.574175,0,2025-11-07 14:48:19.406647923
2025-11-07 14:48:15.574175,45,2025-11-07 14:48:19.414340231
2025-11-07 14:48:15.574175,9728,2025-11-07 14:48:19.422032538
2025-11-07 14:48:15.574175,0,2025-11-07 14:48:19.429724846
2025-11-07 14:48:15.574175,33,2025-11-07 14:48:19.437417154
2025-11-07 14:48:15.574175,10240,2025-11-07 14:48:19.445109462
2025-11-07 14:48:15.574175,0,2025-11-07 14:48:19.452801769
2025-11-07 14:48:15.574175,40,2025-11-07 14:48:19.460494077
2025-11-07 14:48:15.574175,9728,2025-11-07 14:48:19.468186385
2025-11-07 14:48:15.574175,0,2025-11-07 14:48:19.475878692
2025-11-07 14:48:15.574175,38,2025-11-07 14:48:19.483571000
2025-11-07 14:48:15.574175,7936,2025-11-07 14:48:19.491263308
2025-11-07 14:48:15.574175,0,2025-11-07 14:48:19.498955615
2025-11-07 14:48:15.574175,-11,2025-11-07 14:48:19.506647923
2025-11-07 14:48:15.574175,-19201,2025-11-07 14:48:19.514340231
2025-11-07 14:48:15.574175,-1,2025-11-07 14:48:19.522032538
2025-11-07 14:48:15.574175,-52,2025-11-07 14:48:19.529724846
2025-11-07 14:48:15.574175,-5377,2025-11-07 14:48:19.537417154
2025-11-07 14:48:15.574175,0,2025-11-07 14:48:19.545109462
2025-11-07 14:48:15.574175,728,2025-11-07 14:48:19.552801769
2025-11-07 14:48:15.574175,-8960,2025-11-07 14:48:19.560494077
2025-11-07 14:48:15.574175,3,2025-11-07 14:48:19.568186385
2025-11-07 14:48:15.574175,778,2025-11-07 14:48:19.575878692
2025-11-07 14:48:15.574175,-31232,2025-11-07 14:48:19.583571000
2025-11-07 14:48:15.574175,1,2025-11-07 14:48:19.591263308
2025-11-07 14:48:15.574175,122,2025-11-07 14:48:19.598955615
2025-11-07 14:48:15.574175,-1792,2025-11-07 14:48:19.606647923
2025-11-07 14:48:15.574175,-1,2025-11-07 14:48:19.614340231
2025-11-07 14:48:15.574175,-57,2025-11-07 14:48:19.622032538
2025-11-07 14:48:15.574175,-19201,2025-11-07 14:48:19.629724846
2025-11-07 14:48:15.574175,-1,2025-11-07 14:48:19.637417154
2025-11-07 14:48:15.574175,-88,2025-11-07 14:48:19.645109462
2025-11-07 14:48:15.574175,-23553,2025-11-07 14:48:19.652801769
2025-11-07 14:48:15.574175,-1,2025-11-07 14:48:19.660494077
2025-11-07 14:48:15.574175,-93,2025-11-07 14:48:19.668186385
2025-11-07 14:48:15.574175,-23041,2025-11-07 14:48:19.675878692
2025-11-07 14:48:15.574175,-1,2025-11-07 14:48:19.683571000
2025-11-07 14:48:15.574175,-86,2025-11-07 14:48:19.691263308
2025-11-07 14:48:15.574175,-20993,2025-11-07 14:48:19.698955615
2025-11-07 14:48:15.574175,-1,2025-11-07 14:48:19.706647923
2025-11-07 14:48:15.574175,-83,2025-11-07 14:48:19.714340231
2025-11-07 14:48:15.574175,-19969,2025-11-07 14:48:19.722032538
2025-11-07 14:48:15.574175,-1,2025-11-07 14:48:19.729724846
2025-11-07 14:48:15.574175,-76,2025-11-07 14:48:19.737417154
2025-11-07 14:48:15.574175,-19201,2025-11-07 14:48:19.745109462
2025-11-07 14:48:15.574175,-1,2025-11-07 14:48:19.752801769
2025-11-07 14:48:15.574175,-76,2025-11-07 14:48:19.760494077
2025-11-07 14:48:15.574175,-19201,2025-11-07 14:48:19.768186385
2025-11-07 14:48:15.574175,-1,2025-11-07 14:48:19.775878692
2025-11-07 14:48:15.574175,-74,2025-11-07 14:48:19.783571000
2025-11-07 14:48:15.574175,-17921,2025-11-07 14:48:19.791263308
2025-11-07 14:48:15.574175,-1,2025-11-07 14:48:19.798955615
2025-11-07 14:48:15.574175,-69,2025-11-07 14:48:19.806647923
2025-11-07 14:48:15.574175,-17409,2025-11-07 14:48:19.814340230
2025-11-07 14:48:15.574175,-1,2025-11-07 14:48:19.822032538
2025-11-07 14:48:15.574175,-67,2025-11-07 14:48:19.829724846
2025-11-07 14:48:15.574175,-16129,2025-11-07 14:48:19.837417154
2025-11-07 14:48:15.574175,-1,2025-11-07 14:48:19.845109462
2025-11-07 14:48:15.574175,-62,2025-11-07 14:48:19.852801769
2025-11-07 14:48:15.574175,-14337,2025-11-07 14:48:19.860494077
2025-11-07 14:48:15.574175,-1,2025-11-07 14:48:19.868186385
2025-11-07 14:48:15.574175,-47,2025-11-07 14:48:19.875878692
2025-11-07 14:48:15.574175,-9985,2025-11-07 14:48:19.883571000
2025-11-07 14:48:15.574175,-1,2025-11-07 14:48:19.891263308
2025-11-07 14:48:15.574175,-31,2025-11-07 14:48:19.898955615
2025-11-07 14:48:15.574175,-5121,2025-11-07 14:48:19.906647923
2025-11-07 14:48:15.574175,-1,2025-11-07 14:48:19.914340231
2025-11-07 14:48:15.574175,-16,2025-11-07 14:48:19.922032538
2025-11-07 14:48:15.574175,-4609,2025-11-07 14:48:19.929724846
2025-11-07 14:48:15.574175,-1,2025-11-07 14:48:19.937417154
2025-11-07 14:48:15.574175,-19,2025-11-07 14:48:19.945109462
2025-11-07 14:48:15.574175,-4609,2025-11-07 14:48:19.952801769
2025-11-07 14:48:15.574175,-1,2025-11-07 14:48:19.960494077
2025-11-07 14:48:15.574175,-16,2025-11-07 14:48:19.968186385
2025-11-07 14:48:15.574175,-3329,2025-11-07 14:48:19.975878692
2025-11-07 14:48:15.574175,-1,2025-11-07 14:48:19.983571000
2025-11-07 14:48:15.574175,-14,2025-11-07 14:48:19.991263308
2025-11-07 14:48:15.574175,-2561,2025-11-07 14:48:19.998955615
2025-11-07 14:48:15.574175,-1,2025-11-07 14:48:20.006647923
2025-11-07 14:48:15.574175,-9,2025-11-07 14:48:20.014340231
2025-11-07 14:48:16.113687,-9,2025-11-07 14:48:20.022032538
2025-11-07 14:48:16.113687,-1537,2025-11-07 14:48:20.029724846
2025-11-07 14:48:16.113687,-1,2025-11-07 14:48:20.037417154
2025-11-07 14:48:16.113687,-7,2025-11-07 14:48:20.045109462
2025-11-07 14:48:16.113687,-1537,2025-11-07 14:48:20.052801769
2025-11-07 14:48:16.113687,-1,2025-11-07 14:48:20.060494077
2025-11-07 14:48:16.113687,-7,2025-11-07 14:48:20.068186385
2025-11-07 14:48:16.113687,-1537,2025-11-07 14:48:20.075878692
2025-11-07 14:48:16.113687,-1,2025-11-07 14:48:20.083571000
2025-11-07 14:48:16.113687,-4,2025-11-07 14:48:20.091263308
2025-11-07 14:48:16.113687,-257,2025-11-07 14:48:20.098955615
2025-11-07 14:48:16.113687,-1,2025-11-07 14:48:20.106647923
2025-11-07 14:48:16.113687,-2,2025-11-07 14:48:20.114340231
2025-11-07 14:48:16.113687,-257,2025-11-07 14:48:20.122032538
2025-11-07 14:48:16.113687,-1,2025-11-07 14:48:20.129724846
2025-11-07 14:48:16.113687,9,2025-11-07 14:48:20.137417154
2025-11-07 14:48:16.113687,5888,2025-11-07 14:48:20.145109462
2025-11-07 14:48:16.113687,0,2025-11-07 14:48:20.152801769
2025-11-07 14:48:16.113687,26,2025-11-07 14:48:20.160494077
2025-11-07 14:48:16.113687,6656,2025-11-07 14:48:20.168186385
2025-11-07 14:48:16.113687,0,2025-11-07 14:48:20.175878692
2025-11-07 14:48:16.113687,28,2025-11-07 14:48:20.183571000
2025-11-07 14:48:16.113687,7168,2025-11-07 14:48:20.191263308
2025-11-07 14:48:16.113687,0,2025-11-07 14:48:20.198955615
2025-11-07 14:48:16.113687,23,2025-11-07 14:48:20.206647923
2025-11-07 14:48:16.113687,5888,2025-11-07 14:48:20.214340231
2025-11-07 14:48:16.113687,0,2025-11-07 14:48:20.222032538
2025-11-07 14:48:16.113687,28,2025-11-07 14:48:20.229724846
2025-11-07 14:48:16.113687,8448,2025-11-07 14:48:20.237417154
2025-11-07 14:48:16.113687,0,2025-11-07 14:48:20.245109462
2025-11-07 14:48:16.113687,31,2025-11-07 14:48:20.252801769
2025-11-07 14:48:16.113687,7168,2025-11-07 14:48:20.260494077
2025-11-07 14:48:16.113687,0,2025-11-07 14:48:20.268186385
2025-11-07 14:48:16.113687,31,2025-11-07 14:48:20.275878692
2025-11-07 14:48:16.113687,7168,2025-11-07 14:48:20.283571000
2025-11-07 14:48:16.113687,0,2025-11-07 14:48:20.291263308
2025-11-07 14:48:16.113687,26,2025-11-07 14:48:20.298955615
2025-11-07 14:48:16.113687,6656,2025-11-07 14:48:20.306647923
2025-11-07 14:48:16.113687,0,2025-11-07 14:48:20.314340231
2025-11-07 14:48:16.113687,28,2025-11-07 14:48:20.322032538
2025-11-07 14:48:16.113687,5888,2025-11-07 14:48:20.329724846
2025-11-07 14:48:16.113687,0,2025-11-07 14:48:20.337417154
2025-11-07 14:48:16.113687,21,2025-11-07 14:48:20.345109462
2025-11-07 14:48:16.113687,5888,2025-11-07 14:48:20.352801769
2025-11-07 14:48:16.113687,0,2025-11-07 14:48:20.360494077
2025-11-07 14:48:16.113687,26,2025-11-07 14:48:20.368186385
2025-11-07 14:48:16.113687,7168,2025-11-07 14:48:20.375878692
2025-11-07 14:48:16.113687,0,2025-11-07 14:48:20.383571000
2025-11-07 14:48:16.113687,26,2025-11-07 14:48:20.391263308
2025-11-07 14:48:16.113687,5888,2025-11-07 14:48:20.398955615
2025-11-07 14:48:16.113687,0,2025-11-07 14:48:20.406647923
2025-11-07 14:48:16.113687,26,2025-11-07 14:48:20.414340231
2025-11-07 14:48:16.113687,5888,2025-11-07 14:48:20.422032538
2025-11-07 14:48:16.113687,0,2025-11-07 14:48:20.429724846
2025-11-07 14:48:16.113687,21,2025-11-07 14:48:20.437417154
2025-11-07 14:48:16.113687,5888,2025-11-07 14:48:20.445109462
2025-11-07 14:48:16.113687,0,2025-11-07 14:48:20.452801769
2025-11-07 14:48:16.113687,21,2025-11-07 14:48:20.460494077
2025-11-07 14:48:16.113687,4096,2025-11-07 14:48:20.468186385
2025-11-07 14:48:16.113687,0,2025-11-07 14:48:20.475878692
2025-11-07 14:48:16.113687,11,2025-11-07 14:48:20.483571000
2025-11-07 14:48:16.113687,2816,2025-11-07 14:48:20.491263308
2025-11-07 14:48:16.113687,0,2025-11-07 14:48:20.498955615
2025-11-07 14:48:16.113687,11,2025-11-07 14:48:20.506647923
2025-11-07 14:48:16.113687,1792,2025-11-07 14:48:20.514340231
2025-11-07 14:48:16.113687,0,2025-11-07 14:48:20.522032538
2025-11-07 14:48:16.113687,4,2025-11-07 14:48:20.529724846
2025-11-07 14:48:16.113687,4096,2025-11-07 14:48:20.537417154
2025-11-07 14:48:16.113687,0,2025-11-07 14:48:20.545109462
2025-11-07 14:48:16.113687,35,2025-11-07 14:48:20.552801769
2025-11-07 14:48:16.113687,9728,2025-11-07 14:48:20.560494077
2025-11-07 14:48:16.113687,0,2025-11-07 14:48:20.568186385
2025-11-07 14:48:16.113687,35,2025-11-07 14:48:20.575878692
2025-11-07 14:48:16.113687,8448,2025-11-07 14:48:20.583571000
2025-11-07 14:48:16.113687,0,2025-11-07 14:48:20.591263308
2025-11-07 14:48:16.113687,26,2025-11-07 14:48:20.598955615
2025-11-07 14:48:16.113687,6656,2025-11-07 14:48:20.606647923
2025-11-07 14:48:16.113687,0,2025-11-07 14:48:20.614340231
2025-11-07 14:48:16.113687,28,2025-11-07 14:48:20.622032538
2025-11-07 14:48:16.113687,7936,2025-11-07 14:48:20.629724846
2025-11-07 14:48:16.113687,0,2025-11-07 14:48:20.637417154
2025-11-07 14:48:16.113687,31,2025-11-07 14:48:20.645109462
2025-11-07 14:48:16.113687,7936,2025-11-07 14:48:20.652801769
2025-11-07 14:48:16.113687,0,2025-11-07 14:48:20.660494077
2025-11-07 14:48:16.113687,11,2025-11-07 14:48:20.668186385
2025-11-07 14:48:16.113687,-11008,2025-11-07 14:48:20.675878692
2025-11-07 14:48:16.113687,-1,2025-11-07 14:48:20.683571000
2025-11-07 14:48:16.113687,-86,2025-11-07 14:48:20.691263308
2025-11-07 14:48:16.113687,9983,2025-11-07 14:48:20.698955615
2025-11-07 14:48:16.113687,0,2025-11-07 14:48:20.706647923
2025-11-07 14:48:16.113687,438,2025-11-07 14:48:20.714340231
2025-11-07 14:48:16.113687,27136,2025-11-07 14:48:20.722032538
2025-11-07 14:48:16.113687,3,2025-11-07 14:48:20.729724846
2025-11-07 14:48:16.113687,913,2025-11-07 14:48:20.737417154
2025-11-07 14:48:16.113687,15360,2025-11-07 14:48:20.745109462
2025-11-07 14:48:16.113687,2,2025-11-07 14:48:20.752801769
2025-11-07 14:48:16.113687,234,2025-11-07 14:48:20.760494077
2025-11-07 14:48:16.113687,14080,2025-11-07 14:48:20.768186385
2025-11-07 14:48:16.113687,0,2025-11-07 14:48:20.775878692
2025-11-07 14:48:16.113687,-35,2025-11-07 14:48:20.783571000
2025-11-07 14:48:16.113687,-19201,2025-11-07 14:48:20.791263308
2025-11-07 14:48:16.113687,-1,2025-11-07 14:48:20.798955615
2025-11-07 14:48:16.113687,-86,2025-11-07 14:48:20.806647923
2025-11-07 14:48:16.113687,-23041,2025-11-07 14:48:20.814340230
2025-11-07 14:48:16.113687,-1,2025-11-07 14:48:20.822032538
2025-11-07 14:48:16.113687,-95,2025-11-07 14:48:20.829724846
2025-11-07 14:48:16.113687,-24065,2025-11-07 14:48:20.837417154
2025-11-07 14:48:16.113687,-1,2025-11-07 14:48:20.845109462
2025-11-07 14:48:16.113687,-91,2025-11-07 14:48:20.852801769
2025-11-07 14:48:16.654212,-86,2025-11-07 14:48:20.860494077
2025-11-07 14:48:16.654212,-20481,2025-11-07 14:48:20.868186385
2025-11-07 14:48:16.654212,-1,2025-11-07 14:48:20.875878692
2025-11-07 14:48:16.654212,-79,2025-11-07 14:48:20.883571000
2025-11-07 14:48:16.654212,-19969,2025-11-07 14:48:20.891263308
2025-11-07 14:48:16.654212,-1,2025-11-07 14:48:20.898955615
2025-11-07 14:48:16.654212,-74,2025-11-07 14:48:20.906647923
2025-11-07 14:48:16.654212,-17921,2025-11-07 14:48:20.914340231
2025-11-07 14:48:16.654212,-1,2025-11-07 14:48:20.922032538
2025-11-07 14:48:16.654212,-67,2025-11-07 14:48:20.929724846
2025-11-07 14:48:16.654212,-13825,2025-11-07 14:48:20.937417154
2025-11-07 14:48:16.654212,-1,2025-11-07 14:48:20.945109462
2025-11-07 14:48:16.654212,-40,2025-11-07 14:48:20.952801769
2025-11-07 14:48:16.654212,-8705,2025-11-07 14:48:20.960494077
2025-11-07 14:48:16.654212,-1,2025-11-07 14:48:20.968186385
2025-11-07 14:48:16.654212,-40,2025-11-07 14:48:20.975878692
2025-11-07 14:48:16.654212,-8705,2025-11-07 14:48:20.983571000
2025-11-07 14:48:16.654212,-1,2025-11-07 14:48:20.991263308
2025-11-07 14:48:16.654212,-26,2025-11-07 14:48:20.998955615
2025-11-07 14:48:16.654212,-5633,2025-11-07 14:48:21.006647923
2025-11-07 14:48:16.654212,-1,2025-11-07 14:48:21.014340231
2025-11-07 14:48:16.654212,-21,2025-11-07 14:48:21.022032538
2025-11-07 14:48:16.654212,-3841,2025-11-07 14:48:21.029724846
2025-11-07 14:48:16.654212,-1,2025-11-07 14:48:21.037417154
2025-11-07 14:48:16.654212,-9,2025-11-07 14:48:21.045109462
2025-11-07 14:48:16.654212,-769,2025-11-07 14:48:21.052801769
2025-11-07 14:48:16.654212,-1,2025-11-07 14:48:21.060494077
2025-11-07 14:48:16.654212,2,2025-11-07 14:48:21.068186385
2025-11-07 14:48:16.654212,1792,2025-11-07 14:48:21.075878692
2025-11-07 14:48:16.654212,0,2025-11-07 14:48:21.083571000
2025-11-07 14:48:16.654212,7,2025-11-07 14:48:21.091263308
2025-11-07 14:48:16.654212,0,2025-11-07 14:48:21.098955615
2025-11-07 14:48:16.654212,0,2025-11-07 14:48:21.106647923
2025-11-07 14:48:16.654212,-2,2025-11-07 14:48:21.114340231
2025-11-07 14:48:16.654212,255,2025-11-07 14:48:21.122032538
2025-11-07 14:48:16.654212,0,2025-11-07 14:48:21.129724846
2025-11-07 14:48:16.654212,-2,2025-11-07 14:48:21.137417154
2025-11-07 14:48:16.654212,-769,2025-11-07 14:48:21.145109462
2025-11-07 14:48:16.654212,-1,2025-11-07 14:48:21.152801769
2025-11-07 14:48:16.654212,0,2025-11-07 14:48:21.160494077
2025-11-07 14:48:16.654212,1024,2025-11-07 14:48:21.168186385
2025-11-07 14:48:16.654212,0,2025-11-07 14:48:21.175878692
2025-11-07 14:48:16.654212,4,2025-11-07 14:48:21.183571000
2025-11-07 14:48:16.654212,1024,2025-11-07 14:48:21.191263308
2025-11-07 14:48:16.654212,0,2025-11-07 14:48:21.198955615
2025-11-07 14:48:16.654212,7,2025-11-07 14:48:21.206647923
2025-11-07 14:48:16.654212,1792,2025-11-07 14:48:21.214340231
2025-11-07 14:48:16.654212,0,2025-11-07 14:48:21.222032538
2025-11-07 14:48:16.654212,7,2025-11-07 14:48:21.229724846
2025-11-07 14:48:16.654212,1792,2025-11-07 14:48:21.237417154
2025-11-07 14:48:16.654212,0,2025-11-07 14:48:21.245109462
2025-11-07 14:48:16.654212,7,2025-11-07 14:48:21.252801769
2025-11-07 14:48:16.654212,2304,2025-11-07 14:48:21.260494077
2025-11-07 14:48:16.654212,0,2025-11-07 14:48:21.268186385
2025-11-07 14:48:16.654212,11,2025-11-07 14:48:21.275878692
2025-11-07 14:48:16.654212,3584,2025-11-07 14:48:21.283571000
2025-11-07 14:48:16.654212,0,2025-11-07 14:48:21.291263308
2025-11-07 14:48:16.654212,14,2025-11-07 14:48:21.298955615
2025-11-07 14:48:16.654212,4864,2025-11-07 14:48:21.306647923
2025-11-07 14:48:16.654212,0,2025-11-07 14:48:21.314340231
2025-11-07 14:48:16.654212,21,2025-11-07 14:48:21.322032538
2025-11-07 14:48:16.654212,5376,2025-11-07 14:48:21.329724846
2025-11-07 14:48:16.654212,0,2025-11-07 14:48:21.337417154
2025-11-07 14:48:16.654212,21,2025-11-07 14:48:21.345109462
2025-11-07 14:48:16.654212,5888,2025-11-07 14:48:21.352801769
2025-11-07 14:48:16.654212,0,2025-11-07 14:48:21.360494077
2025-11-07 14:48:16.654212,23,2025-11-07 14:48:21.368186385
2025-11-07 14:48:16.654212,5888,2025-11-07 14:48:21.375878692
2025-11-07 14:48:16.654212,0,2025-11-07 14:48:21.383571000
2025-11-07 14:48:16.654212,26,2025-11-07 14:48:21.391263308
2025-11-07 14:48:16.654212,7168,2025-11-07 14:48:21.398955615
2025-11-07 14:48:16.654212,0,2025-11-07 14:48:21.406647923
2025-11-07 14:48:16.654212,28,2025-11-07 14:48:21.414340231
2025-11-07 14:48:16.654212,6656,2025-11-07 14:48:21.422032538
2025-11-07 14:48:16.654212,0,2025-11-07 14:48:21.429724846
2025-11-07 14:48:16.654212,26,2025-11-07 14:48:21.437417154
2025-11-07 14:48:16.654212,6656,2025-11-07 14:48:21.445109462
2025-11-07 14:48:16.654212,0,2025-11-07 14:48:21.452801769
2025-11-07 14:48:16.654212,28,2025-11-07 14:48:21.460494077
2025-11-07 14:48:16.654212,6656,2025-11-07 14:48:21.468186385
2025-11-07 14:48:16.654212,0,2025-11-07 14:48:21.475878692
2025-11-07 14:48:16.654212,28,2025-11-07 14:48:21.483571000
2025-11-07 14:48:16.654212,7936,2025-11-07 14:48:21.491263308
2025-11-07 14:48:16.654212,0,2025-11-07 14:48:21.498955615
2025-11-07 14:48:16.654212,31,2025-11-07 14:48:21.506647923
2025-11-07 14:48:16.654212,6656,2025-11-07 14:48:21.514340231
2025-11-07 14:48:16.654212,0,2025-11-07 14:48:21.522032538
2025-11-07 14:48:16.654212,26,2025-11-07 14:48:21.529724846
2025-11-07 14:48:16.654212,7168,2025-11-07 14:48:21.537417154
2025-11-07 14:48:16.654212,0,2025-11-07 14:48:21.545109462
2025-11-07 14:48:16.654212,28,2025-11-07 14:48:21.552801769
2025-11-07 14:48:16.654212,6656,2025-11-07 14:48:21.560494077
2025-11-07 14:48:16.654212,0,2025-11-07 14:48:21.568186385
2025-11-07 14:48:16.654212,23,2025-11-07 14:48:21.575878692
2025-11-07 14:48:16.654212,5376,2025-11-07 14:48:21.583571000
2025-11-07 14:48:16.654212,0,2025-11-07 14:48:21.591263308
2025-11-07 14:48:16.654212,16,2025-11-07 14:48:21.598955615
2025-11-07 14:48:16.654212,4864,2025-11-07 14:48:21.606647923
2025-11-07 14:48:16.654212,0,2025-11-07 14:48:21.614340231
2025-11-07 14:48:16.654212,23,2025-11-07 14:48:21.622032538
2025-11-07 14:48:16.654212,5888,2025-11-07 14:48:21.629724846
2025-11-07 14:48:16.654212,0,2025-11-07 14:48:21.637417154
2025-11-07 14:48:16.654212,31,2025-11-07 14:48:21.645109462
2025-11-07 14:48:16.654212,12032,2025-11-07 14:48:21.652801769
2025-11-07 14:48:16.654212,0,2025-11-07 14:48:21.660494077
2025-11-07 14:48:16.654212,59,2025-11-07 14:48:21.668186385
2025-11-07 14:48:16.654212,15104,2025-11-07 14:48:21.675878692
2025-11-07 14:48:16.654212,0,2025-11-07 14:48:21.683571000
2025-11-07 14:48:16.654212,52,2025-11-07 14:48:21.691263308
2025-11-07 14:48:17.224040,43,2025-11-07 14:48:21.698955615
2025-11-07 14:48:17.224040,11008,2025-11-07 14:48:21.706647923
2025-11-07 14:48:17.224040,0,2025-11-07 14:48:21.714340231
2025-11-07 14:48:17.224040,43,2025-11-07 14:48:21.722032538
2025-11-07 14:48:17.224040,11008,2025-11-07 14:48:21.729724846
2025-11-07 14:48:17.224040,0,2025-11-07 14:48:21.737417154
2025-11-07 14:48:17.224040,52,2025-11-07 14:48:21.745109462
2025-11-07 14:48:17.224040,17664,2025-11-07 14:48:21.752801769
2025-11-07 14:48:17.224040,0,2025-11-07 14:48:21.760494077
2025-11-07 14:48:17.224040,64,2025-11-07 14:48:21.768186385
2025-11-07 14:48:17.224040,5888,2025-11-07 14:48:21.775878692
2025-11-07 14:48:17.224040,0,2025-11-07 14:48:21.783571000
2025-11-07 14:48:17.224040,-40,2025-11-07 14:48:21.791263308
2025-11-07 14:48:17.224040,-9473,2025-11-07 14:48:21.798955615
2025-11-07 14:48:17.224040,-1,2025-11-07 14:48:21.806647923
2025-11-07 14:48:17.224040,186,2025-11-07 14:48:21.814340230
2025-11-07 14:48:17.224040,32000,2025-11-07 14:48:21.822032538
2025-11-07 14:48:17.224040,2,2025-11-07 14:48:21.829724846
2025-11-07 14:48:17.224040,903,2025-11-07 14:48:21.837417154
2025-11-07 14:48:17.224040,-15616,2025-11-07 14:48:21.845109462
2025-11-07 14:48:17.224040,2,2025-11-07 14:48:21.852801769
2025-11-07 14:48:17.224040,381,2025-11-07 14:48:21.860494077
2025-11-07 14:48:17.224040,-12800,2025-11-07 14:48:21.868186385
2025-11-07 14:48:17.224040,0,2025-11-07 14:48:21.875878692
2025-11-07 14:48:17.224040,74,2025-11-07 14:48:21.883571000
2025-11-07 14:48:17.224040,-7168,2025-11-07 14:48:21.891263308
2025-11-07 14:48:17.224040,-1,2025-11-07 14:48:21.898955615
2025-11-07 14:48:17.224040,-50,2025-11-07 14:48:21.906647923
2025-11-07 14:48:17.224040,-13825,2025-11-07 14:48:21.914340231
2025-11-07 14:48:17.224040,-1,2025-11-07 14:48:21.922032538
2025-11-07 14:48:17.224040,-69,2025-11-07 14:48:21.929724846
2025-11-07 14:48:17.224040,-17921,2025-11-07 14:48:21.937417154
2025-11-07 14:48:17.224040,-1,2025-11-07 14:48:21.945109462
2025-11-07 14:48:17.224040,-64,2025-11-07 14:48:21.952801769
2025-11-07 14:48:17.224040,-16129,2025-11-07 14:48:21.960494077
2025-11-07 14:48:17.224040,-1,2025-11-07 14:48:21.968186385
2025-11-07 14:48:17.224040,-62,2025-11-07 14:48:21.975878692
2025-11-07 14:48:17.224040,-14849,2025-11-07 14:48:21.983571000
2025-11-07 14:48:17.224040,-1,2025-11-07 14:48:21.991263308
2025-11-07 14:48:17.224040,-59,2025-11-07 14:48:21.998955615
2025-11-07 14:48:17.224040,-14337,2025-11-07 14:48:22.006647923
2025-11-07 14:48:17.224040,-1,2025-11-07 14:48:22.014340231
2025-11-07 14:48:17.224040,-47,2025-11-07 14:48:22.022032538
2025-11-07 14:48:17.224040,-12545,2025-11-07 14:48:22.029724846
2025-11-07 14:48:17.224040,-1,2025-11-07 14:48:22.037417154
2025-11-07 14:48:17.224040,-52,2025-11-07 14:48:22.045109462
2025-11-07 14:48:17.224040,-12545,2025-11-07 14:48:22.052801769
2025-11-07 14:48:17.224040,-1,2025-11-07 14:48:22.060494077
2025-11-07 14:48:17.224040,-50,2025-11-07 14:48:22.068186385
2025-11-07 14:48:17.224040,-12545,2025-11-07 14:48:22.075878692
2025-11-07 14:48:17.224040,-1,2025-11-07 14:48:22.083571000
2025-11-07 14:48:17.224040,-50,2025-11-07 14:48:22.091263308
2025-11-07 14:48:17.224040,-11777,2025-11-07 14:48:22.098955615
2025-11-07 14:48:17.224040,-1,2025-11-07 14:48:22.106647923
2025-11-07 14:48:17.224040,-40,2025-11-07 14:48:22.114340231
2025-11-07 14:48:17.224040,-8705,2025-11-07 14:48:22.122032538
2025-11-07 14:48:17.224040,-1,2025-11-07 14:48:22.129724846
2025-11-07 14:48:17.224040,-31,2025-11-07 14:48:22.137417154
2025-11-07 14:48:17.224040,-5633,2025-11-07 14:48:22.145109462
2025-11-07 14:48:17.224040,-1,2025-11-07 14:48:22.152801769
2025-11-07 14:48:17.224040,-11,2025-11-07 14:48:22.160494077
2025-11-07 14:48:17.224040,-769,2025-11-07 14:48:22.168186385
2025-11-07 14:48:17.224040,-1,2025-11-07 14:48:22.175878692
2025-11-07 14:48:17.224040,0,2025-11-07 14:48:22.183571000
2025-11-07 14:48:17.224040,-512,2025-11-07 14:48:22.191263308
2025-11-07 14:48:17.224040,-1,2025-11-07 14:48:22.198955615
2025-11-07 14:48:17.224040,-11,2025-11-07 14:48:22.206647923
2025-11-07 14:48:17.224040,-5121,2025-11-07 14:48:22.214340231
2025-11-07 14:48:17.224040,-1,2025-11-07 14:48:22.222032538
2025-11-07 14:48:17.224040,-26,2025-11-07 14:48:22.229724846
2025-11-07 14:48:17.224040,-6401,2025-11-07 14:48:22.237417154
2025-11-07 14:48:17.224040,-1,2025-11-07 14:48:22.245109462
2025-11-07 14:48:17.224040,-26,2025-11-07 14:48:22.252801769
2025-11-07 14:48:17.224040,-6913,2025-11-07 14:48:22.260494077
2025-11-07 14:48:17.224040,-1,2025-11-07 14:48:22.268186385
2025-11-07 14:48:17.224040,-28,2025-11-07 14:48:22.275878692
2025-11-07 14:48:17.224040,-5633,2025-11-07 14:48:22.283571000
2025-11-07 14:48:17.224040,-1,2025-11-07 14:48:22.291263308
2025-11-07 14:48:17.224040,-21,2025-11-07 14:48:22.298955615
2025-11-07 14:48:17.224040,-5633,2025-11-07 14:48:22.306647923
2025-11-07 14:48:17.224040,-1,2025-11-07 14:48:22.314340231
2025-11-07 14:48:17.224040,-26,2025-11-07 14:48:22.322032538
2025-11-07 14:48:17.224040,-5633,2025-11-07 14:48:22.329724846
2025-11-07 14:48:17.224040,-1,2025-11-07 14:48:22.337417154
2025-11-07 14:48:17.224040,-23,2025-11-07 14:48:22.345109462
2025-11-07 14:48:17.224040,-5633,2025-11-07 14:48:22.352801769
2025-11-07 14:48:17.224040,-1,2025-11-07 14:48:22.360494077
2025-11-07 14:48:17.224040,-23,2025-11-07 14:48:22.368186385
2025-11-07 14:48:17.224040,-4609,2025-11-07 14:48:22.375878692
2025-11-07 14:48:17.224040,-1,2025-11-07 14:48:22.383571000
2025-11-07 14:48:17.224040,-14,2025-11-07 14:48:22.391263308
2025-11-07 14:48:17.224040,-2561,2025-11-07 14:48:22.398955615
2025-11-07 14:48:17.224040,-1,2025-11-07 14:48:22.406647923
2025-11-07 14:48:17.224040,-11,2025-11-07 14:48:22.414340231
2025-11-07 14:48:17.224040,-2561,2025-11-07 14:48:22.422032538
2025-11-07 14:48:17.224040,-1,2025-11-07 14:48:22.429724846
2025-11-07 14:48:17.224040,-9,2025-11-07 14:48:22.437417154
2025-11-07 14:48:17.224040,-1537,2025-11-07 14:48:22.445109462
2025-11-07 14:48:17.224040,-1,2025-11-07 14:48:22.452801769
2025-11-07 14:48:17.224040,-4,2025-11-07 14:48:22.460494077
2025-11-07 14:48:17.224040,-769,2025-11-07 14:48:22.468186385
2025-11-07 14:48:17.224040,-1,2025-11-07 14:48:22.475878692
2025-11-07 14:48:17.224040,-2,2025-11-07 14:48:22.483571000
2025-11-07 14:48:17.224040,255,2025-11-07 14:48:22.491263308
2025-11-07 14:48:17.224040,0,2025-11-07 14:48:22.498955615
2025-11-07 14:48:17.224040,4,2025-11-07 14:48:22.506647923
2025-11-07 14:48:17.224040,1792,2025-11-07 14:48:22.514340231
2025-11-07 14:48:17.224040,0,2025-11-07 14:48:22.522032538
2025-11-07 14:48:17.224040,7,2025-11-07 14:48:22.529724846
2025-11-07 14:48:17.759329,7,2025-11-07 14:48:22.537417154
2025-11-07 14:48:17.759329,1792,2025-11-07 14:48:22.545109462
2025-11-07 14:48:17.759329,0,2025-11-07 14:48:22.552801769
2025-11-07 14:48:17.759329,7,2025-11-07 14:48:22.560494077
2025-11-07 14:48:17.759329,1792,2025-11-07 14:48:22.568186385
2025-11-07 14:48:17.759329,0,2025-11-07 14:48:22.575878692
2025-11-07 14:48:17.759329,7,2025-11-07 14:48:22.583571000
2025-11-07 14:48:17.759329,2304,2025-11-07 14:48:22.591263308
2025-11-07 14:48:17.759329,0,2025-11-07 14:48:22.598955615
2025-11-07 14:48:17.759329,26,2025-11-07 14:48:22.606647923
2025-11-07 14:48:17.759329,8960,2025-11-07 14:48:22.614340231
2025-11-07 14:48:17.759329,0,2025-11-07 14:48:22.622032538
2025-11-07 14:48:17.759329,28,2025-11-07 14:48:22.629724846
2025-11-07 14:48:17.759329,6656,2025-11-07 14:48:22.637417154
2025-11-07 14:48:17.759329,0,2025-11-07 14:48:22.645109462
2025-11-07 14:48:17.759329,33,2025-11-07 14:48:22.652801769
2025-11-07 14:48:17.759329,7936,2025-11-07 14:48:22.660494077
2025-11-07 14:48:17.759329,0,2025-11-07 14:48:22.668186385
2025-11-07 14:48:17.759329,31,2025-11-07 14:48:22.675878692
2025-11-07 14:48:17.759329,7936,2025-11-07 14:48:22.683571000
2025-11-07 14:48:17.759329,0,2025-11-07 14:48:22.691263308
2025-11-07 14:48:17.759329,28,2025-11-07 14:48:22.698955615
2025-11-07 14:48:17.759329,5888,2025-11-07 14:48:22.706647923
2025-11-07 14:48:17.759329,0,2025-11-07 14:48:22.714340231
2025-11-07 14:48:17.759329,21,2025-11-07 14:48:22.722032538
2025-11-07 14:48:17.759329,4096,2025-11-07 14:48:22.729724846
2025-11-07 14:48:17.759329,0,2025-11-07 14:48:22.737417154
2025-11-07 14:48:17.759329,14,2025-11-07 14:48:22.745109462
2025-11-07 14:48:17.759329,4096,2025-11-07 14:48:22.752801769
2025-11-07 14:48:17.759329,0,2025-11-07 14:48:22.760494077
2025-11-07 14:48:17.759329,16,2025-11-07 14:48:22.768186385
2025-11-07 14:48:17.759329,5888,2025-11-07 14:48:22.775878692
2025-11-07 14:48:17.759329,0,2025-11-07 14:48:22.783571000
2025-11-07 14:48:17.759329,38,2025-11-07 14:48:22.791263308
2025-11-07 14:48:17.759329,12032,2025-11-07 14:48:22.798955615
2025-11-07 14:48:17.759329,0,2025-11-07 14:48:22.806647923
2025-11-07 14:48:17.759329,45,2025-11-07 14:48:22.814340230
2025-11-07 14:48:17.759329,8960,2025-11-07 14:48:22.822032538
2025-11-07 14:48:17.759329,0,2025-11-07 14:48:22.829724846
2025-11-07 14:48:17.759329,31,2025-11-07 14:48:22.837417154
2025-11-07 14:48:17.759329,7168,2025-11-07 14:48:22.845109462
2025-11-07 14:48:17.759329,0,2025-11-07 14:48:22.852801769
2025-11-07 14:48:17.759329,26,2025-11-07 14:48:22.860494077
2025-11-07 14:48:17.759329,6656,2025-11-07 14:48:22.868186385
2025-11-07 14:48:17.759329,0,2025-11-07 14:48:22.875878692
2025-11-07 14:48:17.759329,23,2025-11-07 14:48:22.883571000
2025-11-07 14:48:17.759329,5376,2025-11-07 14:48:22.891263308
2025-11-07 14:48:17.759329,0,2025-11-07 14:48:22.898955615
2025-11-07 14:48:17.759329,9,2025-11-07 14:48:22.906647923
2025-11-07 14:48:17.759329,-8448,2025-11-07 14:48:22.914340231
2025-11-07 14:48:17.759329,-1,2025-11-07 14:48:22.922032538
2025-11-07 14:48:17.759329,-95,2025-11-07 14:48:22.929724846
2025-11-07 14:48:17.759329,-12545,2025-11-07 14:48:22.937417154
2025-11-07 14:48:17.759329,-1,2025-11-07 14:48:22.945109462
2025-11-07 14:48:17.759329,273,2025-11-07 14:48:22.952801769
2025-11-07 14:48:17.759329,-1024,2025-11-07 14:48:22.960494077
2025-11-07 14:48:17.759329,2,2025-11-07 14:48:22.968186385
2025-11-07 14:48:17.759329,973,2025-11-07 14:48:22.975878692
2025-11-07 14:48:17.759329,-13312,2025-11-07 14:48:22.983571000
2025-11-07 14:48:17.759329,2,2025-11-07 14:48:22.991263308
2025-11-07 14:48:17.759329,333,2025-11-07 14:48:22.998955615
2025-11-07 14:48:17.759329,22016,2025-11-07 14:48:23.006647923
2025-11-07 14:48:17.759329,0,2025-11-07 14:48:23.014340231
2025-11-07 14:48:17.759329,-31,2025-11-07 14:48:23.022032538
2025-11-07 14:48:17.759329,-20481,2025-11-07 14:48:23.029724846
2025-11-07 14:48:17.759329,-1,2025-11-07 14:48:23.037417154
2025-11-07 14:48:17.759329,-103,2025-11-07 14:48:23.045109462
2025-11-07 14:48:17.759329,-27905,2025-11-07 14:48:23.052801769
2025-11-07 14:48:17.759329,-1,2025-11-07 14:48:23.060494077
2025-11-07 14:48:17.759329,-110,2025-11-07 14:48:23.068186385
2025-11-07 14:48:17.759329,-27905,2025-11-07 14:48:23.075878692
2025-11-07 14:48:17.759329,-1,2025-11-07 14:48:23.083571000
2025-11-07 14:48:17.759329,-112,2025-11-07 14:48:23.091263308
2025-11-07 14:48:17.759329,-27137,2025-11-07 14:48:23.098955615
2025-11-07 14:48:17.759329,-1,2025-11-07 14:48:23.106647923
2025-11-07 14:48:17.759329,-100,2025-11-07 14:48:23.114340231
2025-11-07 14:48:17.759329,-24833,2025-11-07 14:48:23.122032538
2025-11-07 14:48:17.759329,-1,2025-11-07 14:48:23.129724846
2025-11-07 14:48:17.759329,-91,2025-11-07 14:48:23.137417154
2025-11-07 14:48:17.759329,-22273,2025-11-07 14:48:23.145109462
2025-11-07 14:48:17.759329,-1,2025-11-07 14:48:23.152801769
2025-11-07 14:48:17.759329,-88,2025-11-07 14:48:23.160494077
2025-11-07 14:48:17.759329,-23041,2025-11-07 14:48:23.168186385
2025-11-07 14:48:17.759329,-1,2025-11-07 14:48:23.175878692
2025-11-07 14:48:17.759329,-88,2025-11-07 14:48:23.183571000
2025-11-07 14:48:17.759329,-21761,2025-11-07 14:48:23.191263308
2025-11-07 14:48:17.759329,-1,2025-11-07 14:48:23.198955615
2025-11-07 14:48:17.759329,-86,2025-11-07 14:48:23.206647923
2025-11-07 14:48:17.759329,-20993,2025-11-07 14:48:23.214340231
2025-11-07 14:48:17.759329,-1,2025-11-07 14:48:23.222032538
2025-11-07 14:48:17.759329,-83,2025-11-07 14:48:23.229724846
2025-11-07 14:48:17.759329,-20993,2025-11-07 14:48:23.237417154
2025-11-07 14:48:17.759329,-1,2025-11-07 14:48:23.245109462
2025-11-07 14:48:17.759329,-81,2025-11-07 14:48:23.252801769
2025-11-07 14:48:17.759329,-17409,2025-11-07 14:48:23.260494077
2025-11-07 14:48:17.759329,-1,2025-11-07 14:48:23.268186385
2025-11-07 14:48:17.759329,-59,2025-11-07 14:48:23.275878692
2025-11-07 14:48:17.759329,-13057,2025-11-07 14:48:23.283571000
2025-11-07 14:48:17.759329,-1,2025-11-07 14:48:23.291263308
2025-11-07 14:48:17.759329,-45,2025-11-07 14:48:23.298955615
2025-11-07 14:48:17.759329,-8705,2025-11-07 14:48:23.306647923
2025-11-07 14:48:17.759329,-1,2025-11-07 14:48:23.314340231
2025-11-07 14:48:17.759329,-26,2025-11-07 14:48:23.322032538
2025-11-07 14:48:17.759329,-5121,2025-11-07 14:48:23.329724846
2025-11-07 14:48:17.759329,-1,2025-11-07 14:48:23.337417154
2025-11-07 14:48:17.759329,-21,2025-11-07 14:48:23.345109462
2025-11-07 14:48:17.759329,-5633,2025-11-07 14:48:23.352801769
2025-11-07 14:48:17.759329,-1,2025-11-07 14:48:23.360494077
2025-11-07 14:48:17.759329,-23,2025-11-07 14:48:23.368186385
2025-11-07 14:48:18.360486,-21,2025-11-07 14:48:23.375878692
2025-11-07 14:48:18.360486,-5121,2025-11-07 14:48:23.383571000
2025-11-07 14:48:18.360486,-1,2025-11-07 14:48:23.391263308
2025-11-07 14:48:18.360486,-19,2025-11-07 14:48:23.398955615
2025-11-07 14:48:18.360486,-769,2025-11-07 14:48:23.406647923
2025-11-07 14:48:18.360486,-1,2025-11-07 14:48:23.414340231
2025-11-07 14:48:18.360486,11,2025-11-07 14:48:23.422032538
2025-11-07 14:48:18.360486,2304,2025-11-07 14:48:23.429724846
2025-11-07 14:48:18.360486,0,2025-11-07 14:48:23.437417154
2025-11-07 14:48:18.360486,4,2025-11-07 14:48:23.445109462
2025-11-07 14:48:18.360486,1024,2025-11-07 14:48:23.452801769
2025-11-07 14:48:18.360486,0,2025-11-07 14:48:23.460494077
