timestamp,ecg
11:28:08.464173,-651
11:28:08.464173,-30465
11:28:08.464173,-3
11:28:08.464173,-632
11:28:08.464173,-30465
11:28:08.464173,-3
11:28:08.464173,-646
11:28:08.464173,24063
11:28:08.464173,-3
11:28:08.464173,-673
11:28:08.464173,20991
11:28:08.464173,-3
11:28:08.464173,-697
11:28:08.464173,19199
11:28:08.464173,-3
11:28:08.464173,-711
11:28:08.464173,14847
11:28:08.464173,-3
11:28:08.464173,-716
11:28:08.464173,11007
11:28:08.464173,-3
11:28:08.464173,-714
11:28:08.464173,12799
11:28:08.464173,-3
11:28:08.464173,-716
11:28:08.464173,12799
11:28:08.464173,-3
11:28:08.464173,-733
11:28:08.464173,9727
11:28:08.464173,-3
11:28:08.464173,-743
11:28:08.464173,6655
11:28:08.464173,-3
11:28:08.464173,-740
11:28:08.464173,4351
11:28:08.464173,-3
11:28:08.464173,-738
11:28:08.464173,9727
11:28:08.464173,-3
11:28:08.464173,-726
11:28:08.464173,16639
11:28:08.464173,-3
11:28:08.464173,-714
11:28:08.464173,14847
11:28:08.464173,-3
11:28:08.464173,-699
11:28:08.464173,16639
11:28:08.464173,-3
11:28:08.464173,-694
11:28:08.464173,18431
11:28:08.464173,-3
11:28:08.464173,-697
11:28:08.464173,20223
11:28:08.464173,-3
11:28:08.464173,-699
11:28:08.464173,19711
11:28:08.464173,-3
11:28:08.464173,-685
11:28:08.464173,21503
11:28:08.464173,-3
11:28:08.464173,-680
11:28:08.464173,19711
11:28:08.464173,-3
11:28:08.464173,-687
11:28:08.464173,20223
11:28:08.464173,-3
11:28:08.464173,-707
11:28:08.464173,17919
11:28:08.464173,-3
11:28:08.464173,-704
11:28:08.464173,17151
11:28:08.464173,-3
11:28:08.464173,-675
11:28:08.464173,24063
11:28:08.464173,-3
11:28:08.464173,-675
11:28:08.464173,22783
11:28:08.464173,-3
11:28:08.464173,-682
11:28:08.464173,22783
11:28:08.464173,-3
11:28:08.464173,-690
11:28:08.464173,24063
11:28:08.464173,-3
11:28:08.464173,-663
11:28:08.464173,24063
11:28:08.464173,-3
11:28:08.464173,-670
11:28:08.464173,24063
11:28:08.464173,-3
11:28:08.464173,-692
11:28:08.464173,12799
11:28:08.464173,-3
11:28:08.464173,-755
11:28:08.464173,14079
11:28:08.464173,-3
11:28:08.464173,-591
11:28:08.464173,15103
11:28:08.464173,-2
11:28:08.464173,-440
11:28:08.464173,-6401
11:28:08.464173,-3
11:28:08.464173,-572
11:28:08.464173,-23041
11:28:08.464173,-3
11:28:08.464173,-666
11:28:08.464173,26367
11:28:08.464173,-3
11:28:08.464173,-668
11:28:09.000453,-673
11:28:09.000453,28415
11:28:09.000453,-3
11:28:09.000453,-663
11:28:09.000453,27647
11:28:09.000453,-3
11:28:09.000453,-661
11:28:09.000453,27647
11:28:09.000453,-3
11:28:09.000453,-639
11:28:09.000453,-32257
11:28:09.000453,-3
11:28:09.000453,-637
11:28:09.000453,-30465
11:28:09.000453,-3
11:28:09.000453,-634
11:28:09.000453,-26113
11:28:09.000453,-3
11:28:09.000453,-603
11:28:09.000453,-15617
11:28:09.000453,-3
11:28:09.000453,-567
11:28:09.000453,-21249
11:28:09.000453,-3
11:28:09.000453,-572
11:28:09.000453,-7169
11:28:09.000453,-3
11:28:09.000453,-531
11:28:09.000453,2047
11:28:09.000453,-2
11:28:09.000453,-502
11:28:09.000453,5375
11:28:09.000453,-2
11:28:09.000453,-485
11:28:09.000453,4607
11:28:09.000453,-2
11:28:09.000453,-488
11:28:09.000453,4095
11:28:09.000453,-2
11:28:09.000453,-502
11:28:09.000453,3327
11:28:09.000453,-2
11:28:09.000453,-521
11:28:09.000453,-1537
11:28:09.000453,-3
11:28:09.000453,-519
11:28:09.000453,-4609
11:28:09.000453,-3
11:28:09.000453,-529
11:28:09.000453,-6401
11:28:09.000453,-3
11:28:09.000453,-531
11:28:09.000453,-257
11:28:09.000453,-3
11:28:09.000453,-509
11:28:09.000453,7167
11:28:09.000453,-2
11:28:09.000453,-478
11:28:09.000453,11519
11:28:09.000453,-2
11:28:09.000453,-444
11:28:09.000453,20735
11:28:09.000453,-2
11:28:09.000453,-418
11:28:09.000453,20735
11:28:09.000453,-2
11:28:09.000453,-449
11:28:09.000453,18687
11:28:09.000453,-2
11:28:09.000453,-454
11:28:09.000453,15615
11:28:09.000453,-2
11:28:09.000453,-442
11:28:09.000453,14591
11:28:09.000453,-2
11:28:09.000453,-452
11:28:09.000453,12031
11:28:09.000453,-2
11:28:09.000453,-473
11:28:09.000453,13823
11:28:09.000453,-2
11:28:09.000453,-466
11:28:09.000453,14591
11:28:09.000453,-2
11:28:09.000453,-454
11:28:09.000453,13311
11:28:09.000453,-2
11:28:09.000453,-447
11:28:09.000453,16383
11:28:09.000453,-2
11:28:09.000453,-440
11:28:09.000453,21759
11:28:09.000453,-2
11:28:09.000453,-428
11:28:09.000453,27391
11:28:09.000453,-2
11:28:09.000453,-406
11:28:09.000453,26111
11:28:09.000453,-2
11:28:09.000453,-404
11:28:09.000453,24831
11:28:09.000453,-2
11:28:09.000453,-413
11:28:09.000453,24319
11:28:09.000453,-2
11:28:09.000453,-425
11:28:09.000453,25599
11:28:09.000453,-2
11:28:09.000453,-428
11:28:09.542899,-428
11:28:09.542899,23039
11:28:09.542899,-2
11:28:09.542899,-442
11:28:09.542899,14591
11:28:09.542899,-2
11:28:09.542899,-495
11:28:09.542899,5887
11:28:09.542899,-2
11:28:09.542899,-363
11:28:09.542899,20479
11:28:09.542899,-1
11:28:09.542899,-96
11:28:09.542899,16639
11:28:09.542899,-1
11:28:09.542899,-274
11:28:09.542899,-16641
11:28:09.542899,-2
11:28:09.542899,-416
11:28:09.542899,20735
11:28:09.542899,-2
11:28:09.542899,-408
11:28:09.542899,22527
11:28:09.542899,-2
11:28:09.542899,-411
11:28:09.542899,27391
11:28:09.542899,-2
11:28:09.542899,-413
11:28:09.542899,28671
11:28:09.542899,-2
11:28:09.542899,-413
11:28:09.542899,27391
11:28:09.542899,-2
11:28:09.542899,-404
11:28:09.542899,26879
11:28:09.542899,-2
11:28:09.542899,-394
11:28:09.542899,28671
11:28:09.542899,-2
11:28:09.542899,-404
11:28:09.542899,28671
11:28:09.542899,-2
11:28:09.542899,-413
11:28:09.542899,28671
11:28:09.542899,-2
11:28:09.542899,-399
11:28:09.542899,31231
11:28:09.542899,-2
11:28:09.542899,-379
11:28:09.542899,-30721
11:28:09.542899,-2
11:28:09.542899,-358
11:28:09.542899,-25857
11:28:09.542899,-2
11:28:09.542899,-367
11:28:09.542899,-24065
11:28:09.542899,-2
11:28:09.542899,-367
11:28:09.542899,-30209
11:28:09.542899,-2
11:28:09.542899,-367
11:28:09.542899,-32513
11:28:09.542899,-2
11:28:09.542899,-372
11:28:09.542899,-28929
11:28:09.542899,-2
11:28:09.542899,-365
11:28:09.542899,-21505
11:28:09.542899,-2
11:28:09.542899,-343
11:28:09.542899,-18433
11:28:09.542899,-2
11:28:09.542899,-317
11:28:09.542899,-15361
11:28:09.542899,-2
11:28:09.542899,-298
11:28:09.542899,-10497
11:28:09.542899,-2
11:28:09.542899,-290
11:28:09.542899,-7937
11:28:09.542899,-2
11:28:09.542899,-300
11:28:09.542899,-8449
11:28:09.542899,-2
11:28:09.542899,-303
11:28:09.542899,-14849
11:28:09.542899,-2
11:28:09.542899,-312
11:28:09.542899,-20225
11:28:09.542899,-2
11:28:09.542899,-329
11:28:09.542899,-17153
11:28:09.542899,-2
11:28:09.542899,-336
11:28:09.542899,-17153
11:28:09.542899,-2
11:28:09.542899,-329
11:28:09.542899,-15873
11:28:09.542899,-2
11:28:09.542899,-300
11:28:09.542899,-12289
11:28:09.542899,-2
11:28:09.542899,-290
11:28:09.542899,-7937
11:28:09.542899,-2
11:28:09.542899,-290
11:28:09.542899,-4865
11:28:09.542899,-2
11:28:09.542899,-278
11:28:10.084593,-262
11:28:10.084593,-2305
11:28:10.084593,-2
11:28:10.084593,-283
11:28:10.084593,-3585
11:28:10.084593,-2
11:28:10.084593,-281
11:28:10.084593,-6657
11:28:10.084593,-2
11:28:10.084593,-274
11:28:10.084593,-2305
11:28:10.084593,-2
11:28:10.084593,-240
11:28:10.084593,-513
11:28:10.084593,-2
11:28:10.084593,-276
11:28:10.084593,4351
11:28:10.084593,-1
11:28:10.084593,-242
11:28:10.084593,3071
11:28:10.084593,-1
11:28:10.084593,-245
11:28:10.084593,-1
11:28:10.084593,-2
11:28:10.084593,-252
11:28:10.084593,767
11:28:10.084593,-1
11:28:10.084593,-242
11:28:10.084593,7423
11:28:10.084593,-1
11:28:10.084593,-238
11:28:10.084593,9215
11:28:10.084593,-1
11:28:10.084593,-209
11:28:10.084593,10495
11:28:10.084593,-1
11:28:10.084593,-230
11:28:10.084593,-3073
11:28:10.084593,-2
11:28:10.084593,-218
11:28:10.084593,-15105
11:28:10.084593,-1
11:28:10.084593,76
11:28:10.084593,9728
11:28:10.084593,0
11:28:10.084593,-151
11:28:10.084593,-3073
11:28:10.084593,-2
11:28:10.084593,-315
11:28:10.084593,-28161
11:28:10.084593,-2
11:28:10.084593,-365
11:28:10.084593,-25089
11:28:10.084593,-2
11:28:10.084593,-353
11:28:10.084593,-16641
11:28:10.084593,-2
11:28:10.084593,-312
11:28:10.084593,-7425
11:28:10.084593,-2
11:28:10.084593,-257
11:28:10.084593,3839
11:28:10.084593,-1
11:28:10.084593,-209
11:28:10.084593,13055
11:28:10.084593,-1
11:28:10.084593,-211
11:28:10.084593,13567
11:28:10.084593,-1
11:28:10.084593,-228
11:28:10.084593,7423
11:28:10.084593,-1
11:28:10.084593,-226
11:28:10.084593,7423
11:28:10.084593,-1
11:28:10.084593,-211
11:28:10.084593,11775
11:28:10.084593,-1
11:28:10.084593,-206
11:28:10.084593,15359
11:28:10.084593,-1
11:28:10.084593,-194
11:28:10.084593,19199
11:28:10.084593,-1
11:28:10.084593,-192
11:28:10.084593,16127
11:28:10.084593,-1
11:28:10.084593,-185
11:28:10.084593,14079
11:28:10.084593,-1
11:28:10.084593,-189
11:28:10.084593,18431
11:28:10.084593,-1
11:28:10.084593,-187
11:28:10.084593,24575
11:28:10.084593,-1
11:28:10.084593,-156
11:28:10.084593,27647
11:28:10.084593,-1
11:28:10.084593,-139
11:28:10.084593,27135
11:28:10.084593,-1
11:28:10.084593,-144
11:28:10.084593,28415
11:28:10.084593,-1
11:28:10.084593,-146
11:28:10.084593,32767
11:28:10.084593,-1
11:28:10.084593,-137
11:28:10.666572,-132
11:28:10.666572,31999
11:28:10.666572,-1
11:28:10.666572,-137
11:28:10.666572,-32257
11:28:10.666572,-1
11:28:10.666572,-122
11:28:10.666572,-25601
11:28:10.666572,-1
11:28:10.666572,-125
11:28:10.666572,22783
11:28:10.666572,-1
11:28:10.666572,-141
11:28:10.666572,31999
11:28:10.666572,-1
11:28:10.666572,-132
11:28:10.666572,-28673
11:28:10.666572,-1
11:28:10.666572,-122
11:28:10.666572,-30465
11:28:10.666572,-1
11:28:10.666572,-115
11:28:10.666572,-31745
11:28:10.666572,-1
11:28:10.666572,-117
11:28:10.666572,30719
11:28:10.666572,-1
11:28:10.666572,-151
11:28:10.666572,27647
11:28:10.666572,-1
11:28:10.666572,-163
11:28:10.666572,22783
11:28:10.666572,-1
11:28:10.666572,-175
11:28:10.666572,23551
11:28:10.666572,-1
11:28:10.666572,-153
11:28:10.666572,23551
11:28:10.666572,-1
11:28:10.666572,-144
11:28:10.666572,-32257
11:28:10.666572,-1
11:28:10.666572,-127
11:28:10.666572,-28673
11:28:10.666572,-1
11:28:10.666572,-127
11:28:10.666572,-32257
11:28:10.666572,-1
11:28:10.666572,-120
11:28:10.666572,31999
11:28:10.666572,-1
11:28:10.666572,-125
11:28:10.666572,-32257
11:28:10.666572,-1
11:28:10.666572,-141
11:28:10.666572,31487
11:28:10.666572,-1
11:28:10.666572,-141
11:28:10.666572,32767
11:28:10.666572,-1
11:28:10.666572,-117
11:28:10.666572,-32257
11:28:10.666572,-1
11:28:10.666572,-125
11:28:10.666572,-32257
11:28:10.666572,-1
11:28:10.666572,-115
11:28:10.666572,-25601
11:28:10.666572,-1
11:28:10.666572,-105
11:28:10.666572,-22273
11:28:10.666572,-1
11:28:10.666572,-91
11:28:10.666572,-24833
11:28:10.666572,-1
11:28:10.666572,-88
11:28:10.666572,-26113
11:28:10.666572,-1
11:28:10.666572,-115
11:28:10.666572,25855
11:28:10.666572,-1
11:28:10.666572,-216
11:28:10.666572,17919
11:28:10.666572,-1
11:28:10.666572,-55
11:28:10.666572,-29697
11:28:10.666572,0
11:28:10.666572,182
11:28:10.666572,7936
11:28:10.666572,0
11:28:10.666572,-62
11:28:10.666572,-29185
11:28:10.666572,-1
11:28:10.666572,-165
11:28:10.666572,27647
11:28:10.666572,-1
11:28:10.666572,-146
11:28:10.666572,26623
11:28:10.666572,-1
11:28:10.666572,-153
11:28:10.666572,24063
11:28:10.666572,-1
11:28:10.666572,-161
11:28:10.666572,20479
11:28:10.666572,-1
11:28:10.666572,-187
11:28:10.666572,18431
11:28:10.666572,-1
11:28:10.666572,-199
11:28:11.252951,-194
11:28:11.252951,17919
11:28:11.252951,-1
11:28:11.252951,-185
11:28:11.252951,21503
11:28:11.252951,-1
11:28:11.252951,-180
11:28:11.252951,21503
11:28:11.252951,-1
11:28:11.252951,-161
11:28:11.252951,28927
11:28:11.252951,-1
11:28:11.252951,-98
11:28:11.252951,-27905
11:28:11.252951,-1
11:28:11.252951,-144
11:28:11.252951,-31745
11:28:11.252951,-1
11:28:11.252951,-113
11:28:11.252951,-26625
11:28:11.252951,-1
11:28:11.252951,-113
11:28:11.252951,-30465
11:28:11.252951,-1
11:28:11.252951,-110
11:28:11.252951,-30977
11:28:11.252951,-1
11:28:11.252951,-120
11:28:11.252951,-27905
11:28:11.252951,-1
11:28:11.252951,-125
11:28:11.252951,-30465
11:28:11.252951,-1
11:28:11.252951,-122
11:28:11.252951,31999
11:28:11.252951,-1
11:28:11.252951,-127
11:28:11.252951,31999
11:28:11.252951,-1
11:28:11.252951,-122
11:28:11.252951,-30977
11:28:11.252951,-1
11:28:11.252951,-120
11:28:11.252951,-26625
11:28:11.252951,-1
11:28:11.252951,-115
11:28:11.252951,-27905
11:28:11.252951,-1
11:28:11.252951,-110
11:28:11.252951,31999
11:28:11.252951,-1
11:28:11.252951,-127
11:28:11.252951,30719
11:28:11.252951,-1
11:28:11.252951,-146
11:28:11.252951,31487
11:28:11.252951,-1
11:28:11.252951,-144
11:28:11.252951,31999
11:28:11.252951,-1
11:28:11.252951,-117
11:28:11.252951,-29697
11:28:11.252951,-1
11:28:11.252951,-96
11:28:11.252951,-23553
11:28:11.252951,-1
11:28:11.252951,-86
11:28:11.252951,-18689
11:28:11.252951,-1
11:28:11.252951,-79
11:28:11.252951,-20481
11:28:11.252951,-1
11:28:11.252951,-98
11:28:11.252951,-26625
11:28:11.252951,-1
11:28:11.252951,-103
11:28:11.252951,-30465
11:28:11.252951,-1
11:28:11.252951,-115
11:28:11.252951,-29185
11:28:11.252951,-1
11:28:11.252951,-120
11:28:11.252951,-24833
11:28:11.252951,-1
11:28:11.252951,-96
11:28:11.252951,-20481
11:28:11.252951,-1
11:28:11.252951,-64
11:28:11.252951,-19201
11:28:11.252951,-1
11:28:11.252951,-69
11:28:11.252951,-19201
11:28:11.252951,-1
11:28:11.252951,-96
11:28:11.252951,-24833
11:28:11.252951,-1
11:28:11.252951,-122
11:28:11.252951,-31745
11:28:11.252951,-1
11:28:11.252951,-117
11:28:11.252951,-29697
11:28:11.252951,-1
11:28:11.252951,-101
11:28:11.252951,-23553
11:28:11.252951,-1
11:28:11.252951,-88
11:28:11.252951,-21249
11:28:11.252951,-1
11:28:11.252951,-93
11:28:11.794973,-91
11:28:11.794973,-26113
11:28:11.794973,-1
11:28:11.794973,-108
11:28:11.794973,-25601
11:28:11.794973,-1
11:28:11.794973,-125
11:28:11.794973,-29697
11:28:11.794973,-1
11:28:11.794973,-108
11:28:11.794973,30719
11:28:11.794973,-1
11:28:11.794973,-163
11:28:11.794973,15359
11:28:11.794973,-1
11:28:11.794973,-156
11:28:11.794973,8191
11:28:11.794973,0
11:28:11.794973,209
11:28:11.794973,-15872
11:28:11.794973,0
11:28:11.794973,45
11:28:11.794973,-11520
11:28:11.794973,-1
11:28:11.794973,-96
11:28:11.794973,25855
11:28:11.794973,-1
11:28:11.794973,-153
11:28:11.794973,29695
11:28:11.794973,-1
11:28:11.794973,-151
11:28:11.794973,31999
11:28:11.794973,-1
11:28:11.794973,-122
11:28:11.794973,-30465
11:28:11.794973,-1
11:28:11.794973,-110
11:28:11.794973,-28673
11:28:11.794973,-1
11:28:11.794973,-98
11:28:11.794973,-25601
11:28:11.794973,-1
11:28:11.794973,-108
11:28:11.794973,-24833
11:28:11.794973,-1
11:28:11.794973,-113
11:28:11.794973,-28673
11:28:11.794973,-1
11:28:11.794973,-108
11:28:11.794973,-30465
11:28:11.794973,-1
11:28:11.794973,-108
11:28:11.794973,-26113
11:28:11.794973,-1
11:28:11.794973,-93
11:28:11.794973,-16897
11:28:11.794973,-1
11:28:11.794973,-60
11:28:11.794973,-10753
11:28:11.794973,-1
11:28:11.794973,-33
11:28:11.794973,-7681
11:28:11.794973,-1
11:28:11.794973,-16
11:28:11.794973,-6401
11:28:11.794973,-1
11:28:11.794973,-21
11:28:11.794973,-2817
11:28:11.794973,-1
11:28:11.794973,-21
11:28:11.794973,-3841
11:28:11.794973,-1
11:28:11.794973,-26
11:28:11.794973,-6913
11:28:11.794973,-1
11:28:11.794973,-19
11:28:11.794973,-7681
11:28:11.794973,-1
11:28:11.794973,-28
11:28:11.794973,-8193
11:28:11.794973,-1
11:28:11.794973,-43
11:28:11.794973,-7681
11:28:11.794973,-1
11:28:11.794973,-40
11:28:11.794973,-9473
11:28:11.794973,-1
11:28:11.794973,-31
11:28:11.794973,-11265
11:28:11.794973,-1
11:28:11.794973,-40
11:28:11.794973,-10753
11:28:11.794973,-1
11:28:11.794973,-40
11:28:11.794973,-6401
11:28:11.794973,-1
11:28:11.794973,-40
11:28:11.794973,-9473
11:28:11.794973,-1
11:28:11.794973,-33
11:28:11.794973,-6913
11:28:11.794973,-1
11:28:11.794973,-2
11:28:11.794973,1279
11:28:11.794973,0
11:28:11.794973,19
11:28:11.794973,9728
11:28:11.794973,0
11:28:11.794973,40
11:28:12.378641,48
11:28:12.378641,11520
11:28:12.378641,0
11:28:12.378641,52
11:28:12.378641,15360
11:28:12.378641,0
11:28:12.378641,48
11:28:12.378641,14592
11:28:12.378641,0
11:28:12.378641,64
11:28:12.378641,18944
11:28:12.378641,0
11:28:12.378641,125
11:28:12.378641,-30464
11:28:12.378641,0
11:28:12.378641,101
11:28:12.378641,23808
11:28:12.378641,0
11:28:12.378641,108
11:28:12.378641,30720
11:28:12.378641,0
11:28:12.378641,108
11:28:12.378641,25088
11:28:12.378641,0
11:28:12.378641,101
11:28:12.378641,22528
11:28:12.378641,0
11:28:12.378641,91
11:28:12.378641,24576
11:28:12.378641,0
11:28:12.378641,98
11:28:12.378641,26880
11:28:12.378641,0
11:28:12.378641,101
11:28:12.378641,28160
11:28:12.378641,0
11:28:12.378641,115
11:28:12.378641,27648
11:28:12.378641,0
11:28:12.378641,127
11:28:12.378641,30720
11:28:12.378641,0
11:28:12.378641,120
11:28:12.378641,-27392
11:28:12.378641,0
11:28:12.378641,139
11:28:12.378641,-29440
11:28:12.378641,0
11:28:12.378641,149
11:28:12.378641,32000
11:28:12.378641,0
11:28:12.378641,105
11:28:12.378641,15360
11:28:12.378641,0
11:28:12.378641,26
11:28:12.378641,18944
11:28:12.378641,0
11:28:12.378641,211
11:28:12.378641,26112
11:28:12.378641,1
11:28:12.378641,305
11:28:12.378641,-28160
11:28:12.378641,0
11:28:12.378641,93
11:28:12.378641,16384
11:28:12.378641,0
11:28:12.378641,31
11:28:12.378641,6144
11:28:12.378641,0
11:28:12.378641,21
11:28:12.378641,7168
11:28:12.378641,0
11:28:12.378641,21
11:28:12.378641,7168
11:28:12.378641,0
11:28:12.378641,31
11:28:12.378641,2304
11:28:12.378641,0
11:28:12.378641,16
11:28:12.378641,3072
11:28:12.378641,0
11:28:12.378641,4
11:28:12.378641,4864
11:28:12.378641,0
11:28:12.378641,4
11:28:12.378641,-3072
11:28:12.378641,-1
11:28:12.378641,-19
11:28:12.378641,-9473
11:28:12.378641,-1
11:28:12.378641,-36
11:28:12.378641,-9985
11:28:12.378641,-1
11:28:12.378641,-52
11:28:12.378641,-12545
11:28:12.378641,-1
11:28:12.378641,-43
11:28:12.378641,-8193
11:28:12.378641,-1
11:28:12.378641,-50
11:28:12.378641,-13825
11:28:12.378641,-1
11:28:12.378641,-40
11:28:12.378641,-16129
11:28:12.378641,-1
11:28:12.378641,-76
11:28:12.378641,-21249
11:28:12.378641,-1
11:28:12.378641,-98
11:28:12.914163,-96
11:28:12.914163,-28673
11:28:12.914163,-1
11:28:12.914163,-122
11:28:12.914163,-30465
11:28:12.914163,-1
11:28:12.914163,-137
11:28:12.914163,31999
11:28:12.914163,-1
11:28:12.914163,-132
11:28:12.914163,30207
11:28:12.914163,-1
11:28:12.914163,-134
11:28:12.914163,28927
11:28:12.914163,-1
11:28:12.914163,-141
11:28:12.914163,-29185
11:28:12.914163,-1
11:28:12.914163,-110
11:28:12.914163,30207
11:28:12.914163,-1
11:28:12.914163,-177
11:28:12.914163,22271
11:28:12.914163,-1
11:28:12.914163,-163
11:28:12.914163,17407
11:28:12.914163,-1
11:28:12.914163,-187
11:28:12.914163,18431
11:28:12.914163,-1
11:28:12.914163,-199
11:28:12.914163,15359
11:28:12.914163,-1
11:28:12.914163,-199
11:28:12.914163,17407
11:28:12.914163,-1
11:28:12.914163,-185
11:28:12.914163,16639
11:28:12.914163,-1
11:28:12.914163,-185
11:28:12.914163,16639
11:28:12.914163,-1
11:28:12.914163,-194
11:28:12.914163,17407
11:28:12.914163,-1
11:28:12.914163,-204
11:28:12.914163,13055
11:28:12.914163,-1
11:28:12.914163,-218
11:28:12.914163,6143
11:28:12.914163,-1
11:28:12.914163,-228
11:28:12.914163,3071
11:28:12.914163,-1
11:28:12.914163,-250
11:28:12.914163,1791
11:28:12.914163,-1
11:28:12.914163,-262
11:28:12.914163,1279
11:28:12.914163,-1
11:28:12.914163,-245
11:28:12.914163,4863
11:28:12.914163,-1
11:28:12.914163,-230
11:28:12.914163,1791
11:28:12.914163,-1
11:28:12.914163,-245
11:28:12.914163,2559
11:28:12.914163,-1
11:28:12.914163,-264
11:28:12.914163,-1281
11:28:12.914163,-2
11:28:12.914163,-266
11:28:12.914163,-1281
11:28:12.914163,-2
11:28:12.914163,-262
11:28:12.914163,-3073
11:28:12.914163,-2
11:28:12.914163,-257
11:28:12.914163,-4353
11:28:12.914163,-2
11:28:12.914163,-312
11:28:12.914163,-22785
11:28:12.914163,-2
11:28:12.914163,-343
11:28:12.914163,9215
11:28:12.914163,-1
11:28:12.914163,-57
11:28:12.914163,-11265
11:28:12.914163,-1
11:28:12.914163,-139
11:28:12.914163,16639
11:28:12.914163,-1
11:28:12.914163,-221
11:28:12.914163,-4865
11:28:12.914163,-2
11:28:12.914163,-298
11:28:12.914163,-6145
11:28:12.914163,-2
11:28:12.914163,-290
11:28:12.914163,-9729
11:28:12.914163,-2
11:28:12.914163,-281
11:28:12.914163,-8449
11:28:12.914163,-2
11:28:12.914163,-283
11:28:12.914163,-7425
11:28:12.914163,-2
11:28:12.914163,-290
11:28:13.458343,-276
11:28:13.458343,-7937
11:28:13.458343,-2
11:28:13.458343,-286
11:28:13.458343,-4353
11:28:13.458343,-2
11:28:13.458343,-286
11:28:13.458343,-6145
11:28:13.458343,-2
11:28:13.458343,-276
11:28:13.458343,-3585
11:28:13.458343,-2
11:28:13.458343,-245
11:28:13.458343,9215
11:28:13.458343,-1
11:28:13.458343,-216
11:28:13.458343,4863
11:28:13.458343,-1
11:28:13.458343,-238
11:28:13.458343,10495
11:28:13.458343,-1
11:28:13.458343,-223
11:28:13.458343,8703
11:28:13.458343,-1
11:28:13.458343,-228
11:28:13.458343,3071
11:28:13.458343,-1
11:28:13.458343,-235
11:28:13.458343,3839
11:28:13.458343,-1
11:28:13.458343,-245
11:28:13.458343,6143
11:28:13.458343,-1
11:28:13.458343,-247
11:28:13.458343,3071
11:28:13.458343,-1
11:28:13.458343,-242
11:28:13.458343,1279
11:28:13.458343,-1
11:28:13.458343,-238
11:28:13.458343,3071
11:28:13.458343,-1
11:28:13.458343,-250
11:28:13.458343,2559
11:28:13.458343,-1
11:28:13.458343,-250
11:28:13.458343,4863
11:28:13.458343,-1
11:28:13.458343,-242
11:28:13.458343,3839
11:28:13.458343,-1
11:28:13.458343,-233
11:28:13.458343,6143
11:28:13.458343,-1
11:28:13.458343,-209
11:28:13.458343,14847
11:28:13.458343,-1
11:28:13.458343,-202
11:28:13.458343,17407
11:28:13.458343,-1
11:28:13.458343,-209
11:28:13.458343,9983
11:28:13.458343,-1
11:28:13.458343,-214
11:28:13.458343,7935
11:28:13.458343,-1
11:28:13.458343,-228
11:28:13.458343,1791
11:28:13.458343,-1
11:28:13.458343,-257
11:28:13.458343,4863
11:28:13.458343,-1
11:28:13.458343,-240
11:28:13.458343,9215
11:28:13.458343,-1
11:28:13.458343,-209
11:28:13.458343,7935
11:28:13.458343,-1
11:28:13.458343,-218
11:28:13.458343,8703
11:28:13.458343,-1
11:28:13.458343,-218
11:28:13.458343,13055
11:28:13.458343,-1
11:28:13.458343,-206
11:28:13.458343,17407
11:28:13.458343,-1
11:28:13.458343,-192
11:28:13.458343,17407
11:28:13.458343,-1
11:28:13.458343,-175
11:28:13.458343,16127
11:28:13.458343,-1
11:28:13.458343,-199
11:28:13.458343,16127
11:28:13.458343,-1
11:28:13.458343,-199
11:28:13.458343,17407
11:28:13.458343,-1
11:28:13.458343,-202
11:28:13.458343,14079
11:28:13.458343,-1
11:28:13.458343,-204
11:28:13.458343,3839
11:28:13.458343,-1
11:28:13.458343,-276
11:28:13.458343,-11009
11:28:13.458343,-2
11:28:13.458343,-242
11:28:14.041154,-55
11:28:14.041154,25343
11:28:14.041154,0
11:28:14.041154,74
11:28:14.041154,-12288
11:28:14.041154,-1
11:28:14.041154,-122
11:28:14.041154,27647
11:28:14.041154,-1
11:28:14.041154,-165
11:28:14.041154,24575
11:28:14.041154,-1
11:28:14.041154,-187
11:28:14.041154,10495
11:28:14.041154,-1
11:28:14.041154,-187
11:28:14.041154,19199
11:28:14.041154,-1
11:28:14.041154,-197
11:28:14.041154,16639
11:28:14.041154,-1
11:28:14.041154,-214
11:28:14.041154,12287
11:28:14.041154,-1
11:28:14.041154,-192
11:28:14.041154,16639
11:28:14.041154,-1
11:28:14.041154,-173
11:28:14.041154,20991
11:28:14.041154,-1
11:28:14.041154,-168
11:28:14.041154,25855
11:28:14.041154,-1
11:28:14.041154,-168
11:28:14.041154,27135
11:28:14.041154,-1
11:28:14.041154,-149
11:28:14.041154,25855
11:28:14.041154,-1
11:28:14.041154,-144
11:28:14.041154,26623
11:28:14.041154,-1
11:28:14.041154,-141
11:28:14.041154,32767
11:28:14.041154,-1
11:28:14.041154,-132
11:28:14.041154,-30465
11:28:14.041154,-1
11:28:14.041154,-129
11:28:14.041154,-30977
11:28:14.041154,-1
11:28:14.041154,-98
11:28:14.041154,-27393
11:28:14.041154,-1
11:28:14.041154,-103
11:28:14.041154,-25601
11:28:14.041154,-1
11:28:14.041154,-103
11:28:14.041154,-25601
11:28:14.041154,-1
11:28:14.041154,-125
11:28:14.041154,-27905
11:28:14.041154,-1
11:28:14.041154,-93
11:28:14.041154,-28673
11:28:14.041154,-1
11:28:14.041154,-117
11:28:14.041154,-32257
11:28:14.041154,-1
11:28:14.041154,-117
11:28:14.041154,-27393
11:28:14.041154,-1
11:28:14.041154,-129
11:28:14.041154,-30977
11:28:14.041154,-1
11:28:14.041154,-127
11:28:14.041154,31999
11:28:14.041154,-1
11:28:14.041154,-113
11:28:14.041154,-30465
11:28:14.041154,-1
11:28:14.041154,-122
11:28:14.041154,-30977
11:28:14.041154,-1
11:28:14.041154,-132
11:28:14.041154,-27905
11:28:14.041154,-1
11:28:14.041154,-105
11:28:14.041154,-25601
11:28:14.041154,-1
11:28:14.041154,-91
11:28:14.041154,-26113
11:28:14.041154,-1
11:28:14.041154,-88
11:28:14.041154,-21761
11:28:14.041154,-1
11:28:14.041154,-86
11:28:14.041154,-15617
11:28:14.041154,-1
11:28:14.041154,-67
11:28:14.041154,-15617
11:28:14.041154,-1
11:28:14.041154,-60
11:28:14.041154,-17409
11:28:14.041154,-1
11:28:14.041154,-55
11:28:14.041154,-16897
11:28:14.041154,-1
11:28:14.041154,-72
11:28:14.581163,-57
11:28:14.581163,-17409
11:28:14.581163,-1
11:28:14.581163,-60
11:28:14.581163,-13825
11:28:14.581163,-1
11:28:14.581163,-64
11:28:14.581163,-14337
11:28:14.581163,-1
11:28:14.581163,-67
11:28:14.581163,-14337
11:28:14.581163,-1
11:28:14.581163,-43
11:28:14.581163,-7681
11:28:14.581163,-1
11:28:14.581163,-16
11:28:14.581163,-15617
11:28:14.581163,-1
11:28:14.581163,-81
11:28:14.581163,-15105
11:28:14.581163,-1
11:28:14.581163,-74
11:28:14.581163,-13057
11:28:14.581163,-1
11:28:14.581163,-38
11:28:14.581163,-10753
11:28:14.581163,-1
11:28:14.581163,-21
11:28:14.581163,-8193
11:28:14.581163,-1
11:28:14.581163,-52
11:28:14.581163,-22273
11:28:14.581163,-1
11:28:14.581163,-125
11:28:14.581163,-10753
11:28:14.581163,-1
11:28:14.581163,146
11:28:14.581163,6400
11:28:14.581163,1
11:28:14.581163,199
11:28:14.581163,10240
11:28:14.581163,0
11:28:14.581163,-21
11:28:14.581163,-20481
11:28:14.581163,-1
11:28:14.581163,-120
11:28:14.581163,-24321
11:28:14.581163,-1
11:28:14.581163,-105
11:28:14.581163,-24833
11:28:14.581163,-1
11:28:14.581163,-79
11:28:14.581163,-22273
11:28:14.581163,-1
11:28:14.581163,-88
11:28:14.581163,-24321
11:28:14.581163,-1
11:28:14.581163,-91
11:28:14.581163,-18689
11:28:14.581163,-1
11:28:14.581163,-88
11:28:14.581163,-21761
11:28:14.581163,-1
11:28:14.581163,-84
11:28:14.581163,-23041
11:28:14.581163,-1
11:28:14.581163,-74
11:28:14.581163,-20481
11:28:14.581163,-1
11:28:14.581163,-74
11:28:14.581163,-15105
11:28:14.581163,-1
11:28:14.581163,-64
11:28:14.581163,-8961
11:28:14.581163,-1
11:28:14.581163,-24
11:28:14.581163,-4609
11:28:14.581163,-1
11:28:14.581163,-4
11:28:14.581163,-3329
11:28:14.581163,-1
11:28:14.581163,-9
11:28:14.581163,-3841
11:28:14.581163,-1
11:28:14.581163,-36
11:28:14.581163,-5889
11:28:14.581163,-1
11:28:14.581163,-43
11:28:14.581163,-13057
11:28:14.581163,-1
11:28:14.581163,-43
11:28:14.581163,-11265
11:28:14.581163,-1
11:28:14.581163,-28
11:28:14.581163,-6913
11:28:14.581163,-1
11:28:14.581163,-28
11:28:14.581163,-2817
11:28:14.581163,-1
11:28:14.581163,-14
11:28:14.581163,767
11:28:14.581163,0
11:28:14.581163,14
11:28:14.581163,512
11:28:14.581163,0
11:28:14.581163,12
11:28:14.581163,0
11:28:14.581163,0
11:28:14.581163,0
11:28:15.165473,4
11:28:15.165473,-2304
11:28:15.165473,-1
11:28:15.165473,-7
11:28:15.165473,-5121
11:28:15.165473,-1
11:28:15.165473,-40
11:28:15.165473,-8961
11:28:15.165473,-1
11:28:15.165473,-26
11:28:15.165473,767
11:28:15.165473,0
11:28:15.165473,-26
11:28:15.165473,-15617
11:28:15.165473,-1
11:28:15.165473,-36
11:28:15.165473,-7681
11:28:15.165473,-1
11:28:15.165473,-31
11:28:15.165473,-5121
11:28:15.165473,-1
11:28:15.165473,-31
11:28:15.165473,-4609
11:28:15.165473,-1
11:28:15.165473,-14
11:28:15.165473,-5121
11:28:15.165473,-1
11:28:15.165473,-12
11:28:15.165473,-4609
11:28:15.165473,-1
11:28:15.165473,-14
11:28:15.165473,-4609
11:28:15.165473,-1
11:28:15.165473,-45
11:28:15.165473,-11265
11:28:15.165473,-1
11:28:15.165473,-55
11:28:15.165473,-14337
11:28:15.165473,-1
11:28:15.165473,-48
11:28:15.165473,-12033
11:28:15.165473,-1
11:28:15.165473,-40
11:28:15.165473,-10753
11:28:15.165473,-1
11:28:15.165473,-36
11:28:15.165473,-5121
11:28:15.165473,-1
11:28:15.165473,-38
11:28:15.165473,-8961
11:28:15.165473,-1
11:28:15.165473,-40
11:28:15.165473,-13825
11:28:15.165473,-1
11:28:15.165473,-50
11:28:15.165473,-18689
11:28:15.165473,-1
11:28:15.165473,-81
11:28:15.165473,-19201
11:28:15.165473,-1
11:28:15.165473,-101
11:28:15.165473,-21249
11:28:15.165473,-1
11:28:15.165473,-69
11:28:15.165473,-18689
11:28:15.165473,-1
11:28:15.165473,-57
11:28:15.165473,-13825
11:28:15.165473,-1
11:28:15.165473,-50
11:28:15.165473,-15105
11:28:15.165473,-1
11:28:15.165473,-101
11:28:15.165473,-30465
11:28:15.165473,-1
11:28:15.165473,-79
11:28:15.165473,24831
11:28:15.165473,0
11:28:15.165473,262
11:28:15.165473,-15104
11:28:15.165473,0
11:28:15.165473,48
11:28:15.165473,-8448
11:28:15.165473,-1
11:28:15.165473,-84
11:28:15.165473,-26625
11:28:15.165473,-1
11:28:15.165473,-120
11:28:15.165473,-28673
11:28:15.165473,-1
11:28:15.165473,-108
11:28:15.165473,-27905
11:28:15.165473,-1
11:28:15.165473,-86
11:28:15.165473,-22273
11:28:15.165473,-1
11:28:15.165473,-86
11:28:15.165473,-17409
11:28:15.165473,-1
11:28:15.165473,-84
11:28:15.165473,-19201
11:28:15.165473,-1
11:28:15.165473,-74
11:28:15.165473,-20481
11:28:15.165473,-1
11:28:15.165473,-76
11:28:15.165473,-23553
11:28:15.165473,-1
11:28:15.165473,-96
11:28:15.708584,-98
11:28:15.708584,-28673
11:28:15.708584,-1
11:28:15.708584,-98
11:28:15.708584,-24321
11:28:15.708584,-1
11:28:15.708584,-86
11:28:15.708584,-17409
11:28:15.708584,-1
11:28:15.708584,-72
11:28:15.708584,-11265
11:28:15.708584,-1
11:28:15.708584,-36
11:28:15.708584,-8193
11:28:15.708584,-1
11:28:15.708584,2
11:28:15.708584,-4864
11:28:15.708584,-1
11:28:15.708584,-52
11:28:15.708584,-9985
11:28:15.708584,-1
11:28:15.708584,-38
11:28:15.708584,-9473
11:28:15.708584,-1
11:28:15.708584,-48
11:28:15.708584,-13057
11:28:15.708584,-1
11:28:15.708584,-45
11:28:15.708584,-13057
11:28:15.708584,-1
11:28:15.708584,-38
11:28:15.708584,-12033
11:28:15.708584,-1
11:28:15.708584,-64
11:28:15.708584,-12033
11:28:15.708584,-1
11:28:15.708584,-55
11:28:15.708584,-13057
11:28:15.708584,-1
11:28:15.708584,-40
11:28:15.708584,-12545
11:28:15.708584,-1
11:28:15.708584,-43
11:28:15.708584,-12033
11:28:15.708584,-1
11:28:15.708584,-45
11:28:15.708584,-7681
11:28:15.708584,-1
11:28:15.708584,-38
11:28:15.708584,-7681
11:28:15.708584,-1
11:28:15.708584,-33
11:28:15.708584,-12033
11:28:15.708584,-1
11:28:15.708584,-36
11:28:15.708584,-10753
11:28:15.708584,-1
11:28:15.708584,-38
11:28:15.708584,-6401
11:28:15.708584,-1
11:28:15.708584,-38
11:28:15.708584,-9473
11:28:15.708584,-1
11:28:15.708584,-48
11:28:15.708584,-13057
11:28:15.708584,-1
11:28:15.708584,-45
11:28:15.708584,-16129
11:28:15.708584,-1
11:28:15.708584,-67
11:28:15.708584,-17409
11:28:15.708584,-1
11:28:15.708584,-79
11:28:15.708584,-18689
11:28:15.708584,-1
11:28:15.708584,-88
11:28:15.708584,-23553
11:28:15.708584,-1
11:28:15.708584,-96
11:28:15.708584,-29185
11:28:15.708584,-1
11:28:15.708584,-110
11:28:15.708584,-27393
11:28:15.708584,-1
11:28:15.708584,-108
11:28:15.708584,-26113
11:28:15.708584,-1
11:28:15.708584,-117
11:28:15.708584,-27393
11:28:15.708584,-1
11:28:15.708584,-98
11:28:15.708584,-26625
11:28:15.708584,-1
11:28:15.708584,-84
11:28:15.708584,-20481
11:28:15.708584,-1
11:28:15.708584,-81
11:28:15.708584,-16129
11:28:15.708584,-1
11:28:15.708584,-69
11:28:15.708584,-16897
11:28:15.708584,-1
11:28:15.708584,-74
11:28:15.708584,-21761
11:28:15.708584,-1
11:28:15.708584,-96
11:28:15.708584,-27393
11:28:15.708584,-1
11:28:15.708584,-101
11:28:16.293508,-115
11:28:16.293508,31487
11:28:16.293508,-1
11:28:16.293508,-127
11:28:16.293508,28415
11:28:16.293508,-1
11:28:16.293508,-161
11:28:16.293508,19711
11:28:16.293508,-1
11:28:16.293508,-214
11:28:16.293508,27647
11:28:16.293508,-1
11:28:16.293508,-14
11:28:16.293508,31487
11:28:16.293508,0
11:28:16.293508,141
11:28:16.293508,512
11:28:16.293508,0
11:28:16.293508,-74
11:28:16.293508,-24833
11:28:16.293508,-1
11:28:16.293508,-168
11:28:16.293508,19711
11:28:16.293508,-1
11:28:16.293508,-175
11:28:16.293508,18431
11:28:16.293508,-1
11:28:16.293508,-180
11:28:16.293508,20479
11:28:16.293508,-1
11:28:16.293508,-173
11:28:16.293508,20991
11:28:16.293508,-1
11:28:16.293508,-175
11:28:16.293508,25343
11:28:16.293508,-1
11:28:16.293508,-158
11:28:16.293508,28927
11:28:16.293508,-1
11:28:16.293508,-146
11:28:16.293508,24063
11:28:16.293508,-1
11:28:16.293508,-151
11:28:16.293508,25343
11:28:16.293508,-1
11:28:16.293508,-163
11:28:16.293508,25343
11:28:16.293508,-1
11:28:16.293508,-177
11:28:16.293508,22783
11:28:16.293508,-1
11:28:16.293508,-153
11:28:16.293508,29695
11:28:16.293508,-1
11:28:16.293508,-115
11:28:16.293508,-27905
11:28:16.293508,-1
11:28:16.293508,-101
11:28:16.293508,-24833
11:28:16.293508,-1
11:28:16.293508,-115
11:28:16.293508,-30465
11:28:16.293508,-1
11:28:16.293508,-141
11:28:16.293508,24063
11:28:16.293508,-1
11:28:16.293508,-175
11:28:16.293508,15359
11:28:16.293508,-1
11:28:16.293508,-194
11:28:16.293508,16127
11:28:16.293508,-1
11:28:16.293508,-199
11:28:16.293508,17407
11:28:16.293508,-1
11:28:16.293508,-194
11:28:16.293508,19711
11:28:16.293508,-1
11:28:16.293508,-168
11:28:16.293508,24063
11:28:16.293508,-1
11:28:16.293508,-132
11:28:16.293508,32767
11:28:16.293508,-1
11:28:16.293508,-137
11:28:16.293508,31999
11:28:16.293508,-1
11:28:16.293508,-149
11:28:16.293508,27647
11:28:16.293508,-1
11:28:16.293508,-151
11:28:16.293508,24575
11:28:16.293508,-1
11:28:16.293508,-156
11:28:16.293508,22783
11:28:16.293508,-1
11:28:16.293508,-175
11:28:16.293508,23551
11:28:16.293508,-1
11:28:16.293508,-165
11:28:16.293508,25343
11:28:16.293508,-1
11:28:16.293508,-165
11:28:16.293508,24575
11:28:16.293508,-1
11:28:16.293508,-141
11:28:16.293508,28415
11:28:16.293508,-1
11:28:16.293508,-137
11:28:16.875128,-139
11:28:16.875128,24575
11:28:16.875128,-1
11:28:16.875128,-161
11:28:16.875128,21503
11:28:16.875128,-1
11:28:16.875128,-177
11:28:16.875128,22271
11:28:16.875128,-1
11:28:16.875128,-180
11:28:16.875128,16639
11:28:16.875128,-1
11:28:16.875128,-209
11:28:16.875128,15359
11:28:16.875128,-1
11:28:16.875128,-156
11:28:16.875128,27135
11:28:16.875128,-1
11:28:16.875128,-170
11:28:16.875128,23551
11:28:16.875128,-1
11:28:16.875128,-144
11:28:16.875128,31999
11:28:16.875128,-1
11:28:16.875128,-141
11:28:16.875128,30719
11:28:16.875128,-1
11:28:16.875128,-144
11:28:16.875128,22271
11:28:16.875128,-1
11:28:16.875128,-161
11:28:16.875128,23551
11:28:16.875128,-1
11:28:16.875128,-180
11:28:16.875128,20479
11:28:16.875128,-1
11:28:16.875128,-189
11:28:16.875128,18431
11:28:16.875128,-1
11:28:16.875128,-192
11:28:16.875128,7935
11:28:16.875128,-1
11:28:16.875128,-247
11:28:16.875128,4863
11:28:16.875128,-1
11:28:16.875128,-120
11:28:16.875128,12543
11:28:16.875128,0
11:28:16.875128,52
11:28:16.875128,-14080
11:28:16.875128,-1
11:28:16.875128,-117
11:28:16.875128,25343
11:28:16.875128,-1
11:28:16.875128,-202
11:28:16.875128,9983
11:28:16.875128,-1
11:28:16.875128,-194
11:28:16.875128,17919
11:28:16.875128,-1
11:28:16.875128,-192
11:28:16.875128,19711
11:28:16.875128,-1
11:28:16.875128,-194
11:28:16.875128,14079
11:28:16.875128,-1
11:28:16.875128,-192
11:28:16.875128,14079
11:28:16.875128,-1
11:28:16.875128,-202
11:28:16.875128,13055
11:28:16.875128,-1
11:28:16.875128,-209
11:28:16.875128,15359
11:28:16.875128,-1
11:28:16.875128,-204
11:28:16.875128,16639
11:28:16.875128,-1
11:28:16.875128,-187
11:28:16.875128,17919
11:28:16.875128,-1
11:28:16.875128,-165
11:28:16.875128,23551
11:28:16.875128,-1
11:28:16.875128,-156
11:28:16.875128,31999
11:28:16.875128,-1
11:28:16.875128,-134
11:28:16.875128,-32257
11:28:16.875128,-1
11:28:16.875128,-127
11:28:16.875128,30719
11:28:16.875128,-1
11:28:16.875128,-134
11:28:16.875128,27647
11:28:16.875128,-1
11:28:16.875128,-153
11:28:16.875128,25855
11:28:16.875128,-1
11:28:16.875128,-165
11:28:16.875128,24575
11:28:16.875128,-1
11:28:16.875128,-165
11:28:16.875128,25855
11:28:16.875128,-1
11:28:16.875128,-137
11:28:16.875128,30207
11:28:16.875128,-1
11:28:16.875128,-132
11:28:17.372584,-139
11:28:17.372584,31487
11:28:17.372584,-1
11:28:17.372584,-115
11:28:17.372584,31999
11:28:17.372584,-1
11:28:17.372584,-132
11:28:17.372584,32767
11:28:17.372584,-1
11:28:17.372584,-146
11:28:17.372584,30207
11:28:17.372584,-1
11:28:17.372584,-144
11:28:17.372584,26623
11:28:17.372584,-1
11:28:17.372584,-149
11:28:17.372584,26623
11:28:17.372584,-1
11:28:17.372584,-139
11:28:17.372584,-27905
11:28:17.372584,-1
11:28:17.372584,-98
11:28:17.372584,-29697
11:28:17.372584,-1
11:28:17.372584,-137
11:28:17.372584,-29185
11:28:17.372584,-1
11:28:17.372584,-113
11:28:17.372584,31487
11:28:17.372584,-1
11:28:17.372584,-127
11:28:17.372584,29695
11:28:17.372584,-1
11:28:17.372584,-146
11:28:17.372584,31487
11:28:17.372584,-1
11:28:17.372584,-144
11:28:17.372584,32767
11:28:17.372584,-1
11:28:17.372584,-120
11:28:17.372584,-30465
11:28:17.372584,-1
11:28:17.372584,-103
11:28:17.372584,-27393
11:28:17.372584,-1
11:28:17.372584,-105
11:28:17.372584,-24833
11:28:17.372584,-1
11:28:17.372584,-110
11:28:17.372584,-26625
11:28:17.372584,-1
11:28:17.372584,-108
11:28:17.372584,-27393
11:28:17.372584,-1
11:28:17.372584,-103
11:28:17.372584,-29697
11:28:17.372584,-1
11:28:17.372584,-115
11:28:17.372584,-30977
11:28:17.372584,-1
11:28:17.372584,-129
11:28:17.372584,-29185
11:28:17.372584,-1
11:28:17.372584,-120
11:28:17.372584,-28673
11:28:17.372584,-1
11:28:17.372584,-98
11:28:17.372584,-26113
11:28:17.372584,-1
11:28:17.372584,-96
11:28:17.372584,-25601
11:28:17.372584,-1
11:28:17.372584,-101
11:28:17.372584,-24321
11:28:17.372584,-1
11:28:17.372584,-101
11:28:17.372584,-21249
11:28:17.372584,-1
11:28:17.372584,-81
11:28:17.372584,-22273
11:28:17.372584,-1
11:28:17.372584,-79
11:28:17.372584,-22273
11:28:17.372584,-1
11:28:17.372584,-103
11:28:17.372584,31487
11:28:17.372584,-1
11:28:17.372584,-177
11:28:17.372584,31487
11:28:17.372584,-1
11:28:17.372584,21
11:28:17.372584,-10240
11:28:17.372584,0
11:28:17.372584,223
11:28:17.372584,16384
11:28:17.372584,0
11:28:17.372584,-24
11:28:17.372584,-24321
11:28:17.372584,-1
11:28:17.372584,-156
11:28:17.372584,30719
11:28:17.372584,-1
11:28:17.372584,-139
11:28:17.372584,28927
11:28:17.372584,-1
11:28:17.372584,-127
11:28:17.372584,-31745
11:28:17.372584,-1
11:28:17.372584,-110
11:28:17.955475,-115
11:28:17.955475,-30465
11:28:17.955475,-1
11:28:17.955475,-110
11:28:17.955475,-27905
11:28:17.955475,-1
11:28:17.955475,-79
11:28:17.955475,-14337
11:28:17.955475,-1
11:28:17.955475,-81
11:28:17.955475,-25601
11:28:17.955475,-1
11:28:17.955475,-103
11:28:17.955475,-23041
11:28:17.955475,-1
11:28:17.955475,-88
11:28:17.955475,-25601
11:28:17.955475,-1
11:28:17.955475,-91
11:28:17.955475,-23041
11:28:17.955475,-1
11:28:17.955475,-91
11:28:17.955475,-18689
11:28:17.955475,-1
11:28:17.955475,-79
11:28:17.955475,-19201
11:28:17.955475,-1
11:28:17.955475,-81
11:28:17.955475,-22273
11:28:17.955475,-1
11:28:17.955475,-76
11:28:17.955475,-19201
11:28:17.955475,-1
11:28:17.955475,-64
11:28:17.955475,-13057
11:28:17.955475,-1
11:28:17.955475,-64
11:28:17.955475,-13057
11:28:17.955475,-1
11:28:17.955475,-52
11:28:17.955475,-14337
11:28:17.955475,-1
11:28:17.955475,-50
11:28:17.955475,-18177
11:28:17.955475,-1
11:28:17.955475,-76
11:28:17.955475,-19201
11:28:17.955475,-1
11:28:17.955475,-86
11:28:17.955475,-18177
11:28:17.955475,-1
11:28:17.955475,-74
11:28:17.955475,-19201
11:28:17.955475,-1
11:28:17.955475,-69
11:28:17.955475,-19201
11:28:17.955475,-1
11:28:17.955475,-69
11:28:17.955475,-16129
11:28:17.955475,-1
11:28:17.955475,-67
11:28:17.955475,-16129
11:28:17.955475,-1
11:28:17.955475,-76
11:28:17.955475,-17409
11:28:17.955475,-1
11:28:17.955475,-69
11:28:17.955475,-19201
11:28:17.955475,-1
11:28:17.955475,-64
11:28:17.955475,-19969
11:28:17.955475,-1
11:28:17.955475,-86
11:28:17.955475,-19201
11:28:17.955475,-1
11:28:17.955475,-81
11:28:17.955475,-16897
11:28:17.955475,-1
11:28:17.955475,-64
11:28:17.955475,-19201
11:28:17.955475,-1
11:28:17.955475,-64
11:28:17.955475,-17409
11:28:17.955475,-1
11:28:17.955475,-57
11:28:17.955475,-12545
11:28:17.955475,-1
11:28:17.955475,-72
11:28:17.955475,-19201
11:28:17.955475,-1
11:28:17.955475,-84
11:28:17.955475,-21249
11:28:17.955475,-1
11:28:17.955475,-74
11:28:17.955475,-19201
11:28:17.955475,-1
11:28:17.955475,-67
11:28:17.955475,-18689
11:28:17.955475,-1
11:28:17.955475,-79
11:28:17.955475,-13825
11:28:17.955475,-1
11:28:17.955475,-55
11:28:17.955475,-11265
11:28:17.955475,-1
11:28:17.955475,-40
11:28:17.955475,-13825
11:28:17.955475,-1
11:28:17.955475,-48
11:28:18.544059,-55
11:28:18.544059,-16129
11:28:18.544059,-1
11:28:18.544059,-60
11:28:18.544059,-19201
11:28:18.544059,-1
11:28:18.544059,-79
11:28:18.544059,-19201
11:28:18.544059,-1
11:28:18.544059,-72
11:28:18.544059,-13825
11:28:18.544059,-1
11:28:18.544059,-43
11:28:18.544059,-9985
11:28:18.544059,-1
11:28:18.544059,-76
11:28:18.544059,-23553
11:28:18.544059,-1
11:28:18.544059,-62
11:28:18.544059,-16897
11:28:18.544059,-1
11:28:18.544059,-69
11:28:18.544059,-13057
11:28:18.544059,-1
11:28:18.544059,-64
11:28:18.544059,-16129
11:28:18.544059,-1
11:28:18.544059,-76
11:28:18.544059,-30465
11:28:18.544059,-1
11:28:18.544059,-129
11:28:18.544059,-18689
11:28:18.544059,-1
11:28:18.544059,113
11:28:18.544059,3840
11:28:18.544059,1
11:28:18.544059,204
11:28:18.544059,16384
11:28:18.544059,0
11:28:18.544059,-19
11:28:18.544059,-19201
11:28:18.544059,-1
11:28:18.544059,-110
11:28:18.544059,-30465
11:28:18.544059,-1
11:28:18.544059,-108
11:28:18.544059,-27393
11:28:18.544059,-1
11:28:18.544059,-110
11:28:18.544059,-24833
11:28:18.544059,-1
11:28:18.544059,-105
11:28:18.544059,-26113
11:28:18.544059,-1
11:28:18.544059,-96
11:28:18.544059,-24833
11:28:18.544059,-1
11:28:18.544059,-81
11:28:18.544059,-20481
11:28:18.544059,-1
11:28:18.544059,-86
11:28:18.544059,-19201
11:28:18.544059,-1
11:28:18.544059,-86
11:28:18.544059,-19969
11:28:18.544059,-1
11:28:18.544059,-76
11:28:18.544059,-21761
11:28:18.544059,-1
11:28:18.544059,-76
11:28:18.544059,-19201
11:28:18.544059,-1
11:28:18.544059,-60
11:28:18.544059,-9473
11:28:18.544059,-1
11:28:18.544059,-50
11:28:18.544059,-10753
11:28:18.544059,-1
11:28:18.544059,-38
11:28:18.544059,-8193
11:28:18.544059,-1
11:28:18.544059,-28
11:28:18.544059,-10753
11:28:18.544059,-1
11:28:18.544059,-38
11:28:18.544059,-9985
11:28:18.544059,-1
11:28:18.544059,-52
11:28:18.544059,-9985
11:28:18.544059,-1
11:28:18.544059,-55
11:28:18.544059,-16897
11:28:18.544059,-1
11:28:18.544059,-60
11:28:18.544059,-16897
11:28:18.544059,-1
11:28:18.544059,-60
11:28:18.544059,-15617
11:28:18.544059,-1
11:28:18.544059,-57
11:28:18.544059,-10753
11:28:18.544059,-1
11:28:18.544059,-52
11:28:18.544059,-10753
11:28:18.544059,-1
11:28:18.544059,-38
11:28:18.544059,-11265
11:28:18.544059,-1
11:28:18.544059,-31
11:28:19.125429,-40
11:28:19.125429,-10753
11:28:19.125429,-1
11:28:19.125429,-36
11:28:19.125429,-12545
11:28:19.125429,-1
11:28:19.125429,-45
11:28:19.125429,-12545
11:28:19.125429,-1
11:28:19.125429,-60
11:28:19.125429,-13825
11:28:19.125429,-1
11:28:19.125429,-69
11:28:19.125429,-16129
11:28:19.125429,-1
11:28:19.125429,-52
11:28:19.125429,-6913
11:28:19.125429,-1
11:28:19.125429,-12
11:28:19.125429,-13825
11:28:19.125429,-1
11:28:19.125429,-64
11:28:19.125429,-9473
11:28:19.125429,-1
11:28:19.125429,-52
11:28:19.125429,-11265
11:28:19.125429,-1
11:28:19.125429,-40
11:28:19.125429,-12033
11:28:19.125429,-1
11:28:19.125429,-43
11:28:19.125429,-13825
11:28:19.125429,-1
11:28:19.125429,-52
11:28:19.125429,-13057
11:28:19.125429,-1
11:28:19.125429,-67
11:28:19.125429,-15105
11:28:19.125429,-1
11:28:19.125429,-64
11:28:19.125429,-17409
11:28:19.125429,-1
11:28:19.125429,-55
11:28:19.125429,-13825
11:28:19.125429,-1
11:28:19.125429,-50
11:28:19.125429,-12545
11:28:19.125429,-1
11:28:19.125429,-48
11:28:19.125429,-9473
11:28:19.125429,-1
11:28:19.125429,-48
11:28:19.125429,-10753
11:28:19.125429,-1
11:28:19.125429,-50
11:28:19.125429,-16897
11:28:19.125429,-1
11:28:19.125429,-55
11:28:19.125429,-15617
11:28:19.125429,-1
11:28:19.125429,-60
11:28:19.125429,-7681
11:28:19.125429,-1
11:28:19.125429,-38
11:28:19.125429,-12033
11:28:19.125429,-1
11:28:19.125429,-48
11:28:19.125429,-13057
11:28:19.125429,-1
11:28:19.125429,-48
11:28:19.125429,-14337
11:28:19.125429,-1
11:28:19.125429,-52
11:28:19.125429,-11265
11:28:19.125429,-1
11:28:19.125429,-45
11:28:19.125429,-8961
11:28:19.125429,-1
11:28:19.125429,-48
11:28:19.125429,-15105
11:28:19.125429,-1
11:28:19.125429,-84
11:28:19.125429,32767
11:28:19.125429,-1
11:28:19.125429,-93
11:28:19.125429,12543
11:28:19.125429,0
11:28:19.125429,228
11:28:19.125429,-2304
11:28:19.125429,0
11:28:19.125429,81
11:28:19.125429,-2304
11:28:19.125429,-1
11:28:19.125429,-48
11:28:19.125429,-27393
11:28:19.125429,-1
11:28:19.125429,-105
11:28:19.125429,-25601
11:28:19.125429,-1
11:28:19.125429,-108
11:28:19.125429,-23041
11:28:19.125429,-1
11:28:19.125429,-88
11:28:19.125429,-19969
11:28:19.125429,-1
11:28:19.125429,-74
11:28:19.125429,-19969
11:28:19.125429,-1
11:28:19.125429,-67
11:28:19.623045,-72
11:28:19.623045,-16897
11:28:19.623045,-1
11:28:19.623045,-60
11:28:19.623045,-17409
11:28:19.623045,-1
11:28:19.623045,-60
11:28:19.623045,-16129
11:28:19.623045,-1
11:28:19.623045,-64
11:28:19.623045,-14337
11:28:19.623045,-1
11:28:19.623045,-67
11:28:19.623045,-11265
11:28:19.623045,-1
11:28:19.623045,-38
11:28:19.623045,-11265
11:28:19.623045,-1
11:28:19.623045,-21
11:28:19.623045,-2049
11:28:19.623045,-1
11:28:19.623045,19
11:28:19.623045,9728
11:28:19.623045,0
11:28:19.623045,-7
11:28:19.623045,-5121
11:28:19.623045,-1
11:28:19.623045,-12
11:28:19.623045,-4609
11:28:19.623045,-1
11:28:19.623045,-19
11:28:19.623045,-6401
11:28:19.623045,-1
11:28:19.623045,-19
11:28:19.623045,-3841
11:28:19.623045,-1
11:28:19.623045,-19
11:28:19.623045,-769
11:28:19.623045,-1
11:28:19.623045,-21
11:28:19.623045,-6913
11:28:19.623045,-1
11:28:19.623045,-26
11:28:19.623045,-9985
11:28:19.623045,-1
11:28:19.623045,-31
11:28:19.623045,-6913
11:28:19.623045,-1
11:28:19.623045,-31
11:28:19.623045,-5121
11:28:19.623045,-1
11:28:19.623045,-21
11:28:19.623045,-1537
11:28:19.623045,-1
11:28:19.623045,-16
11:28:19.623045,-6401
11:28:19.623045,-1
11:28:19.623045,-7
11:28:19.623045,-4609
11:28:19.623045,-1
11:28:19.623045,-24
11:28:19.623045,-2817
11:28:19.623045,-1
11:28:19.623045,-24
11:28:19.623045,-5121
11:28:19.623045,-1
11:28:19.623045,-28
11:28:19.623045,-8961
11:28:19.623045,-1
11:28:19.623045,-28
11:28:19.623045,-8961
11:28:19.623045,-1
11:28:19.623045,-26
11:28:19.623045,-5121
11:28:19.623045,-1
11:28:19.623045,-31
11:28:19.623045,-5121
11:28:19.623045,-1
11:28:19.623045,-26
11:28:19.623045,-5121
11:28:19.623045,-1
11:28:19.623045,-7
11:28:19.623045,-2049
11:28:19.623045,-1
11:28:19.623045,0
11:28:19.623045,-1024
11:28:19.623045,-1
11:28:19.623045,-2
11:28:19.623045,3327
11:28:19.623045,0
11:28:19.623045,2
11:28:19.623045,2304
11:28:19.623045,0
11:28:19.623045,7
11:28:19.623045,-3072
11:28:19.623045,-1
11:28:19.623045,-9
11:28:19.623045,-5889
11:28:19.623045,-1
11:28:19.623045,-26
11:28:19.623045,-4609
11:28:19.623045,-1
11:28:19.623045,-48
11:28:19.623045,-13057
11:28:19.623045,-1
11:28:19.623045,-52
11:28:19.623045,-13825
11:28:19.623045,-1
11:28:19.623045,-40
11:28:20.208435,-36
11:28:20.208435,-6913
11:28:20.208435,-1
11:28:20.208435,-31
11:28:20.208435,-6913
11:28:20.208435,-1
11:28:20.208435,-9
11:28:20.208435,-769
11:28:20.208435,-1
11:28:20.208435,19
11:28:20.208435,1024
11:28:20.208435,0
11:28:20.208435,-50
11:28:20.208435,-13057
11:28:20.208435,-1
11:28:20.208435,-57
11:28:20.208435,-20481
11:28:20.208435,-1
11:28:20.208435,-96
11:28:20.208435,25343
11:28:20.208435,-1
11:28:20.208435,-173
11:28:20.208435,-21249
11:28:20.208435,-1
11:28:20.208435,88
11:28:20.208435,-8448
11:28:20.208435,0
11:28:20.208435,132
11:28:20.208435,-1024
11:28:20.208435,-1
11:28:20.208435,-43
11:28:20.208435,-23041
11:28:20.208435,-1
11:28:20.208435,-122
11:28:20.208435,-29185
11:28:20.208435,-1
11:28:20.208435,-115
11:28:20.208435,-30977
11:28:20.208435,-1
11:28:20.208435,-132
11:28:20.208435,-27905
11:28:20.208435,-1
11:28:20.208435,-108
11:28:20.208435,31999
11:28:20.208435,-1
11:28:20.208435,-122
11:28:20.208435,-30977
11:28:20.208435,-1
11:28:20.208435,-120
11:28:20.208435,-27393
11:28:20.208435,-1
11:28:20.208435,-117
11:28:20.208435,-27393
11:28:20.208435,-1
11:28:20.208435,-110
11:28:20.208435,-32257
11:28:20.208435,-1
11:28:20.208435,-122
11:28:20.208435,-32257
11:28:20.208435,-1
11:28:20.208435,-122
11:28:20.208435,-28673
11:28:20.208435,-1
11:28:20.208435,-120
11:28:20.208435,-27393
11:28:20.208435,-1
11:28:20.208435,-101
11:28:20.208435,-22273
11:28:20.208435,-1
11:28:20.208435,-69
11:28:20.208435,-18177
11:28:20.208435,-1
11:28:20.208435,-72
11:28:20.208435,-21249
11:28:20.208435,-1
11:28:20.208435,-98
11:28:20.208435,-24321
11:28:20.208435,-1
11:28:20.208435,-108
11:28:20.208435,-27393
11:28:20.208435,-1
11:28:20.208435,-108
11:28:20.208435,31999
11:28:20.208435,-1
11:28:20.208435,-127
11:28:20.208435,32767
11:28:20.208435,-1
11:28:20.208435,-129
11:28:20.208435,-28673
11:28:20.208435,-1
11:28:20.208435,-120
11:28:20.208435,-29185
11:28:20.208435,-1
11:28:20.208435,-108
11:28:20.208435,-28673
11:28:20.208435,-1
11:28:20.208435,-101
11:28:20.208435,-27393
11:28:20.208435,-1
11:28:20.208435,-117
11:28:20.208435,-29697
11:28:20.208435,-1
11:28:20.208435,-127
11:28:20.208435,-30977
11:28:20.208435,-1
11:28:20.208435,-125
11:28:20.208435,-31745
11:28:20.208435,-1
11:28:20.208435,-117
11:28:20.743723,-125
11:28:20.743723,-28673
11:28:20.743723,-1
11:28:20.743723,-110
11:28:20.743723,-29697
11:28:20.743723,-1
11:28:20.743723,-108
11:28:20.743723,-30465
11:28:20.743723,-1
11:28:20.743723,-127
11:28:20.743723,-31745
11:28:20.743723,-1
11:28:20.743723,-120
11:28:20.743723,-21761
11:28:20.743723,-1
11:28:20.743723,-98
11:28:20.743723,31999
11:28:20.743723,-1
11:28:20.743723,-122
11:28:20.743723,-30977
11:28:20.743723,-1
11:28:20.743723,-120
11:28:20.743723,-29185
11:28:20.743723,-1
11:28:20.743723,-120
11:28:20.743723,-29185
11:28:20.743723,-1
11:28:20.743723,-129
11:28:20.743723,-32257
11:28:20.743723,-1
11:28:20.743723,-117
11:28:20.743723,30207
11:28:20.743723,-1
11:28:20.743723,-139
11:28:20.743723,-32257
11:28:20.743723,-1
11:28:20.743723,-122
11:28:20.743723,-30465
11:28:20.743723,-1
11:28:20.743723,-129
11:28:20.743723,-30465
11:28:20.743723,-1
11:28:20.743723,-120
11:28:20.743723,30207
11:28:20.743723,-1
11:28:20.743723,-139
11:28:20.743723,30207
11:28:20.743723,-1
11:28:20.743723,-134
11:28:20.743723,31999
11:28:20.743723,-1
11:28:20.743723,-139
11:28:20.743723,-32257
11:28:20.743723,-1
11:28:20.743723,-132
11:28:20.743723,26623
11:28:20.743723,-1
11:28:20.743723,-177
11:28:20.743723,12287
11:28:20.743723,-1
11:28:20.743723,-156
11:28:20.743723,-769
11:28:20.743723,-1
11:28:20.743723,105
11:28:20.743723,15360
11:28:20.743723,0
11:28:20.743723,-43
11:28:20.743723,-20481
11:28:20.743723,-1
11:28:20.743723,-120
11:28:20.743723,22783
11:28:20.743723,-1
11:28:20.743723,-161
11:28:20.743723,25855
11:28:20.743723,-1
11:28:20.743723,-161
11:28:20.743723,26623
11:28:20.743723,-1
11:28:20.743723,-161
11:28:20.743723,25343
11:28:20.743723,-1
11:28:20.743723,-165
11:28:20.743723,21503
11:28:20.743723,-1
11:28:20.743723,-156
11:28:20.743723,24063
11:28:20.743723,-1
11:28:20.743723,-163
11:28:20.743723,27135
11:28:20.743723,-1
11:28:20.743723,-165
11:28:20.743723,25343
11:28:20.743723,-1
11:28:20.743723,-158
11:28:20.743723,23551
11:28:20.743723,-1
11:28:20.743723,-151
11:28:20.743723,26623
11:28:20.743723,-1
11:28:20.743723,-141
11:28:20.743723,-32257
11:28:20.743723,-1
11:28:20.743723,-122
11:28:20.743723,-26625
11:28:20.743723,-1
11:28:20.743723,-103
11:28:20.743723,-25601
11:28:20.743723,-1
11:28:20.743723,-101
11:28:21.285416,-117
11:28:21.285416,-29697
11:28:21.285416,-1
11:28:21.285416,-127
11:28:21.285416,31487
11:28:21.285416,-1
11:28:21.285416,-127
11:28:21.285416,30207
11:28:21.285416,-1
11:28:21.285416,-108
11:28:21.285416,-24321
11:28:21.285416,-1
11:28:21.285416,-144
11:28:21.285416,28927
11:28:21.285416,-1
11:28:21.285416,-127
11:28:21.285416,-32257
11:28:21.285416,-1
11:28:21.285416,-115
11:28:21.285416,-29185
11:28:21.285416,-1
11:28:21.285416,-117
11:28:21.285416,-30465
11:28:21.285416,-1
11:28:21.285416,-122
11:28:21.285416,-29697
11:28:21.285416,-1
11:28:21.285416,-129
11:28:21.285416,-32257
11:28:21.285416,-1
11:28:21.285416,-129
11:28:21.285416,31487
11:28:21.285416,-1
11:28:21.285416,-122
11:28:21.285416,-32257
11:28:21.285416,-1
11:28:21.285416,-127
11:28:21.285416,-29697
11:28:21.285416,-1
11:28:21.285416,-127
11:28:21.285416,-27905
11:28:21.285416,-1
11:28:21.285416,-105
11:28:21.285416,-28673
11:28:21.285416,-1
11:28:21.285416,-103
11:28:21.285416,-29185
11:28:21.285416,-1
11:28:21.285416,-115
11:28:21.285416,-27905
11:28:21.285416,-1
11:28:21.285416,-120
11:28:21.285416,-29185
11:28:21.285416,-1
11:28:21.285416,-117
11:28:21.285416,-29697
11:28:21.285416,-1
11:28:21.285416,-108
11:28:21.285416,-29185
11:28:21.285416,-1
11:28:21.285416,-101
11:28:21.285416,-24833
11:28:21.285416,-1
11:28:21.285416,-103
11:28:21.285416,-24321
11:28:21.285416,-1
11:28:21.285416,-105
11:28:21.285416,-26625
11:28:21.285416,-1
11:28:21.285416,-98
11:28:21.285416,-26625
11:28:21.285416,-1
11:28:21.285416,-101
11:28:21.285416,-27393
11:28:21.285416,-1
11:28:21.285416,-101
11:28:21.285416,-21249
11:28:21.285416,-1
11:28:21.285416,-98
11:28:21.285416,-23553
11:28:21.285416,-1
11:28:21.285416,-93
11:28:21.285416,-27393
11:28:21.285416,-1
11:28:21.285416,-101
11:28:21.285416,-24833
11:28:21.285416,-1
11:28:21.285416,-88
11:28:21.285416,-21761
11:28:21.285416,-1
11:28:21.285416,-93
11:28:21.285416,-20481
11:28:21.285416,-1
11:28:21.285416,-88
11:28:21.285416,-28673
11:28:21.285416,-1
11:28:21.285416,-146
11:28:21.285416,25343
11:28:21.285416,-1
11:28:21.285416,-40
11:28:21.285416,-23041
11:28:21.285416,0
11:28:21.285416,240
11:28:21.285416,31232
11:28:21.285416,0
11:28:21.285416,-9
11:28:21.285416,-18689
11:28:21.285416,-1
11:28:21.285416,-134
11:28:21.918178,-156
11:28:21.918178,31999
11:28:21.918178,-1
11:28:21.918178,-137
11:28:21.918178,-30465
11:28:21.918178,-1
11:28:21.918178,-81
11:28:21.918178,-27393
11:28:21.918178,-1
11:28:21.918178,-117
11:28:21.918178,-26625
11:28:21.918178,-1
11:28:21.918178,-105
11:28:21.918178,-23041
11:28:21.918178,-1
11:28:21.918178,-96
11:28:21.918178,-23041
11:28:21.918178,-1
11:28:21.918178,-84
11:28:21.918178,-23553
11:28:21.918178,-1
11:28:21.918178,-84
11:28:21.918178,-22273
11:28:21.918178,-1
11:28:21.918178,-96
11:28:21.918178,-22273
11:28:21.918178,-1
11:28:21.918178,-96
11:28:21.918178,-22273
11:28:21.918178,-1
11:28:21.918178,-81
11:28:21.918178,-19969
11:28:21.918178,-1
11:28:21.918178,-67
11:28:21.918178,-18689
11:28:21.918178,-1
11:28:21.918178,-62
11:28:21.918178,-12545
11:28:21.918178,-1
11:28:21.918178,-62
11:28:21.918178,-15105
11:28:21.918178,-1
11:28:21.918178,-67
11:28:21.918178,-18177
11:28:21.918178,-1
11:28:21.918178,-60
11:28:21.918178,-17409
11:28:21.918178,-1
11:28:21.918178,-55
11:28:21.918178,-11265
11:28:21.918178,-1
11:28:21.918178,-57
11:28:21.918178,-12545
11:28:21.918178,-1
11:28:21.918178,-52
11:28:21.918178,-12033
11:28:21.918178,-1
11:28:21.918178,-33
11:28:21.918178,-12033
11:28:21.918178,-1
11:28:21.918178,-52
11:28:21.918178,-13825
11:28:21.918178,-1
11:28:21.918178,-52
11:28:21.918178,-9985
11:28:21.918178,-1
11:28:21.918178,-45
11:28:21.918178,-8193
11:28:21.918178,-1
11:28:21.918178,-33
11:28:21.918178,-10753
11:28:21.918178,-1
11:28:21.918178,-33
11:28:21.918178,-11265
11:28:21.918178,-1
11:28:21.918178,-52
11:28:21.918178,-14337
11:28:21.918178,-1
11:28:21.918178,-84
11:28:21.918178,-20481
11:28:21.918178,-1
11:28:21.918178,-84
11:28:21.918178,-23553
11:28:21.918178,-1
11:28:21.918178,-76
11:28:21.918178,-19969
11:28:21.918178,-1
11:28:21.918178,-76
11:28:21.918178,-17409
11:28:21.918178,-1
11:28:21.918178,-64
11:28:21.918178,-10753
11:28:21.918178,-1
11:28:21.918178,-36
11:28:21.918178,-7681
11:28:21.918178,-1
11:28:21.918178,-31
11:28:21.918178,-12033
11:28:21.918178,-1
11:28:21.918178,-45
11:28:21.918178,-12545
11:28:21.918178,-1
11:28:21.918178,-57
11:28:21.918178,-12545
11:28:21.918178,-1
11:28:21.918178,-57
11:28:21.918178,-12033
11:28:21.918178,-1
11:28:21.918178,-36
11:28:22.502076,-43
11:28:22.502076,-6401
11:28:22.502076,-1
11:28:22.502076,-28
11:28:22.502076,-9473
11:28:22.502076,-1
11:28:22.502076,-33
11:28:22.502076,-12033
11:28:22.502076,-1
11:28:22.502076,-48
11:28:22.502076,-12545
11:28:22.502076,-1
11:28:22.502076,-52
11:28:22.502076,-11265
11:28:22.502076,-1
11:28:22.502076,-50
11:28:22.502076,-11265
11:28:22.502076,-1
11:28:22.502076,-31
11:28:22.502076,-5889
11:28:22.502076,-1
11:28:22.502076,-38
11:28:22.502076,-19969
11:28:22.502076,-1
11:28:22.502076,-67
11:28:22.502076,-10753
11:28:22.502076,-1
11:28:22.502076,-55
11:28:22.502076,-9473
11:28:22.502076,-1
11:28:22.502076,-31
11:28:22.502076,-10753
11:28:22.502076,-1
11:28:22.502076,-43
11:28:22.502076,-20481
11:28:22.502076,-1
11:28:22.502076,-103
11:28:22.502076,-10753
11:28:22.502076,-1
11:28:22.502076,117
11:28:22.502076,3840
11:28:22.502076,1
11:28:22.502076,204
11:28:22.502076,12800
11:28:22.502076,0
11:28:22.502076,-26
11:28:22.502076,-23553
11:28:22.502076,-1
11:28:22.502076,-120
11:28:22.502076,-28673
11:28:22.502076,-1
11:28:22.502076,-108
11:28:22.502076,-21761
11:28:22.502076,-1
11:28:22.502076,-76
11:28:22.502076,-14337
11:28:22.502076,-1
11:28:22.502076,-45
11:28:22.502076,-13825
11:28:22.502076,-1
11:28:22.502076,-52
11:28:22.502076,-15617
11:28:22.502076,-1
11:28:22.502076,-64
11:28:22.502076,-16129
11:28:22.502076,-1
11:28:22.502076,-84
11:28:22.502076,-19969
11:28:22.502076,-1
11:28:22.502076,-79
11:28:22.502076,-21249
11:28:22.502076,-1
11:28:22.502076,-69
11:28:22.502076,-19201
11:28:22.502076,-1
11:28:22.502076,-64
11:28:22.502076,-11265
11:28:22.502076,-1
11:28:22.502076,-43
11:28:22.502076,-4609
11:28:22.502076,-1
11:28:22.502076,-9
11:28:22.502076,-1537
11:28:22.502076,-1
11:28:22.502076,2
11:28:22.502076,-3072
11:28:22.502076,-1
11:28:22.502076,-9
11:28:22.502076,-2817
11:28:22.502076,-1
11:28:22.502076,-24
11:28:22.502076,-3329
11:28:22.502076,-1
11:28:22.502076,-26
11:28:22.502076,-8961
11:28:22.502076,-1
11:28:22.502076,-24
11:28:22.502076,-5121
11:28:22.502076,-1
11:28:22.502076,-26
11:28:22.502076,-9473
11:28:22.502076,-1
11:28:22.502076,-31
11:28:22.502076,-4609
11:28:22.502076,-1
11:28:22.502076,-33
11:28:22.502076,-5889
11:28:22.502076,-1
11:28:22.502076,-21
11:28:22.997558,-33
11:28:22.997558,-6401
11:28:22.997558,-1
11:28:22.997558,-38
11:28:22.997558,-9985
11:28:22.997558,-1
11:28:22.997558,-31
11:28:22.997558,-11265
11:28:22.997558,-1
11:28:22.997558,-33
11:28:22.997558,-6913
11:28:22.997558,-1
11:28:22.997558,-31
11:28:22.997558,-4609
11:28:22.997558,-1
11:28:22.997558,-24
11:28:22.997558,-5889
11:28:22.997558,-1
11:28:22.997558,-24
11:28:22.997558,-7681
11:28:22.997558,-1
11:28:22.997558,-21
11:28:22.997558,-3841
11:28:22.997558,-1
11:28:22.997558,7
11:28:22.997558,-1792
11:28:22.997558,-1
11:28:22.997558,-48
11:28:22.997558,-7681
11:28:22.997558,-1
11:28:22.997558,-21
11:28:22.997558,-8961
11:28:22.997558,-1
11:28:22.997558,-28
11:28:22.997558,-8193
11:28:22.997558,-1
11:28:22.997558,-26
11:28:22.997558,-6401
11:28:22.997558,-1
11:28:22.997558,-31
11:28:22.997558,-3841
11:28:22.997558,-1
11:28:22.997558,-26
11:28:22.997558,-7681
11:28:22.997558,-1
11:28:22.997558,-24
11:28:22.997558,-8961
11:28:22.997558,-1
11:28:22.997558,-33
11:28:22.997558,-9473
11:28:22.997558,-1
11:28:22.997558,-38
11:28:22.997558,-6913
11:28:22.997558,-1
11:28:22.997558,-33
11:28:22.997558,-6401
11:28:22.997558,-1
11:28:22.997558,-21
11:28:22.997558,-6913
11:28:22.997558,-1
11:28:22.997558,-21
11:28:22.997558,-6913
11:28:22.997558,-1
11:28:22.997558,-24
11:28:22.997558,-4609
11:28:22.997558,-1
11:28:22.997558,-24
11:28:22.997558,-2049
11:28:22.997558,-1
11:28:22.997558,-21
11:28:22.997558,-7681
11:28:22.997558,-1
11:28:22.997558,-16
11:28:22.997558,-6913
11:28:22.997558,-1
11:28:22.997558,-26
11:28:22.997558,-2817
11:28:22.997558,-1
11:28:22.997558,-16
11:28:22.997558,-3329
11:28:22.997558,-1
11:28:22.997558,-21
11:28:22.997558,-5889
11:28:22.997558,-1
11:28:22.997558,-33
11:28:22.997558,-18689
11:28:22.997558,-1
11:28:22.997558,-84
11:28:22.997558,-9473
11:28:22.997558,-1
11:28:22.997558,108
11:28:22.997558,2560
11:28:22.997558,1
11:28:22.997558,197
11:28:22.997558,12800
11:28:22.997558,0
11:28:22.997558,-12
11:28:22.997558,-16129
11:28:22.997558,-1
11:28:22.997558,-88
11:28:22.997558,-21249
11:28:22.997558,-1
11:28:22.997558,-69
11:28:22.997558,-15105
11:28:22.997558,-1
11:28:22.997558,-60
11:28:22.997558,-9985
11:28:22.997558,-1
11:28:22.997558,-36
11:28:23.580471,-45
11:28:23.580471,-8961
11:28:23.580471,-1
11:28:23.580471,-50
11:28:23.580471,-13825
11:28:23.580471,-1
11:28:23.580471,-52
11:28:23.580471,-16129
11:28:23.580471,-1
11:28:23.580471,-48
11:28:23.580471,-8193
11:28:23.580471,-1
11:28:23.580471,-33
11:28:23.580471,-12545
11:28:23.580471,-1
11:28:23.580471,-57
11:28:23.580471,-5121
11:28:23.580471,-1
11:28:23.580471,-14
11:28:23.580471,-6401
11:28:23.580471,-1
11:28:23.580471,-9
11:28:23.580471,-3841
11:28:23.580471,-1
11:28:23.580471,-14
11:28:23.580471,255
11:28:23.580471,0
11:28:23.580471,-7
11:28:23.580471,-769
11:28:23.580471,-1
11:28:23.580471,-19
11:28:23.580471,-6913
11:28:23.580471,-1
11:28:23.580471,-21
11:28:23.580471,-6913
11:28:23.580471,-1
11:28:23.580471,-14
11:28:23.580471,-2817
11:28:23.580471,-1
11:28:23.580471,-24
11:28:23.580471,-2817
11:28:23.580471,-1
11:28:23.580471,-16
11:28:23.580471,-4609
11:28:23.580471,-1
11:28:23.580471,-12
11:28:23.580471,-6401
11:28:23.580471,-1
11:28:23.580471,-26
11:28:23.580471,-7681
11:28:23.580471,-1
11:28:23.580471,-33
11:28:23.580471,-4609
11:28:23.580471,-1
11:28:23.580471,-28
11:28:23.580471,-5889
11:28:23.580471,-1
11:28:23.580471,-24
11:28:23.580471,-8193
11:28:23.580471,-1
11:28:23.580471,-24
11:28:23.580471,-7681
11:28:23.580471,-1
11:28:23.580471,-31
11:28:23.580471,-6913
11:28:23.580471,-1
11:28:23.580471,-50
11:28:23.580471,-12033
11:28:23.580471,-1
11:28:23.580471,-48
11:28:23.580471,-12545
11:28:23.580471,-1
11:28:23.580471,-38
11:28:23.580471,-12033
11:28:23.580471,-1
11:28:23.580471,-48
11:28:23.580471,-9985
11:28:23.580471,-1
11:28:23.580471,-55
11:28:23.580471,-13825
11:28:23.580471,-1
11:28:23.580471,-64
11:28:23.580471,-16897
11:28:23.580471,-1
11:28:23.580471,-64
11:28:23.580471,-19201
11:28:23.580471,-1
11:28:23.580471,-67
11:28:23.580471,-15617
11:28:23.580471,-1
11:28:23.580471,-69
11:28:23.580471,-17409
11:28:23.580471,-1
11:28:23.580471,-81
11:28:23.580471,-20481
11:28:23.580471,-1
11:28:23.580471,-81
11:28:23.580471,-21249
11:28:23.580471,-1
11:28:23.580471,-69
11:28:23.580471,-21249
11:28:23.580471,-1
11:28:23.580471,-91
11:28:23.580471,-20481
11:28:23.580471,-1
11:28:23.580471,-93
11:28:23.580471,-21249
11:28:23.580471,-1
11:28:23.580471,-88
11:28:24.123254,-103
11:28:24.123254,-23041
11:28:24.123254,-1
11:28:24.123254,-86
11:28:24.123254,-19969
11:28:24.123254,-1
11:28:24.123254,-86
11:28:24.123254,-26113
11:28:24.123254,-1
11:28:24.123254,-91
11:28:24.123254,-26113
11:28:24.123254,-1
11:28:24.123254,-105
11:28:24.123254,-19969
11:28:24.123254,-1
11:28:24.123254,-55
11:28:24.123254,-9985
11:28:24.123254,-1
11:28:24.123254,-76
11:28:24.123254,-24833
11:28:24.123254,-1
11:28:24.123254,-81
11:28:24.123254,-32257
11:28:24.123254,-1
11:28:24.123254,-168
11:28:24.123254,26623
11:28:24.123254,-1
11:28:24.123254,-60
11:28:24.123254,29183
11:28:24.123254,0
11:28:24.123254,141
11:28:24.123254,2304
11:28:24.123254,0
11:28:24.123254,-50
11:28:24.123254,-21249
11:28:24.123254,-1
11:28:24.123254,-134
11:28:24.123254,27647
11:28:24.123254,-1
11:28:24.123254,-132
11:28:24.123254,-30465
11:28:24.123254,-1
11:28:24.123254,-132
11:28:24.123254,-32257
11:28:24.123254,-1
11:28:24.123254,-125
11:28:24.123254,29695
11:28:24.123254,-1
11:28:24.123254,-137
11:28:24.123254,30207
11:28:24.123254,-1
11:28:24.123254,-134
11:28:24.123254,-31745
11:28:24.123254,-1
11:28:24.123254,-144
11:28:24.123254,30719
11:28:24.123254,-1
11:28:24.123254,-132
11:28:24.123254,30207
11:28:24.123254,-1
11:28:24.123254,-125
11:28:24.123254,31999
11:28:24.123254,-1
11:28:24.123254,-125
11:28:24.123254,-27393
11:28:24.123254,-1
11:28:24.123254,-105
11:28:24.123254,-23041
11:28:24.123254,-1
11:28:24.123254,-91
11:28:24.123254,-22273
11:28:24.123254,-1
11:28:24.123254,-79
11:28:24.123254,-24321
11:28:24.123254,-1
11:28:24.123254,-93
11:28:24.123254,-24833
11:28:24.123254,-1
11:28:24.123254,-115
11:28:24.123254,-28673
11:28:24.123254,-1
11:28:24.123254,-127
11:28:24.123254,-32257
11:28:24.123254,-1
11:28:24.123254,-120
11:28:24.123254,-32257
11:28:24.123254,-1
11:28:24.123254,-117
11:28:24.123254,-30977
11:28:24.123254,-1
11:28:24.123254,-125
11:28:24.123254,-27905
11:28:24.123254,-1
11:28:24.123254,-120
11:28:24.123254,-29185
11:28:24.123254,-1
11:28:24.123254,-117
11:28:24.123254,31999
11:28:24.123254,-1
11:28:24.123254,-125
11:28:24.123254,31487
11:28:24.123254,-1
11:28:24.123254,-139
11:28:24.123254,31487
11:28:24.123254,-1
11:28:24.123254,-146
11:28:24.123254,29695
11:28:24.123254,-1
11:28:24.123254,-144
11:28:24.662904,-144
11:28:24.662904,32767
11:28:24.662904,-1
11:28:24.662904,-137
11:28:24.662904,32767
11:28:24.662904,-1
11:28:24.662904,-125
11:28:24.662904,31999
11:28:24.662904,-1
11:28:24.662904,-120
11:28:24.662904,-27905
11:28:24.662904,-1
11:28:24.662904,-88
11:28:24.662904,-26113
11:28:24.662904,-1
11:28:24.662904,-144
11:28:24.662904,32767
11:28:24.662904,-1
11:28:24.662904,-125
11:28:24.662904,31487
11:28:24.662904,-1
11:28:24.662904,-125
11:28:24.662904,31999
11:28:24.662904,-1
11:28:24.662904,-134
11:28:24.662904,31487
11:28:24.662904,-1
11:28:24.662904,-137
11:28:24.662904,-30977
11:28:24.662904,-1
11:28:24.662904,-134
11:28:24.662904,31999
11:28:24.662904,-1
11:28:24.662904,-117
11:28:24.662904,-32257
11:28:24.662904,-1
11:28:24.662904,-120
11:28:24.662904,-29697
11:28:24.662904,-1
11:28:24.662904,-129
11:28:24.662904,-31745
11:28:24.662904,-1
11:28:24.662904,-137
11:28:24.662904,30207
11:28:24.662904,-1
11:28:24.662904,-139
11:28:24.662904,30719
11:28:24.662904,-1
11:28:24.662904,-125
11:28:24.662904,30719
11:28:24.662904,-1
11:28:24.662904,-134
11:28:24.662904,32767
11:28:24.662904,-1
11:28:24.662904,-144
11:28:24.662904,25855
11:28:24.662904,-1
11:28:24.662904,-211
11:28:24.662904,6911
11:28:24.662904,-1
11:28:24.662904,-129
11:28:24.662904,6911
11:28:24.662904,0
11:28:24.662904,105
11:28:24.662904,4864
11:28:24.662904,0
11:28:24.662904,-76
11:28:24.662904,-26625
11:28:24.662904,-1
11:28:24.662904,-163
11:28:24.662904,17919
11:28:24.662904,-1
11:28:24.662904,-163
11:28:24.662904,23551
11:28:24.662904,-1
11:28:24.662904,-161
11:28:24.662904,26623
11:28:24.662904,-1
11:28:24.662904,-153
11:28:24.662904,27135
11:28:24.662904,-1
11:28:24.662904,-168
11:28:24.662904,22783
11:28:24.662904,-1
11:28:24.662904,-170
11:28:24.662904,21503
11:28:24.662904,-1
11:28:24.662904,-156
11:28:24.662904,22271
11:28:24.662904,-1
11:28:24.662904,-173
11:28:24.662904,27135
11:28:24.662904,-1
11:28:24.662904,-156
11:28:24.662904,28927
11:28:24.662904,-1
11:28:24.662904,-134
11:28:24.662904,30719
11:28:24.662904,-1
11:28:24.662904,-125
11:28:24.662904,31487
11:28:24.662904,-1
11:28:24.662904,-134
11:28:24.662904,-32257
11:28:24.662904,-1
11:28:24.662904,-125
11:28:24.662904,-29185
11:28:24.662904,-1
11:28:24.662904,-129
11:28:25.290275,-139
11:28:25.290275,31999
11:28:25.290275,-1
11:28:25.290275,-139
11:28:25.290275,32767
11:28:25.290275,-1
11:28:25.290275,-120
11:28:25.290275,-24833
11:28:25.290275,-1
11:28:25.290275,-88
11:28:25.290275,31999
11:28:25.290275,-1
11:28:25.290275,-127
11:28:25.290275,-26625
11:28:25.290275,-1
11:28:25.290275,-117
11:28:25.290275,-27905
11:28:25.290275,-1
11:28:25.290275,-115
11:28:25.290275,-31745
11:28:25.290275,-1
11:28:25.290275,-115
11:28:25.290275,-32257
11:28:25.290275,-1
11:28:25.290275,-125
11:28:25.290275,-32257
11:28:25.290275,-1
11:28:25.290275,-139
11:28:25.290275,31999
11:28:25.290275,-1
11:28:25.290275,-137
11:28:25.290275,31999
11:28:25.290275,-1
11:28:25.290275,-127
11:28:25.290275,30719
11:28:25.290275,-1
11:28:25.290275,-125
11:28:25.290275,-31745
11:28:25.290275,-1
11:28:25.290275,-120
11:28:25.290275,-26625
11:28:25.290275,-1
11:28:25.290275,-115
11:28:25.290275,-26113
11:28:25.290275,-1
11:28:25.290275,-101
11:28:25.290275,-29697
11:28:25.290275,-1
11:28:25.290275,-110
11:28:25.290275,-28673
11:28:25.290275,-1
11:28:25.290275,-113
11:28:25.290275,-27905
11:28:25.290275,-1
11:28:25.290275,-120
11:28:25.290275,-27905
11:28:25.290275,-1
11:28:25.290275,-113
11:28:25.290275,-28673
11:28:25.290275,-1
11:28:25.290275,-101
11:28:25.290275,-29185
11:28:25.290275,-1
11:28:25.290275,-113
11:28:25.290275,-28673
11:28:25.290275,-1
11:28:25.290275,-120
11:28:25.290275,-28673
11:28:25.290275,-1
11:28:25.290275,-127
11:28:25.290275,31999
11:28:25.290275,-1
11:28:25.290275,-125
11:28:25.290275,-32257
11:28:25.290275,-1
11:28:25.290275,-117
11:28:25.290275,-29697
11:28:25.290275,-1
11:28:25.290275,-113
11:28:25.290275,-26625
11:28:25.290275,-1
11:28:25.290275,-115
11:28:25.290275,-24321
11:28:25.290275,-1
11:28:25.290275,-88
11:28:25.290275,-23553
11:28:25.290275,-1
11:28:25.290275,-74
11:28:25.290275,-20481
11:28:25.290275,-1
11:28:25.290275,-84
11:28:25.290275,-19969
11:28:25.290275,-1
11:28:25.290275,-88
11:28:25.290275,-21249
11:28:25.290275,-1
11:28:25.290275,-125
11:28:25.290275,20479
11:28:25.290275,-1
11:28:25.290275,-141
11:28:25.290275,1279
11:28:25.290275,0
11:28:25.290275,211
11:28:25.290275,-7680
11:28:25.290275,0
11:28:25.290275,62
11:28:25.290275,-10240
11:28:25.290275,-1
11:28:25.290275,-115
11:28:25.833805,-165
11:28:25.833805,26623
11:28:25.833805,-1
11:28:25.833805,-153
11:28:25.833805,25343
11:28:25.833805,-1
11:28:25.833805,-165
11:28:25.833805,24575
11:28:25.833805,-1
11:28:25.833805,-146
11:28:25.833805,26623
11:28:25.833805,-1
11:28:25.833805,-139
11:28:25.833805,32767
11:28:25.833805,-1
11:28:25.833805,-132
11:28:25.833805,-27393
11:28:25.833805,-1
11:28:25.833805,-108
11:28:25.833805,-23041
11:28:25.833805,-1
11:28:25.833805,-57
11:28:25.833805,-20481
11:28:25.833805,-1
11:28:25.833805,-113
11:28:25.833805,-28673
11:28:25.833805,-1
11:28:25.833805,-98
11:28:25.833805,-23041
11:28:25.833805,-1
11:28:25.833805,-101
11:28:25.833805,-23553
11:28:25.833805,-1
11:28:25.833805,-79
11:28:25.833805,-19201
11:28:25.833805,-1
11:28:25.833805,-72
11:28:25.833805,-19969
11:28:25.833805,-1
11:28:25.833805,-72
11:28:25.833805,-16897
11:28:25.833805,-1
11:28:25.833805,-84
11:28:25.833805,-17409
11:28:25.833805,-1
11:28:25.833805,-67
11:28:25.833805,-17409
11:28:25.833805,-1
11:28:25.833805,-55
11:28:25.833805,-18177
11:28:25.833805,-1
11:28:25.833805,-69
11:28:25.833805,-15617
11:28:25.833805,-1
11:28:25.833805,-74
11:28:25.833805,-16897
11:28:25.833805,-1
11:28:25.833805,-74
11:28:25.833805,-19969
11:28:25.833805,-1
11:28:25.833805,-64
11:28:25.833805,-18689
11:28:25.833805,-1
11:28:25.833805,-74
11:28:25.833805,-19201
11:28:25.833805,-1
11:28:25.833805,-84
11:28:25.833805,-21249
11:28:25.833805,-1
11:28:25.833805,-101
11:28:25.833805,-24321
11:28:25.833805,-1
11:28:25.833805,-88
11:28:25.833805,-24321
11:28:25.833805,-1
11:28:25.833805,-84
11:28:25.833805,-23553
11:28:25.833805,-1
11:28:25.833805,-91
11:28:25.833805,-19201
11:28:25.833805,-1
11:28:25.833805,-81
11:28:25.833805,-16129
11:28:25.833805,-1
11:28:25.833805,-62
11:28:25.833805,-18177
11:28:25.833805,-1
11:28:25.833805,-60
11:28:25.833805,-17409
11:28:25.833805,-1
11:28:25.833805,-69
11:28:25.833805,-15617
11:28:25.833805,-1
11:28:25.833805,-74
11:28:25.833805,-17409
11:28:25.833805,-1
11:28:25.833805,-76
11:28:25.833805,-18689
11:28:25.833805,-1
11:28:25.833805,-62
11:28:25.833805,-17409
11:28:25.833805,-1
11:28:25.833805,-64
11:28:25.833805,-18689
11:28:25.833805,-1
11:28:25.833805,-81
11:28:25.833805,-16129
11:28:25.833805,-1
11:28:25.833805,-69
11:28:26.463222,-72
11:28:26.463222,-19969
11:28:26.463222,-1
11:28:26.463222,-93
11:28:26.463222,-20481
11:28:26.463222,-1
11:28:26.463222,-86
11:28:26.463222,-20481
11:28:26.463222,-1
11:28:26.463222,-60
11:28:26.463222,-16129
11:28:26.463222,-1
11:28:26.463222,-48
11:28:26.463222,-10753
11:28:26.463222,-1
11:28:26.463222,-40
11:28:26.463222,767
11:28:26.463222,0
11:28:26.463222,2
11:28:26.463222,-9728
11:28:26.463222,-1
11:28:26.463222,-52
11:28:26.463222,-10753
11:28:26.463222,-1
11:28:26.463222,-36
11:28:26.463222,-15617
11:28:26.463222,-1
11:28:26.463222,-79
11:28:26.463222,-19969
11:28:26.463222,-1
11:28:26.463222,-120
11:28:26.463222,25343
11:28:26.463222,-1
11:28:26.463222,-161
11:28:26.463222,-15617
11:28:26.463222,-1
11:28:26.463222,161
11:28:26.463222,4608
11:28:26.463222,1
11:28:26.463222,175
11:28:26.463222,14592
11:28:26.463222,0
11:28:26.463222,-14
11:28:26.463222,-15105
11:28:26.463222,-1
11:28:26.463222,-81
11:28:26.463222,-17409
11:28:26.463222,-1
11:28:26.463222,-64
11:28:26.463222,-21761
11:28:26.463222,-1
11:28:26.463222,-69
11:28:26.463222,-16129
11:28:26.463222,-1
11:28:26.463222,-81
11:28:26.463222,-19201
11:28:26.463222,-1
11:28:26.463222,-81
11:28:26.463222,-19969
11:28:26.463222,-1
11:28:26.463222,-64
11:28:26.463222,-16129
11:28:26.463222,-1
11:28:26.463222,-48
11:28:26.463222,-11265
11:28:26.463222,-1
11:28:26.463222,-45
11:28:26.463222,-7681
11:28:26.463222,-1
11:28:26.463222,-43
11:28:26.463222,-9985
11:28:26.463222,-1
11:28:26.463222,-40
11:28:26.463222,-13057
11:28:26.463222,-1
11:28:26.463222,-45
11:28:26.463222,-13057
11:28:26.463222,-1
11:28:26.463222,-45
11:28:26.463222,-8961
11:28:26.463222,-1
11:28:26.463222,-40
11:28:26.463222,-6401
11:28:26.463222,-1
11:28:26.463222,-33
11:28:26.463222,-9985
11:28:26.463222,-1
11:28:26.463222,-26
11:28:26.463222,-7681
11:28:26.463222,-1
11:28:26.463222,-24
11:28:26.463222,-4609
11:28:26.463222,-1
11:28:26.463222,-28
11:28:26.463222,-2817
11:28:26.463222,-1
11:28:26.463222,-16
11:28:26.463222,-6401
11:28:26.463222,-1
11:28:26.463222,-19
11:28:26.463222,-4609
11:28:26.463222,-1
11:28:26.463222,-7
11:28:26.463222,-1537
11:28:26.463222,-1
11:28:26.463222,-2
11:28:26.463222,1279
11:28:26.463222,0
11:28:26.463222,-9
11:28:26.958090,-7
11:28:26.958090,-3841
11:28:26.958090,-1
11:28:26.958090,-31
11:28:26.958090,-4609
11:28:26.958090,-1
11:28:26.958090,-28
11:28:26.958090,-6401
11:28:26.958090,-1
11:28:26.958090,-21
11:28:26.958090,-8193
11:28:26.958090,-1
11:28:26.958090,-16
11:28:26.958090,-3841
11:28:26.958090,-1
11:28:26.958090,-38
11:28:26.958090,-8961
11:28:26.958090,-1
11:28:26.958090,-40
11:28:26.958090,-8961
11:28:26.958090,-1
11:28:26.958090,-31
11:28:26.958090,-7681
11:28:26.958090,-1
11:28:26.958090,-26
11:28:26.958090,-8193
11:28:26.958090,-1
11:28:26.958090,-21
11:28:26.958090,-1537
11:28:26.958090,-1
11:28:26.958090,7
11:28:26.958090,9216
11:28:26.958090,0
11:28:26.958090,7
11:28:26.958090,-3584
11:28:26.958090,-1
11:28:26.958090,7
11:28:26.958090,-1024
11:28:26.958090,-1
11:28:26.958090,-4
11:28:26.958090,-257
11:28:26.958090,-1
11:28:26.958090,-14
11:28:26.958090,-1537
11:28:26.958090,-1
11:28:26.958090,-14
11:28:26.958090,-4609
11:28:26.958090,-1
11:28:26.958090,-12
11:28:26.958090,-5121
11:28:26.958090,-1
11:28:26.958090,-12
11:28:26.958090,-3329
11:28:26.958090,-1
11:28:26.958090,-19
11:28:26.958090,-257
11:28:26.958090,-1
11:28:26.958090,-2
11:28:26.958090,1279
11:28:26.958090,0
11:28:26.958090,12
11:28:26.958090,-512
11:28:26.958090,-1
11:28:26.958090,0
11:28:26.958090,-2304
11:28:26.958090,-1
11:28:26.958090,-19
11:28:26.958090,-5121
11:28:26.958090,-1
11:28:26.958090,-26
11:28:26.958090,-769
11:28:26.958090,-1
11:28:26.958090,-4
11:28:26.958090,-3841
11:28:26.958090,-1
11:28:26.958090,-9
11:28:26.958090,-5121
11:28:26.958090,-1
11:28:26.958090,-26
11:28:26.958090,-13057
11:28:26.958090,-1
11:28:26.958090,-96
11:28:26.958090,-13057
11:28:26.958090,-1
11:28:26.958090,88
11:28:26.958090,2560
11:28:26.958090,1
11:28:26.958090,278
11:28:26.958090,31232
11:28:26.958090,0
11:28:26.958090,52
11:28:26.958090,3584
11:28:26.958090,0
11:28:26.958090,-45
11:28:26.958090,-12545
11:28:26.958090,-1
11:28:26.958090,-55
11:28:26.958090,-15105
11:28:26.958090,-1
11:28:26.958090,-57
11:28:26.958090,-15617
11:28:26.958090,-1
11:28:26.958090,-45
11:28:26.958090,-12033
11:28:26.958090,-1
11:28:26.958090,-40
11:28:26.958090,-5121
11:28:26.958090,-1
11:28:26.958090,-21
11:28:27.498881,-9
11:28:27.498881,-257
11:28:27.498881,-1
11:28:27.498881,-9
11:28:27.498881,-2049
11:28:27.498881,-1
11:28:27.498881,-26
11:28:27.498881,-5889
11:28:27.498881,-1
11:28:27.498881,-24
11:28:27.498881,-10753
11:28:27.498881,-1
11:28:27.498881,-28
11:28:27.498881,-6401
11:28:27.498881,-1
11:28:27.498881,-16
11:28:27.498881,5631
11:28:27.498881,0
11:28:27.498881,40
11:28:27.498881,10240
11:28:27.498881,0
11:28:27.498881,12
11:28:27.498881,-512
11:28:27.498881,-1
11:28:27.498881,12
11:28:27.498881,0
11:28:27.498881,0
11:28:27.498881,-4
11:28:27.498881,-257
11:28:27.498881,-1
11:28:27.498881,-16
11:28:27.498881,-1537
11:28:27.498881,-1
11:28:27.498881,-9
11:28:27.498881,-2049
11:28:27.498881,-1
11:28:27.498881,-2
11:28:27.498881,-3841
11:28:27.498881,-1
11:28:27.498881,-12
11:28:27.498881,-769
11:28:27.498881,-1
11:28:27.498881,-9
11:28:27.498881,1279
11:28:27.498881,0
11:28:27.498881,-12
11:28:27.498881,-5121
11:28:27.498881,-1
11:28:27.498881,-21
11:28:27.498881,-9473
11:28:27.498881,-1
11:28:27.498881,-33
11:28:27.498881,-8961
11:28:27.498881,-1
11:28:27.498881,-40
11:28:27.498881,-6913
11:28:27.498881,-1
11:28:27.498881,-33
11:28:27.498881,-5889
11:28:27.498881,-1
11:28:27.498881,-24
11:28:27.498881,-8961
11:28:27.498881,-1
11:28:27.498881,-38
11:28:27.498881,-14337
11:28:27.498881,-1
11:28:27.498881,-55
11:28:27.498881,-10753
11:28:27.498881,-1
11:28:27.498881,-50
11:28:27.498881,-10753
11:28:27.498881,-1
11:28:27.498881,-48
11:28:27.498881,-12545
11:28:27.498881,-1
11:28:27.498881,-40
11:28:27.498881,-12545
11:28:27.498881,-1
11:28:27.498881,-40
11:28:27.498881,-10753
11:28:27.498881,-1
11:28:27.498881,-69
11:28:27.498881,-17409
11:28:27.498881,-1
11:28:27.498881,-79
11:28:27.498881,-20481
11:28:27.498881,-1
11:28:27.498881,-79
11:28:27.498881,-23041
11:28:27.498881,-1
11:28:27.498881,-88
11:28:27.498881,-23553
11:28:27.498881,-1
11:28:27.498881,-93
11:28:27.498881,-19969
11:28:27.498881,-1
11:28:27.498881,-81
11:28:27.498881,-18177
11:28:27.498881,-1
11:28:27.498881,-69
11:28:27.498881,-18177
11:28:27.498881,-1
11:28:27.498881,-57
11:28:27.498881,-19201
11:28:27.498881,-1
11:28:27.498881,-84
11:28:27.498881,-19969
11:28:27.498881,-1
11:28:27.498881,-96
11:28:28.039394,-88
11:28:28.039394,-20481
11:28:28.039394,-1
11:28:28.039394,-86
11:28:28.039394,-21249
11:28:28.039394,-1
11:28:28.039394,-91
11:28:28.039394,-23041
11:28:28.039394,-1
11:28:28.039394,-105
11:28:28.039394,-30465
11:28:28.039394,-1
11:28:28.039394,-93
11:28:28.039394,-18177
11:28:28.039394,-1
11:28:28.039394,-74
11:28:28.039394,-23553
11:28:28.039394,-1
11:28:28.039394,-105
11:28:28.039394,-20481
11:28:28.039394,-1
11:28:28.039394,-110
11:28:28.039394,25343
11:28:28.039394,-1
11:28:28.039394,-146
11:28:28.039394,-17409
11:28:28.039394,-1
11:28:28.039394,103
11:28:28.039394,-20736
11:28:28.039394,0
11:28:28.039394,40
11:28:28.039394,-11520
11:28:28.039394,-1
11:28:28.039394,-79
11:28:28.039394,30207
11:28:28.039394,-1
11:28:28.039394,-161
11:28:28.039394,27135
11:28:28.039394,-1
11:28:28.039394,-137
11:28:28.039394,30207
11:28:28.039394,-1
11:28:28.039394,-139
11:28:28.039394,-31745
11:28:28.039394,-1
11:28:28.039394,-137
11:28:28.039394,32767
11:28:28.039394,-1
11:28:28.039394,-125
11:28:28.039394,30719
11:28:28.039394,-1
11:28:28.039394,-127
11:28:28.039394,32767
11:28:28.039394,-1
11:28:28.039394,-127
11:28:28.039394,-29697
11:28:28.039394,-1
11:28:28.039394,-132
11:28:28.039394,-31745
11:28:28.039394,-1
11:28:28.039394,-125
11:28:28.039394,32767
11:28:28.039394,-1
11:28:28.039394,-117
11:28:28.039394,-30465
11:28:28.039394,-1
11:28:28.039394,-108
11:28:28.039394,-24321
11:28:28.039394,-1
11:28:28.039394,-105
11:28:28.039394,-23041
11:28:28.039394,-1
11:28:28.039394,-96
11:28:28.039394,-25601
11:28:28.039394,-1
11:28:28.039394,-103
11:28:28.039394,-30977
11:28:28.039394,-1
11:28:28.039394,-120
11:28:28.039394,-32257
11:28:28.039394,-1
11:28:28.039394,-139
11:28:28.039394,-32257
11:28:28.039394,-1
11:28:28.039394,-129
11:28:28.039394,-32257
11:28:28.039394,-1
11:28:28.039394,-120
11:28:28.039394,-32257
11:28:28.039394,-1
11:28:28.039394,-113
11:28:28.039394,-30465
11:28:28.039394,-1
11:28:28.039394,-129
11:28:28.039394,-31745
11:28:28.039394,-1
11:28:28.039394,-137
11:28:28.039394,31487
11:28:28.039394,-1
11:28:28.039394,-129
11:28:28.039394,32767
11:28:28.039394,-1
11:28:28.039394,-117
11:28:28.039394,-29697
11:28:28.039394,-1
11:28:28.039394,-120
11:28:28.039394,-31745
11:28:28.039394,-1
11:28:28.039394,-137
11:28:28.623260,-129
11:28:28.623260,30719
11:28:28.623260,-1
11:28:28.623260,-141
11:28:28.623260,31487
11:28:28.623260,-1
11:28:28.623260,-151
11:28:28.623260,30207
11:28:28.623260,-1
11:28:28.623260,-108
11:28:28.623260,-26113
11:28:28.623260,-1
11:28:28.623260,-127
11:28:28.623260,27647
11:28:28.623260,-1
11:28:28.623260,-134
11:28:28.623260,32767
11:28:28.623260,-1
11:28:28.623260,-144
11:28:28.623260,31487
11:28:28.623260,-1
11:28:28.623260,-137
11:28:28.623260,28927
11:28:28.623260,-1
11:28:28.623260,-134
11:28:28.623260,30719
11:28:28.623260,-1
11:28:28.623260,-122
11:28:28.623260,-31745
11:28:28.623260,-1
11:28:28.623260,-134
11:28:28.623260,-31745
11:28:28.623260,-1
11:28:28.623260,-134
11:28:28.623260,31999
11:28:28.623260,-1
11:28:28.623260,-117
11:28:28.623260,-31745
11:28:28.623260,-1
11:28:28.623260,-120
11:28:28.623260,-30465
11:28:28.623260,-1
11:28:28.623260,-122
11:28:28.623260,-30465
11:28:28.623260,-1
11:28:28.623260,-137
11:28:28.623260,30207
11:28:28.623260,-1
11:28:28.623260,-129
11:28:28.623260,31487
11:28:28.623260,-1
11:28:28.623260,-129
11:28:28.623260,30207
11:28:28.623260,-1
11:28:28.623260,-141
11:28:28.623260,30207
11:28:28.623260,-1
11:28:28.623260,-156
11:28:28.623260,17919
11:28:28.623260,-1
11:28:28.623260,-228
11:28:28.623260,14079
11:28:28.623260,-1
11:28:28.623260,-57
11:28:28.623260,22783
11:28:28.623260,0
11:28:28.623260,91
11:28:28.623260,-4096
11:28:28.623260,-1
11:28:28.623260,-84
11:28:28.623260,-28673
11:28:28.623260,-1
11:28:28.623260,-170
11:28:28.623260,19199
11:28:28.623260,-1
11:28:28.623260,-163
11:28:28.623260,22783
11:28:28.623260,-1
11:28:28.623260,-158
11:28:28.623260,28927
11:28:28.623260,-1
11:28:28.623260,-149
11:28:28.623260,26623
11:28:28.623260,-1
11:28:28.623260,-163
11:28:28.623260,25855
11:28:28.623260,-1
11:28:28.623260,-156
11:28:28.623260,25343
11:28:28.623260,-1
11:28:28.623260,-141
11:28:28.623260,27135
11:28:28.623260,-1
11:28:28.623260,-153
11:28:28.623260,30719
11:28:28.623260,-1
11:28:28.623260,-144
11:28:28.623260,31487
11:28:28.623260,-1
11:28:28.623260,-134
11:28:28.623260,30207
11:28:28.623260,-1
11:28:28.623260,-122
11:28:28.623260,-30977
11:28:28.623260,-1
11:28:28.623260,-113
11:28:28.623260,-26625
11:28:28.623260,-1
11:28:28.623260,-110
11:28:29.162947,-105
11:28:29.162947,-27905
11:28:29.162947,-1
11:28:29.162947,-117
11:28:29.162947,-29185
11:28:29.162947,-1
11:28:29.162947,-122
11:28:29.162947,-28673
11:28:29.162947,-1
11:28:29.162947,-110
11:28:29.162947,-29185
11:28:29.162947,-1
11:28:29.162947,-103
11:28:29.162947,-22273
11:28:29.162947,-1
11:28:29.162947,-72
11:28:29.162947,-23553
11:28:29.162947,-1
11:28:29.162947,-129
11:28:29.162947,-27905
11:28:29.162947,-1
11:28:29.162947,-108
11:28:29.162947,-30977
11:28:29.162947,-1
11:28:29.162947,-117
11:28:29.162947,-31745
11:28:29.162947,-1
11:28:29.162947,-117
11:28:29.162947,-27905
11:28:29.162947,-1
11:28:29.162947,-117
11:28:29.162947,-29697
11:28:29.162947,-1
11:28:29.162947,-125
11:28:29.162947,-32257
11:28:29.162947,-1
11:28:29.162947,-120
11:28:29.162947,-30465
11:28:29.162947,-1
11:28:29.162947,-108
11:28:29.162947,-27393
11:28:29.162947,-1
11:28:29.162947,-108
11:28:29.162947,-24833
11:28:29.162947,-1
11:28:29.162947,-101
11:28:29.162947,-24321
11:28:29.162947,-1
11:28:29.162947,-96
11:28:29.162947,-26113
11:28:29.162947,-1
11:28:29.162947,-98
11:28:29.162947,-27393
11:28:29.162947,-1
11:28:29.162947,-113
11:28:29.162947,-27393
11:28:29.162947,-1
11:28:29.162947,-120
11:28:29.162947,-29697
11:28:29.162947,-1
11:28:29.162947,-125
11:28:29.162947,32767
11:28:29.162947,-1
11:28:29.162947,-120
11:28:29.162947,-31745
11:28:29.162947,-1
11:28:29.162947,-113
11:28:29.162947,-25601
11:28:29.162947,-1
11:28:29.162947,-101
11:28:29.162947,-22273
11:28:29.162947,-1
11:28:29.162947,-101
11:28:29.162947,-24833
11:28:29.162947,-1
11:28:29.162947,-84
11:28:29.162947,-24321
11:28:29.162947,-1
11:28:29.162947,-98
11:28:29.162947,-26113
11:28:29.162947,-1
11:28:29.162947,-101
11:28:29.162947,-22273
11:28:29.162947,-1
11:28:29.162947,-91
11:28:29.162947,-21761
11:28:29.162947,-1
11:28:29.162947,-93
11:28:29.162947,-26113
11:28:29.162947,-1
11:28:29.162947,-88
11:28:29.162947,-24833
11:28:29.162947,-1
11:28:29.162947,-103
11:28:29.162947,-23553
11:28:29.162947,-1
11:28:29.162947,-103
11:28:29.162947,-24833
11:28:29.162947,-1
11:28:29.162947,-98
11:28:29.162947,-24833
11:28:29.162947,-1
11:28:29.162947,-91
11:28:29.162947,-31745
11:28:29.162947,-1
11:28:29.162947,-170
11:28:29.162947,19199
11:28:29.162947,-1
11:28:29.162947,-115
11:28:29.790974,91
11:28:29.790974,-4608
11:28:29.790974,0
11:28:29.790974,156
11:28:29.790974,4864
11:28:29.790974,0
11:28:29.790974,-57
11:28:29.790974,-27905
11:28:29.790974,-1
11:28:29.790974,-127
11:28:29.790974,-23553
11:28:29.790974,-1
11:28:29.790974,-93
11:28:29.790974,31487
11:28:29.790974,-1
11:28:29.790974,-115
11:28:29.790974,-23553
11:28:29.790974,-1
11:28:29.790974,-110
11:28:29.790974,-24321
11:28:29.790974,-1
11:28:29.790974,-96
11:28:29.790974,-26625
11:28:29.790974,-1
11:28:29.790974,-93
11:28:29.790974,-23553
11:28:29.790974,-1
11:28:29.790974,-88
11:28:29.790974,-22273
11:28:29.790974,-1
11:28:29.790974,-98
11:28:29.790974,-23553
11:28:29.790974,-1
11:28:29.790974,-101
11:28:29.790974,-24321
11:28:29.790974,-1
11:28:29.790974,-81
11:28:29.790974,-20481
11:28:29.790974,-1
11:28:29.790974,-72
11:28:29.790974,-18177
11:28:29.790974,-1
11:28:29.790974,-64
11:28:29.790974,-13057
11:28:29.790974,-1
11:28:29.790974,-50
11:28:29.790974,-10753
11:28:29.790974,-1
11:28:29.790974,-50
11:28:29.790974,-15105
11:28:29.790974,-1
11:28:29.790974,-50
11:28:29.790974,-13057
11:28:29.790974,-1
11:28:29.790974,-43
11:28:29.790974,-8961
11:28:29.790974,-1
11:28:29.790974,-43
11:28:29.790974,-7681
11:28:29.790974,-1
11:28:29.790974,-38
11:28:29.790974,-11265
11:28:29.790974,-1
11:28:29.790974,-33
11:28:29.790974,-12033
11:28:29.790974,-1
11:28:29.790974,-57
11:28:29.790974,-15105
11:28:29.790974,-1
11:28:29.790974,-62
11:28:29.790974,-13825
11:28:29.790974,-1
11:28:29.790974,-62
11:28:29.790974,-16129
11:28:29.790974,-1
11:28:29.790974,-64
11:28:29.790974,-17409
11:28:29.790974,-1
11:28:29.790974,-57
11:28:29.790974,-13825
11:28:29.790974,-1
11:28:29.790974,-50
11:28:29.790974,-9473
11:28:29.790974,-1
11:28:29.790974,-48
11:28:29.790974,-9985
11:28:29.790974,-1
11:28:29.790974,-38
11:28:29.790974,-11265
11:28:29.790974,-1
11:28:29.790974,-36
11:28:29.790974,-12033
11:28:29.790974,-1
11:28:29.790974,-52
11:28:29.790974,-12545
11:28:29.790974,-1
11:28:29.790974,-57
11:28:29.790974,-12033
11:28:29.790974,-1
11:28:29.790974,-50
11:28:29.790974,-14337
11:28:29.790974,-1
11:28:29.790974,-55
11:28:29.790974,-16129
11:28:29.790974,-1
11:28:29.790974,-57
11:28:29.790974,-13057
11:28:29.790974,-1
11:28:29.790974,-60
11:28:30.284797,-48
11:28:30.284797,-10753
11:28:30.284797,-1
11:28:30.284797,-43
11:28:30.284797,-9985
11:28:30.284797,-1
11:28:30.284797,-40
11:28:30.284797,-8193
11:28:30.284797,-1
11:28:30.284797,-45
11:28:30.284797,-12033
11:28:30.284797,-1
11:28:30.284797,-38
11:28:30.284797,-11265
11:28:30.284797,-1
11:28:30.284797,-36
11:28:30.284797,-9473
11:28:30.284797,-1
11:28:30.284797,-55
11:28:30.284797,-12033
11:28:30.284797,-1
11:28:30.284797,-55
11:28:30.284797,-10753
11:28:30.284797,-1
11:28:30.284797,-9
11:28:30.284797,-6401
11:28:30.284797,-1
11:28:30.284797,-55
11:28:30.284797,-13825
11:28:30.284797,-1
11:28:30.284797,-38
11:28:30.284797,-6401
11:28:30.284797,-1
11:28:30.284797,-28
11:28:30.284797,-5121
11:28:30.284797,-1
11:28:30.284797,-24
11:28:30.284797,-7681
11:28:30.284797,-1
11:28:30.284797,-28
11:28:30.284797,-10753
11:28:30.284797,-1
11:28:30.284797,-38
11:28:30.284797,-7681
11:28:30.284797,-1
11:28:30.284797,-40
11:28:30.284797,-6913
11:28:30.284797,-1
11:28:30.284797,-40
11:28:30.284797,-13057
11:28:30.284797,-1
11:28:30.284797,-57
11:28:30.284797,-26625
11:28:30.284797,-1
11:28:30.284797,-127
11:28:30.284797,-17409
11:28:30.284797,-1
11:28:30.284797,98
11:28:30.284797,7680
11:28:30.284797,1
11:28:30.284797,242
11:28:30.284797,21504
11:28:30.284797,0
11:28:30.284797,12
11:28:30.284797,-12288
11:28:30.284797,-1
11:28:30.284797,-84
11:28:30.284797,-21249
11:28:30.284797,-1
11:28:30.284797,-81
11:28:30.284797,-19201
11:28:30.284797,-1
11:28:30.284797,-81
11:28:30.284797,-16897
11:28:30.284797,-1
11:28:30.284797,-57
11:28:30.284797,-16129
11:28:30.284797,-1
11:28:30.284797,-57
11:28:30.284797,-16129
11:28:30.284797,-1
11:28:30.284797,-60
11:28:30.284797,-13057
11:28:30.284797,-1
11:28:30.284797,-64
11:28:30.284797,-13057
11:28:30.284797,-1
11:28:30.284797,-55
11:28:30.284797,-16129
11:28:30.284797,-1
11:28:30.284797,-52
11:28:30.284797,-16129
11:28:30.284797,-1
11:28:30.284797,-60
11:28:30.284797,-13057
11:28:30.284797,-1
11:28:30.284797,-57
11:28:30.284797,-8961
11:28:30.284797,-1
11:28:30.284797,-33
11:28:30.284797,-8961
11:28:30.284797,-1
11:28:30.284797,-21
11:28:30.284797,-4609
11:28:30.284797,-1
11:28:30.284797,-16
11:28:30.284797,-5889
11:28:30.284797,-1
11:28:30.284797,-24
11:28:30.825378,-12
11:28:30.825378,-3841
11:28:30.825378,-1
11:28:30.825378,-7
11:28:30.825378,-257
11:28:30.825378,-1
11:28:30.825378,-7
11:28:30.825378,1279
11:28:30.825378,0
11:28:30.825378,-2
11:28:30.825378,5631
11:28:30.825378,0
11:28:30.825378,40
11:28:30.825378,-1792
11:28:30.825378,-1
11:28:30.825378,-19
11:28:30.825378,-1537
11:28:30.825378,-1
11:28:30.825378,-24
11:28:30.825378,-6913
11:28:30.825378,-1
11:28:30.825378,-28
11:28:30.825378,-6401
11:28:30.825378,-1
11:28:30.825378,-28
11:28:30.825378,-7681
11:28:30.825378,-1
11:28:30.825378,-14
11:28:30.825378,-4609
11:28:30.825378,-1
11:28:30.825378,-24
11:28:30.825378,-5121
11:28:30.825378,-1
11:28:30.825378,-33
11:28:30.825378,-5889
11:28:30.825378,-1
11:28:30.825378,-16
11:28:30.825378,-5121
11:28:30.825378,-1
11:28:30.825378,-26
11:28:30.825378,-8193
11:28:30.825378,-1
11:28:30.825378,-19
11:28:30.825378,-3329
11:28:30.825378,-1
11:28:30.825378,-21
11:28:30.825378,-2049
11:28:30.825378,-1
11:28:30.825378,-19
11:28:30.825378,-6401
11:28:30.825378,-1
11:28:30.825378,-19
11:28:30.825378,-8193
11:28:30.825378,-1
11:28:30.825378,-28
11:28:30.825378,-8961
11:28:30.825378,-1
11:28:30.825378,-45
11:28:30.825378,-8193
11:28:30.825378,-1
11:28:30.825378,-36
11:28:30.825378,-6401
11:28:30.825378,-1
11:28:30.825378,-19
11:28:30.825378,-5889
11:28:30.825378,-1
11:28:30.825378,-16
11:28:30.825378,-5889
11:28:30.825378,-1
11:28:30.825378,-26
11:28:30.825378,-5121
11:28:30.825378,-1
11:28:30.825378,-38
11:28:30.825378,-9473
11:28:30.825378,-1
11:28:30.825378,-45
11:28:30.825378,-14337
11:28:30.825378,-1
11:28:30.825378,-43
11:28:30.825378,-12033
11:28:30.825378,-1
11:28:30.825378,-43
11:28:30.825378,-8961
11:28:30.825378,-1
11:28:30.825378,-33
11:28:30.825378,-4609
11:28:30.825378,-1
11:28:30.825378,-24
11:28:30.825378,-6401
11:28:30.825378,-1
11:28:30.825378,-14
11:28:30.825378,-5889
11:28:30.825378,-1
11:28:30.825378,-12
11:28:30.825378,-769
11:28:30.825378,-1
11:28:30.825378,-12
11:28:30.825378,-1537
11:28:30.825378,-1
11:28:30.825378,-19
11:28:30.825378,-7681
11:28:30.825378,-1
11:28:30.825378,-40
11:28:30.825378,-13057
11:28:30.825378,-1
11:28:30.825378,-33
11:28:30.825378,-8961
11:28:30.825378,-1
11:28:30.825378,-40
11:28:31.410405,-36
11:28:31.410405,-11265
11:28:31.410405,-1
11:28:31.410405,-45
11:28:31.410405,-19969
11:28:31.410405,-1
11:28:31.410405,-98
11:28:31.410405,-6401
11:28:31.410405,-1
11:28:31.410405,93
11:28:31.410405,-3584
11:28:31.410405,0
11:28:31.410405,240
11:28:31.410405,20224
11:28:31.410405,0
11:28:31.410405,2
11:28:31.410405,-10240
11:28:31.410405,-1
11:28:31.410405,-88
11:28:31.410405,-21761
11:28:31.410405,-1
11:28:31.410405,-84
11:28:31.410405,-17409
11:28:31.410405,-1
11:28:31.410405,-64
11:28:31.410405,-17409
11:28:31.410405,-1
11:28:31.410405,-60
11:28:31.410405,-19201
11:28:31.410405,-1
11:28:31.410405,-76
11:28:31.410405,-16129
11:28:31.410405,-1
11:28:31.410405,-72
11:28:31.410405,-16129
11:28:31.410405,-1
11:28:31.410405,-67
11:28:31.410405,-16129
11:28:31.410405,-1
11:28:31.410405,-55
11:28:31.410405,-16897
11:28:31.410405,-1
11:28:31.410405,-60
11:28:31.410405,-16129
11:28:31.410405,-1
11:28:31.410405,-79
11:28:31.410405,-16129
11:28:31.410405,-1
11:28:31.410405,-67
11:28:31.410405,-13825
11:28:31.410405,-1
11:28:31.410405,-43
11:28:31.410405,-13825
11:28:31.410405,-1
11:28:31.410405,-45
11:28:31.410405,-12033
11:28:31.410405,-1
11:28:31.410405,-60
11:28:31.410405,-14337
11:28:31.410405,-1
11:28:31.410405,-81
11:28:31.410405,-23553
11:28:31.410405,-1
11:28:31.410405,-101
11:28:31.410405,-27393
11:28:31.410405,-1
11:28:31.410405,-91
11:28:31.410405,-21761
11:28:31.410405,-1
11:28:31.410405,-76
11:28:31.410405,-17409
11:28:31.410405,-1
11:28:31.410405,-76
11:28:31.410405,-16129
11:28:31.410405,-1
11:28:31.410405,-67
11:28:31.410405,-16897
11:28:31.410405,-1
11:28:31.410405,-62
11:28:31.410405,-21249
11:28:31.410405,-1
11:28:31.410405,-86
11:28:31.410405,-21249
11:28:31.410405,-1
11:28:31.410405,-93
11:28:31.410405,-21249
11:28:31.410405,-1
11:28:31.410405,-93
11:28:31.410405,-24321
11:28:31.410405,-1
11:28:31.410405,-93
11:28:31.410405,-26113
11:28:31.410405,-1
11:28:31.410405,-91
11:28:31.410405,-23553
11:28:31.410405,-1
11:28:31.410405,-103
11:28:31.410405,-24833
11:28:31.410405,-1
11:28:31.410405,-105
11:28:31.410405,-25601
11:28:31.410405,-1
11:28:31.410405,-93
11:28:31.410405,-24321
11:28:31.410405,-1
11:28:31.410405,-86
11:28:31.410405,-25601
11:28:31.410405,-1
11:28:31.410405,-101
11:28:31.998186,-96
11:28:31.998186,-26625
11:28:31.998186,-1
11:28:31.998186,-88
11:28:31.998186,-23041
11:28:31.998186,-1
11:28:31.998186,-103
11:28:31.998186,-23041
11:28:31.998186,-1
11:28:31.998186,-88
11:28:31.998186,-16129
11:28:31.998186,-1
11:28:31.998186,-43
11:28:31.998186,-16129
11:28:31.998186,-1
11:28:31.998186,-79
11:28:31.998186,-23553
11:28:31.998186,-1
11:28:31.998186,-108
11:28:31.998186,-29185
11:28:31.998186,-1
11:28:31.998186,-122
11:28:31.998186,-28673
11:28:31.998186,-1
11:28:31.998186,-122
11:28:31.998186,-32257
11:28:31.998186,-1
11:28:31.998186,-113
11:28:31.998186,-30465
11:28:31.998186,-1
11:28:31.998186,-115
11:28:31.998186,-29697
11:28:31.998186,-1
11:28:31.998186,-129
11:28:31.998186,-28673
11:28:31.998186,-1
11:28:31.998186,-108
11:28:31.998186,-24321
11:28:31.998186,-1
11:28:31.998186,-84
11:28:31.998186,-25601
11:28:31.998186,-1
11:28:31.998186,-93
11:28:31.998186,-24321
11:28:31.998186,-1
11:28:31.998186,-110
11:28:31.998186,-24833
11:28:31.998186,-1
11:28:31.998186,-103
11:28:31.998186,-24833
11:28:31.998186,-1
11:28:31.998186,-98
11:28:31.998186,-27905
11:28:31.998186,-1
11:28:31.998186,-103
11:28:31.998186,-29185
11:28:31.998186,-1
11:28:31.998186,-151
11:28:31.998186,18431
11:28:31.998186,-1
11:28:31.998186,-180
11:28:31.998186,-12033
11:28:31.998186,-1
11:28:31.998186,110
11:28:31.998186,26880
11:28:31.998186,0
11:28:31.998186,-7
11:28:31.998186,-18689
11:28:31.998186,-1
11:28:31.998186,-105
11:28:31.998186,25855
11:28:31.998186,-1
11:28:31.998186,-168
11:28:31.998186,29695
11:28:31.998186,-1
11:28:31.998186,-153
11:28:31.998186,25343
11:28:31.998186,-1
11:28:31.998186,-144
11:28:31.998186,25855
11:28:31.998186,-1
11:28:31.998186,-151
11:28:31.998186,27135
11:28:31.998186,-1
11:28:31.998186,-158
11:28:31.998186,27647
11:28:31.998186,-1
11:28:31.998186,-156
11:28:31.998186,26623
11:28:31.998186,-1
11:28:31.998186,-146
11:28:31.998186,25855
11:28:31.998186,-1
11:28:31.998186,-146
11:28:31.998186,27135
11:28:31.998186,-1
11:28:31.998186,-151
11:28:31.998186,30207
11:28:31.998186,-1
11:28:31.998186,-139
11:28:31.998186,-32257
11:28:31.998186,-1
11:28:31.998186,-125
11:28:31.998186,-31745
11:28:31.998186,-1
11:28:31.998186,-108
11:28:31.998186,-29185
11:28:31.998186,-1
11:28:31.998186,-117
11:28:32.578405,-122
11:28:32.578405,30207
11:28:32.578405,-1
11:28:32.578405,-129
11:28:32.578405,32767
11:28:32.578405,-1
11:28:32.578405,-137
11:28:32.578405,30719
11:28:32.578405,-1
11:28:32.578405,-144
11:28:32.578405,-32257
11:28:32.578405,-1
11:28:32.578405,-122
11:28:32.578405,31487
11:28:32.578405,-1
11:28:32.578405,-110
11:28:32.578405,-23041
11:28:32.578405,-1
11:28:32.578405,-98
11:28:32.578405,-31745
11:28:32.578405,-1
11:28:32.578405,-132
11:28:32.578405,-29697
11:28:32.578405,-1
11:28:32.578405,-129
11:28:32.578405,31999
11:28:32.578405,-1
11:28:32.578405,-120
11:28:32.578405,-31745
11:28:32.578405,-1
11:28:32.578405,-115
11:28:32.578405,-29697
11:28:32.578405,-1
11:28:32.578405,-127
11:28:32.578405,-29697
11:28:32.578405,-1
11:28:32.578405,-132
11:28:32.578405,31999
11:28:32.578405,-1
11:28:32.578405,-125
11:28:32.578405,30207
11:28:32.578405,-1
11:28:32.578405,-129
11:28:32.578405,-30465
11:28:32.578405,-1
11:28:32.578405,-115
11:28:32.578405,-27905
11:28:32.578405,-1
11:28:32.578405,-120
11:28:32.578405,-27905
11:28:32.578405,-1
11:28:32.578405,-108
11:28:32.578405,-28673
11:28:32.578405,-1
11:28:32.578405,-103
11:28:32.578405,-27905
11:28:32.578405,-1
11:28:32.578405,-108
11:28:32.578405,-25601
11:28:32.578405,-1
11:28:32.578405,-110
11:28:32.578405,-26113
11:28:32.578405,-1
11:28:32.578405,-108
11:28:32.578405,-29185
11:28:32.578405,-1
11:28:32.578405,-108
11:28:32.578405,-30465
11:28:32.578405,-1
11:28:32.578405,-113
11:28:32.578405,-28673
11:28:32.578405,-1
11:28:32.578405,-117
11:28:32.578405,-24321
11:28:32.578405,-1
11:28:32.578405,-91
11:28:32.578405,-24833
11:28:32.578405,-1
11:28:32.578405,-101
11:28:32.578405,-28673
11:28:32.578405,-1
11:28:32.578405,-110
11:28:32.578405,-30465
11:28:32.578405,-1
11:28:32.578405,-117
11:28:32.578405,-26113
11:28:32.578405,-1
11:28:32.578405,-108
11:28:32.578405,-24833
11:28:32.578405,-1
11:28:32.578405,-93
11:28:32.578405,-24321
11:28:32.578405,-1
11:28:32.578405,-88
11:28:32.578405,30719
11:28:32.578405,-1
11:28:32.578405,-182
11:28:32.578405,24575
11:28:32.578405,-1
11:28:32.578405,-50
11:28:32.578405,-27905
11:28:32.578405,0
11:28:32.578405,192
11:28:32.578405,14080
11:28:32.578405,0
11:28:32.578405,-43
11:28:32.578405,-25601
11:28:32.578405,-1
11:28:32.578405,-141
11:28:33.163746,-139
11:28:33.163746,32767
11:28:33.163746,-1
11:28:33.163746,-117
11:28:33.163746,-31745
11:28:33.163746,-1
11:28:33.163746,-117
11:28:33.163746,-28673
11:28:33.163746,-1
11:28:33.163746,-127
11:28:33.163746,-29697
11:28:33.163746,-1
11:28:33.163746,-117
11:28:33.163746,-30977
11:28:33.163746,-1
11:28:33.163746,-115
11:28:33.163746,-30465
11:28:33.163746,-1
11:28:33.163746,-108
11:28:33.163746,-23553
11:28:33.163746,-1
11:28:33.163746,-76
11:28:33.163746,-15617
11:28:33.163746,-1
11:28:33.163746,-103
11:28:33.163746,-29185
11:28:33.163746,-1
11:28:33.163746,-91
11:28:33.163746,-26625
11:28:33.163746,-1
11:28:33.163746,-101
11:28:33.163746,-23041
11:28:33.163746,-1
11:28:33.163746,-98
11:28:33.163746,-22273
11:28:33.163746,-1
11:28:33.163746,-84
11:28:33.163746,-19201
11:28:33.163746,-1
11:28:33.163746,-81
11:28:33.163746,-23553
11:28:33.163746,-1
11:28:33.163746,-81
11:28:33.163746,-20481
11:28:33.163746,-1
11:28:33.163746,-79
11:28:33.163746,-16897
11:28:33.163746,-1
11:28:33.163746,-81
11:28:33.163746,-19201
11:28:33.163746,-1
11:28:33.163746,-76
11:28:33.163746,-20481
11:28:33.163746,-1
11:28:33.163746,-69
11:28:33.163746,-18177
11:28:33.163746,-1
11:28:33.163746,-67
11:28:33.163746,-16897
11:28:33.163746,-1
11:28:33.163746,-74
11:28:33.163746,-15617
11:28:33.163746,-1
11:28:33.163746,-64
11:28:33.163746,-16897
11:28:33.163746,-1
11:28:33.163746,-62
11:28:33.163746,-20481
11:28:33.163746,-1
11:28:33.163746,-74
11:28:33.163746,-18689
11:28:33.163746,-1
11:28:33.163746,-79
11:28:33.163746,-15105
11:28:33.163746,-1
11:28:33.163746,-64
11:28:33.163746,-16897
11:28:33.163746,-1
11:28:33.163746,-57
11:28:33.163746,-15617
11:28:33.163746,-1
11:28:33.163746,-52
11:28:33.163746,-15105
11:28:33.163746,-1
11:28:33.163746,-67
11:28:33.163746,-15617
11:28:33.163746,-1
11:28:33.163746,-74
11:28:33.163746,-16897
11:28:33.163746,-1
11:28:33.163746,-57
11:28:33.163746,-15105
11:28:33.163746,-1
11:28:33.163746,-62
11:28:33.163746,-19201
11:28:33.163746,-1
11:28:33.163746,-67
11:28:33.163746,-16129
11:28:33.163746,-1
11:28:33.163746,-76
11:28:33.163746,-16129
11:28:33.163746,-1
11:28:33.163746,-79
11:28:33.163746,-21761
11:28:33.163746,-1
11:28:33.163746,-72
11:28:33.163746,-19969
11:28:33.163746,-1
11:28:33.163746,-64
11:28:33.660347,-55
11:28:33.660347,-15617
11:28:33.660347,-1
11:28:33.660347,-55
11:28:33.660347,-15617
11:28:33.660347,-1
11:28:33.660347,-64
11:28:33.660347,-15617
11:28:33.660347,-1
11:28:33.660347,-76
11:28:33.660347,-18689
11:28:33.660347,-1
11:28:33.660347,-79
11:28:33.660347,-18689
11:28:33.660347,-1
11:28:33.660347,-60
11:28:33.660347,-17409
11:28:33.660347,-1
11:28:33.660347,-57
11:28:33.660347,-13825
11:28:33.660347,-1
11:28:33.660347,-64
11:28:33.660347,-11265
11:28:33.660347,-1
11:28:33.660347,-38
11:28:33.660347,-2049
11:28:33.660347,-1
11:28:33.660347,2
11:28:33.660347,-12288
11:28:33.660347,-1
11:28:33.660347,-60
11:28:33.660347,-15105
11:28:33.660347,-1
11:28:33.660347,-108
11:28:33.660347,28927
11:28:33.660347,-1
11:28:33.660347,-120
11:28:33.660347,9983
11:28:33.660347,0
11:28:33.660347,226
11:28:33.660347,-8448
11:28:33.660347,0
11:28:33.660347,88
11:28:33.660347,-1792
11:28:33.660347,-1
11:28:33.660347,-62
11:28:33.660347,-26625
11:28:33.660347,-1
11:28:33.660347,-113
11:28:33.660347,-23553
11:28:33.660347,-1
11:28:33.660347,-96
11:28:33.660347,-24321
11:28:33.660347,-1
11:28:33.660347,-81
11:28:33.660347,-24321
11:28:33.660347,-1
11:28:33.660347,-93
11:28:33.660347,-21761
11:28:33.660347,-1
11:28:33.660347,-91
11:28:33.660347,-18689
11:28:33.660347,-1
11:28:33.660347,-76
11:28:33.660347,-18689
11:28:33.660347,-1
11:28:33.660347,-60
11:28:33.660347,-18177
11:28:33.660347,-1
11:28:33.660347,-74
11:28:33.660347,-19969
11:28:33.660347,-1
11:28:33.660347,-91
11:28:33.660347,-23553
11:28:33.660347,-1
11:28:33.660347,-105
11:28:33.660347,-24833
11:28:33.660347,-1
11:28:33.660347,-88
11:28:33.660347,-19969
11:28:33.660347,-1
11:28:33.660347,-50
11:28:33.660347,-15105
11:28:33.660347,-1
11:28:33.660347,-57
11:28:33.660347,-8193
11:28:33.660347,-1
11:28:33.660347,-38
11:28:33.660347,-6913
11:28:33.660347,-1
11:28:33.660347,-26
11:28:33.660347,-8961
11:28:33.660347,-1
11:28:33.660347,-28
11:28:33.660347,-8961
11:28:33.660347,-1
11:28:33.660347,-36
11:28:33.660347,-8193
11:28:33.660347,-1
11:28:33.660347,-45
11:28:33.660347,-9473
11:28:33.660347,-1
11:28:33.660347,-43
11:28:33.660347,-9985
11:28:33.660347,-1
11:28:33.660347,-28
11:28:33.660347,-9985
11:28:33.660347,-1
11:28:33.660347,-36
11:28:34.200546,-36
11:28:34.200546,-9985
11:28:34.200546,-1
11:28:34.200546,-28
11:28:34.200546,-6913
11:28:34.200546,-1
11:28:34.200546,-26
11:28:34.200546,-5889
11:28:34.200546,-1
11:28:34.200546,-33
11:28:34.200546,-5889
11:28:34.200546,-1
11:28:34.200546,-12
11:28:34.200546,2047
11:28:34.200546,0
11:28:34.200546,-4
11:28:34.200546,-11265
11:28:34.200546,-1
11:28:34.200546,-36
11:28:34.200546,-6401
11:28:34.200546,-1
11:28:34.200546,-36
11:28:34.200546,-5889
11:28:34.200546,-1
11:28:34.200546,-31
11:28:34.200546,-7681
11:28:34.200546,-1
11:28:34.200546,-26
11:28:34.200546,-9473
11:28:34.200546,-1
11:28:34.200546,-26
11:28:34.200546,-7681
11:28:34.200546,-1
11:28:34.200546,-38
11:28:34.200546,-7681
11:28:34.200546,-1
11:28:34.200546,-45
11:28:34.200546,-10753
11:28:34.200546,-1
11:28:34.200546,-38
11:28:34.200546,-11265
11:28:34.200546,-1
11:28:34.200546,-40
11:28:34.200546,-12033
11:28:34.200546,-1
11:28:34.200546,-45
11:28:34.200546,-8961
11:28:34.200546,-1
11:28:34.200546,-40
11:28:34.200546,-9473
11:28:34.200546,-1
11:28:34.200546,-38
11:28:34.200546,-8193
11:28:34.200546,-1
11:28:34.200546,-28
11:28:34.200546,-9473
11:28:34.200546,-1
11:28:34.200546,-19
11:28:34.200546,-1537
11:28:34.200546,-1
11:28:34.200546,-12
11:28:34.200546,-257
11:28:34.200546,-1
11:28:34.200546,-12
11:28:34.200546,-2817
11:28:34.200546,-1
11:28:34.200546,-4
11:28:34.200546,-3329
11:28:34.200546,-1
11:28:34.200546,4
11:28:34.200546,2304
11:28:34.200546,0
11:28:34.200546,-9
11:28:34.200546,-769
11:28:34.200546,-1
11:28:34.200546,-2
11:28:34.200546,-2817
11:28:34.200546,-1
11:28:34.200546,-45
11:28:34.200546,-23041
11:28:34.200546,-1
11:28:34.200546,-69
11:28:34.200546,14847
11:28:34.200546,0
11:28:34.200546,259
11:28:34.200546,12544
11:28:34.200546,1
11:28:34.200546,144
11:28:34.200546,11008
11:28:34.200546,0
11:28:34.200546,0
11:28:34.200546,-13312
11:28:34.200546,-1
11:28:34.200546,-48
11:28:34.200546,-10753
11:28:34.200546,-1
11:28:34.200546,-43
11:28:34.200546,-9985
11:28:34.200546,-1
11:28:34.200546,-43
11:28:34.200546,-6913
11:28:34.200546,-1
11:28:34.200546,-36
11:28:34.200546,-10753
11:28:34.200546,-1
11:28:34.200546,-28
11:28:34.200546,-8193
11:28:34.200546,-1
11:28:34.200546,-28
11:28:34.788830,-24
11:28:34.788830,-5889
11:28:34.788830,-1
11:28:34.788830,-12
11:28:34.788830,-3329
11:28:34.788830,-1
11:28:34.788830,-7
11:28:34.788830,2559
11:28:34.788830,0
11:28:34.788830,33
11:28:34.788830,11008
11:28:34.788830,0
11:28:34.788830,7
11:28:34.788830,1024
11:28:34.788830,0
11:28:34.788830,28
11:28:34.788830,3584
11:28:34.788830,0
11:28:34.788830,14
11:28:34.788830,3072
11:28:34.788830,0
11:28:34.788830,-4
11:28:34.788830,-257
11:28:34.788830,-1
11:28:34.788830,-9
11:28:34.788830,-769
11:28:34.788830,-1
11:28:34.788830,2
11:28:34.788830,-512
11:28:34.788830,-1
11:28:34.788830,9
11:28:34.788830,2304
11:28:34.788830,0
11:28:34.788830,7
11:28:34.788830,2304
11:28:34.788830,0
11:28:34.788830,-4
11:28:34.788830,-1537
11:28:34.788830,-1
11:28:34.788830,-7
11:28:34.788830,-3329
11:28:34.788830,-1
11:28:34.788830,-16
11:28:34.788830,-6401
11:28:34.788830,-1
11:28:34.788830,-19
11:28:34.788830,-3841
11:28:34.788830,-1
11:28:34.788830,-26
11:28:34.788830,-2817
11:28:34.788830,-1
11:28:34.788830,-12
11:28:34.788830,-2817
11:28:34.788830,-1
11:28:34.788830,0
11:28:34.788830,-1024
11:28:34.788830,-1
11:28:34.788830,9
11:28:34.788830,4096
11:28:34.788830,0
11:28:34.788830,-2
11:28:34.788830,255
11:28:34.788830,0
11:28:34.788830,-2
11:28:34.788830,-1537
11:28:34.788830,-1
11:28:34.788830,-12
11:28:34.788830,-5889
11:28:34.788830,-1
11:28:34.788830,-26
11:28:34.788830,-9985
11:28:34.788830,-1
11:28:34.788830,-52
11:28:34.788830,-12033
11:28:34.788830,-1
11:28:34.788830,-55
11:28:34.788830,-12545
11:28:34.788830,-1
11:28:34.788830,-48
11:28:34.788830,-13825
11:28:34.788830,-1
11:28:34.788830,-48
11:28:34.788830,-13825
11:28:34.788830,-1
11:28:34.788830,-50
11:28:34.788830,-9473
11:28:34.788830,-1
11:28:34.788830,-40
11:28:34.788830,-8961
11:28:34.788830,-1
11:28:34.788830,-50
11:28:34.788830,-13057
11:28:34.788830,-1
11:28:34.788830,-40
11:28:34.788830,-11265
11:28:34.788830,-1
11:28:34.788830,-28
11:28:34.788830,-5121
11:28:34.788830,-1
11:28:34.788830,-28
11:28:34.788830,-2817
11:28:34.788830,-1
11:28:34.788830,-16
11:28:34.788830,-4609
11:28:34.788830,-1
11:28:34.788830,-12
11:28:34.788830,-8961
11:28:34.788830,-1
11:28:34.788830,-48
11:28:35.369077,-50
11:28:35.369077,-13825
11:28:35.369077,-1
11:28:35.369077,-52
11:28:35.369077,-15105
11:28:35.369077,-1
11:28:35.369077,-62
11:28:35.369077,-18689
11:28:35.369077,-1
11:28:35.369077,-98
11:28:35.369077,32767
11:28:35.369077,-1
11:28:35.369077,-139
11:28:35.369077,-3841
11:28:35.369077,-1
11:28:35.369077,187
11:28:35.369077,-5376
11:28:35.369077,0
11:28:35.369077,115
11:28:35.369077,1024
11:28:35.369077,0
11:28:35.369077,-26
11:28:35.369077,-14337
11:28:35.369077,-1
11:28:35.369077,-91
11:28:35.369077,-17409
11:28:35.369077,-1
11:28:35.369077,-60
11:28:35.369077,-19969
11:28:35.369077,-1
11:28:35.369077,-64
11:28:35.369077,-14337
11:28:35.369077,-1
11:28:35.369077,-62
11:28:35.369077,-15617
11:28:35.369077,-1
11:28:35.369077,-67
11:28:35.369077,-15617
11:28:35.369077,-1
11:28:35.369077,-64
11:28:35.369077,-17409
11:28:35.369077,-1
11:28:35.369077,-69
11:28:35.369077,-22273
11:28:35.369077,-1
11:28:35.369077,-84
11:28:35.369077,-18689
11:28:35.369077,-1
11:28:35.369077,-72
11:28:35.369077,-16897
11:28:35.369077,-1
11:28:35.369077,-81
11:28:35.369077,-18177
11:28:35.369077,-1
11:28:35.369077,-52
11:28:35.369077,-13057
11:28:35.369077,-1
11:28:35.369077,-36
11:28:35.369077,-8193
11:28:35.369077,-1
11:28:35.369077,-48
11:28:35.369077,-13057
11:28:35.369077,-1
11:28:35.369077,-74
11:28:35.369077,-19969
11:28:35.369077,-1
11:28:35.369077,-88
11:28:35.369077,-27905
11:28:35.369077,-1
11:28:35.369077,-110
11:28:35.369077,-29185
11:28:35.369077,-1
11:28:35.369077,-110
11:28:35.369077,-25601
11:28:35.369077,-1
11:28:35.369077,-101
11:28:35.369077,-23041
11:28:35.369077,-1
11:28:35.369077,-101
11:28:35.369077,-25601
11:28:35.369077,-1
11:28:35.369077,-88
11:28:35.369077,-24321
11:28:35.369077,-1
11:28:35.369077,-86
11:28:35.369077,-22273
11:28:35.369077,-1
11:28:35.369077,-108
11:28:35.369077,-24321
11:28:35.369077,-1
11:28:35.369077,-103
11:28:35.369077,-27393
11:28:35.369077,-1
11:28:35.369077,-98
11:28:35.369077,-26113
11:28:35.369077,-1
11:28:35.369077,-98
11:28:35.369077,-24833
11:28:35.369077,-1
11:28:35.369077,-98
11:28:35.369077,-23041
11:28:35.369077,-1
11:28:35.369077,-101
11:28:35.369077,-24833
11:28:35.369077,-1
11:28:35.369077,-98
11:28:35.369077,-27905
11:28:35.369077,-1
11:28:35.369077,-101
11:28:35.914258,-105
11:28:35.914258,-25601
11:28:35.914258,-1
11:28:35.914258,-98
11:28:35.914258,-29185
11:28:35.914258,-1
11:28:35.914258,-98
11:28:35.914258,-20481
11:28:35.914258,-1
11:28:35.914258,-81
11:28:35.914258,-19201
11:28:35.914258,-1
11:28:35.914258,-86
11:28:35.914258,-22273
11:28:35.914258,-1
11:28:35.914258,-93
11:28:35.914258,-24321
11:28:35.914258,-1
11:28:35.914258,-60
11:28:35.914258,-13825
11:28:35.914258,-1
11:28:35.914258,-84
11:28:35.914258,-23041
11:28:35.914258,-1
11:28:35.914258,-86
11:28:35.914258,-19969
11:28:35.914258,-1
11:28:35.914258,-93
11:28:35.914258,-25601
11:28:35.914258,-1
11:28:35.914258,-91
11:28:35.914258,-27905
11:28:35.914258,-1
11:28:35.914258,-113
11:28:35.914258,-27393
11:28:35.914258,-1
11:28:35.914258,-110
11:28:35.914258,-27393
11:28:35.914258,-1
11:28:35.914258,-129
11:28:35.914258,31999
11:28:35.914258,-1
11:28:35.914258,-125
11:28:35.914258,26623
11:28:35.914258,-1
11:28:35.914258,-182
11:28:35.914258,13567
11:28:35.914258,-1
11:28:35.914258,-146
11:28:35.914258,5631
11:28:35.914258,0
11:28:35.914258,129
11:28:35.914258,16384
11:28:35.914258,0
11:28:35.914258,-40
11:28:35.914258,-21761
11:28:35.914258,-1
11:28:35.914258,-125
11:28:35.914258,19711
11:28:35.914258,-1
11:28:35.914258,-168
11:28:35.914258,29695
11:28:35.914258,-1
11:28:35.914258,-156
11:28:35.914258,27647
11:28:35.914258,-1
11:28:35.914258,-141
11:28:35.914258,28927
11:28:35.914258,-1
11:28:35.914258,-137
11:28:35.914258,28927
11:28:35.914258,-1
11:28:35.914258,-134
11:28:35.914258,31999
11:28:35.914258,-1
11:28:35.914258,-141
11:28:35.914258,31487
11:28:35.914258,-1
11:28:35.914258,-141
11:28:35.914258,29695
11:28:35.914258,-1
11:28:35.914258,-137
11:28:35.914258,28415
11:28:35.914258,-1
11:28:35.914258,-137
11:28:35.914258,31487
11:28:35.914258,-1
11:28:35.914258,-132
11:28:35.914258,-28673
11:28:35.914258,-1
11:28:35.914258,-115
11:28:35.914258,-28673
11:28:35.914258,-1
11:28:35.914258,-113
11:28:35.914258,-32257
11:28:35.914258,-1
11:28:35.914258,-129
11:28:35.914258,29695
11:28:35.914258,-1
11:28:35.914258,-146
11:28:35.914258,30207
11:28:35.914258,-1
11:28:35.914258,-153
11:28:35.914258,27135
11:28:35.914258,-1
11:28:35.914258,-146
11:28:35.914258,29695
11:28:35.914258,-1
11:28:35.914258,-132
11:28:36.453040,-137
11:28:36.453040,30719
11:28:36.453040,-1
11:28:36.453040,-144
11:28:36.453040,26623
11:28:36.453040,-1
11:28:36.453040,-144
11:28:36.453040,25343
11:28:36.453040,-1
11:28:36.453040,-161
11:28:36.453040,26623
11:28:36.453040,-1
11:28:36.453040,-170
11:28:36.453040,27647
11:28:36.453040,-1
11:28:36.453040,-125
11:28:36.453040,27135
11:28:36.453040,-1
11:28:36.453040,-170
11:28:36.453040,24063
11:28:36.453040,-1
11:28:36.453040,-156
11:28:36.453040,23551
11:28:36.453040,-1
11:28:36.453040,-161
11:28:36.453040,30207
11:28:36.453040,-1
11:28:36.453040,-153
11:28:36.453040,25343
11:28:36.453040,-1
11:28:36.453040,-144
11:28:36.453040,27647
11:28:36.453040,-1
11:28:36.453040,-144
11:28:36.453040,27647
11:28:36.453040,-1
11:28:36.453040,-153
11:28:36.453040,28927
11:28:36.453040,-1
11:28:36.453040,-158
11:28:36.453040,25343
11:28:36.453040,-1
11:28:36.453040,-161
11:28:36.453040,20479
11:28:36.453040,-1
11:28:36.453040,-163
11:28:36.453040,25343
11:28:36.453040,-1
11:28:36.453040,-149
11:28:36.453040,30719
11:28:36.453040,-1
11:28:36.453040,-146
11:28:36.453040,29695
11:28:36.453040,-1
11:28:36.453040,-137
11:28:36.453040,28415
11:28:36.453040,-1
11:28:36.453040,-149
11:28:36.453040,25343
11:28:36.453040,-1
11:28:36.453040,-149
11:28:36.453040,28927
11:28:36.453040,-1
11:28:36.453040,-151
11:28:36.453040,30207
11:28:36.453040,-1
11:28:36.453040,-144
11:28:36.453040,27647
11:28:36.453040,-1
11:28:36.453040,-168
11:28:36.453040,7935
11:28:36.453040,-1
11:28:36.453040,-216
11:28:36.453040,-29185
11:28:36.453040,-1
11:28:36.453040,57
11:28:36.453040,-30464
11:28:36.453040,0
11:28:36.453040,19
11:28:36.453040,-18432
11:28:36.453040,-1
11:28:36.453040,-115
11:28:36.453040,20479
11:28:36.453040,-1
11:28:36.453040,-180
11:28:36.453040,22271
11:28:36.453040,-1
11:28:36.453040,-175
11:28:36.453040,23551
11:28:36.453040,-1
11:28:36.453040,-158
11:28:36.453040,27647
11:28:36.453040,-1
11:28:36.453040,-151
11:28:36.453040,26623
11:28:36.453040,-1
11:28:36.453040,-139
11:28:36.453040,25855
11:28:36.453040,-1
11:28:36.453040,-151
11:28:36.453040,29695
11:28:36.453040,-1
11:28:36.453040,-156
11:28:36.453040,27647
11:28:36.453040,-1
11:28:36.453040,-156
11:28:36.453040,25855
11:28:36.453040,-1
11:28:36.453040,-139
11:28:37.037452,-141
11:28:37.037452,-32257
11:28:37.037452,-1
11:28:37.037452,-120
11:28:37.037452,-30977
11:28:37.037452,-1
11:28:37.037452,-110
11:28:37.037452,-29185
11:28:37.037452,-1
11:28:37.037452,-98
11:28:37.037452,-18177
11:28:37.037452,-1
11:28:37.037452,-88
11:28:37.037452,-27905
11:28:37.037452,-1
11:28:37.037452,-125
11:28:37.037452,-30977
11:28:37.037452,-1
11:28:37.037452,-110
11:28:37.037452,-30465
11:28:37.037452,-1
11:28:37.037452,-113
11:28:37.037452,-29185
11:28:37.037452,-1
11:28:37.037452,-127
11:28:37.037452,-29185
11:28:37.037452,-1
11:28:37.037452,-120
11:28:37.037452,-30465
11:28:37.037452,-1
11:28:37.037452,-113
11:28:37.037452,-29697
11:28:37.037452,-1
11:28:37.037452,-96
11:28:37.037452,-23041
11:28:37.037452,-1
11:28:37.037452,-96
11:28:37.037452,-23553
11:28:37.037452,-1
11:28:37.037452,-103
11:28:37.037452,-24321
11:28:37.037452,-1
11:28:37.037452,-96
11:28:37.037452,-26625
11:28:37.037452,-1
11:28:37.037452,-96
11:28:37.037452,-27393
11:28:37.037452,-1
11:28:37.037452,-115
11:28:37.037452,-27393
11:28:37.037452,-1
11:28:37.037452,-117
11:28:37.037452,-26625
11:28:37.037452,-1
11:28:37.037452,-103
11:28:37.037452,-27905
11:28:37.037452,-1
11:28:37.037452,-103
11:28:37.037452,-27393
11:28:37.037452,-1
11:28:37.037452,-101
11:28:37.037452,-23553
11:28:37.037452,-1
11:28:37.037452,-96
11:28:37.037452,-22273
11:28:37.037452,-1
11:28:37.037452,-101
11:28:37.037452,-26113
11:28:37.037452,-1
11:28:37.037452,-96
11:28:37.037452,-27393
11:28:37.037452,-1
11:28:37.037452,-98
11:28:37.037452,-27905
11:28:37.037452,-1
11:28:37.037452,-122
11:28:37.037452,-28673
11:28:37.037452,-1
11:28:37.037452,-117
11:28:37.037452,-25601
11:28:37.037452,-1
11:28:37.037452,-84
11:28:37.037452,-21761
11:28:37.037452,-1
11:28:37.037452,-86
11:28:37.037452,-23553
11:28:37.037452,-1
11:28:37.037452,-86
11:28:37.037452,-19969
11:28:37.037452,-1
11:28:37.037452,-91
11:28:37.037452,-19201
11:28:37.037452,-1
11:28:37.037452,-74
11:28:37.037452,-21249
11:28:37.037452,-1
11:28:37.037452,-74
11:28:37.037452,-19969
11:28:37.037452,-1
11:28:37.037452,-81
11:28:37.037452,-29697
11:28:37.037452,-1
11:28:37.037452,-175
11:28:37.037452,22271
11:28:37.037452,-1
11:28:37.037452,-57
11:28:37.037452,-20993
11:28:37.037452,0
11:28:37.037452,269
11:28:37.574783,108
11:28:37.574783,-3584
11:28:37.574783,-1
11:28:37.574783,-76
11:28:37.574783,27135
11:28:37.574783,-1
11:28:37.574783,-146
11:28:37.574783,-31745
11:28:37.574783,-1
11:28:37.574783,-122
11:28:37.574783,-29697
11:28:37.574783,-1
11:28:37.574783,-113
11:28:37.574783,-23553
11:28:37.574783,-1
11:28:37.574783,-74
11:28:37.574783,-18689
11:28:37.574783,-1
11:28:37.574783,-108
11:28:37.574783,32767
11:28:37.574783,-1
11:28:37.574783,-101
11:28:37.574783,-27905
11:28:37.574783,-1
11:28:37.574783,-129
11:28:37.574783,-28673
11:28:37.574783,-1
11:28:37.574783,-120
11:28:37.574783,-30465
11:28:37.574783,-1
11:28:37.574783,-110
11:28:37.574783,-28673
11:28:37.574783,-1
11:28:37.574783,-93
11:28:37.574783,-23553
11:28:37.574783,-1
11:28:37.574783,-93
11:28:37.574783,-19201
11:28:37.574783,-1
11:28:37.574783,-84
11:28:37.574783,-18689
11:28:37.574783,-1
11:28:37.574783,-64
11:28:37.574783,-17409
11:28:37.574783,-1
11:28:37.574783,-64
11:28:37.574783,-18689
11:28:37.574783,-1
11:28:37.574783,-67
11:28:37.574783,-15105
11:28:37.574783,-1
11:28:37.574783,-64
11:28:37.574783,-13825
11:28:37.574783,-1
11:28:37.574783,-64
11:28:37.574783,-17409
11:28:37.574783,-1
11:28:37.574783,-64
11:28:37.574783,-19201
11:28:37.574783,-1
11:28:37.574783,-67
11:28:37.574783,-17409
11:28:37.574783,-1
11:28:37.574783,-86
11:28:37.574783,-19969
11:28:37.574783,-1
11:28:37.574783,-84
11:28:37.574783,-19201
11:28:37.574783,-1
11:28:37.574783,-67
11:28:37.574783,-19201
11:28:37.574783,-1
11:28:37.574783,-72
11:28:37.574783,-19201
11:28:37.574783,-1
11:28:37.574783,-76
11:28:37.574783,-15617
11:28:37.574783,-1
11:28:37.574783,-72
11:28:37.574783,-16897
11:28:37.574783,-1
11:28:37.574783,-67
11:28:37.574783,-18689
11:28:37.574783,-1
11:28:37.574783,-62
11:28:37.574783,-16897
11:28:37.574783,-1
11:28:37.574783,-67
11:28:37.574783,-15617
11:28:37.574783,-1
11:28:37.574783,-74
11:28:37.574783,-16129
11:28:37.574783,-1
11:28:37.574783,-67
11:28:37.574783,-17409
11:28:37.574783,-1
11:28:37.574783,-60
11:28:37.574783,-18177
11:28:37.574783,-1
11:28:37.574783,-64
11:28:37.574783,-15105
11:28:37.574783,-1
11:28:37.574783,-57
11:28:37.574783,-11265
11:28:37.574783,-1
11:28:37.574783,-64
11:28:37.574783,-16129
11:28:37.574783,-1
11:28:37.574783,-55
11:28:38.119487,-72
11:28:38.119487,-15617
11:28:38.119487,-1
11:28:38.119487,-64
11:28:38.119487,-19201
11:28:38.119487,-1
11:28:38.119487,-69
11:28:38.119487,-19969
11:28:38.119487,-1
11:28:38.119487,-74
11:28:38.119487,-12545
11:28:38.119487,-1
11:28:38.119487,-28
11:28:38.119487,-10753
11:28:38.119487,-1
11:28:38.119487,-74
11:28:38.119487,-15105
11:28:38.119487,-1
11:28:38.119487,-52
11:28:38.119487,-18177
11:28:38.119487,-1
11:28:38.119487,-55
11:28:38.119487,-12545
11:28:38.119487,-1
11:28:38.119487,-57
11:28:38.119487,-12545
11:28:38.119487,-1
11:28:38.119487,-57
11:28:38.119487,-12545
11:28:38.119487,-1
11:28:38.119487,-55
11:28:38.119487,-24321
11:28:38.119487,-1
11:28:38.119487,-132
11:28:38.119487,28927
11:28:38.119487,-1
11:28:38.119487,-26
11:28:38.119487,-13569
11:28:38.119487,0
11:28:38.119487,286
11:28:38.119487,-23808
11:28:38.119487,0
11:28:38.119487,21
11:28:38.119487,-13312
11:28:38.119487,-1
11:28:38.119487,-101
11:28:38.119487,-30465
11:28:38.119487,-1
11:28:38.119487,-98
11:28:38.119487,-24321
11:28:38.119487,-1
