timestamp,ecg
15:42:48.464060,-35
15:42:48.464060,-6401
15:42:48.464060,-1
15:42:48.464060,-23
15:42:48.464060,-3841
15:42:48.464060,-1
15:42:48.464060,-2
15:42:48.464060,2559
15:42:48.464060,0
15:42:48.464060,18
15:42:48.464060,7680
15:42:48.464060,0
15:42:48.464060,35
15:42:48.464060,8960
15:42:48.464060,0
15:42:48.464060,33
15:42:48.464060,11520
15:42:48.464060,0
15:42:48.464060,59
15:42:48.464060,11520
15:42:48.464060,0
15:42:48.464060,16
15:42:48.464060,-512
15:42:48.464060,-1
15:42:48.464060,-14
15:42:48.464060,-6913
15:42:48.464060,-1
15:42:48.464060,-33
15:42:48.464060,-6913
15:42:48.464060,-1
15:42:48.464060,-28
15:42:48.464060,-8193
15:42:48.464060,-1
15:42:48.464060,-30
15:42:48.464060,-6401
15:42:48.464060,-1
15:42:48.464060,-23
15:42:48.464060,-4353
15:42:48.464060,-1
15:42:48.464060,-14
15:42:48.464060,-2049
15:42:48.464060,-1
15:42:48.464060,-4
15:42:48.464060,255
15:42:48.464060,0
15:42:48.464060,4
15:42:48.464060,1024
15:42:48.464060,0
15:42:48.464060,7
15:42:48.464060,2304
15:42:48.464060,0
15:42:48.464060,9
15:42:48.464060,2816
15:42:48.464060,0
15:42:48.464060,18
15:42:48.464060,5888
15:42:48.464060,0
15:42:48.464060,21
15:42:48.464060,4608
15:42:48.464060,0
15:42:48.464060,23
15:42:48.464060,5888
15:42:48.464060,0
15:42:48.464060,18
15:42:48.464060,3584
15:42:48.464060,0
15:42:48.464060,18
15:42:48.464060,4096
15:42:48.464060,0
15:42:48.464060,16
15:42:48.464060,5376
15:42:48.464060,0
15:42:48.464060,16
15:42:48.464060,1792
15:42:48.464060,0
15:42:48.464060,2
15:42:48.464060,1024
15:42:48.464060,0
15:42:48.464060,26
15:42:48.464060,13312
15:42:48.464060,0
15:42:48.464060,64
15:42:48.464060,14336
15:42:48.464060,0
15:42:48.464060,42
15:42:48.464060,7680
15:42:48.464060,0
15:42:48.464060,18
15:42:48.464060,3584
15:42:48.464060,0
15:42:48.464060,16
15:42:48.464060,4096
15:42:48.464060,0
15:42:48.464060,16
15:42:48.464060,3584
15:42:48.464060,0
15:42:48.464060,-2
15:42:48.464060,-22017
15:42:48.464060,-1
15:42:48.464060,-182
15:42:48.464060,-24577
15:42:48.464060,-1
15:42:48.464060,270
15:42:48.464060,1280
15:42:48.464060,3
15:42:48.464060,896
15:42:48.464060,-11008
15:42:48.464060,1
15:42:48.464060,120
15:42:49.006396,64
15:42:49.006396,-2816
15:42:49.006396,-1
15:42:49.006396,-78
15:42:49.006396,-14081
15:42:49.006396,-1
15:42:49.006396,-54
15:42:49.006396,-18433
15:42:49.006396,-1
15:42:49.006396,-61
15:42:49.006396,-12289
15:42:49.006396,-1
15:42:49.006396,-42
15:42:49.006396,-5633
15:42:49.006396,-1
15:42:49.006396,-9
15:42:49.006396,-3329
15:42:49.006396,-1
15:42:49.006396,-9
15:42:49.006396,767
15:42:49.006396,0
15:42:49.006396,4
15:42:49.006396,1792
15:42:49.006396,0
15:42:49.006396,16
15:42:49.006396,5888
15:42:49.006396,0
15:42:49.006396,33
15:42:49.006396,11520
15:42:49.006396,0
15:42:49.006396,52
15:42:49.006396,14336
15:42:49.006396,0
15:42:49.006396,59
15:42:49.006396,15616
15:42:49.006396,0
15:42:49.006396,56
15:42:49.006396,12032
15:42:49.006396,0
15:42:49.006396,33
15:42:49.006396,4096
15:42:49.006396,0
15:42:49.006396,2
15:42:49.006396,-3584
15:42:49.006396,-1
15:42:49.006396,-26
15:42:49.006396,-6913
15:42:49.006396,-1
15:42:49.006396,-28
15:42:49.006396,-5633
15:42:49.006396,-1
15:42:49.006396,-21
15:42:49.006396,-5633
15:42:49.006396,-1
15:42:49.006396,-18
15:42:49.006396,-2049
15:42:49.006396,-1
15:42:49.006396,-4
15:42:49.006396,-769
15:42:49.006396,-1
15:42:49.006396,-7
15:42:49.006396,-257
15:42:49.006396,-1
15:42:49.006396,2
15:42:49.006396,2304
15:42:49.006396,0
15:42:49.006396,14
15:42:49.006396,3584
15:42:49.006396,0
15:42:49.006396,16
15:42:49.006396,4096
15:42:49.006396,0
15:42:49.006396,26
15:42:49.006396,8960
15:42:49.006396,0
15:42:49.006396,37
15:42:49.006396,8960
15:42:49.006396,0
15:42:49.006396,35
15:42:49.006396,8448
15:42:49.006396,0
15:42:49.006396,30
15:42:49.006396,8960
15:42:49.006396,0
15:42:49.006396,37
15:42:49.006396,8448
15:42:49.006396,0
15:42:49.006396,28
15:42:49.006396,8448
15:42:49.006396,0
15:42:49.006396,37
15:42:49.006396,9472
15:42:49.006396,0
15:42:49.006396,37
15:42:49.006396,9472
15:42:49.006396,0
15:42:49.006396,35
15:42:49.006396,8960
15:42:49.006396,0
15:42:49.006396,37
15:42:49.006396,8448
15:42:49.006396,0
15:42:49.006396,30
15:42:49.006396,8448
15:42:49.006396,0
15:42:49.006396,30
15:42:49.006396,7168
15:42:49.006396,0
15:42:49.006396,33
15:42:49.632596,33
15:42:49.632596,7680
15:42:49.632596,0
15:42:49.632596,26
15:42:49.632596,5888
15:42:49.632596,0
15:42:49.632596,21
15:42:49.632596,4096
15:42:49.632596,0
15:42:49.632596,23
15:42:49.632596,13312
15:42:49.632596,0
15:42:49.632596,80
15:42:49.632596,23040
15:42:49.632596,0
15:42:49.632596,80
15:42:49.632596,15616
15:42:49.632596,0
15:42:49.632596,47
15:42:49.632596,8960
15:42:49.632596,0
15:42:49.632596,23
15:42:49.632596,5888
15:42:49.632596,0
15:42:49.632596,23
15:42:49.632596,5888
15:42:49.632596,0
15:42:49.632596,23
15:42:49.632596,-1024
15:42:49.632596,-1
15:42:49.632596,-102
15:42:49.632596,20479
15:42:49.632596,-1
15:42:49.632596,-47
15:42:49.632596,29439
15:42:49.632596,1
15:42:49.632596,868
15:42:49.632596,32256
15:42:49.632596,3
15:42:49.632596,422
15:42:49.632596,27136
15:42:49.632596,0
15:42:49.632596,56
15:42:49.632596,-7168
15:42:49.632596,-1
15:42:49.632596,-80
15:42:49.632596,-14081
15:42:49.632596,-1
15:42:49.632596,-59
15:42:49.632596,-18945
15:42:49.632596,-1
15:42:49.632596,-61
15:42:49.632596,-12289
15:42:49.632596,-1
15:42:49.632596,-52
15:42:49.632596,-11777
15:42:49.632596,-1
15:42:49.632596,-47
15:42:49.632596,-11777
15:42:49.632596,-1
15:42:49.632596,-40
15:42:49.632596,-7425
15:42:49.632596,-1
15:42:49.632596,-21
15:42:49.632596,-4353
15:42:49.632596,-1
15:42:49.632596,-16
15:42:49.632596,-1537
15:42:49.632596,-1
15:42:49.632596,2
15:42:49.632596,2304
15:42:49.632596,0
15:42:49.632596,18
15:42:49.632596,6656
15:42:49.632596,0
15:42:49.632596,26
15:42:49.632596,6656
15:42:49.632596,0
15:42:49.632596,28
15:42:49.632596,7168
15:42:49.632596,0
15:42:49.632596,21
15:42:49.632596,1792
15:42:49.632596,0
15:42:49.632596,-4
15:42:49.632596,-3329
15:42:49.632596,-1
15:42:49.632596,-21
15:42:49.632596,-5633
15:42:49.632596,-1
15:42:49.632596,-21
15:42:49.632596,-5633
15:42:49.632596,-1
15:42:49.632596,-21
15:42:49.632596,-3841
15:42:49.632596,-1
15:42:49.632596,-16
15:42:49.632596,-3329
15:42:49.632596,-1
15:42:49.632596,-11
15:42:49.632596,-2049
15:42:49.632596,-1
15:42:49.632596,-7
15:42:49.632596,-257
15:42:49.632596,-1
15:42:49.632596,4
15:42:49.632596,1024
15:42:49.632596,0
15:42:49.632596,2
15:42:50.129149,7
15:42:50.129149,4096
15:42:50.129149,0
15:42:50.129149,16
15:42:50.129149,4608
15:42:50.129149,0
15:42:50.129149,21
15:42:50.129149,5376
15:42:50.129149,0
15:42:50.129149,23
15:42:50.129149,5888
15:42:50.129149,0
15:42:50.129149,26
15:42:50.129149,6656
15:42:50.129149,0
15:42:50.129149,30
15:42:50.129149,8448
15:42:50.129149,0
15:42:50.129149,33
15:42:50.129149,7680
15:42:50.129149,0
15:42:50.129149,30
15:42:50.129149,11520
15:42:50.129149,0
15:42:50.129149,56
15:42:50.129149,13312
15:42:50.129149,0
15:42:50.129149,45
15:42:50.129149,12032
15:42:50.129149,0
15:42:50.129149,47
15:42:50.129149,12032
15:42:50.129149,0
15:42:50.129149,47
15:42:50.129149,11520
15:42:50.129149,0
15:42:50.129149,42
15:42:50.129149,10752
15:42:50.129149,0
15:42:50.129149,40
15:42:50.129149,9472
15:42:50.129149,0
15:42:50.129149,40
15:42:50.129149,10240
15:42:50.129149,0
15:42:50.129149,35
15:42:50.129149,8448
15:42:50.129149,0
15:42:50.129149,35
15:42:50.129149,10240
15:42:50.129149,0
15:42:50.129149,42
15:42:50.129149,10752
15:42:50.129149,0
15:42:50.129149,37
15:42:50.129149,8960
15:42:50.129149,0
15:42:50.129149,35
15:42:50.129149,8448
15:42:50.129149,0
15:42:50.129149,35
15:42:50.129149,15104
15:42:50.129149,0
15:42:50.129149,80
15:42:50.129149,19200
15:42:50.129149,0
15:42:50.129149,59
15:42:50.129149,12544
15:42:50.129149,0
15:42:50.129149,37
15:42:50.129149,5888
15:42:50.129149,0
15:42:50.129149,14
15:42:50.129149,4096
15:42:50.129149,0
15:42:50.129149,21
15:42:50.129149,4608
15:42:50.129149,0
15:42:50.129149,14
15:42:50.129149,-5376
15:42:50.129149,-1
15:42:50.129149,-123
15:42:50.129149,19199
15:42:50.129149,-1
15:42:50.129149,-18
15:42:50.129149,-25345
15:42:50.129149,1
15:42:50.129149,854
15:42:50.129149,7424
15:42:50.129149,3
15:42:50.129149,336
15:42:50.129149,23040
15:42:50.129149,0
15:42:50.129149,42
15:42:50.129149,-11520
15:42:50.129149,-1
15:42:50.129149,-80
15:42:50.129149,-14081
15:42:50.129149,-1
15:42:50.129149,-66
15:42:50.129149,-18433
15:42:50.129149,-1
15:42:50.129149,-56
15:42:50.129149,-13057
15:42:50.129149,-1
15:42:50.129149,-54
15:42:50.129149,-11777
15:42:50.129149,-1
15:42:50.129149,-42
15:42:50.668386,-37
15:42:50.668386,-6913
15:42:50.668386,-1
15:42:50.668386,-23
15:42:50.668386,-5633
15:42:50.668386,-1
15:42:50.668386,-16
15:42:50.668386,-769
15:42:50.668386,-1
15:42:50.668386,9
15:42:50.668386,7680
15:42:50.668386,0
15:42:50.668386,40
15:42:50.668386,10752
15:42:50.668386,0
15:42:50.668386,47
15:42:50.668386,12032
15:42:50.668386,0
15:42:50.668386,42
15:42:50.668386,10752
15:42:50.668386,0
15:42:50.668386,37
15:42:50.668386,7168
15:42:50.668386,0
15:42:50.668386,16
15:42:50.668386,1024
15:42:50.668386,0
15:42:50.668386,-4
15:42:50.668386,-3329
15:42:50.668386,-1
15:42:50.668386,-21
15:42:50.668386,-5121
15:42:50.668386,-1
15:42:50.668386,-18
15:42:50.668386,-5121
15:42:50.668386,-1
15:42:50.668386,-16
15:42:50.668386,-2561
15:42:50.668386,-1
15:42:50.668386,-4
15:42:50.668386,255
15:42:50.668386,0
15:42:50.668386,0
15:42:50.668386,512
15:42:50.668386,0
15:42:50.668386,7
15:42:50.668386,1792
15:42:50.668386,0
15:42:50.668386,9
15:42:50.668386,4096
15:42:50.668386,0
15:42:50.668386,21
15:42:50.668386,5376
15:42:50.668386,0
15:42:50.668386,26
15:42:50.668386,5888
15:42:50.668386,0
15:42:50.668386,18
15:42:50.668386,5376
15:42:50.668386,0
15:42:50.668386,21
15:42:50.668386,5376
15:42:50.668386,0
15:42:50.668386,23
15:42:50.668386,6656
15:42:50.668386,0
15:42:50.668386,23
15:42:50.668386,5376
15:42:50.668386,0
15:42:50.668386,23
15:42:50.668386,5376
15:42:50.668386,0
15:42:50.668386,18
15:42:50.668386,4608
15:42:50.668386,0
15:42:50.668386,18
15:42:50.668386,4096
15:42:50.668386,0
15:42:50.668386,14
15:42:50.668386,4096
15:42:50.668386,0
15:42:50.668386,16
15:42:50.668386,3584
15:42:50.668386,0
15:42:50.668386,14
15:42:50.668386,3584
15:42:50.668386,0
15:42:50.668386,14
15:42:50.668386,4096
15:42:50.668386,0
15:42:50.668386,16
15:42:50.668386,3584
15:42:50.668386,0
15:42:50.668386,14
15:42:50.668386,3584
15:42:50.668386,0
15:42:50.668386,11
15:42:50.668386,3584
15:42:50.668386,0
15:42:50.668386,16
15:42:50.668386,2304
15:42:50.668386,0
15:42:50.668386,7
15:42:50.668386,4608
15:42:50.668386,0
15:42:50.668386,40
15:42:50.668386,13824
15:42:50.668386,0
15:42:50.668386,49
15:42:51.342379,33
15:42:51.342379,5376
15:42:51.342379,0
15:42:51.342379,11
15:42:51.342379,1024
15:42:51.342379,0
15:42:51.342379,11
15:42:51.342379,6656
15:42:51.342379,0
15:42:51.342379,23
15:42:51.342379,4096
15:42:51.342379,0
15:42:51.342379,14
15:42:51.342379,-2816
15:42:51.342379,-1
15:42:51.342379,-118
15:42:51.342379,14335
15:42:51.342379,-1
15:42:51.342379,-56
15:42:51.342379,26879
15:42:51.342379,1
15:42:51.342379,794
15:42:51.342379,-3584
15:42:51.342379,2
15:42:51.342379,320
15:42:51.342379,23552
15:42:51.342379,0
15:42:51.342379,56
15:42:51.342379,-8960
15:42:51.342379,-1
15:42:51.342379,-66
15:42:51.342379,-9217
15:42:51.342379,-1
15:42:51.342379,-54
15:42:51.342379,-16129
15:42:51.342379,-1
15:42:51.342379,-47
15:42:51.342379,-10497
15:42:51.342379,-1
15:42:51.342379,-42
15:42:51.342379,-9217
15:42:51.342379,-1
15:42:51.342379,-33
15:42:51.342379,-7425
15:42:51.342379,-1
15:42:51.342379,-30
15:42:51.342379,-6913
15:42:51.342379,-1
15:42:51.342379,-14
15:42:51.342379,-257
15:42:51.342379,-1
15:42:51.342379,2
15:42:51.342379,2816
15:42:51.342379,0
15:42:51.342379,21
15:42:51.342379,7168
15:42:51.342379,0
15:42:51.342379,37
15:42:51.342379,10752
15:42:51.342379,0
15:42:51.342379,40
15:42:51.342379,9472
15:42:51.342379,0
15:42:51.342379,37
15:42:51.342379,7680
15:42:51.342379,0
15:42:51.342379,21
15:42:51.342379,512
15:42:51.342379,0
15:42:51.342379,-21
15:42:51.342379,-8193
15:42:51.342379,-1
15:42:51.342379,-42
15:42:51.342379,-14081
15:42:51.342379,-1
15:42:51.342379,-56
15:42:51.342379,-11777
15:42:51.342379,-1
15:42:51.342379,-45
15:42:51.342379,-11265
15:42:51.342379,-1
15:42:51.342379,-42
15:42:51.342379,-9217
15:42:51.342379,-1
15:42:51.342379,-33
15:42:51.342379,-6913
15:42:51.342379,-1
15:42:51.342379,-26
15:42:51.342379,-5121
15:42:51.342379,-1
15:42:51.342379,-16
15:42:51.342379,-2561
15:42:51.342379,-1
15:42:51.342379,-7
15:42:51.342379,-769
15:42:51.342379,-1
15:42:51.342379,-2
15:42:51.342379,767
15:42:51.342379,0
15:42:51.342379,2
15:42:51.342379,1024
15:42:51.342379,0
15:42:51.342379,11
15:42:51.342379,2816
15:42:51.342379,0
15:42:51.342379,7
15:42:51.342379,1792
15:42:51.342379,0
15:42:51.342379,7
15:42:51.838617,4
15:42:51.838617,1792
15:42:51.838617,0
15:42:51.838617,9
15:42:51.838617,2816
15:42:51.838617,0
15:42:51.838617,9
15:42:51.838617,1024
15:42:51.838617,0
15:42:51.838617,9
15:42:51.838617,3584
15:42:51.838617,0
15:42:51.838617,11
15:42:51.838617,2816
15:42:51.838617,0
15:42:51.838617,11
15:42:51.838617,1792
15:42:51.838617,0
15:42:51.838617,0
15:42:51.838617,512
15:42:51.838617,0
15:42:51.838617,21
15:42:51.838617,12544
15:42:51.838617,0
15:42:51.838617,71
15:42:51.838617,17408
15:42:51.838617,0
15:42:51.838617,56
15:42:51.838617,15104
15:42:51.838617,0
15:42:51.838617,56
15:42:51.838617,10240
15:42:51.838617,0
15:42:51.838617,37
15:42:51.838617,11520
15:42:51.838617,0
15:42:51.838617,45
15:42:51.838617,10752
15:42:51.838617,0
15:42:51.838617,28
15:42:51.838617,-13312
15:42:51.838617,-1
15:42:51.838617,-168
15:42:51.838617,-31745
15:42:51.838617,-1
15:42:51.838617,206
15:42:51.838617,-12032
15:42:51.838617,2
15:42:51.838617,934
15:42:51.838617,12800
15:42:51.838617,2
15:42:51.838617,173
15:42:51.838617,25344
15:42:51.838617,0
15:42:51.838617,30
15:42:51.838617,-14336
15:42:51.838617,-1
15:42:51.838617,-42
15:42:51.838617,-7425
15:42:51.838617,-1
15:42:51.838617,-54
15:42:51.838617,-12289
15:42:51.838617,-1
15:42:51.838617,-30
15:42:51.838617,-7425
15:42:51.838617,-1
15:42:51.838617,-30
15:42:51.838617,-5121
15:42:51.838617,-1
15:42:51.838617,-16
15:42:51.838617,-2561
15:42:51.838617,-1
15:42:51.838617,-2
15:42:51.838617,767
15:42:51.838617,0
15:42:51.838617,7
15:42:51.838617,3584
15:42:51.838617,0
15:42:51.838617,23
15:42:51.838617,8448
15:42:51.838617,0
15:42:51.838617,45
15:42:51.838617,13824
15:42:51.838617,0
15:42:51.838617,56
15:42:51.838617,15104
15:42:51.838617,0
15:42:51.838617,61
15:42:51.838617,15616
15:42:51.838617,0
15:42:51.838617,54
15:42:51.838617,10240
15:42:51.838617,0
15:42:51.838617,18
15:42:51.838617,0
15:42:51.838617,0
15:42:51.838617,-16
15:42:51.838617,-6401
15:42:51.838617,-1
15:42:51.838617,-28
15:42:51.838617,-6913
15:42:51.838617,-1
15:42:51.838617,-28
15:42:51.838617,-5633
15:42:51.838617,-1
15:42:51.838617,-21
15:42:51.838617,-5121
15:42:51.838617,-1
15:42:51.838617,-18
15:42:52.377071,-14
15:42:52.377071,-2049
15:42:52.377071,-1
15:42:52.377071,-4
15:42:52.377071,255
15:42:52.377071,0
15:42:52.377071,4
15:42:52.377071,2816
15:42:52.377071,0
15:42:52.377071,18
15:42:52.377071,5888
15:42:52.377071,0
15:42:52.377071,23
15:42:52.377071,7680
15:42:52.377071,0
15:42:52.377071,47
15:42:52.377071,13824
15:42:52.377071,0
15:42:52.377071,52
15:42:52.377071,12544
15:42:52.377071,0
15:42:52.377071,49
15:42:52.377071,13312
15:42:52.377071,0
15:42:52.377071,52
15:42:52.377071,12544
15:42:52.377071,0
15:42:52.377071,47
15:42:52.377071,12032
15:42:52.377071,0
15:42:52.377071,45
15:42:52.377071,12032
15:42:52.377071,0
15:42:52.377071,47
15:42:52.377071,10752
15:42:52.377071,0
15:42:52.377071,40
15:42:52.377071,11520
15:42:52.377071,0
15:42:52.377071,42
15:42:52.377071,10240
15:42:52.377071,0
15:42:52.377071,42
15:42:52.377071,10240
15:42:52.377071,0
15:42:52.377071,37
15:42:52.377071,9472
15:42:52.377071,0
15:42:52.377071,37
15:42:52.377071,9472
15:42:52.377071,0
15:42:52.377071,37
15:42:52.377071,8448
15:42:52.377071,0
15:42:52.377071,28
15:42:52.377071,5888
15:42:52.377071,0
15:42:52.377071,23
15:42:52.377071,12032
15:42:52.377071,0
15:42:52.377071,80
15:42:52.377071,21760
15:42:52.377071,0
15:42:52.377071,66
15:42:52.377071,12544
15:42:52.377071,0
15:42:52.377071,40
15:42:52.377071,7168
15:42:52.377071,0
15:42:52.377071,21
15:42:52.377071,5376
15:42:52.377071,0
15:42:52.377071,23
15:42:52.377071,5376
15:42:52.377071,0
15:42:52.377071,18
15:42:52.377071,-1024
15:42:52.377071,-1
15:42:52.377071,-99
15:42:52.377071,19711
15:42:52.377071,-1
15:42:52.377071,-59
15:42:52.377071,24575
15:42:52.377071,1
15:42:52.377071,872
15:42:52.377071,-19968
15:42:52.377071,3
15:42:52.377071,464
15:42:52.377071,27904
15:42:52.377071,0
15:42:52.377071,49
15:42:52.377071,-7168
15:42:52.377071,-1
15:42:52.377071,-87
15:42:52.377071,-16641
15:42:52.377071,-1
15:42:52.377071,-64
15:42:52.377071,-19713
15:42:52.377071,-1
15:42:52.377071,-66
15:42:52.377071,-13569
15:42:52.377071,-1
15:42:52.377071,-54
15:42:52.377071,-12289
15:42:52.377071,-1
15:42:52.377071,-42
15:42:52.377071,-9217
15:42:52.377071,-1
15:42:52.377071,-28
15:42:52.962525,-21
15:42:52.962525,-4353
15:42:52.962525,-1
15:42:52.962525,-14
15:42:52.962525,-1537
15:42:52.962525,-1
15:42:52.962525,0
15:42:52.962525,1024
15:42:52.962525,0
15:42:52.962525,16
15:42:52.962525,8960
15:42:52.962525,0
15:42:52.962525,54
15:42:52.962525,14336
15:42:52.962525,0
15:42:52.962525,47
15:42:52.962525,12544
15:42:52.962525,0
15:42:52.962525,52
15:42:52.962525,10752
15:42:52.962525,0
15:42:52.962525,30
15:42:52.962525,5376
15:42:52.962525,0
15:42:52.962525,9
15:42:52.962525,512
15:42:52.962525,0
15:42:52.962525,-2
15:42:52.962525,-257
15:42:52.962525,-1
15:42:52.962525,0
15:42:52.962525,512
15:42:52.962525,0
15:42:52.962525,2
15:42:52.962525,1792
15:42:52.962525,0
15:42:52.962525,11
15:42:52.962525,4096
15:42:52.962525,0
15:42:52.962525,18
15:42:52.962525,4608
15:42:52.962525,0
15:42:52.962525,18
15:42:52.962525,6656
15:42:52.962525,0
15:42:52.962525,33
15:42:52.962525,8960
15:42:52.962525,0
15:42:52.962525,35
15:42:52.962525,10240
15:42:52.962525,0
15:42:52.962525,37
15:42:52.962525,8960
15:42:52.962525,0
15:42:52.962525,40
15:42:52.962525,11520
15:42:52.962525,0
15:42:52.962525,42
15:42:52.962525,9472
15:42:52.962525,0
15:42:52.962525,42
15:42:52.962525,11520
15:42:52.962525,0
15:42:52.962525,45
15:42:52.962525,10752
15:42:52.962525,0
15:42:52.962525,40
15:42:52.962525,10240
15:42:52.962525,0
15:42:52.962525,42
15:42:52.962525,10752
15:42:52.962525,0
15:42:52.962525,42
15:42:52.962525,11520
15:42:52.962525,0
15:42:52.962525,45
15:42:52.962525,10240
15:42:52.962525,0
15:42:52.962525,40
15:42:52.962525,10752
15:42:52.962525,0
15:42:52.962525,45
15:42:52.962525,10752
15:42:52.962525,0
15:42:52.962525,37
15:42:52.962525,9472
15:42:52.962525,0
15:42:52.962525,40
15:42:52.962525,10240
15:42:52.962525,0
15:42:52.962525,40
15:42:52.962525,11520
15:42:52.962525,0
15:42:52.962525,47
15:42:52.962525,12032
15:42:52.962525,0
15:42:52.962525,45
15:42:52.962525,12544
15:42:52.962525,0
15:42:52.962525,54
15:42:52.962525,13824
15:42:52.962525,0
15:42:52.962525,49
15:42:52.962525,11520
15:42:52.962525,0
15:42:52.962525,40
15:42:52.962525,12032
15:42:52.962525,0
15:42:52.962525,73
15:42:53.502418,92
15:42:53.502418,21248
15:42:53.502418,0
15:42:53.502418,64
15:42:53.502418,13824
15:42:53.502418,0
15:42:53.502418,42
15:42:53.502418,7680
15:42:53.502418,0
15:42:53.502418,26
15:42:53.502418,6656
15:42:53.502418,0
15:42:53.502418,26
15:42:53.502418,7168
15:42:53.502418,0
15:42:53.502418,35
15:42:53.502418,4096
15:42:53.502418,0
15:42:53.502418,-80
15:42:53.502418,27647
15:42:53.502418,-1
15:42:53.502418,-7
15:42:53.502418,-27137
15:42:53.502418,1
15:42:53.502418,868
15:42:53.502418,24320
15:42:53.502418,3
15:42:53.502418,405
15:42:53.502418,31488
15:42:53.502418,0
15:42:53.502418,71
15:42:53.502418,-3584
15:42:53.502418,-1
15:42:53.502418,-56
15:42:53.502418,-7425
15:42:53.502418,-1
15:42:53.502418,-35
15:42:53.502418,-12289
15:42:53.502418,-1
15:42:53.502418,-42
15:42:53.502418,-8705
15:42:53.502418,-1
15:42:53.502418,-37
15:42:53.502418,-6913
15:42:53.502418,-1
15:42:53.502418,-18
15:42:53.502418,-5121
15:42:53.502418,-1
15:42:53.502418,-23
15:42:53.502418,-3841
15:42:53.502418,-1
15:42:53.502418,-11
15:42:53.502418,-2561
15:42:53.502418,-1
15:42:53.502418,-9
15:42:53.502418,-257
15:42:53.502418,-1
15:42:53.502418,0
15:42:53.502418,2304
15:42:53.502418,0
15:42:53.502418,21
15:42:53.502418,6656
15:42:53.502418,0
15:42:53.502418,21
15:42:53.502418,4608
15:42:53.502418,0
15:42:53.502418,21
15:42:53.502418,4096
15:42:53.502418,0
15:42:53.502418,7
15:42:53.502418,0
15:42:53.502418,0
15:42:53.502418,-11
15:42:53.502418,-6401
15:42:53.502418,-1
15:42:53.502418,-30
15:42:53.502418,-8705
15:42:53.502418,-1
15:42:53.502418,-33
15:42:53.502418,-5633
15:42:53.502418,-1
15:42:53.502418,-23
15:42:53.502418,-6913
15:42:53.502418,-1
15:42:53.502418,-26
15:42:53.502418,-4353
15:42:53.502418,-1
15:42:53.502418,-11
15:42:53.502418,-769
15:42:53.502418,-1
15:42:53.502418,-2
15:42:53.502418,-257
15:42:53.502418,-1
15:42:53.502418,4
15:42:53.502418,1792
15:42:53.502418,0
15:42:53.502418,9
15:42:53.502418,2304
15:42:53.502418,0
15:42:53.502418,9
15:42:53.502418,1792
15:42:53.502418,0
15:42:53.502418,7
15:42:53.502418,1792
15:42:53.502418,0
15:42:53.502418,9
15:42:53.502418,2816
15:42:53.502418,0
15:42:53.502418,9
15:42:54.042238,7
15:42:54.042238,2816
15:42:54.042238,0
15:42:54.042238,9
15:42:54.042238,1792
15:42:54.042238,0
15:42:54.042238,4
15:42:54.042238,1024
15:42:54.042238,0
15:42:54.042238,7
15:42:54.042238,4096
15:42:54.042238,0
15:42:54.042238,26
15:42:54.042238,6656
15:42:54.042238,0
15:42:54.042238,21
15:42:54.042238,5888
15:42:54.042238,0
15:42:54.042238,30
15:42:54.042238,6656
15:42:54.042238,0
15:42:54.042238,23
15:42:54.042238,6656
15:42:54.042238,0
15:42:54.042238,23
15:42:54.042238,4608
15:42:54.042238,0
15:42:54.042238,21
15:42:54.042238,5888
15:42:54.042238,0
15:42:54.042238,18
15:42:54.042238,3584
15:42:54.042238,0
15:42:54.042238,14
15:42:54.042238,2816
15:42:54.042238,0
15:42:54.042238,9
15:42:54.042238,3584
15:42:54.042238,0
15:42:54.042238,28
15:42:54.042238,12544
15:42:54.042238,0
15:42:54.042238,56
15:42:54.042238,11520
15:42:54.042238,0
15:42:54.042238,30
15:42:54.042238,5888
15:42:54.042238,0
15:42:54.042238,11
15:42:54.042238,-512
15:42:54.042238,-1
15:42:54.042238,0
15:42:54.042238,1024
15:42:54.042238,0
15:42:54.042238,2
15:42:54.042238,512
15:42:54.042238,0
15:42:54.042238,-2
15:42:54.042238,-15361
15:42:54.042238,-1
15:42:54.042238,-180
15:42:54.042238,16127
15:42:54.042238,-1
15:42:54.042238,64
15:42:54.042238,9728
15:42:54.042238,2
15:42:54.042238,839
15:42:54.042238,10240
15:42:54.042238,2
15:42:54.042238,147
15:42:54.042238,18688
15:42:54.042238,0
15:42:54.042238,33
15:42:54.042238,-17408
15:42:54.042238,-1
15:42:54.042238,-64
15:42:54.042238,-9985
15:42:54.042238,-1
15:42:54.042238,-61
15:42:54.042238,-15361
15:42:54.042238,-1
15:42:54.042238,-42
15:42:54.042238,-9985
15:42:54.042238,-1
15:42:54.042238,-40
15:42:54.042238,-6913
15:42:54.042238,-1
15:42:54.042238,-18
15:42:54.042238,-3841
15:42:54.042238,-1
15:42:54.042238,-11
15:42:54.042238,-257
15:42:54.042238,-1
15:42:54.042238,4
15:42:54.042238,3584
15:42:54.042238,0
15:42:54.042238,23
15:42:54.042238,7680
15:42:54.042238,0
15:42:54.042238,42
15:42:54.042238,14336
15:42:54.042238,0
15:42:54.042238,64
15:42:54.042238,17408
15:42:54.042238,0
15:42:54.042238,71
15:42:54.042238,18176
15:42:54.042238,0
15:42:54.042238,68
15:42:54.627143,56
15:42:54.627143,8448
15:42:54.627143,0
15:42:54.627143,14
15:42:54.627143,-512
15:42:54.627143,-1
15:42:54.627143,-16
15:42:54.627143,-3841
15:42:54.627143,-1
15:42:54.627143,-9
15:42:54.627143,-2561
15:42:54.627143,-1
15:42:54.627143,-14
15:42:54.627143,-1537
15:42:54.627143,-1
15:42:54.627143,-2
15:42:54.627143,255
15:42:54.627143,0
15:42:54.627143,2
15:42:54.627143,512
15:42:54.627143,0
15:42:54.627143,2
15:42:54.627143,2304
15:42:54.627143,0
15:42:54.627143,16
15:42:54.627143,5376
15:42:54.627143,0
15:42:54.627143,23
15:42:54.627143,6656
15:42:54.627143,0
15:42:54.627143,28
15:42:54.627143,7680
15:42:54.627143,0
15:42:54.627143,35
15:42:54.627143,9472
15:42:54.627143,0
15:42:54.627143,33
15:42:54.627143,6656
15:42:54.627143,0
15:42:54.627143,28
15:42:54.627143,9472
15:42:54.627143,0
15:42:54.627143,42
15:42:54.627143,8960
15:42:54.627143,0
15:42:54.627143,33
15:42:54.627143,7680
15:42:54.627143,0
15:42:54.627143,30
15:42:54.627143,7680
15:42:54.627143,0
15:42:54.627143,26
15:42:54.627143,4608
15:42:54.627143,0
15:42:54.627143,21
15:42:54.627143,6656
15:42:54.627143,0
15:42:54.627143,21
15:42:54.627143,5376
15:42:54.627143,0
15:42:54.627143,26
15:42:54.627143,6656
15:42:54.627143,0
15:42:54.627143,28
15:42:54.627143,8960
15:42:54.627143,0
15:42:54.627143,35
15:42:54.627143,7680
15:42:54.627143,0
15:42:54.627143,28
15:42:54.627143,7680
15:42:54.627143,0
15:42:54.627143,23
15:42:54.627143,2816
15:42:54.627143,0
15:42:54.627143,7
15:42:54.627143,5376
15:42:54.627143,0
15:42:54.627143,56
15:42:54.627143,19968
15:42:54.627143,0
15:42:54.627143,64
15:42:54.627143,9472
15:42:54.627143,0
15:42:54.627143,26
15:42:54.627143,4608
15:42:54.627143,0
15:42:54.627143,4
15:42:54.627143,3584
15:42:54.627143,0
15:42:54.627143,26
15:42:54.627143,2816
15:42:54.627143,0
15:42:54.627143,0
15:42:54.627143,-512
15:42:54.627143,-1
15:42:54.627143,-49
15:42:54.627143,27647
15:42:54.627143,-1
15:42:54.627143,-149
15:42:54.627143,20735
15:42:54.627143,0
15:42:54.627143,550
15:42:54.627143,-27904
15:42:54.627143,3
15:42:54.627143,697
15:42:54.627143,-5632
15:42:54.627143,0
15:42:54.627143,75
15:42:55.212353,33
15:42:55.212353,-15616
15:42:55.212353,-1
15:42:55.212353,-75
15:42:55.212353,-13569
15:42:55.212353,-1
15:42:55.212353,-71
15:42:55.212353,-16641
15:42:55.212353,-1
15:42:55.212353,-40
15:42:55.212353,-8705
15:42:55.212353,-1
15:42:55.212353,-30
15:42:55.212353,-3329
15:42:55.212353,-1
15:42:55.212353,-9
15:42:55.212353,-769
15:42:55.212353,-1
15:42:55.212353,2
15:42:55.212353,0
15:42:55.212353,0
15:42:55.212353,0
15:42:55.212353,2816
15:42:55.212353,0
15:42:55.212353,16
15:42:55.212353,6656
15:42:55.212353,0
15:42:55.212353,37
15:42:55.212353,11520
15:42:55.212353,0
15:42:55.212353,54
15:42:55.212353,15104
15:42:55.212353,0
15:42:55.212353,52
15:42:55.212353,13824
15:42:55.212353,0
15:42:55.212353,56
15:42:55.212353,11520
15:42:55.212353,0
15:42:55.212353,30
15:42:55.212353,7168
15:42:55.212353,0
15:42:55.212353,16
15:42:55.212353,-512
15:42:55.212353,-1
15:42:55.212353,-7
15:42:55.212353,-2049
15:42:55.212353,-1
15:42:55.212353,-14
15:42:55.212353,-1537
15:42:55.212353,-1
15:42:55.212353,4
15:42:55.212353,1024
15:42:55.212353,0
15:42:55.212353,11
15:42:55.212353,5376
15:42:55.212353,0
15:42:55.212353,18
15:42:55.212353,4096
15:42:55.212353,0
15:42:55.212353,14
15:42:55.212353,4608
15:42:55.212353,0
15:42:55.212353,30
15:42:55.212353,7168
15:42:55.212353,0
15:42:55.212353,21
15:42:55.212353,6656
15:42:55.212353,0
15:42:55.212353,37
15:42:55.212353,8960
15:42:55.212353,0
15:42:55.212353,23
15:42:55.212353,7680
15:42:55.212353,0
15:42:55.212353,42
15:42:55.212353,8448
15:42:55.212353,0
15:42:55.212353,23
15:42:55.212353,7168
15:42:55.212353,0
15:42:55.212353,30
15:42:55.212353,4608
15:42:55.212353,0
15:42:55.212353,21
15:42:55.212353,8960
15:42:55.212353,0
15:42:55.212353,35
15:42:55.212353,5376
15:42:55.212353,0
15:42:55.212353,23
15:42:55.212353,8960
15:42:55.212353,0
15:42:55.212353,33
15:42:55.212353,5376
15:42:55.212353,0
15:42:55.212353,23
15:42:55.212353,5888
15:42:55.212353,0
15:42:55.212353,16
15:42:55.212353,3584
15:42:55.212353,0
15:42:55.212353,23
15:42:55.212353,7680
15:42:55.212353,0
15:42:55.212353,26
15:42:55.212353,3584
15:42:55.212353,0
15:42:55.212353,18
15:42:55.753247,33
15:42:55.753247,5888
15:42:55.753247,0
15:42:55.753247,18
15:42:55.753247,7168
15:42:55.753247,0
15:42:55.753247,23
15:42:55.753247,4096
15:42:55.753247,0
15:42:55.753247,33
15:42:55.753247,14336
15:42:55.753247,0
15:42:55.753247,68
15:42:55.753247,18688
15:42:55.753247,0
15:42:55.753247,52
15:42:55.753247,9472
15:42:55.753247,0
15:42:55.753247,49
15:42:55.753247,10752
15:42:55.753247,0
15:42:55.753247,23
15:42:55.753247,7168
15:42:55.753247,0
15:42:55.753247,33
15:42:55.753247,7168
15:42:55.753247,0
15:42:55.753247,28
15:42:55.753247,0
15:42:55.753247,0
15:42:55.753247,-94
15:42:55.753247,23295
15:42:55.753247,-1
15:42:55.753247,-45
15:42:55.753247,21503
15:42:55.753247,1
15:42:55.753247,782
15:42:55.753247,7936
15:42:55.753247,3
15:42:55.753247,381
15:42:55.753247,30720
15:42:55.753247,0
15:42:55.753247,71
15:42:55.753247,-3584
15:42:55.753247,-1
15:42:55.753247,-54
15:42:55.753247,-7425
15:42:55.753247,-1
15:42:55.753247,-45
15:42:55.753247,-15361
15:42:55.753247,-1
15:42:55.753247,-47
15:42:55.753247,-11777
15:42:55.753247,-1
15:42:55.753247,-49
15:42:55.753247,-7425
15:42:55.753247,-1
15:42:55.753247,-21
15:42:55.753247,-5633
15:42:55.753247,-1
15:42:55.753247,-18
15:42:55.753247,-3841
15:42:55.753247,-1
15:42:55.753247,-16
15:42:55.753247,-2561
15:42:55.753247,-1
15:42:55.753247,0
15:42:55.753247,2816
15:42:55.753247,0
15:42:55.753247,21
15:42:55.753247,8448
15:42:55.753247,0
15:42:55.753247,45
15:42:55.753247,12544
15:42:55.753247,0
15:42:55.753247,54
15:42:55.753247,13312
15:42:55.753247,0
15:42:55.753247,49
15:42:55.753247,13312
15:42:55.753247,0
15:42:55.753247,40
15:42:55.753247,4096
15:42:55.753247,0
15:42:55.753247,7
15:42:55.753247,-512
15:42:55.753247,-1
15:42:55.753247,-18
15:42:55.753247,-5121
15:42:55.753247,-1
15:42:55.753247,-18
15:42:55.753247,-5633
15:42:55.753247,-1
15:42:55.753247,-23
15:42:55.753247,-3329
15:42:55.753247,-1
15:42:55.753247,-11
15:42:55.753247,-3329
15:42:55.753247,-1
15:42:55.753247,-11
15:42:55.753247,-769
15:42:55.753247,-1
15:42:55.753247,-4
15:42:55.753247,-769
15:42:55.753247,-1
15:42:55.753247,0
15:42:55.753247,1024
15:42:55.753247,0
15:42:55.753247,7
15:42:56.292420,9
15:42:56.292420,2304
15:42:56.292420,0
15:42:56.292420,0
15:42:56.292420,1024
15:42:56.292420,0
15:42:56.292420,28
15:42:56.292420,7680
15:42:56.292420,0
15:42:56.292420,18
15:42:56.292420,3584
15:42:56.292420,0
15:42:56.292420,26
15:42:56.292420,13312
15:42:56.292420,0
15:42:56.292420,54
15:42:56.292420,10240
15:42:56.292420,0
15:42:56.292420,45
15:42:56.292420,13312
15:42:56.292420,0
15:42:56.292420,45
15:42:56.292420,10752
15:42:56.292420,0
15:42:56.292420,37
15:42:56.292420,7168
15:42:56.292420,0
15:42:56.292420,30
15:42:56.292420,10752
15:42:56.292420,0
15:42:56.292420,40
15:42:56.292420,7680
15:42:56.292420,0
15:42:56.292420,35
15:42:56.292420,11520
15:42:56.292420,0
15:42:56.292420,42
15:42:56.292420,10240
15:42:56.292420,0
15:42:56.292420,42
15:42:56.292420,9472
15:42:56.292420,0
15:42:56.292420,35
15:42:56.292420,9472
15:42:56.292420,0
15:42:56.292420,37
15:42:56.292420,9472
15:42:56.292420,0
15:42:56.292420,47
15:42:56.292420,16896
15:42:56.292420,0
15:42:56.292420,85
15:42:56.292420,20480
15:42:56.292420,0
15:42:56.292420,66
15:42:56.292420,13312
15:42:56.292420,0
15:42:56.292420,37
15:42:56.292420,5888
15:42:56.292420,0
15:42:56.292420,23
15:42:56.292420,7680
15:42:56.292420,0
15:42:56.292420,30
15:42:56.292420,6656
15:42:56.292420,0
15:42:56.292420,18
15:42:56.292420,-512
15:42:56.292420,-1
15:42:56.292420,-73
15:42:56.292420,26367
15:42:56.292420,-1
15:42:56.292420,-71
15:42:56.292420,3839
15:42:56.292420,1
15:42:56.292420,721
15:42:56.292420,11520
15:42:56.292420,3
15:42:56.292420,438
15:42:56.292420,-27904
15:42:56.292420,0
15:42:56.292420,78
15:42:56.292420,-2816
15:42:56.292420,-1
15:42:56.292420,-64
15:42:56.292420,-11777
15:42:56.292420,-1
15:42:56.292420,-54
15:42:56.292420,-16641
15:42:56.292420,-1
15:42:56.292420,-45
15:42:56.292420,-8705
15:42:56.292420,-1
15:42:56.292420,-40
15:42:56.292420,-10497
15:42:56.292420,-1
15:42:56.292420,-37
15:42:56.292420,-6913
15:42:56.292420,-1
15:42:56.292420,-18
15:42:56.292420,-3841
15:42:56.292420,-1
15:42:56.292420,-7
15:42:56.292420,255
15:42:56.292420,0
15:42:56.292420,4
15:42:56.292420,2816
15:42:56.292420,0
15:42:56.292420,28
15:42:56.876767,37
15:42:56.876767,10240
15:42:56.876767,0
15:42:56.876767,42
15:42:56.876767,12032
15:42:56.876767,0
15:42:56.876767,47
15:42:56.876767,13312
15:42:56.876767,0
15:42:56.876767,61
15:42:56.876767,16896
15:42:56.876767,0
15:42:56.876767,56
15:42:56.876767,8448
15:42:56.876767,0
15:42:56.876767,11
15:42:56.876767,0
15:42:56.876767,0
15:42:56.876767,-4
15:42:56.876767,-769
15:42:56.876767,-1
15:42:56.876767,-7
15:42:56.876767,255
15:42:56.876767,0
15:42:56.876767,11
15:42:56.876767,4096
15:42:56.876767,0
15:42:56.876767,16
15:42:56.876767,5376
15:42:56.876767,0
15:42:56.876767,23
15:42:56.876767,5376
15:42:56.876767,0
15:42:56.876767,23
15:42:56.876767,7168
15:42:56.876767,0
15:42:56.876767,30
15:42:56.876767,5888
15:42:56.876767,0
15:42:56.876767,16
15:42:56.876767,4608
15:42:56.876767,0
15:42:56.876767,35
15:42:56.876767,9472
15:42:56.876767,0
15:42:56.876767,23
15:42:56.876767,5888
15:42:56.876767,0
15:42:56.876767,30
15:42:56.876767,7168
15:42:56.876767,0
15:42:56.876767,26
15:42:56.876767,8448
15:42:56.876767,0
15:42:56.876767,30
15:42:56.876767,4608
15:42:56.876767,0
15:42:56.876767,14
15:42:56.876767,4608
15:42:56.876767,0
15:42:56.876767,21
15:42:56.876767,4096
15:42:56.876767,0
15:42:56.876767,16
15:42:56.876767,4096
15:42:56.876767,0
15:42:56.876767,11
15:42:56.876767,2304
15:42:56.876767,0
15:42:56.876767,11
15:42:56.876767,2816
15:42:56.876767,0
15:42:56.876767,16
15:42:56.876767,2816
15:42:56.876767,0
15:42:56.876767,2
15:42:56.876767,512
15:42:56.876767,0
15:42:56.876767,7
15:42:56.876767,2304
15:42:56.876767,0
15:42:56.876767,21
15:42:56.876767,12032
15:42:56.876767,0
15:42:56.876767,61
15:42:56.876767,12544
15:42:56.876767,0
15:42:56.876767,30
15:42:56.876767,5376
15:42:56.876767,0
15:42:56.876767,11
15:42:56.876767,-1024
15:42:56.876767,-1
15:42:56.876767,-4
15:42:56.876767,1279
15:42:56.876767,0
15:42:56.876767,7
15:42:56.876767,1024
15:42:56.876767,0
15:42:56.876767,-2
15:42:56.876767,-13057
15:42:56.876767,-1
15:42:56.876767,-163
15:42:56.876767,17407
15:42:56.876767,-1
15:42:56.876767,45
15:42:56.876767,-1792
15:42:56.876767,1
15:42:56.876767,820
15:42:57.461461,604
15:42:57.461461,-17152
15:42:57.461461,0
15:42:57.461461,64
15:42:57.461461,6656
15:42:57.461461,0
15:42:57.461461,-71
15:42:57.461461,-21505
15:42:57.461461,-1
15:42:57.461461,-64
15:42:57.461461,-18433
15:42:57.461461,-1
15:42:57.461461,-71
15:42:57.461461,-9985
15:42:57.461461,-1
15:42:57.461461,-26
15:42:57.461461,-8705
15:42:57.461461,-1
15:42:57.461461,-35
15:42:57.461461,-5633
15:42:57.461461,-1
15:42:57.461461,-18
15:42:57.461461,-2561
15:42:57.461461,-1
15:42:57.461461,-4
15:42:57.461461,-257
15:42:57.461461,-1
15:42:57.461461,4
15:42:57.461461,3584
15:42:57.461461,0
15:42:57.461461,18
15:42:57.461461,7168
15:42:57.461461,0
15:42:57.461461,49
15:42:57.461461,14336
15:42:57.461461,0
15:42:57.461461,52
15:42:57.461461,13824
15:42:57.461461,0
15:42:57.461461,56
15:42:57.461461,13312
15:42:57.461461,0
15:42:57.461461,45
15:42:57.461461,6656
15:42:57.461461,0
15:42:57.461461,0
15:42:57.461461,-2304
15:42:57.461461,-1
15:42:57.461461,-18
15:42:57.461461,-8193
15:42:57.461461,-1
15:42:57.461461,-40
15:42:57.461461,-9217
15:42:57.461461,-1
15:42:57.461461,-37
15:42:57.461461,-10497
15:42:57.461461,-1
15:42:57.461461,-40
15:42:57.461461,-6913
15:42:57.461461,-1
15:42:57.461461,-23
15:42:57.461461,-7425
15:42:57.461461,-1
15:42:57.461461,-28
15:42:57.461461,-4353
15:42:57.461461,-1
15:42:57.461461,-18
15:42:57.461461,-3329
15:42:57.461461,-1
15:42:57.461461,-4
15:42:57.461461,255
15:42:57.461461,0
15:42:57.461461,2
15:42:57.461461,2304
15:42:57.461461,0
15:42:57.461461,14
15:42:57.461461,3584
15:42:57.461461,0
15:42:57.461461,18
15:42:57.461461,5376
15:42:57.461461,0
15:42:57.461461,21
15:42:57.461461,6656
15:42:57.461461,0
15:42:57.461461,26
15:42:57.461461,7168
15:42:57.461461,0
15:42:57.461461,28
15:42:57.461461,5888
15:42:57.461461,0
15:42:57.461461,16
15:42:57.461461,2304
15:42:57.461461,0
15:42:57.461461,14
15:42:57.461461,10240
15:42:57.461461,0
15:42:57.461461,71
15:42:57.461461,19968
15:42:57.461461,0
15:42:57.461461,64
15:42:57.461461,11520
15:42:57.461461,0
15:42:57.461461,33
15:42:57.461461,6656
15:42:57.461461,0
15:42:57.461461,26
15:42:57.461461,7168
15:42:57.461461,0
15:42:57.461461,23
15:42:58.002327,23
15:42:58.002327,7168
15:42:58.002327,0
15:42:58.002327,0
15:42:58.002327,-24832
15:42:58.002327,-1
15:42:58.002327,-180
15:42:58.002327,-14081
15:42:58.002327,-1
15:42:58.002327,353
15:42:58.002327,16384
15:42:58.002327,3
15:42:58.002327,851
15:42:58.002327,-29696
15:42:58.002327,1
15:42:58.002327,125
15:42:58.002327,24064
15:42:58.002327,0
15:42:58.002327,11
15:42:58.002327,-6656
15:42:58.002327,-1
15:42:58.002327,2
15:42:58.002327,-1792
15:42:58.002327,-1
15:42:58.002327,-23
15:42:58.002327,-1537
15:42:58.002327,-1
15:42:58.002327,4
15:42:58.002327,512
15:42:58.002327,0
15:42:58.002327,2
15:42:58.002327,2304
15:42:58.002327,0
15:42:58.002327,16
15:42:58.002327,4096
15:42:58.002327,0
15:42:58.002327,23
15:42:58.002327,8448
15:42:58.002327,0
15:42:58.002327,37
15:42:58.002327,11520
15:42:58.002327,0
15:42:58.002327,54
15:42:58.002327,17408
15:42:58.002327,0
15:42:58.002327,78
15:42:58.002327,21760
15:42:58.002327,0
15:42:58.002327,92
15:42:58.002327,24832
15:42:58.002327,0
15:42:58.002327,94
15:42:58.002327,22272
15:42:58.002327,0
15:42:58.002327,78
15:42:58.002327,15104
15:42:58.002327,0
15:42:58.002327,40
15:42:58.002327,5376
15:42:58.002327,0
15:42:58.002327,0
15:42:58.002327,-2304
15:42:58.002327,-1
15:42:58.002327,-7
15:42:58.002327,-1537
15:42:58.002327,-1
15:42:58.002327,-7
15:42:58.002327,-257
15:42:58.002327,-1
15:42:58.002327,2
15:42:58.002327,1792
15:42:58.002327,0
15:42:58.002327,9
15:42:58.002327,2304
15:42:58.002327,0
15:42:58.002327,11
15:42:58.002327,3584
15:42:58.002327,0
15:42:58.002327,18
15:42:58.002327,5376
15:42:58.002327,0
15:42:58.002327,26
15:42:58.002327,6656
15:42:58.002327,0
15:42:58.002327,26
15:42:58.002327,7168
15:42:58.002327,0
15:42:58.002327,30
15:42:58.002327,8448
15:42:58.002327,0
15:42:58.002327,33
15:42:58.002327,8960
15:42:58.002327,0
15:42:58.002327,37
15:42:58.002327,9472
15:42:58.002327,0
15:42:58.002327,37
15:42:58.002327,10752
15:42:58.002327,0
15:42:58.002327,47
15:42:58.002327,13312
15:42:58.002327,0
15:42:58.002327,49
15:42:58.002327,13312
15:42:58.002327,0
15:42:58.002327,54
15:42:58.002327,13824
15:42:58.002327,0
15:42:58.002327,54
15:42:58.588302,54
15:42:58.588302,12544
15:42:58.588302,0
15:42:58.588302,45
15:42:58.588302,10752
15:42:58.588302,0
15:42:58.588302,61
15:42:58.588302,23552
15:42:58.588302,0
15:42:58.588302,106
15:42:58.588302,24832
15:42:58.588302,0
15:42:58.588302,80
15:42:58.588302,19200
15:42:58.588302,0
15:42:58.588302,78
15:42:58.588302,19200
15:42:58.588302,0
15:42:58.588302,71
15:42:58.588302,18688
15:42:58.588302,0
15:42:58.588302,73
15:42:58.588302,18176
15:42:58.588302,0
15:42:58.588302,45
15:42:58.588302,-12544
15:42:58.588302,-1
15:42:58.588302,-147
15:42:58.588302,-14081
15:42:58.588302,-1
15:42:58.588302,324
15:42:58.588302,19968
15:42:58.588302,3
15:42:58.588302,972
15:42:58.588302,3584
15:42:58.588302,2
15:42:58.588302,161
15:42:58.588302,24064
15:42:58.588302,0
15:42:58.588302,16
15:42:58.588302,-12544
15:42:58.588302,-1
15:42:58.588302,-28
15:42:58.588302,-6401
15:42:58.588302,-1
15:42:58.588302,-45
15:42:58.588302,-8705
15:42:58.588302,-1
15:42:58.588302,-28
15:42:58.588302,-7425
15:42:58.588302,-1
15:42:58.588302,-28
15:42:58.588302,-5121
15:42:58.588302,-1
15:42:58.588302,-16
15:42:58.588302,-2561
15:42:58.588302,-1
15:42:58.588302,-7
15:42:58.588302,-257
15:42:58.588302,-1
15:42:58.588302,0
15:42:58.588302,1792
15:42:58.588302,0
15:42:58.588302,14
15:42:58.588302,5888
15:42:58.588302,0
15:42:58.588302,33
15:42:58.588302,10752
15:42:58.588302,0
15:42:58.588302,45
15:42:58.588302,12544
15:42:58.588302,0
15:42:58.588302,52
15:42:58.588302,12544
15:42:58.588302,0
15:42:58.588302,47
15:42:58.588302,10240
15:42:58.588302,0
15:42:58.588302,23
15:42:58.588302,2304
15:42:58.588302,0
15:42:58.588302,-7
15:42:58.588302,-3329
15:42:58.588302,-1
15:42:58.588302,-16
15:42:58.588302,-4353
15:42:58.588302,-1
15:42:58.588302,-16
15:42:58.588302,-769
15:42:58.588302,-1
15:42:58.588302,-2
15:42:58.588302,-257
15:42:58.588302,-1
15:42:58.588302,2
15:42:58.588302,1792
15:42:58.588302,0
15:42:58.588302,7
15:42:58.588302,2304
15:42:58.588302,0
15:42:58.588302,11
15:42:58.588302,2816
15:42:58.588302,0
15:42:58.588302,16
15:42:58.588302,5376
15:42:58.588302,0
15:42:58.588302,23
15:42:58.588302,5888
15:42:58.588302,0
15:42:58.588302,23
15:42:59.127122,26
15:42:59.127122,7168
15:42:59.127122,0
15:42:59.127122,28
15:42:59.127122,7168
15:42:59.127122,0
15:42:59.127122,26
15:42:59.127122,6656
15:42:59.127122,0
15:42:59.127122,26
15:42:59.127122,6656
15:42:59.127122,0
15:42:59.127122,28
15:42:59.127122,7168
15:42:59.127122,0
15:42:59.127122,28
15:42:59.127122,7168
15:42:59.127122,0
15:42:59.127122,35
15:42:59.127122,13312
15:42:59.127122,0
15:42:59.127122,56
15:42:59.127122,12544
15:42:59.127122,0
15:42:59.127122,49
15:42:59.127122,13312
15:42:59.127122,0
15:42:59.127122,49
15:42:59.127122,12544
15:42:59.127122,0
15:42:59.127122,52
15:42:59.127122,12544
15:42:59.127122,0
15:42:59.127122,49
15:42:59.127122,12544
15:42:59.127122,0
15:42:59.127122,52
15:42:59.127122,14336
15:42:59.127122,0
15:42:59.127122,56
15:42:59.127122,14336
15:42:59.127122,0
15:42:59.127122,59
15:42:59.127122,13824
15:42:59.127122,0
15:42:59.127122,49
15:42:59.127122,14336
15:42:59.127122,0
15:42:59.127122,80
15:42:59.127122,26112
15:42:59.127122,0
15:42:59.127122,99
15:42:59.127122,21248
15:42:59.127122,0
15:42:59.127122,71
15:42:59.127122,15616
15:42:59.127122,0
15:42:59.127122,47
15:42:59.127122,10752
15:42:59.127122,0
15:42:59.127122,42
15:42:59.127122,11520
15:42:59.127122,0
15:42:59.127122,45
15:42:59.127122,9472
15:42:59.127122,0
15:42:59.127122,-18
15:42:59.127122,-32513
15:42:59.127122,-1
15:42:59.127122,-142
15:42:59.127122,25087
15:42:59.127122,0
15:42:59.127122,597
15:42:59.127122,-9728
15:42:59.127122,3
15:42:59.127122,770
15:42:59.127122,6656
15:42:59.127122,1
15:42:59.127122,104
15:42:59.127122,14336
15:42:59.127122,0
15:42:59.127122,-37
15:42:59.127122,-13057
15:42:59.127122,-1
15:42:59.127122,-30
15:42:59.127122,-11265
15:42:59.127122,-1
15:42:59.127122,-49
15:42:59.127122,-8705
15:42:59.127122,-1
15:42:59.127122,-28
15:42:59.127122,-6913
15:42:59.127122,-1
15:42:59.127122,-26
15:42:59.127122,-5121
15:42:59.127122,-1
15:42:59.127122,-18
15:42:59.127122,-3329
15:42:59.127122,-1
15:42:59.127122,-7
15:42:59.127122,-257
15:42:59.127122,-1
15:42:59.127122,2
15:42:59.127122,2304
15:42:59.127122,0
15:42:59.127122,18
15:42:59.127122,6656
15:42:59.127122,0
15:42:59.127122,33
15:42:59.667112,40
15:42:59.667112,11520
15:42:59.667112,0
15:42:59.667112,47
15:42:59.667112,12032
15:42:59.667112,0
15:42:59.667112,47
15:42:59.667112,11520
15:42:59.667112,0
15:42:59.667112,40
15:42:59.667112,6656
15:42:59.667112,0
15:42:59.667112,14
15:42:59.667112,2304
15:42:59.667112,0
15:42:59.667112,16
15:42:59.667112,5888
15:42:59.667112,0
15:42:59.667112,18
15:42:59.667112,4096
15:42:59.667112,0
15:42:59.667112,18
15:42:59.667112,5376
15:42:59.667112,0
15:42:59.667112,23
15:42:59.667112,7168
15:42:59.667112,0
15:42:59.667112,33
15:42:59.667112,9472
15:42:59.667112,0
15:42:59.667112,40
15:42:59.667112,9472
15:42:59.667112,0
15:42:59.667112,37
15:42:59.667112,10752
15:42:59.667112,0
15:42:59.667112,40
15:42:59.667112,9472
15:42:59.667112,0
15:42:59.667112,40
15:42:59.667112,10752
15:42:59.667112,0
15:42:59.667112,42
15:42:59.667112,10752
15:42:59.667112,0
15:42:59.667112,42
15:42:59.667112,10240
15:42:59.667112,0
15:42:59.667112,40
15:42:59.667112,10752
15:42:59.667112,0
15:42:59.667112,45
15:42:59.667112,10752
15:42:59.667112,0
15:42:59.667112,42
15:42:59.667112,10752
15:42:59.667112,0
15:42:59.667112,42
15:42:59.667112,10752
15:42:59.667112,0
15:42:59.667112,45
15:42:59.667112,11520
15:42:59.667112,0
15:42:59.667112,42
15:42:59.667112,11520
15:42:59.667112,0
15:42:59.667112,49
15:42:59.667112,13824
15:42:59.667112,0
15:42:59.667112,54
15:42:59.667112,13824
15:42:59.667112,0
15:42:59.667112,52
15:42:59.667112,13312
15:42:59.667112,0
15:42:59.667112,54
15:42:59.667112,14336
15:42:59.667112,0
15:42:59.667112,59
15:42:59.667112,15616
15:42:59.667112,0
15:42:59.667112,61
15:42:59.667112,16384
15:42:59.667112,0
15:42:59.667112,61
15:42:59.667112,15616
15:42:59.667112,0
15:42:59.667112,56
15:42:59.667112,13312
15:42:59.667112,0
15:42:59.667112,59
15:42:59.667112,21248
15:42:59.667112,0
15:42:59.667112,104
15:42:59.667112,25344
15:42:59.667112,0
15:42:59.667112,78
15:42:59.667112,16896
15:42:59.667112,0
15:42:59.667112,59
15:42:59.667112,11520
15:42:59.667112,0
15:42:59.667112,35
15:42:59.667112,10240
15:42:59.667112,0
15:42:59.667112,42
15:42:59.667112,10240
15:42:59.667112,0
15:42:59.667112,37
15:43:00.207414,9
15:43:00.207414,-21760
15:43:00.207414,-1
15:43:00.207414,-158
15:43:00.207414,-9217
15:43:00.207414,-1
15:43:00.207414,362
15:43:00.207414,23040
15:43:00.207414,3
15:43:00.207414,913
15:43:00.207414,-10240
15:43:00.207414,1
15:43:00.207414,163
15:43:00.207414,25344
15:43:00.207414,0
15:43:00.207414,9
15:43:00.207414,-10240
15:43:00.207414,-1
15:43:00.207414,-18
15:43:00.207414,-5121
15:43:00.207414,-1
15:43:00.207414,-33
15:43:00.207414,-5633
15:43:00.207414,-1
15:43:00.207414,-16
15:43:00.207414,-4353
15:43:00.207414,-1
15:43:00.207414,-14
15:43:00.207414,-1537
15:43:00.207414,-1
15:43:00.207414,-4
15:43:00.207414,-769
15:43:00.207414,-1
15:43:00.207414,0
15:43:00.207414,1792
15:43:00.207414,0
15:43:00.207414,11
15:43:00.207414,3584
15:43:00.207414,0
15:43:00.207414,23
15:43:00.207414,7680
15:43:00.207414,0
15:43:00.207414,37
15:43:00.207414,10752
15:43:00.207414,0
15:43:00.207414,47
15:43:00.207414,13312
15:43:00.207414,0
15:43:00.207414,49
15:43:00.207414,12032
15:43:00.207414,0
15:43:00.207414,45
15:43:00.207414,9472
15:43:00.207414,0
15:43:00.207414,28
15:43:00.207414,5376
15:43:00.207414,0
15:43:00.207414,14
15:43:00.207414,0
15:43:00.207414,0
15:43:00.207414,-7
15:43:00.207414,-769
15:43:00.207414,-1
15:43:00.207414,-4
15:43:00.207414,-257
15:43:00.207414,-1
15:43:00.207414,-2
15:43:00.207414,255
15:43:00.207414,0
15:43:00.207414,2
15:43:00.207414,1792
15:43:00.207414,0
15:43:00.207414,7
15:43:00.207414,1792
15:43:00.207414,0
15:43:00.207414,9
15:43:00.207414,2816
15:43:00.207414,0
15:43:00.207414,11
15:43:00.207414,3584
15:43:00.207414,0
15:43:00.207414,16
15:43:00.207414,4096
15:43:00.207414,0
15:43:00.207414,16
15:43:00.207414,4096
15:43:00.207414,0
15:43:00.207414,16
15:43:00.207414,4608
15:43:00.207414,0
15:43:00.207414,21
15:43:00.207414,5376
15:43:00.207414,0
15:43:00.207414,21
15:43:00.207414,5376
15:43:00.207414,0
15:43:00.207414,21
15:43:00.207414,5888
15:43:00.207414,0
15:43:00.207414,23
15:43:00.207414,5888
15:43:00.207414,0
15:43:00.207414,23
15:43:00.207414,5888
15:43:00.207414,0
15:43:00.207414,26
15:43:00.207414,7680
15:43:00.207414,0
15:43:00.207414,30
15:43:00.791760,28
15:43:00.791760,8448
15:43:00.791760,0
15:43:00.791760,37
15:43:00.791760,10240
15:43:00.791760,0
15:43:00.791760,49
15:43:00.791760,16896
15:43:00.791760,0
15:43:00.791760,68
15:43:00.791760,15616
15:43:00.791760,0
15:43:00.791760,59
15:43:00.791760,15104
15:43:00.791760,0
15:43:00.791760,59
15:43:00.791760,15104
15:43:00.791760,0
15:43:00.791760,56
15:43:00.791760,13312
15:43:00.791760,0
15:43:00.791760,49
15:43:00.791760,12544
15:43:00.791760,0
15:43:00.791760,59
15:43:00.791760,21760
15:43:00.791760,0
15:43:00.791760,99
15:43:00.791760,22272
15:43:00.791760,0
15:43:00.791760,68
15:43:00.791760,14336
15:43:00.791760,0
15:43:00.791760,45
15:43:00.791760,8448
15:43:00.791760,0
15:43:00.791760,23
15:43:00.791760,6656
15:43:00.791760,0
15:43:00.791760,26
15:43:00.791760,5376
15:43:00.791760,0
15:43:00.791760,23
15:43:00.791760,-1024
15:43:00.791760,-1
15:43:00.791760,-104
15:43:00.791760,23295
15:43:00.791760,-1
15:43:00.791760,-14
15:43:00.791760,-27649
15:43:00.791760,1
15:43:00.791760,849
15:43:00.791760,11520
15:43:00.791760,3
15:43:00.791760,370
15:43:00.791760,29696
15:43:00.791760,0
15:43:00.791760,59
15:43:00.791760,-7680
15:43:00.791760,-1
15:43:00.791760,-61
15:43:00.791760,-9217
15:43:00.791760,-1
15:43:00.791760,-49
15:43:00.791760,-14849
15:43:00.791760,-1
15:43:00.791760,-45
15:43:00.791760,-9217
15:43:00.791760,-1
15:43:00.791760,-37
15:43:00.791760,-8193
15:43:00.791760,-1
15:43:00.791760,-28
15:43:00.791760,-6913
15:43:00.791760,-1
15:43:00.791760,-23
15:43:00.791760,-3841
15:43:00.791760,-1
15:43:00.791760,-9
15:43:00.791760,-769
15:43:00.791760,-1
15:43:00.791760,0
15:43:00.791760,1024
15:43:00.791760,0
15:43:00.791760,9
15:43:00.791760,5376
15:43:00.791760,0
15:43:00.791760,28
15:43:00.791760,7680
15:43:00.791760,0
15:43:00.791760,30
15:43:00.791760,7680
15:43:00.791760,0
15:43:00.791760,30
15:43:00.791760,7168
15:43:00.791760,0
15:43:00.791760,18
15:43:00.791760,2304
15:43:00.791760,0
15:43:00.791760,-2
15:43:00.791760,-3329
15:43:00.791760,-1
15:43:00.791760,-23
15:43:00.791760,-6401
15:43:00.791760,-1
15:43:00.791760,-23
15:43:00.791760,-6401
15:43:00.791760,-1
15:43:00.791760,-28
15:43:01.376511,-26
15:43:01.376511,-5121
15:43:01.376511,-1
15:43:01.376511,-14
15:43:01.376511,-1537
15:43:01.376511,-1
15:43:01.376511,-4
15:43:01.376511,-1537
15:43:01.376511,-1
15:43:01.376511,-4
15:43:01.376511,2047
15:43:01.376511,0
15:43:01.376511,23
15:43:01.376511,7680
15:43:01.376511,0
15:43:01.376511,30
15:43:01.376511,7680
15:43:01.376511,0
15:43:01.376511,33
15:43:01.376511,8960
15:43:01.376511,0
15:43:01.376511,35
15:43:01.376511,8960
15:43:01.376511,0
15:43:01.376511,35
15:43:01.376511,8448
15:43:01.376511,0
15:43:01.376511,30
15:43:01.376511,7680
15:43:01.376511,0
15:43:01.376511,33
15:43:01.376511,8448
15:43:01.376511,0
15:43:01.376511,33
15:43:01.376511,8960
15:43:01.376511,0
15:43:01.376511,35
15:43:01.376511,9472
15:43:01.376511,0
15:43:01.376511,42
15:43:01.376511,10240
15:43:01.376511,0
15:43:01.376511,35
15:43:01.376511,8960
15:43:01.376511,0
15:43:01.376511,40
15:43:01.376511,9472
15:43:01.376511,0
15:43:01.376511,33
15:43:01.376511,8448
15:43:01.376511,0
15:43:01.376511,33
15:43:01.376511,7168
15:43:01.376511,0
15:43:01.376511,26
15:43:01.376511,7168
15:43:01.376511,0
15:43:01.376511,26
15:43:01.376511,4096
15:43:01.376511,0
15:43:01.376511,14
15:43:01.376511,4096
15:43:01.376511,0
15:43:01.376511,14
15:43:01.376511,4096
15:43:01.376511,0
15:43:01.376511,35
15:43:01.376511,14336
15:43:01.376511,0
15:43:01.376511,54
15:43:01.376511,10752
15:43:01.376511,0
15:43:01.376511,33
15:43:01.376511,4608
15:43:01.376511,0
15:43:01.376511,2
15:43:01.376511,-512
15:43:01.376511,-1
15:43:01.376511,2
15:43:01.376511,512
15:43:01.376511,0
15:43:01.376511,2
15:43:01.376511,1024
15:43:01.376511,0
15:43:01.376511,-9
15:43:01.376511,-23297
15:43:01.376511,-1
15:43:01.376511,-201
15:43:01.376511,32511
15:43:01.376511,-1
15:43:01.376511,225
15:43:01.376511,-19456
15:43:01.376511,2
15:43:01.376511,806
15:43:01.376511,-21248
15:43:01.376511,1
15:43:01.376511,123
15:43:01.376511,17408
15:43:01.376511,0
15:43:01.376511,-9
15:43:01.376511,-18945
15:43:01.376511,-1
15:43:01.376511,-64
15:43:01.376511,-15361
15:43:01.376511,-1
15:43:01.376511,-73
15:43:01.376511,-16641
15:43:01.376511,-1
15:43:01.376511,-54
15:43:01.917105,-54
15:43:01.917105,-12289
15:43:01.917105,-1
15:43:01.917105,-42
15:43:01.917105,-9985
15:43:01.917105,-1
15:43:01.917105,-33
15:43:01.917105,-5633
15:43:01.917105,-1
15:43:01.917105,-14
15:43:01.917105,-1537
15:43:01.917105,-1
15:43:01.917105,0
15:43:01.917105,1792
15:43:01.917105,0
15:43:01.917105,23
15:43:01.917105,12544
15:43:01.917105,0
15:43:01.917105,68
15:43:01.917105,18176
15:43:01.917105,0
15:43:01.917105,75
15:43:01.917105,21760
15:43:01.917105,0
15:43:01.917105,87
15:43:01.917105,20480
15:43:01.917105,0
15:43:01.917105,66
15:43:01.917105,12032
15:43:01.917105,0
15:43:01.917105,28
15:43:01.917105,1024
15:43:01.917105,0
15:43:01.917105,-9
15:43:01.917105,-3841
15:43:01.917105,-1
15:43:01.917105,-18
15:43:01.917105,-4353
15:43:01.917105,-1
15:43:01.917105,-14
15:43:01.917105,-3329
15:43:01.917105,-1
15:43:01.917105,-16
15:43:01.917105,-2561
15:43:01.917105,-1
15:43:01.917105,-7
15:43:01.917105,-769
15:43:01.917105,-1
15:43:01.917105,-2
15:43:01.917105,1279
15:43:01.917105,0
15:43:01.917105,7
15:43:01.917105,1792
15:43:01.917105,0
15:43:01.917105,9
15:43:01.917105,2816
15:43:01.917105,0
15:43:01.917105,11
15:43:01.917105,3584
15:43:01.917105,0
15:43:01.917105,18
15:43:01.917105,5376
15:43:01.917105,0
15:43:01.917105,18
15:43:01.917105,4608
15:43:01.917105,0
15:43:01.917105,18
15:43:01.917105,5376
15:43:01.917105,0
15:43:01.917105,23
15:43:01.917105,6656
15:43:01.917105,0
15:43:01.917105,26
15:43:01.917105,5376
15:43:01.917105,0
15:43:01.917105,21
15:43:01.917105,6656
15:43:01.917105,0
15:43:01.917105,28
15:43:01.917105,6656
15:43:01.917105,0
15:43:01.917105,23
15:43:01.917105,5376
15:43:01.917105,0
15:43:01.917105,23
15:43:01.917105,6656
15:43:01.917105,0
15:43:01.917105,26
15:43:01.917105,5888
15:43:01.917105,0
15:43:01.917105,16
15:43:01.917105,1792
15:43:01.917105,0
15:43:01.917105,16
15:43:01.917105,12032
15:43:01.917105,0
15:43:01.917105,73
15:43:01.917105,16896
15:43:01.917105,0
15:43:01.917105,42
15:43:01.917105,7680
15:43:01.917105,0
15:43:01.917105,26
15:43:01.917105,4096
15:43:01.917105,0
15:43:01.917105,11
15:43:01.917105,4096
15:43:01.917105,0
15:43:01.917105,16
15:43:02.502404,14
15:43:02.502404,2816
15:43:02.502404,0
15:43:02.502404,-37
15:43:02.502404,27647
15:43:02.502404,-1
15:43:02.502404,-173
15:43:02.502404,14591
15:43:02.502404,0
15:43:02.502404,540
15:43:02.502404,-20480
15:43:02.502404,3
15:43:02.502404,780
15:43:02.502404,14592
15:43:02.502404,1
15:43:02.502404,109
15:43:02.502404,13824
15:43:02.502404,0
15:43:02.502404,-33
15:43:02.502404,-12289
15:43:02.502404,-1
15:43:02.502404,-28
15:43:02.502404,-10497
15:43:02.502404,-1
15:43:02.502404,-47
15:43:02.502404,-8193
15:43:02.502404,-1
15:43:02.502404,-35
15:43:02.502404,-8705
15:43:02.502404,-1
15:43:02.502404,-21
15:43:02.502404,-5121
15:43:02.502404,-1
15:43:02.502404,-21
15:43:02.502404,-3329
15:43:02.502404,-1
15:43:02.502404,-11
15:43:02.502404,-2049
15:43:02.502404,-1
15:43:02.502404,-2
15:43:02.502404,1279
15:43:02.502404,0
15:43:02.502404,14
15:43:02.502404,5376
15:43:02.502404,0
15:43:02.502404,30
15:43:02.502404,10240
15:43:02.502404,0
15:43:02.502404,45
15:43:02.502404,11520
15:43:02.502404,0
15:43:02.502404,42
15:43:02.502404,10240
15:43:02.502404,0
15:43:02.502404,30
15:43:02.502404,4608
15:43:02.502404,0
15:43:02.502404,7
15:43:02.502404,-1024
15:43:02.502404,-1
15:43:02.502404,-14
15:43:02.502404,-5121
15:43:02.502404,-1
15:43:02.502404,-23
15:43:02.502404,-5121
15:43:02.502404,-1
15:43:02.502404,-16
15:43:02.502404,-2561
15:43:02.502404,-1
15:43:02.502404,-9
15:43:02.502404,-1537
15:43:02.502404,-1
15:43:02.502404,0
15:43:02.502404,1024
15:43:02.502404,0
15:43:02.502404,7
15:43:02.502404,1792
15:43:02.502404,0
15:43:02.502404,9
15:43:02.502404,4096
15:43:02.502404,0
15:43:02.502404,26
15:43:02.502404,7680
15:43:02.502404,0
15:43:02.502404,30
15:43:02.502404,8448
15:43:02.502404,0
15:43:02.502404,35
15:43:02.502404,9472
15:43:02.502404,0
15:43:02.502404,40
15:43:02.502404,11520
15:43:02.502404,0
15:43:02.502404,47
15:43:02.502404,12032
15:43:02.502404,0
15:43:02.502404,45
15:43:02.502404,11520
15:43:02.502404,0
15:43:02.502404,47
15:43:02.502404,13312
15:43:02.502404,0
15:43:02.502404,52
15:43:02.502404,12544
15:43:02.502404,0
15:43:02.502404,52
15:43:02.502404,13824
15:43:02.502404,0
15:43:02.502404,59
15:43:03.041857,64
15:43:03.041857,15616
15:43:03.041857,0
15:43:03.041857,61
15:43:03.041857,15616
15:43:03.041857,0
15:43:03.041857,59
15:43:03.041857,13824
15:43:03.041857,0
15:43:03.041857,56
15:43:03.041857,15104
15:43:03.041857,0
15:43:03.041857,56
15:43:03.041857,13824
15:43:03.041857,0
15:43:03.041857,59
15:43:03.041857,18688
15:43:03.041857,0
15:43:03.041857,80
15:43:03.041857,20480
15:43:03.041857,0
15:43:03.041857,97
15:43:03.041857,30720
15:43:03.041857,0
15:43:03.041857,125
15:43:03.041857,28416
15:43:03.041857,0
15:43:03.041857,97
15:43:03.041857,21248
15:43:03.041857,0
15:43:03.041857,66
15:43:03.041857,14336
15:43:03.041857,0
15:43:03.041857,56
15:43:03.041857,15616
15:43:03.041857,0
15:43:03.041857,61
15:43:03.041857,14336
15:43:03.041857,0
15:43:03.041857,47
15:43:03.041857,-4096
15:43:03.041857,-1
15:43:03.041857,-123
15:43:03.041857,-26369
15:43:03.041857,-1
15:43:03.041857,173
15:43:03.041857,-29184
15:43:03.041857,2
15:43:03.041857,932
15:43:03.041857,-29184
15:43:03.041857,2
15:43:03.041857,249
15:43:03.041857,32000
15:43:03.041857,0
15:43:03.041857,54
15:43:03.041857,-7168
15:43:03.041857,-1
15:43:03.041857,-23
15:43:03.041857,-2561
15:43:03.041857,-1
15:43:03.041857,-28
15:43:03.041857,-6401
15:43:03.041857,-1
15:43:03.041857,-11
15:43:03.041857,-2561
15:43:03.041857,-1
15:43:03.041857,-9
15:43:03.041857,-257
15:43:03.041857,-1
15:43:03.041857,2
15:43:03.041857,1024
15:43:03.041857,0
15:43:03.041857,11
15:43:03.041857,3584
15:43:03.041857,0
15:43:03.041857,14
15:43:03.041857,4608
15:43:03.041857,0
15:43:03.041857,30
15:43:03.041857,9472
15:43:03.041857,0
15:43:03.041857,47
15:43:03.041857,13824
15:43:03.041857,0
15:43:03.041857,64
15:43:03.041857,16896
15:43:03.041857,0
15:43:03.041857,66
15:43:03.041857,17408
15:43:03.041857,0
15:43:03.041857,66
15:43:03.041857,15104
15:43:03.041857,0
15:43:03.041857,49
15:43:03.041857,9472
15:43:03.041857,0
15:43:03.041857,21
15:43:03.041857,4096
15:43:03.041857,0
15:43:03.041857,14
15:43:03.041857,1024
15:43:03.041857,0
15:43:03.041857,2
15:43:03.041857,1792
15:43:03.041857,0
15:43:03.041857,9
15:43:03.041857,2816
15:43:03.041857,0
15:43:03.041857,11
15:43:03.581306,14
15:43:03.581306,3584
15:43:03.581306,0
15:43:03.581306,18
15:43:03.581306,6656
15:43:03.581306,0
15:43:03.581306,28
15:43:03.581306,7168
15:43:03.581306,0
15:43:03.581306,30
15:43:03.581306,8448
15:43:03.581306,0
15:43:03.581306,42
15:43:03.581306,13824
15:43:03.581306,0
15:43:03.581306,59
15:43:03.581306,15104
15:43:03.581306,0
15:43:03.581306,64
15:43:03.581306,16384
15:43:03.581306,0
15:43:03.581306,56
15:43:03.581306,13824
15:43:03.581306,0
15:43:03.581306,56
15:43:03.581306,14336
15:43:03.581306,0
15:43:03.581306,56
15:43:03.581306,13824
15:43:03.581306,0
15:43:03.581306,52
15:43:03.581306,12544
15:43:03.581306,0
15:43:03.581306,52
15:43:03.581306,13312
15:43:03.581306,0
15:43:03.581306,49
15:43:03.581306,12032
15:43:03.581306,0
15:43:03.581306,52
15:43:03.581306,13312
15:43:03.581306,0
15:43:03.581306,47
15:43:03.581306,11520
15:43:03.581306,0
15:43:03.581306,47
15:43:03.581306,12032
15:43:03.581306,0
15:43:03.581306,47
15:43:03.581306,10240
15:43:03.581306,0
15:43:03.581306,37
15:43:03.581306,9472
15:43:03.581306,0
15:43:03.581306,35
15:43:03.581306,8960
15:43:03.581306,0
15:43:03.581306,52
15:43:03.581306,19200
15:43:03.581306,0
15:43:03.581306,80
15:43:03.581306,16896
15:43:03.581306,0
15:43:03.581306,49
15:43:03.581306,9472
15:43:03.581306,0
15:43:03.581306,30
15:43:03.581306,4096
15:43:03.581306,0
15:43:03.581306,11
15:43:03.581306,5376
15:43:03.581306,0
15:43:03.581306,21
15:43:03.581306,2304
15:43:03.581306,0
15:43:03.581306,2
15:43:03.581306,-9472
15:43:03.581306,-1
15:43:03.581306,-151
15:43:03.581306,19199
15:43:03.581306,-1
15:43:03.581306,42
15:43:03.581306,-4864
15:43:03.581306,1
15:43:03.581306,832
15:43:03.581306,-32256
15:43:03.581306,2
15:43:03.581306,225
15:43:03.581306,23552
15:43:03.581306,0
15:43:03.581306,54
15:43:03.581306,-12544
15:43:03.581306,-1
15:43:03.581306,-66
15:43:03.581306,-9985
15:43:03.581306,-1
15:43:03.581306,-56
15:43:03.581306,-16641
15:43:03.581306,-1
15:43:03.581306,-54
15:43:03.581306,-11265
15:43:03.581306,-1
15:43:03.581306,-45
15:43:03.581306,-9217
15:43:03.581306,-1
15:43:03.581306,-33
15:43:03.581306,-7425
15:43:03.581306,-1
15:43:03.581306,-23
15:43:04.167099,-16
15:43:04.167099,-2561
15:43:04.167099,-1
15:43:04.167099,-4
15:43:04.167099,2047
15:43:04.167099,0
15:43:04.167099,16
15:43:04.167099,7168
15:43:04.167099,0
15:43:04.167099,52
15:43:04.167099,17408
15:43:04.167099,0
15:43:04.167099,64
15:43:04.167099,15104
15:43:04.167099,0
15:43:04.167099,66
15:43:04.167099,18176
15:43:04.167099,0
15:43:04.167099,64
15:43:04.167099,10240
15:43:04.167099,0
15:43:04.167099,16
15:43:04.167099,512
15:43:04.167099,0
15:43:04.167099,-14
15:43:04.167099,-6913
15:43:04.167099,-1
15:43:04.167099,-35
15:43:04.167099,-9985
15:43:04.167099,-1
15:43:04.167099,-40
15:43:04.167099,-8705
15:43:04.167099,-1
15:43:04.167099,-30
15:43:04.167099,-7425
15:43:04.167099,-1
15:43:04.167099,-33
15:43:04.167099,-6401
15:43:04.167099,-1
15:43:04.167099,-21
15:43:04.167099,-5121
15:43:04.167099,-1
15:43:04.167099,-21
15:43:04.167099,-4353
15:43:04.167099,-1
15:43:04.167099,-16
15:43:04.167099,-2561
15:43:04.167099,-1
15:43:04.167099,-2
15:43:04.167099,767
15:43:04.167099,0
15:43:04.167099,2
15:43:04.167099,-512
15:43:04.167099,-1
15:43:04.167099,0
15:43:04.167099,1792
15:43:04.167099,0
15:43:04.167099,7
15:43:04.167099,1792
15:43:04.167099,0
15:43:04.167099,9
15:43:04.167099,2304
15:43:04.167099,0
15:43:04.167099,7
15:43:04.167099,3584
15:43:04.167099,0
15:43:04.167099,18
15:43:04.167099,4096
15:43:04.167099,0
15:43:04.167099,14
15:43:04.167099,4096
15:43:04.167099,0
15:43:04.167099,16
15:43:04.167099,3584
15:43:04.167099,0
15:43:04.167099,16
15:43:04.167099,2816
15:43:04.167099,0
15:43:04.167099,7
15:43:04.167099,1792
15:43:04.167099,0
15:43:04.167099,18
15:43:04.167099,11520
15:43:04.167099,0
15:43:04.167099,66
15:43:04.167099,16896
15:43:04.167099,0
15:43:04.167099,47
15:43:04.167099,7680
15:43:04.167099,0
15:43:04.167099,16
15:43:04.167099,1792
15:43:04.167099,0
15:43:04.167099,4
15:43:04.167099,2304
15:43:04.167099,0
15:43:04.167099,11
15:43:04.167099,2816
15:43:04.167099,0
15:43:04.167099,7
15:43:04.167099,-7680
15:43:04.167099,-1
15:43:04.167099,-137
15:43:04.167099,12543
15:43:04.167099,-1
15:43:04.167099,-40
15:43:04.167099,-24065
15:43:04.167099,1
15:43:04.167099,868
15:43:04.754864,768
15:43:04.754864,7168
15:43:04.754864,1
15:43:04.754864,87
15:43:04.754864,19200
15:43:04.754864,0
15:43:04.754864,-33
15:43:04.754864,-19713
15:43:04.754864,-1
15:43:04.754864,-47
15:43:04.754864,-14849
15:43:04.754864,-1
15:43:04.754864,-68
15:43:04.754864,-8705
15:43:04.754864,-1
15:43:04.754864,-16
15:43:04.754864,-6401
15:43:04.754864,-1
15:43:04.754864,-21
15:43:04.754864,-2561
15:43:04.754864,-1
15:43:04.754864,-7
15:43:04.754864,-257
15:43:04.754864,-1
15:43:04.754864,4
15:43:04.754864,2816
15:43:04.754864,0
15:43:04.754864,16
15:43:04.754864,6656
15:43:04.754864,0
15:43:04.754864,37
15:43:04.754864,12544
15:43:04.754864,0
15:43:04.754864,61
15:43:04.754864,17408
15:43:04.754864,0
15:43:04.754864,75
15:43:04.754864,19968
15:43:04.754864,0
15:43:04.754864,78
15:43:04.754864,19200
15:43:04.754864,0
15:43:04.754864,64
15:43:04.754864,10752
15:43:04.754864,0
15:43:04.754864,16
15:43:04.754864,-1024
15:43:04.754864,-1
15:43:04.754864,-16
15:43:04.754864,-5633
15:43:04.754864,-1
15:43:04.754864,-30
15:43:04.754864,-7425
15:43:04.754864,-1
15:43:04.754864,-28
15:43:04.754864,-6913
15:43:04.754864,-1
15:43:04.754864,-28
15:43:04.754864,-6401
15:43:04.754864,-1
15:43:04.754864,-23
15:43:04.754864,-5633
15:43:04.754864,-1
15:43:04.754864,-18
15:43:04.754864,-2561
15:43:04.754864,-1
15:43:04.754864,-4
15:43:04.754864,-257
15:43:04.754864,-1
15:43:04.754864,0
15:43:04.754864,512
15:43:04.754864,0
15:43:04.754864,7
15:43:04.754864,1792
15:43:04.754864,0
15:43:04.754864,9
15:43:04.754864,3584
15:43:04.754864,0
15:43:04.754864,16
15:43:04.754864,3584
15:43:04.754864,0
15:43:04.754864,14
15:43:04.754864,3584
15:43:04.754864,0
15:43:04.754864,16
15:43:04.754864,4096
15:43:04.754864,0
15:43:04.754864,18
15:43:04.754864,4608
15:43:04.754864,0
15:43:04.754864,16
15:43:04.754864,4608
15:43:04.754864,0
15:43:04.754864,21
15:43:04.754864,5376
15:43:04.754864,0
15:43:04.754864,18
15:43:04.754864,4608
15:43:04.754864,0
15:43:04.754864,21
15:43:04.754864,6656
15:43:04.754864,0
15:43:04.754864,28
15:43:04.754864,5376
15:43:04.754864,0
15:43:04.754864,11
15:43:04.754864,1792
15:43:04.754864,0
15:43:04.754864,18
15:43:05.291292,49
15:43:05.291292,19200
15:43:05.291292,0
15:43:05.291292,71
15:43:05.291292,12032
15:43:05.291292,0
15:43:05.291292,30
15:43:05.291292,5376
15:43:05.291292,0
15:43:05.291292,14
15:43:05.291292,4096
15:43:05.291292,0
15:43:05.291292,18
15:43:05.291292,4608
15:43:05.291292,0
15:43:05.291292,18
15:43:05.291292,1792
15:43:05.291292,0
15:43:05.291292,-52
15:43:05.291292,30207
15:43:05.291292,-1
15:43:05.291292,-99
15:43:05.291292,-10241
15:43:05.291292,0
15:43:05.291292,761
15:43:05.291292,4352
15:43:05.291292,4
15:43:05.291292,666
15:43:05.291292,-15872
15:43:05.291292,0
15:43:05.291292,78
15:43:05.291292,4608
15:43:05.291292,0
15:43:05.291292,-68
15:43:05.291292,-16129
15:43:05.291292,-1
15:43:05.291292,-45
15:43:05.291292,-16129
15:43:05.291292,-1
15:43:05.291292,-56
15:43:05.291292,-9985
15:43:05.291292,-1
15:43:05.291292,-42
15:43:05.291292,-11265
15:43:05.291292,-1
15:43:05.291292,-33
15:43:05.291292,-7425
15:43:05.291292,-1
15:43:05.291292,-30
15:43:05.291292,-6401
15:43:05.291292,-1
15:43:05.291292,-23
15:43:05.291292,-4353
15:43:05.291292,-1
15:43:05.291292,-9
15:43:05.291292,255
15:43:05.291292,0
15:43:05.291292,7
15:43:05.291292,3584
15:43:05.291292,0
15:43:05.291292,21
15:43:05.291292,7168
15:43:05.291292,0
15:43:05.291292,30
15:43:05.291292,8960
15:43:05.291292,0
15:43:05.291292,35
15:43:05.291292,7680
15:43:05.291292,0
15:43:05.291292,21
15:43:05.291292,2304
15:43:05.291292,0
15:43:05.291292,0
15:43:05.291292,-3584
15:43:05.291292,-1
15:43:05.291292,-23
15:43:05.291292,-7425
15:43:05.291292,-1
15:43:05.291292,-35
15:43:05.291292,-7425
15:43:05.291292,-1
15:43:05.291292,-26
15:43:05.291292,-6401
15:43:05.291292,-1
15:43:05.291292,-23
15:43:05.291292,-4353
15:43:05.291292,-1
15:43:05.291292,-14
15:43:05.291292,-1537
15:43:05.291292,-1
15:43:05.291292,-7
15:43:05.291292,-2049
15:43:05.291292,-1
15:43:05.291292,-4
15:43:05.291292,-257
15:43:05.291292,-1
15:43:05.291292,-2
15:43:05.291292,255
15:43:05.291292,0
15:43:05.291292,0
15:43:05.291292,0
15:43:05.291292,0
15:43:05.291292,2
15:43:05.291292,1024
15:43:05.291292,0
15:43:05.291292,7
15:43:05.291292,1792
15:43:05.291292,0
15:43:05.291292,4
15:43:05.832525,7
15:43:05.832525,2304
15:43:05.832525,0
15:43:05.832525,9
15:43:05.832525,2304
15:43:05.832525,0
15:43:05.832525,11
15:43:05.832525,2816
15:43:05.832525,0
15:43:05.832525,14
15:43:05.832525,3584
15:43:05.832525,0
15:43:05.832525,16
15:43:05.832525,7168
15:43:05.832525,0
15:43:05.832525,45
15:43:05.832525,12032
15:43:05.832525,0
15:43:05.832525,45
15:43:05.832525,11520
15:43:05.832525,0
15:43:05.832525,45
15:43:05.832525,10752
15:43:05.832525,0
15:43:05.832525,45
15:43:05.832525,12032
15:43:05.832525,0
15:43:05.832525,45
15:43:05.832525,10752
15:43:05.832525,0
15:43:05.832525,42
15:43:05.832525,10752
15:43:05.832525,0
15:43:05.832525,40
15:43:05.832525,10240
15:43:05.832525,0
15:43:05.832525,37
15:43:05.832525,9472
15:43:05.832525,0
15:43:05.832525,40
15:43:05.832525,9472
15:43:05.832525,0
15:43:05.832525,37
15:43:05.832525,10240
15:43:05.832525,0
15:43:05.832525,37
15:43:05.832525,8448
15:43:05.832525,0
15:43:05.832525,35
15:43:05.832525,13312
15:43:05.832525,0
15:43:05.832525,75
15:43:05.832525,19968
15:43:05.832525,0
15:43:05.832525,61
15:43:05.832525,12032
15:43:05.832525,0
15:43:05.832525,35
15:43:05.832525,5376
15:43:05.832525,0
15:43:05.832525,14
15:43:05.832525,3584
15:43:05.832525,0
15:43:05.832525,16
15:43:05.832525,3584
15:43:05.832525,0
15:43:05.832525,14
15:43:05.832525,0
15:43:05.832525,0
15:43:05.832525,-78
15:43:05.832525,20479
15:43:05.832525,-1
15:43:05.832525,-120
15:43:05.832525,-10241
15:43:05.832525,0
15:43:05.832525,733
15:43:05.832525,-23552
15:43:05.832525,3
15:43:05.832525,550
15:43:05.832525,-25600
15:43:05.832525,0
15:43:05.832525,64
15:43:05.832525,-1792
15:43:05.832525,-1
15:43:05.832525,-80
15:43:05.832525,-16129
15:43:05.832525,-1
15:43:05.832525,-56
15:43:05.832525,-19713
15:43:05.832525,-1
15:43:05.832525,-71
15:43:05.832525,-13569
15:43:05.832525,-1
15:43:05.832525,-54
15:43:05.832525,-13057
15:43:05.832525,-1
15:43:05.832525,-47
15:43:05.832525,-11265
15:43:05.832525,-1
15:43:05.832525,-40
15:43:05.832525,-8193
15:43:05.832525,-1
15:43:05.832525,-26
15:43:05.832525,-4353
15:43:05.832525,-1
15:43:05.832525,-18
15:43:05.832525,-3329
15:43:05.832525,-1
15:43:05.832525,-2
15:43:06.417092,7
15:43:06.417092,4096
15:43:06.417092,0
15:43:06.417092,23
15:43:06.417092,6656
15:43:06.417092,0
15:43:06.417092,28
15:43:06.417092,7680
15:43:06.417092,0
15:43:06.417092,40
15:43:06.417092,12544
15:43:06.417092,0
15:43:06.417092,40
15:43:06.417092,5888
15:43:06.417092,0
15:43:06.417092,14
15:43:06.417092,1792
15:43:06.417092,0
15:43:06.417092,-2
15:43:06.417092,-769
15:43:06.417092,-1
15:43:06.417092,-7
15:43:06.417092,-1537
15:43:06.417092,-1
15:43:06.417092,-7
15:43:06.417092,-257
15:43:06.417092,-1
15:43:06.417092,0
15:43:06.417092,512
15:43:06.417092,0
15:43:06.417092,4
15:43:06.417092,2816
15:43:06.417092,0
15:43:06.417092,14
15:43:06.417092,3584
15:43:06.417092,0
15:43:06.417092,16
15:43:06.417092,4608
15:43:06.417092,0
15:43:06.417092,18
15:43:06.417092,4608
15:43:06.417092,0
15:43:06.417092,21
15:43:06.417092,6656
15:43:06.417092,0
15:43:06.417092,28
15:43:06.417092,6656
15:43:06.417092,0
15:43:06.417092,28
15:43:06.417092,7168
15:43:06.417092,0
15:43:06.417092,28
15:43:06.417092,8448
15:43:06.417092,0
15:43:06.417092,35
15:43:06.417092,9472
15:43:06.417092,0
15:43:06.417092,33
15:43:06.417092,8448
15:43:06.417092,0
15:43:06.417092,35
15:43:06.417092,10752
15:43:06.417092,0
15:43:06.417092,45
15:43:06.417092,10240
15:43:06.417092,0
15:43:06.417092,35
15:43:06.417092,9472
15:43:06.417092,0
15:43:06.417092,37
15:43:06.417092,9472
15:43:06.417092,0
15:43:06.417092,37
15:43:06.417092,8960
15:43:06.417092,0
15:43:06.417092,33
15:43:06.417092,8448
15:43:06.417092,0
15:43:06.417092,30
15:43:06.417092,7680
15:43:06.417092,0
15:43:06.417092,33
15:43:06.417092,7680
15:43:06.417092,0
15:43:06.417092,30
15:43:06.417092,7680
15:43:06.417092,0
15:43:06.417092,30
15:43:06.417092,8448
15:43:06.417092,0
15:43:06.417092,35
15:43:06.417092,7168
15:43:06.417092,0
15:43:06.417092,21
15:43:06.417092,5376
15:43:06.417092,0
15:43:06.417092,23
15:43:06.417092,5376
15:43:06.417092,0
15:43:06.417092,26
15:43:06.417092,10240
15:43:06.417092,0
15:43:06.417092,59
15:43:06.417092,15616
15:43:06.417092,0
15:43:06.417092,47
15:43:06.417092,8448
15:43:06.417092,0
15:43:06.417092,26
15:43:06.957339,16
15:43:06.957339,2304
15:43:06.957339,0
15:43:06.957339,9
15:43:06.957339,2304
15:43:06.957339,0
15:43:06.957339,9
15:43:06.957339,3584
15:43:06.957339,0
15:43:06.957339,0
15:43:06.957339,-19968
15:43:06.957339,-1
15:43:06.957339,-180
15:43:06.957339,32511
15:43:06.957339,-1
15:43:06.957339,192
15:43:06.957339,-19456
15:43:06.957339,2
15:43:06.957339,915
15:43:06.957339,17664
15:43:06.957339,2
15:43:06.957339,199
15:43:06.957339,24064
15:43:06.957339,0
15:43:06.957339,21
15:43:06.957339,-13312
15:43:06.957339,-1
15:43:06.957339,-42
15:43:06.957339,-8193
15:43:06.957339,-1
15:43:06.957339,-52
15:43:06.957339,-12289
15:43:06.957339,-1
15:43:06.957339,-40
15:43:06.957339,-9985
15:43:06.957339,-1
15:43:06.957339,-40
15:43:06.957339,-8705
15:43:06.957339,-1
15:43:06.957339,-33
15:43:06.957339,-6401
15:43:06.957339,-1
15:43:06.957339,-18
15:43:06.957339,-3329
15:43:06.957339,-1
15:43:06.957339,-9
15:43:06.957339,-769
15:43:06.957339,-1
15:43:06.957339,4
15:43:06.957339,3584
15:43:06.957339,0
15:43:06.957339,26
15:43:06.957339,8960
15:43:06.957339,0
15:43:06.957339,37
15:43:06.957339,10240
15:43:06.957339,0
15:43:06.957339,42
15:43:06.957339,10240
15:43:06.957339,0
15:43:06.957339,37
15:43:06.957339,7680
15:43:06.957339,0
15:43:06.957339,16
15:43:06.957339,1024
15:43:06.957339,0
15:43:06.957339,-9
15:43:06.957339,-5121
15:43:06.957339,-1
15:43:06.957339,-28
15:43:06.957339,-8193
15:43:06.957339,-1
15:43:06.957339,-35
15:43:06.957339,-8705
15:43:06.957339,-1
15:43:06.957339,-30
15:43:06.957339,-6401
15:43:06.957339,-1
15:43:06.957339,-23
15:43:06.957339,-3841
15:43:06.957339,-1
15:43:06.957339,-14
15:43:06.957339,-2049
15:43:06.957339,-1
15:43:06.957339,-7
15:43:06.957339,-769
15:43:06.957339,-1
15:43:06.957339,-2
15:43:06.957339,767
15:43:06.957339,0
15:43:06.957339,7
15:43:06.957339,2304
15:43:06.957339,0
15:43:06.957339,9
15:43:06.957339,2816
15:43:06.957339,0
15:43:06.957339,14
15:43:06.957339,4608
15:43:06.957339,0
15:43:06.957339,18
15:43:06.957339,4608
15:43:06.957339,0
15:43:06.957339,21
15:43:06.957339,5376
15:43:06.957339,0
15:43:06.957339,23
15:43:06.957339,5888
15:43:06.957339,0
15:43:06.957339,26
15:43:07.496409,21
15:43:07.496409,5376
15:43:07.496409,0
15:43:07.496409,23
15:43:07.496409,5888
15:43:07.496409,0
15:43:07.496409,23
15:43:07.496409,5888
15:43:07.496409,0
15:43:07.496409,28
15:43:07.496409,11520
15:43:07.496409,0
15:43:07.496409,59
15:43:07.496409,12544
15:43:07.496409,0
15:43:07.496409,45
15:43:07.496409,12544
15:43:07.496409,0
15:43:07.496409,49
15:43:07.496409,12544
15:43:07.496409,0
15:43:07.496409,47
15:43:07.496409,10752
15:43:07.496409,0
15:43:07.496409,42
15:43:07.496409,10240
15:43:07.496409,0
15:43:07.496409,35
15:43:07.496409,9472
15:43:07.496409,0
15:43:07.496409,37
15:43:07.496409,7168
15:43:07.496409,0
15:43:07.496409,28
15:43:07.496409,12032
15:43:07.496409,0
15:43:07.496409,73
15:43:07.496409,21248
15:43:07.496409,0
15:43:07.496409,71
15:43:07.496409,13312
15:43:07.496409,0
15:43:07.496409,37
15:43:07.496409,7168
15:43:07.496409,0
15:43:07.496409,16
15:43:07.496409,4096
15:43:07.496409,0
15:43:07.496409,21
15:43:07.496409,4096
15:43:07.496409,0
15:43:07.496409,16
15:43:07.496409,2816
15:43:07.496409,0
15:43:07.496409,-35
15:43:07.496409,28927
15:43:07.496409,-1
15:43:07.496409,-177
15:43:07.496409,7423
15:43:07.496409,0
15:43:07.496409,488
15:43:07.496409,29696
15:43:07.496409,3
15:43:07.496409,735
15:43:07.496409,5888
15:43:07.496409,1
15:43:07.496409,80
15:43:07.496409,7168
15:43:07.496409,0
15:43:07.496409,-61
15:43:07.496409,-20225
15:43:07.496409,-1
15:43:07.496409,-56
15:43:07.496409,-17153
15:43:07.496409,-1
15:43:07.496409,-73
15:43:07.496409,-14849
15:43:07.496409,-1
15:43:07.496409,-56
15:43:07.496409,-14081
15:43:07.496409,-1
15:43:07.496409,-47
15:43:07.496409,-9217
15:43:07.496409,-1
15:43:07.496409,-37
15:43:07.496409,-8705
15:43:07.496409,-1
15:43:07.496409,-28
15:43:07.496409,-4353
15:43:07.496409,-1
15:43:07.496409,-14
15:43:07.496409,-2049
15:43:07.496409,-1
15:43:07.496409,0
15:43:07.496409,2304
15:43:07.496409,0
15:43:07.496409,18
15:43:07.496409,6656
15:43:07.496409,0
15:43:07.496409,33
15:43:07.496409,8448
15:43:07.496409,0
15:43:07.496409,33
15:43:07.496409,8960
15:43:07.496409,0
15:43:07.496409,30
15:43:07.496409,4608
15:43:07.496409,0
15:43:07.496409,7
15:43:08.127121,2
15:43:08.127121,-2816
15:43:08.127121,-1
15:43:08.127121,-23
15:43:08.127121,-5121
15:43:08.127121,-1
15:43:08.127121,-9
15:43:08.127121,1279
15:43:08.127121,0
15:43:08.127121,9
15:43:08.127121,1024
15:43:08.127121,0
15:43:08.127121,7
15:43:08.127121,2816
15:43:08.127121,0
15:43:08.127121,14
15:43:08.127121,3584
15:43:08.127121,0
15:43:08.127121,16
15:43:08.127121,5376
15:43:08.127121,0
15:43:08.127121,23
15:43:08.127121,5888
15:43:08.127121,0
15:43:08.127121,23
15:43:08.127121,6656
15:43:08.127121,0
15:43:08.127121,26
15:43:08.127121,7168
15:43:08.127121,0
15:43:08.127121,28
15:43:08.127121,7168
15:43:08.127121,0
15:43:08.127121,33
15:43:08.127121,7680
15:43:08.127121,0
15:43:08.127121,26
15:43:08.127121,6656
15:43:08.127121,0
15:43:08.127121,28
15:43:08.127121,7680
15:43:08.127121,0
15:43:08.127121,30
15:43:08.127121,7168
15:43:08.127121,0
15:43:08.127121,26
15:43:08.127121,6656
15:43:08.127121,0
15:43:08.127121,28
15:43:08.127121,6656
15:43:08.127121,0
15:43:08.127121,26
15:43:08.127121,6656
15:43:08.127121,0
15:43:08.127121,23
15:43:08.127121,5888
15:43:08.127121,0
15:43:08.127121,23
15:43:08.127121,5888
15:43:08.127121,0
15:43:08.127121,21
15:43:08.127121,5376
15:43:08.127121,0
15:43:08.127121,21
15:43:08.127121,5376
15:43:08.127121,0
15:43:08.127121,21
15:43:08.127121,5376
15:43:08.127121,0
15:43:08.127121,21
15:43:08.127121,5376
15:43:08.127121,0
15:43:08.127121,21
15:43:08.127121,4608
15:43:08.127121,0
15:43:08.127121,18
15:43:08.127121,5888
15:43:08.127121,0
15:43:08.127121,40
15:43:08.127121,15616
15:43:08.127121,0
15:43:08.127121,64
15:43:08.127121,12544
15:43:08.127121,0
15:43:08.127121,35
15:43:08.127121,5888
15:43:08.127121,0
15:43:08.127121,14
15:43:08.127121,512
15:43:08.127121,0
15:43:08.127121,4
15:43:08.127121,1792
15:43:08.127121,0
15:43:08.127121,4
15:43:08.127121,1024
15:43:08.127121,0
15:43:08.127121,-4
15:43:08.127121,-18433
15:43:08.127121,-1
15:43:08.127121,-168
15:43:08.127121,-31745
15:43:08.127121,-1
15:43:08.127121,177
15:43:08.127121,-27392
15:43:08.127121,2
15:43:08.127121,889
15:43:08.127121,13312
15:43:08.127121,2
15:43:08.127121,175
15:43:08.667069,68
15:43:08.667069,0
15:43:08.667069,0
15:43:08.667069,-73
15:43:08.667069,-15361
15:43:08.667069,-1
15:43:08.667069,-54
15:43:08.667069,-17153
15:43:08.667069,-1
15:43:08.667069,-59
15:43:08.667069,-12289
15:43:08.667069,-1
15:43:08.667069,-49
15:43:08.667069,-9985
15:43:08.667069,-1
15:43:08.667069,-37
15:43:08.667069,-9217
15:43:08.667069,-1
15:43:08.667069,-30
15:43:08.667069,-3329
15:43:08.667069,-1
15:43:08.667069,4
15:43:08.667069,2816
15:43:08.667069,0
15:43:08.667069,14
15:43:08.667069,5888
15:43:08.667069,0
15:43:08.667069,30
15:43:08.667069,8960
15:43:08.667069,0
15:43:08.667069,47
15:43:08.667069,14336
15:43:08.667069,0
15:43:08.667069,56
15:43:08.667069,13824
15:43:08.667069,0
15:43:08.667069,56
15:43:08.667069,13824
15:43:08.667069,0
15:43:08.667069,45
15:43:08.667069,8448
15:43:08.667069,0
15:43:08.667069,18
15:43:08.667069,512
15:43:08.667069,0
15:43:08.667069,-9
15:43:08.667069,-3841
15:43:08.667069,-1
15:43:08.667069,-18
15:43:08.667069,-5121
15:43:08.667069,-1
15:43:08.667069,-23
15:43:08.667069,-4353
15:43:08.667069,-1
15:43:08.667069,-11
15:43:08.667069,-2561
15:43:08.667069,-1
15:43:08.667069,-11
15:43:08.667069,-2049
15:43:08.667069,-1
15:43:08.667069,-4
15:43:08.667069,-769
15:43:08.667069,-1
15:43:08.667069,-2
15:43:08.667069,767
15:43:08.667069,0
15:43:08.667069,0
15:43:08.667069,0
15:43:08.667069,0
15:43:08.667069,0
15:43:08.667069,0
15:43:08.667069,0
15:43:08.667069,2
15:43:08.667069,1792
15:43:08.667069,0
15:43:08.667069,4
15:43:08.667069,1024
15:43:08.667069,0
15:43:08.667069,4
15:43:08.667069,512
15:43:08.667069,0
15:43:08.667069,2
15:43:08.667069,1792
15:43:08.667069,0
15:43:08.667069,4
15:43:08.667069,1792
15:43:08.667069,0
15:43:08.667069,11
15:43:08.667069,3584
15:43:08.667069,0
15:43:08.667069,9
15:43:08.667069,2304
15:43:08.667069,0
15:43:08.667069,11
15:43:08.667069,2304
15:43:08.667069,0
15:43:08.667069,9
15:43:08.667069,2816
15:43:08.667069,0
15:43:08.667069,11
15:43:08.667069,2816
15:43:08.667069,0
15:43:08.667069,11
15:43:08.667069,3584
15:43:08.667069,0
15:43:08.667069,11
15:43:08.667069,1024
15:43:08.667069,0
15:43:08.667069,4
15:43:09.207043,7
15:43:09.207043,4096
15:43:09.207043,0
15:43:09.207043,37
15:43:09.207043,13312
15:43:09.207043,0
15:43:09.207043,47
15:43:09.207043,8448
15:43:09.207043,0
15:43:09.207043,21
15:43:09.207043,3584
15:43:09.207043,0
15:43:09.207043,0
15:43:09.207043,-1024
15:43:09.207043,-1
15:43:09.207043,4
15:43:09.207043,5888
15:43:09.207043,0
15:43:09.207043,26
15:43:09.207043,3584
15:43:09.207043,0
15:43:09.207043,-18
15:43:09.207043,-28673
15:43:09.207043,-1
15:43:09.207043,-189
15:43:09.207043,-8705
15:43:09.207043,-1
15:43:09.207043,389
15:43:09.207043,11008
15:43:09.207043,3
15:43:09.207043,744
15:43:09.207043,12032
15:43:09.207043,1
15:43:09.207043,90
15:43:09.207043,16896
15:43:09.207043,0
15:43:09.207043,-30
15:43:09.207043,-18433
15:43:09.207043,-1
15:43:09.207043,-49
15:43:09.207043,-14081
15:43:09.207043,-1
15:43:09.207043,-64
15:43:09.207043,-12289
15:43:09.207043,-1
15:43:09.207043,-45
15:43:09.207043,-11777
15:43:09.207043,-1
15:43:09.207043,-37
15:43:09.207043,-8193
15:43:09.207043,-1
15:43:09.207043,-28
15:43:09.207043,-5121
15:43:09.207043,-1
15:43:09.207043,-16
15:43:09.207043,-2049
15:43:09.207043,-1
15:43:09.207043,0
15:43:09.207043,2304
15:43:09.207043,0
15:43:09.207043,21
15:43:09.207043,7168
15:43:09.207043,0
15:43:09.207043,37
15:43:09.207043,12544
15:43:09.207043,0
15:43:09.207043,59
15:43:09.207043,16384
15:43:09.207043,0
15:43:09.207043,66
15:43:09.207043,16896
15:43:09.207043,0
15:43:09.207043,56
15:43:09.207043,10752
15:43:09.207043,0
15:43:09.207043,21
15:43:09.207043,1024
15:43:09.207043,0
15:43:09.207043,-4
15:43:09.207043,-3329
15:43:09.207043,-1
15:43:09.207043,-26
15:43:09.207043,-5633
15:43:09.207043,-1
15:43:09.207043,-18
15:43:09.207043,-4353
15:43:09.207043,-1
15:43:09.207043,-18
15:43:09.207043,-3329
15:43:09.207043,-1
15:43:09.207043,-9
15:43:09.207043,-769
15:43:09.207043,-1
15:43:09.207043,0
15:43:09.207043,512
15:43:09.207043,0
15:43:09.207043,7
15:43:09.207043,2816
15:43:09.207043,0
15:43:09.207043,14
15:43:09.207043,4096
15:43:09.207043,0
15:43:09.207043,16
15:43:09.207043,4608
15:43:09.207043,0
15:43:09.207043,18
15:43:09.207043,4608
15:43:09.207043,0
15:43:09.207043,21
15:43:09.748185,23
15:43:09.748185,5888
15:43:09.748185,0
15:43:09.748185,23
15:43:09.748185,7168
15:43:09.748185,0
15:43:09.748185,26
15:43:09.748185,5888
15:43:09.748185,0
15:43:09.748185,28
15:43:09.748185,8448
15:43:09.748185,0
15:43:09.748185,42
15:43:09.748185,13312
15:43:09.748185,0
15:43:09.748185,49
15:43:09.748185,11520
15:43:09.748185,0
15:43:09.748185,47
15:43:09.748185,12032
15:43:09.748185,0
15:43:09.748185,37
15:43:09.748185,6656
15:43:09.748185,0
15:43:09.748185,23
15:43:09.748185,11520
15:43:09.748185,0
15:43:09.748185,75
15:43:09.748185,23552
15:43:09.748185,0
15:43:09.748185,83
15:43:09.748185,15616
15:43:09.748185,0
15:43:09.748185,47
15:43:09.748185,8960
15:43:09.748185,0
15:43:09.748185,28
15:43:09.748185,7680
15:43:09.748185,0
15:43:09.748185,30
15:43:09.748185,7168
15:43:09.748185,0
15:43:09.748185,28
15:43:09.748185,0
15:43:09.748185,0
15:43:09.748185,-97
15:43:09.748185,22271
15:43:09.748185,-1
15:43:09.748185,-42
15:43:09.748185,28159
15:43:09.748185,1
15:43:09.748185,870
15:43:09.748185,-27136
15:43:09.748185,3
15:43:09.748185,441
15:43:09.748185,28416
15:43:09.748185,0
15:43:09.748185,56
15:43:09.748185,-7168
15:43:09.748185,-1
15:43:09.748185,-83
15:43:09.748185,-14849
15:43:09.748185,-1
15:43:09.748185,-56
15:43:09.748185,-17153
15:43:09.748185,-1
15:43:09.748185,-52
15:43:09.748185,-10497
15:43:09.748185,-1
15:43:09.748185,-47
15:43:09.748185,-9985
15:43:09.748185,-1
15:43:09.748185,-28
15:43:09.748185,-6401
15:43:09.748185,-1
15:43:09.748185,-23
15:43:09.748185,-3841
15:43:09.748185,-1
15:43:09.748185,-9
15:43:09.748185,-1537
15:43:09.748185,-1
15:43:09.748185,0
15:43:09.748185,1792
15:43:09.748185,0
15:43:09.748185,16
15:43:09.748185,5888
15:43:09.748185,0
15:43:09.748185,33
15:43:09.748185,10240
15:43:09.748185,0
15:43:09.748185,42
15:43:09.748185,10752
15:43:09.748185,0
15:43:09.748185,37
15:43:09.748185,7168
15:43:09.748185,0
15:43:09.748185,11
15:43:09.748185,1024
15:43:09.748185,0
15:43:09.748185,4
15:43:09.748185,-1792
15:43:09.748185,-1
15:43:09.748185,-18
15:43:09.748185,-5121
15:43:09.748185,-1
15:43:09.748185,-21
15:43:09.748185,-4353
15:43:09.748185,-1
15:43:09.748185,-16
15:43:10.331652,-14
15:43:10.331652,-3329
15:43:10.331652,-1
15:43:10.331652,-16
15:43:10.331652,-2561
15:43:10.331652,-1
15:43:10.331652,-7
15:43:10.331652,2047
15:43:10.331652,0
15:43:10.331652,21
15:43:10.331652,5376
15:43:10.331652,0
15:43:10.331652,21
15:43:10.331652,6656
15:43:10.331652,0
15:43:10.331652,30
15:43:10.331652,8448
15:43:10.331652,0
15:43:10.331652,30
15:43:10.331652,8448
15:43:10.331652,0
15:43:10.331652,37
15:43:10.331652,10240
15:43:10.331652,0
15:43:10.331652,40
15:43:10.331652,11520
15:43:10.331652,0
15:43:10.331652,45
15:43:10.331652,10240
15:43:10.331652,0
15:43:10.331652,40
15:43:10.331652,10752
15:43:10.331652,0
15:43:10.331652,42
15:43:10.331652,10752
15:43:10.331652,0
15:43:10.331652,42
15:43:10.331652,10752
15:43:10.331652,0
15:43:10.331652,40
15:43:10.331652,9472
15:43:10.331652,0
15:43:10.331652,35
15:43:10.331652,7680
15:43:10.331652,0
15:43:10.331652,21
15:43:10.331652,7680
15:43:10.331652,0
15:43:10.331652,61
15:43:10.331652,20480
15:43:10.331652,0
15:43:10.331652,75
15:43:10.331652,15616
15:43:10.331652,0
15:43:10.331652,47
15:43:10.331652,8448
15:43:10.331652,0
15:43:10.331652,26
15:43:10.331652,6656
15:43:10.331652,0
15:43:10.331652,28
15:43:10.331652,7168
15:43:10.331652,0
15:43:10.331652,30
15:43:10.331652,4608
15:43:10.331652,0
15:43:10.331652,-54
15:43:10.331652,28927
15:43:10.331652,-1
15:43:10.331652,-85
15:43:10.331652,-7681
15:43:10.331652,0
15:43:10.331652,702
15:43:10.331652,31488
15:43:10.331652,3
15:43:10.331652,540
15:43:10.331652,-21248
15:43:10.331652,0
15:43:10.331652,80
15:43:10.331652,1792
15:43:10.331652,0
15:43:10.331652,-61
15:43:10.331652,-11265
15:43:10.331652,-1
15:43:10.331652,-37
15:43:10.331652,-13569
15:43:10.331652,-1
15:43:10.331652,-45
15:43:10.331652,-7425
15:43:10.331652,-1
15:43:10.331652,-30
15:43:10.331652,-6913
15:43:10.331652,-1
15:43:10.331652,-21
15:43:10.331652,-3841
15:43:10.331652,-1
15:43:10.331652,-14
15:43:10.331652,-769
15:43:10.331652,-1
15:43:10.331652,2
15:43:10.331652,1024
15:43:10.331652,0
15:43:10.331652,11
15:43:10.331652,5888
15:43:10.331652,0
15:43:10.331652,35
15:43:10.331652,10752
15:43:10.331652,0
15:43:10.331652,52
15:43:10.872461,59
15:43:10.872461,15616
15:43:10.872461,0
15:43:10.872461,66
15:43:10.872461,16896
15:43:10.872461,0
15:43:10.872461,56
15:43:10.872461,10752
15:43:10.872461,0
15:43:10.872461,30
15:43:10.872461,4608
15:43:10.872461,0
15:43:10.872461,11
15:43:10.872461,4096
15:43:10.872461,0
15:43:10.872461,16
15:43:10.872461,2816
15:43:10.872461,0
15:43:10.872461,9
15:43:10.872461,2816
15:43:10.872461,0
15:43:10.872461,14
15:43:10.872461,5376
15:43:10.872461,0
15:43:10.872461,23
15:43:10.872461,5376
15:43:10.872461,0
15:43:10.872461,21
15:43:10.872461,5888
15:43:10.872461,0
15:43:10.872461,23
15:43:10.872461,7168
15:43:10.872461,0
15:43:10.872461,33
15:43:10.872461,8448
15:43:10.872461,0
15:43:10.872461,28
15:43:10.872461,7168
15:43:10.872461,0
15:43:10.872461,35
15:43:10.872461,8960
15:43:10.872461,0
15:43:10.872461,35
15:43:10.872461,10752
15:43:10.872461,0
15:43:10.872461,45
15:43:10.872461,10240
15:43:10.872461,0
15:43:10.872461,40
15:43:10.872461,11520
15:43:10.872461,0
15:43:10.872461,47
15:43:10.872461,12032
15:43:10.872461,0
15:43:10.872461,42
15:43:10.872461,10240
15:43:10.872461,0
15:43:10.872461,35
15:43:10.872461,7680
15:43:10.872461,0
15:43:10.872461,54
15:43:10.872461,22272
15:43:10.872461,0
15:43:10.872461,97
15:43:10.872461,21760
15:43:10.872461,0
15:43:10.872461,68
15:43:10.872461,15104
15:43:10.872461,0
15:43:10.872461,47
15:43:10.872461,8960
15:43:10.872461,0
15:43:10.872461,37
15:43:10.872461,11520
15:43:10.872461,0
15:43:10.872461,45
15:43:10.872461,9472
15:43:10.872461,0
15:43:10.872461,16
15:43:10.872461,-15616
15:43:10.872461,-1
15:43:10.872461,-147
15:43:10.872461,-14849
15:43:10.872461,-1
15:43:10.872461,291
15:43:10.872461,-4864
15:43:10.872461,2
15:43:10.872461,842
15:43:10.872461,-15872
15:43:10.872461,1
15:43:10.872461,144
15:43:10.872461,24064
15:43:10.872461,0
15:43:10.872461,16
15:43:10.872461,-11520
15:43:10.872461,-1
15:43:10.872461,-28
15:43:10.872461,-6913
15:43:10.872461,-1
15:43:10.872461,-35
15:43:10.872461,-6401
15:43:10.872461,-1
15:43:10.872461,-21
15:43:10.872461,-5121
15:43:10.872461,-1
15:43:10.872461,-14
15:43:10.872461,-1537
15:43:10.872461,-1
15:43:10.872461,-2
15:43:11.456937,2
15:43:11.456937,1792
15:43:11.456937,0
15:43:11.456937,16
15:43:11.456937,5888
15:43:11.456937,0
15:43:11.456937,30
15:43:11.456937,12544
15:43:11.456937,0
15:43:11.456937,71
15:43:11.456937,20480
15:43:11.456937,0
15:43:11.456937,85
15:43:11.456937,24064
15:43:11.456937,0
15:43:11.456937,94
15:43:11.456937,24064
15:43:11.456937,0
15:43:11.456937,90
15:43:11.456937,19200
15:43:11.456937,0
15:43:11.456937,56
15:43:11.456937,9472
15:43:11.456937,0
15:43:11.456937,11
15:43:11.456937,-1792
15:43:11.456937,-1
15:43:11.456937,-14
15:43:11.456937,-5633
15:43:11.456937,-1
15:43:11.456937,-23
15:43:11.456937,-3841
15:43:11.456937,-1
15:43:11.456937,-18
15:43:11.456937,-4353
15:43:11.456937,-1
15:43:11.456937,-11
15:43:11.456937,-2049
15:43:11.456937,-1
15:43:11.456937,-11
15:43:11.456937,-1537
15:43:11.456937,-1
15:43:11.456937,-2
15:43:11.456937,767
15:43:11.456937,0
15:43:11.456937,-2
15:43:11.456937,255
15:43:11.456937,0
15:43:11.456937,2
15:43:11.456937,512
15:43:11.456937,0
15:43:11.456937,4
15:43:11.456937,2304
15:43:11.456937,0
15:43:11.456937,9
15:43:11.456937,2304
15:43:11.456937,0
15:43:11.456937,9
15:43:11.456937,2816
15:43:11.456937,0
15:43:11.456937,11
15:43:11.456937,2816
15:43:11.456937,0
15:43:11.456937,9
15:43:11.456937,0
15:43:11.456937,0
15:43:11.456937,-7
15:43:11.456937,-769
15:43:11.456937,-1
15:43:11.456937,18
15:43:11.456937,12544
15:43:11.456937,0
15:43:11.456937,64
15:43:11.456937,13312
15:43:11.456937,0
15:43:11.456937,26
15:43:11.456937,3584
15:43:11.456937,0
15:43:11.456937,7
15:43:11.456937,1024
15:43:11.456937,0
15:43:11.456937,7
15:43:11.456937,1792
15:43:11.456937,0
15:43:11.456937,9
15:43:11.456937,2816
15:43:11.456937,0
15:43:11.456937,-11
15:43:11.456937,-27649
15:43:11.456937,-1
15:43:11.456937,-187
15:43:11.456937,-14081
15:43:11.456937,-1
15:43:11.456937,353
15:43:11.456937,15872
15:43:11.456937,3
15:43:11.456937,837
15:43:11.456937,30208
15:43:11.456937,1
15:43:11.456937,102
15:43:11.456937,17408
15:43:11.456937,0
15:43:11.456937,-23
15:43:11.456937,-17921
15:43:11.456937,-1
15:43:11.456937,-45
15:43:11.456937,-12289
15:43:11.456937,-1
15:43:11.456937,-61
15:43:12.042270,-45
15:43:12.042270,-9217
15:43:12.042270,-1
15:43:12.042270,-35
15:43:12.042270,-6401
15:43:12.042270,-1
15:43:12.042270,-18
15:43:12.042270,-4353
15:43:12.042270,-1
15:43:12.042270,-14
15:43:12.042270,-769
15:43:12.042270,-1
15:43:12.042270,9
15:43:12.042270,7168
15:43:12.042270,0
15:43:12.042270,42
15:43:12.042270,12032
15:43:12.042270,0
15:43:12.042270,59
15:43:12.042270,19200
15:43:12.042270,0
15:43:12.042270,85
15:43:12.042270,22272
15:43:12.042270,0
15:43:12.042270,90
15:43:12.042270,22272
15:43:12.042270,0
15:43:12.042270,83
15:43:12.042270,18176
15:43:12.042270,0
15:43:12.042270,54
15:43:12.042270,8960
15:43:12.042270,0
15:43:12.042270,16
15:43:12.042270,512
15:43:12.042270,0
15:43:12.042270,-9
15:43:12.042270,-2049
15:43:12.042270,-1
15:43:12.042270,-7
15:43:12.042270,-2049
15:43:12.042270,-1
15:43:12.042270,-11
15:43:12.042270,-2049
15:43:12.042270,-1
15:43:12.042270,-7
15:43:12.042270,-1537
15:43:12.042270,-1
15:43:12.042270,0
15:43:12.042270,1024
15:43:12.042270,0
15:43:12.042270,2
15:43:12.042270,1024
15:43:12.042270,0
15:43:12.042270,7
15:43:12.042270,2304
15:43:12.042270,0
15:43:12.042270,16
15:43:12.042270,4608
15:43:12.042270,0
15:43:12.042270,16
15:43:12.042270,4608
15:43:12.042270,0
15:43:12.042270,18
15:43:12.042270,5376
15:43:12.042270,0
15:43:12.042270,23
15:43:12.042270,5888
15:43:12.042270,0
15:43:12.042270,21
15:43:12.042270,6656
15:43:12.042270,0
15:43:12.042270,28
15:43:12.042270,5888
15:43:12.042270,0
15:43:12.042270,23
15:43:12.042270,4608
15:43:12.042270,0
15:43:12.042270,11
15:43:12.042270,2304
15:43:12.042270,0
15:43:12.042270,30
15:43:12.042270,15616
15:43:12.042270,0
15:43:12.042270,73
15:43:12.042270,15616
15:43:12.042270,0
15:43:12.042270,40
15:43:12.042270,5888
15:43:12.042270,0
15:43:12.042270,14
15:43:12.042270,2816
15:43:12.042270,0
15:43:12.042270,14
15:43:12.042270,3584
15:43:12.042270,0
15:43:12.042270,11
15:43:12.042270,3584
15:43:12.042270,0
15:43:12.042270,-11
15:43:12.042270,-25857
15:43:12.042270,-1
15:43:12.042270,-177
15:43:12.042270,-16129
15:43:12.042270,-1
15:43:12.042270,329
15:43:12.042270,17152
15:43:12.042270,3
15:43:12.042270,906
15:43:12.582366,448
15:43:12.582366,28416
15:43:12.582366,0
15:43:12.582366,47
15:43:12.582366,-8960
15:43:12.582366,-1
15:43:12.582366,-85
15:43:12.582366,-14081
15:43:12.582366,-1
15:43:12.582366,-54
15:43:12.582366,-16129
15:43:12.582366,-1
15:43:12.582366,-52
15:43:12.582366,-11777
15:43:12.582366,-1
15:43:12.582366,-47
15:43:12.582366,-8705
15:43:12.582366,-1
15:43:12.582366,-18
15:43:12.582366,-1537
15:43:12.582366,-1
15:43:12.582366,-7
15:43:12.582366,-769
15:43:12.582366,-1
15:43:12.582366,2
15:43:12.582366,1792
15:43:12.582366,0
15:43:12.582366,16
15:43:12.582366,6656
15:43:12.582366,0
15:43:12.582366,35
15:43:12.582366,12032
15:43:12.582366,0
15:43:12.582366,54
15:43:12.582366,15104
15:43:12.582366,0
15:43:12.582366,64
15:43:12.582366,16384
15:43:12.582366,0
15:43:12.582366,56
15:43:12.582366,12544
15:43:12.582366,0
15:43:12.582366,37
15:43:12.582366,5888
15:43:12.582366,0
15:43:12.582366,11
15:43:12.582366,512
15:43:12.582366,0
15:43:12.582366,-7
15:43:12.582366,-2561
15:43:12.582366,-1
15:43:12.582366,-9
15:43:12.582366,-1537
15:43:12.582366,-1
15:43:12.582366,-4
15:43:12.582366,-257
15:43:12.582366,-1
15:43:12.582366,2
15:43:12.582366,1024
15:43:12.582366,0
15:43:12.582366,7
15:43:12.582366,2304
15:43:12.582366,0
15:43:12.582366,11
15:43:12.582366,3584
15:43:12.582366,0
15:43:12.582366,14
15:43:12.582366,3584
15:43:12.582366,0
15:43:12.582366,14
15:43:12.582366,3584
15:43:12.582366,0
15:43:12.582366,16
15:43:12.582366,5376
15:43:12.582366,0
15:43:12.582366,23
15:43:12.582366,5376
15:43:12.582366,0
15:43:12.582366,23
15:43:12.582366,5888
15:43:12.582366,0
15:43:12.582366,23
15:43:12.582366,5888
15:43:12.582366,0
15:43:12.582366,23
15:43:12.582366,4608
15:43:12.582366,0
15:43:12.582366,18
15:43:12.582366,5376
15:43:12.582366,0
15:43:12.582366,18
15:43:12.582366,4096
15:43:12.582366,0
15:43:12.582366,16
15:43:12.582366,4096
15:43:12.582366,0
15:43:12.582366,18
15:43:12.582366,5376
15:43:12.582366,0
15:43:12.582366,21
15:43:12.582366,4608
15:43:12.582366,0
15:43:12.582366,16
15:43:12.582366,4096
15:43:12.582366,0
15:43:12.582366,14
15:43:12.582366,3584
15:43:12.582366,0
15:43:12.582366,28
15:43:13.122001,59
15:43:13.122001,19200
15:43:13.122001,0
15:43:13.122001,66
15:43:13.122001,12032
15:43:13.122001,0
15:43:13.122001,35
15:43:13.122001,5888
15:43:13.122001,0
15:43:13.122001,11
15:43:13.122001,3584
15:43:13.122001,0
15:43:13.122001,18
15:43:13.122001,5888
15:43:13.122001,0
15:43:13.122001,35
15:43:13.122001,7168
15:43:13.122001,0
15:43:13.122001,-35
15:43:13.122001,31231
15:43:13.122001,-1
15:43:13.122001,-125
15:43:13.122001,-32513
15:43:13.122001,0
15:43:13.122001,604
15:43:13.122001,-29184
15:43:13.122001,3
15:43:13.122001,647
15:43:13.122001,-10496
15:43:13.122001,0
15:43:13.122001,78
15:43:13.122001,4096
15:43:13.122001,0
15:43:13.122001,-64
15:43:13.122001,-16129
15:43:13.122001,-1
15:43:13.122001,-49
15:43:13.122001,-16641
15:43:13.122001,-1
15:43:13.122001,-66
15:43:13.122001,-12289
15:43:13.122001,-1
15:43:13.122001,-47
15:43:13.122001,-11265
15:43:13.122001,-1
15:43:13.122001,-35
15:43:13.122001,-6913
15:43:13.122001,-1
15:43:13.122001,-26
15:43:13.122001,-5121
15:43:13.122001,-1
15:43:13.122001,-14
15:43:13.122001,-2049
15:43:13.122001,-1
15:43:13.122001,-2
15:43:13.122001,1279
15:43:13.122001,0
15:43:13.122001,14
15:43:13.122001,5888
15:43:13.122001,0
15:43:13.122001,30
15:43:13.122001,8960
15:43:13.122001,0
15:43:13.122001,37
15:43:13.122001,10240
15:43:13.122001,0
15:43:13.122001,42
15:43:13.122001,10240
15:43:13.122001,0
15:43:13.122001,30
15:43:13.122001,5376
15:43:13.122001,0
15:43:13.122001,11
15:43:13.122001,0
15:43:13.122001,0
15:43:13.122001,-9
15:43:13.122001,-3841
15:43:13.122001,-1
15:43:13.122001,-21
15:43:13.122001,-5121
15:43:13.122001,-1
15:43:13.122001,-16
15:43:13.122001,-3841
15:43:13.122001,-1
15:43:13.122001,-16
15:43:13.122001,-2561
15:43:13.122001,-1
15:43:13.122001,-7
15:43:13.122001,-1537
15:43:13.122001,-1
15:43:13.122001,-7
15:43:13.122001,-257
15:43:13.122001,-1
15:43:13.122001,4
15:43:13.122001,2816
15:43:13.122001,0
15:43:13.122001,14
15:43:13.122001,3584
15:43:13.122001,0
15:43:13.122001,18
15:43:13.122001,4096
15:43:13.122001,0
15:43:13.122001,16
15:43:13.122001,4608
15:43:13.122001,0
15:43:13.122001,18
15:43:13.122001,4608
15:43:13.122001,0
15:43:13.122001,18
15:43:13.661457,18
15:43:13.661457,4608
15:43:13.661457,0
15:43:13.661457,16
15:43:13.661457,3584
15:43:13.661457,0
15:43:13.661457,14
15:43:13.661457,3584
15:43:13.661457,0
15:43:13.661457,21
15:43:13.661457,8960
15:43:13.661457,0
15:43:13.661457,40
15:43:13.661457,8448
15:43:13.661457,0
15:43:13.661457,33
15:43:13.661457,8960
15:43:13.661457,0
15:43:13.661457,33
15:43:13.661457,7680
15:43:13.661457,0
15:43:13.661457,28
15:43:13.661457,7168
15:43:13.661457,0
15:43:13.661457,26
15:43:13.661457,6656
15:43:13.661457,0
15:43:13.661457,26
15:43:13.661457,6656
15:43:13.661457,0
15:43:13.661457,23
15:43:13.661457,5888
15:43:13.661457,0
15:43:13.661457,21
15:43:13.661457,7168
15:43:13.661457,0
15:43:13.661457,54
15:43:13.661457,19968
15:43:13.661457,0
15:43:13.661457,68
15:43:13.661457,12544
15:43:13.661457,0
15:43:13.661457,37
15:43:13.661457,6656
15:43:13.661457,0
15:43:13.661457,11
15:43:13.661457,2304
15:43:13.661457,0
15:43:13.661457,11
15:43:13.661457,2304
15:43:13.661457,0
15:43:13.661457,7
15:43:13.661457,2304
15:43:13.661457,0
15:43:13.661457,-23
15:43:13.661457,-30465
15:43:13.661457,-1
15:43:13.661457,-185
15:43:13.661457,-10497
15:43:13.661457,-1
15:43:13.661457,362
15:43:13.661457,9216
15:43:13.661457,3
15:43:13.661457,778
15:43:13.661457,23040
15:43:13.661457,1
15:43:13.661457,102
15:43:13.661457,12032
15:43:13.661457,0
15:43:13.661457,-45
15:43:13.661457,-18945
15:43:13.661457,-1
15:43:13.661457,-49
15:43:13.661457,-16129
15:43:13.661457,-1
15:43:13.661457,-73
15:43:13.661457,-13569
15:43:13.661457,-1
15:43:13.661457,-45
15:43:13.661457,-10497
15:43:13.661457,-1
15:43:13.661457,-33
15:43:13.661457,-6401
15:43:13.661457,-1
15:43:13.661457,-21
15:43:13.661457,-2561
15:43:13.661457,-1
15:43:13.661457,-4
15:43:13.661457,255
15:43:13.661457,0
15:43:13.661457,4
15:43:13.661457,2304
15:43:13.661457,0
15:43:13.661457,16
15:43:13.661457,5888
15:43:13.661457,0
15:43:13.661457,33
15:43:13.661457,10240
15:43:13.661457,0
15:43:13.661457,42
15:43:13.661457,10240
15:43:13.661457,0
15:43:13.661457,40
15:43:13.661457,9472
15:43:13.661457,0
15:43:13.661457,35
15:43:13.661457,6656
15:43:13.661457,0
15:43:13.661457,14
15:43:14.247063,2
15:43:14.247063,-2304
15:43:14.247063,-1
15:43:14.247063,-18
15:43:14.247063,-4353
15:43:14.247063,-1
15:43:14.247063,-4
15:43:14.247063,1279
15:43:14.247063,0
15:43:14.247063,0
15:43:14.247063,512
15:43:14.247063,0
15:43:14.247063,7
15:43:14.247063,2304
15:43:14.247063,0
15:43:14.247063,14
15:43:14.247063,4608
15:43:14.247063,0
15:43:14.247063,16
15:43:14.247063,4608
15:43:14.247063,0
15:43:14.247063,21
15:43:14.247063,5888
15:43:14.247063,0
15:43:14.247063,23
15:43:14.247063,6656
15:43:14.247063,0
15:43:14.247063,26
15:43:14.247063,5888
15:43:14.247063,0
15:43:14.247063,23
15:43:14.247063,6656
15:43:14.247063,0
15:43:14.247063,26
15:43:14.247063,6656
15:43:14.247063,0
15:43:14.247063,26
15:43:14.247063,6656
15:43:14.247063,0
15:43:14.247063,23
15:43:14.247063,5888
15:43:14.247063,0
15:43:14.247063,26
15:43:14.247063,5888
15:43:14.247063,0
15:43:14.247063,23
15:43:14.247063,5376
15:43:14.247063,0
15:43:14.247063,18
15:43:14.247063,5376
15:43:14.247063,0
15:43:14.247063,23
15:43:14.247063,5376
15:43:14.247063,0
15:43:14.247063,21
15:43:14.247063,4608
15:43:14.247063,0
15:43:14.247063,18
15:43:14.247063,5888
15:43:14.247063,0
15:43:14.247063,21
15:43:14.247063,4608
15:43:14.247063,0
15:43:14.247063,18
15:43:14.247063,5376
15:43:14.247063,0
15:43:14.247063,23
15:43:14.247063,6656
15:43:14.247063,0
15:43:14.247063,23
15:43:14.247063,5376
15:43:14.247063,0
15:43:14.247063,23
15:43:14.247063,7168
15:43:14.247063,0
15:43:14.247063,37
15:43:14.247063,15616
15:43:14.247063,0
15:43:14.247063,83
15:43:14.247063,19200
15:43:14.247063,0
15:43:14.247063,56
15:43:14.247063,11520
15:43:14.247063,0
15:43:14.247063,33
15:43:14.247063,5376
15:43:14.247063,0
15:43:14.247063,18
15:43:14.247063,5888
15:43:14.247063,0
15:43:14.247063,21
15:43:14.247063,5376
15:43:14.247063,0
15:43:14.247063,26
15:43:14.247063,512
15:43:14.247063,0
15:43:14.247063,-90
15:43:14.247063,24063
15:43:14.247063,-1
15:43:14.247063,-45
15:43:14.247063,20735
15:43:14.247063,1
15:43:14.247063,789
15:43:14.247063,12800
15:43:14.247063,3
15:43:14.247063,400
15:43:14.247063,-32768
15:43:14.247063,0
15:43:14.247063,66
15:43:14.832795,-23
15:43:14.832795,-16129
15:43:14.832795,-1
15:43:14.832795,-40
15:43:14.832795,-11265
15:43:14.832795,-1
15:43:14.832795,-54
15:43:14.832795,-10497
15:43:14.832795,-1
15:43:14.832795,-33
15:43:14.832795,-5121
15:43:14.832795,-1
15:43:14.832795,-2
15:43:14.832795,767
15:43:14.832795,0
15:43:14.832795,0
15:43:14.832795,1024
15:43:14.832795,0
15:43:14.832795,9
15:43:14.832795,2816
15:43:14.832795,0
15:43:14.832795,16
15:43:14.832795,5888
15:43:14.832795,0
15:43:14.832795,28
15:43:14.832795,8448
15:43:14.832795,0
15:43:14.832795,37
15:43:14.832795,11520
15:43:14.832795,0
15:43:14.832795,49
15:43:14.832795,12544
15:43:14.832795,0
15:43:14.832795,45
15:43:14.832795,10752
15:43:14.832795,0
15:43:14.832795,40
15:43:14.832795,7680
15:43:14.832795,0
15:43:14.832795,16
15:43:14.832795,1792
15:43:14.832795,0
15:43:14.832795,-2
15:43:14.832795,-2561
15:43:14.832795,-1
15:43:14.832795,-21
15:43:14.832795,-5633
15:43:14.832795,-1
15:43:14.832795,-21
15:43:14.832795,-4353
15:43:14.832795,-1
15:43:14.832795,-18
15:43:14.832795,-3329
15:43:14.832795,-1
15:43:14.832795,-4
15:43:14.832795,-257
15:43:14.832795,-1
15:43:14.832795,-4
15:43:14.832795,-257
15:43:14.832795,-1
15:43:14.832795,2
15:43:14.832795,2304
15:43:14.832795,0
15:43:14.832795,14
15:43:14.832795,3584
15:43:14.832795,0
15:43:14.832795,14
15:43:14.832795,3584
15:43:14.832795,0
15:43:14.832795,16
15:43:14.832795,4096
15:43:14.832795,0
15:43:14.832795,18
15:43:14.832795,4608
15:43:14.832795,0
15:43:14.832795,18
15:43:14.832795,4608
15:43:14.832795,0
15:43:14.832795,18
15:43:14.832795,4608
15:43:14.832795,0
15:43:14.832795,16
15:43:14.832795,4096
15:43:14.832795,0
15:43:14.832795,14
15:43:14.832795,4096
15:43:14.832795,0
15:43:14.832795,16
15:43:14.832795,4608
15:43:14.832795,0
15:43:14.832795,21
15:43:14.832795,5376
15:43:14.832795,0
15:43:14.832795,21
15:43:14.832795,4608
15:43:14.832795,0
15:43:14.832795,21
15:43:14.832795,6656
15:43:14.832795,0
15:43:14.832795,28
15:43:14.832795,7168
15:43:14.832795,0
15:43:14.832795,33
15:43:14.832795,8960
15:43:14.832795,0
15:43:14.832795,35
15:43:14.832795,8960
15:43:14.832795,0
15:43:14.832795,35
15:43:15.372299,37
15:43:15.372299,8960
15:43:15.372299,0
15:43:15.372299,33
15:43:15.372299,11520
15:43:15.372299,0
15:43:15.372299,73
15:43:15.372299,21760
15:43:15.372299,0
15:43:15.372299,66
15:43:15.372299,12544
15:43:15.372299,0
15:43:15.372299,37
15:43:15.372299,6656
15:43:15.372299,0
15:43:15.372299,26
15:43:15.372299,10240
15:43:15.372299,0
15:43:15.372299,42
15:43:15.372299,9472
15:43:15.372299,0
15:43:15.372299,37
15:43:15.372299,8448
15:43:15.372299,0
15:43:15.372299,-18
15:43:15.372299,-30465
15:43:15.372299,-1
15:43:15.372299,-135
15:43:15.372299,23807
15:43:15.372299,0
15:43:15.372299,547
15:43:15.372299,28672
15:43:15.372299,3
15:43:15.372299,668
15:43:15.372299,-1280
15:43:15.372299,0
15:43:15.372299,97
15:43:15.372299,8960
15:43:15.372299,0
15:43:15.372299,-47
15:43:15.372299,-12289
15:43:15.372299,-1
15:43:15.372299,-33
15:43:15.372299,-13057
15:43:15.372299,-1
15:43:15.372299,-54
15:43:15.372299,-9985
15:43:15.372299,-1
15:43:15.372299,-35
15:43:15.372299,-7425
15:43:15.372299,-1
15:43:15.372299,-18
15:43:15.372299,-3841
15:43:15.372299,-1
15:43:15.372299,-14
15:43:15.372299,-2049
15:43:15.372299,-1
15:43:15.372299,-2
15:43:15.372299,767
15:43:15.372299,0
15:43:15.372299,9
15:43:15.372299,2816
15:43:15.372299,0
15:43:15.372299,18
15:43:15.372299,6656
15:43:15.372299,0
15:43:15.372299,33
15:43:15.372299,9472
15:43:15.372299,0
15:43:15.372299,37
15:43:15.372299,8960
15:43:15.372299,0
15:43:15.372299,33
15:43:15.372299,7680
15:43:15.372299,0
15:43:15.372299,26
15:43:15.372299,4096
15:43:15.372299,0
15:43:15.372299,4
15:43:15.372299,-1792
15:43:15.372299,-1
15:43:15.372299,-18
15:43:15.372299,-6401
15:43:15.372299,-1
15:43:15.372299,-28
15:43:15.372299,-6913
15:43:15.372299,-1
15:43:15.372299,-23
15:43:15.372299,-5633
15:43:15.372299,-1
15:43:15.372299,-26
15:43:15.372299,-5633
15:43:15.372299,-1
15:43:15.372299,-18
15:43:15.372299,-3329
15:43:15.372299,-1
15:43:15.372299,-11
15:43:15.372299,-2561
15:43:15.372299,-1
15:43:15.372299,-9
15:43:15.372299,-769
15:43:15.372299,-1
15:43:15.372299,0
15:43:15.372299,512
15:43:15.372299,0
15:43:15.372299,4
15:43:15.372299,1792
15:43:15.372299,0
15:43:15.372299,9
15:43:15.957346,9
15:43:15.957346,2816
15:43:15.957346,0
15:43:15.957346,16
15:43:15.957346,4096
15:43:15.957346,0
15:43:15.957346,14
15:43:15.957346,4096
15:43:15.957346,0
15:43:15.957346,18
15:43:15.957346,7680
15:43:15.957346,0
15:43:15.957346,42
15:43:15.957346,10240
15:43:15.957346,0
15:43:15.957346,35
15:43:15.957346,9472
15:43:15.957346,0
15:43:15.957346,42
15:43:15.957346,9472
15:43:15.957346,0
15:43:15.957346,33
15:43:15.957346,7680
15:43:15.957346,0
15:43:15.957346,33
15:43:15.957346,10240
15:43:15.957346,0
15:43:15.957346,37
15:43:15.957346,8448
15:43:15.957346,0
15:43:15.957346,33
15:43:15.957346,8960
15:43:15.957346,0
15:43:15.957346,28
15:43:15.957346,6656
15:43:15.957346,0
15:43:15.957346,49
15:43:15.957346,19968
15:43:15.957346,0
15:43:15.957346,75
15:43:15.957346,14336
15:43:15.957346,0
15:43:15.957346,40
15:43:15.957346,7168
15:43:15.957346,0
15:43:15.957346,14
15:43:15.957346,1792
15:43:15.957346,0
15:43:15.957346,9
15:43:15.957346,2304
15:43:15.957346,0
15:43:15.957346,7
15:43:15.957346,1024
15:43:15.957346,0
15:43:15.957346,-14
15:43:15.957346,-23809
15:43:15.957346,-1
15:43:15.957346,-189
15:43:15.957346,-28161
15:43:15.957346,-1
15:43:15.957346,234
15:43:15.957346,-19968
15:43:15.957346,2
15:43:15.957346,799
15:43:15.957346,-21760
15:43:15.957346,1
15:43:15.957346,118
15:43:15.957346,13824
15:43:15.957346,0
15:43:15.957346,-23
15:43:15.957346,-20993
15:43:15.957346,-1
15:43:15.957346,-66
15:43:15.957346,-15361
15:43:15.957346,-1
15:43:15.957346,-68
15:43:15.957346,-16129
15:43:15.957346,-1
15:43:15.957346,-54
15:43:15.957346,-13057
15:43:15.957346,-1
15:43:15.957346,-47
15:43:15.957346,-9985
15:43:15.957346,-1
15:43:15.957346,-37
15:43:15.957346,-8705
15:43:15.957346,-1
15:43:15.957346,-28
15:43:15.957346,-5121
15:43:15.957346,-1
15:43:15.957346,-16
15:43:15.957346,-3329
15:43:15.957346,-1
15:43:15.957346,-4
15:43:15.957346,2047
15:43:15.957346,0
15:43:15.957346,16
15:43:15.957346,5376
15:43:15.957346,0
15:43:15.957346,28
15:43:15.957346,7680
15:43:15.957346,0
15:43:15.957346,33
15:43:15.957346,8448
15:43:15.957346,0
15:43:15.957346,23
15:43:15.957346,2304
15:43:15.957346,0
15:43:15.957346,-4
15:43:16.496638,-18
15:43:16.496638,-8705
15:43:16.496638,-1
15:43:16.496638,-49
15:43:16.496638,-14849
15:43:16.496638,-1
15:43:16.496638,-54
15:43:16.496638,-12289
15:43:16.496638,-1
15:43:16.496638,-52
15:43:16.496638,-13057
15:43:16.496638,-1
15:43:16.496638,-49
15:43:16.496638,-10497
15:43:16.496638,-1
15:43:16.496638,-30
15:43:16.496638,-3841
15:43:16.496638,-1
15:43:16.496638,-4
15:43:16.496638,-769
15:43:16.496638,-1
15:43:16.496638,-2
15:43:16.496638,255
15:43:16.496638,0
15:43:16.496638,0
15:43:16.496638,1024
15:43:16.496638,0
15:43:16.496638,11
15:43:16.496638,4096
15:43:16.496638,0
15:43:16.496638,18
15:43:16.496638,5376
15:43:16.496638,0
15:43:16.496638,23
15:43:16.496638,6656
15:43:16.496638,0
15:43:16.496638,23
15:43:16.496638,5888
15:43:16.496638,0
15:43:16.496638,23
15:43:16.496638,5888
15:43:16.496638,0
15:43:16.496638,23
15:43:16.496638,6656
15:43:16.496638,0
15:43:16.496638,23
15:43:16.496638,3584
15:43:16.496638,0
15:43:16.496638,4
15:43:16.496638,2304
15:43:16.496638,0
15:43:16.496638,33
15:43:16.496638,16384
15:43:16.496638,0
15:43:16.496638,75
15:43:16.496638,15616
15:43:16.496638,0
15:43:16.496638,40
15:43:16.496638,5888
15:43:16.496638,0
15:43:16.496638,18
15:43:16.496638,5376
15:43:16.496638,0
15:43:16.496638,23
15:43:16.496638,5888
15:43:16.496638,0
15:43:16.496638,21
15:43:16.496638,4608
15:43:16.496638,0
15:43:16.496638,-9
15:43:16.496638,-27649
15:43:16.496638,-1
15:43:16.496638,-185
15:43:16.496638,-10497
15:43:16.496638,-1
15:43:16.496638,374
15:43:16.496638,17664
15:43:16.496638,3
15:43:16.496638,820
15:43:16.496638,26624
15:43:16.496638,1
15:43:16.496638,97
15:43:16.496638,14336
15:43:16.496638,0
15:43:16.496638,-35
15:43:16.496638,-18945
15:43:16.496638,-1
15:43:16.496638,-49
15:43:16.496638,-14849
15:43:16.496638,-1
15:43:16.496638,-71
15:43:16.496638,-14081
15:43:16.496638,-1
15:43:16.496638,-49
15:43:16.496638,-12289
15:43:16.496638,-1
15:43:16.496638,-40
15:43:16.496638,-8705
15:43:16.496638,-1
15:43:16.496638,-33
15:43:16.496638,-6913
15:43:16.496638,-1
15:43:16.496638,-21
15:43:16.496638,-3841
15:43:16.496638,-1
15:43:16.496638,-11
15:43:16.496638,-769
15:43:16.496638,-1
15:43:16.496638,4
15:43:17.037062,14
15:43:17.037062,5376
15:43:17.037062,0
15:43:17.037062,30
15:43:17.037062,8448
15:43:17.037062,0
15:43:17.037062,35
15:43:17.037062,9472
15:43:17.037062,0
15:43:17.037062,33
15:43:17.037062,7168
15:43:17.037062,0
15:43:17.037062,30
15:43:17.037062,6656
15:43:17.037062,0
15:43:17.037062,7
15:43:17.037062,-512
15:43:17.037062,-1
15:43:17.037062,-7
15:43:17.037062,-3329
15:43:17.037062,-1
15:43:17.037062,-14
15:43:17.037062,-2561
15:43:17.037062,-1
15:43:17.037062,-11
15:43:17.037062,-2049
15:43:17.037062,-1
15:43:17.037062,-7
15:43:17.037062,-1537
15:43:17.037062,-1
15:43:17.037062,-4
15:43:17.037062,-257
15:43:17.037062,-1
15:43:17.037062,0
15:43:17.037062,512
15:43:17.037062,0
15:43:17.037062,4
15:43:17.037062,1792
15:43:17.037062,0
15:43:17.037062,7
15:43:17.037062,2304
15:43:17.037062,0
15:43:17.037062,9
15:43:17.037062,2304
15:43:17.037062,0
15:43:17.037062,11
15:43:17.037062,3584
15:43:17.037062,0
15:43:17.037062,16
15:43:17.037062,3584
15:43:17.037062,0
15:43:17.037062,14
15:43:17.037062,3584
15:43:17.037062,0
15:43:17.037062,14
15:43:17.037062,4608
15:43:17.037062,0
15:43:17.037062,21
15:43:17.037062,4608
15:43:17.037062,0
15:43:17.037062,16
15:43:17.037062,4096
15:43:17.037062,0
15:43:17.037062,9
15:43:17.037062,512
15:43:17.037062,0
15:43:17.037062,14
15:43:17.037062,11520
15:43:17.037062,0
15:43:17.037062,73
15:43:17.037062,18688
15:43:17.037062,0
15:43:17.037062,56
15:43:17.037062,10240
15:43:17.037062,0
15:43:17.037062,26
15:43:17.037062,5376
15:43:17.037062,0
15:43:17.037062,23
15:43:17.037062,6656
15:43:17.037062,0
15:43:17.037062,26
15:43:17.037062,6656
15:43:17.037062,0
15:43:17.037062,18
15:43:17.037062,-10240
15:43:17.037062,-1
15:43:17.037062,-144
15:43:17.037062,30207
15:43:17.037062,-1
15:43:17.037062,130
15:43:17.037062,-27392
15:43:17.037062,2
15:43:17.037062,1027
15:43:17.037062,-7168
15:43:17.037062,2
15:43:17.037062,237
15:43:17.037062,19200
15:43:17.037062,0
15:43:17.037062,28
15:43:17.037062,-15104
15:43:17.037062,-1
15:43:17.037062,-66
15:43:17.037062,-11265
15:43:17.037062,-1
15:43:17.037062,-61
15:43:17.037062,-15361
15:43:17.037062,-1
15:43:17.037062,-42
15:43:17.711862,-42
15:43:17.711862,-10497
15:43:17.711862,-1
15:43:17.711862,-33
15:43:17.711862,-5121
15:43:17.711862,-1
15:43:17.711862,-14
15:43:17.711862,255
15:43:17.711862,0
15:43:17.711862,14
15:43:17.711862,4096
15:43:17.711862,0
15:43:17.711862,16
15:43:17.711862,5888
15:43:17.711862,0
15:43:17.711862,30
15:43:17.711862,9472
15:43:17.711862,0
15:43:17.711862,42
15:43:17.711862,11520
15:43:17.711862,0
15:43:17.711862,47
15:43:17.711862,12032
15:43:17.711862,0
15:43:17.711862,49
15:43:17.711862,12544
15:43:17.711862,0
15:43:17.711862,40
15:43:17.711862,7680
15:43:17.711862,0
15:43:17.711862,21
15:43:17.711862,2816
15:43:17.711862,0
15:43:17.711862,4
15:43:17.711862,512
15:43:17.711862,0
15:43:17.711862,2
15:43:17.711862,0
15:43:17.711862,0
15:43:17.711862,0
15:43:17.711862,1024
15:43:17.711862,0
15:43:17.711862,7
15:43:17.711862,2304
15:43:17.711862,0
15:43:17.711862,11
15:43:17.711862,2816
15:43:17.711862,0
15:43:17.711862,14
15:43:17.711862,4096
15:43:17.711862,0
15:43:17.711862,18
15:43:17.711862,4608
15:43:17.711862,0
15:43:17.711862,21
15:43:17.711862,4608
15:43:17.711862,0
15:43:17.711862,21
15:43:17.711862,5888
15:43:17.711862,0
15:43:17.711862,28
15:43:17.711862,7680
15:43:17.711862,0
15:43:17.711862,28
15:43:17.711862,7168
15:43:17.711862,0
15:43:17.711862,28
15:43:17.711862,8448
15:43:17.711862,0
15:43:17.711862,35
15:43:17.711862,8448
15:43:17.711862,0
15:43:17.711862,30
15:43:17.711862,7680
15:43:17.711862,0
15:43:17.711862,33
15:43:17.711862,7680
15:43:17.711862,0
15:43:17.711862,33
15:43:17.711862,8448
15:43:17.711862,0
15:43:17.711862,28
15:43:17.711862,5888
15:43:17.711862,0
15:43:17.711862,21
15:43:17.711862,8448
15:43:17.711862,0
15:43:17.711862,66
15:43:17.711862,23040
15:43:17.711862,0
15:43:17.711862,83
15:43:17.711862,15104
15:43:17.711862,0
15:43:17.711862,40
15:43:17.711862,7168
15:43:17.711862,0
15:43:17.711862,28
15:43:17.711862,8448
15:43:17.711862,0
15:43:17.711862,30
15:43:17.711862,7168
15:43:17.711862,0
15:43:17.711862,30
15:43:17.711862,7168
15:43:17.711862,0
15:43:17.711862,-35
15:43:17.711862,-32513
15:43:17.711862,-1
15:43:17.711862,-80
15:43:18.206615,222
15:43:18.206615,-19968
15:43:18.206615,2
15:43:18.206615,894
15:43:18.206615,13312
15:43:18.206615,2
15:43:18.206615,192
15:43:18.206615,22272
15:43:18.206615,0
15:43:18.206615,16
15:43:18.206615,-12544
15:43:18.206615,-1
15:43:18.206615,-37
15:43:18.206615,-6913
15:43:18.206615,-1
15:43:18.206615,-42
15:43:18.206615,-9985
15:43:18.206615,-1
15:43:18.206615,-33
15:43:18.206615,-6913
15:43:18.206615,-1
15:43:18.206615,-21
15:43:18.206615,-3329
15:43:18.206615,-1
15:43:18.206615,-9
15:43:18.206615,-1537
15:43:18.206615,-1
15:43:18.206615,-7
15:43:18.206615,255
15:43:18.206615,0
15:43:18.206615,18
15:43:18.206615,8960
15:43:18.206615,0
15:43:18.206615,37
15:43:18.206615,9472
15:43:18.206615,0
15:43:18.206615,42
15:43:18.206615,12544
15:43:18.206615,0
15:43:18.206615,54
15:43:18.206615,13312
15:43:18.206615,0
15:43:18.206615,42
15:43:18.206615,9472
15:43:18.206615,0
15:43:18.206615,37
15:43:18.206615,7168
15:43:18.206615,0
15:43:18.206615,16
15:43:18.206615,2816
15:43:18.206615,0
15:43:18.206615,2
15:43:18.206615,-2816
15:43:18.206615,-1
15:43:18.206615,-14
15:43:18.206615,-3841
15:43:18.206615,-1
15:43:18.206615,-14
15:43:18.206615,-769
15:43:18.206615,-1
15:43:18.206615,-7
15:43:18.206615,-3329
15:43:18.206615,-1
15:43:18.206615,-9
15:43:18.206615,-257
15:43:18.206615,-1
15:43:18.206615,-4
15:43:18.206615,255
15:43:18.206615,0
15:43:18.206615,2
15:43:18.206615,0
15:43:18.206615,0
15:43:18.206615,0
15:43:18.206615,512
15:43:18.206615,0
15:43:18.206615,4
15:43:18.206615,0
15:43:18.206615,0
15:43:18.206615,-2
15:43:18.206615,1279
15:43:18.206615,0
15:43:18.206615,11
15:43:18.206615,1024
15:43:18.206615,0
15:43:18.206615,0
15:43:18.206615,1024
15:43:18.206615,0
15:43:18.206615,9
15:43:18.206615,1792
15:43:18.206615,0
15:43:18.206615,0
15:43:18.206615,512
15:43:18.206615,0
15:43:18.206615,2
15:43:18.206615,-2304
15:43:18.206615,-1
15:43:18.206615,-14
15:43:18.206615,255
15:43:18.206615,0
15:43:18.206615,28
15:43:18.206615,12032
15:43:18.206615,0
15:43:18.206615,52
15:43:18.206615,8960
15:43:18.206615,0
15:43:18.206615,7
15:43:18.206615,-1024
15:43:18.206615,-1
15:43:18.206615,-2
15:43:18.747057,-2
15:43:18.747057,-769
15:43:18.747057,-1
15:43:18.747057,-4
15:43:18.747057,-769
15:43:18.747057,-1
15:43:18.747057,-9
15:43:18.747057,-13569
15:43:18.747057,-1
15:43:18.747057,-161
15:43:18.747057,19199
15:43:18.747057,-1
15:43:18.747057,59
15:43:18.747057,5376
15:43:18.747057,2
15:43:18.747057,837
15:43:18.747057,16384
15:43:18.747057,2
15:43:18.747057,166
15:43:18.747057,21760
15:43:18.747057,0
15:43:18.747057,52
15:43:18.747057,-13312
15:43:18.747057,-1
15:43:18.747057,-59
15:43:18.747057,-7425
15:43:18.747057,-1
15:43:18.747057,-49
15:43:18.747057,-13057
15:43:18.747057,-1
15:43:18.747057,-37
15:43:18.747057,-9217
15:43:18.747057,-1
15:43:18.747057,-35
15:43:18.747057,-5121
15:43:18.747057,-1
15:43:18.747057,-11
15:43:18.747057,-1537
15:43:18.747057,-1
15:43:18.747057,-2
15:43:18.747057,767
15:43:18.747057,0
15:43:18.747057,4
15:43:18.747057,2816
15:43:18.747057,0
15:43:18.747057,26
15:43:18.747057,8960
15:43:18.747057,0
15:43:18.747057,40
15:43:18.747057,12544
15:43:18.747057,0
15:43:18.747057,54
15:43:18.747057,14336
15:43:18.747057,0
15:43:18.747057,59
15:43:18.747057,15616
15:43:18.747057,0
15:43:18.747057,56
15:43:18.747057,11520
15:43:18.747057,0
15:43:18.747057,26
15:43:18.747057,1792
15:43:18.747057,0
15:43:18.747057,-11
15:43:18.747057,-7425
15:43:18.747057,-1
15:43:18.747057,-40
15:43:18.747057,-9985
15:43:18.747057,-1
15:43:18.747057,-37
15:43:18.747057,-9217
15:43:18.747057,-1
15:43:18.747057,-40
15:43:18.747057,-8705
15:43:18.747057,-1
15:43:18.747057,-30
15:43:18.747057,-7425
15:43:18.747057,-1
15:43:18.747057,-26
15:43:18.747057,-3841
15:43:18.747057,-1
15:43:18.747057,-9
15:43:18.747057,-1537
15:43:18.747057,-1
15:43:18.747057,-2
15:43:18.747057,-257
15:43:18.747057,-1
15:43:18.747057,2
15:43:18.747057,1792
15:43:18.747057,0
15:43:18.747057,7
15:43:18.747057,1792
15:43:18.747057,0
15:43:18.747057,9
15:43:18.747057,2304
15:43:18.747057,0
15:43:18.747057,14
15:43:18.747057,3584
15:43:18.747057,0
15:43:18.747057,9
15:43:18.747057,512
15:43:18.747057,0
15:43:18.747057,7
15:43:18.747057,8960
15:43:18.747057,0
15:43:18.747057,66
15:43:18.747057,19200
15:43:18.747057,0
15:43:18.747057,64
15:43:19.287072,40
15:43:19.287072,7168
15:43:19.287072,0
15:43:19.287072,23
15:43:19.287072,5888
15:43:19.287072,0
15:43:19.287072,28
15:43:19.287072,7168
15:43:19.287072,0
15:43:19.287072,28
15:43:19.287072,7168
15:43:19.287072,0
15:43:19.287072,2
15:43:19.287072,-22272
15:43:19.287072,-1
15:43:19.287072,-156
15:43:19.287072,-2049
15:43:19.287072,-1
15:43:19.287072,424
15:43:19.287072,28672
15:43:19.287072,3
15:43:19.287072,825
15:43:19.287072,27904
15:43:19.287072,1
15:43:19.287072,132
15:43:19.287072,23552
15:43:19.287072,0
15:43:19.287072,-4
15:43:19.287072,-9985
15:43:19.287072,-1
15:43:19.287072,-11
15:43:19.287072,-5633
15:43:19.287072,-1
15:43:19.287072,-35
15:43:19.287072,-5121
15:43:19.287072,-1
15:43:19.287072,-14
15:43:19.287072,-3841
15:43:19.287072,-1
15:43:19.287072,-11
15:43:19.287072,-769
15:43:19.287072,-1
15:43:19.287072,0
15:43:19.287072,1792
15:43:19.287072,0
15:43:19.287072,11
15:43:19.287072,3584
15:43:19.287072,0
15:43:19.287072,23
15:43:19.287072,7680
15:43:19.287072,0
15:43:19.287072,35
15:43:19.287072,10752
15:43:19.287072,0
15:43:19.287072,52
15:43:19.287072,15104
15:43:19.287072,0
15:43:19.287072,61
15:43:19.287072,15616
15:43:19.287072,0
15:43:19.287072,61
15:43:19.287072,15104
15:43:19.287072,0
15:43:19.287072,49
15:43:19.287072,9472
15:43:19.287072,0
15:43:19.287072,26
15:43:19.287072,4096
15:43:19.287072,0
15:43:19.287072,11
15:43:19.287072,1792
15:43:19.287072,0
15:43:19.287072,4
15:43:19.287072,512
15:43:19.287072,0
15:43:19.287072,4
15:43:19.287072,1792
15:43:19.287072,0
15:43:19.287072,9
15:43:19.287072,2816
15:43:19.287072,0
15:43:19.287072,16
15:43:19.287072,4608
15:43:19.287072,0
15:43:19.287072,23
15:43:19.287072,5888
15:43:19.287072,0
15:43:19.287072,26
15:43:19.287072,7680
15:43:19.287072,0
15:43:19.287072,35
15:43:19.287072,10240
15:43:19.287072,0
15:43:19.287072,40
15:43:19.287072,9472
15:43:19.287072,0
15:43:19.287072,40
15:43:19.287072,11520
15:43:19.287072,0
15:43:19.287072,45
15:43:19.287072,11520
15:43:19.287072,0
15:43:19.287072,45
15:43:19.287072,10752
15:43:19.287072,0
