timestamp,ecg,reconstructed_time
2025-11-07 14:56:55.009490,19,2025-11-07 14:56:55.009490000
2025-11-07 14:56:55.009490,-1024,2025-11-07 14:56:55.017182308
2025-11-07 14:56:55.009490,-1,2025-11-07 14:56:55.024874615
2025-11-07 14:56:55.009490,2,2025-11-07 14:56:55.032566923
2025-11-07 14:56:55.009490,7680,2025-11-07 14:56:55.040259231
2025-11-07 14:56:55.009490,0,2025-11-07 14:56:55.047951538
2025-11-07 14:56:55.009490,33,2025-11-07 14:56:55.055643846
2025-11-07 14:56:55.009490,4096,2025-11-07 14:56:55.063336154
2025-11-07 14:56:55.009490,0,2025-11-07 14:56:55.071028462
2025-11-07 14:56:55.009490,23,2025-11-07 14:56:55.078720769
2025-11-07 14:56:55.009490,10240,2025-11-07 14:56:55.086413077
2025-11-07 14:56:55.009490,0,2025-11-07 14:56:55.094105385
2025-11-07 14:56:55.009490,30,2025-11-07 14:56:55.101797692
2025-11-07 14:56:55.009490,2304,2025-11-07 14:56:55.109490000
2025-11-07 14:56:55.009490,0,2025-11-07 14:56:55.117182308
2025-11-07 14:56:55.009490,0,2025-11-07 14:56:55.124874615
2025-11-07 14:56:55.009490,2304,2025-11-07 14:56:55.132566923
2025-11-07 14:56:55.009490,0,2025-11-07 14:56:55.140259231
2025-11-07 14:56:55.009490,19,2025-11-07 14:56:55.147951538
2025-11-07 14:56:55.009490,4096,2025-11-07 14:56:55.155643846
2025-11-07 14:56:55.009490,0,2025-11-07 14:56:55.163336154
2025-11-07 14:56:55.009490,26,2025-11-07 14:56:55.171028462
2025-11-07 14:56:55.009490,10752,2025-11-07 14:56:55.178720769
2025-11-07 14:56:55.009490,0,2025-11-07 14:56:55.186413077
2025-11-07 14:56:55.009490,47,2025-11-07 14:56:55.194105385
2025-11-07 14:56:55.009490,12032,2025-11-07 14:56:55.201797692
2025-11-07 14:56:55.009490,0,2025-11-07 14:56:55.209490000
2025-11-07 14:56:55.009490,42,2025-11-07 14:56:55.217182308
2025-11-07 14:56:55.009490,8960,2025-11-07 14:56:55.224874615
2025-11-07 14:56:55.009490,0,2025-11-07 14:56:55.232566923
2025-11-07 14:56:55.009490,45,2025-11-07 14:56:55.240259231
2025-11-07 14:56:55.009490,12544,2025-11-07 14:56:55.247951538
2025-11-07 14:56:55.009490,0,2025-11-07 14:56:55.255643846
2025-11-07 14:56:55.009490,42,2025-11-07 14:56:55.263336154
2025-11-07 14:56:55.009490,9728,2025-11-07 14:56:55.271028462
2025-11-07 14:56:55.009490,0,2025-11-07 14:56:55.278720769
2025-11-07 14:56:55.009490,33,2025-11-07 14:56:55.286413077
2025-11-07 14:56:55.009490,5376,2025-11-07 14:56:55.294105385
2025-11-07 14:56:55.009490,0,2025-11-07 14:56:55.301797692
2025-11-07 14:56:55.009490,-42,2025-11-07 14:56:55.309490000
2025-11-07 14:56:55.009490,-1025,2025-11-07 14:56:55.317182308
2025-11-07 14:56:55.009490,-2,2025-11-07 14:56:55.324874615
2025-11-07 14:56:55.009490,-537,2025-11-07 14:56:55.332566923
2025-11-07 14:56:55.009490,-10241,2025-11-07 14:56:55.340259231
2025-11-07 14:56:55.009490,-2,2025-11-07 14:56:55.347951538
2025-11-07 14:56:55.009490,734,2025-11-07 14:56:55.355643846
2025-11-07 14:56:55.009490,6400,2025-11-07 14:56:55.363336154
2025-11-07 14:56:55.009490,6,2025-11-07 14:56:55.371028462
2025-11-07 14:56:55.009490,1264,2025-11-07 14:56:55.378720769
2025-11-07 14:56:55.009490,-14336,2025-11-07 14:56:55.386413077
2025-11-07 14:56:55.009490,1,2025-11-07 14:56:55.394105385
2025-11-07 14:56:55.009490,33,2025-11-07 14:56:55.401797692
2025-11-07 14:56:55.009490,-14592,2025-11-07 14:56:55.409490000
2025-11-07 14:56:55.009490,-1,2025-11-07 14:56:55.417182308
2025-11-07 14:56:55.009490,-133,2025-11-07 14:56:55.424874615
2025-11-07 14:56:55.009490,19199,2025-11-07 14:56:55.432566923
2025-11-07 14:56:55.009490,-1,2025-11-07 14:56:55.440259231
2025-11-07 14:56:55.009490,-168,2025-11-07 14:56:55.447951538
2025-11-07 14:56:55.009490,23295,2025-11-07 14:56:55.455643846
2025-11-07 14:56:55.009490,-1,2025-11-07 14:56:55.463336154
2025-11-07 14:56:55.009490,-180,2025-11-07 14:56:55.471028462
2025-11-07 14:56:55.009490,18431,2025-11-07 14:56:55.478720769
2025-11-07 14:56:55.009490,-1,2025-11-07 14:56:55.486413077
2025-11-07 14:56:55.009490,-182,2025-11-07 14:56:55.494105385
2025-11-07 14:56:55.009490,19711,2025-11-07 14:56:55.501797692
2025-11-07 14:56:55.009490,-1,2025-11-07 14:56:55.509490000
2025-11-07 14:56:55.009490,-185,2025-11-07 14:56:55.517182308
2025-11-07 14:56:55.009490,14335,2025-11-07 14:56:55.524874615
2025-11-07 14:56:55.009490,-1,2025-11-07 14:56:55.532566923
2025-11-07 14:56:55.009490,-211,2025-11-07 14:56:55.540259230
2025-11-07 14:56:55.009490,11775,2025-11-07 14:56:55.547951538
2025-11-07 14:56:55.009490,-1,2025-11-07 14:56:55.555643846
2025-11-07 14:56:55.009490,-213,2025-11-07 14:56:55.563336154
2025-11-07 14:56:55.009490,9983,2025-11-07 14:56:55.571028462
2025-11-07 14:56:55.009490,-1,2025-11-07 14:56:55.578720769
2025-11-07 14:56:55.009490,-211,2025-11-07 14:56:55.586413077
2025-11-07 14:56:55.009490,14847,2025-11-07 14:56:55.594105385
2025-11-07 14:56:55.009490,-1,2025-11-07 14:56:55.601797692
2025-11-07 14:56:55.009490,-178,2025-11-07 14:56:55.609490000
2025-11-07 14:56:55.009490,29951,2025-11-07 14:56:55.617182308
2025-11-07 14:56:55.009490,-1,2025-11-07 14:56:55.624874615
2025-11-07 14:56:55.009490,-99,2025-11-07 14:56:55.632566923
2025-11-07 14:56:55.009490,-19713,2025-11-07 14:56:55.640259231
2025-11-07 14:56:55.009490,-1,2025-11-07 14:56:55.647951538
2025-11-07 14:56:55.009490,-66,2025-11-07 14:56:55.655643846
2025-11-07 14:56:55.009490,-11265,2025-11-07 14:56:55.663336154
2025-11-07 14:56:55.009490,-1,2025-11-07 14:56:55.671028462
2025-11-07 14:56:55.009490,-28,2025-11-07 14:56:55.678720769
2025-11-07 14:56:55.009490,-5121,2025-11-07 14:56:55.686413077
2025-11-07 14:56:55.009490,-1,2025-11-07 14:56:55.694105385
2025-11-07 14:56:55.009490,-14,2025-11-07 14:56:55.701797692
2025-11-07 14:56:55.009490,-2049,2025-11-07 14:56:55.709490000
2025-11-07 14:56:55.009490,-1,2025-11-07 14:56:55.717182308
2025-11-07 14:56:55.009490,-16,2025-11-07 14:56:55.724874615
2025-11-07 14:56:55.009490,-4609,2025-11-07 14:56:55.732566923
2025-11-07 14:56:55.009490,-1,2025-11-07 14:56:55.740259231
2025-11-07 14:56:55.009490,-19,2025-11-07 14:56:55.747951538
2025-11-07 14:56:55.009490,-2561,2025-11-07 14:56:55.755643846
2025-11-07 14:56:55.009490,-1,2025-11-07 14:56:55.763336154
2025-11-07 14:56:55.009490,-7,2025-11-07 14:56:55.771028462
2025-11-07 14:56:55.009490,-2049,2025-11-07 14:56:55.778720769
2025-11-07 14:56:55.009490,-1,2025-11-07 14:56:55.786413077
2025-11-07 14:56:55.009490,-16,2025-11-07 14:56:55.794105385
2025-11-07 14:56:55.009490,-4609,2025-11-07 14:56:55.801797692
2025-11-07 14:56:55.009490,-1,2025-11-07 14:56:55.809490000
2025-11-07 14:56:55.009490,-21,2025-11-07 14:56:55.817182308
2025-11-07 14:56:55.009490,-7425,2025-11-07 14:56:55.824874615
2025-11-07 14:56:55.009490,-1,2025-11-07 14:56:55.832566923
2025-11-07 14:56:55.009490,-30,2025-11-07 14:56:55.840259231
2025-11-07 14:56:55.549388,-26,2025-11-07 14:56:55.847951538
2025-11-07 14:56:55.549388,-9473,2025-11-07 14:56:55.855643846
2025-11-07 14:56:55.549388,-1,2025-11-07 14:56:55.863336154
2025-11-07 14:56:55.549388,-45,2025-11-07 14:56:55.871028462
2025-11-07 14:56:55.549388,-6913,2025-11-07 14:56:55.878720769
2025-11-07 14:56:55.549388,-1,2025-11-07 14:56:55.886413077
2025-11-07 14:56:55.549388,-16,2025-11-07 14:56:55.894105385
2025-11-07 14:56:55.549388,-5121,2025-11-07 14:56:55.901797692
2025-11-07 14:56:55.549388,-1,2025-11-07 14:56:55.909490000
2025-11-07 14:56:55.549388,-19,2025-11-07 14:56:55.917182308
2025-11-07 14:56:55.549388,-3841,2025-11-07 14:56:55.924874615
2025-11-07 14:56:55.549388,-1,2025-11-07 14:56:55.932566923
2025-11-07 14:56:55.549388,-16,2025-11-07 14:56:55.940259231
2025-11-07 14:56:55.549388,-3329,2025-11-07 14:56:55.947951538
2025-11-07 14:56:55.549388,-1,2025-11-07 14:56:55.955643846
2025-11-07 14:56:55.549388,-16,2025-11-07 14:56:55.963336154
2025-11-07 14:56:55.549388,-7425,2025-11-07 14:56:55.971028462
2025-11-07 14:56:55.549388,-1,2025-11-07 14:56:55.978720769
2025-11-07 14:56:55.549388,-35,2025-11-07 14:56:55.986413077
2025-11-07 14:56:55.549388,-6913,2025-11-07 14:56:55.994105385
2025-11-07 14:56:55.549388,-1,2025-11-07 14:56:56.001797692
2025-11-07 14:56:55.549388,-9,2025-11-07 14:56:56.009490000
2025-11-07 14:56:55.549388,3071,2025-11-07 14:56:56.017182308
2025-11-07 14:56:55.549388,0,2025-11-07 14:56:56.024874615
2025-11-07 14:56:55.549388,16,2025-11-07 14:56:56.032566923
2025-11-07 14:56:55.549388,4864,2025-11-07 14:56:56.040259231
2025-11-07 14:56:55.549388,0,2025-11-07 14:56:56.047951538
2025-11-07 14:56:55.549388,19,2025-11-07 14:56:56.055643846
2025-11-07 14:56:55.549388,512,2025-11-07 14:56:56.063336154
2025-11-07 14:56:55.549388,0,2025-11-07 14:56:56.071028462
2025-11-07 14:56:55.549388,0,2025-11-07 14:56:56.078720769
2025-11-07 14:56:55.549388,1792,2025-11-07 14:56:56.086413077
2025-11-07 14:56:55.549388,0,2025-11-07 14:56:56.094105385
2025-11-07 14:56:55.549388,-11,2025-11-07 14:56:56.101797692
2025-11-07 14:56:55.549388,-3841,2025-11-07 14:56:56.109490000
2025-11-07 14:56:55.549388,-1,2025-11-07 14:56:56.117182308
2025-11-07 14:56:55.549388,4,2025-11-07 14:56:56.124874615
2025-11-07 14:56:55.549388,512,2025-11-07 14:56:56.132566923
2025-11-07 14:56:55.549388,0,2025-11-07 14:56:56.140259231
2025-11-07 14:56:55.549388,-47,2025-11-07 14:56:56.147951538
2025-11-07 14:56:55.549388,25087,2025-11-07 14:56:56.155643846
2025-11-07 14:56:55.549388,-1,2025-11-07 14:56:56.163336154
2025-11-07 14:56:55.549388,-375,2025-11-07 14:56:56.171028462
2025-11-07 14:56:55.549388,18431,2025-11-07 14:56:56.178720769
2025-11-07 14:56:55.549388,-2,2025-11-07 14:56:56.186413077
2025-11-07 14:56:55.549388,152,2025-11-07 14:56:56.194105385
2025-11-07 14:56:55.549388,15104,2025-11-07 14:56:56.201797692
2025-11-07 14:56:55.549388,4,2025-11-07 14:56:56.209490000
2025-11-07 14:56:55.549388,1259,2025-11-07 14:56:56.217182308
2025-11-07 14:56:55.549388,-32512,2025-11-07 14:56:56.224874615
2025-11-07 14:56:55.549388,2,2025-11-07 14:56:56.232566923
2025-11-07 14:56:55.549388,137,2025-11-07 14:56:56.240259231
2025-11-07 14:56:55.549388,2816,2025-11-07 14:56:56.247951538
2025-11-07 14:56:55.549388,0,2025-11-07 14:56:56.255643846
2025-11-07 14:56:55.549388,-54,2025-11-07 14:56:56.263336154
2025-11-07 14:56:55.549388,32511,2025-11-07 14:56:56.271028462
2025-11-07 14:56:55.549388,-1,2025-11-07 14:56:56.278720769
2025-11-07 14:56:55.549388,-137,2025-11-07 14:56:56.286413077
2025-11-07 14:56:55.549388,-31745,2025-11-07 14:56:56.294105385
2025-11-07 14:56:55.549388,-1,2025-11-07 14:56:56.301797692
2025-11-07 14:56:55.549388,-133,2025-11-07 14:56:56.309490000
2025-11-07 14:56:55.549388,27647,2025-11-07 14:56:56.317182308
2025-11-07 14:56:55.549388,-1,2025-11-07 14:56:56.324874615
2025-11-07 14:56:55.549388,-161,2025-11-07 14:56:56.332566923
2025-11-07 14:56:55.549388,24063,2025-11-07 14:56:56.340259231
2025-11-07 14:56:55.549388,-1,2025-11-07 14:56:56.347951538
2025-11-07 14:56:55.549388,-173,2025-11-07 14:56:56.355643846
2025-11-07 14:56:55.549388,18431,2025-11-07 14:56:56.363336154
2025-11-07 14:56:55.549388,-1,2025-11-07 14:56:56.371028462
2025-11-07 14:56:55.549388,-156,2025-11-07 14:56:56.378720769
2025-11-07 14:56:55.549388,-29953,2025-11-07 14:56:56.386413077
2025-11-07 14:56:55.549388,-1,2025-11-07 14:56:56.394105385
2025-11-07 14:56:55.549388,-147,2025-11-07 14:56:56.401797692
2025-11-07 14:56:55.549388,19711,2025-11-07 14:56:56.409490000
2025-11-07 14:56:55.549388,-1,2025-11-07 14:56:56.417182308
2025-11-07 14:56:55.549388,-161,2025-11-07 14:56:56.424874615
2025-11-07 14:56:55.549388,32511,2025-11-07 14:56:56.432566923
2025-11-07 14:56:55.549388,-1,2025-11-07 14:56:56.440259231
2025-11-07 14:56:55.549388,-116,2025-11-07 14:56:56.447951538
2025-11-07 14:56:55.549388,-25857,2025-11-07 14:56:56.455643846
2025-11-07 14:56:55.549388,-1,2025-11-07 14:56:56.463336154
2025-11-07 14:56:55.549388,-76,2025-11-07 14:56:56.471028462
2025-11-07 14:56:55.549388,-13057,2025-11-07 14:56:56.478720769
2025-11-07 14:56:55.549388,-1,2025-11-07 14:56:56.486413077
2025-11-07 14:56:55.549388,-16,2025-11-07 14:56:56.494105385
2025-11-07 14:56:55.549388,5631,2025-11-07 14:56:56.501797692
2025-11-07 14:56:55.549388,0,2025-11-07 14:56:56.509490000
2025-11-07 14:56:55.549388,19,2025-11-07 14:56:56.517182308
2025-11-07 14:56:55.549388,-2304,2025-11-07 14:56:56.524874615
2025-11-07 14:56:55.549388,-1,2025-11-07 14:56:56.532566923
2025-11-07 14:56:55.549388,-9,2025-11-07 14:56:56.540259230
2025-11-07 14:56:55.549388,4351,2025-11-07 14:56:56.547951538
2025-11-07 14:56:55.549388,0,2025-11-07 14:56:56.555643846
2025-11-07 14:56:55.549388,19,2025-11-07 14:56:56.563336154
2025-11-07 14:56:55.549388,-1792,2025-11-07 14:56:56.571028462
2025-11-07 14:56:55.549388,-1,2025-11-07 14:56:56.578720769
2025-11-07 14:56:55.549388,4,2025-11-07 14:56:56.586413077
2025-11-07 14:56:55.549388,10752,2025-11-07 14:56:56.594105385
2025-11-07 14:56:55.549388,0,2025-11-07 14:56:56.601797692
2025-11-07 14:56:55.549388,23,2025-11-07 14:56:56.609490000
2025-11-07 14:56:55.549388,-3584,2025-11-07 14:56:56.617182308
2025-11-07 14:56:55.549388,-1,2025-11-07 14:56:56.624874615
2025-11-07 14:56:55.549388,0,2025-11-07 14:56:56.632566923
2025-11-07 14:56:55.549388,4096,2025-11-07 14:56:56.640259231
2025-11-07 14:56:55.549388,0,2025-11-07 14:56:56.647951538
2025-11-07 14:56:55.549388,2,2025-11-07 14:56:56.655643846
2025-11-07 14:56:55.549388,2816,2025-11-07 14:56:56.663336154
2025-11-07 14:56:55.549388,0,2025-11-07 14:56:56.671028462
2025-11-07 14:56:55.549388,21,2025-11-07 14:56:56.678720769
2025-11-07 14:56:56.134516,-2,2025-11-07 14:56:56.686413077
2025-11-07 14:56:56.134516,-257,2025-11-07 14:56:56.694105385
2025-11-07 14:56:56.134516,-1,2025-11-07 14:56:56.701797692
2025-11-07 14:56:56.134516,21,2025-11-07 14:56:56.709490000
2025-11-07 14:56:56.134516,3584,2025-11-07 14:56:56.717182308
2025-11-07 14:56:56.134516,0,2025-11-07 14:56:56.724874615
2025-11-07 14:56:56.134516,2,2025-11-07 14:56:56.732566923
2025-11-07 14:56:56.134516,1024,2025-11-07 14:56:56.740259231
2025-11-07 14:56:56.134516,0,2025-11-07 14:56:56.747951538
2025-11-07 14:56:56.134516,14,2025-11-07 14:56:56.755643846
2025-11-07 14:56:56.134516,5376,2025-11-07 14:56:56.763336154
2025-11-07 14:56:56.134516,0,2025-11-07 14:56:56.771028462
2025-11-07 14:56:56.134516,26,2025-11-07 14:56:56.778720769
2025-11-07 14:56:56.134516,6656,2025-11-07 14:56:56.786413077
2025-11-07 14:56:56.134516,0,2025-11-07 14:56:56.794105385
2025-11-07 14:56:56.134516,16,2025-11-07 14:56:56.801797692
2025-11-07 14:56:56.134516,1792,2025-11-07 14:56:56.809490000
2025-11-07 14:56:56.134516,0,2025-11-07 14:56:56.817182308
2025-11-07 14:56:56.134516,0,2025-11-07 14:56:56.824874615
2025-11-07 14:56:56.134516,1024,2025-11-07 14:56:56.832566923
2025-11-07 14:56:56.134516,0,2025-11-07 14:56:56.840259231
2025-11-07 14:56:56.134516,28,2025-11-07 14:56:56.847951538
2025-11-07 14:56:56.134516,12032,2025-11-07 14:56:56.855643846
2025-11-07 14:56:56.134516,0,2025-11-07 14:56:56.863336154
2025-11-07 14:56:56.134516,42,2025-11-07 14:56:56.871028462
2025-11-07 14:56:56.134516,11520,2025-11-07 14:56:56.878720769
2025-11-07 14:56:56.134516,0,2025-11-07 14:56:56.886413077
2025-11-07 14:56:56.134516,57,2025-11-07 14:56:56.894105385
2025-11-07 14:56:56.134516,13312,2025-11-07 14:56:56.901797692
2025-11-07 14:56:56.134516,0,2025-11-07 14:56:56.909490000
2025-11-07 14:56:56.134516,35,2025-11-07 14:56:56.917182308
2025-11-07 14:56:56.134516,7680,2025-11-07 14:56:56.924874615
2025-11-07 14:56:56.134516,0,2025-11-07 14:56:56.932566923
2025-11-07 14:56:56.134516,40,2025-11-07 14:56:56.940259231
2025-11-07 14:56:56.134516,9728,2025-11-07 14:56:56.947951538
2025-11-07 14:56:56.134516,0,2025-11-07 14:56:56.955643846
2025-11-07 14:56:56.134516,33,2025-11-07 14:56:56.963336154
2025-11-07 14:56:56.134516,9728,2025-11-07 14:56:56.971028462
2025-11-07 14:56:56.134516,0,2025-11-07 14:56:56.978720769
2025-11-07 14:56:56.134516,28,2025-11-07 14:56:56.986413077
2025-11-07 14:56:56.134516,-10240,2025-11-07 14:56:56.994105385
2025-11-07 14:56:56.134516,-1,2025-11-07 14:56:57.001797692
2025-11-07 14:56:56.134516,-209,2025-11-07 14:56:57.009490000
2025-11-07 14:56:56.134516,11519,2025-11-07 14:56:57.017182308
2025-11-07 14:56:56.134516,-2,2025-11-07 14:56:57.024874615
2025-11-07 14:56:56.134516,-415,2025-11-07 14:56:57.032566923
2025-11-07 14:56:56.134516,31231,2025-11-07 14:56:57.040259231
2025-11-07 14:56:56.134516,1,2025-11-07 14:56:57.047951538
2025-11-07 14:56:56.134516,1245,2025-11-07 14:56:57.055643846
2025-11-07 14:56:56.134516,-24320,2025-11-07 14:56:57.063336154
2025-11-07 14:56:56.134516,4,2025-11-07 14:56:57.071028462
2025-11-07 14:56:56.134516,527,2025-11-07 14:56:57.078720769
2025-11-07 14:56:56.134516,31488,2025-11-07 14:56:57.086413077
2025-11-07 14:56:56.134516,0,2025-11-07 14:56:57.094105385
2025-11-07 14:56:56.134516,11,2025-11-07 14:56:57.101797692
2025-11-07 14:56:56.134516,-24832,2025-11-07 14:56:57.109490000
2025-11-07 14:56:56.134516,-1,2025-11-07 14:56:57.117182308
2025-11-07 14:56:56.134516,-154,2025-11-07 14:56:57.124874615
2025-11-07 14:56:56.134516,-31233,2025-11-07 14:56:57.132566923
2025-11-07 14:56:56.134516,-1,2025-11-07 14:56:57.140259231
2025-11-07 14:56:56.134516,-118,2025-11-07 14:56:57.147951538
2025-11-07 14:56:56.134516,28927,2025-11-07 14:56:57.155643846
2025-11-07 14:56:56.134516,-1,2025-11-07 14:56:57.163336154
2025-11-07 14:56:56.134516,-149,2025-11-07 14:56:57.171028462
2025-11-07 14:56:56.134516,28927,2025-11-07 14:56:57.178720769
2025-11-07 14:56:56.134516,-1,2025-11-07 14:56:57.186413077
2025-11-07 14:56:56.134516,-156,2025-11-07 14:56:57.194105385
2025-11-07 14:56:56.134516,21503,2025-11-07 14:56:57.201797692
2025-11-07 14:56:56.134516,-1,2025-11-07 14:56:57.209490000
2025-11-07 14:56:56.134516,-187,2025-11-07 14:56:57.217182308
2025-11-07 14:56:56.134516,19199,2025-11-07 14:56:57.224874615
2025-11-07 14:56:56.134516,-1,2025-11-07 14:56:57.232566923
2025-11-07 14:56:56.134516,-168,2025-11-07 14:56:57.240259231
2025-11-07 14:56:56.134516,24063,2025-11-07 14:56:57.247951538
2025-11-07 14:56:56.134516,-1,2025-11-07 14:56:57.255643846
2025-11-07 14:56:56.134516,-166,2025-11-07 14:56:57.263336154
2025-11-07 14:56:56.134516,23295,2025-11-07 14:56:57.271028462
2025-11-07 14:56:56.134516,-1,2025-11-07 14:56:57.278720769
2025-11-07 14:56:56.134516,-154,2025-11-07 14:56:57.286413077
2025-11-07 14:56:56.134516,-32513,2025-11-07 14:56:57.294105385
2025-11-07 14:56:56.134516,-1,2025-11-07 14:56:57.301797692
2025-11-07 14:56:56.134516,-99,2025-11-07 14:56:57.309490000
2025-11-07 14:56:56.134516,-18433,2025-11-07 14:56:57.317182308
2025-11-07 14:56:56.134516,-1,2025-11-07 14:56:57.324874615
2025-11-07 14:56:56.134516,-47,2025-11-07 14:56:57.332566923
2025-11-07 14:56:56.134516,-5121,2025-11-07 14:56:57.340259231
2025-11-07 14:56:56.134516,-1,2025-11-07 14:56:57.347951538
2025-11-07 14:56:56.134516,0,2025-11-07 14:56:57.355643846
2025-11-07 14:56:56.134516,512,2025-11-07 14:56:57.363336154
2025-11-07 14:56:56.134516,0,2025-11-07 14:56:57.371028462
2025-11-07 14:56:56.134516,-7,2025-11-07 14:56:57.378720769
2025-11-07 14:56:56.134516,-257,2025-11-07 14:56:57.386413077
2025-11-07 14:56:56.134516,-1,2025-11-07 14:56:57.394105385
2025-11-07 14:56:56.134516,19,2025-11-07 14:56:57.401797692
2025-11-07 14:56:56.134516,5888,2025-11-07 14:56:57.409490000
2025-11-07 14:56:56.134516,0,2025-11-07 14:56:57.417182308
2025-11-07 14:56:56.134516,9,2025-11-07 14:56:57.424874615
2025-11-07 14:56:56.134516,1792,2025-11-07 14:56:57.432566923
2025-11-07 14:56:56.134516,0,2025-11-07 14:56:57.440259231
2025-11-07 14:56:56.134516,16,2025-11-07 14:56:57.447951538
2025-11-07 14:56:56.134516,3584,2025-11-07 14:56:57.455643846
2025-11-07 14:56:56.134516,0,2025-11-07 14:56:57.463336154
2025-11-07 14:56:56.134516,14,2025-11-07 14:56:57.471028462
2025-11-07 14:56:56.134516,4096,2025-11-07 14:56:57.478720769
2025-11-07 14:56:56.134516,0,2025-11-07 14:56:57.486413077
2025-11-07 14:56:56.134516,7,2025-11-07 14:56:57.494105385
2025-11-07 14:56:56.134516,512,2025-11-07 14:56:57.501797692
2025-11-07 14:56:56.134516,0,2025-11-07 14:56:57.509490000
2025-11-07 14:56:56.134516,2,2025-11-07 14:56:57.517182308
2025-11-07 14:56:56.674633,-2,2025-11-07 14:56:57.524874615
2025-11-07 14:56:56.674633,-1537,2025-11-07 14:56:57.532566923
2025-11-07 14:56:56.674633,-1,2025-11-07 14:56:57.540259230
2025-11-07 14:56:56.674633,-11,2025-11-07 14:56:57.547951538
2025-11-07 14:56:56.674633,-3329,2025-11-07 14:56:57.555643846
2025-11-07 14:56:56.674633,-1,2025-11-07 14:56:57.563336154
2025-11-07 14:56:56.674633,-11,2025-11-07 14:56:57.571028462
2025-11-07 14:56:56.674633,-769,2025-11-07 14:56:57.578720769
2025-11-07 14:56:56.674633,-1,2025-11-07 14:56:57.586413077
2025-11-07 14:56:56.674633,-7,2025-11-07 14:56:57.594105385
2025-11-07 14:56:56.674633,-5121,2025-11-07 14:56:57.601797692
2025-11-07 14:56:56.674633,-1,2025-11-07 14:56:57.609490000
2025-11-07 14:56:56.674633,-11,2025-11-07 14:56:57.617182308
2025-11-07 14:56:56.674633,6143,2025-11-07 14:56:57.624874615
2025-11-07 14:56:56.674633,0,2025-11-07 14:56:57.632566923
2025-11-07 14:56:56.674633,19,2025-11-07 14:56:57.640259231
2025-11-07 14:56:56.674633,-1024,2025-11-07 14:56:57.647951538
2025-11-07 14:56:56.674633,-1,2025-11-07 14:56:57.655643846
2025-11-07 14:56:56.674633,9,2025-11-07 14:56:57.663336154
2025-11-07 14:56:56.674633,4096,2025-11-07 14:56:57.671028462
2025-11-07 14:56:56.674633,0,2025-11-07 14:56:57.678720769
2025-11-07 14:56:56.674633,9,2025-11-07 14:56:57.686413077
2025-11-07 14:56:56.674633,7680,2025-11-07 14:56:57.694105385
2025-11-07 14:56:56.674633,0,2025-11-07 14:56:57.701797692
2025-11-07 14:56:56.674633,47,2025-11-07 14:56:57.709490000
2025-11-07 14:56:56.674633,5888,2025-11-07 14:56:57.717182308
2025-11-07 14:56:56.674633,0,2025-11-07 14:56:57.724874615
2025-11-07 14:56:56.674633,7,2025-11-07 14:56:57.732566923
2025-11-07 14:56:56.674633,7680,2025-11-07 14:56:57.740259231
2025-11-07 14:56:56.674633,0,2025-11-07 14:56:57.747951538
2025-11-07 14:56:56.674633,54,2025-11-07 14:56:57.755643846
2025-11-07 14:56:56.674633,10240,2025-11-07 14:56:57.763336154
2025-11-07 14:56:56.674633,0,2025-11-07 14:56:57.771028462
2025-11-07 14:56:56.674633,38,2025-11-07 14:56:57.778720769
2025-11-07 14:56:56.674633,14592,2025-11-07 14:56:57.786413077
2025-11-07 14:56:56.674633,0,2025-11-07 14:56:57.794105385
2025-11-07 14:56:56.674633,33,2025-11-07 14:56:57.801797692
2025-11-07 14:56:56.674633,1792,2025-11-07 14:56:57.809490000
2025-11-07 14:56:56.674633,0,2025-11-07 14:56:57.817182308
2025-11-07 14:56:56.674633,-11,2025-11-07 14:56:57.824874615
2025-11-07 14:56:56.674633,27647,2025-11-07 14:56:57.832566923
2025-11-07 14:56:56.674633,-1,2025-11-07 14:56:57.840259231
2025-11-07 14:56:56.674633,-449,2025-11-07 14:56:57.847951538
2025-11-07 14:56:56.674633,-7169,2025-11-07 14:56:57.855643846
2025-11-07 14:56:56.674633,-3,2025-11-07 14:56:57.863336154
2025-11-07 14:56:56.674633,125,2025-11-07 14:56:57.871028462
2025-11-07 14:56:56.674633,29696,2025-11-07 14:56:57.878720769
2025-11-07 14:56:56.674633,4,2025-11-07 14:56:57.886413077
2025-11-07 14:56:56.674633,1344,2025-11-07 14:56:57.894105385
2025-11-07 14:56:56.674633,-11264,2025-11-07 14:56:57.901797692
2025-11-07 14:56:56.674633,2,2025-11-07 14:56:57.909490000
2025-11-07 14:56:56.674633,216,2025-11-07 14:56:57.917182308
2025-11-07 14:56:56.674633,12544,2025-11-07 14:56:57.924874615
2025-11-07 14:56:56.674633,0,2025-11-07 14:56:57.932566923
2025-11-07 14:56:56.674633,-76,2025-11-07 14:56:57.940259231
2025-11-07 14:56:56.674633,24575,2025-11-07 14:56:57.947951538
2025-11-07 14:56:56.674633,-1,2025-11-07 14:56:57.955643846
2025-11-07 14:56:56.674633,-154,2025-11-07 14:56:57.963336154
2025-11-07 14:56:56.674633,24063,2025-11-07 14:56:57.971028462
2025-11-07 14:56:56.674633,-1,2025-11-07 14:56:57.978720769
2025-11-07 14:56:56.674633,-168,2025-11-07 14:56:57.986413077
2025-11-07 14:56:56.674633,28927,2025-11-07 14:56:57.994105385
2025-11-07 14:56:56.674633,-1,2025-11-07 14:56:58.001797692
2025-11-07 14:56:56.674633,-152,2025-11-07 14:56:58.009490000
2025-11-07 14:56:56.674633,18431,2025-11-07 14:56:58.017182308
2025-11-07 14:56:56.674633,-1,2025-11-07 14:56:58.024874615
2025-11-07 14:56:56.674633,-192,2025-11-07 14:56:58.032566923
2025-11-07 14:56:56.674633,17919,2025-11-07 14:56:58.040259231
2025-11-07 14:56:56.674633,-1,2025-11-07 14:56:58.047951538
2025-11-07 14:56:56.674633,-197,2025-11-07 14:56:58.055643846
2025-11-07 14:56:56.674633,13567,2025-11-07 14:56:58.063336154
2025-11-07 14:56:56.674633,-1,2025-11-07 14:56:58.071028462
2025-11-07 14:56:56.674633,-185,2025-11-07 14:56:58.078720769
2025-11-07 14:56:56.674633,22015,2025-11-07 14:56:58.086413077
2025-11-07 14:56:56.674633,-1,2025-11-07 14:56:58.094105385
2025-11-07 14:56:56.674633,-192,2025-11-07 14:56:58.101797692
2025-11-07 14:56:56.674633,12287,2025-11-07 14:56:58.109490000
2025-11-07 14:56:56.674633,-1,2025-11-07 14:56:58.117182308
2025-11-07 14:56:56.674633,-173,2025-11-07 14:56:58.124874615
2025-11-07 14:56:56.674633,-31233,2025-11-07 14:56:58.132566923
2025-11-07 14:56:56.674633,-1,2025-11-07 14:56:58.140259231
2025-11-07 14:56:56.674633,-114,2025-11-07 14:56:58.147951538
2025-11-07 14:56:56.674633,-14849,2025-11-07 14:56:58.155643846
2025-11-07 14:56:56.674633,-1,2025-11-07 14:56:58.163336154
2025-11-07 14:56:56.674633,26,2025-11-07 14:56:58.171028462
2025-11-07 14:56:56.674633,5376,2025-11-07 14:56:58.178720769
2025-11-07 14:56:56.674633,0,2025-11-07 14:56:58.186413077
2025-11-07 14:56:56.674633,4,2025-11-07 14:56:58.194105385
2025-11-07 14:56:56.674633,8448,2025-11-07 14:56:58.201797692
2025-11-07 14:56:56.674633,0,2025-11-07 14:56:58.209490000
2025-11-07 14:56:56.674633,33,2025-11-07 14:56:58.217182308
2025-11-07 14:56:56.674633,2816,2025-11-07 14:56:58.224874615
2025-11-07 14:56:56.674633,0,2025-11-07 14:56:58.232566923
2025-11-07 14:56:56.674633,16,2025-11-07 14:56:58.240259231
2025-11-07 14:56:56.674633,5376,2025-11-07 14:56:58.247951538
2025-11-07 14:56:56.674633,0,2025-11-07 14:56:58.255643846
2025-11-07 14:56:56.674633,19,2025-11-07 14:56:58.263336154
2025-11-07 14:56:56.674633,5888,2025-11-07 14:56:58.271028462
2025-11-07 14:56:56.674633,0,2025-11-07 14:56:58.278720769
2025-11-07 14:56:56.674633,23,2025-11-07 14:56:58.286413077
2025-11-07 14:56:56.674633,6656,2025-11-07 14:56:58.294105385
2025-11-07 14:56:56.674633,0,2025-11-07 14:56:58.301797692
2025-11-07 14:56:56.674633,57,2025-11-07 14:56:58.309490000
2025-11-07 14:56:56.674633,12032,2025-11-07 14:56:58.317182308
2025-11-07 14:56:56.674633,0,2025-11-07 14:56:58.324874615
2025-11-07 14:56:56.674633,7,2025-11-07 14:56:58.332566923
2025-11-07 14:56:56.674633,2304,2025-11-07 14:56:58.340259231
2025-11-07 14:56:56.674633,0,2025-11-07 14:56:58.347951538
2025-11-07 14:56:56.674633,19,2025-11-07 14:56:58.355643846
2025-11-07 14:56:57.214527,4,2025-11-07 14:56:58.363336154
2025-11-07 14:56:57.214527,512,2025-11-07 14:56:58.371028462
2025-11-07 14:56:57.214527,0,2025-11-07 14:56:58.378720769
2025-11-07 14:56:57.214527,7,2025-11-07 14:56:58.386413077
2025-11-07 14:56:57.214527,1024,2025-11-07 14:56:58.394105385
2025-11-07 14:56:57.214527,0,2025-11-07 14:56:58.401797692
2025-11-07 14:56:57.214527,2,2025-11-07 14:56:58.409490000
2025-11-07 14:56:57.214527,1792,2025-11-07 14:56:58.417182308
2025-11-07 14:56:57.214527,0,2025-11-07 14:56:58.424874615
2025-11-07 14:56:57.214527,11,2025-11-07 14:56:58.432566923
2025-11-07 14:56:57.214527,4096,2025-11-07 14:56:58.440259231
2025-11-07 14:56:57.214527,0,2025-11-07 14:56:58.447951538
2025-11-07 14:56:57.214527,19,2025-11-07 14:56:58.455643846
2025-11-07 14:56:57.214527,2304,2025-11-07 14:56:58.463336154
2025-11-07 14:56:57.214527,0,2025-11-07 14:56:58.471028462
2025-11-07 14:56:57.214527,0,2025-11-07 14:56:58.478720769
2025-11-07 14:56:57.214527,1792,2025-11-07 14:56:58.486413077
2025-11-07 14:56:57.214527,0,2025-11-07 14:56:58.494105385
2025-11-07 14:56:57.214527,19,2025-11-07 14:56:58.501797692
2025-11-07 14:56:57.214527,7680,2025-11-07 14:56:58.509490000
2025-11-07 14:56:57.214527,0,2025-11-07 14:56:58.517182308
2025-11-07 14:56:57.214527,42,2025-11-07 14:56:58.524874615
2025-11-07 14:56:57.214527,12544,2025-11-07 14:56:58.532566923
2025-11-07 14:56:57.214527,0,2025-11-07 14:56:58.540259230
2025-11-07 14:56:57.214527,49,2025-11-07 14:56:58.547951538
2025-11-07 14:56:57.214527,8960,2025-11-07 14:56:58.555643846
2025-11-07 14:56:57.214527,0,2025-11-07 14:56:58.563336154
2025-11-07 14:56:57.214527,23,2025-11-07 14:56:58.571028462
2025-11-07 14:56:57.214527,10240,2025-11-07 14:56:58.578720769
2025-11-07 14:56:57.214527,0,2025-11-07 14:56:58.586413077
2025-11-07 14:56:57.214527,52,2025-11-07 14:56:58.594105385
2025-11-07 14:56:57.214527,9728,2025-11-07 14:56:58.601797692
2025-11-07 14:56:57.214527,0,2025-11-07 14:56:58.609490000
2025-11-07 14:56:57.214527,28,2025-11-07 14:56:58.617182308
2025-11-07 14:56:57.214527,5888,2025-11-07 14:56:58.624874615
2025-11-07 14:56:57.214527,0,2025-11-07 14:56:58.632566923
2025-11-07 14:56:57.214527,-7,2025-11-07 14:56:58.640259231
2025-11-07 14:56:57.214527,31743,2025-11-07 14:56:58.647951538
2025-11-07 14:56:57.214527,-1,2025-11-07 14:56:58.655643846
2025-11-07 14:56:57.214527,-408,2025-11-07 14:56:58.663336154
2025-11-07 14:56:57.214527,-9729,2025-11-07 14:56:58.671028462
2025-11-07 14:56:57.214527,-3,2025-11-07 14:56:58.678720769
2025-11-07 14:56:57.214527,73,2025-11-07 14:56:58.686413077
2025-11-07 14:56:57.214527,-17664,2025-11-07 14:56:58.694105385
2025-11-07 14:56:57.214527,4,2025-11-07 14:56:58.701797692
2025-11-07 14:56:57.214527,1587,2025-11-07 14:56:58.709490000
2025-11-07 14:56:57.214527,-29952,2025-11-07 14:56:58.717182308
2025-11-07 14:56:57.214527,3,2025-11-07 14:56:58.724874615
2025-11-07 14:56:57.214527,194,2025-11-07 14:56:58.732566923
2025-11-07 14:56:57.214527,-5376,2025-11-07 14:56:58.740259231
2025-11-07 14:56:57.214527,-1,2025-11-07 14:56:58.747951538
2025-11-07 14:56:57.214527,-80,2025-11-07 14:56:58.755643846
2025-11-07 14:56:57.214527,23295,2025-11-07 14:56:58.763336154
2025-11-07 14:56:57.214527,-1,2025-11-07 14:56:58.771028462
2025-11-07 14:56:57.214527,-178,2025-11-07 14:56:58.778720769
2025-11-07 14:56:57.214527,23295,2025-11-07 14:56:58.786413077
2025-11-07 14:56:57.214527,-1,2025-11-07 14:56:58.794105385
2025-11-07 14:56:57.214527,-180,2025-11-07 14:56:58.801797692
2025-11-07 14:56:57.214527,18431,2025-11-07 14:56:58.809490000
2025-11-07 14:56:57.214527,-1,2025-11-07 14:56:58.817182308
2025-11-07 14:56:57.214527,-182,2025-11-07 14:56:58.824874615
2025-11-07 14:56:57.214527,17151,2025-11-07 14:56:58.832566923
2025-11-07 14:56:57.214527,-1,2025-11-07 14:56:58.840259231
2025-11-07 14:56:57.214527,-194,2025-11-07 14:56:58.847951538
2025-11-07 14:56:57.214527,15359,2025-11-07 14:56:58.855643846
2025-11-07 14:56:57.214527,-1,2025-11-07 14:56:58.863336154
2025-11-07 14:56:57.214527,-209,2025-11-07 14:56:58.871028462
2025-11-07 14:56:57.214527,9983,2025-11-07 14:56:58.878720769
2025-11-07 14:56:57.214527,-1,2025-11-07 14:56:58.886413077
2025-11-07 14:56:57.214527,-223,2025-11-07 14:56:58.894105385
2025-11-07 14:56:57.214527,8191,2025-11-07 14:56:58.901797692
2025-11-07 14:56:57.214527,-1,2025-11-07 14:56:58.909490000
2025-11-07 14:56:57.214527,-216,2025-11-07 14:56:58.917182308
2025-11-07 14:56:57.214527,14847,2025-11-07 14:56:58.924874615
2025-11-07 14:56:57.214527,-1,2025-11-07 14:56:58.932566923
2025-11-07 14:56:57.214527,-182,2025-11-07 14:56:58.940259231
2025-11-07 14:56:57.214527,25855,2025-11-07 14:56:58.947951538
2025-11-07 14:56:57.214527,-1,2025-11-07 14:56:58.955643846
2025-11-07 14:56:57.214527,-123,2025-11-07 14:56:58.963336154
2025-11-07 14:56:57.214527,-23297,2025-11-07 14:56:58.971028462
2025-11-07 14:56:57.214527,-1,2025-11-07 14:56:58.978720769
2025-11-07 14:56:57.214527,-64,2025-11-07 14:56:58.986413077
2025-11-07 14:56:57.214527,-9985,2025-11-07 14:56:58.994105385
2025-11-07 14:56:57.214527,-1,2025-11-07 14:56:59.001797692
2025-11-07 14:56:57.214527,-19,2025-11-07 14:56:59.009490000
2025-11-07 14:56:57.214527,-2561,2025-11-07 14:56:59.017182308
2025-11-07 14:56:57.214527,-1,2025-11-07 14:56:59.024874615
2025-11-07 14:56:57.214527,-9,2025-11-07 14:56:59.032566923
2025-11-07 14:56:57.214527,-1537,2025-11-07 14:56:59.040259231
2025-11-07 14:56:57.214527,-1,2025-11-07 14:56:59.047951538
2025-11-07 14:56:57.214527,0,2025-11-07 14:56:59.055643846
2025-11-07 14:56:57.214527,1792,2025-11-07 14:56:59.063336154
2025-11-07 14:56:57.214527,0,2025-11-07 14:56:59.071028462
2025-11-07 14:56:57.214527,4,2025-11-07 14:56:59.078720769
2025-11-07 14:56:57.214527,1792,2025-11-07 14:56:59.086413077
2025-11-07 14:56:57.214527,0,2025-11-07 14:56:59.094105385
2025-11-07 14:56:57.214527,16,2025-11-07 14:56:59.101797692
2025-11-07 14:56:57.214527,4096,2025-11-07 14:56:59.109490000
2025-11-07 14:56:57.214527,0,2025-11-07 14:56:59.117182308
2025-11-07 14:56:57.214527,11,2025-11-07 14:56:59.124874615
2025-11-07 14:56:57.214527,2304,2025-11-07 14:56:59.132566923
2025-11-07 14:56:57.214527,0,2025-11-07 14:56:59.140259231
2025-11-07 14:56:57.214527,7,2025-11-07 14:56:59.147951538
2025-11-07 14:56:57.214527,1024,2025-11-07 14:56:59.155643846
2025-11-07 14:56:57.214527,0,2025-11-07 14:56:59.163336154
2025-11-07 14:56:57.214527,-2,2025-11-07 14:56:59.171028462
2025-11-07 14:56:57.214527,-769,2025-11-07 14:56:59.178720769
2025-11-07 14:56:57.214527,-1,2025-11-07 14:56:59.186413077
2025-11-07 14:56:57.214527,-4,2025-11-07 14:56:59.194105385
2025-11-07 14:56:57.799529,-7,2025-11-07 14:56:59.201797692
2025-11-07 14:56:57.799529,-2049,2025-11-07 14:56:59.209490000
2025-11-07 14:56:57.799529,-1,2025-11-07 14:56:59.217182308
2025-11-07 14:56:57.799529,-9,2025-11-07 14:56:59.224874615
2025-11-07 14:56:57.799529,-769,2025-11-07 14:56:59.232566923
2025-11-07 14:56:57.799529,-1,2025-11-07 14:56:59.240259231
2025-11-07 14:56:57.799529,9,2025-11-07 14:56:59.247951538
2025-11-07 14:56:57.799529,6656,2025-11-07 14:56:59.255643846
2025-11-07 14:56:57.799529,0,2025-11-07 14:56:59.263336154
2025-11-07 14:56:57.799529,23,2025-11-07 14:56:59.271028462
2025-11-07 14:56:57.799529,3584,2025-11-07 14:56:59.278720769
2025-11-07 14:56:57.799529,0,2025-11-07 14:56:59.286413077
2025-11-07 14:56:57.799529,9,2025-11-07 14:56:59.294105385
2025-11-07 14:56:57.799529,1024,2025-11-07 14:56:59.301797692
2025-11-07 14:56:57.799529,0,2025-11-07 14:56:59.309490000
2025-11-07 14:56:57.799529,-4,2025-11-07 14:56:59.317182308
2025-11-07 14:56:57.799529,-769,2025-11-07 14:56:59.324874615
2025-11-07 14:56:57.799529,-1,2025-11-07 14:56:59.332566923
2025-11-07 14:56:57.799529,2,2025-11-07 14:56:59.340259231
2025-11-07 14:56:57.799529,2816,2025-11-07 14:56:59.347951538
2025-11-07 14:56:57.799529,0,2025-11-07 14:56:59.355643846
2025-11-07 14:56:57.799529,23,2025-11-07 14:56:59.363336154
2025-11-07 14:56:57.799529,8448,2025-11-07 14:56:59.371028462
2025-11-07 14:56:57.799529,0,2025-11-07 14:56:59.378720769
2025-11-07 14:56:57.799529,38,2025-11-07 14:56:59.386413077
2025-11-07 14:56:57.799529,8448,2025-11-07 14:56:59.394105385
2025-11-07 14:56:57.799529,0,2025-11-07 14:56:59.401797692
2025-11-07 14:56:57.799529,19,2025-11-07 14:56:59.409490000
2025-11-07 14:56:57.799529,4864,2025-11-07 14:56:59.417182308
2025-11-07 14:56:57.799529,0,2025-11-07 14:56:59.424874615
2025-11-07 14:56:57.799529,23,2025-11-07 14:56:59.432566923
2025-11-07 14:56:57.799529,5376,2025-11-07 14:56:59.440259231
2025-11-07 14:56:57.799529,0,2025-11-07 14:56:59.447951538
2025-11-07 14:56:57.799529,21,2025-11-07 14:56:59.455643846
2025-11-07 14:56:57.799529,4096,2025-11-07 14:56:59.463336154
2025-11-07 14:56:57.799529,0,2025-11-07 14:56:59.471028462
2025-11-07 14:56:57.799529,7,2025-11-07 14:56:59.478720769
2025-11-07 14:56:57.799529,-10240,2025-11-07 14:56:59.486413077
2025-11-07 14:56:57.799529,-1,2025-11-07 14:56:59.494105385
2025-11-07 14:56:57.799529,-199,2025-11-07 14:56:59.501797692
2025-11-07 14:56:57.799529,8447,2025-11-07 14:56:59.509490000
2025-11-07 14:56:57.799529,-2,2025-11-07 14:56:59.517182308
2025-11-07 14:56:57.799529,-477,2025-11-07 14:56:59.524874615
2025-11-07 14:56:57.799529,19199,2025-11-07 14:56:59.532566923
2025-11-07 14:56:57.799529,1,2025-11-07 14:56:59.540259230
2025-11-07 14:56:57.799529,1344,2025-11-07 14:56:59.547951538
2025-11-07 14:56:57.799529,29952,2025-11-07 14:56:59.555643846
2025-11-07 14:56:57.799529,5,2025-11-07 14:56:59.563336154
2025-11-07 14:56:57.799529,660,2025-11-07 14:56:59.571028462
2025-11-07 14:56:57.799529,29184,2025-11-07 14:56:59.578720769
2025-11-07 14:56:57.799529,0,2025-11-07 14:56:59.586413077
2025-11-07 14:56:57.799529,-30,2025-11-07 14:56:59.594105385
2025-11-07 14:56:57.799529,-27649,2025-11-07 14:56:59.601797692
2025-11-07 14:56:57.799529,-1,2025-11-07 14:56:59.609490000
2025-11-07 14:56:57.799529,-180,2025-11-07 14:56:59.617182308
2025-11-07 14:56:57.799529,20991,2025-11-07 14:56:59.624874615
2025-11-07 14:56:57.799529,-1,2025-11-07 14:56:59.632566923
2025-11-07 14:56:57.799529,-168,2025-11-07 14:56:59.640259231
2025-11-07 14:56:57.799529,18431,2025-11-07 14:56:59.647951538
2025-11-07 14:56:57.799529,-1,2025-11-07 14:56:59.655643846
2025-11-07 14:56:57.799529,-182,2025-11-07 14:56:59.663336154
2025-11-07 14:56:57.799529,20991,2025-11-07 14:56:59.671028462
2025-11-07 14:56:57.799529,-1,2025-11-07 14:56:59.678720769
2025-11-07 14:56:57.799529,-187,2025-11-07 14:56:59.686413077
2025-11-07 14:56:57.799529,16639,2025-11-07 14:56:59.694105385
2025-11-07 14:56:57.799529,-1,2025-11-07 14:56:59.701797692
2025-11-07 14:56:57.799529,-192,2025-11-07 14:56:59.709490000
2025-11-07 14:56:57.799529,14335,2025-11-07 14:56:59.717182308
2025-11-07 14:56:57.799529,-1,2025-11-07 14:56:59.724874615
2025-11-07 14:56:57.799529,-206,2025-11-07 14:56:59.732566923
2025-11-07 14:56:57.799529,12287,2025-11-07 14:56:59.740259231
2025-11-07 14:56:57.799529,-1,2025-11-07 14:56:59.747951538
2025-11-07 14:56:57.799529,-211,2025-11-07 14:56:59.755643846
2025-11-07 14:56:57.799529,13055,2025-11-07 14:56:59.763336154
2025-11-07 14:56:57.799529,-1,2025-11-07 14:56:59.771028462
2025-11-07 14:56:57.799529,-192,2025-11-07 14:56:59.778720769
2025-11-07 14:56:57.799529,22783,2025-11-07 14:56:59.786413077
2025-11-07 14:56:57.799529,-1,2025-11-07 14:56:59.794105385
2025-11-07 14:56:57.799529,-142,2025-11-07 14:56:59.801797692
2025-11-07 14:56:57.799529,-28929,2025-11-07 14:56:59.809490000
2025-11-07 14:56:57.799529,-1,2025-11-07 14:56:59.817182308
2025-11-07 14:56:57.799529,-85,2025-11-07 14:56:59.824874615
2025-11-07 14:56:57.799529,-14849,2025-11-07 14:56:59.832566923
2025-11-07 14:56:57.799529,-1,2025-11-07 14:56:59.840259231
2025-11-07 14:56:57.799529,-35,2025-11-07 14:56:59.847951538
2025-11-07 14:56:57.799529,-5633,2025-11-07 14:56:59.855643846
2025-11-07 14:56:57.799529,-1,2025-11-07 14:56:59.863336154
2025-11-07 14:56:57.799529,-16,2025-11-07 14:56:59.871028462
2025-11-07 14:56:57.799529,-3329,2025-11-07 14:56:59.878720769
2025-11-07 14:56:57.799529,-1,2025-11-07 14:56:59.886413077
2025-11-07 14:56:57.799529,-14,2025-11-07 14:56:59.894105385
2025-11-07 14:56:57.799529,-2561,2025-11-07 14:56:59.901797692
2025-11-07 14:56:57.799529,-1,2025-11-07 14:56:59.909490000
2025-11-07 14:56:57.799529,-11,2025-11-07 14:56:59.917182308
2025-11-07 14:56:57.799529,-769,2025-11-07 14:56:59.924874615
2025-11-07 14:56:57.799529,-1,2025-11-07 14:56:59.932566923
2025-11-07 14:56:57.799529,0,2025-11-07 14:56:59.940259231
2025-11-07 14:56:57.799529,0,2025-11-07 14:56:59.947951538
2025-11-07 14:56:57.799529,0,2025-11-07 14:56:59.955643846
2025-11-07 14:56:57.799529,-2,2025-11-07 14:56:59.963336154
2025-11-07 14:56:57.799529,-257,2025-11-07 14:56:59.971028462
2025-11-07 14:56:57.799529,-1,2025-11-07 14:56:59.978720769
2025-11-07 14:56:57.799529,-4,2025-11-07 14:56:59.986413077
2025-11-07 14:56:57.799529,-769,2025-11-07 14:56:59.994105385
2025-11-07 14:56:57.799529,-1,2025-11-07 14:57:00.001797692
2025-11-07 14:56:57.799529,-7,2025-11-07 14:57:00.009490000
2025-11-07 14:56:57.799529,-2049,2025-11-07 14:57:00.017182308
2025-11-07 14:56:57.799529,-1,2025-11-07 14:57:00.024874615
2025-11-07 14:56:57.799529,-11,2025-11-07 14:57:00.032566923
2025-11-07 14:56:58.385216,-11,2025-11-07 14:57:00.040259231
2025-11-07 14:56:58.385216,-2561,2025-11-07 14:57:00.047951538
2025-11-07 14:56:58.385216,-1,2025-11-07 14:57:00.055643846
2025-11-07 14:56:58.385216,-9,2025-11-07 14:57:00.063336154
2025-11-07 14:56:58.385216,-1537,2025-11-07 14:57:00.071028462
2025-11-07 14:56:58.385216,-1,2025-11-07 14:57:00.078720769
2025-11-07 14:56:58.385216,-4,2025-11-07 14:57:00.086413077
2025-11-07 14:56:58.385216,-769,2025-11-07 14:57:00.094105385
2025-11-07 14:56:58.385216,-1,2025-11-07 14:57:00.101797692
2025-11-07 14:56:58.385216,-4,2025-11-07 14:57:00.109490000
2025-11-07 14:56:58.385216,767,2025-11-07 14:57:00.117182308
2025-11-07 14:56:58.385216,0,2025-11-07 14:57:00.124874615
2025-11-07 14:56:58.385216,16,2025-11-07 14:57:00.132566923
2025-11-07 14:56:58.385216,5888,2025-11-07 14:57:00.140259231
2025-11-07 14:56:58.385216,0,2025-11-07 14:57:00.147951538
2025-11-07 14:56:58.385216,14,2025-11-07 14:57:00.155643846
2025-11-07 14:56:58.385216,512,2025-11-07 14:57:00.163336154
2025-11-07 14:56:58.385216,0,2025-11-07 14:57:00.171028462
2025-11-07 14:56:58.385216,-2,2025-11-07 14:57:00.178720769
2025-11-07 14:56:58.385216,-257,2025-11-07 14:57:00.186413077
2025-11-07 14:56:58.385216,-1,2025-11-07 14:57:00.194105385
2025-11-07 14:56:58.385216,2,2025-11-07 14:57:00.201797692
2025-11-07 14:56:58.385216,2816,2025-11-07 14:57:00.209490000
2025-11-07 14:56:58.385216,0,2025-11-07 14:57:00.217182308
2025-11-07 14:56:58.385216,21,2025-11-07 14:57:00.224874615
2025-11-07 14:56:58.385216,7168,2025-11-07 14:57:00.232566923
2025-11-07 14:56:58.385216,0,2025-11-07 14:57:00.240259231
2025-11-07 14:56:58.385216,33,2025-11-07 14:57:00.247951538
2025-11-07 14:56:58.385216,7680,2025-11-07 14:57:00.255643846
2025-11-07 14:56:58.385216,0,2025-11-07 14:57:00.263336154
2025-11-07 14:56:58.385216,19,2025-11-07 14:57:00.271028462
2025-11-07 14:56:58.385216,4096,2025-11-07 14:57:00.278720769
2025-11-07 14:56:58.385216,0,2025-11-07 14:57:00.286413077
2025-11-07 14:56:58.385216,23,2025-11-07 14:57:00.294105385
2025-11-07 14:56:58.385216,4864,2025-11-07 14:57:00.301797692
2025-11-07 14:56:58.385216,0,2025-11-07 14:57:00.309490000
2025-11-07 14:56:58.385216,11,2025-11-07 14:57:00.317182308
2025-11-07 14:56:58.385216,3584,2025-11-07 14:57:00.324874615
2025-11-07 14:56:58.385216,0,2025-11-07 14:57:00.332566923
2025-11-07 14:56:58.385216,11,2025-11-07 14:57:00.340259231
2025-11-07 14:56:58.385216,-6656,2025-11-07 14:57:00.347951538
2025-11-07 14:56:58.385216,-1,2025-11-07 14:57:00.355643846
2025-11-07 14:56:58.385216,-168,2025-11-07 14:57:00.363336154
2025-11-07 14:56:58.385216,19455,2025-11-07 14:57:00.371028462
2025-11-07 14:56:58.385216,-2,2025-11-07 14:57:00.378720769
2025-11-07 14:56:58.385216,-499,2025-11-07 14:57:00.386413077
2025-11-07 14:56:58.385216,-11265,2025-11-07 14:57:00.394105385
2025-11-07 14:56:58.385216,0,2025-11-07 14:57:00.401797692
2025-11-07 14:56:58.385216,1266,2025-11-07 14:57:00.409490000
2025-11-07 14:56:58.385216,-20992,2025-11-07 14:57:00.417182308
2025-11-07 14:56:58.385216,5,2025-11-07 14:57:00.424874615
2025-11-07 14:56:58.385216,758,2025-11-07 14:57:00.432566923
2025-11-07 14:56:58.385216,-22528,2025-11-07 14:57:00.440259231
2025-11-07 14:56:58.385216,0,2025-11-07 14:57:00.447951538
2025-11-07 14:56:58.385216,-7,2025-11-07 14:57:00.455643846
2025-11-07 14:56:58.385216,-22785,2025-11-07 14:57:00.463336154
2025-11-07 14:56:58.385216,-1,2025-11-07 14:57:00.471028462
2025-11-07 14:56:58.385216,-166,2025-11-07 14:57:00.478720769
2025-11-07 14:56:58.385216,24063,2025-11-07 14:57:00.486413077
2025-11-07 14:56:58.385216,-1,2025-11-07 14:57:00.494105385
2025-11-07 14:56:58.385216,-156,2025-11-07 14:57:00.501797692
2025-11-07 14:56:58.385216,20223,2025-11-07 14:57:00.509490000
2025-11-07 14:56:58.385216,-1,2025-11-07 14:57:00.517182308
2025-11-07 14:56:58.385216,-180,2025-11-07 14:57:00.524874615
2025-11-07 14:56:58.385216,21503,2025-11-07 14:57:00.532566923
2025-11-07 14:56:58.385216,-1,2025-11-07 14:57:00.540259230
2025-11-07 14:56:58.385216,-180,2025-11-07 14:57:00.547951538
2025-11-07 14:56:58.385216,17919,2025-11-07 14:57:00.555643846
2025-11-07 14:56:58.385216,-1,2025-11-07 14:57:00.563336154
2025-11-07 14:56:58.385216,-192,2025-11-07 14:57:00.571028462
2025-11-07 14:56:58.385216,15359,2025-11-07 14:57:00.578720769
2025-11-07 14:56:58.385216,-1,2025-11-07 14:57:00.586413077
2025-11-07 14:56:58.385216,-201,2025-11-07 14:57:00.594105385
2025-11-07 14:56:58.385216,13567,2025-11-07 14:57:00.601797692
2025-11-07 14:56:58.385216,-1,2025-11-07 14:57:00.609490000
2025-11-07 14:56:58.385216,-206,2025-11-07 14:57:00.617182308
2025-11-07 14:56:58.385216,14335,2025-11-07 14:57:00.624874615
2025-11-07 14:56:58.385216,-1,2025-11-07 14:57:00.632566923
2025-11-07 14:56:58.385216,-185,2025-11-07 14:57:00.640259231
2025-11-07 14:56:58.385216,24063,2025-11-07 14:57:00.647951538
2025-11-07 14:56:58.385216,-1,2025-11-07 14:57:00.655643846
2025-11-07 14:56:58.385216,-137,2025-11-07 14:57:00.663336154
2025-11-07 14:56:58.385216,-27649,2025-11-07 14:57:00.671028462
2025-11-07 14:56:58.385216,-1,2025-11-07 14:57:00.678720769
2025-11-07 14:56:58.385216,-78,2025-11-07 14:57:00.686413077
2025-11-07 14:56:58.385216,-12289,2025-11-07 14:57:00.694105385
2025-11-07 14:56:58.385216,-1,2025-11-07 14:57:00.701797692
2025-11-07 14:56:58.385216,-28,2025-11-07 14:57:00.709490000
2025-11-07 14:56:58.385216,-4609,2025-11-07 14:57:00.717182308
2025-11-07 14:56:58.385216,-1,2025-11-07 14:57:00.724874615
2025-11-07 14:56:58.385216,-14,2025-11-07 14:57:00.732566923
2025-11-07 14:56:58.385216,-1537,2025-11-07 14:57:00.740259231
2025-11-07 14:56:58.385216,-1,2025-11-07 14:57:00.747951538
2025-11-07 14:56:58.385216,-9,2025-11-07 14:57:00.755643846
2025-11-07 14:56:58.385216,-1537,2025-11-07 14:57:00.763336154
2025-11-07 14:56:58.385216,-1,2025-11-07 14:57:00.771028462
2025-11-07 14:56:58.385216,-2,2025-11-07 14:57:00.778720769
2025-11-07 14:56:58.385216,255,2025-11-07 14:57:00.786413077
2025-11-07 14:56:58.385216,0,2025-11-07 14:57:00.794105385
2025-11-07 14:56:58.385216,0,2025-11-07 14:57:00.801797692
2025-11-07 14:56:58.385216,512,2025-11-07 14:57:00.809490000
2025-11-07 14:56:58.385216,0,2025-11-07 14:57:00.817182308
2025-11-07 14:56:58.385216,9,2025-11-07 14:57:00.824874615
2025-11-07 14:56:58.385216,2304,2025-11-07 14:57:00.832566923
2025-11-07 14:56:58.385216,0,2025-11-07 14:57:00.840259231
2025-11-07 14:56:58.385216,2,2025-11-07 14:57:00.847951538
2025-11-07 14:56:58.385216,-512,2025-11-07 14:57:00.855643846
2025-11-07 14:56:58.385216,-1,2025-11-07 14:57:00.863336154
2025-11-07 14:56:58.385216,-4,2025-11-07 14:57:00.871028462
2025-11-07 14:56:58.925083,-4,2025-11-07 14:57:00.878720769
2025-11-07 14:56:58.925083,-1537,2025-11-07 14:57:00.886413077
2025-11-07 14:56:58.925083,-1,2025-11-07 14:57:00.894105385
2025-11-07 14:56:58.925083,-7,2025-11-07 14:57:00.901797692
2025-11-07 14:56:58.925083,-2049,2025-11-07 14:57:00.909490000
2025-11-07 14:56:58.925083,-1,2025-11-07 14:57:00.917182308
2025-11-07 14:56:58.925083,-11,2025-11-07 14:57:00.924874615
2025-11-07 14:56:58.925083,-2561,2025-11-07 14:57:00.932566923
2025-11-07 14:56:58.925083,-1,2025-11-07 14:57:00.940259231
2025-11-07 14:56:58.925083,-2,2025-11-07 14:57:00.947951538
2025-11-07 14:56:58.925083,767,2025-11-07 14:57:00.955643846
2025-11-07 14:56:58.925083,0,2025-11-07 14:57:00.963336154
2025-11-07 14:56:58.925083,2,2025-11-07 14:57:00.971028462
2025-11-07 14:56:58.925083,1024,2025-11-07 14:57:00.978720769
2025-11-07 14:56:58.925083,0,2025-11-07 14:57:00.986413077
2025-11-07 14:56:58.925083,11,2025-11-07 14:57:00.994105385
2025-11-07 14:56:58.925083,5888,2025-11-07 14:57:01.001797692
2025-11-07 14:56:58.925083,0,2025-11-07 14:57:01.009490000
2025-11-07 14:56:58.925083,33,2025-11-07 14:57:01.017182308
2025-11-07 14:56:58.925083,7680,2025-11-07 14:57:01.024874615
2025-11-07 14:56:58.925083,0,2025-11-07 14:57:01.032566923
2025-11-07 14:56:58.925083,23,2025-11-07 14:57:01.040259231
2025-11-07 14:56:58.925083,4096,2025-11-07 14:57:01.047951538
2025-11-07 14:56:58.925083,0,2025-11-07 14:57:01.055643846
2025-11-07 14:56:58.925083,9,2025-11-07 14:57:01.063336154
2025-11-07 14:56:58.925083,1792,2025-11-07 14:57:01.071028462
2025-11-07 14:56:58.925083,0,2025-11-07 14:57:01.078720769
2025-11-07 14:56:58.925083,9,2025-11-07 14:57:01.086413077
2025-11-07 14:56:58.925083,4096,2025-11-07 14:57:01.094105385
2025-11-07 14:56:58.925083,0,2025-11-07 14:57:01.101797692
2025-11-07 14:56:58.925083,26,2025-11-07 14:57:01.109490000
2025-11-07 14:56:58.925083,8960,2025-11-07 14:57:01.117182308
2025-11-07 14:56:58.925083,0,2025-11-07 14:57:01.124874615
2025-11-07 14:56:58.925083,47,2025-11-07 14:57:01.132566923
2025-11-07 14:56:58.925083,12032,2025-11-07 14:57:01.140259231
2025-11-07 14:56:58.925083,0,2025-11-07 14:57:01.147951538
2025-11-07 14:56:58.925083,30,2025-11-07 14:57:01.155643846
2025-11-07 14:56:58.925083,5888,2025-11-07 14:57:01.163336154
2025-11-07 14:56:58.925083,0,2025-11-07 14:57:01.171028462
2025-11-07 14:56:58.925083,38,2025-11-07 14:57:01.178720769
2025-11-07 14:56:58.925083,10752,2025-11-07 14:57:01.186413077
2025-11-07 14:56:58.925083,0,2025-11-07 14:57:01.194105385
2025-11-07 14:56:58.925083,35,2025-11-07 14:57:01.201797692
2025-11-07 14:56:58.925083,7680,2025-11-07 14:57:01.209490000
2025-11-07 14:56:58.925083,0,2025-11-07 14:57:01.217182308
2025-11-07 14:56:58.925083,28,2025-11-07 14:57:01.224874615
2025-11-07 14:56:58.925083,0,2025-11-07 14:57:01.232566923
2025-11-07 14:56:58.925083,0,2025-11-07 14:57:01.240259231
2025-11-07 14:56:58.925083,-118,2025-11-07 14:57:01.247951538
2025-11-07 14:56:58.925083,-31489,2025-11-07 14:57:01.255643846
2025-11-07 14:56:58.925083,-2,2025-11-07 14:57:01.263336154
2025-11-07 14:56:58.925083,-534,2025-11-07 14:57:01.271028462
2025-11-07 14:56:58.925083,-257,2025-11-07 14:57:01.278720769
2025-11-07 14:56:58.925083,-1,2025-11-07 14:57:01.286413077
2025-11-07 14:56:58.925083,1028,2025-11-07 14:57:01.294105385
2025-11-07 14:56:58.925083,31744,2025-11-07 14:57:01.301797692
2025-11-07 14:56:58.925083,5,2025-11-07 14:57:01.309490000
2025-11-07 14:56:58.925083,855,2025-11-07 14:57:01.317182308
2025-11-07 14:56:58.925083,3584,2025-11-07 14:57:01.324874615
2025-11-07 14:56:58.925083,1,2025-11-07 14:57:01.332566923
2025-11-07 14:56:58.925083,66,2025-11-07 14:57:01.340259231
2025-11-07 14:56:58.925083,-10240,2025-11-07 14:57:01.347951538
2025-11-07 14:56:58.925083,-1,2025-11-07 14:57:01.355643846
2025-11-07 14:56:58.925083,-142,2025-11-07 14:57:01.363336154
2025-11-07 14:56:58.925083,28927,2025-11-07 14:57:01.371028462
2025-11-07 14:56:58.925083,-1,2025-11-07 14:57:01.378720769
2025-11-07 14:56:58.925083,-135,2025-11-07 14:57:01.386413077
2025-11-07 14:56:58.925083,26367,2025-11-07 14:57:01.394105385
2025-11-07 14:56:58.925083,-1,2025-11-07 14:57:01.401797692
2025-11-07 14:56:58.925083,-154,2025-11-07 14:57:01.409490000
2025-11-07 14:56:58.925083,27647,2025-11-07 14:57:01.417182308
2025-11-07 14:56:58.925083,-1,2025-11-07 14:57:01.424874615
2025-11-07 14:56:58.925083,-161,2025-11-07 14:57:01.432566923
2025-11-07 14:56:58.925083,24063,2025-11-07 14:57:01.440259231
2025-11-07 14:56:58.925083,-1,2025-11-07 14:57:01.447951538
2025-11-07 14:56:58.925083,-163,2025-11-07 14:57:01.455643846
2025-11-07 14:56:58.925083,21503,2025-11-07 14:57:01.463336154
2025-11-07 14:56:58.925083,-1,2025-11-07 14:57:01.471028462
2025-11-07 14:56:58.925083,-180,2025-11-07 14:57:01.478720769
2025-11-07 14:56:58.925083,18431,2025-11-07 14:57:01.486413077
2025-11-07 14:56:58.925083,-1,2025-11-07 14:57:01.494105385
2025-11-07 14:56:58.925083,-192,2025-11-07 14:57:01.501797692
2025-11-07 14:56:58.925083,17919,2025-11-07 14:57:01.509490000
2025-11-07 14:56:58.925083,-1,2025-11-07 14:57:01.517182308
2025-11-07 14:56:58.925083,-171,2025-11-07 14:57:01.524874615
2025-11-07 14:56:58.925083,26879,2025-11-07 14:57:01.532566923
2025-11-07 14:56:58.925083,-1,2025-11-07 14:57:01.540259230
2025-11-07 14:56:58.925083,-125,2025-11-07 14:57:01.547951538
2025-11-07 14:56:58.925083,-23297,2025-11-07 14:57:01.555643846
2025-11-07 14:56:58.925083,-1,2025-11-07 14:57:01.563336154
2025-11-07 14:56:58.925083,-59,2025-11-07 14:57:01.571028462
2025-11-07 14:56:58.925083,-6401,2025-11-07 14:57:01.578720769
2025-11-07 14:56:58.925083,-1,2025-11-07 14:57:01.586413077
2025-11-07 14:56:58.925083,-4,2025-11-07 14:57:01.594105385
2025-11-07 14:56:58.925083,3071,2025-11-07 14:57:01.601797692
2025-11-07 14:56:58.925083,0,2025-11-07 14:57:01.609490000
2025-11-07 14:56:58.925083,16,2025-11-07 14:57:01.617182308
2025-11-07 14:56:58.925083,3584,2025-11-07 14:57:01.624874615
2025-11-07 14:56:58.925083,0,2025-11-07 14:57:01.632566923
2025-11-07 14:56:58.925083,21,2025-11-07 14:57:01.640259231
2025-11-07 14:56:58.925083,7168,2025-11-07 14:57:01.647951538
2025-11-07 14:56:58.925083,0,2025-11-07 14:57:01.655643846
2025-11-07 14:56:58.925083,28,2025-11-07 14:57:01.663336154
2025-11-07 14:56:58.925083,7168,2025-11-07 14:57:01.671028462
2025-11-07 14:56:58.925083,0,2025-11-07 14:57:01.678720769
2025-11-07 14:56:58.925083,28,2025-11-07 14:57:01.686413077
2025-11-07 14:56:58.925083,7168,2025-11-07 14:57:01.694105385
2025-11-07 14:56:58.925083,0,2025-11-07 14:57:01.701797692
2025-11-07 14:56:58.925083,26,2025-11-07 14:57:01.709490000
2025-11-07 14:56:59.555153,23,2025-11-07 14:57:01.717182308
2025-11-07 14:56:59.555153,5888,2025-11-07 14:57:01.724874615
2025-11-07 14:56:59.555153,0,2025-11-07 14:57:01.732566923
2025-11-07 14:56:59.555153,14,2025-11-07 14:57:01.740259231
2025-11-07 14:56:59.555153,1792,2025-11-07 14:57:01.747951538
2025-11-07 14:56:59.555153,0,2025-11-07 14:57:01.755643846
2025-11-07 14:56:59.555153,7,2025-11-07 14:57:01.763336154
2025-11-07 14:56:59.555153,1792,2025-11-07 14:57:01.771028462
2025-11-07 14:56:59.555153,0,2025-11-07 14:57:01.778720769
2025-11-07 14:56:59.555153,4,2025-11-07 14:57:01.786413077
2025-11-07 14:56:59.555153,1792,2025-11-07 14:57:01.794105385
2025-11-07 14:56:59.555153,0,2025-11-07 14:57:01.801797692
2025-11-07 14:56:59.555153,21,2025-11-07 14:57:01.809490000
2025-11-07 14:56:59.555153,8960,2025-11-07 14:57:01.817182308
2025-11-07 14:56:59.555153,0,2025-11-07 14:57:01.824874615
2025-11-07 14:56:59.555153,28,2025-11-07 14:57:01.832566923
2025-11-07 14:56:59.555153,5888,2025-11-07 14:57:01.840259231
2025-11-07 14:56:59.555153,0,2025-11-07 14:57:01.847951538
2025-11-07 14:56:59.555153,30,2025-11-07 14:57:01.855643846
2025-11-07 14:56:59.555153,8960,2025-11-07 14:57:01.863336154
2025-11-07 14:56:59.555153,0,2025-11-07 14:57:01.871028462
2025-11-07 14:56:59.555153,33,2025-11-07 14:57:01.878720769
2025-11-07 14:56:59.555153,8960,2025-11-07 14:57:01.886413077
2025-11-07 14:56:59.555153,0,2025-11-07 14:57:01.894105385
2025-11-07 14:56:59.555153,40,2025-11-07 14:57:01.901797692
2025-11-07 14:56:59.555153,8960,2025-11-07 14:57:01.909490000
2025-11-07 14:56:59.555153,0,2025-11-07 14:57:01.917182308
2025-11-07 14:56:59.555153,30,2025-11-07 14:57:01.924874615
2025-11-07 14:56:59.555153,6656,2025-11-07 14:57:01.932566923
2025-11-07 14:56:59.555153,0,2025-11-07 14:57:01.940259231
2025-11-07 14:56:59.555153,26,2025-11-07 14:57:01.947951538
2025-11-07 14:56:59.555153,7168,2025-11-07 14:57:01.955643846
2025-11-07 14:56:59.555153,0,2025-11-07 14:57:01.963336154
2025-11-07 14:56:59.555153,40,2025-11-07 14:57:01.971028462
2025-11-07 14:56:59.555153,12544,2025-11-07 14:57:01.978720769
2025-11-07 14:56:59.555153,0,2025-11-07 14:57:01.986413077
2025-11-07 14:56:59.555153,54,2025-11-07 14:57:01.994105385
2025-11-07 14:56:59.555153,15616,2025-11-07 14:57:02.001797692
2025-11-07 14:56:59.555153,0,2025-11-07 14:57:02.009490000
2025-11-07 14:56:59.555153,59,2025-11-07 14:57:02.017182308
2025-11-07 14:56:59.555153,10752,2025-11-07 14:57:02.024874615
2025-11-07 14:56:59.555153,0,2025-11-07 14:57:02.032566923
2025-11-07 14:56:59.555153,38,2025-11-07 14:57:02.040259231
2025-11-07 14:56:59.555153,12032,2025-11-07 14:57:02.047951538
2025-11-07 14:56:59.555153,0,2025-11-07 14:57:02.055643846
2025-11-07 14:56:59.555153,47,2025-11-07 14:57:02.063336154
2025-11-07 14:56:59.555153,10752,2025-11-07 14:57:02.071028462
2025-11-07 14:56:59.555153,0,2025-11-07 14:57:02.078720769
2025-11-07 14:56:59.555153,45,2025-11-07 14:57:02.086413077
2025-11-07 14:56:59.555153,9728,2025-11-07 14:57:02.094105385
2025-11-07 14:56:59.555153,0,2025-11-07 14:57:02.101797692
2025-11-07 14:56:59.555153,-7,2025-11-07 14:57:02.109490000
2025-11-07 14:56:59.555153,25855,2025-11-07 14:57:02.117182308
2025-11-07 14:56:59.555153,-1,2025-11-07 14:57:02.124874615
2025-11-07 14:56:59.555153,-439,2025-11-07 14:57:02.132566923
2025-11-07 14:56:59.555153,-1281,2025-11-07 14:57:02.140259231
2025-11-07 14:56:59.555153,-3,2025-11-07 14:57:02.147951538
2025-11-07 14:56:59.555153,159,2025-11-07 14:57:02.155643846
2025-11-07 14:56:59.555153,27392,2025-11-07 14:57:02.163336154
2025-11-07 14:56:59.555153,4,2025-11-07 14:57:02.171028462
2025-11-07 14:56:59.555153,1264,2025-11-07 14:57:02.178720769
2025-11-07 14:56:59.555153,-27136,2025-11-07 14:57:02.186413077
2025-11-07 14:56:59.555153,2,2025-11-07 14:57:02.194105385
2025-11-07 14:56:59.555153,237,2025-11-07 14:57:02.201797692
2025-11-07 14:56:59.555153,24320,2025-11-07 14:57:02.209490000
2025-11-07 14:56:59.555153,0,2025-11-07 14:57:02.217182308
2025-11-07 14:56:59.555153,-54,2025-11-07 14:57:02.224874615
2025-11-07 14:56:59.555153,28159,2025-11-07 14:57:02.232566923
2025-11-07 14:56:59.555153,-1,2025-11-07 14:57:02.240259231
2025-11-07 14:56:59.555153,-125,2025-11-07 14:57:02.247951538
2025-11-07 14:56:59.555153,-31233,2025-11-07 14:57:02.255643846
2025-11-07 14:56:59.555153,-1,2025-11-07 14:57:02.263336154
2025-11-07 14:56:59.555153,-142,2025-11-07 14:57:02.271028462
2025-11-07 14:56:59.555153,31231,2025-11-07 14:57:02.278720769
2025-11-07 14:56:59.555153,-1,2025-11-07 14:57:02.286413077
2025-11-07 14:56:59.555153,-135,2025-11-07 14:57:02.294105385
2025-11-07 14:56:59.555153,27647,2025-11-07 14:57:02.301797692
2025-11-07 14:56:59.555153,-1,2025-11-07 14:57:02.309490000
2025-11-07 14:56:59.555153,-156,2025-11-07 14:57:02.317182308
2025-11-07 14:56:59.555153,25087,2025-11-07 14:57:02.324874615
2025-11-07 14:56:59.555153,-1,2025-11-07 14:57:02.332566923
2025-11-07 14:56:59.555153,-163,2025-11-07 14:57:02.340259231
2025-11-07 14:56:59.555153,22783,2025-11-07 14:57:02.347951538
2025-11-07 14:56:59.555153,-1,2025-11-07 14:57:02.355643846
2025-11-07 14:56:59.555153,-173,2025-11-07 14:57:02.363336154
2025-11-07 14:56:59.555153,19711,2025-11-07 14:57:02.371028462
2025-11-07 14:56:59.555153,-1,2025-11-07 14:57:02.378720769
2025-11-07 14:56:59.555153,-180,2025-11-07 14:57:02.386413077
2025-11-07 14:56:59.555153,23295,2025-11-07 14:57:02.394105385
2025-11-07 14:56:59.555153,-1,2025-11-07 14:57:02.401797692
2025-11-07 14:56:59.555153,-142,2025-11-07 14:57:02.409490000
2025-11-07 14:56:59.555153,-28161,2025-11-07 14:57:02.417182308
2025-11-07 14:56:59.555153,-1,2025-11-07 14:57:02.424874615
2025-11-07 14:56:59.555153,-78,2025-11-07 14:57:02.432566923
2025-11-07 14:56:59.555153,-12289,2025-11-07 14:57:02.440259231
2025-11-07 14:56:59.555153,-1,2025-11-07 14:57:02.447951538
2025-11-07 14:56:59.555153,-16,2025-11-07 14:57:02.455643846
2025-11-07 14:56:59.555153,3839,2025-11-07 14:57:02.463336154
2025-11-07 14:56:59.555153,0,2025-11-07 14:57:02.471028462
2025-11-07 14:56:59.555153,26,2025-11-07 14:57:02.478720769
2025-11-07 14:56:59.555153,5888,2025-11-07 14:57:02.486413077
2025-11-07 14:56:59.555153,0,2025-11-07 14:57:02.494105385
2025-11-07 14:56:59.555153,26,2025-11-07 14:57:02.501797692
2025-11-07 14:56:59.555153,7680,2025-11-07 14:57:02.509490000
2025-11-07 14:56:59.555153,0,2025-11-07 14:57:02.517182308
2025-11-07 14:56:59.555153,28,2025-11-07 14:57:02.524874615
2025-11-07 14:56:59.555153,7168,2025-11-07 14:57:02.532566923
2025-11-07 14:56:59.555153,0,2025-11-07 14:57:02.540259230
2025-11-07 14:56:59.555153,30,2025-11-07 14:57:02.547951538
2025-11-07 14:57:00.049547,35,2025-11-07 14:57:02.555643846
2025-11-07 14:57:00.049547,7680,2025-11-07 14:57:02.563336154
2025-11-07 14:57:00.049547,0,2025-11-07 14:57:02.571028462
2025-11-07 14:57:00.049547,23,2025-11-07 14:57:02.578720769
2025-11-07 14:57:00.049547,5376,2025-11-07 14:57:02.586413077
2025-11-07 14:57:00.049547,0,2025-11-07 14:57:02.594105385
2025-11-07 14:57:00.049547,16,2025-11-07 14:57:02.601797692
2025-11-07 14:57:00.049547,2816,2025-11-07 14:57:02.609490000
2025-11-07 14:57:00.049547,0,2025-11-07 14:57:02.617182308
2025-11-07 14:57:00.049547,9,2025-11-07 14:57:02.624874615
2025-11-07 14:57:00.049547,1792,2025-11-07 14:57:02.632566923
2025-11-07 14:57:00.049547,0,2025-11-07 14:57:02.640259231
2025-11-07 14:57:00.049547,9,2025-11-07 14:57:02.647951538
2025-11-07 14:57:00.049547,2304,2025-11-07 14:57:02.655643846
2025-11-07 14:57:00.049547,0,2025-11-07 14:57:02.663336154
2025-11-07 14:57:00.049547,7,2025-11-07 14:57:02.671028462
2025-11-07 14:57:00.049547,2816,2025-11-07 14:57:02.678720769
2025-11-07 14:57:00.049547,0,2025-11-07 14:57:02.686413077
2025-11-07 14:57:00.049547,19,2025-11-07 14:57:02.694105385
2025-11-07 14:57:00.049547,3584,2025-11-07 14:57:02.701797692
2025-11-07 14:57:00.049547,0,2025-11-07 14:57:02.709490000
2025-11-07 14:57:00.049547,14,2025-11-07 14:57:02.717182308
2025-11-07 14:57:00.049547,4096,2025-11-07 14:57:02.724874615
2025-11-07 14:57:00.049547,0,2025-11-07 14:57:02.732566923
2025-11-07 14:57:00.049547,16,2025-11-07 14:57:02.740259231
2025-11-07 14:57:00.049547,5376,2025-11-07 14:57:02.747951538
2025-11-07 14:57:00.049547,0,2025-11-07 14:57:02.755643846
2025-11-07 14:57:00.049547,23,2025-11-07 14:57:02.763336154
2025-11-07 14:57:00.049547,5376,2025-11-07 14:57:02.771028462
2025-11-07 14:57:00.049547,0,2025-11-07 14:57:02.778720769
2025-11-07 14:57:00.049547,23,2025-11-07 14:57:02.786413077
2025-11-07 14:57:00.049547,8960,2025-11-07 14:57:02.794105385
2025-11-07 14:57:00.049547,0,2025-11-07 14:57:02.801797692
2025-11-07 14:57:00.049547,47,2025-11-07 14:57:02.809490000
2025-11-07 14:57:00.049547,15104,2025-11-07 14:57:02.817182308
2025-11-07 14:57:00.049547,0,2025-11-07 14:57:02.824874615
2025-11-07 14:57:00.049547,66,2025-11-07 14:57:02.832566923
2025-11-07 14:57:00.049547,14592,2025-11-07 14:57:02.840259231
2025-11-07 14:57:00.049547,0,2025-11-07 14:57:02.847951538
2025-11-07 14:57:00.049547,40,2025-11-07 14:57:02.855643846
2025-11-07 14:57:00.049547,11520,2025-11-07 14:57:02.863336154
2025-11-07 14:57:00.049547,0,2025-11-07 14:57:02.871028462
2025-11-07 14:57:00.049547,57,2025-11-07 14:57:02.878720769
2025-11-07 14:57:00.049547,13824,2025-11-07 14:57:02.886413077
2025-11-07 14:57:00.049547,0,2025-11-07 14:57:02.894105385
2025-11-07 14:57:00.049547,45,2025-11-07 14:57:02.901797692
2025-11-07 14:57:00.049547,10240,2025-11-07 14:57:02.909490000
2025-11-07 14:57:00.049547,0,2025-11-07 14:57:02.917182308
2025-11-07 14:57:00.049547,30,2025-11-07 14:57:02.924874615
2025-11-07 14:57:00.049547,-9728,2025-11-07 14:57:02.932566923
2025-11-07 14:57:00.049547,-1,2025-11-07 14:57:02.940259231
2025-11-07 14:57:00.049547,-244,2025-11-07 14:57:02.947951538
2025-11-07 14:57:00.049547,-6657,2025-11-07 14:57:02.955643846
2025-11-07 14:57:00.049547,-3,2025-11-07 14:57:02.963336154
2025-11-07 14:57:00.049547,-420,2025-11-07 14:57:02.971028462
2025-11-07 14:57:00.049547,3583,2025-11-07 14:57:02.978720769
2025-11-07 14:57:00.049547,2,2025-11-07 14:57:02.986413077
2025-11-07 14:57:00.049547,1428,2025-11-07 14:57:02.994105385
2025-11-07 14:57:00.049547,-9728,2025-11-07 14:57:03.001797692
2025-11-07 14:57:00.049547,4,2025-11-07 14:57:03.009490000
2025-11-07 14:57:00.049547,510,2025-11-07 14:57:03.017182308
2025-11-07 14:57:00.049547,-29184,2025-11-07 14:57:03.024874615
2025-11-07 14:57:00.049547,0,2025-11-07 14:57:03.032566923
2025-11-07 14:57:00.049547,35,2025-11-07 14:57:03.040259231
2025-11-07 14:57:00.049547,-26112,2025-11-07 14:57:03.047951538
2025-11-07 14:57:00.049547,-1,2025-11-07 14:57:03.055643846
2025-11-07 14:57:00.049547,-161,2025-11-07 14:57:03.063336154
2025-11-07 14:57:00.049547,31743,2025-11-07 14:57:03.071028462
2025-11-07 14:57:00.049547,-1,2025-11-07 14:57:03.078720769
2025-11-07 14:57:00.049547,-140,2025-11-07 14:57:03.086413077
2025-11-07 14:57:00.049547,24575,2025-11-07 14:57:03.094105385
2025-11-07 14:57:00.049547,-1,2025-11-07 14:57:03.101797692
2025-11-07 14:57:00.049547,-156,2025-11-07 14:57:03.109490000
2025-11-07 14:57:00.049547,24575,2025-11-07 14:57:03.117182308
2025-11-07 14:57:00.049547,-1,2025-11-07 14:57:03.124874615
2025-11-07 14:57:00.049547,-173,2025-11-07 14:57:03.132566923
2025-11-07 14:57:00.049547,20991,2025-11-07 14:57:03.140259231
2025-11-07 14:57:00.049547,-1,2025-11-07 14:57:03.147951538
2025-11-07 14:57:00.049547,-180,2025-11-07 14:57:03.155643846
2025-11-07 14:57:00.049547,17151,2025-11-07 14:57:03.163336154
2025-11-07 14:57:00.049547,-1,2025-11-07 14:57:03.171028462
2025-11-07 14:57:00.049547,-199,2025-11-07 14:57:03.178720769
2025-11-07 14:57:00.049547,13055,2025-11-07 14:57:03.186413077
2025-11-07 14:57:00.049547,-1,2025-11-07 14:57:03.194105385
2025-11-07 14:57:00.049547,-213,2025-11-07 14:57:03.201797692
2025-11-07 14:57:00.049547,11775,2025-11-07 14:57:03.209490000
2025-11-07 14:57:00.049547,-1,2025-11-07 14:57:03.217182308
2025-11-07 14:57:00.049547,-199,2025-11-07 14:57:03.224874615
2025-11-07 14:57:00.049547,19711,2025-11-07 14:57:03.232566923
2025-11-07 14:57:00.049547,-1,2025-11-07 14:57:03.240259231
2025-11-07 14:57:00.049547,-154,2025-11-07 14:57:03.247951538
2025-11-07 14:57:00.049547,-29441,2025-11-07 14:57:03.255643846
2025-11-07 14:57:00.049547,-1,2025-11-07 14:57:03.263336154
2025-11-07 14:57:00.049547,-78,2025-11-07 14:57:03.271028462
2025-11-07 14:57:00.049547,-10497,2025-11-07 14:57:03.278720769
2025-11-07 14:57:00.049547,-1,2025-11-07 14:57:03.286413077
2025-11-07 14:57:00.049547,-16,2025-11-07 14:57:03.294105385
2025-11-07 14:57:00.049547,2047,2025-11-07 14:57:03.301797692
2025-11-07 14:57:00.049547,0,2025-11-07 14:57:03.309490000
2025-11-07 14:57:00.049547,23,2025-11-07 14:57:03.317182308
2025-11-07 14:57:00.049547,6656,2025-11-07 14:57:03.324874615
2025-11-07 14:57:00.049547,0,2025-11-07 14:57:03.332566923
2025-11-07 14:57:00.049547,30,2025-11-07 14:57:03.340259231
2025-11-07 14:57:00.049547,10240,2025-11-07 14:57:03.347951538
2025-11-07 14:57:00.049547,0,2025-11-07 14:57:03.355643846
2025-11-07 14:57:00.049547,40,2025-11-07 14:57:03.363336154
2025-11-07 14:57:00.049547,10752,2025-11-07 14:57:03.371028462
2025-11-07 14:57:00.049547,0,2025-11-07 14:57:03.378720769
2025-11-07 14:57:00.049547,47,2025-11-07 14:57:03.386413077
2025-11-07 14:57:00.590539,47,2025-11-07 14:57:03.394105385
2025-11-07 14:57:00.590539,10752,2025-11-07 14:57:03.401797692
2025-11-07 14:57:00.590539,0,2025-11-07 14:57:03.409490000
2025-11-07 14:57:00.590539,38,2025-11-07 14:57:03.417182308
2025-11-07 14:57:00.590539,8960,2025-11-07 14:57:03.424874615
2025-11-07 14:57:00.590539,0,2025-11-07 14:57:03.432566923
2025-11-07 14:57:00.590539,30,2025-11-07 14:57:03.440259231
2025-11-07 14:57:00.590539,7680,2025-11-07 14:57:03.447951538
2025-11-07 14:57:00.590539,0,2025-11-07 14:57:03.455643846
2025-11-07 14:57:00.590539,26,2025-11-07 14:57:03.463336154
2025-11-07 14:57:00.590539,4096,2025-11-07 14:57:03.471028462
2025-11-07 14:57:00.590539,0,2025-11-07 14:57:03.478720769
2025-11-07 14:57:00.590539,26,2025-11-07 14:57:03.486413077
2025-11-07 14:57:00.590539,12032,2025-11-07 14:57:03.494105385
2025-11-07 14:57:00.590539,0,2025-11-07 14:57:03.501797692
2025-11-07 14:57:00.590539,47,2025-11-07 14:57:03.509490000
2025-11-07 14:57:00.590539,8960,2025-11-07 14:57:03.517182308
2025-11-07 14:57:00.590539,0,2025-11-07 14:57:03.524874615
2025-11-07 14:57:00.590539,40,2025-11-07 14:57:03.532566923
2025-11-07 14:57:00.590539,11520,2025-11-07 14:57:03.540259230
2025-11-07 14:57:00.590539,0,2025-11-07 14:57:03.547951538
2025-11-07 14:57:00.590539,40,2025-11-07 14:57:03.555643846
2025-11-07 14:57:00.590539,10240,2025-11-07 14:57:03.563336154
2025-11-07 14:57:00.590539,0,2025-11-07 14:57:03.571028462
2025-11-07 14:57:00.590539,38,2025-11-07 14:57:03.578720769
2025-11-07 14:57:00.590539,7168,2025-11-07 14:57:03.586413077
2025-11-07 14:57:00.590539,0,2025-11-07 14:57:03.594105385
2025-11-07 14:57:00.590539,21,2025-11-07 14:57:03.601797692
2025-11-07 14:57:00.590539,6656,2025-11-07 14:57:03.609490000
2025-11-07 14:57:00.590539,0,2025-11-07 14:57:03.617182308
2025-11-07 14:57:00.590539,35,2025-11-07 14:57:03.624874615
2025-11-07 14:57:00.590539,11520,2025-11-07 14:57:03.632566923
2025-11-07 14:57:00.590539,0,2025-11-07 14:57:03.640259231
2025-11-07 14:57:00.590539,54,2025-11-07 14:57:03.647951538
2025-11-07 14:57:00.590539,15616,2025-11-07 14:57:03.655643846
2025-11-07 14:57:00.590539,0,2025-11-07 14:57:03.663336154
2025-11-07 14:57:00.590539,66,2025-11-07 14:57:03.671028462
2025-11-07 14:57:00.590539,13824,2025-11-07 14:57:03.678720769
2025-11-07 14:57:00.590539,0,2025-11-07 14:57:03.686413077
2025-11-07 14:57:00.590539,45,2025-11-07 14:57:03.694105385
2025-11-07 14:57:00.590539,13312,2025-11-07 14:57:03.701797692
2025-11-07 14:57:00.590539,0,2025-11-07 14:57:03.709490000
2025-11-07 14:57:00.590539,54,2025-11-07 14:57:03.717182308
2025-11-07 14:57:00.590539,13312,2025-11-07 14:57:03.724874615
2025-11-07 14:57:00.590539,0,2025-11-07 14:57:03.732566923
2025-11-07 14:57:00.590539,49,2025-11-07 14:57:03.740259231
2025-11-07 14:57:00.590539,10752,2025-11-07 14:57:03.747951538
2025-11-07 14:57:00.590539,0,2025-11-07 14:57:03.755643846
2025-11-07 14:57:00.590539,11,2025-11-07 14:57:03.763336154
2025-11-07 14:57:00.590539,-31488,2025-11-07 14:57:03.771028462
2025-11-07 14:57:00.590539,-1,2025-11-07 14:57:03.778720769
2025-11-07 14:57:00.590539,-418,2025-11-07 14:57:03.786413077
2025-11-07 14:57:00.590539,-15873,2025-11-07 14:57:03.794105385
2025-11-07 14:57:00.590539,-3,2025-11-07 14:57:03.801797692
2025-11-07 14:57:00.590539,52,2025-11-07 14:57:03.809490000
2025-11-07 14:57:00.590539,-11520,2025-11-07 14:57:03.817182308
2025-11-07 14:57:00.590539,4,2025-11-07 14:57:03.824874615
2025-11-07 14:57:00.590539,1646,2025-11-07 14:57:03.832566923
2025-11-07 14:57:00.590539,-16384,2025-11-07 14:57:03.840259231
2025-11-07 14:57:00.590539,3,2025-11-07 14:57:03.847951538
2025-11-07 14:57:00.590539,247,2025-11-07 14:57:03.855643846
2025-11-07 14:57:00.590539,7680,2025-11-07 14:57:03.863336154
2025-11-07 14:57:00.590539,0,2025-11-07 14:57:03.871028462
2025-11-07 14:57:00.590539,-59,2025-11-07 14:57:03.878720769
2025-11-07 14:57:00.590539,24063,2025-11-07 14:57:03.886413077
2025-11-07 14:57:00.590539,-1,2025-11-07 14:57:03.894105385
2025-11-07 14:57:00.590539,-163,2025-11-07 14:57:03.901797692
2025-11-07 14:57:00.590539,28159,2025-11-07 14:57:03.909490000
2025-11-07 14:57:00.590539,-1,2025-11-07 14:57:03.917182308
2025-11-07 14:57:00.590539,-173,2025-11-07 14:57:03.924874615
2025-11-07 14:57:00.590539,19711,2025-11-07 14:57:03.932566923
2025-11-07 14:57:00.590539,-1,2025-11-07 14:57:03.940259231
2025-11-07 14:57:00.590539,-171,2025-11-07 14:57:03.947951538
2025-11-07 14:57:00.590539,19711,2025-11-07 14:57:03.955643846
2025-11-07 14:57:00.590539,-1,2025-11-07 14:57:03.963336154
2025-11-07 14:57:00.590539,-187,2025-11-07 14:57:03.971028462
2025-11-07 14:57:00.590539,17151,2025-11-07 14:57:03.978720769
2025-11-07 14:57:00.590539,-1,2025-11-07 14:57:03.986413077
2025-11-07 14:57:00.590539,-201,2025-11-07 14:57:03.994105385
2025-11-07 14:57:00.590539,11263,2025-11-07 14:57:04.001797692
2025-11-07 14:57:00.590539,-1,2025-11-07 14:57:04.009490000
2025-11-07 14:57:00.590539,-225,2025-11-07 14:57:04.017182308
2025-11-07 14:57:00.590539,6911,2025-11-07 14:57:04.024874615
2025-11-07 14:57:00.590539,-1,2025-11-07 14:57:04.032566923
2025-11-07 14:57:00.590539,-232,2025-11-07 14:57:04.040259231
2025-11-07 14:57:00.590539,8703,2025-11-07 14:57:04.047951538
2025-11-07 14:57:00.590539,-1,2025-11-07 14:57:04.055643846
2025-11-07 14:57:00.590539,-204,2025-11-07 14:57:04.063336154
2025-11-07 14:57:00.590539,20991,2025-11-07 14:57:04.071028462
2025-11-07 14:57:00.590539,-1,2025-11-07 14:57:04.078720769
2025-11-07 14:57:00.590539,-142,2025-11-07 14:57:04.086413077
2025-11-07 14:57:00.590539,-26881,2025-11-07 14:57:04.094105385
2025-11-07 14:57:00.590539,-1,2025-11-07 14:57:04.101797692
2025-11-07 14:57:00.590539,-71,2025-11-07 14:57:04.109490000
2025-11-07 14:57:00.590539,-9473,2025-11-07 14:57:04.117182308
2025-11-07 14:57:00.590539,-1,2025-11-07 14:57:04.124874615
2025-11-07 14:57:00.590539,-11,2025-11-07 14:57:04.132566923
2025-11-07 14:57:00.590539,1279,2025-11-07 14:57:04.140259231
2025-11-07 14:57:00.590539,0,2025-11-07 14:57:04.147951538
2025-11-07 14:57:00.590539,14,2025-11-07 14:57:04.155643846
2025-11-07 14:57:00.590539,5888,2025-11-07 14:57:04.163336154
2025-11-07 14:57:00.590539,0,2025-11-07 14:57:04.171028462
2025-11-07 14:57:00.590539,30,2025-11-07 14:57:04.178720769
2025-11-07 14:57:00.590539,8448,2025-11-07 14:57:04.186413077
2025-11-07 14:57:00.590539,0,2025-11-07 14:57:04.194105385
2025-11-07 14:57:00.590539,35,2025-11-07 14:57:04.201797692
2025-11-07 14:57:00.590539,10752,2025-11-07 14:57:04.209490000
2025-11-07 14:57:00.590539,0,2025-11-07 14:57:04.217182308
2025-11-07 14:57:00.590539,42,2025-11-07 14:57:04.224874615
2025-11-07 14:57:01.129514,40,2025-11-07 14:57:04.232566923
2025-11-07 14:57:01.129514,10752,2025-11-07 14:57:04.240259231
2025-11-07 14:57:01.129514,0,2025-11-07 14:57:04.247951538
2025-11-07 14:57:01.129514,38,2025-11-07 14:57:04.255643846
2025-11-07 14:57:01.129514,7168,2025-11-07 14:57:04.263336154
2025-11-07 14:57:01.129514,0,2025-11-07 14:57:04.271028462
2025-11-07 14:57:01.129514,21,2025-11-07 14:57:04.278720769
2025-11-07 14:57:01.129514,5888,2025-11-07 14:57:04.286413077
2025-11-07 14:57:01.129514,0,2025-11-07 14:57:04.294105385
2025-11-07 14:57:01.129514,33,2025-11-07 14:57:04.301797692
2025-11-07 14:57:01.129514,8960,2025-11-07 14:57:04.309490000
2025-11-07 14:57:01.129514,0,2025-11-07 14:57:04.317182308
2025-11-07 14:57:01.129514,28,2025-11-07 14:57:04.324874615
2025-11-07 14:57:01.129514,5888,2025-11-07 14:57:04.332566923
2025-11-07 14:57:01.129514,0,2025-11-07 14:57:04.340259231
2025-11-07 14:57:01.129514,23,2025-11-07 14:57:04.347951538
2025-11-07 14:57:01.129514,6656,2025-11-07 14:57:04.355643846
2025-11-07 14:57:01.129514,0,2025-11-07 14:57:04.363336154
2025-11-07 14:57:01.129514,26,2025-11-07 14:57:04.371028462
2025-11-07 14:57:01.129514,7168,2025-11-07 14:57:04.378720769
2025-11-07 14:57:01.129514,0,2025-11-07 14:57:04.386413077
2025-11-07 14:57:01.129514,28,2025-11-07 14:57:04.394105385
2025-11-07 14:57:01.129514,7680,2025-11-07 14:57:04.401797692
2025-11-07 14:57:01.129514,0,2025-11-07 14:57:04.409490000
2025-11-07 14:57:01.129514,35,2025-11-07 14:57:04.417182308
2025-11-07 14:57:01.129514,8960,2025-11-07 14:57:04.424874615
2025-11-07 14:57:01.129514,0,2025-11-07 14:57:04.432566923
2025-11-07 14:57:01.129514,30,2025-11-07 14:57:04.440259231
2025-11-07 14:57:01.129514,7168,2025-11-07 14:57:04.447951538
2025-11-07 14:57:01.129514,0,2025-11-07 14:57:04.455643846
2025-11-07 14:57:01.129514,28,2025-11-07 14:57:04.463336154
2025-11-07 14:57:01.129514,7680,2025-11-07 14:57:04.471028462
2025-11-07 14:57:01.129514,0,2025-11-07 14:57:04.478720769
2025-11-07 14:57:01.129514,33,2025-11-07 14:57:04.486413077
2025-11-07 14:57:01.129514,7168,2025-11-07 14:57:04.494105385
2025-11-07 14:57:01.129514,0,2025-11-07 14:57:04.501797692
2025-11-07 14:57:01.129514,23,2025-11-07 14:57:04.509490000
2025-11-07 14:57:01.129514,3584,2025-11-07 14:57:04.517182308
2025-11-07 14:57:01.129514,0,2025-11-07 14:57:04.524874615
2025-11-07 14:57:01.129514,4,2025-11-07 14:57:04.532566923
2025-11-07 14:57:01.129514,-512,2025-11-07 14:57:04.540259230
2025-11-07 14:57:01.129514,-1,2025-11-07 14:57:04.547951538
2025-11-07 14:57:01.129514,0,2025-11-07 14:57:04.555643846
2025-11-07 14:57:01.129514,2304,2025-11-07 14:57:04.563336154
2025-11-07 14:57:01.129514,0,2025-11-07 14:57:04.571028462
2025-11-07 14:57:01.129514,19,2025-11-07 14:57:04.578720769
2025-11-07 14:57:01.129514,5888,2025-11-07 14:57:04.586413077
2025-11-07 14:57:01.129514,0,2025-11-07 14:57:04.594105385
2025-11-07 14:57:01.129514,28,2025-11-07 14:57:04.601797692
2025-11-07 14:57:01.129514,7168,2025-11-07 14:57:04.609490000
2025-11-07 14:57:01.129514,0,2025-11-07 14:57:04.617182308
2025-11-07 14:57:01.129514,19,2025-11-07 14:57:04.624874615
2025-11-07 14:57:01.129514,2816,2025-11-07 14:57:04.632566923
2025-11-07 14:57:01.129514,0,2025-11-07 14:57:04.640259231
2025-11-07 14:57:01.129514,14,2025-11-07 14:57:04.647951538
2025-11-07 14:57:01.129514,4864,2025-11-07 14:57:04.655643846
2025-11-07 14:57:01.129514,0,2025-11-07 14:57:04.663336154
2025-11-07 14:57:01.129514,14,2025-11-07 14:57:04.671028462
2025-11-07 14:57:01.129514,2304,2025-11-07 14:57:04.678720769
2025-11-07 14:57:01.129514,0,2025-11-07 14:57:04.686413077
2025-11-07 14:57:01.129514,9,2025-11-07 14:57:04.694105385
2025-11-07 14:57:01.129514,-3584,2025-11-07 14:57:04.701797692
2025-11-07 14:57:01.129514,-1,2025-11-07 14:57:04.709490000
2025-11-07 14:57:01.129514,-128,2025-11-07 14:57:04.717182308
2025-11-07 14:57:01.129514,29183,2025-11-07 14:57:04.724874615
2025-11-07 14:57:01.129514,-2,2025-11-07 14:57:04.732566923
2025-11-07 14:57:01.129514,-589,2025-11-07 14:57:04.740259231
2025-11-07 14:57:01.129514,-16129,2025-11-07 14:57:04.747951538
2025-11-07 14:57:01.129514,-1,2025-11-07 14:57:04.755643846
2025-11-07 14:57:01.129514,1062,2025-11-07 14:57:04.763336154
2025-11-07 14:57:01.129514,3328,2025-11-07 14:57:04.771028462
2025-11-07 14:57:01.129514,6,2025-11-07 14:57:04.778720769
2025-11-07 14:57:01.129514,981,2025-11-07 14:57:04.786413077
2025-11-07 14:57:01.129514,6656,2025-11-07 14:57:04.794105385
2025-11-07 14:57:01.129514,1,2025-11-07 14:57:04.801797692
2025-11-07 14:57:01.129514,14,2025-11-07 14:57:04.809490000
2025-11-07 14:57:01.129514,-19456,2025-11-07 14:57:04.817182308
2025-11-07 14:57:01.129514,-1,2025-11-07 14:57:04.824874615
2025-11-07 14:57:01.129514,-159,2025-11-07 14:57:04.832566923
2025-11-07 14:57:01.129514,21503,2025-11-07 14:57:04.840259231
2025-11-07 14:57:01.129514,-1,2025-11-07 14:57:04.847951538
2025-11-07 14:57:01.129514,-159,2025-11-07 14:57:04.855643846
2025-11-07 14:57:01.129514,20223,2025-11-07 14:57:04.863336154
2025-11-07 14:57:01.129514,-1,2025-11-07 14:57:04.871028462
2025-11-07 14:57:01.129514,-187,2025-11-07 14:57:04.878720769
2025-11-07 14:57:01.129514,19711,2025-11-07 14:57:04.886413077
2025-11-07 14:57:01.129514,-1,2025-11-07 14:57:04.894105385
2025-11-07 14:57:01.129514,-182,2025-11-07 14:57:04.901797692
2025-11-07 14:57:01.129514,17151,2025-11-07 14:57:04.909490000
2025-11-07 14:57:01.129514,-1,2025-11-07 14:57:04.917182308
2025-11-07 14:57:01.129514,-192,2025-11-07 14:57:04.924874615
2025-11-07 14:57:01.129514,15359,2025-11-07 14:57:04.932566923
2025-11-07 14:57:01.129514,-1,2025-11-07 14:57:04.940259231
2025-11-07 14:57:01.129514,-204,2025-11-07 14:57:04.947951538
2025-11-07 14:57:01.129514,12287,2025-11-07 14:57:04.955643846
2025-11-07 14:57:01.129514,-1,2025-11-07 14:57:04.963336154
2025-11-07 14:57:01.129514,-209,2025-11-07 14:57:04.971028462
2025-11-07 14:57:01.129514,13055,2025-11-07 14:57:04.978720769
2025-11-07 14:57:01.129514,-1,2025-11-07 14:57:04.986413077
2025-11-07 14:57:01.129514,-204,2025-11-07 14:57:04.994105385
2025-11-07 14:57:01.129514,17919,2025-11-07 14:57:05.001797692
2025-11-07 14:57:01.129514,-1,2025-11-07 14:57:05.009490000
2025-11-07 14:57:01.129514,-161,2025-11-07 14:57:05.017182308
2025-11-07 14:57:01.129514,-32513,2025-11-07 14:57:05.024874615
2025-11-07 14:57:01.129514,-1,2025-11-07 14:57:05.032566923
2025-11-07 14:57:01.129514,-95,2025-11-07 14:57:05.040259231
2025-11-07 14:57:01.129514,-16129,2025-11-07 14:57:05.047951538
2025-11-07 14:57:01.129514,-1,2025-11-07 14:57:05.055643846
2025-11-07 14:57:01.129514,-38,2025-11-07 14:57:05.063336154
2025-11-07 14:57:01.760014,-19,2025-11-07 14:57:05.071028462
2025-11-07 14:57:01.760014,-769,2025-11-07 14:57:05.078720769
2025-11-07 14:57:01.760014,-1,2025-11-07 14:57:05.086413077
2025-11-07 14:57:01.760014,4,2025-11-07 14:57:05.094105385
2025-11-07 14:57:01.760014,5376,2025-11-07 14:57:05.101797692
2025-11-07 14:57:01.760014,0,2025-11-07 14:57:05.109490000
2025-11-07 14:57:01.760014,33,2025-11-07 14:57:05.117182308
2025-11-07 14:57:01.760014,7680,2025-11-07 14:57:05.124874615
2025-11-07 14:57:01.760014,0,2025-11-07 14:57:05.132566923
2025-11-07 14:57:01.760014,28,2025-11-07 14:57:05.140259231
2025-11-07 14:57:01.760014,8448,2025-11-07 14:57:05.147951538
2025-11-07 14:57:01.760014,0,2025-11-07 14:57:05.155643846
2025-11-07 14:57:01.760014,35,2025-11-07 14:57:05.163336154
2025-11-07 14:57:01.760014,8448,2025-11-07 14:57:05.171028462
2025-11-07 14:57:01.760014,0,2025-11-07 14:57:05.178720769
2025-11-07 14:57:01.760014,30,2025-11-07 14:57:05.186413077
2025-11-07 14:57:01.760014,5888,2025-11-07 14:57:05.194105385
2025-11-07 14:57:01.760014,0,2025-11-07 14:57:05.201797692
2025-11-07 14:57:01.760014,19,2025-11-07 14:57:05.209490000
2025-11-07 14:57:01.760014,4096,2025-11-07 14:57:05.217182308
2025-11-07 14:57:01.760014,0,2025-11-07 14:57:05.224874615
2025-11-07 14:57:01.760014,14,2025-11-07 14:57:05.232566923
2025-11-07 14:57:01.760014,2304,2025-11-07 14:57:05.240259231
2025-11-07 14:57:01.760014,0,2025-11-07 14:57:05.247951538
2025-11-07 14:57:01.760014,7,2025-11-07 14:57:05.255643846
2025-11-07 14:57:01.760014,512,2025-11-07 14:57:05.263336154
2025-11-07 14:57:01.760014,0,2025-11-07 14:57:05.271028462
2025-11-07 14:57:01.760014,-2,2025-11-07 14:57:05.278720769
2025-11-07 14:57:01.760014,1279,2025-11-07 14:57:05.286413077
2025-11-07 14:57:01.760014,0,2025-11-07 14:57:05.294105385
2025-11-07 14:57:01.760014,9,2025-11-07 14:57:05.301797692
2025-11-07 14:57:01.760014,2816,2025-11-07 14:57:05.309490000
2025-11-07 14:57:01.760014,0,2025-11-07 14:57:05.317182308
2025-11-07 14:57:01.760014,11,2025-11-07 14:57:05.324874615
2025-11-07 14:57:01.760014,2816,2025-11-07 14:57:05.332566923
2025-11-07 14:57:01.760014,0,2025-11-07 14:57:05.340259231
2025-11-07 14:57:01.760014,11,2025-11-07 14:57:05.347951538
2025-11-07 14:57:01.760014,3584,2025-11-07 14:57:05.355643846
2025-11-07 14:57:01.760014,0,2025-11-07 14:57:05.363336154
2025-11-07 14:57:01.760014,19,2025-11-07 14:57:05.371028462
2025-11-07 14:57:01.760014,4864,2025-11-07 14:57:05.378720769
2025-11-07 14:57:01.760014,0,2025-11-07 14:57:05.386413077
2025-11-07 14:57:01.760014,19,2025-11-07 14:57:05.394105385
2025-11-07 14:57:01.760014,4096,2025-11-07 14:57:05.401797692
2025-11-07 14:57:01.760014,0,2025-11-07 14:57:05.409490000
2025-11-07 14:57:01.760014,19,2025-11-07 14:57:05.417182308
2025-11-07 14:57:01.760014,4864,2025-11-07 14:57:05.424874615
2025-11-07 14:57:01.760014,0,2025-11-07 14:57:05.432566923
2025-11-07 14:57:01.760014,19,2025-11-07 14:57:05.440259231
2025-11-07 14:57:01.760014,4096,2025-11-07 14:57:05.447951538
2025-11-07 14:57:01.760014,0,2025-11-07 14:57:05.455643846
2025-11-07 14:57:01.760014,16,2025-11-07 14:57:05.463336154
2025-11-07 14:57:01.760014,3584,2025-11-07 14:57:05.471028462
2025-11-07 14:57:01.760014,0,2025-11-07 14:57:05.478720769
2025-11-07 14:57:01.760014,11,2025-11-07 14:57:05.486413077
2025-11-07 14:57:01.760014,2816,2025-11-07 14:57:05.494105385
2025-11-07 14:57:01.760014,0,2025-11-07 14:57:05.501797692
2025-11-07 14:57:01.760014,11,2025-11-07 14:57:05.509490000
2025-11-07 14:57:01.760014,2816,2025-11-07 14:57:05.517182308
2025-11-07 14:57:01.760014,0,2025-11-07 14:57:05.524874615
2025-11-07 14:57:01.760014,11,2025-11-07 14:57:05.532566923
2025-11-07 14:57:01.760014,1792,2025-11-07 14:57:05.540259230
2025-11-07 14:57:01.760014,0,2025-11-07 14:57:05.547951538
2025-11-07 14:57:01.760014,4,2025-11-07 14:57:05.555643846
2025-11-07 14:57:01.760014,1792,2025-11-07 14:57:05.563336154
2025-11-07 14:57:01.760014,0,2025-11-07 14:57:05.571028462
2025-11-07 14:57:01.760014,7,2025-11-07 14:57:05.578720769
2025-11-07 14:57:01.760014,2304,2025-11-07 14:57:05.586413077
2025-11-07 14:57:01.760014,0,2025-11-07 14:57:05.594105385
2025-11-07 14:57:01.760014,9,2025-11-07 14:57:05.601797692
2025-11-07 14:57:01.760014,1792,2025-11-07 14:57:05.609490000
2025-11-07 14:57:01.760014,0,2025-11-07 14:57:05.617182308
2025-11-07 14:57:01.760014,2,2025-11-07 14:57:05.624874615
2025-11-07 14:57:01.760014,-1024,2025-11-07 14:57:05.632566923
2025-11-07 14:57:01.760014,-1,2025-11-07 14:57:05.640259231
2025-11-07 14:57:01.760014,-7,2025-11-07 14:57:05.647951538
2025-11-07 14:57:01.760014,-2049,2025-11-07 14:57:05.655643846
2025-11-07 14:57:01.760014,-1,2025-11-07 14:57:05.663336154
2025-11-07 14:57:01.760014,-11,2025-11-07 14:57:05.671028462
2025-11-07 14:57:01.760014,-2049,2025-11-07 14:57:05.678720769
2025-11-07 14:57:01.760014,-1,2025-11-07 14:57:05.686413077
2025-11-07 14:57:01.760014,2,2025-11-07 14:57:05.694105385
2025-11-07 14:57:01.760014,3584,2025-11-07 14:57:05.701797692
2025-11-07 14:57:01.760014,0,2025-11-07 14:57:05.709490000
2025-11-07 14:57:01.760014,21,2025-11-07 14:57:05.717182308
2025-11-07 14:57:01.760014,5888,2025-11-07 14:57:05.724874615
2025-11-07 14:57:01.760014,0,2025-11-07 14:57:05.732566923
2025-11-07 14:57:01.760014,16,2025-11-07 14:57:05.740259231
2025-11-07 14:57:01.760014,1792,2025-11-07 14:57:05.747951538
2025-11-07 14:57:01.760014,0,2025-11-07 14:57:05.755643846
2025-11-07 14:57:01.760014,4,2025-11-07 14:57:05.763336154
2025-11-07 14:57:01.760014,2816,2025-11-07 14:57:05.771028462
2025-11-07 14:57:01.760014,0,2025-11-07 14:57:05.778720769
2025-11-07 14:57:01.760014,14,2025-11-07 14:57:05.786413077
2025-11-07 14:57:01.760014,2816,2025-11-07 14:57:05.794105385
2025-11-07 14:57:01.760014,0,2025-11-07 14:57:05.801797692
2025-11-07 14:57:01.760014,7,2025-11-07 14:57:05.809490000
2025-11-07 14:57:01.760014,-7680,2025-11-07 14:57:05.817182308
2025-11-07 14:57:01.760014,-1,2025-11-07 14:57:05.824874615
2025-11-07 14:57:01.760014,-168,2025-11-07 14:57:05.832566923
2025-11-07 14:57:01.760014,18943,2025-11-07 14:57:05.840259231
2025-11-07 14:57:01.760014,-2,2025-11-07 14:57:05.847951538
2025-11-07 14:57:01.760014,-539,2025-11-07 14:57:05.855643846
2025-11-07 14:57:01.760014,26367,2025-11-07 14:57:05.863336154
2025-11-07 14:57:01.760014,0,2025-11-07 14:57:05.871028462
2025-11-07 14:57:01.760014,1152,2025-11-07 14:57:05.878720769
2025-11-07 14:57:01.760014,-25344,2025-11-07 14:57:05.886413077
2025-11-07 14:57:01.760014,5,2025-11-07 14:57:05.894105385
2025-11-07 14:57:01.760014,826,2025-11-07 14:57:05.901797692
2025-11-07 14:57:02.299459,216,2025-11-07 14:57:05.909490000
2025-11-07 14:57:02.299459,1024,2025-11-07 14:57:05.917182308
2025-11-07 14:57:02.299459,0,2025-11-07 14:57:05.924874615
2025-11-07 14:57:02.299459,-76,2025-11-07 14:57:05.932566923
2025-11-07 14:57:02.299459,26367,2025-11-07 14:57:05.940259231
2025-11-07 14:57:02.299459,-1,2025-11-07 14:57:05.947951538
2025-11-07 14:57:02.299459,-161,2025-11-07 14:57:05.955643846
2025-11-07 14:57:02.299459,27647,2025-11-07 14:57:05.963336154
2025-11-07 14:57:02.299459,-1,2025-11-07 14:57:05.971028462
2025-11-07 14:57:02.299459,-166,2025-11-07 14:57:05.978720769
2025-11-07 14:57:02.299459,22783,2025-11-07 14:57:05.986413077
2025-11-07 14:57:02.299459,-1,2025-11-07 14:57:05.994105385
2025-11-07 14:57:02.299459,-166,2025-11-07 14:57:06.001797692
2025-11-07 14:57:02.299459,22015,2025-11-07 14:57:06.009490000
2025-11-07 14:57:02.299459,-1,2025-11-07 14:57:06.017182308
2025-11-07 14:57:02.299459,-175,2025-11-07 14:57:06.024874615
2025-11-07 14:57:02.299459,20991,2025-11-07 14:57:06.032566923
2025-11-07 14:57:02.299459,-1,2025-11-07 14:57:06.040259231
2025-11-07 14:57:02.299459,-175,2025-11-07 14:57:06.047951538
2025-11-07 14:57:02.299459,22015,2025-11-07 14:57:06.055643846
2025-11-07 14:57:02.299459,-1,2025-11-07 14:57:06.063336154
2025-11-07 14:57:02.299459,-173,2025-11-07 14:57:06.071028462
2025-11-07 14:57:02.299459,19711,2025-11-07 14:57:06.078720769
2025-11-07 14:57:02.299459,-1,2025-11-07 14:57:06.086413077
2025-11-07 14:57:02.299459,-182,2025-11-07 14:57:06.094105385
2025-11-07 14:57:02.299459,20223,2025-11-07 14:57:06.101797692
2025-11-07 14:57:02.299459,-1,2025-11-07 14:57:06.109490000
2025-11-07 14:57:02.299459,-163,2025-11-07 14:57:06.117182308
2025-11-07 14:57:02.299459,29951,2025-11-07 14:57:06.124874615
2025-11-07 14:57:02.299459,-1,2025-11-07 14:57:06.132566923
2025-11-07 14:57:02.299459,-114,2025-11-07 14:57:06.140259231
2025-11-07 14:57:02.299459,-20993,2025-11-07 14:57:06.147951538
2025-11-07 14:57:02.299459,-1,2025-11-07 14:57:06.155643846
2025-11-07 14:57:02.299459,-54,2025-11-07 14:57:06.163336154
2025-11-07 14:57:02.299459,-6913,2025-11-07 14:57:06.171028462
2025-11-07 14:57:02.299459,-1,2025-11-07 14:57:06.178720769
2025-11-07 14:57:02.299459,-2,2025-11-07 14:57:06.186413077
2025-11-07 14:57:02.299459,4351,2025-11-07 14:57:06.194105385
2025-11-07 14:57:02.299459,0,2025-11-07 14:57:06.201797692
2025-11-07 14:57:02.299459,19,2025-11-07 14:57:06.209490000
2025-11-07 14:57:02.299459,3584,2025-11-07 14:57:06.217182308
2025-11-07 14:57:02.299459,0,2025-11-07 14:57:06.224874615
2025-11-07 14:57:02.299459,11,2025-11-07 14:57:06.232566923
2025-11-07 14:57:02.299459,2816,2025-11-07 14:57:06.240259231
2025-11-07 14:57:02.299459,0,2025-11-07 14:57:06.247951538
2025-11-07 14:57:02.299459,11,2025-11-07 14:57:06.255643846
2025-11-07 14:57:02.299459,1792,2025-11-07 14:57:06.263336154
2025-11-07 14:57:02.299459,0,2025-11-07 14:57:06.271028462
2025-11-07 14:57:02.299459,7,2025-11-07 14:57:06.278720769
2025-11-07 14:57:02.299459,2304,2025-11-07 14:57:06.286413077
2025-11-07 14:57:02.299459,0,2025-11-07 14:57:06.294105385
2025-11-07 14:57:02.299459,4,2025-11-07 14:57:06.301797692
2025-11-07 14:57:02.299459,512,2025-11-07 14:57:06.309490000
2025-11-07 14:57:02.299459,0,2025-11-07 14:57:06.317182308
2025-11-07 14:57:02.299459,2,2025-11-07 14:57:06.324874615
2025-11-07 14:57:02.299459,512,2025-11-07 14:57:06.332566923
2025-11-07 14:57:02.299459,0,2025-11-07 14:57:06.340259231
2025-11-07 14:57:02.299459,-4,2025-11-07 14:57:06.347951538
2025-11-07 14:57:02.299459,-2049,2025-11-07 14:57:06.355643846
2025-11-07 14:57:02.299459,-1,2025-11-07 14:57:06.363336154
2025-11-07 14:57:02.299459,-14,2025-11-07 14:57:06.371028462
2025-11-07 14:57:02.299459,-2561,2025-11-07 14:57:06.378720769
2025-11-07 14:57:02.299459,-1,2025-11-07 14:57:06.386413077
2025-11-07 14:57:02.299459,-7,2025-11-07 14:57:06.394105385
2025-11-07 14:57:02.299459,-2049,2025-11-07 14:57:06.401797692
2025-11-07 14:57:02.299459,-1,2025-11-07 14:57:06.409490000
2025-11-07 14:57:02.299459,-7,2025-11-07 14:57:06.417182308
2025-11-07 14:57:02.299459,-769,2025-11-07 14:57:06.424874615
2025-11-07 14:57:02.299459,-1,2025-11-07 14:57:06.432566923
2025-11-07 14:57:02.299459,-4,2025-11-07 14:57:06.440259231
2025-11-07 14:57:02.299459,-257,2025-11-07 14:57:06.447951538
2025-11-07 14:57:02.299459,-1,2025-11-07 14:57:06.455643846
2025-11-07 14:57:02.299459,7,2025-11-07 14:57:06.463336154
2025-11-07 14:57:02.299459,3584,2025-11-07 14:57:06.471028462
2025-11-07 14:57:02.299459,0,2025-11-07 14:57:06.478720769
2025-11-07 14:57:02.299459,11,2025-11-07 14:57:06.486413077
2025-11-07 14:57:02.299459,1792,2025-11-07 14:57:06.494105385
2025-11-07 14:57:02.299459,0,2025-11-07 14:57:06.501797692
2025-11-07 14:57:02.299459,14,2025-11-07 14:57:06.509490000
2025-11-07 14:57:02.299459,4864,2025-11-07 14:57:06.517182308
2025-11-07 14:57:02.299459,0,2025-11-07 14:57:06.524874615
2025-11-07 14:57:02.299459,14,2025-11-07 14:57:06.532566923
2025-11-07 14:57:02.299459,2816,2025-11-07 14:57:06.540259230
2025-11-07 14:57:02.299459,0,2025-11-07 14:57:06.547951538
2025-11-07 14:57:02.299459,14,2025-11-07 14:57:06.555643846
2025-11-07 14:57:02.299459,3584,2025-11-07 14:57:06.563336154
2025-11-07 14:57:02.299459,0,2025-11-07 14:57:06.571028462
2025-11-07 14:57:02.299459,11,2025-11-07 14:57:06.578720769
2025-11-07 14:57:02.299459,2304,2025-11-07 14:57:06.586413077
2025-11-07 14:57:02.299459,0,2025-11-07 14:57:06.594105385
2025-11-07 14:57:02.299459,11,2025-11-07 14:57:06.601797692
2025-11-07 14:57:02.299459,1792,2025-11-07 14:57:06.609490000
2025-11-07 14:57:02.299459,0,2025-11-07 14:57:06.617182308
2025-11-07 14:57:02.299459,2,2025-11-07 14:57:06.624874615
2025-11-07 14:57:02.299459,512,2025-11-07 14:57:06.632566923
2025-11-07 14:57:02.299459,0,2025-11-07 14:57:06.640259231
2025-11-07 14:57:02.299459,4,2025-11-07 14:57:06.647951538
2025-11-07 14:57:02.299459,1024,2025-11-07 14:57:06.655643846
2025-11-07 14:57:02.299459,0,2025-11-07 14:57:06.663336154
2025-11-07 14:57:02.299459,2,2025-11-07 14:57:06.671028462
2025-11-07 14:57:02.299459,512,2025-11-07 14:57:06.678720769
2025-11-07 14:57:02.299459,0,2025-11-07 14:57:06.686413077
2025-11-07 14:57:02.299459,4,2025-11-07 14:57:06.694105385
2025-11-07 14:57:02.299459,1792,2025-11-07 14:57:06.701797692
2025-11-07 14:57:02.299459,0,2025-11-07 14:57:06.709490000
2025-11-07 14:57:02.299459,7,2025-11-07 14:57:06.717182308
2025-11-07 14:57:02.299459,1792,2025-11-07 14:57:06.724874615
2025-11-07 14:57:02.299459,0,2025-11-07 14:57:06.732566923
2025-11-07 14:57:02.299459,4,2025-11-07 14:57:06.740259231
2025-11-07 14:57:02.839436,4,2025-11-07 14:57:06.747951538
2025-11-07 14:57:02.839436,512,2025-11-07 14:57:06.755643846
2025-11-07 14:57:02.839436,0,2025-11-07 14:57:06.763336154
2025-11-07 14:57:02.839436,-7,2025-11-07 14:57:06.771028462
2025-11-07 14:57:02.839436,-2561,2025-11-07 14:57:06.778720769
2025-11-07 14:57:02.839436,-1,2025-11-07 14:57:06.786413077
2025-11-07 14:57:02.839436,-9,2025-11-07 14:57:06.794105385
2025-11-07 14:57:02.839436,-769,2025-11-07 14:57:06.801797692
2025-11-07 14:57:02.839436,-1,2025-11-07 14:57:06.809490000
2025-11-07 14:57:02.839436,4,2025-11-07 14:57:06.817182308
2025-11-07 14:57:02.839436,2816,2025-11-07 14:57:06.824874615
2025-11-07 14:57:02.839436,0,2025-11-07 14:57:06.832566923
2025-11-07 14:57:02.839436,19,2025-11-07 14:57:06.840259231
2025-11-07 14:57:02.839436,7680,2025-11-07 14:57:06.847951538
2025-11-07 14:57:02.839436,0,2025-11-07 14:57:06.855643846
2025-11-07 14:57:02.839436,38,2025-11-07 14:57:06.863336154
2025-11-07 14:57:02.839436,5888,2025-11-07 14:57:06.871028462
2025-11-07 14:57:02.839436,0,2025-11-07 14:57:06.878720769
2025-11-07 14:57:02.839436,14,2025-11-07 14:57:06.886413077
2025-11-07 14:57:02.839436,5376,2025-11-07 14:57:06.894105385
2025-11-07 14:57:02.839436,0,2025-11-07 14:57:06.901797692
2025-11-07 14:57:02.839436,21,2025-11-07 14:57:06.909490000
2025-11-07 14:57:02.839436,3584,2025-11-07 14:57:06.917182308
2025-11-07 14:57:02.839436,0,2025-11-07 14:57:06.924874615
2025-11-07 14:57:02.839436,11,2025-11-07 14:57:06.932566923
2025-11-07 14:57:02.839436,-2816,2025-11-07 14:57:06.940259231
2025-11-07 14:57:02.839436,-1,2025-11-07 14:57:06.947951538
2025-11-07 14:57:02.839436,-125,2025-11-07 14:57:06.955643846
2025-11-07 14:57:02.839436,-30721,2025-11-07 14:57:06.963336154
2025-11-07 14:57:02.839436,-2,2025-11-07 14:57:06.971028462
2025-11-07 14:57:02.839436,-539,2025-11-07 14:57:06.978720769
2025-11-07 14:57:02.839436,-12289,2025-11-07 14:57:06.986413077
2025-11-07 14:57:02.839436,-1,2025-11-07 14:57:06.994105385
2025-11-07 14:57:02.839436,957,2025-11-07 14:57:07.001797692
2025-11-07 14:57:02.839436,28672,2025-11-07 14:57:07.009490000
2025-11-07 14:57:02.839436,5,2025-11-07 14:57:07.017182308
2025-11-07 14:57:02.839436,900,2025-11-07 14:57:07.024874615
2025-11-07 14:57:02.839436,3584,2025-11-07 14:57:07.032566923
2025-11-07 14:57:02.839436,1,2025-11-07 14:57:07.040259231
2025-11-07 14:57:02.839436,14,2025-11-07 14:57:07.047951538
2025-11-07 14:57:02.839436,-15616,2025-11-07 14:57:07.055643846
2025-11-07 14:57:02.839436,-1,2025-11-07 14:57:07.063336154
2025-11-07 14:57:02.839436,-142,2025-11-07 14:57:07.071028462
2025-11-07 14:57:02.839436,24063,2025-11-07 14:57:07.078720769
2025-11-07 14:57:02.839436,-1,2025-11-07 14:57:07.086413077
2025-11-07 14:57:02.839436,-154,2025-11-07 14:57:07.094105385
2025-11-07 14:57:02.839436,22783,2025-11-07 14:57:07.101797692
2025-11-07 14:57:02.839436,-1,2025-11-07 14:57:07.109490000
2025-11-07 14:57:02.839436,-175,2025-11-07 14:57:07.117182308
2025-11-07 14:57:02.839436,22015,2025-11-07 14:57:07.124874615
2025-11-07 14:57:02.839436,-1,2025-11-07 14:57:07.132566923
2025-11-07 14:57:02.839436,-175,2025-11-07 14:57:07.140259231
2025-11-07 14:57:02.839436,18431,2025-11-07 14:57:07.147951538
2025-11-07 14:57:02.839436,-1,2025-11-07 14:57:07.155643846
2025-11-07 14:57:02.839436,-187,2025-11-07 14:57:07.163336154
2025-11-07 14:57:02.839436,17151,2025-11-07 14:57:07.171028462
2025-11-07 14:57:02.839436,-1,2025-11-07 14:57:07.178720769
2025-11-07 14:57:02.839436,-197,2025-11-07 14:57:07.186413077
2025-11-07 14:57:02.839436,14847,2025-11-07 14:57:07.194105385
2025-11-07 14:57:02.839436,-1,2025-11-07 14:57:07.201797692
2025-11-07 14:57:02.839436,-199,2025-11-07 14:57:07.209490000
2025-11-07 14:57:02.839436,15359,2025-11-07 14:57:07.217182308
2025-11-07 14:57:02.839436,-1,2025-11-07 14:57:07.224874615
2025-11-07 14:57:02.839436,-192,2025-11-07 14:57:07.232566923
2025-11-07 14:57:02.839436,19711,2025-11-07 14:57:07.240259231
2025-11-07 14:57:02.839436,-1,2025-11-07 14:57:07.247951538
2025-11-07 14:57:02.839436,-163,2025-11-07 14:57:07.255643846
2025-11-07 14:57:02.839436,31231,2025-11-07 14:57:07.263336154
2025-11-07 14:57:02.839436,-1,2025-11-07 14:57:07.271028462
2025-11-07 14:57:02.839436,-104,2025-11-07 14:57:07.278720769
2025-11-07 14:57:02.839436,-19713,2025-11-07 14:57:07.286413077
2025-11-07 14:57:02.839436,-1,2025-11-07 14:57:07.294105385
2025-11-07 14:57:02.839436,-54,2025-11-07 14:57:07.301797692
2025-11-07 14:57:02.839436,-6913,2025-11-07 14:57:07.309490000
2025-11-07 14:57:02.839436,-1,2025-11-07 14:57:07.317182308
2025-11-07 14:57:02.839436,-4,2025-11-07 14:57:07.324874615
2025-11-07 14:57:02.839436,1279,2025-11-07 14:57:07.332566923
2025-11-07 14:57:02.839436,0,2025-11-07 14:57:07.340259231
2025-11-07 14:57:02.839436,0,2025-11-07 14:57:07.347951538
2025-11-07 14:57:02.839436,-2304,2025-11-07 14:57:07.355643846
2025-11-07 14:57:02.839436,-1,2025-11-07 14:57:07.363336154
2025-11-07 14:57:02.839436,-14,2025-11-07 14:57:07.371028462
2025-11-07 14:57:02.839436,-2561,2025-11-07 14:57:07.378720769
2025-11-07 14:57:02.839436,-1,2025-11-07 14:57:07.386413077
2025-11-07 14:57:02.839436,0,2025-11-07 14:57:07.394105385
2025-11-07 14:57:02.839436,2304,2025-11-07 14:57:07.401797692
2025-11-07 14:57:02.839436,0,2025-11-07 14:57:07.409490000
2025-11-07 14:57:02.839436,-2,2025-11-07 14:57:07.417182308
2025-11-07 14:57:02.839436,-2561,2025-11-07 14:57:07.424874615
2025-11-07 14:57:02.839436,-1,2025-11-07 14:57:07.432566923
2025-11-07 14:57:02.839436,-14,2025-11-07 14:57:07.440259231
2025-11-07 14:57:02.839436,-8193,2025-11-07 14:57:07.447951538
2025-11-07 14:57:02.839436,-1,2025-11-07 14:57:07.455643846
2025-11-07 14:57:02.839436,-47,2025-11-07 14:57:07.463336154
2025-11-07 14:57:02.839436,-6913,2025-11-07 14:57:07.471028462
2025-11-07 14:57:02.839436,-1,2025-11-07 14:57:07.478720769
2025-11-07 14:57:02.839436,-16,2025-11-07 14:57:07.486413077
2025-11-07 14:57:02.839436,-9473,2025-11-07 14:57:07.494105385
2025-11-07 14:57:02.839436,-1,2025-11-07 14:57:07.501797692
2025-11-07 14:57:02.839436,-23,2025-11-07 14:57:07.509490000
2025-11-07 14:57:02.839436,2559,2025-11-07 14:57:07.517182308
2025-11-07 14:57:02.839436,0,2025-11-07 14:57:07.524874615
2025-11-07 14:57:02.839436,-4,2025-11-07 14:57:07.532566923
2025-11-07 14:57:02.839436,-5633,2025-11-07 14:57:07.540259230
2025-11-07 14:57:02.839436,-1,2025-11-07 14:57:07.547951538
2025-11-07 14:57:02.839436,-14,2025-11-07 14:57:07.555643846
2025-11-07 14:57:02.839436,-2561,2025-11-07 14:57:07.563336154
2025-11-07 14:57:02.839436,-1,2025-11-07 14:57:07.571028462
2025-11-07 14:57:02.839436,-26,2025-11-07 14:57:07.578720769
2025-11-07 14:57:03.424462,-30,2025-11-07 14:57:07.586413077
2025-11-07 14:57:03.424462,-4609,2025-11-07 14:57:07.594105385
2025-11-07 14:57:03.424462,-1,2025-11-07 14:57:07.601797692
2025-11-07 14:57:03.424462,11,2025-11-07 14:57:07.609490000
2025-11-07 14:57:03.424462,4864,2025-11-07 14:57:07.617182308
2025-11-07 14:57:03.424462,0,2025-11-07 14:57:07.624874615
2025-11-07 14:57:03.424462,-2,2025-11-07 14:57:07.632566923
2025-11-07 14:57:03.424462,1279,2025-11-07 14:57:07.640259231
2025-11-07 14:57:03.424462,0,2025-11-07 14:57:07.647951538
2025-11-07 14:57:03.424462,28,2025-11-07 14:57:07.655643846
2025-11-07 14:57:03.424462,6656,2025-11-07 14:57:07.663336154
2025-11-07 14:57:03.424462,0,2025-11-07 14:57:07.671028462
2025-11-07 14:57:03.424462,16,2025-11-07 14:57:07.678720769
2025-11-07 14:57:03.424462,5376,2025-11-07 14:57:07.686413077
2025-11-07 14:57:03.424462,0,2025-11-07 14:57:07.694105385
2025-11-07 14:57:03.424462,23,2025-11-07 14:57:07.701797692
2025-11-07 14:57:03.424462,4096,2025-11-07 14:57:07.709490000
2025-11-07 14:57:03.424462,0,2025-11-07 14:57:07.717182308
2025-11-07 14:57:03.424462,11,2025-11-07 14:57:07.724874615
2025-11-07 14:57:03.424462,4096,2025-11-07 14:57:07.732566923
2025-11-07 14:57:03.424462,0,2025-11-07 14:57:07.740259231
2025-11-07 14:57:03.424462,16,2025-11-07 14:57:07.747951538
2025-11-07 14:57:03.424462,2816,2025-11-07 14:57:07.755643846
2025-11-07 14:57:03.424462,0,2025-11-07 14:57:07.763336154
2025-11-07 14:57:03.424462,9,2025-11-07 14:57:07.771028462
2025-11-07 14:57:03.424462,2304,2025-11-07 14:57:07.778720769
2025-11-07 14:57:03.424462,0,2025-11-07 14:57:07.786413077
2025-11-07 14:57:03.424462,14,2025-11-07 14:57:07.794105385
2025-11-07 14:57:03.424462,2816,2025-11-07 14:57:07.801797692
2025-11-07 14:57:03.424462,0,2025-11-07 14:57:07.809490000
2025-11-07 14:57:03.424462,0,2025-11-07 14:57:07.817182308
2025-11-07 14:57:03.424462,-2304,2025-11-07 14:57:07.824874615
2025-11-07 14:57:03.424462,-1,2025-11-07 14:57:07.832566923
2025-11-07 14:57:03.424462,-14,2025-11-07 14:57:07.840259231
2025-11-07 14:57:03.424462,-5121,2025-11-07 14:57:07.847951538
2025-11-07 14:57:03.424462,-1,2025-11-07 14:57:07.855643846
2025-11-07 14:57:03.424462,-28,2025-11-07 14:57:07.863336154
2025-11-07 14:57:03.424462,-5633,2025-11-07 14:57:07.871028462
2025-11-07 14:57:03.424462,-1,2025-11-07 14:57:07.878720769
2025-11-07 14:57:03.424462,-4,2025-11-07 14:57:07.886413077
2025-11-07 14:57:03.424462,2047,2025-11-07 14:57:07.894105385
2025-11-07 14:57:03.424462,0,2025-11-07 14:57:07.901797692
2025-11-07 14:57:03.424462,7,2025-11-07 14:57:07.909490000
2025-11-07 14:57:03.424462,1792,2025-11-07 14:57:07.917182308
2025-11-07 14:57:03.424462,0,2025-11-07 14:57:07.924874615
2025-11-07 14:57:03.424462,9,2025-11-07 14:57:07.932566923
2025-11-07 14:57:03.424462,2304,2025-11-07 14:57:07.940259231
2025-11-07 14:57:03.424462,0,2025-11-07 14:57:07.947951538
2025-11-07 14:57:03.424462,7,2025-11-07 14:57:07.955643846
2025-11-07 14:57:03.424462,2816,2025-11-07 14:57:07.963336154
2025-11-07 14:57:03.424462,0,2025-11-07 14:57:07.971028462
2025-11-07 14:57:03.424462,26,2025-11-07 14:57:07.978720769
2025-11-07 14:57:03.424462,8448,2025-11-07 14:57:07.986413077
2025-11-07 14:57:03.424462,0,2025-11-07 14:57:07.994105385
2025-11-07 14:57:03.424462,23,2025-11-07 14:57:08.001797692
2025-11-07 14:57:03.424462,-5888,2025-11-07 14:57:08.009490000
2025-11-07 14:57:03.424462,-1,2025-11-07 14:57:08.017182308
2025-11-07 14:57:03.424462,-180,2025-11-07 14:57:08.024874615
2025-11-07 14:57:03.424462,14079,2025-11-07 14:57:08.032566923
2025-11-07 14:57:03.424462,-2,2025-11-07 14:57:08.040259231
2025-11-07 14:57:03.424462,-494,2025-11-07 14:57:08.047951538
2025-11-07 14:57:03.424462,8191,2025-11-07 14:57:08.055643846
2025-11-07 14:57:03.424462,1,2025-11-07 14:57:08.063336154
2025-11-07 14:57:03.424462,1311,2025-11-07 14:57:08.071028462
2025-11-07 14:57:03.424462,20224,2025-11-07 14:57:08.078720769
2025-11-07 14:57:03.424462,5,2025-11-07 14:57:08.086413077
2025-11-07 14:57:03.424462,667,2025-11-07 14:57:08.094105385
2025-11-07 14:57:03.424462,-14080,2025-11-07 14:57:08.101797692
2025-11-07 14:57:03.424462,0,2025-11-07 14:57:08.109490000
2025-11-07 14:57:03.424462,42,2025-11-07 14:57:08.117182308
2025-11-07 14:57:03.424462,-19968,2025-11-07 14:57:08.124874615
2025-11-07 14:57:03.424462,-1,2025-11-07 14:57:08.132566923
2025-11-07 14:57:03.424462,-147,2025-11-07 14:57:08.140259231
2025-11-07 14:57:03.424462,28159,2025-11-07 14:57:08.147951538
2025-11-07 14:57:03.424462,-1,2025-11-07 14:57:08.155643846
2025-11-07 14:57:03.424462,-156,2025-11-07 14:57:08.163336154
2025-11-07 14:57:03.424462,20223,2025-11-07 14:57:08.171028462
2025-11-07 14:57:03.424462,-1,2025-11-07 14:57:08.178720769
2025-11-07 14:57:03.424462,-178,2025-11-07 14:57:08.186413077
2025-11-07 14:57:03.424462,20223,2025-11-07 14:57:08.194105385
2025-11-07 14:57:03.424462,-1,2025-11-07 14:57:08.201797692
2025-11-07 14:57:03.424462,-187,2025-11-07 14:57:08.209490000
2025-11-07 14:57:03.424462,17151,2025-11-07 14:57:08.217182308
2025-11-07 14:57:03.424462,-1,2025-11-07 14:57:08.224874615
2025-11-07 14:57:03.424462,-190,2025-11-07 14:57:08.232566923
2025-11-07 14:57:03.424462,14335,2025-11-07 14:57:08.240259231
2025-11-07 14:57:03.424462,-1,2025-11-07 14:57:08.247951538
2025-11-07 14:57:03.424462,-211,2025-11-07 14:57:08.255643846
2025-11-07 14:57:03.424462,12287,2025-11-07 14:57:08.263336154
2025-11-07 14:57:03.424462,-1,2025-11-07 14:57:08.271028462
2025-11-07 14:57:03.424462,-206,2025-11-07 14:57:08.278720769
2025-11-07 14:57:03.424462,11775,2025-11-07 14:57:08.286413077
2025-11-07 14:57:03.424462,-1,2025-11-07 14:57:08.294105385
2025-11-07 14:57:03.424462,-211,2025-11-07 14:57:08.301797692
2025-11-07 14:57:03.424462,16127,2025-11-07 14:57:08.309490000
2025-11-07 14:57:03.424462,-1,2025-11-07 14:57:08.317182308
2025-11-07 14:57:03.424462,-175,2025-11-07 14:57:08.324874615
2025-11-07 14:57:03.424462,28927,2025-11-07 14:57:08.332566923
2025-11-07 14:57:03.424462,-1,2025-11-07 14:57:08.340259231
2025-11-07 14:57:03.424462,-104,2025-11-07 14:57:08.347951538
2025-11-07 14:57:03.424462,-18433,2025-11-07 14:57:08.355643846
2025-11-07 14:57:03.424462,-1,2025-11-07 14:57:08.363336154
2025-11-07 14:57:03.424462,-47,2025-11-07 14:57:08.371028462
2025-11-07 14:57:03.424462,-5121,2025-11-07 14:57:08.378720769
2025-11-07 14:57:03.424462,-1,2025-11-07 14:57:08.386413077
2025-11-07 14:57:03.424462,0,2025-11-07 14:57:08.394105385
2025-11-07 14:57:03.424462,1024,2025-11-07 14:57:08.401797692
2025-11-07 14:57:03.424462,0,2025-11-07 14:57:08.409490000
2025-11-07 14:57:03.424462,2,2025-11-07 14:57:08.417182308
2025-11-07 14:57:03.964550,0,2025-11-07 14:57:08.424874615
2025-11-07 14:57:03.964550,512,2025-11-07 14:57:08.432566923
2025-11-07 14:57:03.964550,0,2025-11-07 14:57:08.440259231
2025-11-07 14:57:03.964550,9,2025-11-07 14:57:08.447951538
2025-11-07 14:57:03.964550,1792,2025-11-07 14:57:08.455643846
2025-11-07 14:57:03.964550,0,2025-11-07 14:57:08.463336154
2025-11-07 14:57:03.964550,0,2025-11-07 14:57:08.471028462
2025-11-07 14:57:03.964550,512,2025-11-07 14:57:08.478720769
2025-11-07 14:57:03.964550,0,2025-11-07 14:57:08.486413077
2025-11-07 14:57:03.964550,7,2025-11-07 14:57:08.494105385
2025-11-07 14:57:03.964550,1024,2025-11-07 14:57:08.501797692
2025-11-07 14:57:03.964550,0,2025-11-07 14:57:08.509490000
2025-11-07 14:57:03.964550,-2,2025-11-07 14:57:08.517182308
2025-11-07 14:57:03.964550,-3329,2025-11-07 14:57:08.524874615
2025-11-07 14:57:03.964550,-1,2025-11-07 14:57:08.532566923
2025-11-07 14:57:03.964550,-7,2025-11-07 14:57:08.540259230
2025-11-07 14:57:03.964550,5631,2025-11-07 14:57:08.547951538
2025-11-07 14:57:03.964550,0,2025-11-07 14:57:08.555643846
2025-11-07 14:57:03.964550,23,2025-11-07 14:57:08.563336154
2025-11-07 14:57:03.964550,1024,2025-11-07 14:57:08.571028462
2025-11-07 14:57:03.964550,0,2025-11-07 14:57:08.578720769
2025-11-07 14:57:03.964550,2,2025-11-07 14:57:08.586413077
2025-11-07 14:57:03.964550,1792,2025-11-07 14:57:08.594105385
2025-11-07 14:57:03.964550,0,2025-11-07 14:57:08.601797692
2025-11-07 14:57:03.964550,2,2025-11-07 14:57:08.609490000
2025-11-07 14:57:03.964550,0,2025-11-07 14:57:08.617182308
2025-11-07 14:57:03.964550,0,2025-11-07 14:57:08.624874615
2025-11-07 14:57:03.964550,9,2025-11-07 14:57:08.632566923
2025-11-07 14:57:03.964550,4096,2025-11-07 14:57:08.640259231
2025-11-07 14:57:03.964550,0,2025-11-07 14:57:08.647951538
2025-11-07 14:57:03.964550,16,2025-11-07 14:57:08.655643846
2025-11-07 14:57:03.964550,5376,2025-11-07 14:57:08.663336154
2025-11-07 14:57:03.964550,0,2025-11-07 14:57:08.671028462
2025-11-07 14:57:03.964550,21,2025-11-07 14:57:08.678720769
2025-11-07 14:57:03.964550,3584,2025-11-07 14:57:08.686413077
2025-11-07 14:57:03.964550,0,2025-11-07 14:57:08.694105385
2025-11-07 14:57:03.964550,11,2025-11-07 14:57:08.701797692
2025-11-07 14:57:03.964550,2816,2025-11-07 14:57:08.709490000
2025-11-07 14:57:03.964550,0,2025-11-07 14:57:08.717182308
2025-11-07 14:57:03.964550,14,2025-11-07 14:57:08.724874615
2025-11-07 14:57:03.964550,5376,2025-11-07 14:57:08.732566923
2025-11-07 14:57:03.964550,0,2025-11-07 14:57:08.740259231
2025-11-07 14:57:03.964550,11,2025-11-07 14:57:08.747951538
2025-11-07 14:57:03.964550,-1024,2025-11-07 14:57:08.755643846
2025-11-07 14:57:03.964550,-1,2025-11-07 14:57:08.763336154
2025-11-07 14:57:03.964550,0,2025-11-07 14:57:08.771028462
2025-11-07 14:57:03.964550,7168,2025-11-07 14:57:08.778720769
2025-11-07 14:57:03.964550,0,2025-11-07 14:57:08.786413077
2025-11-07 14:57:03.964550,45,2025-11-07 14:57:08.794105385
2025-11-07 14:57:03.964550,10752,2025-11-07 14:57:08.801797692
2025-11-07 14:57:03.964550,0,2025-11-07 14:57:08.809490000
2025-11-07 14:57:03.964550,42,2025-11-07 14:57:08.817182308
2025-11-07 14:57:03.964550,10752,2025-11-07 14:57:08.824874615
2025-11-07 14:57:03.964550,0,2025-11-07 14:57:08.832566923
2025-11-07 14:57:03.964550,21,2025-11-07 14:57:08.840259231
2025-11-07 14:57:03.964550,1024,2025-11-07 14:57:08.847951538
2025-11-07 14:57:03.964550,0,2025-11-07 14:57:08.855643846
2025-11-07 14:57:03.964550,9,2025-11-07 14:57:08.863336154
2025-11-07 14:57:03.964550,4096,2025-11-07 14:57:08.871028462
2025-11-07 14:57:03.964550,0,2025-11-07 14:57:08.878720769
2025-11-07 14:57:03.964550,16,2025-11-07 14:57:08.886413077
2025-11-07 14:57:03.964550,7168,2025-11-07 14:57:08.894105385
2025-11-07 14:57:03.964550,0,2025-11-07 14:57:08.901797692
2025-11-07 14:57:03.964550,28,2025-11-07 14:57:08.909490000
2025-11-07 14:57:03.964550,-7680,2025-11-07 14:57:08.917182308
2025-11-07 14:57:03.964550,-1,2025-11-07 14:57:08.924874615
2025-11-07 14:57:03.964550,-182,2025-11-07 14:57:08.932566923
2025-11-07 14:57:03.964550,14591,2025-11-07 14:57:08.940259231
2025-11-07 14:57:03.964550,-2,2025-11-07 14:57:08.947951538
2025-11-07 14:57:03.964550,-556,2025-11-07 14:57:08.955643846
2025-11-07 14:57:03.964550,18431,2025-11-07 14:57:08.963336154
2025-11-07 14:57:03.964550,0,2025-11-07 14:57:08.971028462
2025-11-07 14:57:03.964550,1081,2025-11-07 14:57:08.978720769
2025-11-07 14:57:03.964550,19456,2025-11-07 14:57:08.986413077
2025-11-07 14:57:03.964550,5,2025-11-07 14:57:08.994105385
2025-11-07 14:57:03.964550,767,2025-11-07 14:57:09.001797692
2025-11-07 14:57:03.964550,-18176,2025-11-07 14:57:09.009490000
2025-11-07 14:57:03.964550,0,2025-11-07 14:57:09.017182308
2025-11-07 14:57:03.964550,0,2025-11-07 14:57:09.024874615
2025-11-07 14:57:03.964550,-16896,2025-11-07 14:57:09.032566923
2025-11-07 14:57:03.964550,-1,2025-11-07 14:57:09.040259231
2025-11-07 14:57:03.964550,-152,2025-11-07 14:57:09.047951538
2025-11-07 14:57:03.964550,23295,2025-11-07 14:57:09.055643846
2025-11-07 14:57:03.964550,-1,2025-11-07 14:57:09.063336154
2025-11-07 14:57:03.964550,-154,2025-11-07 14:57:09.071028462
2025-11-07 14:57:03.964550,20991,2025-11-07 14:57:09.078720769
2025-11-07 14:57:03.964550,-1,2025-11-07 14:57:09.086413077
2025-11-07 14:57:03.964550,-190,2025-11-07 14:57:09.094105385
2025-11-07 14:57:03.964550,19199,2025-11-07 14:57:09.101797692
2025-11-07 14:57:03.964550,-1,2025-11-07 14:57:09.109490000
2025-11-07 14:57:03.964550,-180,2025-11-07 14:57:09.117182308
2025-11-07 14:57:03.964550,16639,2025-11-07 14:57:09.124874615
2025-11-07 14:57:03.964550,-1,2025-11-07 14:57:09.132566923
2025-11-07 14:57:03.964550,-192,2025-11-07 14:57:09.140259231
2025-11-07 14:57:03.964550,17151,2025-11-07 14:57:09.147951538
2025-11-07 14:57:03.964550,-1,2025-11-07 14:57:09.155643846
2025-11-07 14:57:03.964550,-206,2025-11-07 14:57:09.163336154
2025-11-07 14:57:03.964550,9983,2025-11-07 14:57:09.171028462
2025-11-07 14:57:03.964550,-1,2025-11-07 14:57:09.178720769
2025-11-07 14:57:03.964550,-218,2025-11-07 14:57:09.186413077
2025-11-07 14:57:03.964550,9983,2025-11-07 14:57:09.194105385
2025-11-07 14:57:03.964550,-1,2025-11-07 14:57:09.201797692
2025-11-07 14:57:03.964550,-216,2025-11-07 14:57:09.209490000
2025-11-07 14:57:03.964550,13567,2025-11-07 14:57:09.217182308
2025-11-07 14:57:03.964550,-1,2025-11-07 14:57:09.224874615
2025-11-07 14:57:03.964550,-182,2025-11-07 14:57:09.232566923
2025-11-07 14:57:03.964550,27647,2025-11-07 14:57:09.240259231
2025-11-07 14:57:03.964550,-1,2025-11-07 14:57:09.247951538
2025-11-07 14:57:03.964550,-114,2025-11-07 14:57:09.255643846
2025-11-07 14:57:04.504506,-78,2025-11-07 14:57:09.263336154
2025-11-07 14:57:04.504506,-10497,2025-11-07 14:57:09.271028462
2025-11-07 14:57:04.504506,-1,2025-11-07 14:57:09.278720769
2025-11-07 14:57:04.504506,-14,2025-11-07 14:57:09.286413077
2025-11-07 14:57:04.504506,-3329,2025-11-07 14:57:09.294105385
2025-11-07 14:57:04.504506,-1,2025-11-07 14:57:09.301797692
2025-11-07 14:57:04.504506,-28,2025-11-07 14:57:09.309490000
2025-11-07 14:57:04.504506,-6401,2025-11-07 14:57:09.317182308
2025-11-07 14:57:04.504506,-1,2025-11-07 14:57:09.324874615
2025-11-07 14:57:04.504506,-21,2025-11-07 14:57:09.332566923
2025-11-07 14:57:04.504506,-5633,2025-11-07 14:57:09.340259231
2025-11-07 14:57:04.504506,-1,2025-11-07 14:57:09.347951538
2025-11-07 14:57:04.504506,4,2025-11-07 14:57:09.355643846
2025-11-07 14:57:04.504506,5888,2025-11-07 14:57:09.363336154
2025-11-07 14:57:04.504506,0,2025-11-07 14:57:09.371028462
2025-11-07 14:57:04.504506,-4,2025-11-07 14:57:09.378720769
2025-11-07 14:57:04.504506,-769,2025-11-07 14:57:09.386413077
2025-11-07 14:57:04.504506,-1,2025-11-07 14:57:09.394105385
2025-11-07 14:57:04.504506,33,2025-11-07 14:57:09.401797692
2025-11-07 14:57:04.504506,5888,2025-11-07 14:57:09.409490000
2025-11-07 14:57:04.504506,0,2025-11-07 14:57:09.417182308
2025-11-07 14:57:04.504506,-26,2025-11-07 14:57:09.424874615
2025-11-07 14:57:04.504506,-6401,2025-11-07 14:57:09.432566923
2025-11-07 14:57:04.504506,-1,2025-11-07 14:57:09.440259231
2025-11-07 14:57:04.504506,35,2025-11-07 14:57:09.447951538
2025-11-07 14:57:04.504506,13824,2025-11-07 14:57:09.455643846
2025-11-07 14:57:04.504506,0,2025-11-07 14:57:09.463336154
2025-11-07 14:57:04.504506,9,2025-11-07 14:57:09.471028462
2025-11-07 14:57:04.504506,-2816,2025-11-07 14:57:09.478720769
2025-11-07 14:57:04.504506,-1,2025-11-07 14:57:09.486413077
2025-11-07 14:57:04.504506,26,2025-11-07 14:57:09.494105385
2025-11-07 14:57:04.504506,12032,2025-11-07 14:57:09.501797692
2025-11-07 14:57:04.504506,0,2025-11-07 14:57:09.509490000
2025-11-07 14:57:04.504506,16,2025-11-07 14:57:09.517182308
2025-11-07 14:57:04.504506,1792,2025-11-07 14:57:09.524874615
2025-11-07 14:57:04.504506,0,2025-11-07 14:57:09.532566923
2025-11-07 14:57:04.504506,28,2025-11-07 14:57:09.540259230
2025-11-07 14:57:04.504506,8448,2025-11-07 14:57:09.547951538
2025-11-07 14:57:04.504506,0,2025-11-07 14:57:09.555643846
2025-11-07 14:57:04.504506,19,2025-11-07 14:57:09.563336154
2025-11-07 14:57:04.504506,3584,2025-11-07 14:57:09.571028462
2025-11-07 14:57:04.504506,0,2025-11-07 14:57:09.578720769
2025-11-07 14:57:04.504506,14,2025-11-07 14:57:09.586413077
2025-11-07 14:57:04.504506,2304,2025-11-07 14:57:09.594105385
2025-11-07 14:57:04.504506,0,2025-11-07 14:57:09.601797692
2025-11-07 14:57:04.504506,4,2025-11-07 14:57:09.609490000
2025-11-07 14:57:04.504506,-512,2025-11-07 14:57:09.617182308
2025-11-07 14:57:04.504506,-1,2025-11-07 14:57:09.624874615
2025-11-07 14:57:04.504506,-9,2025-11-07 14:57:09.632566923
2025-11-07 14:57:04.504506,-257,2025-11-07 14:57:09.640259231
2025-11-07 14:57:04.504506,-1,2025-11-07 14:57:09.647951538
2025-11-07 14:57:04.504506,7,2025-11-07 14:57:09.655643846
2025-11-07 14:57:04.504506,1024,2025-11-07 14:57:09.663336154
2025-11-07 14:57:04.504506,0,2025-11-07 14:57:09.671028462
2025-11-07 14:57:04.504506,14,2025-11-07 14:57:09.678720769
2025-11-07 14:57:04.504506,7680,2025-11-07 14:57:09.686413077
2025-11-07 14:57:04.504506,0,2025-11-07 14:57:09.694105385
2025-11-07 14:57:04.504506,28,2025-11-07 14:57:09.701797692
2025-11-07 14:57:04.504506,3584,2025-11-07 14:57:09.709490000
2025-11-07 14:57:04.504506,0,2025-11-07 14:57:09.717182308
2025-11-07 14:57:04.504506,11,2025-11-07 14:57:09.724874615
2025-11-07 14:57:04.504506,2816,2025-11-07 14:57:09.732566923
2025-11-07 14:57:04.504506,0,2025-11-07 14:57:09.740259231
2025-11-07 14:57:04.504506,-4,2025-11-07 14:57:09.747951538
2025-11-07 14:57:04.504506,-2049,2025-11-07 14:57:09.755643846
2025-11-07 14:57:04.504506,-1,2025-11-07 14:57:09.763336154
2025-11-07 14:57:04.504506,4,2025-11-07 14:57:09.771028462
2025-11-07 14:57:04.504506,1024,2025-11-07 14:57:09.778720769
2025-11-07 14:57:04.504506,0,2025-11-07 14:57:09.786413077
2025-11-07 14:57:04.504506,-14,2025-11-07 14:57:09.794105385
2025-11-07 14:57:04.504506,-19713,2025-11-07 14:57:09.801797692
2025-11-07 14:57:04.504506,-1,2025-11-07 14:57:09.809490000
2025-11-07 14:57:04.504506,-299,2025-11-07 14:57:09.817182308
2025-11-07 14:57:04.504506,-13313,2025-11-07 14:57:09.824874615
2025-11-07 14:57:04.504506,-3,2025-11-07 14:57:09.832566923
2025-11-07 14:57:04.504506,-301,2025-11-07 14:57:09.840259231
2025-11-07 14:57:04.504506,-19969,2025-11-07 14:57:09.847951538
2025-11-07 14:57:04.504506,2,2025-11-07 14:57:09.855643846
2025-11-07 14:57:04.504506,1394,2025-11-07 14:57:09.863336154
2025-11-07 14:57:04.504506,15616,2025-11-07 14:57:09.871028462
2025-11-07 14:57:04.504506,4,2025-11-07 14:57:09.878720769
2025-11-07 14:57:04.504506,406,2025-11-07 14:57:09.886413077
2025-11-07 14:57:04.504506,14592,2025-11-07 14:57:09.894105385
2025-11-07 14:57:04.504506,0,2025-11-07 14:57:09.901797692
2025-11-07 14:57:04.504506,-54,2025-11-07 14:57:09.909490000
2025-11-07 14:57:04.504506,28159,2025-11-07 14:57:09.917182308
2025-11-07 14:57:04.504506,-1,2025-11-07 14:57:09.924874615
2025-11-07 14:57:04.504506,-182,2025-11-07 14:57:09.932566923
2025-11-07 14:57:04.504506,20991,2025-11-07 14:57:09.940259231
2025-11-07 14:57:04.504506,-1,2025-11-07 14:57:09.947951538
2025-11-07 14:57:04.504506,-180,2025-11-07 14:57:09.955643846
2025-11-07 14:57:04.504506,22783,2025-11-07 14:57:09.963336154
2025-11-07 14:57:04.504506,-1,2025-11-07 14:57:09.971028462
2025-11-07 14:57:04.504506,-156,2025-11-07 14:57:09.978720769
2025-11-07 14:57:04.504506,20991,2025-11-07 14:57:09.986413077
2025-11-07 14:57:04.504506,-1,2025-11-07 14:57:09.994105385
2025-11-07 14:57:04.504506,-187,2025-11-07 14:57:10.001797692
2025-11-07 14:57:04.504506,20223,2025-11-07 14:57:10.009490000
2025-11-07 14:57:04.504506,-1,2025-11-07 14:57:10.017182308
2025-11-07 14:57:04.504506,-185,2025-11-07 14:57:10.024874615
2025-11-07 14:57:04.504506,13055,2025-11-07 14:57:10.032566923
2025-11-07 14:57:04.504506,-1,2025-11-07 14:57:10.040259231
2025-11-07 14:57:04.504506,-213,2025-11-07 14:57:10.047951538
2025-11-07 14:57:04.504506,13055,2025-11-07 14:57:10.055643846
2025-11-07 14:57:04.504506,-1,2025-11-07 14:57:10.063336154
2025-11-07 14:57:04.504506,-213,2025-11-07 14:57:10.071028462
2025-11-07 14:57:04.504506,7423,2025-11-07 14:57:10.078720769
2025-11-07 14:57:04.504506,-1,2025-11-07 14:57:10.086413077
2025-11-07 14:57:04.504506,-206,2025-11-07 14:57:10.094105385
2025-11-07 14:57:05.134655,-171,2025-11-07 14:57:10.101797692
2025-11-07 14:57:05.134655,27647,2025-11-07 14:57:10.109490000
2025-11-07 14:57:05.134655,-1,2025-11-07 14:57:10.117182308
2025-11-07 14:57:05.134655,-118,2025-11-07 14:57:10.124874615
2025-11-07 14:57:05.134655,-19201,2025-11-07 14:57:10.132566923
2025-11-07 14:57:05.134655,-1,2025-11-07 14:57:10.140259231
2025-11-07 14:57:05.134655,-35,2025-11-07 14:57:10.147951538
2025-11-07 14:57:05.134655,-257,2025-11-07 14:57:10.155643846
