timestamp,ecg
12:59:06.105152,-12
12:59:06.105152,-3841
12:59:06.105152,-1
12:59:06.105152,-24
12:59:06.105152,-5121
12:59:06.105152,-1
12:59:06.105152,-21
12:59:06.105152,-2817
12:59:06.105152,-1
12:59:06.105152,-7
12:59:06.105152,-769
12:59:06.105152,-1
12:59:06.105152,0
12:59:06.105152,0
12:59:06.105152,0
12:59:06.105152,12
12:59:06.105152,5376
12:59:06.105152,0
12:59:06.105152,19
12:59:06.105152,6656
12:59:06.105152,0
12:59:06.105152,31
12:59:06.105152,6656
12:59:06.105152,0
12:59:06.105152,26
12:59:06.105152,6656
12:59:06.105152,0
12:59:06.105152,26
12:59:06.105152,3072
12:59:06.105152,0
12:59:06.105152,-2
12:59:06.105152,2047
12:59:06.105152,0
12:59:06.105152,31
12:59:06.105152,14080
12:59:06.105152,0
12:59:06.105152,62
12:59:06.105152,14080
12:59:06.105152,0
12:59:06.105152,55
12:59:06.105152,12288
12:59:06.105152,0
12:59:06.105152,31
12:59:06.105152,5376
12:59:06.105152,0
12:59:06.105152,12
12:59:06.105152,3072
12:59:06.105152,0
12:59:06.105152,14
12:59:06.105152,2304
12:59:06.105152,0
12:59:06.105152,-9
12:59:06.105152,-26113
12:59:06.105152,-1
12:59:06.105152,-287
12:59:06.105152,-5633
12:59:06.105152,-2
12:59:06.105152,265
12:59:06.105152,-28160
12:59:06.105152,4
12:59:06.105152,1549
12:59:06.105152,20736
12:59:06.105152,3
12:59:06.105152,-74
12:59:06.105152,9727
12:59:06.105152,-1
12:59:06.105152,-9
12:59:06.105152,-15617
12:59:06.105152,-1
12:59:06.105152,-152
12:59:06.105152,-29185
12:59:06.105152,-1
12:59:06.105152,-101
12:59:06.105152,-28673
12:59:06.105152,-1
12:59:06.105152,-96
12:59:06.105152,-20737
12:59:06.105152,-1
12:59:06.105152,-69
12:59:06.105152,-16385
12:59:06.105152,-1
12:59:06.105152,-60
12:59:06.105152,-11265
12:59:06.105152,-1
12:59:06.105152,-28
12:59:06.105152,-3841
12:59:06.105152,-1
12:59:06.105152,-2
12:59:06.105152,5631
12:59:06.105152,0
12:59:06.105152,48
12:59:06.105152,19712
12:59:06.105152,0
12:59:06.105152,113
12:59:06.105152,-28672
12:59:06.105152,0
12:59:06.105152,159
12:59:06.105152,-25600
12:59:06.105152,0
12:59:06.105152,135
12:59:06.105152,30720
12:59:06.105152,0
12:59:06.105152,101
12:59:06.105152,12800
12:59:06.105152,0
12:59:06.105152,7
12:59:06.105152,-4096
12:59:06.105152,-1
12:59:06.105152,-28
12:59:06.674962,-41
12:59:06.674962,-13825
12:59:06.674962,-1
12:59:06.674962,-57
12:59:06.674962,-13825
12:59:06.674962,-1
12:59:06.674962,-43
12:59:06.674962,-6401
12:59:06.674962,-1
12:59:06.674962,-28
12:59:06.674962,-6401
12:59:06.674962,-1
12:59:06.674962,-9
12:59:06.674962,-1537
12:59:06.674962,-1
12:59:06.674962,-14
12:59:06.674962,-4609
12:59:06.674962,-1
12:59:06.674962,-16
12:59:06.674962,-769
12:59:06.674962,-1
12:59:06.674962,0
12:59:06.674962,512
12:59:06.674962,0
12:59:06.674962,9
12:59:06.674962,2304
12:59:06.674962,0
12:59:06.674962,9
12:59:06.674962,3584
12:59:06.674962,0
12:59:06.674962,21
12:59:06.674962,6144
12:59:06.674962,0
12:59:06.674962,12
12:59:06.674962,0
12:59:06.674962,0
12:59:06.674962,0
12:59:06.674962,512
12:59:06.674962,0
12:59:06.674962,4
12:59:06.674962,2304
12:59:06.674962,0
12:59:06.674962,14
12:59:06.674962,2304
12:59:06.674962,0
12:59:06.674962,4
12:59:06.674962,2304
12:59:06.674962,0
12:59:06.674962,7
12:59:06.674962,0
12:59:06.674962,0
12:59:06.674962,-2
12:59:06.674962,-1537
12:59:06.674962,-1
12:59:06.674962,-7
12:59:06.674962,-3329
12:59:06.674962,-1
12:59:06.674962,-24
12:59:06.674962,-5889
12:59:06.674962,-1
12:59:06.674962,-16
12:59:06.674962,2559
12:59:06.674962,0
12:59:06.674962,38
12:59:06.674962,11008
12:59:06.674962,0
12:59:06.674962,38
12:59:06.674962,7936
12:59:06.674962,0
12:59:06.674962,21
12:59:06.674962,3072
12:59:06.674962,0
12:59:06.674962,-7
12:59:06.674962,-2049
12:59:06.674962,-1
12:59:06.674962,2
12:59:06.674962,512
12:59:06.674962,0
12:59:06.674962,-2
12:59:06.674962,-11265
12:59:06.674962,-1
12:59:06.674962,-202
12:59:06.674962,-23553
12:59:06.674962,-2
12:59:06.674962,-84
12:59:06.674962,-9217
12:59:06.674962,2
12:59:06.674962,1512
12:59:06.674962,18176
12:59:06.674962,5
12:59:06.674962,332
12:59:06.674962,-7168
12:59:06.674962,-2
12:59:06.674962,-130
12:59:06.674962,-6401
12:59:06.674962,-1
12:59:06.674962,-156
12:59:06.674962,25855
12:59:06.674962,-1
12:59:06.674962,-98
12:59:06.674962,-30465
12:59:06.674962,-1
12:59:06.674962,-135
12:59:06.674962,-27905
12:59:06.674962,-1
12:59:06.674962,-94
12:59:06.674962,-24321
12:59:06.674962,-1
12:59:06.674962,-89
12:59:07.215678,-60
12:59:07.215678,-11265
12:59:07.215678,-1
12:59:07.215678,-36
12:59:07.215678,-6401
12:59:07.215678,-1
12:59:07.215678,-16
12:59:07.215678,3839
12:59:07.215678,0
12:59:07.215678,36
12:59:07.215678,14592
12:59:07.215678,0
12:59:07.215678,98
12:59:07.215678,-29952
12:59:07.215678,0
12:59:07.215678,154
12:59:07.215678,-29184
12:59:07.215678,0
12:59:07.215678,135
12:59:07.215678,30208
12:59:07.215678,0
12:59:07.215678,82
12:59:07.215678,11520
12:59:07.215678,0
12:59:07.215678,12
12:59:07.215678,-5376
12:59:07.215678,-1
12:59:07.215678,-31
12:59:07.215678,-10241
12:59:07.215678,-1
12:59:07.215678,-57
12:59:07.215678,-16385
12:59:07.215678,-1
12:59:07.215678,-62
12:59:07.215678,-13313
12:59:07.215678,-1
12:59:07.215678,-50
12:59:07.215678,-13313
12:59:07.215678,-1
12:59:07.215678,-55
12:59:07.215678,-15105
12:59:07.215678,-1
12:59:07.215678,-60
12:59:07.215678,-14337
12:59:07.215678,-1
12:59:07.215678,-55
12:59:07.215678,-10753
12:59:07.215678,-1
12:59:07.215678,-45
12:59:07.215678,-13825
12:59:07.215678,-1
12:59:07.215678,-50
12:59:07.215678,-11265
12:59:07.215678,-1
12:59:07.215678,-38
12:59:07.215678,-9473
12:59:07.215678,-1
12:59:07.215678,-33
12:59:07.215678,-4609
12:59:07.215678,-1
12:59:07.215678,-19
12:59:07.215678,-5121
12:59:07.215678,-1
12:59:07.215678,-9
12:59:07.215678,-1537
12:59:07.215678,-1
12:59:07.215678,-7
12:59:07.215678,-3329
12:59:07.215678,-1
12:59:07.215678,-16
12:59:07.215678,-2049
12:59:07.215678,-1
12:59:07.215678,-9
12:59:07.215678,-2817
12:59:07.215678,-1
12:59:07.215678,-9
12:59:07.215678,-2049
12:59:07.215678,-1
12:59:07.215678,-7
12:59:07.215678,-2817
12:59:07.215678,-1
12:59:07.215678,-16
12:59:07.215678,-5889
12:59:07.215678,-1
12:59:07.215678,-26
12:59:07.215678,-257
12:59:07.215678,-1
12:59:07.215678,26
12:59:07.215678,11520
12:59:07.215678,0
12:59:07.215678,45
12:59:07.215678,7936
12:59:07.215678,0
12:59:07.215678,24
12:59:07.215678,6144
12:59:07.215678,0
12:59:07.215678,14
12:59:07.215678,512
12:59:07.215678,0
12:59:07.215678,-7
12:59:07.215678,-769
12:59:07.215678,-1
12:59:07.215678,0
12:59:07.215678,-1024
12:59:07.215678,-1
12:59:07.215678,-69
12:59:07.215678,511
12:59:07.215678,-1
12:59:07.215678,-340
12:59:07.785228,77
12:59:07.785228,-15104
12:59:07.785228,3
12:59:07.785228,1587
12:59:07.785228,32256
12:59:07.785228,4
12:59:07.785228,118
12:59:07.785228,-2304
12:59:07.785228,-2
12:59:07.785228,-43
12:59:07.785228,-769
12:59:07.785228,-1
12:59:07.785228,-123
12:59:07.785228,-26113
12:59:07.785228,-1
12:59:07.785228,-62
12:59:07.785228,-21249
12:59:07.785228,-1
12:59:07.785228,-86
12:59:07.785228,-16897
12:59:07.785228,-1
12:59:07.785228,-65
12:59:07.785228,-15105
12:59:07.785228,-1
12:59:07.785228,-45
12:59:07.785228,-10241
12:59:07.785228,-1
12:59:07.785228,-33
12:59:07.785228,-4609
12:59:07.785228,-1
12:59:07.785228,-2
12:59:07.785228,5119
12:59:07.785228,0
12:59:07.785228,43
12:59:07.785228,17664
12:59:07.785228,0
12:59:07.785228,91
12:59:07.785228,29440
12:59:07.785228,0
12:59:07.785228,135
12:59:07.785228,-30464
12:59:07.785228,0
12:59:07.785228,142
12:59:07.785228,-29952
12:59:07.785228,0
12:59:07.785228,110
12:59:07.785228,17664
12:59:07.785228,0
12:59:07.785228,31
12:59:07.785228,1024
12:59:07.785228,0
12:59:07.785228,-9
12:59:07.785228,-6913
12:59:07.785228,-1
12:59:07.785228,-43
12:59:07.785228,-12033
12:59:07.785228,-1
12:59:07.785228,-50
12:59:07.785228,-12033
12:59:07.785228,-1
12:59:07.785228,-50
12:59:07.785228,-12033
12:59:07.785228,-1
12:59:07.785228,-48
12:59:07.785228,-12545
12:59:07.785228,-1
12:59:07.785228,-53
12:59:07.785228,-15105
12:59:07.785228,-1
12:59:07.785228,-55
12:59:07.785228,-12033
12:59:07.785228,-1
12:59:07.785228,-57
12:59:07.785228,-15105
12:59:07.785228,-1
12:59:07.785228,-57
12:59:07.785228,-15617
12:59:07.785228,-1
12:59:07.785228,-53
12:59:07.785228,-10241
12:59:07.785228,-1
12:59:07.785228,-38
12:59:07.785228,-9473
12:59:07.785228,-1
12:59:07.785228,-36
12:59:07.785228,-6401
12:59:07.785228,-1
12:59:07.785228,-31
12:59:07.785228,-6913
12:59:07.785228,-1
12:59:07.785228,-21
12:59:07.785228,-6913
12:59:07.785228,-1
12:59:07.785228,-31
12:59:07.785228,-6913
12:59:07.785228,-1
12:59:07.785228,-26
12:59:07.785228,-5121
12:59:07.785228,-1
12:59:07.785228,-24
12:59:07.785228,-5121
12:59:07.785228,-1
12:59:07.785228,-24
12:59:07.785228,-8193
12:59:07.785228,-1
12:59:07.785228,-26
12:59:07.785228,-6401
12:59:07.785228,-1
12:59:07.785228,-33
12:59:08.325148,-26
12:59:08.325148,-3841
12:59:08.325148,-1
12:59:08.325148,9
12:59:08.325148,8448
12:59:08.325148,0
12:59:08.325148,31
12:59:08.325148,3584
12:59:08.325148,0
12:59:08.325148,2
12:59:08.325148,4096
12:59:08.325148,0
12:59:08.325148,19
12:59:08.325148,0
12:59:08.325148,0
12:59:08.325148,2
12:59:08.325148,1024
12:59:08.325148,0
12:59:08.325148,-19
12:59:08.325148,-6913
12:59:08.325148,-1
12:59:08.325148,-96
12:59:08.325148,-5633
12:59:08.325148,-2
12:59:08.325148,-296
12:59:08.325148,-4865
12:59:08.325148,0
12:59:08.325148,1129
12:59:08.325148,3840
12:59:08.325148,6
12:59:08.325148,928
12:59:08.325148,-5376
12:59:08.325148,-1
12:59:08.325148,-238
12:59:08.325148,-4609
12:59:08.325148,-1
12:59:08.325148,-55
12:59:08.325148,25087
12:59:08.325148,-1
12:59:08.325148,-118
12:59:08.325148,-22529
12:59:08.325148,-1
12:59:08.325148,-108
12:59:08.325148,-26881
12:59:08.325148,-1
12:59:08.325148,-96
12:59:08.325148,-23809
12:59:08.325148,-1
12:59:08.325148,-89
12:59:08.325148,-18177
12:59:08.325148,-1
12:59:08.325148,-60
12:59:08.325148,-14337
12:59:08.325148,-1
12:59:08.325148,-43
12:59:08.325148,-3841
12:59:08.325148,-1
12:59:08.325148,0
12:59:08.325148,4864
12:59:08.325148,0
12:59:08.325148,45
12:59:08.325148,18944
12:59:08.325148,0
12:59:08.325148,89
12:59:08.325148,25088
12:59:08.325148,0
12:59:08.325148,108
12:59:08.325148,27136
12:59:08.325148,0
12:59:08.325148,96
12:59:08.325148,19712
12:59:08.325148,0
12:59:08.325148,38
12:59:08.325148,3072
12:59:08.325148,0
12:59:08.325148,-12
12:59:08.325148,-8961
12:59:08.325148,-1
12:59:08.325148,-50
12:59:08.325148,-15617
12:59:08.325148,-1
12:59:08.325148,-72
12:59:08.325148,-19457
12:59:08.325148,-1
12:59:08.325148,-69
12:59:08.325148,-15105
12:59:08.325148,-1
12:59:08.325148,-67
12:59:08.325148,-17409
12:59:08.325148,-1
12:59:08.325148,-60
12:59:08.325148,-15105
12:59:08.325148,-1
12:59:08.325148,-60
12:59:08.325148,-16385
12:59:08.325148,-1
12:59:08.325148,-69
12:59:08.325148,-16385
12:59:08.325148,-1
12:59:08.325148,-60
12:59:08.325148,-14337
12:59:08.325148,-1
12:59:08.325148,-57
12:59:08.325148,-13825
12:59:08.325148,-1
12:59:08.325148,-45
12:59:08.325148,-12033
12:59:08.325148,-1
12:59:08.325148,-50
12:59:08.925143,-38
12:59:08.925143,-8193
12:59:08.925143,-1
12:59:08.925143,-31
12:59:08.925143,-7681
12:59:08.925143,-1
12:59:08.925143,-21
12:59:08.925143,1279
12:59:08.925143,0
12:59:08.925143,4
12:59:08.925143,-1024
12:59:08.925143,-1
12:59:08.925143,-4
12:59:08.925143,-769
12:59:08.925143,-1
12:59:08.925143,-16
12:59:08.925143,-6401
12:59:08.925143,-1
12:59:08.925143,-9
12:59:08.925143,6911
12:59:08.925143,0
12:59:08.925143,55
12:59:08.925143,15872
12:59:08.925143,0
12:59:08.925143,45
12:59:08.925143,9728
12:59:08.925143,0
12:59:08.925143,45
12:59:08.925143,7168
12:59:08.925143,0
12:59:08.925143,2
12:59:08.925143,512
12:59:08.925143,0
12:59:08.925143,14
12:59:08.925143,3584
12:59:08.925143,0
12:59:08.925143,4
12:59:08.925143,-9216
12:59:08.925143,-1
12:59:08.925143,-195
12:59:08.925143,-21249
12:59:08.925143,-2
12:59:08.925143,-43
12:59:08.925143,511
12:59:08.925143,3
12:59:08.925143,1500
12:59:08.925143,4608
12:59:08.925143,5
12:59:08.925143,296
12:59:08.925143,-4864
12:59:08.925143,-2
12:59:08.925143,-118
12:59:08.925143,-3841
12:59:08.925143,-1
12:59:08.925143,-123
12:59:08.925143,31999
12:59:08.925143,-1
12:59:08.925143,-89
12:59:08.925143,-23809
12:59:08.925143,-1
12:59:08.925143,-94
12:59:08.925143,-16897
12:59:08.925143,-1
12:59:08.925143,-62
12:59:08.925143,-16897
12:59:08.925143,-1
12:59:08.925143,-53
12:59:08.925143,-10753
12:59:08.925143,-1
12:59:08.925143,-36
12:59:08.925143,-3329
12:59:08.925143,-1
12:59:08.925143,0
12:59:08.925143,2304
12:59:08.925143,0
12:59:08.925143,33
12:59:08.925143,20224
12:59:08.925143,0
12:59:08.925143,113
12:59:08.925143,30720
12:59:08.925143,0
12:59:08.925143,135
12:59:08.925143,-26624
12:59:08.925143,0
12:59:08.925143,156
12:59:08.925143,-27904
12:59:08.925143,0
12:59:08.925143,115
12:59:08.925143,18944
12:59:08.925143,0
12:59:08.925143,43
12:59:08.925143,4096
12:59:08.925143,0
12:59:08.925143,0
12:59:08.925143,-4864
12:59:08.925143,-1
12:59:08.925143,-36
12:59:08.925143,-10241
12:59:08.925143,-1
12:59:08.925143,-36
12:59:08.925143,-5121
12:59:08.925143,-1
12:59:08.925143,-19
12:59:08.925143,-6913
12:59:08.925143,-1
12:59:08.925143,-26
12:59:08.925143,-5121
12:59:08.925143,-1
12:59:08.925143,-19
12:59:09.465167,-21
12:59:09.465167,-6401
12:59:09.465167,-1
12:59:09.465167,-16
12:59:09.465167,-2817
12:59:09.465167,-1
12:59:09.465167,-9
12:59:09.465167,-1537
12:59:09.465167,-1
12:59:09.465167,-7
12:59:09.465167,3327
12:59:09.465167,0
12:59:09.465167,26
12:59:09.465167,9216
12:59:09.465167,0
12:59:09.465167,60
12:59:09.465167,17664
12:59:09.465167,0
12:59:09.465167,65
12:59:09.465167,16640
12:59:09.465167,0
12:59:09.465167,65
12:59:09.465167,17664
12:59:09.465167,0
12:59:09.465167,69
12:59:09.465167,17664
12:59:09.465167,0
12:59:09.465167,69
12:59:09.465167,15360
12:59:09.465167,0
12:59:09.465167,60
12:59:09.465167,17152
12:59:09.465167,0
12:59:09.465167,77
12:59:09.465167,25856
12:59:09.465167,0
12:59:09.465167,130
12:59:09.465167,-30976
12:59:09.465167,0
12:59:09.465167,115
12:59:09.465167,25856
12:59:09.465167,0
12:59:09.465167,103
12:59:09.465167,22784
12:59:09.465167,0
12:59:09.465167,82
12:59:09.465167,23296
12:59:09.465167,0
12:59:09.465167,91
12:59:09.465167,22016
12:59:09.465167,0
12:59:09.465167,82
12:59:09.465167,5376
12:59:09.465167,0
12:59:09.465167,-152
12:59:09.465167,4095
12:59:09.465167,-1
12:59:09.465167,159
12:59:09.465167,-1024
12:59:09.465167,3
12:59:09.465167,1640
12:59:09.465167,-7168
12:59:09.465167,4
12:59:09.465167,229
12:59:09.465167,11264
12:59:09.465167,-1
12:59:09.465167,0
12:59:09.465167,14080
12:59:09.465167,0
12:59:09.465167,-57
12:59:09.465167,-11265
12:59:09.465167,-1
12:59:09.465167,-7
12:59:09.465167,-2049
12:59:09.465167,-1
12:59:09.465167,-2
12:59:09.465167,3839
12:59:09.465167,0
12:59:09.465167,21
12:59:09.465167,6144
12:59:09.465167,0
12:59:09.465167,33
12:59:09.465167,9728
12:59:09.465167,0
12:59:09.465167,48
12:59:09.465167,15872
12:59:09.465167,0
12:59:09.465167,72
12:59:09.465167,23296
12:59:09.465167,0
12:59:09.465167,115
12:59:09.465167,-30976
12:59:09.465167,0
12:59:09.465167,159
12:59:09.465167,-21760
12:59:09.465167,0
12:59:09.465167,183
12:59:09.465167,-15616
12:59:09.465167,0
12:59:09.465167,188
12:59:09.465167,-19968
12:59:09.465167,0
12:59:09.465167,154
12:59:09.465167,24576
12:59:09.465167,0
12:59:09.465167,45
12:59:09.465167,4096
12:59:09.465167,0
12:59:09.465167,2
12:59:10.035114,-16
12:59:10.035114,-8193
12:59:10.035114,-1
12:59:10.035114,-41
12:59:10.035114,-12545
12:59:10.035114,-1
12:59:10.035114,-53
12:59:10.035114,-12545
12:59:10.035114,-1
12:59:10.035114,-55
12:59:10.035114,-11265
12:59:10.035114,-1
12:59:10.035114,-33
12:59:10.035114,-12033
12:59:10.035114,-1
12:59:10.035114,-60
12:59:10.035114,-15617
12:59:10.035114,-1
12:59:10.035114,-69
12:59:10.035114,-21249
12:59:10.035114,-1
12:59:10.035114,-91
12:59:10.035114,-21761
12:59:10.035114,-1
12:59:10.035114,-89
12:59:10.035114,-22529
12:59:10.035114,-1
12:59:10.035114,-86
12:59:10.035114,-22529
12:59:10.035114,-1
12:59:10.035114,-94
12:59:10.035114,-26881
12:59:10.035114,-1
12:59:10.035114,-113
12:59:10.035114,-26881
12:59:10.035114,-1
12:59:10.035114,-106
12:59:10.035114,-30465
12:59:10.035114,-1
12:59:10.035114,-135
12:59:10.035114,30207
12:59:10.035114,-1
12:59:10.035114,-132
12:59:10.035114,-31233
12:59:10.035114,-1
12:59:10.035114,-101
12:59:10.035114,-21249
12:59:10.035114,-1
12:59:10.035114,-94
12:59:10.035114,-26881
12:59:10.035114,-1
12:59:10.035114,-115
12:59:10.035114,-32257
12:59:10.035114,-1
12:59:10.035114,-149
12:59:10.035114,23295
12:59:10.035114,-1
12:59:10.035114,-156
12:59:10.035114,28159
12:59:10.035114,-1
12:59:10.035114,-161
12:59:10.035114,20223
12:59:10.035114,-1
12:59:10.035114,-248
12:59:10.035114,22015
12:59:10.035114,-2
12:59:10.035114,-501
12:59:10.035114,-21249
12:59:10.035114,-1
12:59:10.035114,791
12:59:10.035114,21248
12:59:10.035114,5
12:59:10.035114,887
12:59:10.035114,-30720
12:59:10.035114,-1
12:59:10.035114,-489
12:59:10.035114,-7681
12:59:10.035114,-2
12:59:10.035114,-260
12:59:10.035114,-28673
12:59:10.035114,-2
12:59:10.035114,-349
12:59:10.035114,-17409
12:59:10.035114,-2
12:59:10.035114,-345
12:59:10.035114,-19201
12:59:10.035114,-2
12:59:10.035114,-313
12:59:10.035114,-13825
12:59:10.035114,-2
12:59:10.035114,-308
12:59:10.035114,-8705
12:59:10.035114,-2
12:59:10.035114,-277
12:59:10.035114,-4609
12:59:10.035114,-2
12:59:10.035114,-253
12:59:10.035114,6655
12:59:10.035114,-1
12:59:10.035114,-212
12:59:10.035114,19711
12:59:10.035114,-1
12:59:10.035114,-156
12:59:10.035114,32511
12:59:10.035114,-1
12:59:10.035114,-96
12:59:10.035114,-21249
12:59:10.035114,-1
12:59:10.035114,-79
12:59:10.575198,-79
12:59:10.575198,-25601
12:59:10.575198,-1
12:59:10.575198,-135
12:59:10.575198,20735
12:59:10.575198,-1
12:59:10.575198,-207
12:59:10.575198,8447
12:59:10.575198,-1
12:59:10.575198,-243
12:59:10.575198,-257
12:59:10.575198,-2
12:59:10.575198,-258
12:59:10.575198,2303
12:59:10.575198,-1
12:59:10.575198,-243
12:59:10.575198,3583
12:59:10.575198,-1
12:59:10.575198,-241
12:59:10.575198,4095
12:59:10.575198,-1
12:59:10.575198,-243
12:59:10.575198,5375
12:59:10.575198,-1
12:59:10.575198,-234
12:59:10.575198,6655
12:59:10.575198,-1
12:59:10.575198,-229
12:59:10.575198,7167
12:59:10.575198,-1
12:59:10.575198,-226
12:59:10.575198,7935
12:59:10.575198,-1
12:59:10.575198,-224
12:59:10.575198,10239
12:59:10.575198,-1
12:59:10.575198,-209
12:59:10.575198,15359
12:59:10.575198,-1
12:59:10.575198,-197
12:59:10.575198,14591
12:59:10.575198,-1
12:59:10.575198,-190
12:59:10.575198,18943
12:59:10.575198,-1
12:59:10.575198,-178
12:59:10.575198,22783
12:59:10.575198,-1
12:59:10.575198,-171
12:59:10.575198,21503
12:59:10.575198,-1
12:59:10.575198,-183
12:59:10.575198,18431
12:59:10.575198,-1
12:59:10.575198,-178
12:59:10.575198,25087
12:59:10.575198,-1
12:59:10.575198,-123
12:59:10.575198,-25601
12:59:10.575198,-1
12:59:10.575198,-101
12:59:10.575198,-26113
12:59:10.575198,-1
12:59:10.575198,-110
12:59:10.575198,-28673
12:59:10.575198,-1
12:59:10.575198,-123
12:59:10.575198,30207
12:59:10.575198,-1
12:59:10.575198,-137
12:59:10.575198,31999
12:59:10.575198,-1
12:59:10.575198,-130
12:59:10.575198,31999
12:59:10.575198,-1
12:59:10.575198,-193
12:59:10.575198,-26625
12:59:10.575198,-2
12:59:10.575198,-443
12:59:10.575198,-10241
12:59:10.575198,-1
12:59:10.575198,834
12:59:10.575198,-24576
12:59:10.575198,5
12:59:10.575198,1013
12:59:10.575198,0
12:59:10.575198,0
12:59:10.575198,-402
12:59:10.575198,18943
12:59:10.575198,-1
12:59:10.575198,-137
12:59:10.575198,-257
12:59:10.575198,-2
12:59:10.575198,-241
12:59:10.575198,13311
12:59:10.575198,-1
12:59:10.575198,-219
12:59:10.575198,11519
12:59:10.575198,-1
12:59:10.575198,-188
12:59:10.575198,20223
12:59:10.575198,-1
12:59:10.575198,-176
12:59:10.575198,24575
12:59:10.575198,-1
12:59:10.575198,-139
12:59:10.575198,-31745
12:59:10.575198,-1
12:59:10.575198,-108
12:59:11.145144,-96
12:59:11.145144,-19969
12:59:11.145144,-1
12:59:11.145144,-48
12:59:11.145144,-6401
12:59:11.145144,-1
12:59:11.145144,2
12:59:11.145144,9728
12:59:11.145144,0
12:59:11.145144,67
12:59:11.145144,21504
12:59:11.145144,0
12:59:11.145144,77
12:59:11.145144,17152
12:59:11.145144,0
12:59:11.145144,53
12:59:11.145144,2304
12:59:11.145144,0
12:59:11.145144,-26
12:59:11.145144,-11265
12:59:11.145144,-1
12:59:11.145144,-62
12:59:11.145144,-19969
12:59:11.145144,-1
12:59:11.145144,-94
12:59:11.145144,-23809
12:59:11.145144,-1
12:59:11.145144,-91
12:59:11.145144,-24833
12:59:11.145144,-1
12:59:11.145144,-89
12:59:11.145144,-19457
12:59:11.145144,-1
12:59:11.145144,-74
12:59:11.145144,-19457
12:59:11.145144,-1
12:59:11.145144,-79
12:59:11.145144,-18689
12:59:11.145144,-1
12:59:11.145144,-77
12:59:11.145144,-19969
12:59:11.145144,-1
12:59:11.145144,-72
12:59:11.145144,-17409
12:59:11.145144,-1
12:59:11.145144,-77
12:59:11.145144,-18689
12:59:11.145144,-1
12:59:11.145144,-65
12:59:11.145144,-13825
12:59:11.145144,-1
12:59:11.145144,-55
12:59:11.145144,-13313
12:59:11.145144,-1
12:59:11.145144,-43
12:59:11.145144,-9473
12:59:11.145144,-1
12:59:11.145144,-36
12:59:11.145144,-8193
12:59:11.145144,-1
12:59:11.145144,-28
12:59:11.145144,-5121
12:59:11.145144,-1
12:59:11.145144,-21
12:59:11.145144,-5889
12:59:11.145144,-1
12:59:11.145144,-33
12:59:11.145144,-8193
12:59:11.145144,-1
12:59:11.145144,-14
12:59:11.145144,4351
12:59:11.145144,0
12:59:11.145144,43
12:59:11.145144,12800
12:59:11.145144,0
12:59:11.145144,36
12:59:11.145144,9216
12:59:11.145144,0
12:59:11.145144,43
12:59:11.145144,7168
12:59:11.145144,0
12:59:11.145144,16
12:59:11.145144,3584
12:59:11.145144,0
12:59:11.145144,19
12:59:11.145144,4864
12:59:11.145144,0
12:59:11.145144,14
12:59:11.145144,512
12:59:11.145144,0
12:59:11.145144,-106
12:59:11.145144,-5121
12:59:11.145144,-2
12:59:11.145144,-185
12:59:11.145144,-16641
12:59:11.145144,1
12:59:11.145144,1305
12:59:11.145144,-9728
12:59:11.145144,5
12:59:11.145144,678
12:59:11.145144,25600
12:59:11.145144,-1
12:59:11.145144,-193
12:59:11.145144,1279
12:59:11.145144,0
12:59:11.145144,-65
12:59:11.145144,32511
12:59:11.145144,-1
12:59:11.145144,-77
12:59:11.685074,-67
12:59:11.685074,-21249
12:59:11.685074,-1
12:59:11.685074,-65
12:59:11.685074,-12033
12:59:11.685074,-1
12:59:11.685074,-48
12:59:11.685074,-10241
12:59:11.685074,-1
12:59:11.685074,-14
12:59:11.685074,4351
12:59:11.685074,0
12:59:11.685074,31
12:59:11.685074,10496
12:59:11.685074,0
12:59:11.685074,60
12:59:11.685074,18944
12:59:11.685074,0
12:59:11.685074,94
12:59:11.685074,32000
12:59:11.685074,0
12:59:11.685074,154
12:59:11.685074,-21760
12:59:11.685074,0
12:59:11.685074,176
12:59:11.685074,-18176
12:59:11.685074,0
12:59:11.685074,180
12:59:11.685074,-24832
12:59:11.685074,0
12:59:11.685074,135
12:59:11.685074,24576
12:59:11.685074,0
12:59:11.685074,65
12:59:11.685074,10496
12:59:11.685074,0
12:59:11.685074,16
12:59:11.685074,2304
12:59:11.685074,0
12:59:11.685074,4
12:59:11.685074,0
12:59:11.685074,0
12:59:11.685074,9
12:59:11.685074,4864
12:59:11.685074,0
12:59:11.685074,31
12:59:11.685074,8448
12:59:11.685074,0
12:59:11.685074,14
12:59:11.685074,3072
12:59:11.685074,0
12:59:11.685074,21
12:59:11.685074,6144
12:59:11.685074,0
12:59:11.685074,28
12:59:11.685074,9216
12:59:11.685074,0
12:59:11.685074,38
12:59:11.685074,8448
12:59:11.685074,0
12:59:11.685074,41
12:59:11.685074,12800
12:59:11.685074,0
12:59:11.685074,43
12:59:11.685074,12288
12:59:11.685074,0
12:59:11.685074,62
12:59:11.685074,17152
12:59:11.685074,0
12:59:11.685074,69
12:59:11.685074,17152
12:59:11.685074,0
12:59:11.685074,79
12:59:11.685074,22784
12:59:11.685074,0
12:59:11.685074,84
12:59:11.685074,22016
12:59:11.685074,0
12:59:11.685074,86
12:59:11.685074,22016
12:59:11.685074,0
12:59:11.685074,89
12:59:11.685074,20992
12:59:11.685074,0
12:59:11.685074,74
12:59:11.685074,18432
12:59:11.685074,0
12:59:11.685074,72
12:59:11.685074,22016
12:59:11.685074,0
12:59:11.685074,113
12:59:11.685074,-29952
12:59:11.685074,0
12:59:11.685074,135
12:59:11.685074,29440
12:59:11.685074,0
12:59:11.685074,120
12:59:11.685074,29440
12:59:11.685074,0
12:59:11.685074,98
12:59:11.685074,23296
12:59:11.685074,0
12:59:11.685074,84
12:59:11.685074,20992
12:59:11.685074,0
12:59:11.685074,89
12:59:11.685074,22016
12:59:11.685074,0
12:59:11.685074,24
12:59:12.285099,-149
12:59:12.285099,6655
12:59:12.285099,-1
12:59:12.285099,171
12:59:12.285099,5120
12:59:12.285099,4
12:59:12.285099,1662
12:59:12.285099,-21504
12:59:12.285099,4
12:59:12.285099,139
12:59:12.285099,10752
12:59:12.285099,-1
12:59:12.285099,26
12:59:12.285099,12800
12:59:12.285099,0
12:59:12.285099,-60
12:59:12.285099,-8961
12:59:12.285099,-1
12:59:12.285099,-7
12:59:12.285099,-8193
12:59:12.285099,-1
12:59:12.285099,-21
12:59:12.285099,255
12:59:12.285099,0
12:59:12.285099,-7
12:59:12.285099,-1537
12:59:12.285099,-1
12:59:12.285099,4
12:59:12.285099,4096
12:59:12.285099,0
12:59:12.285099,31
12:59:12.285099,11008
12:59:12.285099,0
12:59:12.285099,62
12:59:12.285099,20992
12:59:12.285099,0
12:59:12.285099,98
12:59:12.285099,32000
12:59:12.285099,0
12:59:12.285099,147
12:59:12.285099,-22528
12:59:12.285099,0
12:59:12.285099,185
12:59:12.285099,-16896
12:59:12.285099,0
12:59:12.285099,195
12:59:12.285099,-17408
12:59:12.285099,0
12:59:12.285099,156
12:59:12.285099,29440
12:59:12.285099,0
12:59:12.285099,79
12:59:12.285099,14080
12:59:12.285099,0
12:59:12.285099,31
12:59:12.285099,4096
12:59:12.285099,0
12:59:12.285099,12
12:59:12.285099,0
12:59:12.285099,0
12:59:12.285099,0
12:59:12.285099,1024
12:59:12.285099,0
12:59:12.285099,0
12:59:12.285099,512
12:59:12.285099,0
12:59:12.285099,7
12:59:12.285099,1024
12:59:12.285099,0
12:59:12.285099,0
12:59:12.285099,-1024
12:59:12.285099,-1
12:59:12.285099,0
12:59:12.285099,512
12:59:12.285099,0
12:59:12.285099,7
12:59:12.285099,4096
12:59:12.285099,0
12:59:12.285099,12
12:59:12.285099,3584
12:59:12.285099,0
12:59:12.285099,26
12:59:12.285099,6656
12:59:12.285099,0
12:59:12.285099,31
12:59:12.285099,9728
12:59:12.285099,0
12:59:12.285099,41
12:59:12.285099,10496
12:59:12.285099,0
12:59:12.285099,41
12:59:12.285099,11008
12:59:12.285099,0
12:59:12.285099,48
12:59:12.285099,10496
12:59:12.285099,0
12:59:12.285099,38
12:59:12.285099,7936
12:59:12.285099,0
12:59:12.285099,33
12:59:12.285099,14080
12:59:12.285099,0
12:59:12.285099,79
12:59:12.285099,26368
12:59:12.285099,0
12:59:12.285099,106
12:59:12.285099,22784
12:59:12.285099,0
12:59:12.285099,79
12:59:12.885108,69
12:59:12.885108,17152
12:59:12.885108,0
12:59:12.885108,60
12:59:12.885108,11520
12:59:12.885108,0
12:59:12.885108,45
12:59:12.885108,13568
12:59:12.885108,0
12:59:12.885108,50
12:59:12.885108,1024
12:59:12.885108,0
12:59:12.885108,-152
12:59:12.885108,-1537
12:59:12.885108,-2
12:59:12.885108,43
12:59:12.885108,22016
12:59:12.885108,3
12:59:12.885108,1570
12:59:12.885108,9984
12:59:12.885108,5
12:59:12.885108,294
12:59:12.885108,3840
12:59:12.885108,-1
12:59:12.885108,-55
12:59:12.885108,9471
12:59:12.885108,0
12:59:12.885108,-82
12:59:12.885108,-19457
12:59:12.885108,-1
12:59:12.885108,-28
12:59:12.885108,-13313
12:59:12.885108,-1
12:59:12.885108,-55
12:59:12.885108,-6401
12:59:12.885108,-1
12:59:12.885108,-24
12:59:12.885108,-5121
12:59:12.885108,-1
12:59:12.885108,-9
12:59:12.885108,255
12:59:12.885108,0
12:59:12.885108,9
12:59:12.885108,6144
12:59:12.885108,0
12:59:12.885108,45
12:59:12.885108,15360
12:59:12.885108,0
12:59:12.885108,84
12:59:12.885108,29440
12:59:12.885108,0
12:59:12.885108,132
12:59:12.885108,-26112
12:59:12.885108,0
12:59:12.885108,173
12:59:12.885108,-19968
12:59:12.885108,0
12:59:12.885108,171
12:59:12.885108,-26624
12:59:12.885108,0
12:59:12.885108,132
12:59:12.885108,25856
12:59:12.885108,0
12:59:12.885108,53
12:59:12.885108,6144
12:59:12.885108,0
12:59:12.885108,2
12:59:12.885108,-3072
12:59:12.885108,-1
12:59:12.885108,-21
12:59:12.885108,-7681
12:59:12.885108,-1
12:59:12.885108,-26
12:59:12.885108,-4609
12:59:12.885108,-1
12:59:12.885108,-19
12:59:12.885108,-3329
12:59:12.885108,-1
12:59:12.885108,-16
12:59:12.885108,-4609
12:59:12.885108,-1
12:59:12.885108,-21
12:59:12.885108,-5889
12:59:12.885108,-1
12:59:12.885108,-16
12:59:12.885108,-3841
12:59:12.885108,-1
12:59:12.885108,-24
12:59:12.885108,-3329
12:59:12.885108,-1
12:59:12.885108,-12
12:59:12.885108,-1537
12:59:12.885108,-1
12:59:12.885108,-4
12:59:12.885108,-257
12:59:12.885108,-1
12:59:12.885108,2
12:59:12.885108,512
12:59:12.885108,0
12:59:12.885108,2
12:59:12.885108,1792
12:59:12.885108,0
12:59:12.885108,14
12:59:12.885108,5376
12:59:12.885108,0
12:59:12.885108,14
12:59:12.885108,3584
12:59:12.885108,0
12:59:12.885108,21
12:59:13.395111,19
12:59:13.395111,4096
12:59:13.395111,0
12:59:13.395111,14
12:59:13.395111,1024
12:59:13.395111,0
12:59:13.395111,7
12:59:13.395111,7168
12:59:13.395111,0
12:59:13.395111,60
12:59:13.395111,19712
12:59:13.395111,0
12:59:13.395111,67
12:59:13.395111,14592
12:59:13.395111,0
12:59:13.395111,45
12:59:13.395111,8448
12:59:13.395111,0
12:59:13.395111,24
12:59:13.395111,4864
12:59:13.395111,0
12:59:13.395111,36
12:59:13.395111,12800
12:59:13.395111,0
12:59:13.395111,41
12:59:13.395111,7168
12:59:13.395111,0
12:59:13.395111,-50
12:59:13.395111,5887
12:59:13.395111,-1
12:59:13.395111,-265
12:59:13.395111,-9217
12:59:13.395111,0
12:59:13.395111,1105
12:59:13.395111,9472
12:59:13.395111,6
12:59:13.395111,974
12:59:13.395111,-1024
12:59:13.395111,-1
12:59:13.395111,-255
12:59:13.395111,-7681
12:59:13.395111,-1
12:59:13.395111,-36
12:59:13.395111,-31233
12:59:13.395111,-1
12:59:13.395111,-86
12:59:13.395111,-19457
12:59:13.395111,-1
12:59:13.395111,-94
12:59:13.395111,-18177
12:59:13.395111,-1
12:59:13.395111,-62
12:59:13.395111,-15617
12:59:13.395111,-1
12:59:13.395111,-45
12:59:13.395111,-9473
12:59:13.395111,-1
12:59:13.395111,-38
12:59:13.395111,-7681
12:59:13.395111,-1
12:59:13.395111,-16
12:59:13.395111,-769
12:59:13.395111,-1
12:59:13.395111,19
12:59:13.395111,13568
12:59:13.395111,0
12:59:13.395111,72
12:59:13.395111,24576
12:59:13.395111,0
12:59:13.395111,130
12:59:13.395111,-29184
12:59:13.395111,0
12:59:13.395111,139
12:59:13.395111,-30464
12:59:13.395111,0
12:59:13.395111,125
12:59:13.395111,25856
12:59:13.395111,0
12:59:13.395111,62
12:59:13.395111,7168
12:59:13.395111,0
12:59:13.395111,7
12:59:13.395111,-4096
12:59:13.395111,-1
12:59:13.395111,-33
12:59:13.395111,-10753
12:59:13.395111,-1
12:59:13.395111,-45
12:59:13.395111,-12033
12:59:13.395111,-1
12:59:13.395111,-53
12:59:13.395111,-12033
12:59:13.395111,-1
12:59:13.395111,-50
12:59:13.395111,-13825
12:59:13.395111,-1
12:59:13.395111,-48
12:59:13.395111,-11265
12:59:13.395111,-1
12:59:13.395111,-50
12:59:13.395111,-13313
12:59:13.395111,-1
12:59:13.395111,-55
12:59:13.395111,-13313
12:59:13.395111,-1
12:59:13.395111,-53
12:59:13.395111,-12033
12:59:13.395111,-1
12:59:13.395111,-41
12:59:13.935108,-41
12:59:13.935108,-7681
12:59:13.935108,-1
12:59:13.935108,-24
12:59:13.935108,-6913
12:59:13.935108,-1
12:59:13.935108,-26
12:59:13.935108,-4609
12:59:13.935108,-1
12:59:13.935108,-16
12:59:13.935108,-3329
12:59:13.935108,-1
12:59:13.935108,-2
12:59:13.935108,2047
12:59:13.935108,0
12:59:13.935108,-9
12:59:13.935108,-3841
12:59:13.935108,-1
12:59:13.935108,-2
12:59:13.935108,767
12:59:13.935108,0
12:59:13.935108,21
12:59:13.935108,13568
12:59:13.935108,0
12:59:13.935108,67
12:59:13.935108,15872
12:59:13.935108,0
12:59:13.935108,50
12:59:13.935108,10496
12:59:13.935108,0
12:59:13.935108,26
12:59:13.935108,2304
12:59:13.935108,0
12:59:13.935108,9
12:59:13.935108,3072
12:59:13.935108,0
12:59:13.935108,7
12:59:13.935108,1792
12:59:13.935108,0
12:59:13.935108,-4
12:59:13.935108,-25601
12:59:13.935108,-1
12:59:13.935108,-284
12:59:13.935108,-257
12:59:13.935108,-2
12:59:13.935108,304
12:59:13.935108,-29440
12:59:13.935108,4
12:59:13.935108,1500
12:59:13.935108,9472
12:59:13.935108,3
12:59:13.935108,-103
12:59:13.935108,4095
12:59:13.935108,-1
12:59:13.935108,-33
12:59:13.935108,-19457
12:59:13.935108,-1
12:59:13.935108,-152
12:59:13.935108,-27905
12:59:13.935108,-1
12:59:13.935108,-96
12:59:13.935108,-29185
12:59:13.935108,-1
12:59:13.935108,-98
12:59:13.935108,-19969
12:59:13.935108,-1
12:59:13.935108,-84
12:59:13.935108,-18689
12:59:13.935108,-1
12:59:13.935108,-60
12:59:13.935108,-13313
12:59:13.935108,-1
12:59:13.935108,-38
12:59:13.935108,-6401
12:59:13.935108,-1
12:59:13.935108,-14
12:59:13.935108,3327
12:59:13.935108,0
12:59:13.935108,31
12:59:13.935108,13568
12:59:13.935108,0
12:59:13.935108,84
12:59:13.935108,28160
12:59:13.935108,0
12:59:13.935108,123
12:59:13.935108,31488
12:59:13.935108,0
12:59:13.935108,115
12:59:13.935108,25088
12:59:13.935108,0
12:59:13.935108,65
12:59:13.935108,7936
12:59:13.935108,0
12:59:13.935108,4
12:59:13.935108,-4096
12:59:13.935108,-1
12:59:13.935108,-36
12:59:13.935108,-13825
12:59:13.935108,-1
12:59:13.935108,-55
12:59:13.935108,-13313
12:59:13.935108,-1
12:59:13.935108,-57
12:59:13.935108,-12033
12:59:13.935108,-1
12:59:13.935108,-45
12:59:13.935108,-12033
12:59:13.935108,-1
12:59:13.935108,-45
12:59:14.505139,-48
12:59:14.505139,-12545
12:59:14.505139,-1
12:59:14.505139,-53
12:59:14.505139,-13313
12:59:14.505139,-1
12:59:14.505139,-50
12:59:14.505139,-8961
12:59:14.505139,-1
12:59:14.505139,-16
12:59:14.505139,-3841
12:59:14.505139,-1
12:59:14.505139,-21
12:59:14.505139,-2049
12:59:14.505139,-1
12:59:14.505139,-4
12:59:14.505139,-257
12:59:14.505139,-1
12:59:14.505139,2
12:59:14.505139,-512
12:59:14.505139,-1
12:59:14.505139,-4
12:59:14.505139,-769
12:59:14.505139,-1
12:59:14.505139,0
12:59:14.505139,1024
12:59:14.505139,0
12:59:14.505139,-4
12:59:14.505139,-257
12:59:14.505139,-1
12:59:14.505139,4
12:59:14.505139,-1024
12:59:14.505139,-1
12:59:14.505139,-7
12:59:14.505139,-2049
12:59:14.505139,-1
12:59:14.505139,4
12:59:14.505139,10496
12:59:14.505139,0
12:59:14.505139,60
12:59:14.505139,15360
12:59:14.505139,0
12:59:14.505139,43
12:59:14.505139,8448
12:59:14.505139,0
12:59:14.505139,33
12:59:14.505139,3584
12:59:14.505139,0
12:59:14.505139,2
12:59:14.505139,1024
12:59:14.505139,0
12:59:14.505139,2
12:59:14.505139,3072
12:59:14.505139,0
12:59:14.505139,16
12:59:14.505139,-9216
12:59:14.505139,-1
12:59:14.505139,-205
12:59:14.505139,-18177
12:59:14.505139,-2
12:59:14.505139,-4
12:59:14.505139,11775
12:59:14.505139,3
12:59:14.505139,1493
12:59:14.505139,-12800
12:59:14.505139,4
12:59:14.505139,243
12:59:14.505139,-6656
12:59:14.505139,-2
12:59:14.505139,-125
12:59:14.505139,-8961
12:59:14.505139,-1
12:59:14.505139,-132
12:59:14.505139,31231
12:59:14.505139,-1
12:59:14.505139,-98
12:59:14.505139,-27393
12:59:14.505139,-1
12:59:14.505139,-113
12:59:14.505139,-22529
12:59:14.505139,-1
12:59:14.505139,-82
12:59:14.505139,-20737
12:59:14.505139,-1
12:59:14.505139,-74
12:59:14.505139,-16897
12:59:14.505139,-1
12:59:14.505139,-50
12:59:14.505139,-6913
12:59:14.505139,-1
12:59:14.505139,-19
12:59:14.505139,-769
12:59:14.505139,-1
12:59:14.505139,14
12:59:14.505139,9728
12:59:14.505139,0
12:59:14.505139,65
12:59:14.505139,22016
12:59:14.505139,0
12:59:14.505139,108
12:59:14.505139,31488
12:59:14.505139,0
12:59:14.505139,127
12:59:14.505139,30208
12:59:14.505139,0
12:59:14.505139,86
12:59:14.505139,14080
12:59:14.505139,0
12:59:14.505139,28
12:59:15.045138,0
12:59:15.045138,-4864
12:59:15.045138,-1
12:59:15.045138,-38
12:59:15.045138,-13313
12:59:15.045138,-1
12:59:15.045138,-55
12:59:15.045138,-12545
12:59:15.045138,-1
12:59:15.045138,-36
12:59:15.045138,-5889
12:59:15.045138,-1
12:59:15.045138,-24
12:59:15.045138,-5889
12:59:15.045138,-1
12:59:15.045138,-26
12:59:15.045138,-6913
12:59:15.045138,-1
12:59:15.045138,-28
12:59:15.045138,-7681
12:59:15.045138,-1
12:59:15.045138,-33
12:59:15.045138,-8193
12:59:15.045138,-1
12:59:15.045138,-26
12:59:15.045138,-5121
12:59:15.045138,-1
12:59:15.045138,-24
12:59:15.045138,-4609
12:59:15.045138,-1
12:59:15.045138,-14
12:59:15.045138,-4609
12:59:15.045138,-1
12:59:15.045138,-9
12:59:15.045138,-1537
12:59:15.045138,-1
12:59:15.045138,-9
12:59:15.045138,-1537
12:59:15.045138,-1
12:59:15.045138,-4
12:59:15.045138,-257
12:59:15.045138,-1
12:59:15.045138,0
12:59:15.045138,512
12:59:15.045138,0
12:59:15.045138,2
12:59:15.045138,-1024
12:59:15.045138,-1
12:59:15.045138,-4
12:59:15.045138,255
12:59:15.045138,0
12:59:15.045138,-7
12:59:15.045138,-2817
12:59:15.045138,-1
12:59:15.045138,-16
12:59:15.045138,-1537
12:59:15.045138,-1
12:59:15.045138,19
12:59:15.045138,10496
12:59:15.045138,0
12:59:15.045138,53
12:59:15.045138,12800
12:59:15.045138,0
12:59:15.045138,41
12:59:15.045138,8448
12:59:15.045138,0
12:59:15.045138,19
12:59:15.045138,2304
12:59:15.045138,0
12:59:15.045138,2
12:59:15.045138,0
12:59:15.045138,0
12:59:15.045138,4
12:59:15.045138,1792
12:59:15.045138,0
12:59:15.045138,-12
12:59:15.045138,32511
12:59:15.045138,-1
12:59:15.045138,-306
12:59:15.045138,18431
12:59:15.045138,-1
12:59:15.045138,480
12:59:15.045138,9472
12:59:15.045138,5
12:59:15.045138,1447
12:59:15.045138,22016
12:59:15.045138,2
12:59:15.045138,-197
12:59:15.045138,12799
12:59:15.045138,-1
12:59:15.045138,-24
12:59:15.045138,-22529
12:59:15.045138,-1
12:59:15.045138,-144
12:59:15.045138,-25601
12:59:15.045138,-1
12:59:15.045138,-89
12:59:15.045138,-24833
12:59:15.045138,-1
12:59:15.045138,-82
12:59:15.045138,-17409
12:59:15.045138,-1
12:59:15.045138,-67
12:59:15.045138,-13825
12:59:15.045138,-1
12:59:15.045138,-48
12:59:15.045138,-10753
12:59:15.045138,-1
12:59:15.045138,-33
12:59:15.645133,-19
12:59:15.645133,255
12:59:15.645133,0
12:59:15.645133,21
12:59:15.645133,15360
12:59:15.645133,0
12:59:15.645133,101
12:59:15.645133,30208
12:59:15.645133,0
12:59:15.645133,127
12:59:15.645133,-29184
12:59:15.645133,0
12:59:15.645133,154
12:59:15.645133,-26112
12:59:15.645133,0
12:59:15.645133,130
12:59:15.645133,26368
12:59:15.645133,0
12:59:15.645133,69
12:59:15.645133,7168
12:59:15.645133,0
12:59:15.645133,7
12:59:15.645133,-1024
12:59:15.645133,-1
12:59:15.645133,-14
12:59:15.645133,-5121
12:59:15.645133,-1
12:59:15.645133,-31
12:59:15.645133,-6913
12:59:15.645133,-1
12:59:15.645133,-26
12:59:15.645133,-7681
12:59:15.645133,-1
12:59:15.645133,-26
12:59:15.645133,-8193
12:59:15.645133,-1
12:59:15.645133,-36
12:59:15.645133,-7681
12:59:15.645133,-1
12:59:15.645133,-36
12:59:15.645133,-6913
12:59:15.645133,-1
12:59:15.645133,-26
12:59:15.645133,-6913
12:59:15.645133,-1
12:59:15.645133,-28
12:59:15.645133,-5889
12:59:15.645133,-1
12:59:15.645133,-14
12:59:15.645133,-3329
12:59:15.645133,-1
12:59:15.645133,-24
12:59:15.645133,-2817
12:59:15.645133,-1
12:59:15.645133,-2
12:59:15.645133,-1537
12:59:15.645133,-1
12:59:15.645133,-9
12:59:15.645133,767
12:59:15.645133,0
12:59:15.645133,7
12:59:15.645133,512
12:59:15.645133,0
12:59:15.645133,2
12:59:15.645133,512
12:59:15.645133,0
12:59:15.645133,-2
12:59:15.645133,1279
12:59:15.645133,0
12:59:15.645133,4
12:59:15.645133,-1792
12:59:15.645133,-1
12:59:15.645133,-7
12:59:15.645133,-769
12:59:15.645133,-1
12:59:15.645133,19
12:59:15.645133,14592
12:59:15.645133,0
12:59:15.645133,62
12:59:15.645133,12800
12:59:15.645133,0
12:59:15.645133,43
12:59:15.645133,10496
12:59:15.645133,0
12:59:15.645133,36
12:59:15.645133,6656
12:59:15.645133,0
12:59:15.645133,21
12:59:15.645133,5376
12:59:15.645133,0
12:59:15.645133,24
12:59:15.645133,6656
12:59:15.645133,0
12:59:15.645133,7
12:59:15.645133,-22784
12:59:15.645133,-1
12:59:15.645133,-270
12:59:15.645133,7167
12:59:15.645133,-1
12:59:15.645133,366
12:59:15.645133,-11520
12:59:15.645133,4
12:59:15.645133,1527
12:59:15.645133,3328
12:59:15.645133,3
12:59:15.645133,-120
12:59:15.645133,8447
12:59:15.645133,-1
12:59:15.645133,-7
12:59:16.215633,-53
12:59:16.215633,-31745
12:59:16.215633,-1
12:59:16.215633,-84
12:59:16.215633,-16385
12:59:16.215633,-1
12:59:16.215633,-77
12:59:16.215633,-16897
12:59:16.215633,-1
12:59:16.215633,-50
12:59:16.215633,-13313
12:59:16.215633,-1
12:59:16.215633,-33
12:59:16.215633,-257
12:59:16.215633,-1
12:59:16.215633,0
12:59:16.215633,0
12:59:16.215633,0
12:59:16.215633,21
12:59:16.215633,9728
12:59:16.215633,0
12:59:16.215633,53
12:59:16.215633,18432
12:59:16.215633,0
12:59:16.215633,101
12:59:16.215633,32512
12:59:16.215633,0
12:59:16.215633,142
12:59:16.215633,-25600
12:59:16.215633,0
12:59:16.215633,168
12:59:16.215633,-23552
12:59:16.215633,0
12:59:16.215633,149
12:59:16.215633,31488
12:59:16.215633,0
12:59:16.215633,96
12:59:16.215633,15872
12:59:16.215633,0
12:59:16.215633,36
12:59:16.215633,5376
12:59:16.215633,0
12:59:16.215633,0
12:59:16.215633,-3584
12:59:16.215633,-1
12:59:16.215633,-12
12:59:16.215633,-3329
12:59:16.215633,-1
12:59:16.215633,-12
12:59:16.215633,-1537
12:59:16.215633,-1
12:59:16.215633,-4
12:59:16.215633,-769
12:59:16.215633,-1
12:59:16.215633,-9
12:59:16.215633,-3841
12:59:16.215633,-1
12:59:16.215633,-24
12:59:16.215633,-5889
12:59:16.215633,-1
12:59:16.215633,-14
12:59:16.215633,-1537
12:59:16.215633,-1
12:59:16.215633,-2
12:59:16.215633,767
12:59:16.215633,0
12:59:16.215633,0
12:59:16.215633,1792
12:59:16.215633,0
12:59:16.215633,9
12:59:16.215633,3584
12:59:16.215633,0
12:59:16.215633,21
12:59:16.215633,4864
12:59:16.215633,0
12:59:16.215633,26
12:59:16.215633,7936
12:59:16.215633,0
12:59:16.215633,21
12:59:16.215633,6144
12:59:16.215633,0
12:59:16.215633,24
12:59:16.215633,4864
12:59:16.215633,0
12:59:16.215633,36
12:59:16.215633,14080
12:59:16.215633,0
12:59:16.215633,65
12:59:16.215633,18944
12:59:16.215633,0
12:59:16.215633,79
12:59:16.215633,17152
12:59:16.215633,0
12:59:16.215633,53
12:59:16.215633,12800
12:59:16.215633,0
12:59:16.215633,38
12:59:16.215633,6656
12:59:16.215633,0
12:59:16.215633,31
12:59:16.215633,8448
12:59:16.215633,0
12:59:16.215633,36
12:59:16.215633,5376
12:59:16.215633,0
12:59:16.215633,-103
12:59:16.215633,-7681
12:59:16.215633,-2
12:59:16.215633,-183
12:59:16.755132,477
12:59:16.755132,15616
12:59:16.755132,5
12:59:16.755132,1491
12:59:16.755132,26880
12:59:16.755132,2
12:59:16.755132,-197
12:59:16.755132,18431
12:59:16.755132,-1
12:59:16.755132,-7
12:59:16.755132,-24321
12:59:16.755132,-1
12:59:16.755132,-127
12:59:16.755132,-16897
12:59:16.755132,-1
12:59:16.755132,-67
12:59:16.755132,-16897
12:59:16.755132,-1
12:59:16.755132,-48
12:59:16.755132,-11265
12:59:16.755132,-1
12:59:16.755132,-48
12:59:16.755132,-10753
12:59:16.755132,-1
12:59:16.755132,-33
12:59:16.755132,-5889
12:59:16.755132,-1
12:59:16.755132,-14
12:59:16.755132,2047
12:59:16.755132,0
12:59:16.755132,19
12:59:16.755132,8448
12:59:16.755132,0
12:59:16.755132,65
12:59:16.755132,24064
12:59:16.755132,0
12:59:16.755132,115
12:59:16.755132,32512
12:59:16.755132,0
12:59:16.755132,137
12:59:16.755132,-28672
12:59:16.755132,0
12:59:16.755132,132
12:59:16.755132,29440
12:59:16.755132,0
12:59:16.755132,89
12:59:16.755132,11008
12:59:16.755132,0
12:59:16.755132,12
12:59:16.755132,-1024
12:59:16.755132,-1
12:59:16.755132,-21
12:59:16.755132,-8193
12:59:16.755132,-1
12:59:16.755132,-38
12:59:16.755132,-9473
12:59:16.755132,-1
12:59:16.755132,-45
12:59:16.755132,-12033
12:59:16.755132,-1
12:59:16.755132,-43
12:59:16.755132,-12033
12:59:16.755132,-1
12:59:16.755132,-50
12:59:16.755132,-10753
12:59:16.755132,-1
12:59:16.755132,-43
12:59:16.755132,-9473
12:59:16.755132,-1
12:59:16.755132,-36
12:59:16.755132,-9473
12:59:16.755132,-1
12:59:16.755132,-28
12:59:16.755132,-3841
12:59:16.755132,-1
12:59:16.755132,-12
12:59:16.755132,-2817
12:59:16.755132,-1
12:59:16.755132,-9
12:59:16.755132,-257
12:59:16.755132,-1
12:59:16.755132,4
12:59:16.755132,2304
12:59:16.755132,0
12:59:16.755132,4
12:59:16.755132,-512
12:59:16.755132,-1
12:59:16.755132,0
12:59:16.755132,512
12:59:16.755132,0
12:59:16.755132,9
12:59:16.755132,7168
12:59:16.755132,0
12:59:16.755132,50
12:59:16.755132,17152
12:59:16.755132,0
12:59:16.755132,57
12:59:16.755132,10496
12:59:16.755132,0
12:59:16.755132,45
12:59:16.755132,9216
12:59:16.755132,0
12:59:16.755132,21
12:59:16.755132,5376
12:59:16.755132,0
12:59:16.755132,26
12:59:16.755132,6144
12:59:16.755132,0
12:59:16.755132,19
12:59:17.355130,14
12:59:17.355130,-17152
12:59:17.355130,-1
12:59:17.355130,-260
12:59:17.355130,-3841
12:59:17.355130,-2
12:59:17.355130,243
12:59:17.355130,24320
12:59:17.355130,4
12:59:17.355130,1558
12:59:17.355130,-23808
12:59:17.355130,3
12:59:17.355130,-16
12:59:17.355130,12287
12:59:17.355130,-1
12:59:17.355130,2
12:59:17.355130,-6656
12:59:17.355130,-1
12:59:17.355130,-110
12:59:17.355130,-18177
12:59:17.355130,-1
12:59:17.355130,-57
12:59:17.355130,-19969
12:59:17.355130,-1
12:59:17.355130,-60
12:59:17.355130,-10241
12:59:17.355130,-1
12:59:17.355130,-48
12:59:17.355130,-10241
12:59:17.355130,-1
12:59:17.355130,-26
12:59:17.355130,-5121
12:59:17.355130,-1
12:59:17.355130,-14
12:59:17.355130,767
12:59:17.355130,0
12:59:17.355130,21
12:59:17.355130,9216
12:59:17.355130,0
12:59:17.355130,60
12:59:17.355130,23296
12:59:17.355130,0
12:59:17.355130,108
12:59:17.355130,-31744
12:59:17.355130,0
12:59:17.355130,149
12:59:17.355130,-29952
12:59:17.355130,0
12:59:17.355130,132
12:59:17.355130,31488
12:59:17.355130,0
12:59:17.355130,98
12:59:17.355130,17152
12:59:17.355130,0
12:59:17.355130,36
12:59:17.355130,4096
12:59:17.355130,0
12:59:17.355130,0
12:59:17.355130,-4096
12:59:17.355130,-1
12:59:17.355130,-24
12:59:17.355130,-7681
12:59:17.355130,-1
12:59:17.355130,-24
12:59:17.355130,-5121
12:59:17.355130,-1
12:59:17.355130,-26
12:59:17.355130,-5889
12:59:17.355130,-1
12:59:17.355130,-26
12:59:17.355130,-7681
12:59:17.355130,-1
12:59:17.355130,-31
12:59:17.355130,-6913
12:59:17.355130,-1
12:59:17.355130,-21
12:59:17.355130,-5121
12:59:17.355130,-1
12:59:17.355130,-24
12:59:17.355130,-3841
12:59:17.355130,-1
12:59:17.355130,-12
12:59:17.355130,-1537
12:59:17.355130,-1
12:59:17.355130,-9
12:59:17.355130,-2049
12:59:17.355130,-1
12:59:17.355130,4
12:59:17.355130,1024
12:59:17.355130,0
12:59:17.355130,2
12:59:17.355130,512
12:59:17.355130,0
12:59:17.355130,-7
12:59:17.355130,-2817
12:59:17.355130,-1
12:59:17.355130,-12
12:59:17.355130,-769
12:59:17.355130,-1
12:59:17.355130,12
12:59:17.355130,9728
12:59:17.355130,0
12:59:17.355130,62
12:59:17.355130,15360
12:59:17.355130,0
12:59:17.355130,48
12:59:17.355130,12288
12:59:17.355130,0
12:59:17.355130,36
12:59:17.865145,14
12:59:17.865145,1024
12:59:17.865145,0
12:59:17.865145,9
12:59:17.865145,3584
12:59:17.865145,0
12:59:17.865145,12
12:59:17.865145,1792
12:59:17.865145,0
12:59:17.865145,-24
12:59:17.865145,20735
12:59:17.865145,-1
12:59:17.865145,-316
12:59:17.865145,-15105
12:59:17.865145,-1
12:59:17.865145,714
12:59:17.865145,-15360
12:59:17.865145,5
12:59:17.865145,1339
12:59:17.865145,23296
12:59:17.865145,1
12:59:17.865145,-272
12:59:17.865145,-31745
12:59:17.865145,-1
12:59:17.865145,0
12:59:17.865145,-28160
12:59:17.865145,-1
12:59:17.865145,-125
12:59:17.865145,-21249
12:59:17.865145,-1
12:59:17.865145,-103
12:59:17.865145,-26881
12:59:17.865145,-1
12:59:17.865145,-84
12:59:17.865145,-19969
12:59:17.865145,-1
12:59:17.865145,-69
12:59:17.865145,-15617
12:59:17.865145,-1
12:59:17.865145,-57
12:59:17.865145,-12545
12:59:17.865145,-1
12:59:17.865145,-41
12:59:17.865145,-4609
12:59:17.865145,-1
12:59:17.865145,2
12:59:17.865145,4096
12:59:17.865145,0
12:59:17.865145,45
12:59:17.865145,17152
12:59:17.865145,0
12:59:17.865145,84
12:59:17.865145,27648
12:59:17.865145,0
12:59:17.865145,118
12:59:17.865145,28928
12:59:17.865145,0
12:59:17.865145,96
12:59:17.865145,18432
12:59:17.865145,0
12:59:17.865145,41
12:59:17.865145,0
12:59:17.865145,0
12:59:17.865145,-24
12:59:17.865145,-11265
12:59:17.865145,-1
12:59:17.865145,-69
12:59:17.865145,-19457
12:59:17.865145,-1
12:59:17.865145,-84
12:59:17.865145,-20737
12:59:17.865145,-1
12:59:17.865145,-77
12:59:17.865145,-19457
12:59:17.865145,-1
12:59:17.865145,-72
12:59:17.865145,-16897
12:59:17.865145,-1
12:59:17.865145,-65
12:59:17.865145,-16897
12:59:17.865145,-1
12:59:17.865145,-74
12:59:17.865145,-18177
12:59:17.865145,-1
12:59:17.865145,-69
12:59:17.865145,-18177
12:59:17.865145,-1
12:59:17.865145,-67
12:59:17.865145,-15105
12:59:17.865145,-1
12:59:17.865145,-57
12:59:17.865145,-13825
12:59:17.865145,-1
12:59:17.865145,-53
12:59:17.865145,-11265
12:59:17.865145,-1
12:59:17.865145,-45
12:59:17.865145,-12033
12:59:17.865145,-1
12:59:17.865145,-36
12:59:17.865145,-8193
12:59:17.865145,-1
12:59:17.865145,-33
12:59:17.865145,-9473
12:59:17.865145,-1
12:59:17.865145,-43
12:59:17.865145,-8961
12:59:17.865145,-1
12:59:17.865145,-16
12:59:18.405137,12
12:59:18.405137,6656
12:59:18.405137,0
12:59:18.405137,16
12:59:18.405137,3072
12:59:18.405137,0
12:59:18.405137,7
12:59:18.405137,512
12:59:18.405137,0
12:59:18.405137,7
12:59:18.405137,-1024
12:59:18.405137,-1
12:59:18.405137,-14
12:59:18.405137,-1537
12:59:18.405137,-1
12:59:18.405137,-4
12:59:18.405137,-5889
12:59:18.405137,-1
12:59:18.405137,-106
12:59:18.405137,-5121
12:59:18.405137,-2
12:59:18.405137,-318
12:59:18.405137,-28929
12:59:18.405137,0
12:59:18.405137,1015
12:59:18.405137,-9216
12:59:18.405137,5
12:59:18.405137,933
12:59:18.405137,-8448
12:59:18.405137,-1
12:59:18.405137,-304
12:59:18.405137,-23041
12:59:18.405137,-1
12:59:18.405137,-86
12:59:18.405137,20735
12:59:18.405137,-1
12:59:18.405137,-144
12:59:18.405137,32511
12:59:18.405137,-1
12:59:18.405137,-142
12:59:18.405137,-29953
12:59:18.405137,-1
12:59:18.405137,-106
12:59:18.405137,-27905
12:59:18.405137,-1
12:59:18.405137,-103
12:59:18.405137,-23041
12:59:18.405137,-1
12:59:18.405137,-86
12:59:18.405137,-19969
12:59:18.405137,-1
12:59:18.405137,-60
12:59:18.405137,-10753
12:59:18.405137,-1
12:59:18.405137,-28
12:59:18.405137,-257
12:59:18.405137,-1
12:59:18.405137,21
12:59:18.405137,11008
12:59:18.405137,0
12:59:18.405137,69
12:59:18.405137,20992
12:59:18.405137,0
12:59:18.405137,84
12:59:18.405137,18944
12:59:18.405137,0
12:59:18.405137,65
12:59:18.405137,11008
12:59:18.405137,0
12:59:18.405137,-4
12:59:18.405137,-10753
12:59:18.405137,-1
12:59:18.405137,-65
12:59:18.405137,-20737
12:59:18.405137,-1
12:59:18.405137,-89
12:59:18.405137,-26113
12:59:18.405137,-1
12:59:18.405137,-108
12:59:18.405137,-25601
12:59:18.405137,-1
12:59:18.405137,-101
12:59:18.405137,-25601
12:59:18.405137,-1
12:59:18.405137,-98
12:59:18.405137,-24321
12:59:18.405137,-1
12:59:18.405137,-94
12:59:18.405137,-24321
12:59:18.405137,-1
12:59:18.405137,-94
12:59:18.405137,-24321
12:59:18.405137,-1
12:59:18.405137,-98
12:59:18.405137,-20737
12:59:18.405137,-1
12:59:18.405137,-74
12:59:18.405137,-19457
12:59:18.405137,-1
12:59:18.405137,-72
12:59:18.405137,-18177
12:59:18.405137,-1
12:59:18.405137,-69
12:59:18.405137,-15617
12:59:18.405137,-1
12:59:18.405137,-57
12:59:18.405137,-12545
12:59:18.405137,-1
12:59:18.405137,-53
12:59:19.005132,-53
12:59:19.005132,-12545
12:59:19.005132,-1
12:59:19.005132,-50
12:59:19.005132,-7681
12:59:19.005132,-1
12:59:19.005132,-16
12:59:19.005132,-2049
12:59:19.005132,-1
12:59:19.005132,19
12:59:19.005132,9728
12:59:19.005132,0
12:59:19.005132,28
12:59:19.005132,3584
12:59:19.005132,0
12:59:19.005132,12
12:59:19.005132,1792
12:59:19.005132,0
12:59:19.005132,-9
12:59:19.005132,-4609
12:59:19.005132,-1
12:59:19.005132,-14
12:59:19.005132,-3841
12:59:19.005132,-1
12:59:19.005132,-16
12:59:19.005132,-2817
12:59:19.005132,-1
12:59:19.005132,-65
12:59:19.005132,4095
12:59:19.005132,-1
12:59:19.005132,-335
12:59:19.005132,14335
12:59:19.005132,0
12:59:19.005132,885
12:59:19.005132,-16640
12:59:19.005132,5
12:59:19.005132,1090
12:59:19.005132,30208
12:59:19.005132,0
12:59:19.005132,-289
12:59:19.005132,-26113
12:59:19.005132,-1
12:59:19.005132,-62
12:59:19.005132,25855
12:59:19.005132,-1
12:59:19.005132,-144
12:59:19.005132,-32257
12:59:19.005132,-1
12:59:19.005132,-130
12:59:19.005132,-24321
12:59:19.005132,-1
12:59:19.005132,-82
12:59:19.005132,-24321
12:59:19.005132,-1
12:59:19.005132,-86
12:59:19.005132,-17409
12:59:19.005132,-1
12:59:19.005132,-77
12:59:19.005132,-16385
12:59:19.005132,-1
12:59:19.005132,-41
12:59:19.005132,-6913
12:59:19.005132,-1
12:59:19.005132,-12
12:59:19.005132,2559
12:59:19.005132,0
12:59:19.005132,31
12:59:19.005132,14592
12:59:19.005132,0
12:59:19.005132,82
12:59:19.005132,25088
12:59:19.005132,0
12:59:19.005132,103
12:59:19.005132,26368
12:59:19.005132,0
12:59:19.005132,96
12:59:19.005132,16640
12:59:19.005132,0
12:59:19.005132,24
12:59:19.005132,-2304
12:59:19.005132,-1
12:59:19.005132,-31
12:59:19.005132,-13825
12:59:19.005132,-1
12:59:19.005132,-89
12:59:19.005132,-24833
12:59:19.005132,-1
12:59:19.005132,-79
12:59:19.005132,-17409
12:59:19.005132,-1
12:59:19.005132,-77
12:59:19.005132,-18689
12:59:19.005132,-1
12:59:19.005132,-60
12:59:19.005132,-14337
12:59:19.005132,-1
12:59:19.005132,-69
12:59:19.005132,-17409
12:59:19.005132,-1
12:59:19.005132,-72
12:59:19.005132,-20737
12:59:19.005132,-1
12:59:19.005132,-77
12:59:19.005132,-19969
12:59:19.005132,-1
12:59:19.005132,-84
12:59:19.005132,-15617
12:59:19.005132,-1
12:59:19.005132,-55
12:59:19.575133,-57
12:59:19.575133,-12545
12:59:19.575133,-1
12:59:19.575133,-45
12:59:19.575133,-10241
12:59:19.575133,-1
12:59:19.575133,-33
12:59:19.575133,-4609
12:59:19.575133,-1
12:59:19.575133,-12
12:59:19.575133,-2817
12:59:19.575133,-1
12:59:19.575133,7
12:59:19.575133,5376
12:59:19.575133,0
12:59:19.575133,12
12:59:19.575133,1792
12:59:19.575133,0
12:59:19.575133,4
12:59:19.575133,512
12:59:19.575133,0
12:59:19.575133,16
12:59:19.575133,12288
12:59:19.575133,0
12:59:19.575133,72
12:59:19.575133,15872
12:59:19.575133,0
12:59:19.575133,45
12:59:19.575133,11520
12:59:19.575133,0
12:59:19.575133,41
12:59:19.575133,6144
12:59:19.575133,0
12:59:19.575133,4
12:59:19.575133,512
12:59:19.575133,0
12:59:19.575133,9
12:59:19.575133,1024
12:59:19.575133,0
12:59:19.575133,0
12:59:19.575133,-9728
12:59:19.575133,-1
12:59:19.575133,-193
12:59:19.575133,-18177
12:59:19.575133,-2
12:59:19.575133,-53
12:59:19.575133,-1793
12:59:19.575133,2
12:59:19.575133,1493
12:59:19.575133,-3584
12:59:19.575133,4
12:59:19.575133,265
12:59:19.575133,-7168
12:59:19.575133,-2
12:59:19.575133,-130
12:59:19.575133,-11265
12:59:19.575133,-1
12:59:19.575133,-152
12:59:19.575133,29439
12:59:19.575133,-1
12:59:19.575133,-106
12:59:19.575133,-31745
12:59:19.575133,-1
12:59:19.575133,-108
12:59:19.575133,-23041
12:59:19.575133,-1
12:59:19.575133,-96
12:59:19.575133,-19457
12:59:19.575133,-1
12:59:19.575133,-62
12:59:19.575133,-13825
12:59:19.575133,-1
12:59:19.575133,-48
12:59:19.575133,-9473
12:59:19.575133,-1
12:59:19.575133,-21
12:59:19.575133,-769
12:59:19.575133,-1
12:59:19.575133,14
12:59:19.575133,9216
12:59:19.575133,0
12:59:19.575133,65
12:59:19.575133,25856
12:59:19.575133,0
12:59:19.575133,110
12:59:19.575133,27136
12:59:19.575133,0
12:59:19.575133,108
12:59:19.575133,27648
12:59:19.575133,0
12:59:19.575133,91
12:59:19.575133,12800
12:59:19.575133,0
12:59:19.575133,9
12:59:19.575133,-3072
12:59:19.575133,-1
12:59:19.575133,-38
12:59:19.575133,-15105
12:59:19.575133,-1
12:59:19.575133,-67
12:59:19.575133,-18689
12:59:19.575133,-1
12:59:19.575133,-79
12:59:19.575133,-19969
12:59:19.575133,-1
12:59:19.575133,-72
12:59:19.575133,-15105
12:59:19.575133,-1
12:59:19.575133,-55
12:59:20.115131,-50
12:59:20.115131,-13825
12:59:20.115131,-1
12:59:20.115131,-57
12:59:20.115131,-13313
12:59:20.115131,-1
12:59:20.115131,-50
12:59:20.115131,-12033
12:59:20.115131,-1
12:59:20.115131,-53
12:59:20.115131,-13825
12:59:20.115131,-1
12:59:20.115131,-41
12:59:20.115131,-5121
12:59:20.115131,-1
12:59:20.115131,-9
12:59:20.115131,255
12:59:20.115131,0
12:59:20.115131,7
12:59:20.115131,4096
12:59:20.115131,0
12:59:20.115131,12
12:59:20.115131,2304
12:59:20.115131,0
12:59:20.115131,19
12:59:20.115131,4096
12:59:20.115131,0
12:59:20.115131,12
12:59:20.115131,4096
12:59:20.115131,0
12:59:20.115131,16
12:59:20.115131,3072
12:59:20.115131,0
12:59:20.115131,2
12:59:20.115131,1792
12:59:20.115131,0
12:59:20.115131,19
12:59:20.115131,9216
12:59:20.115131,0
12:59:20.115131,62
12:59:20.115131,18944
12:59:20.115131,0
12:59:20.115131,60
12:59:20.115131,12800
12:59:20.115131,0
12:59:20.115131,45
12:59:20.115131,11008
12:59:20.115131,0
12:59:20.115131,31
12:59:20.115131,5376
12:59:20.115131,0
12:59:20.115131,26
12:59:20.115131,7936
12:59:20.115131,0
12:59:20.115131,31
12:59:20.115131,3072
12:59:20.115131,0
12:59:20.115131,-98
12:59:20.115131,-5633
12:59:20.115131,-2
12:59:20.115131,-219
12:59:20.115131,32767
12:59:20.115131,1
12:59:20.115131,1274
12:59:20.115131,1280
12:59:20.115131,6
12:59:20.115131,740
12:59:20.115131,26624
12:59:20.115131,-1
12:59:20.115131,-226
12:59:20.115131,-5121
12:59:20.115131,-1
12:59:20.115131,-77
12:59:20.115131,30719
12:59:20.115131,-1
12:59:20.115131,-101
12:59:20.115131,-25601
12:59:20.115131,-1
12:59:20.115131,-101
12:59:20.115131,-19457
12:59:20.115131,-1
12:59:20.115131,-69
12:59:20.115131,-16897
12:59:20.115131,-1
12:59:20.115131,-62
12:59:20.115131,-13313
12:59:20.115131,-1
12:59:20.115131,-43
12:59:20.115131,-10241
12:59:20.115131,-1
12:59:20.115131,-31
12:59:20.115131,-2049
12:59:20.115131,-1
12:59:20.115131,19
12:59:20.115131,10496
12:59:20.115131,0
12:59:20.115131,65
12:59:20.115131,27136
12:59:20.115131,0
12:59:20.115131,123
12:59:20.115131,-32256
12:59:20.115131,0
12:59:20.115131,139
12:59:20.115131,32000
12:59:20.115131,0
12:59:20.115131,106
12:59:20.115131,22016
12:59:20.115131,0
12:59:20.115131,41
12:59:20.685130,2
12:59:20.685130,-4864
12:59:20.685130,-1
12:59:20.685130,-38
12:59:20.685130,-13825
12:59:20.685130,-1
12:59:20.685130,-62
12:59:20.685130,-15105
12:59:20.685130,-1
12:59:20.685130,-50
12:59:20.685130,-9473
12:59:20.685130,-1
12:59:20.685130,-28
12:59:20.685130,-8193
12:59:20.685130,-1
12:59:20.685130,-38
12:59:20.685130,-10241
12:59:20.685130,-1
12:59:20.685130,-48
12:59:20.685130,-10753
12:59:20.685130,-1
12:59:20.685130,-38
12:59:20.685130,-9473
12:59:20.685130,-1
12:59:20.685130,-33
12:59:20.685130,-6401
12:59:20.685130,-1
12:59:20.685130,-19
12:59:20.685130,-3841
12:59:20.685130,-1
12:59:20.685130,-19
12:59:20.685130,-2049
12:59:20.685130,-1
12:59:20.685130,0
12:59:20.685130,512
12:59:20.685130,0
12:59:20.685130,4
12:59:20.685130,0
12:59:20.685130,0
12:59:20.685130,7
12:59:20.685130,3584
12:59:20.685130,0
12:59:20.685130,7
12:59:20.685130,1792
12:59:20.685130,0
12:59:20.685130,2
12:59:20.685130,-512
12:59:20.685130,-1
12:59:20.685130,-4
12:59:20.685130,-769
12:59:20.685130,-1
12:59:20.685130,0
12:59:20.685130,3072
12:59:20.685130,0
12:59:20.685130,38
12:59:20.685130,15872
12:59:20.685130,0
12:59:20.685130,55
12:59:20.685130,11520
12:59:20.685130,0
12:59:20.685130,33
12:59:20.685130,5376
12:59:20.685130,0
12:59:20.685130,14
12:59:20.685130,1024
12:59:20.685130,0
12:59:20.685130,9
12:59:20.685130,3584
12:59:20.685130,0
12:59:20.685130,4
12:59:20.685130,0
12:59:20.685130,0
12:59:20.685130,-67
12:59:20.685130,1791
12:59:20.685130,-1
12:59:20.685130,-316
12:59:20.685130,31743
12:59:20.685130,0
12:59:20.685130,1006
12:59:20.685130,6400
12:59:20.685130,6
12:59:20.685130,1044
12:59:20.685130,9216
12:59:20.685130,0
12:59:20.685130,-277
12:59:20.685130,-13825
12:59:20.685130,-1
12:59:20.685130,-50
12:59:20.685130,27647
12:59:20.685130,-1
12:59:20.685130,-110
12:59:20.685130,-21761
12:59:20.685130,-1
12:59:20.685130,-110
12:59:20.685130,-23809
12:59:20.685130,-1
12:59:20.685130,-74
12:59:20.685130,-19457
12:59:20.685130,-1
12:59:20.685130,-69
12:59:20.685130,-14337
12:59:20.685130,-1
12:59:20.685130,-50
12:59:20.685130,-12033
12:59:20.685130,-1
12:59:20.685130,-28
12:59:20.685130,-3329
12:59:20.685130,-1
12:59:20.685130,-7
12:59:21.255122,24
12:59:21.255122,13568
12:59:21.255122,0
12:59:21.255122,74
12:59:21.255122,26368
12:59:21.255122,0
12:59:21.255122,120
12:59:21.255122,32000
12:59:21.255122,0
12:59:21.255122,123
12:59:21.255122,30720
12:59:21.255122,0
12:59:21.255122,113
12:59:21.255122,19712
12:59:21.255122,0
12:59:21.255122,28
12:59:21.255122,0
12:59:21.255122,0
12:59:21.255122,-16
12:59:21.255122,-8961
12:59:21.255122,-1
12:59:21.255122,-45
12:59:21.255122,-10241
12:59:21.255122,-1
12:59:21.255122,-43
12:59:21.255122,-13825
12:59:21.255122,-1
12:59:21.255122,-50
12:59:21.255122,-8961
12:59:21.255122,-1
12:59:21.255122,-31
12:59:21.255122,-8961
12:59:21.255122,-1
12:59:21.255122,-43
12:59:21.255122,-10753
12:59:21.255122,-1
12:59:21.255122,-43
12:59:21.255122,-12033
12:59:21.255122,-1
12:59:21.255122,-43
12:59:21.255122,-10241
12:59:21.255122,-1
12:59:21.255122,-41
12:59:21.255122,-8193
12:59:21.255122,-1
12:59:21.255122,-31
12:59:21.255122,-6913
12:59:21.255122,-1
12:59:21.255122,-19
12:59:21.255122,-4609
12:59:21.255122,-1
12:59:21.255122,-14
12:59:21.255122,-769
12:59:21.255122,-1
12:59:21.255122,-2
12:59:21.255122,-3329
12:59:21.255122,-1
12:59:21.255122,-14
12:59:21.255122,767
12:59:21.255122,0
12:59:21.255122,-2
12:59:21.255122,-2049
12:59:21.255122,-1
12:59:21.255122,0
12:59:21.255122,0
12:59:21.255122,0
12:59:21.255122,0
12:59:21.255122,0
12:59:21.255122,0
12:59:21.255122,-9
12:59:21.255122,-2817
12:59:21.255122,-1
12:59:21.255122,0
12:59:21.255122,5376
12:59:21.255122,0
12:59:21.255122,45
12:59:21.255122,14080
12:59:21.255122,0
12:59:21.255122,53
12:59:21.255122,11520
12:59:21.255122,0
12:59:21.255122,43
12:59:21.255122,9728
12:59:21.255122,0
12:59:21.255122,16
12:59:21.255122,3072
12:59:21.255122,0
12:59:21.255122,19
12:59:21.255122,3584
12:59:21.255122,0
12:59:21.255122,14
12:59:21.255122,2304
12:59:21.255122,0
12:59:21.255122,-74
12:59:21.255122,-1537
12:59:21.255122,-2
12:59:21.255122,-279
12:59:21.255122,-2305
12:59:21.255122,0
12:59:21.255122,1112
12:59:21.255122,-8448
12:59:21.255122,5
12:59:21.255122,863
12:59:21.255122,-16640
12:59:21.255122,-1
12:59:21.255122,-253
12:59:21.255122,-9473
12:59:21.255122,-1
12:59:21.255122,-50
12:59:21.795124,-125
12:59:21.795124,-24833
12:59:21.795124,-1
12:59:21.795124,-86
12:59:21.795124,-24833
12:59:21.795124,-1
12:59:21.795124,-89
12:59:21.795124,-16897
12:59:21.795124,-1
12:59:21.795124,-57
12:59:21.795124,-14337
12:59:21.795124,-1
12:59:21.795124,-41
12:59:21.795124,-3841
12:59:21.795124,-1
12:59:21.795124,4
12:59:21.795124,1792
12:59:21.795124,0
12:59:21.795124,14
12:59:21.795124,10496
12:59:21.795124,0
12:59:21.795124,60
12:59:21.795124,20224
12:59:21.795124,0
12:59:21.795124,103
12:59:21.795124,30720
12:59:21.795124,0
12:59:21.795124,132
12:59:21.795124,-30464
12:59:21.795124,0
12:59:21.795124,142
12:59:21.795124,-30464
12:59:21.795124,0
12:59:21.795124,108
12:59:21.795124,17664
12:59:21.795124,0
12:59:21.795124,38
12:59:21.795124,3584
12:59:21.795124,0
12:59:21.795124,-2
12:59:21.795124,-5889
12:59:21.795124,-1
12:59:21.795124,-31
12:59:21.795124,-8193
12:59:21.795124,-1
12:59:21.795124,-43
12:59:21.795124,-11265
12:59:21.795124,-1
12:59:21.795124,-38
12:59:21.795124,-9473
12:59:21.795124,-1
12:59:21.795124,-36
12:59:21.795124,-10753
12:59:21.795124,-1
12:59:21.795124,-48
12:59:21.795124,-12033
12:59:21.795124,-1
12:59:21.795124,-45
12:59:21.795124,-10241
12:59:21.795124,-1
12:59:21.795124,-53
12:59:21.795124,-14337
12:59:21.795124,-1
12:59:21.795124,-43
12:59:21.795124,-8193
12:59:21.795124,-1
12:59:21.795124,-31
12:59:21.795124,-6913
12:59:21.795124,-1
12:59:21.795124,-24
12:59:21.795124,-3841
12:59:21.795124,-1
12:59:21.795124,-16
12:59:21.795124,-3329
12:59:21.795124,-1
12:59:21.795124,-14
12:59:21.795124,-3329
12:59:21.795124,-1
12:59:21.795124,-4
12:59:21.795124,-2817
12:59:21.795124,-1
12:59:21.795124,-19
12:59:21.795124,-3329
12:59:21.795124,-1
12:59:21.795124,-14
12:59:21.795124,-2817
12:59:21.795124,-1
12:59:21.795124,-12
12:59:21.795124,-3329
12:59:21.795124,-1
12:59:21.795124,-14
12:59:21.795124,-3841
12:59:21.795124,-1
12:59:21.795124,0
12:59:21.795124,7936
12:59:21.795124,0
12:59:21.795124,43
12:59:21.795124,11520
12:59:21.795124,0
12:59:21.795124,36
12:59:21.795124,6656
12:59:21.795124,0
12:59:21.795124,21
12:59:21.795124,2304
12:59:21.795124,0
12:59:21.795124,-2
12:59:21.795124,-257
12:59:21.795124,-1
12:59:21.795124,14
12:59:22.395132,24
12:59:22.395132,1024
12:59:22.395132,0
12:59:22.395132,-77
12:59:22.395132,1791
12:59:22.395132,-1
12:59:22.395132,-270
12:59:22.395132,-7937
12:59:22.395132,0
12:59:22.395132,1083
12:59:22.395132,-7936
12:59:22.395132,5
12:59:22.395132,885
12:59:22.395132,-11008
12:59:22.395132,-1
12:59:22.395132,-226
12:59:22.395132,-2817
12:59:22.395132,-1
12:59:22.395132,-33
12:59:22.395132,-26881
12:59:22.395132,-1
12:59:22.395132,-72
12:59:22.395132,-15105
12:59:22.395132,-1
12:59:22.395132,-82
12:59:22.395132,-17409
12:59:22.395132,-1
12:59:22.395132,-53
12:59:22.395132,-13825
12:59:22.395132,-1
12:59:22.395132,-50
12:59:22.395132,-8193
12:59:22.395132,-1
12:59:22.395132,-26
12:59:22.395132,-4609
12:59:22.395132,-1
12:59:22.395132,-9
12:59:22.395132,1279
12:59:22.395132,0
12:59:22.395132,28
12:59:22.395132,12288
12:59:22.395132,0
12:59:22.395132,69
12:59:22.395132,24576
12:59:22.395132,0
12:59:22.395132,115
12:59:22.395132,-30464
12:59:22.395132,0
12:59:22.395132,149
12:59:22.395132,-27904
12:59:22.395132,0
12:59:22.395132,135
12:59:22.395132,27136
12:59:22.395132,0
12:59:22.395132,82
12:59:22.395132,12288
12:59:22.395132,0
12:59:22.395132,14
12:59:22.395132,-1024
12:59:22.395132,-1
12:59:22.395132,-16
12:59:22.395132,-4609
12:59:22.395132,-1
12:59:22.395132,-24
12:59:22.395132,-7681
12:59:22.395132,-1
12:59:22.395132,-28
12:59:22.395132,-6401
12:59:22.395132,-1
12:59:22.395132,-28
12:59:22.395132,-7681
12:59:22.395132,-1
12:59:22.395132,-33
12:59:22.395132,-8193
12:59:22.395132,-1
12:59:22.395132,-36
12:59:22.395132,-9473
12:59:22.395132,-1
12:59:22.395132,-33
12:59:22.395132,-7681
12:59:22.395132,-1
12:59:22.395132,-28
12:59:22.395132,-6401
12:59:22.395132,-1
12:59:22.395132,-21
12:59:22.395132,-1537
12:59:22.395132,-1
12:59:22.395132,-7
12:59:22.395132,-2049
12:59:22.395132,-1
12:59:22.395132,-2
12:59:22.395132,767
12:59:22.395132,0
12:59:22.395132,4
12:59:22.395132,1024
12:59:22.395132,0
12:59:22.395132,0
12:59:22.395132,512
12:59:22.395132,0
12:59:22.395132,-2
12:59:22.395132,-769
12:59:22.395132,-1
12:59:22.395132,-2
12:59:22.395132,-2817
12:59:22.395132,-1
12:59:22.395132,-16
12:59:22.395132,-1537
12:59:22.395132,-1
12:59:22.395132,26
12:59:22.935691,55
12:59:22.935691,12800
12:59:22.935691,0
12:59:22.935691,41
12:59:22.935691,10496
12:59:22.935691,0
12:59:22.935691,28
12:59:22.935691,3072
12:59:22.935691,0
12:59:22.935691,2
12:59:22.935691,512
12:59:22.935691,0
12:59:22.935691,7
12:59:22.935691,512
12:59:22.935691,0
12:59:22.935691,9
12:59:22.935691,-3072
12:59:22.935691,-1
12:59:22.935691,-144
12:59:22.935691,-12033
12:59:22.935691,-2
12:59:22.935691,-118
12:59:22.935691,24831
12:59:22.935691,2
12:59:22.935691,1387
12:59:22.935691,14336
12:59:22.935691,5
12:59:22.935691,415
12:59:22.935691,3328
12:59:22.935691,-1
12:59:22.935691,-144
12:59:22.935691,-257
12:59:22.935691,-1
12:59:22.935691,-96
12:59:22.935691,-31233
12:59:22.935691,-1
12:59:22.935691,-89
12:59:22.935691,-24321
12:59:22.935691,-1
12:59:22.935691,-96
12:59:22.935691,-21249
12:59:22.935691,-1
12:59:22.935691,-77
12:59:22.935691,-18177
12:59:22.935691,-1
12:59:22.935691,-62
12:59:22.935691,-11265
12:59:22.935691,-1
12:59:22.935691,-41
12:59:22.935691,-8961
12:59:22.935691,-1
12:59:22.935691,-24
12:59:22.935691,-2049
12:59:22.935691,-1
12:59:22.935691,21
12:59:22.935691,11520
12:59:22.935691,0
12:59:22.935691,62
12:59:22.935691,23296
12:59:22.935691,0
12:59:22.935691,113
12:59:22.935691,30208
12:59:22.935691,0
12:59:22.935691,115
12:59:22.935691,29440
12:59:22.935691,0
12:59:22.935691,108
12:59:22.935691,17664
12:59:22.935691,0
12:59:22.935691,26
12:59:22.935691,512
12:59:22.935691,0
12:59:22.935691,-19
12:59:22.935691,-9473
12:59:22.935691,-1
12:59:22.935691,-50
12:59:22.935691,-14337
12:59:22.935691,-1
12:59:22.935691,-60
12:59:22.935691,-16385
12:59:22.935691,-1
12:59:22.935691,-62
12:59:22.935691,-14337
12:59:22.935691,-1
12:59:22.935691,-65
12:59:22.935691,-16385
12:59:22.935691,-1
12:59:22.935691,-57
12:59:22.935691,-14337
12:59:22.935691,-1
12:59:22.935691,-65
12:59:22.935691,-15617
12:59:22.935691,-1
12:59:22.935691,-48
12:59:22.935691,-13825
12:59:22.935691,-1
12:59:22.935691,-65
12:59:22.935691,-12545
12:59:22.935691,-1
12:59:22.935691,-48
12:59:22.935691,-10753
12:59:22.935691,-1
12:59:22.935691,-31
12:59:22.935691,-7681
12:59:22.935691,-1
12:59:22.935691,-33
12:59:22.935691,-6913
12:59:22.935691,-1
12:59:22.935691,-21
12:59:23.475978,-28
12:59:23.475978,-7681
12:59:23.475978,-1
12:59:23.475978,-16
12:59:23.475978,-4609
12:59:23.475978,-1
12:59:23.475978,-38
12:59:23.475978,-9473
12:59:23.475978,-1
12:59:23.475978,-33
12:59:23.475978,-10241
12:59:23.475978,-1
12:59:23.475978,-19
12:59:23.475978,8191
12:59:23.475978,0
12:59:23.475978,60
12:59:23.475978,11520
12:59:23.475978,0
12:59:23.475978,36
12:59:23.475978,9728
12:59:23.475978,0
12:59:23.475978,26
12:59:23.475978,2304
12:59:23.475978,0
12:59:23.475978,2
12:59:23.475978,512
12:59:23.475978,0
12:59:23.475978,2
12:59:23.475978,-1792
12:59:23.475978,-1
12:59:23.475978,-19
12:59:23.475978,-20737
12:59:23.475978,-1
12:59:23.475978,-253
12:59:23.475978,-12545
12:59:23.475978,-2
12:59:23.475978,135
12:59:23.475978,-7680
12:59:23.475978,3
12:59:23.475978,1498
12:59:23.475978,-17152
12:59:23.475978,3
12:59:23.475978,-2
12:59:23.475978,-5633
12:59:23.475978,-2
12:59:23.475978,-69
12:59:23.475978,-13313
12:59:23.475978,-1
12:59:23.475978,-144
12:59:23.475978,-31745
12:59:23.475978,-1
12:59:23.475978,-101
12:59:23.475978,-29185
12:59:23.475978,-1
12:59:23.475978,-101
12:59:23.475978,-21761
12:59:23.475978,-1
12:59:23.475978,-91
12:59:23.475978,-21761
12:59:23.475978,-1
12:59:23.475978,-77
12:59:23.475978,-15617
12:59:23.475978,-1
12:59:23.475978,-48
12:59:23.475978,-9473
12:59:23.475978,-1
12:59:23.475978,-26
12:59:23.475978,-2817
12:59:23.475978,-1
12:59:23.475978,12
12:59:23.475978,11008
12:59:23.475978,0
12:59:23.475978,72
12:59:23.475978,24064
12:59:23.475978,0
12:59:23.475978,101
12:59:23.475978,29440
12:59:23.475978,0
12:59:23.475978,125
12:59:23.475978,27136
12:59:23.475978,0
12:59:23.475978,94
12:59:23.475978,18432
12:59:23.475978,0
12:59:23.475978,24
12:59:23.475978,-3072
12:59:23.475978,-1
12:59:23.475978,-33
12:59:23.475978,-12033
12:59:23.475978,-1
12:59:23.475978,-55
12:59:23.475978,-15617
12:59:23.475978,-1
12:59:23.475978,-69
12:59:23.475978,-18689
12:59:23.475978,-1
12:59:23.475978,-65
12:59:23.475978,-13825
12:59:23.475978,-1
12:59:23.475978,-62
12:59:23.475978,-15105
12:59:23.475978,-1
12:59:23.475978,-55
12:59:23.475978,-15617
12:59:23.475978,-1
12:59:23.475978,-60
12:59:23.475978,-14337
12:59:23.475978,-1
12:59:23.475978,-62
12:59:24.045131,-65
12:59:24.045131,-16897
12:59:24.045131,-1
12:59:24.045131,-62
12:59:24.045131,-12033
12:59:24.045131,-1
12:59:24.045131,-43
12:59:24.045131,-8961
12:59:24.045131,-1
12:59:24.045131,-21
12:59:24.045131,-769
12:59:24.045131,-1
12:59:24.045131,-2
12:59:24.045131,-2049
12:59:24.045131,-1
12:59:24.045131,-9
12:59:24.045131,-2049
12:59:24.045131,-1
12:59:24.045131,-14
12:59:24.045131,-4609
12:59:24.045131,-1
12:59:24.045131,-24
12:59:24.045131,-5121
12:59:24.045131,-1
12:59:24.045131,-12
12:59:24.045131,3327
12:59:24.045131,0
12:59:24.045131,41
12:59:24.045131,11520
12:59:24.045131,0
12:59:24.045131,36
12:59:24.045131,6656
12:59:24.045131,0
12:59:24.045131,12
12:59:24.045131,1792
12:59:24.045131,0
12:59:24.045131,0
12:59:24.045131,-3584
12:59:24.045131,-1
12:59:24.045131,-16
12:59:24.045131,-1537
12:59:24.045131,-1
12:59:24.045131,-2
12:59:24.045131,-7681
12:59:24.045131,-1
12:59:24.045131,-164
12:59:24.045131,-18689
12:59:24.045131,-2
12:59:24.045131,-193
12:59:24.045131,-3585
12:59:24.045131,1
12:59:24.045131,1324
12:59:24.045131,29952
12:59:24.045131,5
12:59:24.045131,523
12:59:24.045131,5632
12:59:24.045131,-1
12:59:24.045131,-214
12:59:24.045131,-12545
12:59:24.045131,-1
12:59:24.045131,-120
12:59:24.045131,26879
12:59:24.045131,-1
12:59:24.045131,-110
12:59:24.045131,-28673
12:59:24.045131,-1
12:59:24.045131,-120
12:59:24.045131,-27905
12:59:24.045131,-1
12:59:24.045131,-96
12:59:24.045131,-21249
12:59:24.045131,-1
12:59:24.045131,-82
12:59:24.045131,-19969
12:59:24.045131,-1
12:59:24.045131,-74
12:59:24.045131,-14337
12:59:24.045131,-1
12:59:24.045131,-31
12:59:24.045131,-4609
12:59:24.045131,-1
12:59:24.045131,-4
12:59:24.045131,5119
12:59:24.045131,0
12:59:24.045131,43
12:59:24.045131,18432
12:59:24.045131,0
12:59:24.045131,94
12:59:24.045131,28160
12:59:24.045131,0
12:59:24.045131,113
12:59:24.045131,27648
12:59:24.045131,0
12:59:24.045131,101
12:59:24.045131,18432
12:59:24.045131,0
12:59:24.045131,36
12:59:24.045131,1792
12:59:24.045131,0
12:59:24.045131,-16
12:59:24.045131,-5121
12:59:24.045131,-1
12:59:24.045131,-33
12:59:24.045131,-12033
12:59:24.045131,-1
12:59:24.045131,-45
12:59:24.045131,-11265
12:59:24.045131,-1
12:59:24.045131,-43
12:59:24.585331,-31
12:59:24.585331,-8961
12:59:24.585331,-1
12:59:24.585331,-43
12:59:24.585331,-12033
12:59:24.585331,-1
12:59:24.585331,-48
12:59:24.585331,-10753
12:59:24.585331,-1
12:59:24.585331,-43
12:59:24.585331,-6401
12:59:24.585331,-1
12:59:24.585331,4
12:59:24.585331,2304
12:59:24.585331,0
12:59:24.585331,2
12:59:24.585331,512
12:59:24.585331,0
12:59:24.585331,12
12:59:24.585331,3584
12:59:24.585331,0
12:59:24.585331,14
12:59:24.585331,5376
12:59:24.585331,0
12:59:24.585331,19
12:59:24.585331,6656
12:59:24.585331,0
12:59:24.585331,41
12:59:24.585331,9728
12:59:24.585331,0
12:59:24.585331,31
12:59:24.585331,7168
12:59:24.585331,0
12:59:24.585331,26
12:59:24.585331,6656
12:59:24.585331,0
12:59:24.585331,26
12:59:24.585331,10496
12:59:24.585331,0
12:59:24.585331,72
12:59:24.585331,23296
12:59:24.585331,0
12:59:24.585331,96
12:59:24.585331,22784
12:59:24.585331,0
12:59:24.585331,89
12:59:24.585331,22784
12:59:24.585331,0
12:59:24.585331,72
12:59:24.585331,14592
12:59:24.585331,0
12:59:24.585331,60
12:59:24.585331,15360
12:59:24.585331,0
12:59:24.585331,60
12:59:24.585331,14592
12:59:24.585331,0
12:59:24.585331,38
12:59:24.585331,-19712
12:59:24.585331,-1
12:59:24.585331,-255
12:59:24.585331,31231
12:59:24.585331,-1
12:59:24.585331,535
12:59:24.585331,21248
12:59:24.585331,5
12:59:24.585331,1474
12:59:24.585331,27648
12:59:24.585331,2
12:59:24.585331,-147
12:59:24.585331,29439
12:59:24.585331,-1
12:59:24.585331,31
12:59:24.585331,-6144
12:59:24.585331,-1
12:59:24.585331,-67
12:59:24.585331,-7681
12:59:24.585331,-1
12:59:24.585331,-28
12:59:24.585331,-10241
12:59:24.585331,-1
12:59:24.585331,-19
12:59:24.585331,-257
12:59:24.585331,-1
12:59:24.585331,-2
12:59:24.585331,2559
12:59:24.585331,0
12:59:24.585331,21
12:59:24.585331,7936
12:59:24.585331,0
12:59:24.585331,38
12:59:24.585331,12288
12:59:24.585331,0
12:59:24.585331,74
12:59:24.585331,25088
12:59:24.585331,0
12:59:24.585331,110
12:59:24.585331,-30976
12:59:24.585331,0
12:59:24.585331,166
12:59:24.585331,-18176
12:59:24.585331,0
12:59:24.585331,185
12:59:24.585331,-15104
12:59:24.585331,0
12:59:24.585331,212
12:59:24.585331,-16896
12:59:24.585331,0
12:59:24.585331,166
12:59:25.155119,144
12:59:25.155119,27648
12:59:25.155119,0
12:59:25.155119,89
12:59:25.155119,20224
12:59:25.155119,0
12:59:25.155119,77
12:59:25.155119,22784
12:59:25.155119,0
12:59:25.155119,91
12:59:25.155119,22016
12:59:25.155119,0
12:59:25.155119,86
12:59:25.155119,22784
12:59:25.155119,0
12:59:25.155119,82
12:59:25.155119,17664
12:59:25.155119,0
12:59:25.155119,77
12:59:25.155119,20992
12:59:25.155119,0
12:59:25.155119,67
12:59:25.155119,18432
12:59:25.155119,0
12:59:25.155119,84
12:59:25.155119,20992
12:59:25.155119,0
12:59:25.155119,79
12:59:25.155119,19712
12:59:25.155119,0
12:59:25.155119,79
12:59:25.155119,18944
12:59:25.155119,0
12:59:25.155119,74
12:59:25.155119,21504
12:59:25.155119,0
12:59:25.155119,74
12:59:25.155119,17152
12:59:25.155119,0
12:59:25.155119,65
12:59:25.155119,14080
12:59:25.155119,0
12:59:25.155119,50
12:59:25.155119,9728
12:59:25.155119,0
12:59:25.155119,26
12:59:25.155119,9216
12:59:25.155119,0
12:59:25.155119,41
12:59:25.155119,13568
12:59:25.155119,0
12:59:25.155119,77
12:59:25.155119,22016
12:59:25.155119,0
12:59:25.155119,69
12:59:25.155119,12288
12:59:25.155119,0
12:59:25.155119,38
12:59:25.155119,3072
12:59:25.155119,0
12:59:25.155119,-19
12:59:25.155119,-1537
12:59:25.155119,-1
12:59:25.155119,2
12:59:25.155119,-4096
12:59:25.155119,-1
12:59:25.155119,-26
12:59:25.155119,-17409
12:59:25.155119,-1
12:59:25.155119,-224
12:59:25.155119,-24833
12:59:25.155119,-2
12:59:25.155119,-89
12:59:25.155119,-29185
12:59:25.155119,2
12:59:25.155119,1269
12:59:25.155119,-3328
12:59:25.155119,3
12:59:25.155119,115
12:59:25.155119,-20224
12:59:25.155119,-2
12:59:25.155119,-183
12:59:25.155119,-31745
12:59:25.155119,-1
12:59:25.155119,-205
12:59:25.155119,16383
12:59:25.155119,-1
12:59:25.155119,-180
12:59:25.155119,14079
12:59:25.155119,-1
12:59:25.155119,-193
12:59:25.155119,17151
12:59:25.155119,-1
12:59:25.155119,-197
12:59:25.155119,18431
12:59:25.155119,-1
12:59:25.155119,-171
12:59:25.155119,22015
12:59:25.155119,-1
12:59:25.155119,-178
12:59:25.155119,23807
12:59:25.155119,-1
12:59:25.155119,-139
12:59:25.155119,-32257
12:59:25.155119,-1
12:59:25.155119,-115
12:59:25.155119,-23041
12:59:25.155119,-1
12:59:25.155119,-69
12:59:25.755134,-48
12:59:25.755134,-5121
12:59:25.755134,-1
12:59:25.755134,-7
12:59:25.755134,-5121
12:59:25.755134,-1
12:59:25.755134,-43
12:59:25.755134,-13825
12:59:25.755134,-1
12:59:25.755134,-79
12:59:25.755134,-29185
12:59:25.755134,-1
12:59:25.755134,-142
12:59:25.755134,30207
12:59:25.755134,-1
12:59:25.755134,-147
12:59:25.755134,22015
12:59:25.755134,-1
12:59:25.755134,-183
12:59:25.755134,20223
12:59:25.755134,-1
12:59:25.755134,-173
12:59:25.755134,22015
12:59:25.755134,-1
12:59:25.755134,-173
12:59:25.755134,22015
12:59:25.755134,-1
12:59:25.755134,-171
12:59:25.755134,18943
12:59:25.755134,-1
12:59:25.755134,-185
12:59:25.755134,20735
12:59:25.755134,-1
12:59:25.755134,-178
12:59:25.755134,18943
12:59:25.755134,-1
12:59:25.755134,-176
12:59:25.755134,20735
12:59:25.755134,-1
12:59:25.755134,-168
12:59:25.755134,26879
12:59:25.755134,-1
12:59:25.755134,-147
12:59:25.755134,26367
12:59:25.755134,-1
12:59:25.755134,-147
12:59:25.755134,30207
12:59:25.755134,-1
12:59:25.755134,-152
12:59:25.755134,25855
12:59:25.755134,-1
12:59:25.755134,-149
12:59:25.755134,26879
12:59:25.755134,-1
12:59:25.755134,-137
12:59:25.755134,-24321
12:59:25.755134,-1
12:59:25.755134,-94
12:59:25.755134,-31745
12:59:25.755134,-1
12:59:25.755134,-115
12:59:25.755134,-27905
12:59:25.755134,-1
12:59:25.755134,-142
12:59:25.755134,22783
12:59:25.755134,-1
12:59:25.755134,-164
12:59:25.755134,30207
12:59:25.755134,-1
12:59:25.755134,-147
12:59:25.755134,23807
12:59:25.755134,-1
12:59:25.755134,-183
12:59:25.755134,-14337
12:59:25.755134,-2
12:59:25.755134,-477
12:59:25.755134,-12033
12:59:25.755134,-2
12:59:25.755134,364
12:59:25.755134,11264
12:59:25.755134,4
12:59:25.755134,1018
12:59:25.755134,-8192
12:59:25.755134,0
12:59:25.755134,-316
12:59:25.755134,4095
12:59:25.755134,-1
12:59:25.755134,-159
12:59:25.755134,2815
12:59:25.755134,-1
12:59:25.755134,-260
12:59:25.755134,5887
12:59:25.755134,-1
12:59:25.755134,-246
12:59:25.755134,3583
12:59:25.755134,-1
12:59:25.755134,-224
12:59:25.755134,9215
12:59:25.755134,-1
12:59:25.755134,-221
12:59:25.755134,9727
12:59:25.755134,-1
12:59:25.755134,-212
12:59:25.755134,15359
12:59:25.755134,-1
12:59:25.755134,-180
12:59:25.755134,22015
12:59:25.755134,-1
12:59:25.755134,-154
12:59:26.295603,-125
12:59:26.295603,-24321
12:59:26.295603,-1
12:59:26.295603,-67
12:59:26.295603,-10753
12:59:26.295603,-1
12:59:26.295603,-28
12:59:26.295603,-5121
12:59:26.295603,-1
12:59:26.295603,-19
12:59:26.295603,-5889
12:59:26.295603,-1
12:59:26.295603,-38
12:59:26.295603,-17409
12:59:26.295603,-1
12:59:26.295603,-94
12:59:26.295603,-24833
12:59:26.295603,-1
12:59:26.295603,-103
12:59:26.295603,-29953
12:59:26.295603,-1
12:59:26.295603,-130
12:59:26.295603,32511
12:59:26.295603,-1
12:59:26.295603,-130
12:59:26.295603,32511
12:59:26.295603,-1
12:59:26.295603,-123
12:59:26.295603,-31233
12:59:26.295603,-1
12:59:26.295603,-130
12:59:26.295603,32511
12:59:26.295603,-1
12:59:26.295603,-125
12:59:26.295603,-29953
12:59:26.295603,-1
12:59:26.295603,-118
12:59:26.295603,-32257
12:59:26.295603,-1
12:59:26.295603,-115
12:59:26.295603,-21761
12:59:26.295603,-1
12:59:26.295603,-89
12:59:26.295603,-24833
12:59:26.295603,-1
12:59:26.295603,-86
12:59:26.295603,-19457
12:59:26.295603,-1
12:59:26.295603,-74
12:59:26.295603,-15617
12:59:26.295603,-1
12:59:26.295603,-60
12:59:26.295603,-18177
12:59:26.295603,-1
12:59:26.295603,-69
12:59:26.295603,-14337
12:59:26.295603,-1
12:59:26.295603,-41
12:59:26.295603,-1537
12:59:26.295603,-1
12:59:26.295603,9
12:59:26.295603,-3584
12:59:26.295603,-1
12:59:26.295603,-24
12:59:26.295603,-257
12:59:26.295603,-1
12:59:26.295603,2
12:59:26.295603,-3584
12:59:26.295603,-1
12:59:26.295603,-19
12:59:26.295603,-2817
12:59:26.295603,-1
12:59:26.295603,-21
12:59:26.295603,-6913
12:59:26.295603,-1
12:59:26.295603,-19
12:59:26.295603,-21761
12:59:26.295603,-1
12:59:26.295603,-265
12:59:26.295603,-6913
12:59:26.295603,-2
12:59:26.295603,164
12:59:26.295603,-25088
12:59:26.295603,3
12:59:26.295603,1290
12:59:26.295603,3328
12:59:26.295603,3
12:59:26.295603,38
12:59:26.295603,30464
12:59:26.295603,-1
12:59:26.295603,-12
12:59:26.295603,-10241
12:59:26.295603,-1
12:59:26.295603,-101
12:59:26.295603,-19969
12:59:26.295603,-1
12:59:26.295603,-82
12:59:26.295603,-20737
12:59:26.295603,-1
12:59:26.295603,-36
12:59:26.295603,-3841
12:59:26.295603,-1
12:59:26.295603,-28
12:59:26.295603,-5121
12:59:26.295603,-1
12:59:26.295603,-14
12:59:26.295603,-5121
12:59:26.295603,-1
12:59:26.295603,-9
12:59:26.865116,16
12:59:26.865116,5376
12:59:26.865116,0
12:59:26.865116,41
12:59:26.865116,21504
12:59:26.865116,0
12:59:26.865116,113
12:59:26.865116,-30464
12:59:26.865116,0
12:59:26.865116,164
12:59:26.865116,-23552
12:59:26.865116,0
12:59:26.865116,171
12:59:26.865116,-18176
12:59:26.865116,0
12:59:26.865116,168
12:59:26.865116,-29952
12:59:26.865116,0
12:59:26.865116,123
12:59:26.865116,22784
12:59:26.865116,0
12:59:26.865116,36
12:59:26.865116,3072
12:59:26.865116,0
12:59:26.865116,48
12:59:26.865116,13568
12:59:26.865116,0
12:59:26.865116,7
12:59:26.865116,3072
12:59:26.865116,0
12:59:26.865116,28
12:59:26.865116,512
12:59:26.865116,0
12:59:26.865116,31
12:59:26.865116,15360
12:59:26.865116,0
12:59:26.865116,19
12:59:26.865116,7168
12:59:26.865116,0
12:59:26.865116,60
12:59:26.865116,3584
12:59:26.865116,0
12:59:26.865116,-12
12:59:26.865116,5119
12:59:26.865116,0
12:59:26.865116,21
12:59:26.865116,4096
12:59:26.865116,0
12:59:26.865116,45
12:59:26.865116,13568
12:59:26.865116,0
12:59:26.865116,36
12:59:26.865116,11008
12:59:26.865116,0
12:59:26.865116,57
12:59:26.865116,12800
12:59:26.865116,0
12:59:26.865116,41
12:59:26.865116,11008
12:59:26.865116,0
12:59:26.865116,48
12:59:26.865116,11520
12:59:26.865116,0
12:59:26.865116,33
12:59:26.865116,7936
12:59:26.865116,0
12:59:26.865116,45
12:59:26.865116,18944
12:59:26.865116,0
12:59:26.865116,96
12:59:26.865116,22784
12:59:26.865116,0
12:59:26.865116,72
12:59:26.865116,18432
12:59:26.865116,0
12:59:26.865116,65
12:59:26.865116,13568
12:59:26.865116,0
12:59:26.865116,57
12:59:26.865116,15872
12:59:26.865116,0
12:59:26.865116,67
12:59:26.865116,18432
12:59:26.865116,0
12:59:26.865116,62
12:59:26.865116,6144
12:59:26.865116,0
12:59:26.865116,-113
12:59:26.865116,2303
12:59:26.865116,-1
12:59:26.865116,-26
12:59:26.865116,-26113
12:59:26.865116,2
12:59:26.865116,1300
12:59:26.865116,29184
12:59:26.865116,4
12:59:26.865116,320
12:59:26.865116,21760
12:59:26.865116,-1
12:59:26.865116,-65
12:59:26.865116,5119
12:59:26.865116,0
12:59:26.865116,-79
12:59:26.865116,-23041
12:59:26.865116,-1
12:59:26.865116,-50
12:59:26.865116,-17409
12:59:26.865116,-1
12:59:26.865116,-84
12:59:27.405115,-72
12:59:27.405115,-15617
12:59:27.405115,-1
12:59:27.405115,-65
12:59:27.405115,-18177
12:59:27.405115,-1
12:59:27.405115,-62
12:59:27.405115,-12545
12:59:27.405115,-1
12:59:27.405115,-41
12:59:27.405115,-8193
12:59:27.405115,-1
12:59:27.405115,-26
12:59:27.405115,3327
12:59:27.405115,0
12:59:27.405115,57
12:59:27.405115,17664
12:59:27.405115,0
12:59:27.405115,86
12:59:27.405115,28928
12:59:27.405115,0
12:59:27.405115,123
12:59:27.405115,30208
12:59:27.405115,0
12:59:27.405115,113
12:59:27.405115,27136
12:59:27.405115,0
12:59:27.405115,77
12:59:27.405115,9728
12:59:27.405115,0
12:59:27.405115,16
12:59:27.405115,-3072
12:59:27.405115,-1
12:59:27.405115,-31
12:59:27.405115,-7681
12:59:27.405115,-1
12:59:27.405115,-33
12:59:27.405115,-8193
12:59:27.405115,-1
12:59:27.405115,-31
12:59:27.405115,-8193
12:59:27.405115,-1
12:59:27.405115,-31
12:59:27.405115,-5889
12:59:27.405115,-1
12:59:27.405115,-16
12:59:27.405115,-6401
12:59:27.405115,-1
12:59:27.405115,-33
12:59:27.405115,-7681
12:59:27.405115,-1
12:59:27.405115,-33
12:59:27.405115,-6913
12:59:27.405115,-1
12:59:27.405115,-28
12:59:27.405115,-6913
12:59:27.405115,-1
12:59:27.405115,-14
12:59:27.405115,-2817
12:59:27.405115,-1
12:59:27.405115,-14
12:59:27.405115,-769
12:59:27.405115,-1
12:59:27.405115,2
12:59:27.405115,2304
12:59:27.405115,0
12:59:27.405115,14
12:59:27.405115,6144
12:59:27.405115,0
12:59:27.405115,31
12:59:27.405115,7936
12:59:27.405115,0
12:59:27.405115,36
12:59:27.405115,9728
12:59:27.405115,0
12:59:27.405115,33
12:59:27.405115,7936
12:59:27.405115,0
12:59:27.405115,24
12:59:27.405115,6144
12:59:27.405115,0
12:59:27.405115,31
12:59:27.405115,11008
12:59:27.405115,0
12:59:27.405115,72
12:59:27.405115,22784
12:59:27.405115,0
12:59:27.405115,74
12:59:27.405115,15872
12:59:27.405115,0
12:59:27.405115,65
12:59:27.405115,15360
12:59:27.405115,0
12:59:27.405115,33
12:59:27.405115,4096
12:59:27.405115,0
12:59:27.405115,26
12:59:27.405115,6656
12:59:27.405115,0
12:59:27.405115,14
12:59:27.405115,3584
12:59:27.405115,0
12:59:27.405115,-65
12:59:27.405115,2815
12:59:27.405115,-1
12:59:27.405115,-255
12:59:27.405115,-12289
12:59:27.405115,0
12:59:27.405115,962
12:59:27.945683,1290
12:59:27.945683,-5888
12:59:27.945683,2
12:59:27.945683,-26
12:59:27.945683,14079
12:59:27.945683,-1
12:59:27.945683,-45
12:59:27.945683,-16385
12:59:27.945683,-1
12:59:27.945683,-132
12:59:27.945683,-24833
12:59:27.945683,-1
12:59:27.945683,-91
12:59:27.945683,-27905
12:59:27.945683,-1
12:59:27.945683,-94
12:59:27.945683,-19457
12:59:27.945683,-1
12:59:27.945683,-77
12:59:27.945683,-21249
12:59:27.945683,-1
12:59:27.945683,-84
12:59:27.945683,-20737
12:59:27.945683,-1
12:59:27.945683,-79
12:59:27.945683,-18177
12:59:27.945683,-1
12:59:27.945683,-69
12:59:27.945683,-14337
12:59:27.945683,-1
12:59:27.945683,-28
12:59:27.945683,-3329
12:59:27.945683,-1
12:59:27.945683,-4
12:59:27.945683,2559
12:59:27.945683,0
12:59:27.945683,19
12:59:27.945683,4864
12:59:27.945683,0
12:59:27.945683,12
12:59:27.945683,0
12:59:27.945683,0
12:59:27.945683,-21
12:59:27.945683,-13825
12:59:27.945683,-1
12:59:27.945683,-86
12:59:27.945683,-30465
12:59:27.945683,-1
12:59:27.945683,-147
12:59:27.945683,24575
12:59:27.945683,-1
12:59:27.945683,-176
12:59:27.945683,21503
12:59:27.945683,-1
12:59:27.945683,-178
12:59:27.945683,17663
12:59:27.945683,-1
12:59:27.945683,-178
12:59:27.945683,20223
12:59:27.945683,-1
12:59:27.945683,-185
12:59:27.945683,19711
12:59:27.945683,-1
12:59:27.945683,-185
12:59:27.945683,14591
12:59:27.945683,-1
12:59:27.945683,-209
12:59:27.945683,12287
12:59:27.945683,-1
12:59:27.945683,-209
12:59:27.945683,11007
12:59:27.945683,-1
12:59:27.945683,-209
12:59:27.945683,11519
12:59:27.945683,-1
12:59:27.945683,-214
12:59:27.945683,13311
12:59:27.945683,-1
12:59:27.945683,-205
12:59:27.945683,14079
12:59:27.945683,-1
12:59:27.945683,-190
12:59:27.945683,16383
12:59:27.945683,-1
12:59:27.945683,-190
12:59:27.945683,18943
12:59:27.945683,-1
12:59:27.945683,-185
12:59:27.945683,18431
12:59:27.945683,-1
12:59:27.945683,-188
12:59:27.945683,18431
12:59:27.945683,-1
12:59:27.945683,-185
12:59:27.945683,17151
12:59:27.945683,-1
12:59:27.945683,-193
12:59:27.945683,15359
12:59:27.945683,-1
12:59:27.945683,-193
12:59:27.945683,18943
12:59:27.945683,-1
12:59:27.945683,-195
12:59:27.945683,15359
12:59:27.945683,-1
12:59:27.945683,-197
12:59:27.945683,12287
12:59:27.945683,-1
12:59:27.945683,-212
12:59:28.515131,-212
12:59:28.515131,15359
12:59:28.515131,-1
12:59:28.515131,-183
12:59:28.515131,22783
12:59:28.515131,-1
12:59:28.515131,-149
12:59:28.515131,27647
12:59:28.515131,-1
12:59:28.515131,-161
12:59:28.515131,23295
12:59:28.515131,-1
12:59:28.515131,-176
12:59:28.515131,19711
12:59:28.515131,-1
12:59:28.515131,-183
12:59:28.515131,18943
12:59:28.515131,-1
12:59:28.515131,-173
12:59:28.515131,17663
12:59:28.515131,-1
12:59:28.515131,-277
12:59:28.515131,18431
12:59:28.515131,-2
12:59:28.515131,-458
12:59:28.515131,-5121
12:59:28.515131,-1
12:59:28.515131,721
12:59:28.515131,19968
12:59:28.515131,4
12:59:28.515131,603
12:59:28.515131,15616
12:59:28.515131,-1
12:59:28.515131,-383
12:59:28.515131,12799
12:59:28.515131,-1
12:59:28.515131,-221
12:59:28.515131,-8705
12:59:28.515131,-2
12:59:28.515131,-270
12:59:28.515131,2303
12:59:28.515131,-1
12:59:28.515131,-253
12:59:28.515131,2815
12:59:28.515131,-1
12:59:28.515131,-231
12:59:28.515131,8447
12:59:28.515131,-1
12:59:28.515131,-219
12:59:28.515131,10239
12:59:28.515131,-1
12:59:28.515131,-209
12:59:28.515131,18431
12:59:28.515131,-1
12:59:28.515131,-168
12:59:28.515131,23295
12:59:28.515131,-1
12:59:28.515131,-142
12:59:28.515131,-29185
12:59:28.515131,-1
12:59:28.515131,-94
12:59:28.515131,-17409
12:59:28.515131,-1
12:59:28.515131,-57
12:59:28.515131,-10753
12:59:28.515131,-1
12:59:28.515131,-28
12:59:28.515131,-6913
12:59:28.515131,-1
12:59:28.515131,-24
12:59:28.515131,-6401
12:59:28.515131,-1
12:59:28.515131,-50
12:59:28.515131,-23041
12:59:28.515131,-1
12:59:28.515131,-113
12:59:28.515131,-29953
12:59:28.515131,-1
12:59:28.515131,-135
12:59:28.515131,29439
12:59:28.515131,-1
12:59:28.515131,-137
12:59:28.515131,29439
12:59:28.515131,-1
12:59:28.515131,-137
12:59:28.515131,32511
12:59:28.515131,-1
12:59:28.515131,-113
12:59:28.515131,-25601
12:59:28.515131,-1
12:59:28.515131,-106
12:59:28.515131,-26113
12:59:28.515131,-1
12:59:28.515131,-96
12:59:28.515131,-25601
12:59:28.515131,-1
12:59:28.515131,-96
12:59:28.515131,-23041
12:59:28.515131,-1
12:59:28.515131,-91
12:59:28.515131,-21761
12:59:28.515131,-1
12:59:28.515131,-74
12:59:28.515131,-16385
12:59:28.515131,-1
12:59:28.515131,-62
12:59:28.515131,-15105
12:59:28.515131,-1
12:59:28.515131,-55
12:59:29.145125,-60
12:59:29.145125,-15105
12:59:29.145125,-1
12:59:29.145125,-50
12:59:29.145125,-10241
12:59:29.145125,-1
12:59:29.145125,-33
12:59:29.145125,-5889
12:59:29.145125,-1
12:59:29.145125,-4
12:59:29.145125,-1537
12:59:29.145125,-1
12:59:29.145125,-19
12:59:29.145125,-2049
12:59:29.145125,-1
12:59:29.145125,-12
12:59:29.145125,-6401
12:59:29.145125,-1
12:59:29.145125,-12
12:59:29.145125,4351
12:59:29.145125,0
12:59:29.145125,43
12:59:29.145125,12800
12:59:29.145125,0
12:59:29.145125,45
12:59:29.145125,11008
12:59:29.145125,0
12:59:29.145125,36
12:59:29.145125,6144
12:59:29.145125,0
12:59:29.145125,14
12:59:29.145125,3584
12:59:29.145125,0
12:59:29.145125,21
12:59:29.145125,4864
12:59:29.145125,0
12:59:29.145125,14
12:59:29.145125,-5376
12:59:29.145125,-1
12:59:29.145125,-161
12:59:29.145125,-11265
12:59:29.145125,-2
12:59:29.145125,-115
12:59:29.145125,7423
12:59:29.145125,2
12:59:29.145125,1213
12:59:29.145125,23808
12:59:29.145125,4
12:59:29.145125,308
12:59:29.145125,13824
12:59:29.145125,-1
12:59:29.145125,-110
12:59:29.145125,-3841
12:59:29.145125,-1
12:59:29.145125,-91
12:59:29.145125,-24833
12:59:29.145125,-1
12:59:29.145125,-67
12:59:29.145125,-19969
12:59:29.145125,-1
12:59:29.145125,-79
12:59:29.145125,-16385
12:59:29.145125,-1
12:59:29.145125,-67
12:59:29.145125,-14337
12:59:29.145125,-1
12:59:29.145125,-45
12:59:29.145125,-11265
12:59:29.145125,-1
12:59:29.145125,-45
12:59:29.145125,-9473
12:59:29.145125,-1
12:59:29.145125,-12
12:59:29.145125,1279
12:59:29.145125,0
12:59:29.145125,16
12:59:29.145125,10496
12:59:29.145125,0
12:59:29.145125,67
12:59:29.145125,23296
12:59:29.145125,0
12:59:29.145125,106
12:59:29.145125,27648
12:59:29.145125,0
12:59:29.145125,123
12:59:29.145125,32000
12:59:29.145125,0
12:59:29.145125,103
12:59:29.145125,18432
12:59:29.145125,0
12:59:29.145125,43
12:59:29.145125,5376
12:59:29.145125,0
12:59:29.145125,0
12:59:29.145125,-3072
12:59:29.145125,-1
12:59:29.145125,-14
12:59:29.145125,-6913
12:59:29.145125,-1
12:59:29.145125,-33
12:59:29.145125,-6401
12:59:29.145125,-1
12:59:29.145125,-28
12:59:29.145125,-8193
12:59:29.145125,-1
12:59:29.145125,-36
12:59:29.145125,-8193
12:59:29.145125,-1
12:59:29.145125,-31
12:59:29.655107,-38
12:59:29.655107,-8961
12:59:29.655107,-1
12:59:29.655107,-28
12:59:29.655107,-6913
12:59:29.655107,-1
12:59:29.655107,-21
12:59:29.655107,-2817
12:59:29.655107,-1
12:59:29.655107,0
12:59:29.655107,512
12:59:29.655107,0
12:59:29.655107,2
12:59:29.655107,5376
12:59:29.655107,0
12:59:29.655107,33
12:59:29.655107,6144
12:59:29.655107,0
12:59:29.655107,21
12:59:29.655107,7168
12:59:29.655107,0
12:59:29.655107,38
12:59:29.655107,11008
12:59:29.655107,0
12:59:29.655107,33
12:59:29.655107,6144
12:59:29.655107,0
12:59:29.655107,36
12:59:29.655107,17664
12:59:29.655107,0
12:59:29.655107,91
12:59:29.655107,24064
12:59:29.655107,0
12:59:29.655107,86
12:59:29.655107,17152
12:59:29.655107,0
12:59:29.655107,62
12:59:29.655107,15360
12:59:29.655107,0
12:59:29.655107,45
12:59:29.655107,12800
12:59:29.655107,0
12:59:29.655107,53
12:59:29.655107,11008
12:59:29.655107,0
12:59:29.655107,43
12:59:29.655107,6656
12:59:29.655107,0
12:59:29.655107,-84
12:59:29.655107,-2049
12:59:29.655107,-2
12:59:29.655107,-205
12:59:29.655107,28415
12:59:29.655107,1
12:59:29.655107,1141
12:59:29.655107,12544
12:59:29.655107,5
12:59:29.655107,629
12:59:29.655107,-20224
12:59:29.655107,-1
12:59:29.655107,-110
12:59:29.655107,5631
12:59:29.655107,0
12:59:29.655107,-48
12:59:29.655107,-21761
12:59:29.655107,-1
12:59:29.655107,-65
12:59:29.655107,-17409
12:59:29.655107,-1
12:59:29.655107,-67
12:59:29.655107,-13825
12:59:29.655107,-1
12:59:29.655107,-55
12:59:29.655107,-12545
12:59:29.655107,-1
12:59:29.655107,-31
12:59:29.655107,-4609
12:59:29.655107,-1
12:59:29.655107,-26
12:59:29.655107,-3841
12:59:29.655107,-1
12:59:29.655107,-4
12:59:29.655107,255
12:59:29.655107,0
12:59:29.655107,21
12:59:29.655107,11008
12:59:29.655107,0
12:59:29.655107,65
12:59:29.655107,24064
12:59:29.655107,0
12:59:29.655107,115
12:59:29.655107,-31744
12:59:29.655107,0
12:59:29.655107,132
12:59:29.655107,-32256
12:59:29.655107,0
12:59:29.655107,125
12:59:29.655107,24064
12:59:29.655107,0
12:59:29.655107,67
12:59:29.655107,11520
12:59:29.655107,0
12:59:29.655107,24
12:59:29.655107,3072
12:59:29.655107,0
12:59:29.655107,0
12:59:29.655107,-1792
12:59:29.655107,-1
12:59:29.655107,0
12:59:30.225663,2
12:59:30.225663,-512
12:59:30.225663,-1
12:59:30.225663,4
12:59:30.225663,1792
12:59:30.225663,0
12:59:30.225663,2
12:59:30.225663,-1024
12:59:30.225663,-1
12:59:30.225663,2
12:59:30.225663,3584
12:59:30.225663,0
12:59:30.225663,31
12:59:30.225663,9728
12:59:30.225663,0
12:59:30.225663,26
12:59:30.225663,7168
12:59:30.225663,0
12:59:30.225663,45
12:59:30.225663,12288
12:59:30.225663,0
12:59:30.225663,48
12:59:30.225663,13568
12:59:30.225663,0
12:59:30.225663,55
12:59:30.225663,14592
12:59:30.225663,0
12:59:30.225663,48
12:59:30.225663,12288
12:59:30.225663,0
12:59:30.225663,48
12:59:30.225663,11520
12:59:30.225663,0
12:59:30.225663,48
12:59:30.225663,15872
12:59:30.225663,0
12:59:30.225663,91
12:59:30.225663,27648
12:59:30.225663,0
12:59:30.225663,103
12:59:30.225663,24064
12:59:30.225663,0
12:59:30.225663,86
12:59:30.225663,19712
12:59:30.225663,0
12:59:30.225663,69
12:59:30.225663,16640
12:59:30.225663,0
12:59:30.225663,67
12:59:30.225663,17664
12:59:30.225663,0
12:59:30.225663,67
12:59:30.225663,16640
12:59:30.225663,0
12:59:30.225663,7
12:59:30.225663,25600
12:59:30.225663,-1
12:59:30.225663,-258
12:59:30.225663,13055
12:59:30.225663,0
12:59:30.225663,805
12:59:30.225663,27904
12:59:30.225663,5
12:59:30.225663,1093
12:59:30.225663,-2560
12:59:30.225663,0
12:59:30.225663,-132
12:59:30.225663,767
12:59:30.225663,0
12:59:30.225663,16
12:59:30.225663,-21504
12:59:30.225663,-1
12:59:30.225663,-69
12:59:30.225663,-11265
12:59:30.225663,-1
12:59:30.225663,-57
12:59:30.225663,-12033
12:59:30.225663,-1
12:59:30.225663,-41
12:59:30.225663,-9473
12:59:30.225663,-1
12:59:30.225663,-31
12:59:30.225663,-4609
12:59:30.225663,-1
12:59:30.225663,-7
12:59:30.225663,-1537
12:59:30.225663,-1
12:59:30.225663,-2
12:59:30.225663,3839
12:59:30.225663,0
12:59:30.225663,24
12:59:30.225663,11520
12:59:30.225663,0
12:59:30.225663,74
12:59:30.225663,25088
12:59:30.225663,0
12:59:30.225663,118
12:59:30.225663,-30976
12:59:30.225663,0
12:59:30.225663,152
12:59:30.225663,-26112
12:59:30.225663,0
12:59:30.225663,147
12:59:30.225663,-30464
12:59:30.225663,0
12:59:30.225663,108
12:59:30.225663,18432
12:59:30.225663,0
12:59:30.225663,48
12:59:30.765922,31
12:59:30.765922,5376
12:59:30.765922,0
12:59:30.765922,12
12:59:30.765922,3072
12:59:30.765922,0
12:59:30.765922,19
12:59:30.765922,4096
12:59:30.765922,0
12:59:30.765922,16
12:59:30.765922,4864
12:59:30.765922,0
12:59:30.765922,24
12:59:30.765922,11008
12:59:30.765922,0
12:59:30.765922,50
12:59:30.765922,9728
12:59:30.765922,0
12:59:30.765922,31
12:59:30.765922,7168
12:59:30.765922,0
12:59:30.765922,28
12:59:30.765922,6144
12:59:30.765922,0
12:59:30.765922,21
12:59:30.765922,8448
12:59:30.765922,0
12:59:30.765922,38
12:59:30.765922,10496
12:59:30.765922,0
12:59:30.765922,41
12:59:30.765922,9216
12:59:30.765922,0
12:59:30.765922,28
12:59:30.765922,6144
12:59:30.765922,0
12:59:30.765922,33
12:59:30.765922,11520
12:59:30.765922,0
12:59:30.765922,36
12:59:30.765922,9216
12:59:30.765922,0
12:59:30.765922,45
12:59:30.765922,17152
12:59:30.765922,0
12:59:30.765922,94
12:59:30.765922,25856
12:59:30.765922,0
12:59:30.765922,84
12:59:30.765922,17664
12:59:30.765922,0
12:59:30.765922,77
12:59:30.765922,18944
12:59:30.765922,0
12:59:30.765922,50
12:59:30.765922,12288
12:59:30.765922,0
12:59:30.765922,57
12:59:30.765922,13568
12:59:30.765922,0
12:59:30.765922,50
12:59:30.765922,9216
12:59:30.765922,0
12:59:30.765922,-57
12:59:30.765922,6655
12:59:30.765922,-1
12:59:30.765922,-209
12:59:30.765922,13055
12:59:30.765922,1
12:59:30.765922,1085
12:59:30.765922,21248
12:59:30.765922,5
12:59:30.765922,738
12:59:30.765922,-6656
12:59:30.765922,-1
12:59:30.765922,-132
12:59:30.765922,3839
12:59:30.765922,0
12:59:30.765922,-48
12:59:30.765922,-26113
12:59:30.765922,-1
12:59:30.765922,-67
12:59:30.765922,-16897
12:59:30.765922,-1
12:59:30.765922,-77
12:59:30.765922,-15105
12:59:30.765922,-1
12:59:30.765922,-50
12:59:30.765922,-15617
12:59:30.765922,-1
12:59:30.765922,-53
12:59:30.765922,-8961
12:59:30.765922,-1
12:59:30.765922,-41
12:59:30.765922,-9473
12:59:30.765922,-1
12:59:30.765922,-19
12:59:30.765922,-3329
12:59:30.765922,-1
12:59:30.765922,-4
12:59:30.765922,3839
12:59:30.765922,0
12:59:30.765922,36
12:59:30.765922,12800
12:59:30.765922,0
12:59:30.765922,50
12:59:30.765922,14080
12:59:30.765922,0
12:59:30.765922,60
12:59:31.335809,53
12:59:31.335809,11008
12:59:31.335809,0
12:59:31.335809,24
12:59:31.335809,-2304
12:59:31.335809,-1
12:59:31.335809,-36
12:59:31.335809,-11265
12:59:31.335809,-1
12:59:31.335809,-41
12:59:31.335809,-11265
12:59:31.335809,-1
12:59:31.335809,-69
12:59:31.335809,-20737
12:59:31.335809,-1
12:59:31.335809,-77
12:59:31.335809,-21249
12:59:31.335809,-1
12:59:31.335809,-103
12:59:31.335809,-24833
12:59:31.335809,-1
12:59:31.335809,-86
12:59:31.335809,-24321
12:59:31.335809,-1
12:59:31.335809,-101
12:59:31.335809,-24321
12:59:31.335809,-1
12:59:31.335809,-94
12:59:31.335809,-21249
12:59:31.335809,-1
12:59:31.335809,-82
12:59:31.335809,-23041
12:59:31.335809,-1
12:59:31.335809,-94
12:59:31.335809,-23041
12:59:31.335809,-1
12:59:31.335809,-84
12:59:31.335809,-19457
12:59:31.335809,-1
12:59:31.335809,-74
12:59:31.335809,-19457
12:59:31.335809,-1
12:59:31.335809,-77
12:59:31.335809,-16385
12:59:31.335809,-1
12:59:31.335809,-55
12:59:31.335809,-15617
12:59:31.335809,-1
12:59:31.335809,-65
12:59:31.335809,-16385
12:59:31.335809,-1
12:59:31.335809,-67
12:59:31.335809,-13825
12:59:31.335809,-1
12:59:31.335809,-36
12:59:31.335809,-3329
12:59:31.335809,-1
12:59:31.335809,0
12:59:31.335809,-1024
12:59:31.335809,-1
12:59:31.335809,-9
12:59:31.335809,-3329
12:59:31.335809,-1
12:59:31.335809,-26
12:59:31.335809,-8193
12:59:31.335809,-1
12:59:31.335809,-36
12:59:31.335809,-8193
12:59:31.335809,-1
12:59:31.335809,-33
12:59:31.335809,-8961
12:59:31.335809,-1
12:59:31.335809,-33
12:59:31.335809,-29953
12:59:31.335809,-1
12:59:31.335809,-296
12:59:31.335809,-5633
12:59:31.335809,-2
12:59:31.335809,229
12:59:31.335809,-256
12:59:31.335809,3
12:59:31.335809,1339
12:59:31.335809,-9472
12:59:31.335809,2
12:59:31.335809,-67
12:59:31.335809,11519
12:59:31.335809,-1
12:59:31.335809,-48
12:59:31.335809,-23041
12:59:31.335809,-1
12:59:31.335809,-166
12:59:31.335809,32511
12:59:31.335809,-1
12:59:31.335809,-115
12:59:31.335809,32511
12:59:31.335809,-1
12:59:31.335809,-115
12:59:31.335809,-25601
12:59:31.335809,-1
12:59:31.335809,-94
12:59:31.335809,-21249
12:59:31.335809,-1
12:59:31.335809,-74
12:59:31.335809,-17409
12:59:31.335809,-1
12:59:31.335809,-60
12:59:31.335809,-10753
12:59:31.335809,-1
12:59:31.335809,-26
12:59:31.875088,-9
12:59:31.875088,5119
12:59:31.875088,0
12:59:31.875088,41
12:59:31.875088,14592
12:59:31.875088,0
12:59:31.875088,84
12:59:31.875088,23296
12:59:31.875088,0
12:59:31.875088,96
12:59:31.875088,28928
12:59:31.875088,0
12:59:31.875088,120
12:59:31.875088,24576
12:59:31.875088,0
12:59:31.875088,55
12:59:31.875088,7168
12:59:31.875088,0
12:59:31.875088,2
12:59:31.875088,-3072
12:59:31.875088,-1
12:59:31.875088,-14
12:59:31.875088,-6401
12:59:31.875088,-1
12:59:31.875088,-36
12:59:31.875088,-6913
12:59:31.875088,-1
12:59:31.875088,-19
12:59:31.875088,-3329
12:59:31.875088,-1
12:59:31.875088,-24
12:59:31.875088,-5889
12:59:31.875088,-1
12:59:31.875088,-14
12:59:31.875088,-3329
12:59:31.875088,-1
12:59:31.875088,-14
12:59:31.875088,-3329
12:59:31.875088,-1
12:59:31.875088,-16
12:59:31.875088,-2817
12:59:31.875088,-1
12:59:31.875088,-12
12:59:31.875088,-2817
12:59:31.875088,-1
12:59:31.875088,-7
12:59:31.875088,-1537
12:59:31.875088,-1
12:59:31.875088,-2
12:59:31.875088,1279
12:59:31.875088,0
12:59:31.875088,9
12:59:31.875088,3584
12:59:31.875088,0
12:59:31.875088,14
12:59:31.875088,4864
12:59:31.875088,0
12:59:31.875088,19
12:59:31.875088,5376
12:59:31.875088,0
12:59:31.875088,33
12:59:31.875088,8448
12:59:31.875088,0
12:59:31.875088,24
12:59:31.875088,5376
12:59:31.875088,0
12:59:31.875088,21
12:59:31.875088,6144
12:59:31.875088,0
12:59:31.875088,41
12:59:31.875088,17664
12:59:31.875088,0
12:59:31.875088,86
12:59:31.875088,20224
12:59:31.875088,0
12:59:31.875088,77
12:59:31.875088,18432
12:59:31.875088,0
12:59:31.875088,60
12:59:31.875088,12800
12:59:31.875088,0
12:59:31.875088,43
12:59:31.875088,11008
12:59:31.875088,0
12:59:31.875088,45
12:59:31.875088,9216
12:59:31.875088,0
12:59:31.875088,33
12:59:31.875088,-512
12:59:31.875088,-1
12:59:31.875088,-154
12:59:31.875088,-7681
12:59:31.875088,-2
12:59:31.875088,-43
12:59:31.875088,-23553
12:59:31.875088,2
12:59:31.875088,1331
12:59:31.875088,-30720
12:59:31.875088,4
12:59:31.875088,306
12:59:31.875088,14336
12:59:31.875088,-1
12:59:31.875088,-89
12:59:31.875088,-2817
12:59:31.875088,-1
12:59:31.875088,-106
12:59:31.875088,-27905
12:59:31.875088,-1
12:59:31.875088,-84
12:59:32.475962,-101
12:59:32.475962,-22529
12:59:32.475962,-1
12:59:32.475962,-67
12:59:32.475962,-15105
12:59:32.475962,-1
12:59:32.475962,-48
12:59:32.475962,-5121
12:59:32.475962,-1
12:59:32.475962,-7
12:59:32.475962,-3841
12:59:32.475962,-1
12:59:32.475962,-4
12:59:32.475962,5631
12:59:32.475962,0
12:59:32.475962,31
12:59:32.475962,11520
12:59:32.475962,0
12:59:32.475962,69
12:59:32.475962,22784
12:59:32.475962,0
12:59:32.475962,108
12:59:32.475962,32000
12:59:32.475962,0
12:59:32.475962,137
12:59:32.475962,-30464
12:59:32.475962,0
12:59:32.475962,130
12:59:32.475962,30208
12:59:32.475962,0
12:59:32.475962,89
12:59:32.475962,14080
12:59:32.475962,0
12:59:32.475962,28
12:59:32.475962,3072
12:59:32.475962,0
12:59:32.475962,0
12:59:32.475962,-2304
12:59:32.475962,-1
12:59:32.475962,-12
12:59:32.475962,-769
12:59:32.475962,-1
12:59:32.475962,-9
12:59:32.475962,-2049
12:59:32.475962,-1
12:59:32.475962,-4
12:59:32.475962,767
12:59:32.475962,0
12:59:32.475962,7
12:59:32.475962,1024
12:59:32.475962,0
12:59:32.475962,4
12:59:32.475962,1792
12:59:32.475962,0
12:59:32.475962,9
12:59:32.475962,4864
12:59:32.475962,0
12:59:32.475962,21
12:59:32.475962,5376
12:59:32.475962,0
12:59:32.475962,31
12:59:32.475962,7936
12:59:32.475962,0
12:59:32.475962,31
12:59:32.475962,10496
12:59:32.475962,0
12:59:32.475962,50
12:59:32.475962,14592
12:59:32.475962,0
12:59:32.475962,60
12:59:32.475962,15872
12:59:32.475962,0
12:59:32.475962,69
12:59:32.475962,18944
12:59:32.475962,0
12:59:32.475962,82
12:59:32.475962,21504
12:59:32.475962,0
12:59:32.475962,74
12:59:32.475962,17152
12:59:32.475962,0
12:59:32.475962,62
12:59:32.475962,16640
12:59:32.475962,0
12:59:32.475962,65
12:59:32.475962,18432
12:59:32.475962,0
12:59:32.475962,108
12:59:32.475962,-29952
12:59:32.475962,0
12:59:32.475962,137
12:59:32.475962,32000
12:59:32.475962,0
12:59:32.475962,120
12:59:32.475962,30720
12:59:32.475962,0
12:59:32.475962,101
12:59:32.475962,21504
12:59:32.475962,0
12:59:32.475962,86
12:59:32.475962,22016
12:59:32.475962,0
12:59:32.475962,89
12:59:32.475962,23296
12:59:32.475962,0
12:59:32.475962,53
12:59:32.475962,-21504
12:59:32.475962,-1
12:59:32.475962,-219
12:59:33.015098,-14
12:59:33.015098,-24065
12:59:33.015098,2
12:59:33.015098,1360
12:59:33.015098,-2816
12:59:33.015098,4
12:59:33.015098,429
12:59:33.015098,-32000
12:59:33.015098,-1
12:59:33.015098,-31
12:59:33.015098,14847
12:59:33.015098,0
12:59:33.015098,-28
12:59:33.015098,-8193
12:59:33.015098,-1
12:59:33.015098,12
12:59:33.015098,1792
12:59:33.015098,0
12:59:33.015098,-4
12:59:33.015098,4351
12:59:33.015098,0
12:59:33.015098,31
12:59:33.015098,6656
12:59:33.015098,0
12:59:33.015098,36
12:59:33.015098,10496
12:59:33.015098,0
12:59:33.015098,33
12:59:33.015098,11520
12:59:33.015098,0
12:59:33.015098,69
12:59:33.015098,22784
12:59:33.015098,0
12:59:33.015098,98
12:59:33.015098,28160
12:59:33.015098,0
12:59:33.015098,137
12:59:33.015098,-24320
12:59:33.015098,0
12:59:33.015098,173
12:59:33.015098,-19968
12:59:33.015098,0
12:59:33.015098,176
12:59:33.015098,-19968
12:59:33.015098,0
12:59:33.015098,171
12:59:33.015098,-27392
12:59:33.015098,0
12:59:33.015098,115
12:59:33.015098,19712
12:59:33.015098,0
12:59:33.015098,60
12:59:33.015098,13568
12:59:33.015098,0
12:59:33.015098,38
12:59:33.015098,9216
12:59:33.015098,0
12:59:33.015098,33
12:59:33.015098,5376
12:59:33.015098,0
12:59:33.015098,26
12:59:33.015098,8448
12:59:33.015098,0
12:59:33.015098,31
12:59:33.015098,6656
12:59:33.015098,0
12:59:33.015098,28
12:59:33.015098,9728
12:59:33.015098,0
12:59:33.015098,26
12:59:33.015098,4096
12:59:33.015098,0
12:59:33.015098,21
12:59:33.015098,7168
12:59:33.015098,0
12:59:33.015098,38
12:59:33.015098,11008
12:59:33.015098,0
12:59:33.015098,41
12:59:33.015098,11520
12:59:33.015098,0
12:59:33.015098,45
12:59:33.015098,14080
12:59:33.015098,0
12:59:33.015098,69
12:59:33.015098,15872
12:59:33.015098,0
12:59:33.015098,55
12:59:33.015098,14080
12:59:33.015098,0
12:59:33.015098,62
12:59:33.015098,15360
12:59:33.015098,0
12:59:33.015098,50
12:59:33.015098,13568
12:59:33.015098,0
12:59:33.015098,48
12:59:33.015098,12288
12:59:33.015098,0
12:59:33.015098,84
12:59:33.015098,28160
12:59:33.015098,0
12:59:33.015098,108
12:59:33.015098,24576
12:59:33.015098,0
12:59:33.015098,86
12:59:33.015098,21504
12:59:33.015098,0
12:59:33.015098,79
12:59:33.585920,77
12:59:33.585920,19712
12:59:33.585920,0
12:59:33.585920,69
12:59:33.585920,18432
12:59:33.585920,0
12:59:33.585920,72
12:59:33.585920,7936
12:59:33.585920,0
12:59:33.585920,-103
12:59:33.585920,4095
12:59:33.585920,-1
12:59:33.585920,-36
12:59:33.585920,-30977
12:59:33.585920,2
12:59:33.585920,1368
12:59:33.585920,11264
12:59:33.585920,5
12:59:33.585920,475
12:59:33.585920,-27136
12:59:33.585920,-1
12:59:33.585920,-14
12:59:33.585920,17407
12:59:33.585920,0
12:59:33.585920,-33
12:59:33.585920,-13313
12:59:33.585920,-1
12:59:33.585920,-16
12:59:33.585920,-4609
12:59:33.585920,-1
12:59:33.585920,-24
12:59:33.585920,-2817
12:59:33.585920,-1
12:59:33.585920,0
12:59:33.585920,1024
12:59:33.585920,0
12:59:33.585920,12
12:59:33.585920,4096
12:59:33.585920,0
12:59:33.585920,19
12:59:33.585920,8448
12:59:33.585920,0
12:59:33.585920,45
12:59:33.585920,15872
12:59:33.585920,0
12:59:33.585920,79
12:59:33.585920,25088
12:59:33.585920,0
12:59:33.585920,120
12:59:33.585920,-30976
12:59:33.585920,0
12:59:33.585920,149
12:59:33.585920,-25600
12:59:33.585920,0
12:59:33.585920,154
12:59:33.585920,-24320
12:59:33.585920,0
12:59:33.585920,149
12:59:33.585920,29440
12:59:33.585920,0
12:59:33.585920,79
12:59:33.585920,12800
12:59:33.585920,0
12:59:33.585920,43
12:59:33.585920,7168
12:59:33.585920,0
12:59:33.585920,12
12:59:33.585920,3072
12:59:33.585920,0
12:59:33.585920,9
12:59:33.585920,1792
12:59:33.585920,0
12:59:33.585920,7
12:59:33.585920,1792
12:59:33.585920,0
12:59:33.585920,16
12:59:33.585920,3072
12:59:33.585920,0
12:59:33.585920,7
12:59:33.585920,3072
12:59:33.585920,0
12:59:33.585920,12
12:59:33.585920,3584
12:59:33.585920,0
12:59:33.585920,14
12:59:33.585920,2304
12:59:33.585920,0
12:59:33.585920,19
12:59:33.585920,6144
12:59:33.585920,0
12:59:33.585920,28
12:59:33.585920,8448
12:59:33.585920,0
12:59:33.585920,36
12:59:33.585920,11520
12:59:33.585920,0
12:59:33.585920,45
12:59:33.585920,10496
12:59:33.585920,0
12:59:33.585920,43
12:59:33.585920,12288
12:59:33.585920,0
12:59:33.585920,55
12:59:33.585920,12800
12:59:33.585920,0
12:59:33.585920,41
12:59:33.585920,9216
12:59:33.585920,0
12:59:33.585920,26
12:59:34.125117,28
12:59:34.125117,12288
12:59:34.125117,0
12:59:34.125117,77
12:59:34.125117,27136
12:59:34.125117,0
12:59:34.125117,106
12:59:34.125117,21504
12:59:34.125117,0
12:59:34.125117,74
12:59:34.125117,17664
12:59:34.125117,0
12:59:34.125117,74
12:59:34.125117,20224
12:59:34.125117,0
12:59:34.125117,69
12:59:34.125117,17664
12:59:34.125117,0
12:59:34.125117,69
12:59:34.125117,15360
12:59:34.125117,0
12:59:34.125117,14
12:59:34.125117,31744
12:59:34.125117,-1
12:59:34.125117,-258
12:59:34.125117,-2817
12:59:34.125117,-1
12:59:34.125117,711
12:59:34.125117,29184
12:59:34.125117,5
12:59:34.125117,1225
12:59:34.125117,22016
12:59:34.125117,1
12:59:34.125117,-168
12:59:34.125117,-12545
12:59:34.125117,-1
12:59:34.125117,12
12:59:34.125117,-25088
12:59:34.125117,-1
12:59:34.125117,-103
12:59:34.125117,-16385
12:59:34.125117,-1
12:59:34.125117,-84
12:59:34.125117,-23041
12:59:34.125117,-1
12:59:34.125117,-67
12:59:34.125117,-15617
12:59:34.125117,-1
12:59:34.125117,-62
12:59:34.125117,-15617
12:59:34.125117,-1
12:59:34.125117,-60
12:59:34.125117,-13313
12:59:34.125117,-1
12:59:34.125117,-36
12:59:34.125117,-5889
12:59:34.125117,-1
12:59:34.125117,-16
12:59:34.125117,255
12:59:34.125117,0
12:59:34.125117,24
12:59:34.125117,9216
12:59:34.125117,0
12:59:34.125117,60
12:59:34.125117,19712
12:59:34.125117,0
12:59:34.125117,79
12:59:34.125117,20224
12:59:34.125117,0
12:59:34.125117,69
12:59:34.125117,15360
12:59:34.125117,0
12:59:34.125117,38
12:59:34.125117,1024
12:59:34.125117,0
12:59:34.125117,-21
12:59:34.125117,-10753
12:59:34.125117,-1
12:59:34.125117,-60
12:59:34.125117,-18689
12:59:34.125117,-1
12:59:34.125117,-84
12:59:34.125117,-21249
12:59:34.125117,-1
12:59:34.125117,-86
12:59:34.125117,-21249
12:59:34.125117,-1
12:59:34.125117,-77
12:59:34.125117,-19969
12:59:34.125117,-1
12:59:34.125117,-77
12:59:34.125117,-20737
12:59:34.125117,-1
12:59:34.125117,-89
12:59:34.125117,-21249
12:59:34.125117,-1
12:59:34.125117,-84
12:59:34.125117,-21761
12:59:34.125117,-1
12:59:34.125117,-84
12:59:34.125117,-21761
12:59:34.125117,-1
12:59:34.125117,-82
12:59:34.125117,-20737
12:59:34.125117,-1
12:59:34.125117,-79
12:59:34.125117,-16385
12:59:34.125117,-1
12:59:34.125117,-62
12:59:34.695086,-62
12:59:34.695086,-13313
12:59:34.695086,-1
12:59:34.695086,-50
12:59:34.695086,-13313
12:59:34.695086,-1
12:59:34.695086,-55
12:59:34.695086,-10753
12:59:34.695086,-1
12:59:34.695086,-28
12:59:34.695086,-8193
12:59:34.695086,-1
12:59:34.695086,-33
12:59:34.695086,-2817
12:59:34.695086,-1
12:59:34.695086,21
12:59:34.695086,10496
12:59:34.695086,0
12:59:34.695086,26
12:59:34.695086,2304
12:59:34.695086,0
12:59:34.695086,12
12:59:34.695086,512
12:59:34.695086,0
12:59:34.695086,-16
12:59:34.695086,-6401
12:59:34.695086,-1
12:59:34.695086,-19
12:59:34.695086,-3329
12:59:34.695086,-1
12:59:34.695086,-24
12:59:34.695086,-7681
12:59:34.695086,-1
12:59:34.695086,-106
12:59:34.695086,-5121
12:59:34.695086,-2
12:59:34.695086,-304
12:59:34.695086,32767
12:59:34.695086,0
12:59:34.695086,914
12:59:34.695086,16896
12:59:34.695086,5
12:59:34.695086,837
12:59:34.695086,-1792
12:59:34.695086,-1
12:59:34.695086,-241
12:59:34.695086,-19457
12:59:34.695086,-1
12:59:34.695086,-89
12:59:34.695086,22783
12:59:34.695086,-1
12:59:34.695086,-147
12:59:34.695086,32511
12:59:34.695086,-1
12:59:34.695086,-144
12:59:34.695086,-31745
12:59:34.695086,-1
12:59:34.695086,-115
12:59:34.695086,-30465
12:59:34.695086,-1
12:59:34.695086,-103
12:59:34.695086,-23041
12:59:34.695086,-1
12:59:34.695086,-91
12:59:34.695086,-23809
12:59:34.695086,-1
12:59:34.695086,-84
12:59:34.695086,-15617
12:59:34.695086,-1
12:59:34.695086,-41
12:59:34.695086,-5889
12:59:34.695086,-1
12:59:34.695086,-7
12:59:34.695086,4351
12:59:34.695086,0
12:59:34.695086,43
12:59:34.695086,12288
12:59:34.695086,0
12:59:34.695086,53
12:59:34.695086,14080
12:59:34.695086,0
12:59:34.695086,45
12:59:34.695086,6144
12:59:34.695086,0
12:59:34.695086,-9
12:59:34.695086,-8961
12:59:34.695086,-1
12:59:34.695086,-50
12:59:34.695086,-16897
12:59:34.695086,-1
12:59:34.695086,-79
12:59:34.695086,-19969
12:59:34.695086,-1
12:59:34.695086,-77
12:59:34.695086,-18689
12:59:34.695086,-1
12:59:34.695086,-79
12:59:34.695086,-17409
12:59:34.695086,-1
12:59:34.695086,-57
12:59:34.695086,-17409
12:59:34.695086,-1
12:59:34.695086,-77
12:59:34.695086,-19457
12:59:34.695086,-1
12:59:34.695086,-79
12:59:34.695086,-19969
12:59:34.695086,-1
12:59:34.695086,-74
12:59:35.235564,-69
12:59:35.235564,-16897
12:59:35.235564,-1
12:59:35.235564,-60
12:59:35.235564,-12545
12:59:35.235564,-1
12:59:35.235564,-48
12:59:35.235564,-10753
12:59:35.235564,-1
12:59:35.235564,-31
12:59:35.235564,-3329
12:59:35.235564,-1
12:59:35.235564,-7
12:59:35.235564,-3841
12:59:35.235564,-1
12:59:35.235564,-12
12:59:35.235564,767
12:59:35.235564,0
12:59:35.235564,-7
12:59:35.235564,-3329
12:59:35.235564,-1
12:59:35.235564,-14
12:59:35.235564,-3841
12:59:35.235564,-1
12:59:35.235564,-14
12:59:35.235564,-769
12:59:35.235564,-1
12:59:35.235564,21
12:59:35.235564,11008
12:59:35.235564,0
12:59:35.235564,41
12:59:35.235564,9216
12:59:35.235564,0
12:59:35.235564,31
12:59:35.235564,7168
12:59:35.235564,0
12:59:35.235564,16
12:59:35.235564,0
12:59:35.235564,0
12:59:35.235564,4
12:59:35.235564,3072
12:59:35.235564,0
12:59:35.235564,9
12:59:35.235564,2304
12:59:35.235564,0
12:59:35.235564,-26
12:59:35.235564,22783
12:59:35.235564,-1
12:59:35.235564,-308
12:59:35.235564,-29185
12:59:35.235564,-1
12:59:35.235564,562
12:59:35.235564,-2304
12:59:35.235564,4
12:59:35.235564,1220
12:59:35.235564,-30464
12:59:35.235564,1
12:59:35.235564,-190
12:59:35.235564,-27905
12:59:35.235564,-1
12:59:35.235564,-9
12:59:35.235564,-27393
12:59:35.235564,-1
12:59:35.235564,-127
12:59:35.235564,-23809
12:59:35.235564,-1
12:59:35.235564,-103
12:59:35.235564,-24833
12:59:35.235564,-1
12:59:35.235564,-74
12:59:35.235564,-17409
12:59:35.235564,-1
12:59:35.235564,-72
12:59:35.235564,-15617
12:59:35.235564,-1
12:59:35.235564,-48
12:59:35.235564,-10753
12:59:35.235564,-1
12:59:35.235564,-28
12:59:35.235564,-3329
12:59:35.235564,-1
12:59:35.235564,-4
12:59:35.235564,3327
12:59:35.235564,0
12:59:35.235564,26
12:59:35.235564,12288
12:59:35.235564,0
12:59:35.235564,72
12:59:35.235564,20224
12:59:35.235564,0
12:59:35.235564,89
12:59:35.235564,25856
12:59:35.235564,0
12:59:35.235564,91
12:59:35.235564,19712
12:59:35.235564,0
12:59:35.235564,55
12:59:35.235564,6656
12:59:35.235564,0
12:59:35.235564,7
12:59:35.235564,-512
12:59:35.235564,-1
12:59:35.235564,-19
12:59:35.235564,-10241
12:59:35.235564,-1
12:59:35.235564,-43
12:59:35.235564,-8961
12:59:35.235564,-1
12:59:35.235564,-38
12:59:35.835090,-36
12:59:35.835090,-8961
12:59:35.835090,-1
12:59:35.835090,-41
12:59:35.835090,-8961
12:59:35.835090,-1
12:59:35.835090,-19
12:59:35.835090,-2049
12:59:35.835090,-1
12:59:35.835090,-19
12:59:35.835090,-5121
12:59:35.835090,-1
12:59:35.835090,-12
12:59:35.835090,-3841
12:59:35.835090,-1
12:59:35.835090,-19
12:59:35.835090,-2817
12:59:35.835090,-1
12:59:35.835090,-9
12:59:35.835090,-2817
12:59:35.835090,-1
12:59:35.835090,-9
12:59:35.835090,-1537
12:59:35.835090,-1
12:59:35.835090,-16
12:59:35.835090,-6913
12:59:35.835090,-1
12:59:35.835090,-24
12:59:35.835090,-2817
12:59:35.835090,-1
12:59:35.835090,7
12:59:35.835090,10496
12:59:35.835090,0
12:59:35.835090,41
12:59:35.835090,4864
12:59:35.835090,0
12:59:35.835090,14
12:59:35.835090,1792
12:59:35.835090,0
12:59:35.835090,-9
12:59:35.835090,-5121
12:59:35.835090,-1
12:59:35.835090,-28
12:59:35.835090,-6401
12:59:35.835090,-1
12:59:35.835090,-28
12:59:35.835090,-6913
12:59:35.835090,-1
12:59:35.835090,-43
12:59:35.835090,25087
12:59:35.835090,-1
12:59:35.835090,-335
12:59:35.835090,-257
12:59:35.835090,-2
12:59:35.835090,328
12:59:35.835090,19968
12:59:35.835090,4
12:59:35.835090,1266
12:59:35.835090,4608
12:59:35.835090,2
12:59:35.835090,-197
12:59:35.835090,5887
12:59:35.835090,-1
12:59:35.835090,-86
12:59:35.835090,24575
12:59:35.835090,-1
12:59:35.835090,-212
12:59:35.835090,19711
12:59:35.835090,-1
12:59:35.835090,-185
12:59:35.835090,15871
12:59:35.835090,-1
12:59:35.835090,-180
12:59:35.835090,20223
12:59:35.835090,-1
12:59:35.835090,-183
12:59:35.835090,22015
12:59:35.835090,-1
12:59:35.835090,-156
12:59:35.835090,25855
12:59:35.835090,-1
12:59:35.835090,-152
12:59:35.835090,30719
12:59:35.835090,-1
12:59:35.835090,-130
12:59:35.835090,-29953
12:59:35.835090,-1
12:59:35.835090,-98
12:59:35.835090,-18689
12:59:35.835090,-1
12:59:35.835090,-48
12:59:35.835090,-8961
12:59:35.835090,-1
12:59:35.835090,-28
12:59:35.835090,-5121
12:59:35.835090,-1
12:59:35.835090,-38
12:59:35.835090,-16897
12:59:35.835090,-1
12:59:35.835090,-98
12:59:35.835090,32511
12:59:35.835090,-1
12:59:35.835090,-154
12:59:35.835090,18943
12:59:35.835090,-1
12:59:35.835090,-205
12:59:35.835090,12287
12:59:35.835090,-1
12:59:35.835090,-209
12:59:36.405098,-205
12:59:36.405098,14079
12:59:36.405098,-1
12:59:36.405098,-207
12:59:36.405098,13311
12:59:36.405098,-1
12:59:36.405098,-212
12:59:36.405098,11007
12:59:36.405098,-1
12:59:36.405098,-214
12:59:36.405098,9727
12:59:36.405098,-1
12:59:36.405098,-221
12:59:36.405098,12799
12:59:36.405098,-1
12:59:36.405098,-188
12:59:36.405098,18431
12:59:36.405098,-1
12:59:36.405098,-190
12:59:36.405098,20223
12:59:36.405098,-1
12:59:36.405098,-178
12:59:36.405098,18943
12:59:36.405098,-1
12:59:36.405098,-178
12:59:36.405098,19711
12:59:36.405098,-1
12:59:36.405098,-171
12:59:36.405098,31231
12:59:36.405098,-1
12:59:36.405098,-103
12:59:36.405098,-25601
12:59:36.405098,-1
12:59:36.405098,-120
12:59:36.405098,31999
12:59:36.405098,-1
12:59:36.405098,-135
12:59:36.405098,28927
12:59:36.405098,-1
12:59:36.405098,-152
12:59:36.405098,26879
12:59:36.405098,-1
12:59:36.405098,-154
12:59:36.405098,25855
12:59:36.405098,-1
12:59:36.405098,-161
12:59:36.405098,12799
12:59:36.405098,-1
12:59:36.405098,-366
12:59:36.405098,12287
12:59:36.405098,-2
12:59:36.405098,-120
12:59:36.405098,-26625
12:59:36.405098,2
12:59:36.405098,1230
12:59:36.405098,28160
12:59:36.405098,3
12:59:36.405098,-7
12:59:36.405098,-28673
12:59:36.405098,-2
12:59:36.405098,-219
12:59:36.405098,14591
12:59:36.405098,-1
12:59:36.405098,-287
12:59:36.405098,-3841
12:59:36.405098,-2
12:59:36.405098,-250
12:59:36.405098,-3329
12:59:36.405098,-2
12:59:36.405098,-260
12:59:36.405098,4863
12:59:36.405098,-1
12:59:36.405098,-236
12:59:36.405098,7935
12:59:36.405098,-1
12:59:36.405098,-212
12:59:36.405098,13311
12:59:36.405098,-1
12:59:36.405098,-190
12:59:36.405098,21503
12:59:36.405098,-1
12:59:36.405098,-161
12:59:36.405098,30207
12:59:36.405098,-1
12:59:36.405098,-118
