timestamp,ecg
21:20:55.112255,447
21:20:55.112255,3840
21:20:55.112255,4
21:20:55.112255,1198
21:20:55.112255,6912
21:20:55.112255,4
21:20:55.112255,985
21:20:55.112255,14848
21:20:55.112255,3
21:20:55.112255,658
21:20:55.112255,-27648
21:20:55.112255,3
21:20:55.112255,1520
21:20:55.112255,-23040
21:20:55.112255,6
21:20:55.112255,989
21:20:55.112255,29696
21:20:55.112255,0
21:20:55.112255,-206
21:20:55.112255,-22017
21:20:55.112255,-2
21:20:55.112255,-587
21:20:55.112255,3583
21:20:55.112255,-3
21:20:55.112255,-873
21:20:55.112255,-1793
21:20:55.112255,-5
21:20:55.112255,-1179
21:20:55.112255,-5377
21:20:55.112255,-6
21:20:55.112255,-1435
21:20:55.112255,-6401
21:20:55.112255,-7
21:20:55.112255,-1679
21:20:55.112255,-1537
21:20:55.112255,-8
21:20:55.112255,-1915
21:20:55.112255,6911
21:20:55.112255,-8
21:20:55.112255,-2136
21:20:55.112255,17407
21:20:55.112255,-9
21:20:55.112255,-2330
21:20:55.112255,-29953
21:20:55.112255,-10
21:20:55.112255,-2510
21:20:55.112255,-5633
21:20:55.112255,-11
21:20:55.112255,-2649
21:20:55.112255,26623
21:20:55.112255,-11
21:20:55.112255,-2768
21:20:55.112255,-769
21:20:55.112255,-12
21:20:55.112255,-2879
21:20:55.112255,-32257
21:20:55.112255,-12
21:20:55.112255,-3002
21:20:55.112255,6655
21:20:55.112255,-12
21:20:55.112255,-3080
21:20:55.112255,-12801
21:20:55.112255,-13
21:20:55.112255,-3173
21:20:55.112255,29183
21:20:55.112255,-13
21:20:55.112255,-3270
21:20:55.112255,3071
21:20:55.112255,-13
21:20:55.112255,-3322
21:20:55.112255,-2561
21:20:55.112255,-14
21:20:55.112255,-3384
21:20:55.112255,-24833
21:20:55.112255,-14
21:20:55.112255,-3469
21:20:55.112255,21759
21:20:55.112255,-14
21:20:55.112255,-3530
21:20:55.112255,4863
21:20:55.112255,-14
21:20:55.112255,-3592
21:20:55.112255,-6657
21:20:55.112255,-15
21:20:55.112255,-3649
21:20:55.112255,-30209
21:20:55.112255,-15
21:20:55.112255,-3715
21:20:55.112255,-30209
21:20:55.112255,-15
21:20:55.112255,-3729
21:20:55.112255,23039
21:20:55.112255,-15
21:20:55.112255,-3760
21:20:55.112255,12799
21:20:55.112255,-15
21:20:55.112255,-3819
21:20:55.112255,767
21:20:55.112255,-15
21:20:55.112255,-3857
21:20:55.112255,-9729
21:20:55.112255,-16
21:20:55.112255,-3900
21:20:55.112255,-18177
21:20:55.112255,-16
21:20:55.112255,-3916
21:20:55.112255,-19969
21:20:55.112255,-16
21:20:55.112255,-3928
21:20:55.693056,-3961
21:20:55.693056,29951
21:20:55.693056,-16
21:20:55.693056,-3985
21:20:55.693056,18943
21:20:55.693056,-16
21:20:55.693056,-4042
21:20:55.693056,23295
21:20:55.693056,-16
21:20:55.693056,-3990
21:20:55.693056,20735
21:20:55.693056,-16
21:20:55.693056,-4035
21:20:55.693056,17663
21:20:55.693056,-16
21:20:55.693056,-4009
21:20:55.693056,23295
21:20:55.693056,-16
21:20:55.693056,-4037
21:20:55.693056,12799
21:20:55.693056,-16
21:20:55.693056,-4016
21:20:55.693056,21247
21:20:55.693056,-16
21:20:55.693056,-4059
21:20:55.693056,-14337
21:20:55.693056,-17
21:20:55.693056,-4253
21:20:55.693056,-3585
21:20:55.693056,-17
21:20:55.693056,-3571
21:20:55.693056,24063
21:20:55.693056,-12
21:20:55.693056,-3012
21:20:55.693056,-19969
21:20:55.693056,-15
21:20:55.693056,-4096
21:20:55.693056,-1793
21:20:55.693056,-17
21:20:55.693056,-4132
21:20:55.693056,-25857
21:20:55.693056,-17
21:20:55.693056,-4163
21:20:55.693056,-10753
21:20:55.693056,-17
21:20:55.693056,-4160
21:20:55.693056,-15105
21:20:55.693056,-17
21:20:55.693056,-4144
21:20:55.693056,-12033
21:20:55.693056,-17
21:20:55.693056,-4132
21:20:55.693056,-7681
21:20:55.693056,-17
21:20:55.693056,-4130
21:20:55.693056,-5889
21:20:55.693056,-17
21:20:55.693056,-4113
21:20:55.693056,-5377
21:20:55.693056,-17
21:20:55.693056,-4108
21:20:55.693056,2047
21:20:55.693056,-16
21:20:55.693056,-4092
21:20:55.693056,1279
21:20:55.693056,-16
21:20:55.693056,-4059
21:20:55.693056,15871
21:20:55.693056,-16
21:20:55.693056,-4042
21:20:55.693056,15359
21:20:55.693056,-16
21:20:55.693056,-4002
21:20:55.693056,27391
21:20:55.693056,-16
21:20:55.693056,-3987
21:20:55.693056,-27905
21:20:55.693056,-16
21:20:55.693056,-3931
21:20:55.693056,-23553
21:20:55.693056,-16
21:20:55.693056,-3909
21:20:55.693056,-13313
21:20:55.693056,-16
21:20:55.693056,-3902
21:20:55.693056,-15105
21:20:55.693056,-16
21:20:55.693056,-3879
21:20:55.693056,-2305
21:20:55.693056,-16
21:20:55.693056,-3826
21:20:55.693056,4351
21:20:55.693056,-15
21:20:55.693056,-3824
21:20:55.693056,8447
21:20:55.693056,-15
21:20:55.693056,-3791
21:20:55.693056,15871
21:20:55.693056,-15
21:20:55.693056,-3760
21:20:55.693056,26879
21:20:55.693056,-15
21:20:55.693056,-3718
21:20:55.693056,-31489
21:20:55.693056,-15
21:20:55.693056,-3706
21:20:55.693056,-27137
21:20:55.693056,-15
21:20:55.693056,-3677
21:20:56.242413,-3663
21:20:56.242413,-12033
21:20:56.242413,-15
21:20:56.242413,-3604
21:20:56.242413,-513
21:20:56.242413,-15
21:20:56.242413,-3571
21:20:56.242413,8447
21:20:56.242413,-14
21:20:56.242413,-3530
21:20:56.242413,16895
21:20:56.242413,-14
21:20:56.242413,-3507
21:20:56.242413,21759
21:20:56.242413,-14
21:20:56.242413,-3516
21:20:56.242413,21759
21:20:56.242413,-14
21:20:56.242413,-3419
21:20:56.242413,-5377
21:20:56.242413,-14
21:20:56.242413,-3334
21:20:56.242413,-769
21:20:56.242413,-14
21:20:56.242413,-3320
21:20:56.242413,6143
21:20:56.242413,-13
21:20:56.242413,-3282
21:20:56.242413,16895
21:20:56.242413,-13
21:20:56.242413,-3256
21:20:56.242413,22271
21:20:56.242413,-13
21:20:56.242413,-3215
21:20:56.242413,31999
21:20:56.242413,-13
21:20:56.242413,-3237
21:20:56.242413,1791
21:20:56.242413,-13
21:20:56.242413,-3294
21:20:56.242413,-26113
21:20:56.242413,-12
21:20:56.242413,-2294
21:20:56.242413,8191
21:20:56.242413,-8
21:20:56.242413,-2472
21:20:56.242413,16895
21:20:56.242413,-12
21:20:56.242413,-3076
21:20:56.242413,3583
21:20:56.242413,-12
21:20:56.242413,-3140
21:20:56.242413,-12289
21:20:56.242413,-13
21:20:56.242413,-3071
21:20:56.242413,-1
21:20:56.242413,-13
21:20:56.242413,-3059
21:20:56.242413,12543
21:20:56.242413,-12
21:20:56.242413,-3014
21:20:56.242413,18175
21:20:56.242413,-12
21:20:56.242413,-2986
21:20:56.242413,24831
21:20:56.242413,-12
21:20:56.242413,-2943
21:20:56.242413,-25601
21:20:56.242413,-12
21:20:56.242413,-2912
21:20:56.242413,-20225
21:20:56.242413,-12
21:20:56.242413,-2872
21:20:56.242413,-11777
21:20:56.242413,-12
21:20:56.242413,-2839
21:20:56.242413,2815
21:20:56.242413,-11
21:20:56.242413,-2784
21:20:56.242413,13823
21:20:56.242413,-11
21:20:56.242413,-2728
21:20:56.242413,27135
21:20:56.242413,-11
21:20:56.242413,-2699
21:20:56.242413,-27393
21:20:56.242413,-11
21:20:56.242413,-2652
21:20:56.242413,-23297
21:20:56.242413,-11
21:20:56.242413,-2631
21:20:56.242413,-10497
21:20:56.242413,-11
21:20:56.242413,-2583
21:20:56.242413,511
21:20:56.242413,-10
21:20:56.242413,-2538
21:20:56.242413,7679
21:20:56.242413,-10
21:20:56.242413,-2526
21:20:56.242413,15615
21:20:56.242413,-10
21:20:56.242413,-2472
21:20:56.242413,26367
21:20:56.242413,-10
21:20:56.242413,-2446
21:20:56.242413,-31233
21:20:56.242413,-10
21:20:56.242413,-2408
21:20:56.792896,-2394
21:20:56.792896,-19713
21:20:56.792896,-10
21:20:56.792896,-2363
21:20:56.792896,-8705
21:20:56.792896,-10
21:20:56.792896,-2323
21:20:56.792896,1023
21:20:56.792896,-9
21:20:56.792896,-2278
21:20:56.792896,11775
21:20:56.792896,-9
21:20:56.792896,-2261
21:20:56.792896,13567
21:20:56.792896,-9
21:20:56.792896,-2216
21:20:56.792896,27647
21:20:56.792896,-9
21:20:56.792896,-2202
21:20:56.792896,28927
21:20:56.792896,-9
21:20:56.792896,-2188
21:20:56.792896,-30721
21:20:56.792896,-9
21:20:56.792896,-2100
21:20:56.792896,255
21:20:56.792896,-8
21:20:56.792896,-2048
21:20:56.792896,255
21:20:56.792896,-8
21:20:56.792896,-2027
21:20:56.792896,9983
21:20:56.792896,-8
21:20:56.792896,-2005
21:20:56.792896,14847
21:20:56.792896,-8
21:20:56.792896,-1977
21:20:56.792896,20991
21:20:56.792896,-8
21:20:56.792896,-1967
21:20:56.792896,4607
21:20:56.792896,-8
21:20:56.792896,-2138
21:20:56.792896,6399
21:20:56.792896,-8
21:20:56.792896,-1525
21:20:56.792896,21759
21:20:56.792896,-4
21:20:56.792896,-873
21:20:56.792896,25087
21:20:56.792896,-6
21:20:56.792896,-1887
21:20:56.792896,-22273
21:20:56.792896,-8
21:20:56.792896,-1889
21:20:56.792896,16639
21:20:56.792896,-8
21:20:56.792896,-1951
21:20:56.792896,-29441
21:20:56.792896,-8
21:20:56.792896,-1930
21:20:56.792896,-30721
21:20:56.792896,-8
21:20:56.792896,-1875
21:20:56.792896,-19201
21:20:56.792896,-8
21:20:56.792896,-1856
21:20:56.792896,-8961
21:20:56.792896,-8
21:20:56.792896,-1811
21:20:56.792896,-3329
21:20:56.792896,-8
21:20:56.792896,-1797
21:20:56.792896,3327
21:20:56.792896,-7
21:20:56.792896,-1771
21:20:56.792896,8191
21:20:56.792896,-7
21:20:56.792896,-1747
21:20:56.792896,14847
21:20:56.792896,-7
21:20:56.792896,-1724
21:20:56.792896,25599
21:20:56.792896,-7
21:20:56.792896,-1650
21:20:56.792896,-22785
21:20:56.792896,-7
21:20:56.792896,-1615
21:20:56.792896,-17409
21:20:56.792896,-7
21:20:56.792896,-1600
21:20:56.792896,-14337
21:20:56.792896,-7
21:20:56.792896,-1589
21:20:56.792896,-10753
21:20:56.792896,-7
21:20:56.792896,-1558
21:20:56.792896,-513
21:20:56.792896,-7
21:20:56.792896,-1520
21:20:56.792896,7935
21:20:56.792896,-6
21:20:56.792896,-1501
21:20:56.792896,11007
21:20:56.792896,-6
21:20:56.792896,-1475
21:20:56.792896,19455
21:20:56.792896,-6
21:20:56.792896,-1454
21:20:57.343185,-1444
21:20:57.343185,25087
21:20:57.343185,-6
21:20:57.343185,-1432
21:20:57.343185,30463
21:20:57.343185,-6
21:20:57.343185,-1406
21:20:57.343185,-30209
21:20:57.343185,-6
21:20:57.343185,-1390
21:20:57.343185,-27137
21:20:57.343185,-6
21:20:57.343185,-1378
21:20:57.343185,-16897
21:20:57.343185,-6
21:20:57.343185,-1328
21:20:57.343185,-11521
21:20:57.343185,-6
21:20:57.343185,-1314
21:20:57.343185,-5377
21:20:57.343185,-6
21:20:57.343185,-1300
21:20:57.343185,-4865
21:20:57.343185,-6
21:20:57.343185,-1297
21:20:57.343185,-5377
21:20:57.343185,-6
21:20:57.343185,-1302
21:20:57.343185,767
21:20:57.343185,-5
21:20:57.343185,-1229
21:20:57.343185,19967
21:20:57.343185,-5
21:20:57.343185,-1214
21:20:57.343185,16383
21:20:57.343185,-5
21:20:57.343185,-1210
21:20:57.343185,17663
21:20:57.343185,-5
21:20:57.343185,-1210
21:20:57.343185,22015
21:20:57.343185,-5
21:20:57.343185,-1193
21:20:57.343185,22527
21:20:57.343185,-5
21:20:57.343185,-1186
21:20:57.343185,15871
21:20:57.343185,-5
21:20:57.343185,-1330
21:20:57.343185,-16897
21:20:57.343185,-6
21:20:57.343185,-987
21:20:57.343185,-7937
21:20:57.343185,-2
21:20:57.343185,130
21:20:57.343185,-10240
21:20:57.343185,-2
21:20:57.343185,-1004
21:20:57.343185,19455
21:20:57.343185,-5
21:20:57.343185,-1172
21:20:57.343185,10495
21:20:57.343185,-5
21:20:57.343185,-1257
21:20:57.343185,17151
21:20:57.343185,-5
21:20:57.343185,-1217
21:20:57.343185,13311
21:20:57.343185,-5
21:20:57.343185,-1217
21:20:57.343185,18943
21:20:57.343185,-5
21:20:57.343185,-1203
21:20:57.343185,22527
21:20:57.343185,-5
21:20:57.343185,-1186
21:20:57.343185,24831
21:20:57.343185,-5
21:20:57.343185,-1179
21:20:57.343185,28671
21:20:57.343185,-5
21:20:57.343185,-1160
21:20:57.343185,31487
21:20:57.343185,-5
21:20:57.343185,-1150
21:20:57.343185,-26625
21:20:57.343185,-5
21:20:57.343185,-1105
21:20:57.343185,-15617
21:20:57.343185,-5
21:20:57.343185,-1065
21:20:57.343185,-4097
21:20:57.343185,-5
21:20:57.343185,-1023
21:20:57.343185,3071
21:20:57.343185,-4
21:20:57.343185,-1006
21:20:57.343185,6655
21:20:57.343185,-4
21:20:57.343185,-994
21:20:57.343185,10239
21:20:57.343185,-4
21:20:57.343185,-973
21:20:57.343185,16383
21:20:57.343185,-4
21:20:57.343185,-954
21:20:57.343185,20735
21:20:57.343185,-4
21:20:57.343185,-937
21:20:57.893270,-935
21:20:57.893270,23039
21:20:57.893270,-4
21:20:57.893270,-930
21:20:57.893270,26111
21:20:57.893270,-4
21:20:57.893270,-921
21:20:57.893270,27391
21:20:57.893270,-4
21:20:57.893270,-921
21:20:57.893270,28415
21:20:57.893270,-4
21:20:57.893270,-895
21:20:57.893270,-29185
21:20:57.893270,-4
21:20:57.893270,-880
21:20:57.893270,-27393
21:20:57.893270,-4
21:20:57.893270,-869
21:20:57.893270,-24833
21:20:57.893270,-4
21:20:57.893270,-862
21:20:57.893270,-22529
21:20:57.893270,-4
21:20:57.893270,-852
21:20:57.893270,-19457
21:20:57.893270,-4
21:20:57.893270,-835
21:20:57.893270,-15105
21:20:57.893270,-4
21:20:57.893270,-824
21:20:57.893270,-13313
21:20:57.893270,-4
21:20:57.893270,-817
21:20:57.893270,-13313
21:20:57.893270,-4
21:20:57.893270,-831
21:20:57.893270,-17665
21:20:57.893270,-4
21:20:57.893270,-828
21:20:57.893270,-5377
21:20:57.893270,-4
21:20:57.893270,-750
21:20:57.893270,6655
21:20:57.893270,-3
21:20:57.893270,-764
21:20:57.893270,-1281
21:20:57.893270,-4
21:20:57.893270,-764
21:20:57.893270,2303
21:20:57.893270,-3
21:20:57.893270,-767
21:20:57.893270,-1281
21:20:57.893270,-4
21:20:57.893270,-783
21:20:57.893270,-3585
21:20:57.893270,-4
21:20:57.893270,-772
21:20:57.893270,-18177
21:20:57.893270,-4
21:20:57.893270,-925
21:20:57.893270,13823
21:20:57.893270,-3
21:20:57.893270,-104
21:20:57.893270,-19457
21:20:57.893270,1
21:20:57.893270,236
21:20:57.893270,13056
21:20:57.893270,-2
21:20:57.893270,-786
21:20:57.893270,6143
21:20:57.893270,-3
21:20:57.893270,-807
21:20:57.893270,-28417
21:20:57.893270,-4
21:20:57.893270,-850
21:20:57.893270,-12801
21:20:57.893270,-4
21:20:57.893270,-821
21:20:57.893270,-13313
21:20:57.893270,-4
21:20:57.893270,-814
21:20:57.893270,-11521
21:20:57.893270,-4
21:20:57.893270,-807
21:20:57.893270,-3073
21:20:57.893270,-4
21:20:57.893270,-779
21:20:57.893270,-7937
21:20:57.893270,-4
21:20:57.893270,-786
21:20:57.893270,1279
21:20:57.893270,-3
21:20:57.893270,-772
21:20:57.893270,-9217
21:20:57.893270,-4
21:20:57.893270,-843
21:20:57.893270,-12289
21:20:57.893270,-4
21:20:57.893270,-734
21:20:57.893270,16383
21:20:57.893270,-3
21:20:57.893270,-715
21:20:57.893270,18175
21:20:57.893270,-3
21:20:57.893270,-682
21:20:57.893270,22271
21:20:57.893270,-3
21:20:57.893270,-689
21:20:58.542364,-693
21:20:58.542364,18175
21:20:58.542364,-3
21:20:58.542364,-700
21:20:58.542364,17663
21:20:58.542364,-3
21:20:58.542364,-696
21:20:58.542364,22271
21:20:58.542364,-3
21:20:58.542364,-665
21:20:58.542364,27135
21:20:58.542364,-3
21:20:58.542364,-663
21:20:58.542364,28415
21:20:58.542364,-3
21:20:58.542364,-651
21:20:58.542364,-32257
21:20:58.542364,-3
21:20:58.542364,-613
21:20:58.542364,-22529
21:20:58.542364,-3
21:20:58.542364,-594
21:20:58.542364,-17153
21:20:58.542364,-3
21:20:58.542364,-580
21:20:58.542364,-17665
21:20:58.542364,-3
21:20:58.542364,-580
21:20:58.542364,-17153
21:20:58.542364,-3
21:20:58.542364,-573
21:20:58.542364,-13313
21:20:58.542364,-3
21:20:58.542364,-561
21:20:58.542364,-11521
21:20:58.542364,-3
21:20:58.542364,-556
21:20:58.542364,-13313
21:20:58.542364,-3
21:20:58.542364,-580
21:20:58.542364,-15873
21:20:58.542364,-3
21:20:58.542364,-565
21:20:58.542364,-15873
21:20:58.542364,-3
21:20:58.542364,-584
21:20:58.542364,-18945
21:20:58.542364,-3
21:20:58.542364,-570
21:20:58.542364,-2561
21:20:58.542364,-3
21:20:58.542364,-487
21:20:58.542364,-4353
21:20:58.542364,-3
21:20:58.542364,-584
21:20:58.542364,-10497
21:20:58.542364,-3
21:20:58.542364,-487
21:20:58.542364,4863
21:20:58.542364,-2
21:20:58.542364,-530
21:20:58.542364,-3073
21:20:58.542364,-3
21:20:58.542364,-518
21:20:58.542364,-4865
21:20:58.542364,-3
21:20:58.542364,-587
21:20:58.542364,12031
21:20:58.542364,-3
21:20:58.542364,-727
21:20:58.542364,-9217
21:20:58.542364,-2
21:20:58.542364,367
21:20:58.542364,22272
21:20:58.542364,2
21:20:58.542364,97
21:20:58.542364,8704
21:20:58.542364,-2
21:20:58.542364,-547
21:20:58.542364,-2561
21:20:58.542364,-3
21:20:58.542364,-637
21:20:58.542364,-32257
21:20:58.542364,-3
21:20:58.542364,-589
21:20:58.542364,-23041
21:20:58.542364,-3
21:20:58.542364,-608
21:20:58.542364,-18945
21:20:58.542364,-3
21:20:58.542364,-592
21:20:58.542364,-21249
21:20:58.542364,-3
21:20:58.542364,-582
21:20:58.542364,-16385
21:20:58.542364,-3
21:20:58.542364,-575
21:20:58.542364,-14593
21:20:58.542364,-3
21:20:58.542364,-570
21:20:58.542364,-15361
21:20:58.542364,-3
21:20:58.542364,-568
21:20:58.542364,-12801
21:20:58.542364,-3
21:20:58.542364,-556
21:20:58.542364,-7937
21:20:58.542364,-3
21:20:58.542364,-528
21:20:59.043344,-511
21:20:59.043344,3583
21:20:59.043344,-2
21:20:59.043344,-487
21:20:59.043344,7167
21:20:59.043344,-2
21:20:59.043344,-494
21:20:59.043344,1023
21:20:59.043344,-2
21:20:59.043344,-513
21:20:59.043344,1791
21:20:59.043344,-2
21:20:59.043344,-499
21:20:59.043344,5375
21:20:59.043344,-2
21:20:59.043344,-487
21:20:59.043344,7679
21:20:59.043344,-2
21:20:59.043344,-480
21:20:59.043344,7679
21:20:59.043344,-2
21:20:59.043344,-480
21:20:59.043344,8447
21:20:59.043344,-2
21:20:59.043344,-483
21:20:59.043344,9471
21:20:59.043344,-2
21:20:59.043344,-466
21:20:59.043344,12543
21:20:59.043344,-2
21:20:59.043344,-466
21:20:59.043344,13311
21:20:59.043344,-2
21:20:59.043344,-457
21:20:59.043344,15103
21:20:59.043344,-2
21:20:59.043344,-449
21:20:59.043344,17407
21:20:59.043344,-2
21:20:59.043344,-445
21:20:59.043344,18687
21:20:59.043344,-2
21:20:59.043344,-438
21:20:59.043344,18687
21:20:59.043344,-2
21:20:59.043344,-440
21:20:59.043344,17407
21:20:59.043344,-2
21:20:59.043344,-454
21:20:59.043344,12543
21:20:59.043344,-2
21:20:59.043344,-464
21:20:59.043344,19199
21:20:59.043344,-2
21:20:59.043344,-395
21:20:59.043344,-32257
21:20:59.043344,-2
21:20:59.043344,-407
21:20:59.043344,23039
21:20:59.043344,-2
21:20:59.043344,-414
21:20:59.043344,26623
21:20:59.043344,-2
21:20:59.043344,-409
21:20:59.043344,26623
21:20:59.043344,-2
21:20:59.043344,-407
21:20:59.043344,25855
21:20:59.043344,-2
21:20:59.043344,-428
21:20:59.043344,511
21:20:59.043344,-2
21:20:59.043344,-620
21:20:59.043344,7679
21:20:59.043344,-2
21:20:59.043344,97
21:20:59.043344,-3840
21:20:59.043344,2
21:20:59.043344,736
21:20:59.043344,5888
21:20:59.043344,0
21:20:59.043344,-454
21:20:59.043344,15103
21:20:59.043344,-2
21:20:59.043344,-487
21:20:59.043344,-14593
21:20:59.043344,-3
21:20:59.043344,-539
21:20:59.043344,-1281
21:20:59.043344,-3
21:20:59.043344,-542
21:20:59.043344,-4865
21:20:59.043344,-3
21:20:59.043344,-516
21:20:59.043344,-1793
21:20:59.043344,-3
21:20:59.043344,-520
21:20:59.043344,-1
21:20:59.043344,-3
21:20:59.043344,-516
21:20:59.043344,-769
21:20:59.043344,-3
21:20:59.043344,-513
21:20:59.043344,-769
21:20:59.043344,-3
21:20:59.043344,-520
21:20:59.043344,-3073
21:20:59.043344,-3
21:20:59.043344,-523
21:20:59.593296,-516
21:20:59.593296,2303
21:20:59.593296,-2
21:20:59.593296,-485
21:20:59.593296,12031
21:20:59.593296,-2
21:20:59.593296,-452
21:20:59.593296,18687
21:20:59.593296,-2
21:20:59.593296,-431
21:20:59.593296,21759
21:20:59.593296,-2
21:20:59.593296,-426
21:20:59.593296,25343
21:20:59.593296,-2
21:20:59.593296,-400
21:20:59.593296,30207
21:20:59.593296,-2
21:20:59.593296,-390
21:20:59.593296,-31745
21:20:59.593296,-2
21:20:59.593296,-376
21:20:59.593296,-30465
21:20:59.593296,-2
21:20:59.593296,-374
21:20:59.593296,-29185
21:20:59.593296,-2
21:20:59.593296,-374
21:20:59.593296,-30465
21:20:59.593296,-2
21:20:59.593296,-374
21:20:59.593296,-30977
21:20:59.593296,-2
21:20:59.593296,-378
21:20:59.593296,-30465
21:20:59.593296,-2
21:20:59.593296,-376
21:20:59.593296,-30465
21:20:59.593296,-2
21:20:59.593296,-374
21:20:59.593296,-29185
21:20:59.593296,-2
21:20:59.593296,-367
21:20:59.593296,-27393
21:20:59.593296,-2
21:20:59.593296,-362
21:20:59.593296,-26113
21:20:59.593296,-2
21:20:59.593296,-359
21:20:59.593296,-25601
21:20:59.593296,-2
21:20:59.593296,-357
21:20:59.593296,-25089
21:20:59.593296,-2
21:20:59.593296,-352
21:20:59.593296,-23809
21:20:59.593296,-2
21:20:59.593296,-348
21:20:59.593296,-24321
21:20:59.593296,-2
21:20:59.593296,-362
21:20:59.593296,-29953
21:20:59.593296,-2
21:20:59.593296,-381
21:20:59.593296,-32257
21:20:59.593296,-2
21:20:59.593296,-367
21:20:59.593296,-17665
21:20:59.593296,-2
21:20:59.593296,-305
21:20:59.593296,-16641
21:20:59.593296,-2
21:20:59.593296,-341
21:20:59.593296,-20737
21:20:59.593296,-2
21:20:59.593296,-336
21:20:59.593296,-20225
21:20:59.593296,-2
21:20:59.593296,-336
21:20:59.593296,-20737
21:20:59.593296,-2
21:20:59.593296,-338
21:20:59.593296,-25601
21:20:59.593296,-2
21:20:59.593296,-440
21:20:59.593296,-7425
21:20:59.593296,-3
21:20:59.593296,-397
21:20:59.593296,-14593
21:20:59.593296,0
21:20:59.593296,880
21:20:59.593296,21504
21:20:59.593296,3
21:20:59.593296,108
21:20:59.593296,31744
21:20:59.593296,-2
21:20:59.593296,-393
21:20:59.593296,23039
21:20:59.593296,-2
21:20:59.593296,-499
21:20:59.593296,10239
21:20:59.593296,-2
21:20:59.593296,-454
21:20:59.593296,10239
21:20:59.593296,-2
21:20:59.593296,-468
21:20:59.593296,14335
21:20:59.593296,-2
21:20:59.593296,-459
21:21:00.143415,-457
21:21:00.143415,16383
21:21:00.143415,-2
21:21:00.143415,-452
21:21:00.143415,15103
21:21:00.143415,-2
21:21:00.143415,-457
21:21:00.143415,13823
21:21:00.143415,-2
21:21:00.143415,-461
21:21:00.143415,13311
21:21:00.143415,-2
21:21:00.143415,-457
21:21:00.143415,16895
21:21:00.143415,-2
21:21:00.143415,-438
21:21:00.143415,23039
21:21:00.143415,-2
21:21:00.143415,-402
21:21:00.143415,32511
21:21:00.143415,-2
21:21:00.143415,-374
21:21:00.143415,-26881
21:21:00.143415,-2
21:21:00.143415,-359
21:21:00.143415,-25089
21:21:00.143415,-2
21:21:00.143415,-350
21:21:00.143415,-22017
21:21:00.143415,-2
21:21:00.143415,-338
21:21:00.143415,-18945
21:21:00.143415,-2
21:21:00.143415,-326
21:21:00.143415,-16641
21:21:00.143415,-2
21:21:00.143415,-319
21:21:00.143415,-15873
21:21:00.143415,-2
21:21:00.143415,-319
21:21:00.143415,-15873
21:21:00.143415,-2
21:21:00.143415,-319
21:21:00.143415,-15873
21:21:00.143415,-2
21:21:00.143415,-317
21:21:00.143415,-15873
21:21:00.143415,-2
21:21:00.143415,-319
21:21:00.143415,-15873
21:21:00.143415,-2
21:21:00.143415,-317
21:21:00.143415,-15361
21:21:00.143415,-2
21:21:00.143415,-319
21:21:00.143415,-15873
21:21:00.143415,-2
21:21:00.143415,-314
21:21:00.143415,-14081
21:21:00.143415,-2
21:21:00.143415,-312
21:21:00.143415,-12801
21:21:00.143415,-2
21:21:00.143415,-307
21:21:00.143415,-12801
21:21:00.143415,-2
21:21:00.143415,-305
21:21:00.143415,-11777
21:21:00.143415,-2
21:21:00.143415,-300
21:21:00.143415,-10497
21:21:00.143415,-2
21:21:00.143415,-296
21:21:00.143415,-10497
21:21:00.143415,-2
21:21:00.143415,-300
21:21:00.143415,-11009
21:21:00.143415,-2
21:21:00.143415,-296
21:21:00.143415,-9217
21:21:00.143415,-2
21:21:00.143415,-296
21:21:00.143415,-9985
21:21:00.143415,-2
21:21:00.143415,-293
21:21:00.143415,-9217
21:21:00.143415,-2
21:21:00.143415,-293
21:21:00.143415,-8705
21:21:00.143415,-2
21:21:00.143415,-293
21:21:00.143415,-8705
21:21:00.143415,-2
21:21:00.143415,-291
21:21:00.143415,-8705
21:21:00.143415,-2
21:21:00.143415,-291
21:21:00.143415,-9217
21:21:00.143415,-2
21:21:00.143415,-296
21:21:00.143415,-9985
21:21:00.143415,-2
21:21:00.143415,-296
21:21:00.143415,-12801
21:21:00.143415,-2
21:21:00.143415,-322
21:21:00.143415,-15873
21:21:00.143415,-2
21:21:00.143415,-288
21:21:00.742195,-260
21:21:00.742195,-769
21:21:00.742195,-2
21:21:00.742195,-274
21:21:00.742195,-6145
21:21:00.742195,-2
21:21:00.742195,-284
21:21:00.742195,-6145
21:21:00.742195,-2
21:21:00.742195,-272
21:21:00.742195,-2561
21:21:00.742195,-2
21:21:00.742195,-265
21:21:00.742195,-2561
21:21:00.742195,-2
21:21:00.742195,-312
21:21:00.742195,22271
21:21:00.742195,-2
21:21:00.742195,-461
21:21:00.742195,30207
21:21:00.742195,-1
21:21:00.742195,542
21:21:00.742195,-9472
21:21:00.742195,3
21:21:00.742195,599
21:21:00.742195,-30720
21:21:00.742195,-1
21:21:00.742195,-345
21:21:00.742195,-14593
21:21:00.742195,-2
21:21:00.742195,-397
21:21:00.742195,20991
21:21:00.742195,-2
21:21:00.742195,-386
21:21:00.742195,30207
21:21:00.742195,-2
21:21:00.742195,-412
21:21:00.742195,30207
21:21:00.742195,-2
21:21:00.742195,-388
21:21:00.742195,31487
21:21:00.742195,-2
21:21:00.742195,-386
21:21:00.742195,31999
21:21:00.742195,-2
21:21:00.742195,-390
21:21:00.742195,31999
21:21:00.742195,-2
21:21:00.742195,-383
21:21:00.742195,31487
21:21:00.742195,-2
21:21:00.742195,-395
21:21:00.742195,30719
21:21:00.742195,-2
21:21:00.742195,-390
21:21:00.742195,32511
21:21:00.742195,-2
21:21:00.742195,-371
21:21:00.742195,-24321
21:21:00.742195,-2
21:21:00.742195,-341
21:21:00.742195,-19457
21:21:00.742195,-2
21:21:00.742195,-322
21:21:00.742195,-13569
21:21:00.742195,-2
21:21:00.742195,-307
21:21:00.742195,-13569
21:21:00.742195,-2
21:21:00.742195,-305
21:21:00.742195,-8705
21:21:00.742195,-2
21:21:00.742195,-286
21:21:00.742195,-6913
21:21:00.742195,-2
21:21:00.742195,-279
21:21:00.742195,-4353
21:21:00.742195,-2
21:21:00.742195,-272
21:21:00.742195,-3841
21:21:00.742195,-2
21:21:00.742195,-274
21:21:00.742195,-5121
21:21:00.742195,-2
21:21:00.742195,-277
21:21:00.742195,-5633
21:21:00.742195,-2
21:21:00.742195,-279
21:21:00.742195,-5633
21:21:00.742195,-2
21:21:00.742195,-279
21:21:00.742195,-6145
21:21:00.742195,-2
21:21:00.742195,-281
21:21:00.742195,-6145
21:21:00.742195,-2
21:21:00.742195,-277
21:21:00.742195,-4353
21:21:00.742195,-2
21:21:00.742195,-277
21:21:00.742195,-5633
21:21:00.742195,-2
21:21:00.742195,-279
21:21:00.742195,-5633
21:21:00.742195,-2
21:21:00.742195,-272
21:21:00.742195,-2561
21:21:00.742195,-2
21:21:00.742195,-267
21:21:01.243228,-269
21:21:01.243228,-1281
21:21:01.243228,-2
21:21:01.243228,-258
21:21:01.243228,-769
21:21:01.243228,-2
21:21:01.243228,-262
21:21:01.243228,511
21:21:01.243228,-1
21:21:01.243228,-253
21:21:01.243228,1023
21:21:01.243228,-1
21:21:01.243228,-248
21:21:01.243228,3583
21:21:01.243228,-1
21:21:01.243228,-246
21:21:01.243228,4095
21:21:01.243228,-1
21:21:01.243228,-236
21:21:01.243228,4095
21:21:01.243228,-1
21:21:01.243228,-246
21:21:01.243228,3583
21:21:01.243228,-1
21:21:01.243228,-243
21:21:01.243228,3583
21:21:01.243228,-1
21:21:01.243228,-246
21:21:01.243228,1535
21:21:01.243228,-1
21:21:01.243228,-260
21:21:01.243228,-3073
21:21:01.243228,-2
21:21:01.243228,-269
21:21:01.243228,2303
21:21:01.243228,-1
21:21:01.243228,-217
21:21:01.243228,13055
21:21:01.243228,-1
21:21:01.243228,-217
21:21:01.243228,5887
21:21:01.243228,-1
21:21:01.243228,-239
21:21:01.243228,5375
21:21:01.243228,-1
21:21:01.243228,-234
21:21:01.243228,5375
21:21:01.243228,-1
21:21:01.243228,-236
21:21:01.243228,4607
21:21:01.243228,-1
21:21:01.243228,-267
21:21:01.243228,-28673
21:21:01.243228,-2
21:21:01.243228,-449
21:21:01.243228,7167
21:21:01.243228,-1
21:21:01.243228,357
21:21:01.243228,25088
21:21:01.243228,3
21:21:01.243228,679
21:21:01.243228,512
21:21:01.243228,0
21:21:01.243228,-310
21:21:01.243228,-2049
21:21:01.243228,-2
21:21:01.243228,-338
21:21:01.243228,27903
21:21:01.243228,-2
21:21:01.243228,-357
21:21:01.243228,-24321
21:21:01.243228,-2
21:21:01.243228,-376
21:21:01.243228,-27393
21:21:01.243228,-2
21:21:01.243228,-352
21:21:01.243228,-25601
21:21:01.243228,-2
21:21:01.243228,-352
21:21:01.243228,-23809
21:21:01.243228,-2
21:21:01.243228,-352
21:21:01.243228,-23809
21:21:01.243228,-2
21:21:01.243228,-350
21:21:01.243228,-24321
21:21:01.243228,-2
21:21:01.243228,-355
21:21:01.243228,-25089
21:21:01.243228,-2
21:21:01.243228,-357
21:21:01.243228,-25089
21:21:01.243228,-2
21:21:01.243228,-343
21:21:01.243228,-18433
21:21:01.243228,-2
21:21:01.243228,-312
21:21:01.243228,-10497
21:21:01.243228,-2
21:21:01.243228,-284
21:21:01.243228,-6145
21:21:01.243228,-2
21:21:01.243228,-284
21:21:01.243228,-6913
21:21:01.243228,-2
21:21:01.243228,-281
21:21:01.243228,-5121
21:21:01.243228,-2
21:21:01.243228,-272
21:21:01.842433,-265
21:21:01.842433,-1281
21:21:01.842433,-2
21:21:01.842433,-260
21:21:01.842433,1535
21:21:01.842433,-1
21:21:01.842433,-243
21:21:01.842433,2815
21:21:01.842433,-1
21:21:01.842433,-251
21:21:01.842433,2303
21:21:01.842433,-1
21:21:01.842433,-251
21:21:01.842433,1535
21:21:01.842433,-1
21:21:01.842433,-251
21:21:01.842433,1535
21:21:01.842433,-1
21:21:01.842433,-248
21:21:01.842433,2303
21:21:01.842433,-1
21:21:01.842433,-246
21:21:01.842433,4095
21:21:01.842433,-1
21:21:01.842433,-239
21:21:01.842433,5887
21:21:01.842433,-1
21:21:01.842433,-232
21:21:01.842433,5887
21:21:01.842433,-1
21:21:01.842433,-234
21:21:01.842433,6399
21:21:01.842433,-1
21:21:01.842433,-232
21:21:01.842433,6399
21:21:01.842433,-1
21:21:01.842433,-232
21:21:01.842433,6399
21:21:01.842433,-1
21:21:01.842433,-232
21:21:01.842433,6399
21:21:01.842433,-1
21:21:01.842433,-229
21:21:01.842433,7167
21:21:01.842433,-1
21:21:01.842433,-229
21:21:01.842433,7167
21:21:01.842433,-1
21:21:01.842433,-232
21:21:01.842433,6399
21:21:01.842433,-1
21:21:01.842433,-234
21:21:01.842433,5887
21:21:01.842433,-1
21:21:01.842433,-232
21:21:01.842433,6399
21:21:01.842433,-1
21:21:01.842433,-234
21:21:01.842433,5887
21:21:01.842433,-1
21:21:01.842433,-234
21:21:01.842433,5887
21:21:01.842433,-1
21:21:01.842433,-234
21:21:01.842433,5887
21:21:01.842433,-1
21:21:01.842433,-239
21:21:01.842433,4095
21:21:01.842433,-1
21:21:01.842433,-248
21:21:01.842433,-1281
21:21:01.842433,-2
21:21:01.842433,-269
21:21:01.842433,511
21:21:01.842433,-1
21:21:01.842433,-220
21:21:01.842433,15103
21:21:01.842433,-1
21:21:01.842433,-206
21:21:01.842433,10239
21:21:01.842433,-1
21:21:01.842433,-227
21:21:01.842433,7679
21:21:01.842433,-1
21:21:01.842433,-224
21:21:01.842433,8447
21:21:01.842433,-1
21:21:01.842433,-222
21:21:01.842433,8959
21:21:01.842433,-1
21:21:01.842433,-236
21:21:01.842433,-15361
21:21:01.842433,-2
21:21:01.842433,-423
21:21:01.842433,-11777
21:21:01.842433,-2
21:21:01.842433,258
21:21:01.842433,-22784
21:21:01.842433,3
21:21:01.842433,961
21:21:01.842433,-2048
21:21:01.842433,0
21:21:01.842433,-272
21:21:01.842433,-7937
21:21:01.842433,-2
21:21:01.842433,-310
21:21:01.842433,30207
21:21:01.842433,-2
21:21:01.842433,-376
21:21:02.393502,-355
21:21:02.393502,-29953
21:21:02.393502,-2
21:21:02.393502,-367
21:21:02.393502,-24321
21:21:02.393502,-2
21:21:02.393502,-357
21:21:02.393502,-25089
21:21:02.393502,-2
21:21:02.393502,-350
21:21:02.393502,-23809
21:21:02.393502,-2
21:21:02.393502,-350
21:21:02.393502,-22017
21:21:02.393502,-2
21:21:02.393502,-345
21:21:02.393502,-25089
21:21:02.393502,-2
21:21:02.393502,-357
21:21:02.393502,-25601
21:21:02.393502,-2
21:21:02.393502,-357
21:21:02.393502,-23809
21:21:02.393502,-2
21:21:02.393502,-336
21:21:02.393502,-16641
21:21:02.393502,-2
21:21:02.393502,-307
21:21:02.393502,-7937
21:21:02.393502,-2
21:21:02.393502,-274
21:21:02.393502,-2561
21:21:02.393502,-2
21:21:02.393502,-265
21:21:02.393502,-257
21:21:02.393502,-2
21:21:02.393502,-248
21:21:02.393502,4095
21:21:02.393502,-1
21:21:02.393502,-236
21:21:02.393502,6399
21:21:02.393502,-1
21:21:02.393502,-227
21:21:02.393502,8447
21:21:02.393502,-1
21:21:02.393502,-224
21:21:02.393502,8447
21:21:02.393502,-1
21:21:02.393502,-222
21:21:02.393502,9471
21:21:02.393502,-1
21:21:02.393502,-220
21:21:02.393502,8959
21:21:02.393502,-1
21:21:02.393502,-227
21:21:02.393502,7679
21:21:02.393502,-1
21:21:02.393502,-224
21:21:02.393502,8447
21:21:02.393502,-1
21:21:02.393502,-222
21:21:02.393502,9471
21:21:02.393502,-1
21:21:02.393502,-220
21:21:02.393502,9471
21:21:02.393502,-1
21:21:02.393502,-217
21:21:02.393502,10239
21:21:02.393502,-1
21:21:02.393502,-217
21:21:02.393502,10239
21:21:02.393502,-1
21:21:02.393502,-217
21:21:02.393502,10751
21:21:02.393502,-1
21:21:02.393502,-215
21:21:02.393502,12031
21:21:02.393502,-1
21:21:02.393502,-210
21:21:02.393502,12543
21:21:02.393502,-1
21:21:02.393502,-208
21:21:02.393502,12543
21:21:02.393502,-1
21:21:02.393502,-208
21:21:02.393502,13055
21:21:02.393502,-1
21:21:02.393502,-203
21:21:02.393502,13055
21:21:02.393502,-1
21:21:02.393502,-206
21:21:02.393502,13055
21:21:02.393502,-1
21:21:02.393502,-206
21:21:02.393502,13055
21:21:02.393502,-1
21:21:02.393502,-206
21:21:02.393502,12543
21:21:02.393502,-1
21:21:02.393502,-210
21:21:02.393502,12031
21:21:02.393502,-1
21:21:02.393502,-206
21:21:02.393502,13055
21:21:02.393502,-1
21:21:02.393502,-206
21:21:02.393502,12543
21:21:02.393502,-1
21:21:02.393502,-208
21:21:02.992728,-210
21:21:02.992728,12031
21:21:02.992728,-1
21:21:02.992728,-210
21:21:02.992728,10751
21:21:02.992728,-1
21:21:02.992728,-222
21:21:02.992728,5375
21:21:02.992728,-1
21:21:02.992728,-241
21:21:02.992728,10239
21:21:02.992728,-1
21:21:02.992728,-177
21:21:02.992728,24063
21:21:02.992728,-1
21:21:02.992728,-172
21:21:02.992728,17919
21:21:02.992728,-1
21:21:02.992728,-194
21:21:02.992728,16127
21:21:02.992728,-1
21:21:02.992728,-191
21:21:02.992728,16895
21:21:02.992728,-1
21:21:02.992728,-194
21:21:02.992728,15615
21:21:02.992728,-1
21:21:02.992728,-220
21:21:02.992728,-14081
21:21:02.992728,-2
21:21:02.992728,-395
21:21:02.992728,12031
21:21:02.992728,-1
21:21:02.992728,393
21:21:02.992728,-5888
21:21:02.992728,3
21:21:02.992728,880
21:21:02.992728,-26880
21:21:02.992728,0
21:21:02.992728,-262
21:21:02.992728,3583
21:21:02.992728,-1
21:21:02.992728,-288
21:21:02.992728,-27393
21:21:02.992728,-2
21:21:02.992728,-331
21:21:02.992728,-15873
21:21:02.992728,-2
21:21:02.992728,-343
21:21:02.992728,-19457
21:21:02.992728,-2
21:21:02.992728,-322
21:21:02.992728,-16641
21:21:02.992728,-2
21:21:02.992728,-317
21:21:02.992728,-14593
21:21:02.992728,-2
21:21:02.992728,-314
21:21:02.992728,-14081
21:21:02.992728,-2
21:21:02.992728,-310
21:21:02.992728,-13569
21:21:02.992728,-2
21:21:02.992728,-314
21:21:02.992728,-15873
21:21:02.992728,-2
21:21:02.992728,-322
21:21:02.992728,-16641
21:21:02.992728,-2
21:21:02.992728,-317
21:21:02.992728,-10497
21:21:02.992728,-2
21:21:02.992728,-279
21:21:02.992728,-5633
21:21:02.992728,-2
21:21:02.992728,-255
21:21:02.992728,9471
21:21:02.992728,-1
21:21:02.992728,-227
21:21:02.992728,3583
21:21:02.992728,-1
21:21:02.992728,-232
21:21:02.992728,10239
21:21:02.992728,-1
21:21:02.992728,-217
21:21:02.992728,12031
21:21:02.992728,-1
21:21:02.992728,-206
21:21:02.992728,11263
21:21:02.992728,-1
21:21:02.992728,-210
21:21:02.992728,15615
21:21:02.992728,-1
21:21:02.992728,-187
21:21:02.992728,19967
21:21:02.992728,-1
21:21:02.992728,-194
21:21:02.992728,12543
21:21:02.992728,-1
21:21:02.992728,-203
21:21:02.992728,14335
21:21:02.992728,-1
21:21:02.992728,-203
21:21:02.992728,8959
21:21:02.992728,-1
21:21:02.992728,-236
21:21:02.992728,16127
21:21:02.992728,-1
21:21:02.992728,-168
21:21:03.592446,-196
21:21:03.592446,14335
21:21:03.592446,-1
21:21:03.592446,-177
21:21:03.592446,19199
21:21:03.592446,-1
21:21:03.592446,-201
21:21:03.592446,16895
21:21:03.592446,-1
21:21:03.592446,-165
21:21:03.592446,22271
21:21:03.592446,-1
21:21:03.592446,-191
21:21:03.592446,17919
21:21:03.592446,-1
21:21:03.592446,-170
21:21:03.592446,20991
21:21:03.592446,-1
21:21:03.592446,-179
21:21:03.592446,21759
21:21:03.592446,-1
21:21:03.592446,-165
21:21:03.592446,26623
21:21:03.592446,-1
21:21:03.592446,-151
21:21:03.592446,23551
21:21:03.592446,-1
21:21:03.592446,-175
21:21:03.592446,19967
21:21:03.592446,-1
21:21:03.592446,-170
21:21:03.592446,24063
21:21:03.592446,-1
21:21:03.592446,-172
21:21:03.592446,22271
21:21:03.592446,-1
21:21:03.592446,-158
21:21:03.592446,27135
21:21:03.592446,-1
21:21:03.592446,-163
21:21:03.592446,20479
21:21:03.592446,-1
21:21:03.592446,-165
21:21:03.592446,23551
21:21:03.592446,-1
21:21:03.592446,-191
21:21:03.592446,16127
21:21:03.592446,-1
21:21:03.592446,-179
21:21:03.592446,20479
21:21:03.592446,-1
21:21:03.592446,-179
21:21:03.592446,18687
21:21:03.592446,-1
21:21:03.592446,-175
21:21:03.592446,25855
21:21:03.592446,-1
21:21:03.592446,-149
21:21:03.592446,25855
21:21:03.592446,-1
21:21:03.592446,-161
21:21:03.592446,27135
21:21:03.592446,-1
21:21:03.592446,-144
21:21:03.592446,27647
21:21:03.592446,-1
21:21:03.592446,-158
21:21:03.592446,23551
21:21:03.592446,-1
21:21:03.592446,-168
21:21:03.592446,11263
21:21:03.592446,-1
21:21:03.592446,-336
21:21:03.592446,-27393
21:21:03.592446,-2
21:21:03.592446,-35
21:21:03.592446,26623
21:21:03.592446,2
21:21:03.592446,1004
21:21:03.592446,20480
21:21:03.592446,2
21:21:03.592446,-73
21:21:03.592446,7679
21:21:03.592446,-1
21:21:03.592446,-203
21:21:03.592446,-16641
21:21:03.592446,-2
21:21:03.592446,-343
21:21:03.592446,-6913
21:21:03.592446,-2
21:21:03.592446,-300
21:21:03.592446,-15361
21:21:03.592446,-2
21:21:03.592446,-293
21:21:03.592446,-9217
21:21:03.592446,-2
21:21:03.592446,-293
21:21:03.592446,-2561
21:21:03.592446,-2
21:21:03.592446,-281
21:21:03.592446,-10497
21:21:03.592446,-2
21:21:03.592446,-265
21:21:03.592446,-2049
21:21:03.592446,-2
21:21:03.592446,-300
21:21:03.592446,-7937
21:21:03.592446,-2
21:21:03.592446,-277
21:21:04.241731,-291
21:21:04.241731,-9217
21:21:04.241731,-2
21:21:04.241731,-284
21:21:04.241731,-4353
21:21:04.241731,-2
21:21:04.241731,-260
21:21:04.241731,2815
21:21:04.241731,-1
21:21:04.241731,-243
21:21:04.241731,1535
21:21:04.241731,-1
21:21:04.241731,-241
21:21:04.241731,8447
21:21:04.241731,-1
21:21:04.241731,-224
21:21:04.241731,7167
21:21:04.241731,-1
21:21:04.241731,-224
21:21:04.241731,12543
21:21:04.241731,-1
21:21:04.241731,-203
21:21:04.241731,7679
21:21:04.241731,-1
21:21:04.241731,-222
21:21:04.241731,21759
21:21:04.241731,-1
21:21:04.241731,-182
21:21:04.241731,7167
21:21:04.241731,-1
21:21:04.241731,-215
21:21:04.241731,17919
21:21:04.241731,-1
21:21:04.241731,-198
21:21:04.241731,15103
21:21:04.241731,-1
21:21:04.241731,-189
21:21:04.241731,14335
21:21:04.241731,-1
21:21:04.241731,-208
21:21:04.241731,17919
21:21:04.241731,-1
21:21:04.241731,-179
21:21:04.241731,16895
21:21:04.241731,-1
21:21:04.241731,-184
21:21:04.241731,19967
21:21:04.241731,-1
21:21:04.241731,-187
21:21:04.241731,19967
21:21:04.241731,-1
21:21:04.241731,-175
21:21:04.241731,18687
21:21:04.241731,-1
21:21:04.241731,-184
21:21:04.241731,18687
21:21:04.241731,-1
21:21:04.241731,-191
21:21:04.241731,17407
21:21:04.241731,-1
21:21:04.241731,-182
21:21:04.241731,19967
21:21:04.241731,-1
21:21:04.241731,-187
21:21:04.241731,19199
21:21:04.241731,-1
21:21:04.241731,-177
21:21:04.241731,16127
21:21:04.241731,-1
21:21:04.241731,-194
21:21:04.241731,20991
21:21:04.241731,-1
21:21:04.241731,-187
21:21:04.241731,14335
21:21:04.241731,-1
21:21:04.241731,-187
21:21:04.241731,19967
21:21:04.241731,-1
21:21:04.241731,-194
21:21:04.241731,15103
21:21:04.241731,-1
21:21:04.241731,-196
21:21:04.241731,13823
21:21:04.241731,-1
21:21:04.241731,-206
21:21:04.241731,11263
21:21:04.241731,-1
21:21:04.241731,-213
21:21:04.241731,20479
21:21:04.241731,-1
21:21:04.241731,-139
21:21:04.241731,29439
21:21:04.241731,-1
21:21:04.241731,-175
21:21:04.241731,20991
21:21:04.241731,-1
21:21:04.241731,-165
21:21:04.241731,17919
21:21:04.241731,-1
21:21:04.241731,-191
21:21:04.241731,22271
21:21:04.241731,-1
21:21:04.241731,-179
21:21:04.241731,12543
21:21:04.241731,-1
21:21:04.241731,-267
21:21:04.241731,-30465
21:21:04.241731,-2
21:21:04.241731,-310
21:21:04.788117,175
21:21:04.788117,22016
21:21:04.788117,3
21:21:04.788117,1008
21:21:04.788117,32000
21:21:04.788117,1
21:21:04.788117,-208
21:21:04.788117,-5633
21:21:04.788117,-2
21:21:04.788117,-288
21:21:04.788117,-29953
21:21:04.788117,-2
21:21:04.788117,-362
21:21:04.788117,-20737
21:21:04.788117,-2
21:21:04.788117,-362
21:21:04.788117,-25089
21:21:04.788117,-2
21:21:04.788117,-336
21:21:04.788117,-18945
21:21:04.788117,-2
21:21:04.788117,-319
21:21:04.788117,-14593
21:21:04.788117,-2
21:21:04.788117,-314
21:21:04.788117,-12289
21:21:04.788117,-2
21:21:04.788117,-303
21:21:04.788117,-16641
21:21:04.788117,-2
21:21:04.788117,-329
21:21:04.788117,-13569
21:21:04.788117,-2
21:21:04.788117,-310
21:21:04.788117,-16641
21:21:04.788117,-2
21:21:04.788117,-314
21:21:04.788117,-9985
21:21:04.788117,-2
21:21:04.788117,-284
21:21:04.788117,-2561
21:21:04.788117,-2
21:21:04.788117,-251
21:21:04.788117,4607
21:21:04.788117,-1
21:21:04.788117,-232
21:21:04.788117,7167
21:21:04.788117,-1
21:21:04.788117,-227
21:21:04.788117,9471
21:21:04.788117,-1
21:21:04.788117,-213
21:21:04.788117,12543
21:21:04.788117,-1
21:21:04.788117,-206
21:21:04.788117,14335
21:21:04.788117,-1
21:21:04.788117,-198
21:21:04.788117,15615
21:21:04.788117,-1
21:21:04.788117,-194
21:21:04.788117,16895
21:21:04.788117,-1
21:21:04.788117,-191
21:21:04.788117,16127
21:21:04.788117,-1
21:21:04.788117,-196
21:21:04.788117,16895
21:21:04.788117,-1
21:21:04.788117,-189
21:21:04.788117,16895
21:21:04.788117,-1
21:21:04.788117,-191
21:21:04.788117,17919
21:21:04.788117,-1
21:21:04.788117,-189
21:21:04.788117,17407
21:21:04.788117,-1
21:21:04.788117,-184
21:21:04.788117,19199
21:21:04.788117,-1
21:21:04.788117,-182
21:21:04.788117,19967
21:21:04.788117,-1
21:21:04.788117,-177
21:21:04.788117,19967
21:21:04.788117,-1
21:21:04.788117,-179
21:21:04.788117,19967
21:21:04.788117,-1
21:21:04.788117,-179
21:21:04.788117,20479
21:21:04.788117,-1
21:21:04.788117,-177
21:21:04.788117,19199
21:21:04.788117,-1
21:21:04.788117,-184
21:21:04.788117,18687
21:21:04.788117,-1
21:21:04.788117,-184
21:21:04.788117,19199
21:21:04.788117,-1
21:21:04.788117,-179
21:21:04.788117,20479
21:21:04.788117,-1
21:21:04.788117,-177
21:21:04.788117,20479
21:21:04.788117,-1
21:21:04.788117,-177
21:21:05.242659,-177
21:21:05.242659,19967
21:21:05.242659,-1
21:21:05.242659,-182
21:21:05.242659,17919
21:21:05.242659,-1
21:21:05.242659,-194
21:21:05.242659,13055
21:21:05.242659,-1
21:21:05.242659,-213
21:21:05.242659,15103
21:21:05.242659,-1
21:21:05.242659,-163
21:21:05.242659,31999
21:21:05.242659,-1
21:21:05.242659,-127
21:21:05.242659,28927
21:21:05.242659,-1
21:21:05.242659,-156
21:21:05.242659,27135
21:21:05.242659,-1
21:21:05.242659,-139
21:21:05.242659,31487
21:21:05.242659,-1
21:21:05.242659,-137
21:21:05.242659,30207
21:21:05.242659,-1
21:21:05.242659,-146
21:21:05.242659,12543
21:21:05.242659,-1
21:21:05.242659,-322
21:21:05.242659,-4353
21:21:05.242659,-2
21:21:05.242659,158
21:21:05.242659,9984
21:21:05.242659,3
21:21:05.242659,1015
21:21:05.242659,-13056
21:21:05.242659,1
21:21:05.242659,-127
21:21:05.242659,10751
21:21:05.242659,-1
21:21:05.242659,-208
21:21:05.242659,-10497
21:21:05.242659,-2
21:21:05.242659,-300
21:21:05.242659,-3841
21:21:05.242659,-2
21:21:05.242659,-288
21:21:05.242659,-8705
21:21:05.242659,-2
21:21:05.242659,-274
21:21:05.242659,-4353
21:21:05.242659,-2
21:21:05.242659,-279
21:21:05.242659,-4353
21:21:05.242659,-2
21:21:05.242659,-269
21:21:05.242659,-2561
21:21:05.242659,-2
21:21:05.242659,-265
21:21:05.242659,-2561
21:21:05.242659,-2
21:21:05.242659,-272
21:21:05.242659,-4353
21:21:05.242659,-2
21:21:05.242659,-272
21:21:05.242659,-3073
21:21:05.242659,-2
21:21:05.242659,-265
21:21:05.242659,511
21:21:05.242659,-1
21:21:05.242659,-239
21:21:05.242659,8447
21:21:05.242659,-1
21:21:05.242659,-215
21:21:05.242659,12031
21:21:05.242659,-1
21:21:05.242659,-208
21:21:05.242659,12543
21:21:05.242659,-1
21:21:05.242659,-208
21:21:05.242659,13823
21:21:05.242659,-1
21:21:05.242659,-198
21:21:05.242659,16127
21:21:05.242659,-1
21:21:05.242659,-191
21:21:05.242659,17407
21:21:05.242659,-1
21:21:05.242659,-184
21:21:05.242659,17919
21:21:05.242659,-1
21:21:05.242659,-184
21:21:05.242659,19967
21:21:05.242659,-1
21:21:05.242659,-177
21:21:05.242659,20479
21:21:05.242659,-1
21:21:05.242659,-184
21:21:05.242659,16895
21:21:05.242659,-1
21:21:05.242659,-189
21:21:05.242659,18687
21:21:05.242659,-1
21:21:05.242659,-182
21:21:05.242659,20479
21:21:05.242659,-1
21:21:05.242659,-175
21:21:05.792463,-177
21:21:05.792463,20479
21:21:05.792463,-1
21:21:05.792463,-170
21:21:05.792463,24063
21:21:05.792463,-1
21:21:05.792463,-170
21:21:05.792463,20479
21:21:05.792463,-1
21:21:05.792463,-175
21:21:05.792463,22271
21:21:05.792463,-1
21:21:05.792463,-168
21:21:05.792463,22783
21:21:05.792463,-1
21:21:05.792463,-165
21:21:05.792463,23551
21:21:05.792463,-1
21:21:05.792463,-161
21:21:05.792463,26623
21:21:05.792463,-1
21:21:05.792463,-151
21:21:05.792463,25855
21:21:05.792463,-1
21:21:05.792463,-158
21:21:05.792463,25855
21:21:05.792463,-1
21:21:05.792463,-161
21:21:05.792463,22271
21:21:05.792463,-1
21:21:05.792463,-168
21:21:05.792463,22271
21:21:05.792463,-1
21:21:05.792463,-184
21:21:05.792463,15615
21:21:05.792463,-1
21:21:05.792463,-196
21:21:05.792463,21759
21:21:05.792463,-1
21:21:05.792463,-134
21:21:05.792463,-30465
21:21:05.792463,-1
21:21:05.792463,-134
21:21:05.792463,28415
21:21:05.792463,-1
21:21:05.792463,-149
21:21:05.792463,27647
21:21:05.792463,-1
21:21:05.792463,-151
21:21:05.792463,27135
21:21:05.792463,-1
21:21:05.792463,-153
21:21:05.792463,25343
21:21:05.792463,-1
21:21:05.792463,-184
21:21:05.792463,-3841
21:21:05.792463,-2
21:21:05.792463,-362
21:21:05.792463,19199
21:21:05.792463,-1
21:21:05.792463,369
21:21:05.792463,-31232
21:21:05.792463,3
21:21:05.792463,798
21:21:05.792463,-28160
21:21:05.792463,0
21:21:05.792463,-213
21:21:05.792463,19967
21:21:05.792463,-1
21:21:05.792463,-236
21:21:05.792463,-14081
21:21:05.792463,-2
21:21:05.792463,-272
21:21:05.792463,-2049
21:21:05.792463,-2
21:21:05.792463,-296
21:21:05.792463,-6913
21:21:05.792463,-2
21:21:05.792463,-267
21:21:05.792463,-4353
21:21:05.792463,-2
21:21:05.792463,-269
21:21:05.792463,-257
21:21:05.792463,-2
21:21:05.792463,-255
21:21:05.792463,1023
21:21:05.792463,-1
21:21:05.792463,-251
21:21:05.792463,1023
21:21:05.792463,-1
21:21:05.792463,-255
21:21:05.792463,511
21:21:05.792463,-1
21:21:05.792463,-253
21:21:05.792463,4095
21:21:05.792463,-1
21:21:05.792463,-229
21:21:05.792463,9471
21:21:05.792463,-1
21:21:05.792463,-203
21:21:05.792463,17919
21:21:05.792463,-1
21:21:05.792463,-179
21:21:05.792463,19199
21:21:05.792463,-1
21:21:05.792463,-189
21:21:05.792463,14335
21:21:05.792463,-1
21:21:05.792463,-206
21:21:06.342436,-203
21:21:06.342436,15615
21:21:06.342436,-1
21:21:06.342436,-189
21:21:06.342436,17919
21:21:06.342436,-1
21:21:06.342436,-184
21:21:06.342436,19967
21:21:06.342436,-1
21:21:06.342436,-177
21:21:06.342436,19967
21:21:06.342436,-1
21:21:06.342436,-182
21:21:06.342436,19967
21:21:06.342436,-1
21:21:06.342436,-182
21:21:06.342436,19967
21:21:06.342436,-1
21:21:06.342436,-170
21:21:06.342436,22783
21:21:06.342436,-1
21:21:06.342436,-172
21:21:06.342436,21759
21:21:06.342436,-1
21:21:06.342436,-168
21:21:06.342436,22783
21:21:06.342436,-1
21:21:06.342436,-165
21:21:06.342436,22783
21:21:06.342436,-1
21:21:06.342436,-165
21:21:06.342436,25343
21:21:06.342436,-1
21:21:06.342436,-156
21:21:06.342436,25343
21:21:06.342436,-1
21:21:06.342436,-158
21:21:06.342436,26623
21:21:06.342436,-1
21:21:06.342436,-153
21:21:06.342436,25343
21:21:06.342436,-1
21:21:06.342436,-158
21:21:06.342436,26623
21:21:06.342436,-1
21:21:06.342436,-156
21:21:06.342436,25343
21:21:06.342436,-1
21:21:06.342436,-163
21:21:06.342436,22783
21:21:06.342436,-1
21:21:06.342436,-179
21:21:06.342436,16895
21:21:06.342436,-1
21:21:06.342436,-187
21:21:06.342436,25343
21:21:06.342436,-1
21:21:06.342436,-127
21:21:06.342436,-31233
21:21:06.342436,-1
21:21:06.342436,-139
21:21:06.342436,25343
21:21:06.342436,-1
21:21:06.342436,-163
21:21:06.342436,25343
21:21:06.342436,-1
21:21:06.342436,-158
21:21:06.342436,24575
21:21:06.342436,-1
21:21:06.342436,-163
21:21:06.342436,23551
21:21:06.342436,-1
21:21:06.342436,-196
21:21:06.342436,-9985
21:21:06.342436,-2
21:21:06.342436,-381
21:21:06.342436,20479
21:21:06.342436,-1
21:21:06.342436,421
21:21:06.342436,-9472
21:21:06.342436,3
21:21:06.342436,838
21:21:06.342436,-32256
21:21:06.342436,0
21:21:06.342436,-234
21:21:06.342436,13055
21:21:06.342436,-1
21:21:06.342436,-265
21:21:06.342436,-19457
21:21:06.342436,-2
21:21:06.342436,-293
21:21:06.342436,-7425
21:21:06.342436,-2
21:21:06.342436,-305
21:21:06.342436,-9217
21:21:06.342436,-2
21:21:06.342436,-281
21:21:06.342436,-6145
21:21:06.342436,-2
21:21:06.342436,-279
21:21:06.342436,-4353
21:21:06.342436,-2
21:21:06.342436,-274
21:21:06.342436,-4353
21:21:06.342436,-2
21:21:06.342436,-274
21:21:06.342436,-5121
21:21:06.342436,-2
21:21:06.342436,-279
21:21:06.893115,-279
21:21:06.893115,-5633
21:21:06.893115,-2
21:21:06.893115,-274
21:21:06.893115,-1281
21:21:06.893115,-2
21:21:06.893115,-248
21:21:06.893115,5887
21:21:06.893115,-1
21:21:06.893115,-217
21:21:06.893115,13055
21:21:06.893115,-1
21:21:06.893115,-201
21:21:06.893115,15103
21:21:06.893115,-1
21:21:06.893115,-196
21:21:06.893115,17407
21:21:06.893115,-1
21:21:06.893115,-184
21:21:06.893115,20479
21:21:06.893115,-1
21:21:06.893115,-172
21:21:06.893115,22271
21:21:06.893115,-1
21:21:06.893115,-170
21:21:06.893115,22783
21:21:06.893115,-1
21:21:06.893115,-163
21:21:06.893115,24575
21:21:06.893115,-1
21:21:06.893115,-163
21:21:06.893115,23551
21:21:06.893115,-1
21:21:06.893115,-165
21:21:06.893115,23551
21:21:06.893115,-1
21:21:06.893115,-168
21:21:06.893115,22783
21:21:06.893115,-1
21:21:06.893115,-165
21:21:06.893115,23551
21:21:06.893115,-1
21:21:06.893115,-165
21:21:06.893115,23551
21:21:06.893115,-1
21:21:06.893115,-163
21:21:06.893115,24063
21:21:06.893115,-1
21:21:06.893115,-163
21:21:06.893115,24063
21:21:06.893115,-1
21:21:06.893115,-163
21:21:06.893115,24063
21:21:06.893115,-1
21:21:06.893115,-161
21:21:06.893115,24575
21:21:06.893115,-1
21:21:06.893115,-163
21:21:06.893115,24063
21:21:06.893115,-1
21:21:06.893115,-163
21:21:06.893115,24063
21:21:06.893115,-1
21:21:06.893115,-165
21:21:06.893115,24063
21:21:06.893115,-1
21:21:06.893115,-161
21:21:06.893115,24575
21:21:06.893115,-1
21:21:06.893115,-161
21:21:06.893115,25343
21:21:06.893115,-1
21:21:06.893115,-161
21:21:06.893115,24575
21:21:06.893115,-1
21:21:06.893115,-161
21:21:06.893115,24063
21:21:06.893115,-1
21:21:06.893115,-168
21:21:06.893115,20991
21:21:06.893115,-1
21:21:06.893115,-187
21:21:06.893115,15615
21:21:06.893115,-1
21:21:06.893115,-184
21:21:06.893115,27647
21:21:06.893115,-1
21:21:06.893115,-123
21:21:06.893115,-31745
21:21:06.893115,-1
21:21:06.893115,-142
21:21:06.893115,27135
21:21:06.893115,-1
21:21:06.893115,-153
21:21:06.893115,27135
21:21:06.893115,-1
21:21:06.893115,-153
21:21:06.893115,25343
21:21:06.893115,-1
21:21:06.893115,-158
21:21:06.893115,25343
21:21:06.893115,-1
21:21:06.893115,-208
21:21:06.893115,-16641
21:21:06.893115,-2
21:21:06.893115,-331
21:21:06.893115,6143
21:21:06.893115,0
21:21:06.893115,708
21:21:07.492390,1103
21:21:07.492390,-28160
21:21:07.492390,2
21:21:07.492390,-47
21:21:07.492390,2815
21:21:07.492390,-1
21:21:07.492390,-220
21:21:07.492390,-11777
21:21:07.492390,-2
21:21:07.492390,-326
21:21:07.492390,-7937
21:21:07.492390,-2
21:21:07.492390,-293
21:21:07.492390,-10497
21:21:07.492390,-2
21:21:07.492390,-277
21:21:07.492390,-3841
21:21:07.492390,-2
21:21:07.492390,-279
21:21:07.492390,-4353
21:21:07.492390,-2
21:21:07.492390,-272
21:21:07.492390,-3841
21:21:07.492390,-2
21:21:07.492390,-272
21:21:07.492390,-4353
21:21:07.492390,-2
21:21:07.492390,-279
21:21:07.492390,-6913
21:21:07.492390,-2
21:21:07.492390,-288
21:21:07.492390,-9985
21:21:07.492390,-2
21:21:07.492390,-291
21:21:07.492390,-3841
21:21:07.492390,-2
21:21:07.492390,-253
21:21:07.492390,4095
21:21:07.492390,-1
21:21:07.492390,-224
21:21:07.492390,12031
21:21:07.492390,-1
21:21:07.492390,-203
21:21:07.492390,15103
21:21:07.492390,-1
21:21:07.492390,-191
21:21:07.492390,17919
21:21:07.492390,-1
21:21:07.492390,-184
21:21:07.492390,20479
21:21:07.492390,-1
21:21:07.492390,-172
21:21:07.492390,23551
21:21:07.492390,-1
21:21:07.492390,-158
21:21:07.492390,26623
21:21:07.492390,-1
21:21:07.492390,-153
21:21:07.492390,25855
21:21:07.492390,-1
21:21:07.492390,-161
21:21:07.492390,24575
21:21:07.492390,-1
21:21:07.492390,-163
21:21:07.492390,25343
21:21:07.492390,-1
21:21:07.492390,-156
21:21:07.492390,25343
21:21:07.492390,-1
21:21:07.492390,-158
21:21:07.492390,25855
21:21:07.492390,-1
21:21:07.492390,-156
21:21:07.492390,25343
21:21:07.492390,-1
21:21:07.492390,-153
21:21:07.492390,27647
21:21:07.492390,-1
21:21:07.492390,-146
21:21:07.492390,27647
21:21:07.492390,-1
21:21:07.492390,-149
21:21:07.492390,27647
21:21:07.492390,-1
21:21:07.492390,-149
21:21:07.492390,27647
21:21:07.492390,-1
21:21:07.492390,-146
21:21:07.492390,27647
21:21:07.492390,-1
21:21:07.492390,-153
21:21:07.492390,25343
21:21:07.492390,-1
21:21:07.492390,-156
21:21:07.492390,26623
21:21:07.492390,-1
21:21:07.492390,-153
21:21:07.492390,27135
21:21:07.492390,-1
21:21:07.492390,-151
21:21:07.492390,26623
21:21:07.492390,-1
21:21:07.492390,-153
21:21:07.492390,28415
21:21:07.492390,-1
21:21:07.492390,-137
21:21:07.492390,29439
21:21:07.492390,-1
21:21:07.492390,-146
21:21:07.992473,-146
21:21:07.992473,27647
21:21:07.992473,-1
21:21:07.992473,-149
21:21:07.992473,29439
21:21:07.992473,-1
21:21:07.992473,-142
21:21:07.992473,27647
21:21:07.992473,-1
21:21:07.992473,-149
21:21:07.992473,28927
21:21:07.992473,-1
21:21:07.992473,-144
21:21:07.992473,27647
21:21:07.992473,-1
21:21:07.992473,-149
21:21:07.992473,26623
21:21:07.992473,-1
21:21:07.992473,-163
21:21:07.992473,21759
21:21:07.992473,-1
21:21:07.992473,-168
21:21:07.992473,29439
21:21:07.992473,-1
21:21:07.992473,-108
21:21:07.992473,-24577
21:21:07.992473,-1
21:21:07.992473,-113
21:21:07.992473,31999
21:21:07.992473,-1
21:21:07.992473,-137
21:21:07.992473,31487
21:21:07.992473,-1
21:21:07.992473,-132
21:21:07.992473,-32257
21:21:07.992473,-1
21:21:07.992473,-125
21:21:07.992473,31999
21:21:07.992473,-1
21:21:07.992473,-165
21:21:07.992473,-769
21:21:07.992473,-2
21:21:07.992473,-319
21:21:07.992473,-15873
21:21:07.992473,-1
21:21:07.992473,565
21:21:07.992473,13568
21:21:07.992473,4
21:21:07.992473,826
21:21:07.992473,27648
21:21:07.992473,0
21:21:07.992473,-203
21:21:07.992473,20991
21:21:07.992473,-1
21:21:07.992473,-241
21:21:07.992473,-9985
21:21:07.992473,-2
21:21:07.992473,-255
21:21:07.992473,1023
21:21:07.992473,-1
21:21:07.992473,-274
21:21:07.992473,-769
21:21:07.992473,-2
21:21:07.992473,-248
21:21:07.992473,1535
21:21:07.992473,-1
21:21:07.992473,-246
21:21:07.992473,5887
21:21:07.992473,-1
21:21:07.992473,-234
21:21:07.992473,5375
21:21:07.992473,-1
21:21:07.992473,-239
21:21:07.992473,4095
21:21:07.992473,-1
21:21:07.992473,-241
21:21:07.992473,3583
21:21:07.992473,-1
21:21:07.992473,-241
21:21:07.992473,5375
21:21:07.992473,-1
21:21:07.992473,-229
21:21:07.992473,10751
21:21:07.992473,-1
21:21:07.992473,-196
21:21:07.992473,18687
21:21:07.992473,-1
21:21:07.992473,-172
21:21:07.992473,24575
21:21:07.992473,-1
21:21:07.992473,-165
21:21:07.992473,22271
21:21:07.992473,-1
21:21:07.992473,-165
21:21:07.992473,24063
21:21:07.992473,-1
21:21:07.992473,-163
21:21:07.992473,26623
21:21:07.992473,-1
21:21:07.992473,-151
21:21:07.992473,25343
21:21:07.992473,-1
21:21:07.992473,-156
21:21:07.992473,28927
21:21:07.992473,-1
21:21:07.992473,-139
21:21:07.992473,29439
21:21:07.992473,-1
21:21:07.992473,-142
21:21:08.593110,-144
21:21:08.593110,27135
21:21:08.593110,-1
21:21:08.593110,-156
21:21:08.593110,25855
21:21:08.593110,-1
21:21:08.593110,-156
21:21:08.593110,27135
21:21:08.593110,-1
21:21:08.593110,-142
21:21:08.593110,30207
21:21:08.593110,-1
21:21:08.593110,-137
21:21:08.593110,30207
21:21:08.593110,-1
21:21:08.593110,-139
21:21:08.593110,30207
21:21:08.593110,-1
21:21:08.593110,-134
21:21:08.593110,31487
21:21:08.593110,-1
21:21:08.593110,-134
21:21:08.593110,31487
21:21:08.593110,-1
21:21:08.593110,-132
21:21:08.593110,32511
21:21:08.593110,-1
21:21:08.593110,-132
21:21:08.593110,31999
21:21:08.593110,-1
21:21:08.593110,-130
21:21:08.593110,-32257
21:21:08.593110,-1
21:21:08.593110,-130
21:21:08.593110,30719
21:21:08.593110,-1
21:21:08.593110,-139
21:21:08.593110,30719
21:21:08.593110,-1
21:21:08.593110,-132
21:21:08.593110,31487
21:21:08.593110,-1
21:21:08.593110,-139
21:21:08.593110,28927
21:21:08.593110,-1
21:21:08.593110,-151
21:21:08.593110,25343
21:21:08.593110,-1
21:21:08.593110,-168
21:21:08.593110,20479
21:21:08.593110,-1
21:21:08.593110,-161
21:21:08.593110,-31233
21:21:08.593110,-1
21:21:08.593110,-104
21:21:08.593110,-28161
21:21:08.593110,-1
21:21:08.593110,-123
21:21:08.593110,31999
21:21:08.593110,-1
21:21:08.593110,-134
21:21:08.593110,31999
21:21:08.593110,-1
21:21:08.593110,-134
21:21:08.593110,29439
21:21:08.593110,-1
21:21:08.593110,-142
21:21:08.593110,27135
21:21:08.593110,-1
21:21:08.593110,-215
21:21:08.593110,-20737
21:21:08.593110,-2
21:21:08.593110,-293
21:21:08.593110,-28929
21:21:08.593110,0
21:21:08.593110,781
21:21:08.593110,-9472
21:21:08.593110,3
21:21:08.593110,445
21:21:08.593110,31744
21:21:08.593110,-1
21:21:08.593110,-196
21:21:08.593110,17919
21:21:08.593110,-1
21:21:08.593110,-291
21:21:08.593110,-7425
21:21:08.593110,-2
21:21:08.593110,-248
21:21:08.593110,-3841
21:21:08.593110,-2
21:21:08.593110,-279
21:21:08.593110,-769
21:21:08.593110,-2
21:21:08.593110,-260
21:21:08.593110,-1281
21:21:08.593110,-2
21:21:08.593110,-255
21:21:08.593110,511
21:21:08.593110,-1
21:21:08.593110,-255
21:21:08.593110,1023
21:21:08.593110,-1
21:21:08.593110,-253
21:21:08.593110,-769
21:21:08.593110,-2
21:21:08.593110,-262
21:21:08.593110,-769
21:21:08.593110,-2
21:21:08.593110,-253
21:21:09.192847,-246
21:21:09.192847,7167
21:21:09.192847,-1
21:21:09.192847,-210
21:21:09.192847,16127
21:21:09.192847,-1
21:21:09.192847,-179
21:21:09.192847,22271
21:21:09.192847,-1
21:21:09.192847,-170
21:21:09.192847,19967
21:21:09.192847,-1
21:21:09.192847,-184
21:21:09.192847,19967
21:21:09.192847,-1
21:21:09.192847,-175
21:21:09.192847,21759
21:21:09.192847,-1
21:21:09.192847,-163
21:21:09.192847,24575
21:21:09.192847,-1
21:21:09.192847,-168
21:21:09.192847,22783
21:21:09.192847,-1
21:21:09.192847,-158
21:21:09.192847,26623
21:21:09.192847,-1
21:21:09.192847,-161
21:21:09.192847,22783
21:21:09.192847,-1
21:21:09.192847,-170
21:21:09.192847,22271
21:21:09.192847,-1
21:21:09.192847,-170
21:21:09.192847,22783
21:21:09.192847,-1
21:21:09.192847,-165
21:21:09.192847,24575
21:21:09.192847,-1
21:21:09.192847,-161
21:21:09.192847,26623
21:21:09.192847,-1
21:21:09.192847,-144
21:21:09.192847,29439
21:21:09.192847,-1
21:21:09.192847,-144
21:21:09.192847,28927
21:21:09.192847,-1
21:21:09.192847,-142
21:21:09.192847,30207
21:21:09.192847,-1
21:21:09.192847,-137
21:21:09.192847,28415
21:21:09.192847,-1
21:21:09.192847,-158
21:21:09.192847,25855
21:21:09.192847,-1
21:21:09.192847,-149
21:21:09.192847,27135
21:21:09.192847,-1
21:21:09.192847,-149
21:21:09.192847,28927
21:21:09.192847,-1
21:21:09.192847,-144
21:21:09.192847,28927
21:21:09.192847,-1
21:21:09.192847,-146
21:21:09.192847,27135
21:21:09.192847,-1
21:21:09.192847,-158
21:21:09.192847,25855
21:21:09.192847,-1
21:21:09.192847,-153
21:21:09.192847,26623
21:21:09.192847,-1
21:21:09.192847,-156
21:21:09.192847,25855
21:21:09.192847,-1
21:21:09.192847,-156
21:21:09.192847,25855
21:21:09.192847,-1
21:21:09.192847,-161
21:21:09.192847,24575
21:21:09.192847,-1
21:21:09.192847,-151
21:21:09.192847,28415
21:21:09.192847,-1
21:21:09.192847,-153
21:21:09.192847,24575
21:21:09.192847,-1
21:21:09.192847,-168
21:21:09.192847,21759
21:21:09.192847,-1
21:21:09.192847,-170
21:21:09.192847,21759
21:21:09.192847,-1
21:21:09.192847,-184
21:21:09.192847,18687
21:21:09.192847,-1
21:21:09.192847,-161
21:21:09.192847,31487
21:21:09.192847,-1
21:21:09.192847,-125
21:21:09.192847,31487
21:21:09.192847,-1
21:21:09.192847,-146
21:21:09.192847,27135
21:21:09.192847,-1
21:21:09.192847,-149
21:21:09.692570,-144
21:21:09.692570,28927
21:21:09.692570,-1
21:21:09.692570,-149
21:21:09.692570,25855
21:21:09.692570,-1
21:21:09.692570,-187
21:21:09.692570,-6145
21:21:09.692570,-2
21:21:09.692570,-350
21:21:09.692570,-26369
21:21:09.692570,-1
21:21:09.692570,556
21:21:09.692570,26368
21:21:09.692570,4
21:21:09.692570,885
21:21:09.692570,31488
21:21:09.692570,0
21:21:09.692570,-227
21:21:09.692570,14335
21:21:09.692570,-1
21:21:09.692570,-265
21:21:09.692570,-16641
21:21:09.692570,-2
21:21:09.692570,-279
21:21:09.692570,-3073
21:21:09.692570,-2
21:21:09.692570,-291
21:21:09.692570,-5633
21:21:09.692570,-2
21:21:09.692570,-265
21:21:09.692570,-2561
21:21:09.692570,-2
21:21:09.692570,-265
21:21:09.692570,-1281
21:21:09.692570,-2
21:21:09.692570,-262
21:21:09.692570,-1281
21:21:09.692570,-2
21:21:09.692570,-262
21:21:09.692570,-2049
21:21:09.692570,-2
21:21:09.692570,-267
21:21:09.692570,-3841
21:21:09.692570,-2
21:21:09.692570,-272
21:21:09.692570,-3841
21:21:09.692570,-2
21:21:09.692570,-267
21:21:09.692570,511
21:21:09.692570,-1
21:21:09.692570,-232
21:21:09.692570,11263
21:21:09.692570,-1
21:21:09.692570,-201
21:21:09.692570,16895
21:21:09.692570,-1
21:21:09.692570,-184
21:21:09.692570,19967
21:21:09.692570,-1
21:21:09.692570,-177
21:21:09.692570,21759
21:21:09.692570,-1
21:21:09.692570,-165
21:21:09.692570,25343
21:21:09.692570,-1
21:21:09.692570,-158
21:21:09.692570,25343
21:21:09.692570,-1
21:21:09.692570,-151
21:21:09.692570,27647
21:21:09.692570,-1
21:21:09.692570,-149
21:21:09.692570,28415
21:21:09.692570,-1
21:21:09.692570,-146
21:21:09.692570,28415
21:21:09.692570,-1
21:21:09.692570,-144
21:21:09.692570,29439
21:21:09.692570,-1
21:21:09.692570,-149
21:21:09.692570,26623
21:21:09.692570,-1
21:21:09.692570,-153
21:21:09.692570,26623
21:21:09.692570,-1
21:21:09.692570,-151
21:21:09.692570,26623
21:21:09.692570,-1
21:21:09.692570,-153
21:21:09.692570,27135
21:21:09.692570,-1
21:21:09.692570,-149
21:21:09.692570,27135
21:21:09.692570,-1
21:21:09.692570,-149
21:21:09.692570,28927
21:21:09.692570,-1
21:21:09.692570,-149
21:21:09.692570,27647
21:21:09.692570,-1
21:21:09.692570,-142
21:21:09.692570,30207
21:21:09.692570,-1
21:21:09.692570,-144
21:21:09.692570,28927
21:21:09.692570,-1
21:21:09.692570,-139
21:21:10.343326,-139
21:21:10.343326,29439
21:21:10.343326,-1
21:21:10.343326,-142
21:21:10.343326,30207
21:21:10.343326,-1
21:21:10.343326,-142
21:21:10.343326,28927
21:21:10.343326,-1
21:21:10.343326,-142
21:21:10.343326,30719
21:21:10.343326,-1
21:21:10.343326,-134
21:21:10.343326,32511
21:21:10.343326,-1
21:21:10.343326,-127
21:21:10.343326,-32257
21:21:10.343326,-1
21:21:10.343326,-130
21:21:10.343326,-32257
21:21:10.343326,-1
21:21:10.343326,-120
21:21:10.343326,-31233
21:21:10.343326,-1
21:21:10.343326,-127
21:21:10.343326,-32257
21:21:10.343326,-1
21:21:10.343326,-127
21:21:10.343326,-31745
21:21:10.343326,-1
21:21:10.343326,-123
21:21:10.343326,-31745
21:21:10.343326,-1
21:21:10.343326,-132
21:21:10.343326,31487
21:21:10.343326,-1
21:21:10.343326,-134
21:21:10.343326,31999
21:21:10.343326,-1
21:21:10.343326,-142
21:21:10.343326,24575
21:21:10.343326,-1
21:21:10.343326,-153
21:21:10.343326,-31233
21:21:10.343326,-1
21:21:10.343326,-97
21:21:10.343326,-23809
21:21:10.343326,-1
21:21:10.343326,-108
21:21:10.343326,-30465
21:21:10.343326,-1
21:21:10.343326,-130
21:21:10.343326,31999
21:21:10.343326,-1
21:21:10.343326,-130
21:21:10.343326,-32257
21:21:10.343326,-1
21:21:10.343326,-125
21:21:10.343326,-32257
21:21:10.343326,-1
21:21:10.343326,-163
21:21:10.343326,-3073
21:21:10.343326,-2
21:21:10.343326,-333
21:21:10.343326,-16641
21:21:10.343326,-1
21:21:10.343326,592
21:21:10.343326,21504
21:21:10.343326,4
21:21:10.343326,826
21:21:10.343326,22784
21:21:10.343326,0
21:21:10.343326,-220
21:21:10.343326,17407
21:21:10.343326,-1
21:21:10.343326,-258
21:21:10.343326,-13569
21:21:10.343326,-2
21:21:10.343326,-269
21:21:10.343326,-2561
21:21:10.343326,-2
21:21:10.343326,-286
21:21:10.343326,-2561
21:21:10.343326,-2
21:21:10.343326,-253
21:21:10.343326,-769
21:21:10.343326,-2
21:21:10.343326,-260
21:21:10.343326,2815
21:21:10.343326,-1
21:21:10.343326,-241
21:21:10.343326,1535
21:21:10.343326,-1
21:21:10.343326,-255
21:21:10.343326,1535
21:21:10.343326,-1
21:21:10.343326,-248
21:21:10.343326,1023
21:21:10.343326,-1
21:21:10.343326,-248
21:21:10.343326,2815
21:21:10.343326,-1
21:21:10.343326,-243
21:21:10.343326,7167
21:21:10.343326,-1
21:21:10.343326,-206
21:21:10.343326,16895
21:21:10.343326,-1
21:21:10.343326,-182
21:21:10.843109,-172
21:21:10.843109,22783
21:21:10.843109,-1
21:21:10.843109,-170
21:21:10.843109,22783
21:21:10.843109,-1
21:21:10.843109,-163
21:21:10.843109,24575
21:21:10.843109,-1
21:21:10.843109,-151
21:21:10.843109,29439
21:21:10.843109,-1
21:21:10.843109,-142
21:21:10.843109,28927
21:21:10.843109,-1
21:21:10.843109,-142
21:21:10.843109,30719
21:21:10.843109,-1
21:21:10.843109,-139
21:21:10.843109,30207
21:21:10.843109,-1
21:21:10.843109,-137
21:21:10.843109,30719
21:21:10.843109,-1
21:21:10.843109,-139
21:21:10.843109,30207
21:21:10.843109,-1
21:21:10.843109,-139
21:21:10.843109,30207
21:21:10.843109,-1
21:21:10.843109,-130
21:21:10.843109,-32257
21:21:10.843109,-1
21:21:10.843109,-132
21:21:10.843109,-32257
21:21:10.843109,-1
21:21:10.843109,-120
21:21:10.843109,-29953
21:21:10.843109,-1
21:21:10.843109,-120
21:21:10.843109,-31745
21:21:10.843109,-1
21:21:10.843109,-125
21:21:10.843109,-29953
21:21:10.843109,-1
21:21:10.843109,-118
21:21:10.843109,-30465
21:21:10.843109,-1
21:21:10.843109,-118
21:21:10.843109,-29441
21:21:10.843109,-1
21:21:10.843109,-120
21:21:10.843109,-31233
21:21:10.843109,-1
21:21:10.843109,-118
21:21:10.843109,-30465
21:21:10.843109,-1
21:21:10.843109,-127
21:21:10.843109,-31233
21:21:10.843109,-1
21:21:10.843109,-120
21:21:10.843109,-31233
21:21:10.843109,-1
21:21:10.843109,-123
21:21:10.843109,-29953
21:21:10.843109,-1
21:21:10.843109,-123
21:21:10.843109,-31745
21:21:10.843109,-1
21:21:10.843109,-123
21:21:10.843109,-31233
21:21:10.843109,-1
21:21:10.843109,-125
21:21:10.843109,-31233
21:21:10.843109,-1
21:21:10.843109,-127
21:21:10.843109,28415
21:21:10.843109,-1
21:21:10.843109,-153
21:21:10.843109,32511
21:21:10.843109,-1
21:21:10.843109,-99
21:21:10.843109,-22529
21:21:10.843109,-1
21:21:10.843109,-97
21:21:10.843109,-28161
21:21:10.843109,-1
21:21:10.843109,-123
21:21:10.843109,-29953
21:21:10.843109,-1
21:21:10.843109,-116
21:21:10.843109,-31233
21:21:10.843109,-1
21:21:10.843109,-125
21:21:10.843109,-31233
21:21:10.843109,-1
21:21:10.843109,-130
21:21:10.843109,20991
21:21:10.843109,-1
21:21:10.843109,-291
21:21:10.843109,-15361
21:21:10.843109,-2
21:21:10.843109,26
21:21:10.843109,-26880
21:21:10.843109,2
21:21:10.843109,1030
21:21:10.843109,29440
21:21:10.843109,2
21:21:10.843109,-30
21:21:11.392767,-194
21:21:11.392767,27135
21:21:11.392767,-1
21:21:11.392767,-258
21:21:11.392767,-8705
21:21:11.392767,-2
21:21:11.392767,-248
21:21:11.392767,-257
21:21:11.392767,-2
21:21:11.392767,-269
21:21:11.392767,2303
21:21:11.392767,-1
21:21:11.392767,-246
21:21:11.392767,-257
21:21:11.392767,-2
21:21:11.392767,-251
21:21:11.392767,4607
21:21:11.392767,-1
21:21:11.392767,-234
21:21:11.392767,6399
21:21:11.392767,-1
21:21:11.392767,-229
21:21:11.392767,7167
21:21:11.392767,-1
21:21:11.392767,-232
21:21:11.392767,6399
21:21:11.392767,-1
21:21:11.392767,-229
21:21:11.392767,9471
21:21:11.392767,-1
21:21:11.392767,-208
21:21:11.392767,16127
21:21:11.392767,-1
21:21:11.392767,-177
21:21:11.392767,25855
21:21:11.392767,-1
21:21:11.392767,-144
21:21:11.392767,28415
21:21:11.392767,-1
21:21:11.392767,-158
21:21:11.392767,24063
21:21:11.392767,-1
21:21:11.392767,-163
21:21:11.392767,24575
21:21:11.392767,-1
21:21:11.392767,-161
21:21:11.392767,25343
21:21:11.392767,-1
21:21:11.392767,-153
21:21:11.392767,27647
21:21:11.392767,-1
21:21:11.392767,-144
21:21:11.392767,28927
21:21:11.392767,-1
21:21:11.392767,-149
21:21:11.392767,27135
21:21:11.392767,-1
21:21:11.392767,-149
21:21:11.392767,28415
21:21:11.392767,-1
21:21:11.392767,-151
21:21:11.392767,26623
21:21:11.392767,-1
21:21:11.392767,-156
21:21:11.392767,27135
21:21:11.392767,-1
21:21:11.392767,-146
21:21:11.392767,28415
21:21:11.392767,-1
21:21:11.392767,-144
21:21:11.392767,29439
21:21:11.392767,-1
21:21:11.392767,-139
21:21:11.392767,30207
21:21:11.392767,-1
21:21:11.392767,-137
21:21:11.392767,31999
21:21:11.392767,-1
21:21:11.392767,-130
21:21:11.392767,31487
21:21:11.392767,-1
21:21:11.392767,-134
21:21:11.392767,32511
21:21:11.392767,-1
21:21:11.392767,-134
21:21:11.392767,31487
21:21:11.392767,-1
21:21:11.392767,-130
21:21:11.392767,32511
21:21:11.392767,-1
21:21:11.392767,-130
21:21:11.392767,-32257
21:21:11.392767,-1
21:21:11.392767,-130
21:21:11.392767,32511
21:21:11.392767,-1
21:21:11.392767,-127
21:21:11.392767,-32257
21:21:11.392767,-1
21:21:11.392767,-127
21:21:11.392767,-32257
21:21:11.392767,-1
21:21:11.392767,-127
21:21:11.392767,32511
21:21:11.392767,-1
21:21:11.392767,-130
21:21:11.392767,32511
21:21:11.392767,-1
21:21:11.392767,-134
21:21:11.990563,-137
21:21:11.990563,27647
21:21:11.990563,-1
21:21:11.990563,-163
21:21:11.990563,27135
21:21:11.990563,-1
21:21:11.990563,-120
21:21:11.990563,-24577
21:21:11.990563,-1
21:21:11.990563,-97
21:21:11.990563,-28161
21:21:11.990563,-1
21:21:11.990563,-123
21:21:11.990563,-31745
21:21:11.990563,-1
21:21:11.990563,-120
21:21:11.990563,-28673
21:21:11.990563,-1
21:21:11.990563,-118
21:21:11.990563,-31745
21:21:11.990563,-1
21:21:11.990563,-125
21:21:11.990563,25855
21:21:11.990563,-1
21:21:11.990563,-262
21:21:11.990563,-22529
21:21:11.990563,-2
21:21:11.990563,-116
21:21:11.990563,1279
21:21:11.990563,2
21:21:11.990563,1089
21:21:11.990563,-32000
21:21:11.990563,3
21:21:11.990563,158
21:21:11.990563,12800
21:21:11.990563,-1
21:21:11.990563,-175
21:21:11.990563,3583
21:21:11.990563,-1
21:21:11.990563,-314
21:21:11.990563,-3073
21:21:11.990563,-2
21:21:11.990563,-260
21:21:11.990563,-6913
21:21:11.990563,-2
21:21:11.990563,-269
21:21:11.990563,-769
21:21:11.990563,-2
21:21:11.990563,-265
21:21:11.990563,-769
21:21:11.990563,-2
21:21:11.990563,-258
21:21:11.990563,-1281
21:21:11.990563,-2
21:21:11.990563,-260
21:21:11.990563,-769
21:21:11.990563,-2
21:21:11.990563,-262
21:21:11.990563,-2561
21:21:11.990563,-2
21:21:11.990563,-272
21:21:11.990563,-3841
21:21:11.990563,-2
21:21:11.990563,-267
21:21:11.990563,-2049
21:21:11.990563,-2
21:21:11.990563,-251
21:21:11.990563,7167
21:21:11.990563,-1
21:21:11.990563,-208
21:21:11.990563,16895
21:21:11.990563,-1
21:21:11.990563,-179
21:21:11.990563,21759
21:21:11.990563,-1
21:21:11.990563,-172
21:21:11.990563,21759
21:21:11.990563,-1
21:21:11.990563,-168
21:21:11.990563,25855
21:21:11.990563,-1
21:21:11.990563,-153
21:21:11.990563,25855
21:21:11.990563,-1
21:21:11.990563,-153
21:21:11.990563,27135
21:21:11.990563,-1
21:21:11.990563,-149
21:21:11.990563,28927
21:21:11.990563,-1
21:21:11.990563,-137
21:21:11.990563,31487
21:21:11.990563,-1
21:21:11.990563,-137
21:21:11.990563,29439
21:21:11.990563,-1
21:21:11.990563,-139
21:21:11.990563,28927
21:21:11.990563,-1
21:21:11.990563,-153
21:21:11.990563,26623
21:21:11.990563,-1
21:21:11.990563,-149
21:21:11.990563,27647
21:21:11.990563,-1
21:21:11.990563,-146
21:21:11.990563,27647
21:21:11.990563,-1
21:21:11.990563,-149
21:21:12.492915,-137
21:21:12.492915,30207
21:21:12.492915,-1
21:21:12.492915,-149
21:21:12.492915,27647
21:21:12.492915,-1
21:21:12.492915,-142
21:21:12.492915,30207
21:21:12.492915,-1
21:21:12.492915,-142
21:21:12.492915,28415
21:21:12.492915,-1
21:21:12.492915,-134
21:21:12.492915,-31233
21:21:12.492915,-1
21:21:12.492915,-134
21:21:12.492915,28927
21:21:12.492915,-1
21:21:12.492915,-142
21:21:12.492915,24575
21:21:12.492915,-1
21:21:12.492915,-163
21:21:12.492915,-30465
21:21:12.492915,-1
21:21:12.492915,-108
21:21:12.492915,32511
21:21:12.492915,-1
21:21:12.492915,-134
21:21:12.492915,32511
21:21:12.492915,-1
21:21:12.492915,-146
21:21:12.492915,27647
21:21:12.492915,-1
21:21:12.492915,-132
21:21:12.492915,30207
21:21:12.492915,-1
21:21:12.492915,-134
21:21:12.492915,-28161
21:21:12.492915,-1
21:21:12.492915,-123
21:21:12.492915,29439
21:21:12.492915,-1
21:21:12.492915,-134
21:21:12.492915,29439
21:21:12.492915,-1
21:21:12.492915,-156
21:21:12.492915,28415
21:21:12.492915,-1
21:21:12.492915,-137
21:21:12.492915,24575
21:21:12.492915,-1
21:21:12.492915,-175
21:21:12.492915,28415
21:21:12.492915,-1
21:21:12.492915,-123
21:21:12.492915,-28161
21:21:12.492915,-1
21:21:12.492915,-104
21:21:12.492915,32511
21:21:12.492915,-1
21:21:12.492915,-151
21:21:12.492915,28415
21:21:12.492915,-1
21:21:12.492915,-146
21:21:12.492915,28927
21:21:12.492915,-1
21:21:12.492915,-137
21:21:12.492915,28415
21:21:12.492915,-1
21:21:12.492915,-156
21:21:12.492915,9471
21:21:12.492915,-1
21:21:12.492915,-341
21:21:12.492915,4095
21:21:12.492915,-1
21:21:12.492915,293
21:21:12.492915,-15616
21:21:12.492915,3
21:21:12.492915,1053
21:21:12.492915,-28160
21:21:12.492915,1
21:21:12.492915,-161
21:21:12.492915,10751
21:21:12.492915,-1
21:21:12.492915,-217
21:21:12.492915,-11009
21:21:12.492915,-2
21:21:12.492915,-279
21:21:12.492915,4607
21:21:12.492915,-1
21:21:12.492915,-269
21:21:12.492915,-6913
21:21:12.492915,-2
21:21:12.492915,-267
21:21:12.492915,-2561
21:21:12.492915,-2
21:21:12.492915,-258
21:21:12.492915,3583
21:21:12.492915,-1
21:21:12.492915,-248
21:21:12.492915,-769
21:21:12.492915,-2
21:21:12.492915,-262
21:21:12.492915,-257
21:21:12.492915,-2
21:21:12.492915,-255
21:21:12.492915,-1281
21:21:12.492915,-2
21:21:12.492915,-269
21:21:13.043350,-265
21:21:13.043350,-769
21:21:13.043350,-2
21:21:13.043350,-255
21:21:13.043350,5375
21:21:13.043350,-1
21:21:13.043350,-213
21:21:13.043350,15103
21:21:13.043350,-1
21:21:13.043350,-191
21:21:13.043350,19199
21:21:13.043350,-1
21:21:13.043350,-172
21:21:13.043350,21759
21:21:13.043350,-1
21:21:13.043350,-163
21:21:13.043350,28415
21:21:13.043350,-1
21:21:13.043350,-142
21:21:13.043350,28927
21:21:13.043350,-1
21:21:13.043350,-137
21:21:13.043350,31999
21:21:13.043350,-1
21:21:13.043350,-132
21:21:13.043350,32511
21:21:13.043350,-1
21:21:13.043350,-130
21:21:13.043350,-32257
21:21:13.043350,-1
21:21:13.043350,-125
21:21:13.043350,31999
21:21:13.043350,-1
21:21:13.043350,-132
21:21:13.043350,32511
21:21:13.043350,-1
21:21:13.043350,-130
21:21:13.043350,32511
21:21:13.043350,-1
21:21:13.043350,-132
21:21:13.043350,29439
21:21:13.043350,-1
21:21:13.043350,-142
21:21:13.043350,30207
21:21:13.043350,-1
21:21:13.043350,-134
21:21:13.043350,30207
21:21:13.043350,-1
21:21:13.043350,-139
21:21:13.043350,31999
21:21:13.043350,-1
21:21:13.043350,-132
21:21:13.043350,31487
21:21:13.043350,-1
21:21:13.043350,-127
21:21:13.043350,-31233
21:21:13.043350,-1
21:21:13.043350,-123
21:21:13.043350,-31745
21:21:13.043350,-1
21:21:13.043350,-123
21:21:13.043350,-30465
21:21:13.043350,-1
21:21:13.043350,-120
21:21:13.043350,-29441
21:21:13.043350,-1
21:21:13.043350,-113
21:21:13.043350,-28673
21:21:13.043350,-1
21:21:13.043350,-113
21:21:13.043350,-28673
21:21:13.043350,-1
21:21:13.043350,-118
21:21:13.043350,-29441
21:21:13.043350,-1
21:21:13.043350,-111
21:21:13.043350,-29441
21:21:13.043350,-1
21:21:13.043350,-127
21:21:13.043350,-31745
21:21:13.043350,-1
21:21:13.043350,-130
21:21:13.043350,27647
21:21:13.043350,-1
21:21:13.043350,-139
21:21:13.043350,-25089
21:21:13.043350,-1
21:21:13.043350,-80
21:21:13.043350,-22529
21:21:13.043350,-1
21:21:13.043350,-99
21:21:13.043350,-26369
21:21:13.043350,-1
21:21:13.043350,-118
21:21:13.043350,-32257
21:21:13.043350,-1
21:21:13.043350,-125
21:21:13.043350,-32257
21:21:13.043350,-1
21:21:13.043350,-127
21:21:13.043350,-30465
21:21:13.043350,-1
21:21:13.043350,-158
21:21:13.043350,-4353
21:21:13.043350,-2
21:21:13.043350,-343
21:21:13.043350,-20737
21:21:13.043350,-1
21:21:13.043350,535
21:21:13.593628,1034
21:21:13.593628,11776
21:21:13.593628,3
21:21:13.593628,123
21:21:13.593628,16640
21:21:13.593628,-1
21:21:13.593628,-165
21:21:13.593628,4607
21:21:13.593628,-1
21:21:13.593628,-291
21:21:13.593628,3583
21:21:13.593628,-1
21:21:13.593628,-243
21:21:13.593628,-2561
21:21:13.593628,-2
21:21:13.593628,-248
21:21:13.593628,5375
21:21:13.593628,-1
21:21:13.593628,-246
21:21:13.593628,4095
21:21:13.593628,-1
21:21:13.593628,-234
21:21:13.593628,5375
21:21:13.593628,-1
21:21:13.593628,-236
21:21:13.593628,7167
21:21:13.593628,-1
21:21:13.593628,-232
21:21:13.593628,4095
21:21:13.593628,-1
21:21:13.593628,-243
21:21:13.593628,5375
21:21:13.593628,-1
21:21:13.593628,-232
21:21:13.593628,7679
21:21:13.593628,-1
21:21:13.593628,-208
21:21:13.593628,17919
21:21:13.593628,-1
21:21:13.593628,-168
21:21:13.593628,26623
21:21:13.593628,-1
21:21:13.593628,-149
21:21:13.593628,25343
21:21:13.593628,-1
21:21:13.593628,-170
21:21:13.593628,20991
21:21:13.593628,-1
21:21:13.593628,-165
21:21:13.593628,25343
21:21:13.593628,-1
21:21:13.593628,-161
21:21:13.593628,25855
21:21:13.593628,-1
21:21:13.593628,-149
21:21:13.593628,28415
21:21:13.593628,-1
21:21:13.593628,-144
21:21:13.593628,28415
21:21:13.593628,-1
21:21:13.593628,-149
21:21:13.593628,27647
21:21:13.593628,-1
21:21:13.593628,-149
21:21:13.593628,27135
21:21:13.593628,-1
21:21:13.593628,-151
21:21:13.593628,28415
21:21:13.593628,-1
21:21:13.593628,-151
21:21:13.593628,25855
21:21:13.593628,-1
21:21:13.593628,-151
21:21:13.593628,28927
21:21:13.593628,-1
21:21:13.593628,-144
21:21:13.593628,29439
21:21:13.593628,-1
21:21:13.593628,-137
21:21:13.593628,31487
21:21:13.593628,-1
21:21:13.593628,-132
21:21:13.593628,32511
21:21:13.593628,-1
21:21:13.593628,-130
21:21:13.593628,32511
21:21:13.593628,-1
21:21:13.593628,-127
21:21:13.593628,-32257
21:21:13.593628,-1
21:21:13.593628,-130
21:21:13.593628,32511
21:21:13.593628,-1
21:21:13.593628,-130
21:21:13.593628,31999
21:21:13.593628,-1
21:21:13.593628,-132
21:21:13.593628,-32257
21:21:13.593628,-1
21:21:13.593628,-123
21:21:13.593628,-31745
21:21:13.593628,-1
21:21:13.593628,-132
21:21:13.593628,31487
21:21:13.593628,-1
21:21:13.593628,-134
21:21:13.593628,31999
21:21:13.593628,-1
21:21:13.593628,-132
21:21:14.192467,-139
21:21:14.192467,28415
21:21:14.192467,-1
21:21:14.192467,-158
21:21:14.192467,23551
21:21:14.192467,-1
21:21:14.192467,-142
21:21:14.192467,-24577
21:21:14.192467,-1
21:21:14.192467,-75
21:21:14.192467,-22017
21:21:14.192467,-1
21:21:14.192467,-104
21:21:14.192467,-28161
21:21:14.192467,-1
21:21:14.192467,-118
21:21:14.192467,-29953
21:21:14.192467,-1
21:21:14.192467,-113
21:21:14.192467,-29441
21:21:14.192467,-1
21:21:14.192467,-118
21:21:14.192467,-32257
21:21:14.192467,-1
21:21:14.192467,-194
21:21:14.192467,-15361
21:21:14.192467,-2
21:21:14.192467,-274
21:21:14.192467,-11521
21:21:14.192467,0
21:21:14.192467,970
21:21:14.192467,-12032
21:21:14.192467,4
21:21:14.192467,599
21:21:14.192467,-23552
21:21:14.192467,-1
21:21:14.192467,-208
21:21:14.192467,13823
21:21:14.192467,-1
21:21:14.192467,-300
21:21:14.192467,-11777
21:21:14.192467,-2
21:21:14.192467,-267
21:21:14.192467,-7425
21:21:14.192467,-2
21:21:14.192467,-286
21:21:14.192467,-1281
21:21:14.192467,-2
21:21:14.192467,-262
21:21:14.192467,-2561
21:21:14.192467,-2
21:21:14.192467,-260
21:21:14.192467,-257
21:21:14.192467,-2
21:21:14.192467,-262
21:21:14.192467,-2049
21:21:14.192467,-2
21:21:14.192467,-265
21:21:14.192467,-3841
21:21:14.192467,-2
21:21:14.192467,-279
21:21:14.192467,-6145
21:21:14.192467,-2
21:21:14.192467,-279
21:21:14.192467,-4353
21:21:14.192467,-2
21:21:14.192467,-265
21:21:14.192467,3583
21:21:14.192467,-1
21:21:14.192467,-222
21:21:14.192467,13055
21:21:14.192467,-1
21:21:14.192467,-191
21:21:14.192467,20479
21:21:14.192467,-1
21:21:14.192467,-168
21:21:14.192467,25343
21:21:14.192467,-1
21:21:14.192467,-156
21:21:14.192467,27135
21:21:14.192467,-1
21:21:14.192467,-146
21:21:14.192467,28927
21:21:14.192467,-1
21:21:14.192467,-139
21:21:14.192467,30719
21:21:14.192467,-1
21:21:14.192467,-134
21:21:14.192467,31487
21:21:14.192467,-1
21:21:14.192467,-134
21:21:14.192467,31999
21:21:14.192467,-1
21:21:14.192467,-134
21:21:14.192467,30719
21:21:14.192467,-1
21:21:14.192467,-139
21:21:14.192467,30719
21:21:14.192467,-1
21:21:14.192467,-139
21:21:14.192467,28927
21:21:14.192467,-1
21:21:14.192467,-146
21:21:14.192467,29439
21:21:14.192467,-1
21:21:14.192467,-142
21:21:14.192467,29439
21:21:14.192467,-1
21:21:14.192467,-139
21:21:14.742671,-142
21:21:14.742671,29439
21:21:14.742671,-1
21:21:14.742671,-142
21:21:14.742671,30719
21:21:14.742671,-1
21:21:14.742671,-137
21:21:14.742671,30719
21:21:14.742671,-1
21:21:14.742671,-134
21:21:14.742671,31999
21:21:14.742671,-1
21:21:14.742671,-132
21:21:14.742671,32511
21:21:14.742671,-1
21:21:14.742671,-125
21:21:14.742671,-29953
21:21:14.742671,-1
21:21:14.742671,-123
21:21:14.742671,-31745
21:21:14.742671,-1
21:21:14.742671,-120
21:21:14.742671,-30465
21:21:14.742671,-1
21:21:14.742671,-123
21:21:14.742671,-30465
21:21:14.742671,-1
21:21:14.742671,-123
21:21:14.742671,-31233
21:21:14.742671,-1
21:21:14.742671,-123
21:21:14.742671,-31745
21:21:14.742671,-1
21:21:14.742671,-123
21:21:14.742671,-31233
21:21:14.742671,-1
21:21:14.742671,-123
21:21:14.742671,-31233
21:21:14.742671,-1
21:21:14.742671,-120
21:21:14.742671,-31233
21:21:14.742671,-1
21:21:14.742671,-125
21:21:14.742671,-31233
21:21:14.742671,-1
21:21:14.742671,-120
21:21:14.742671,-31233
21:21:14.742671,-1
21:21:14.742671,-127
21:21:14.742671,31487
21:21:14.742671,-1
21:21:14.742671,-149
21:21:14.742671,25343
21:21:14.742671,-1
21:21:14.742671,-144
21:21:14.742671,-28161
21:21:14.742671,-1
21:21:14.742671,-94
21:21:14.742671,-25601
21:21:14.742671,-1
21:21:14.742671,-111
21:21:14.742671,-29441
21:21:14.742671,-1
21:21:14.742671,-120
21:21:14.742671,-30465
21:21:14.742671,-1
21:21:14.742671,-118
21:21:14.742671,-31233
21:21:14.742671,-1
21:21:14.742671,-125
21:21:14.742671,-32257
21:21:14.742671,-1
21:21:14.742671,-175
21:21:14.742671,-7937
21:21:14.742671,-2
21:21:14.742671,-286
21:21:14.742671,28671
21:21:14.742671,0
21:21:14.742671,838
21:21:14.742671,-18688
21:21:14.742671,4
21:21:14.742671,700
21:21:14.742671,-6656
21:21:14.742671,-1
21:21:14.742671,-215
21:21:14.742671,16127
21:21:14.742671,-1
21:21:14.742671,-277
21:21:14.742671,-10497
21:21:14.742671,-2
21:21:14.742671,-262
21:21:14.742671,-5121
21:21:14.742671,-2
21:21:14.742671,-284
21:21:14.742671,-1281
21:21:14.742671,-2
21:21:14.742671,-258
21:21:14.742671,-1281
21:21:14.742671,-2
21:21:14.742671,-255
21:21:14.742671,-257
21:21:14.742671,-2
21:21:14.742671,-260
21:21:14.742671,1023
21:21:14.742671,-1
21:21:14.742671,-253
21:21:14.742671,511
21:21:14.742671,-1
21:21:14.742671,-260
21:21:15.343473,-265
21:21:15.343473,-2049
21:21:15.343473,-2
21:21:15.343473,-258
21:21:15.343473,2815
21:21:15.343473,-1
21:21:15.343473,-229
21:21:15.343473,10239
21:21:15.343473,-1
21:21:15.343473,-203
21:21:15.343473,18687
21:21:15.343473,-1
21:21:15.343473,-168
21:21:15.343473,26623
21:21:15.343473,-1
21:21:15.343473,-149
21:21:15.343473,27647
21:21:15.343473,-1
21:21:15.343473,-142
21:21:15.343473,30719
21:21:15.343473,-1
21:21:15.343473,-134
21:21:15.343473,31999
21:21:15.343473,-1
21:21:15.343473,-123
21:21:15.343473,-30465
21:21:15.343473,-1
21:21:15.343473,-125
21:21:15.343473,-31233
21:21:15.343473,-1
21:21:15.343473,-120
21:21:15.343473,-29953
21:21:15.343473,-1
21:21:15.343473,-116
21:21:15.343473,-29953
21:21:15.343473,-1
21:21:15.343473,-120
21:21:15.343473,-31233
21:21:15.343473,-1
21:21:15.343473,-123
21:21:15.343473,-30465
21:21:15.343473,-1
21:21:15.343473,-120
21:21:15.343473,-29953
21:21:15.343473,-1
21:21:15.343473,-120
21:21:15.343473,-32257
21:21:15.343473,-1
21:21:15.343473,-123
21:21:15.343473,-28673
21:21:15.343473,-1
21:21:15.343473,-118
21:21:15.343473,-31745
21:21:15.343473,-1
21:21:15.343473,-123
21:21:15.343473,-29953
21:21:15.343473,-1
21:21:15.343473,-120
21:21:15.343473,-28673
21:21:15.343473,-1
21:21:15.343473,-106
21:21:15.343473,-28673
21:21:15.343473,-1
21:21:15.343473,-113
21:21:15.343473,-26369
21:21:15.343473,-1
21:21:15.343473,-108
21:21:15.343473,-29441
21:21:15.343473,-1
21:21:15.343473,-111
21:21:15.343473,-26369
21:21:15.343473,-1
21:21:15.343473,-104
21:21:15.343473,-27393
21:21:15.343473,-1
21:21:15.343473,-108
21:21:15.343473,-25601
21:21:15.343473,-1
21:21:15.343473,-101
21:21:15.343473,-26369
21:21:15.343473,-1
21:21:15.343473,-104
21:21:15.343473,-25601
21:21:15.343473,-1
21:21:15.343473,-106
21:21:15.343473,-27393
21:21:15.343473,-1
21:21:15.343473,-104
21:21:15.343473,-26369
21:21:15.343473,-1
21:21:15.343473,-99
21:21:15.343473,-24577
21:21:15.343473,-1
21:21:15.343473,-106
21:21:15.343473,-28161
21:21:15.343473,-1
21:21:15.343473,-108
21:21:15.343473,-29953
21:21:15.343473,-1
21:21:15.343473,-132
21:21:15.343473,-30465
21:21:15.343473,-1
21:21:15.343473,-87
21:21:15.343473,-16641
21:21:15.343473,-1
21:21:15.343473,-71
21:21:15.343473,-21505
21:21:15.343473,-1
21:21:15.343473,-99
21:21:15.892707,-104
21:21:15.892707,-24577
21:21:15.892707,-1
21:21:15.892707,-94
21:21:15.892707,-25089
21:21:15.892707,-1
21:21:15.892707,-101
21:21:15.892707,-28673
21:21:15.892707,-1
21:21:15.892707,-175
21:21:15.892707,-10497
21:21:15.892707,-2
21:21:15.892707,-265
21:21:15.892707,-25345
21:21:15.892707,0
21:21:15.892707,795
21:21:15.892707,8192
21:21:15.892707,4
21:21:15.892707,551
21:21:15.892707,-17408
21:21:15.892707,-1
21:21:15.892707,-161
21:21:15.892707,30207
21:21:15.892707,-1
21:21:15.892707,-258
21:21:15.892707,-2561
21:21:15.892707,-2
21:21:15.892707,-217
21:21:15.892707,5887
21:21:15.892707,-1
21:21:15.892707,-246
21:21:15.892707,7167
21:21:15.892707,-1
21:21:15.892707,-224
21:21:15.892707,7167
21:21:15.892707,-1
21:21:15.892707,-224
21:21:15.892707,8959
21:21:15.892707,-1
21:21:15.892707,-224
21:21:15.892707,9471
21:21:15.892707,-1
21:21:15.892707,-215
21:21:15.892707,11263
21:21:15.892707,-1
21:21:15.892707,-208
21:21:15.892707,12543
21:21:15.892707,-1
21:21:15.892707,-210
21:21:15.892707,13823
21:21:15.892707,-1
21:21:15.892707,-187
21:21:15.892707,22271
21:21:15.892707,-1
21:21:15.892707,-151
21:21:15.892707,32511
21:21:15.892707,-1
21:21:15.892707,-123
21:21:15.892707,-31745
21:21:15.892707,-1
21:21:15.892707,-134
21:21:15.892707,28415
21:21:15.892707,-1
21:21:15.892707,-153
21:21:15.892707,27135
21:21:15.892707,-1
21:21:15.892707,-149
21:21:15.892707,28927
21:21:15.892707,-1
21:21:15.892707,-142
21:21:15.892707,30719
21:21:15.892707,-1
21:21:15.892707,-132
21:21:15.892707,32511
21:21:15.892707,-1
21:21:15.892707,-132
21:21:15.892707,31999
21:21:15.892707,-1
21:21:15.892707,-132
21:21:15.892707,31487
21:21:15.892707,-1
21:21:15.892707,-134
21:21:15.892707,31487
21:21:15.892707,-1
21:21:15.892707,-134
21:21:15.892707,30719
21:21:15.892707,-1
21:21:15.892707,-134
21:21:15.892707,31999
21:21:15.892707,-1
21:21:15.892707,-134
21:21:15.892707,31999
21:21:15.892707,-1
21:21:15.892707,-125
21:21:15.892707,-31745
21:21:15.892707,-1
21:21:15.892707,-125
21:21:15.892707,-31233
21:21:15.892707,-1
21:21:15.892707,-120
21:21:15.892707,-30465
21:21:15.892707,-1
21:21:15.892707,-120
21:21:15.892707,-30465
21:21:15.892707,-1
21:21:15.892707,-123
21:21:15.892707,-31233
21:21:15.892707,-1
21:21:15.892707,-123
21:21:16.442122,-120
21:21:16.442122,-30465
21:21:16.442122,-1
21:21:16.442122,-123
21:21:16.442122,-31745
21:21:16.442122,-1
21:21:16.442122,-125
21:21:16.442122,-32257
21:21:16.442122,-1
21:21:16.442122,-125
21:21:16.442122,-31745
21:21:16.442122,-1
21:21:16.442122,-123
21:21:16.442122,-31233
21:21:16.442122,-1
21:21:16.442122,-123
21:21:16.442122,-31233
21:21:16.442122,-1
21:21:16.442122,-118
21:21:16.442122,-29441
21:21:16.442122,-1
21:21:16.442122,-120
21:21:16.442122,31999
21:21:16.442122,-1
21:21:16.442122,-144
21:21:16.442122,28927
21:21:16.442122,-1
21:21:16.442122,-120
21:21:16.442122,-22017
21:21:16.442122,-1
21:21:16.442122,-80
21:21:16.442122,-23297
21:21:16.442122,-1
21:21:16.442122,-101
21:21:16.442122,-26881
21:21:16.442122,-1
21:21:16.442122,-108
21:21:16.442122,-26881
21:21:16.442122,-1
21:21:16.442122,-108
21:21:16.442122,-28673
21:21:16.442122,-1
21:21:16.442122,-116
21:21:16.442122,32511
21:21:16.442122,-1
21:21:16.442122,-208
21:21:16.442122,-16641
21:21:16.442122,-2
21:21:16.442122,-222
21:21:16.442122,14079
21:21:16.442122,1
21:21:16.442122,1001
21:21:16.442122,22784
21:21:16.442122,4
21:21:16.442122,440
21:21:16.442122,31232
21:21:16.442122,-1
21:21:16.442122,-187
21:21:16.442122,15103
21:21:16.442122,-1
21:21:16.442122,-291
21:21:16.442122,-5121
21:21:16.442122,-2
21:21:16.442122,-251
21:21:16.442122,-3841
21:21:16.442122,-2
21:21:16.442122,-269
21:21:16.442122,1535
21:21:16.442122,-1
21:21:16.442122,-253
21:21:16.442122,511
21:21:16.442122,-1
21:21:16.442122,-246
21:21:16.442122,3583
21:21:16.442122,-1
21:21:16.442122,-246
21:21:16.442122,2303
21:21:16.442122,-1
21:21:16.442122,-251
21:21:16.442122,511
21:21:16.442122,-1
21:21:16.442122,-258
21:21:16.442122,511
21:21:16.442122,-1
21:21:16.442122,-255
21:21:16.442122,1535
21:21:16.442122,-1
21:21:16.442122,-236
21:21:16.442122,9471
21:21:16.442122,-1
21:21:16.442122,-201
21:21:16.442122,18687
21:21:16.442122,-1
21:21:16.442122,-172
21:21:16.442122,24063
21:21:16.442122,-1
21:21:16.442122,-161
21:21:16.442122,25855
21:21:16.442122,-1
21:21:16.442122,-149
21:21:16.442122,29439
21:21:16.442122,-1
21:21:16.442122,-137
21:21:16.442122,31487
21:21:16.442122,-1
21:21:16.442122,-132
21:21:16.442122,32511
21:21:16.442122,-1
21:21:16.442122,-127
21:21:16.993113,-125
21:21:16.993113,-30465
21:21:16.993113,-1
21:21:16.993113,-120
21:21:16.993113,-31233
21:21:16.993113,-1
21:21:16.993113,-123
21:21:16.993113,-31745
21:21:16.993113,-1
21:21:16.993113,-130
21:21:16.993113,32511
21:21:16.993113,-1
21:21:16.993113,-130
21:21:16.993113,31999
21:21:16.993113,-1
21:21:16.993113,-130
21:21:16.993113,-30465
21:21:16.993113,-1
21:21:16.993113,-116
21:21:16.993113,-29441
21:21:16.993113,-1
21:21:16.993113,-116
21:21:16.993113,-29441
21:21:16.993113,-1
21:21:16.993113,-113
21:21:16.993113,-28673
21:21:16.993113,-1
21:21:16.993113,-111
21:21:16.993113,-28673
21:21:16.993113,-1
21:21:16.993113,-118
21:21:16.993113,-29441
21:21:16.993113,-1
21:21:16.993113,-116
21:21:16.993113,-29953
21:21:16.993113,-1
21:21:16.993113,-116
21:21:16.993113,-28673
21:21:16.993113,-1
21:21:16.993113,-116
21:21:16.993113,-29441
21:21:16.993113,-1
21:21:16.993113,-116
21:21:16.993113,-29441
21:21:16.993113,-1
21:21:16.993113,-113
21:21:16.993113,-28673
21:21:16.993113,-1
21:21:16.993113,-113
21:21:16.993113,-29441
21:21:16.993113,-1
21:21:16.993113,-113
21:21:16.993113,-28673
21:21:16.993113,-1
21:21:16.993113,-116
21:21:16.993113,-28673
21:21:16.993113,-1
21:21:16.993113,-111
21:21:16.993113,-28161
21:21:16.993113,-1
21:21:16.993113,-116
21:21:16.993113,-31233
21:21:16.993113,-1
21:21:16.993113,-125
21:21:16.993113,32511
21:21:16.993113,-1
21:21:16.993113,-142
21:21:16.993113,29439
21:21:16.993113,-1
21:21:16.993113,-116
21:21:16.993113,-20737
21:21:16.993113,-1
21:21:16.993113,-75
21:21:16.993113,-22017
21:21:16.993113,-1
21:21:16.993113,-97
21:21:16.993113,-26369
21:21:16.993113,-1
21:21:16.993113,-106
21:21:16.993113,-26369
21:21:16.993113,-1
21:21:16.993113,-104
21:21:16.993113,-26881
21:21:16.993113,-1
21:21:16.993113,-106
21:21:16.993113,-30465
21:21:16.993113,-1
21:21:16.993113,-194
21:21:16.993113,-11777
21:21:16.993113,-2
21:21:16.993113,-208
21:21:16.993113,12799
21:21:16.993113,1
21:21:16.993113,989
21:21:16.993113,23296
21:21:16.993113,4
21:21:16.993113,459
21:21:16.993113,-32512
21:21:16.993113,-1
21:21:16.993113,-182
21:21:16.993113,17919
21:21:16.993113,-1
21:21:16.993113,-274
21:21:16.993113,-2049
21:21:16.993113,-2
21:21:16.993113,-236
21:21:16.993113,511
21:21:16.993113,-1
21:21:16.993113,-251
21:21:17.542602,-234
21:21:17.542602,4607
21:21:17.542602,-1
21:21:17.542602,-241
21:21:17.542602,6399
21:21:17.542602,-1
21:21:17.542602,-229
21:21:17.542602,8447
21:21:17.542602,-1
21:21:17.542602,-224
21:21:17.542602,6399
21:21:17.542602,-1
21:21:17.542602,-236
21:21:17.542602,5887
21:21:17.542602,-1
21:21:17.542602,-227
21:21:17.542602,8447
21:21:17.542602,-1
21:21:17.542602,-220
21:21:17.542602,13055
21:21:17.542602,-1
21:21:17.542602,-194
21:21:17.542602,18687
21:21:17.542602,-1
21:21:17.542602,-163
21:21:17.542602,27647
21:21:17.542602,-1
21:21:17.542602,-144
21:21:17.542602,29439
21:21:17.542602,-1
21:21:17.542602,-142
21:21:17.542602,30207
21:21:17.542602,-1
21:21:17.542602,-132
21:21:17.542602,-31745
21:21:17.542602,-1
21:21:17.542602,-123
21:21:17.542602,-31233
21:21:17.542602,-1
21:21:17.542602,-118
21:21:17.542602,-29441
21:21:17.542602,-1
21:21:17.542602,-116
21:21:17.542602,-28161
21:21:17.542602,-1
21:21:17.542602,-108
21:21:17.542602,-28161
21:21:17.542602,-1
21:21:17.542602,-116
21:21:17.542602,-29441
21:21:17.542602,-1
21:21:17.542602,-116
21:21:17.542602,-30465
21:21:17.542602,-1
21:21:17.542602,-118
21:21:17.542602,-27393
21:21:17.542602,-1
21:21:17.542602,-111
21:21:17.542602,-29441
21:21:17.542602,-1
21:21:17.542602,-108
21:21:17.542602,-26881
21:21:17.542602,-1
21:21:17.542602,-108
21:21:17.542602,-27393
21:21:17.542602,-1
21:21:17.542602,-106
21:21:17.542602,-26881
21:21:17.542602,-1
21:21:17.542602,-108
21:21:17.542602,-26881
21:21:17.542602,-1
21:21:17.542602,-108
21:21:17.542602,-27393
21:21:17.542602,-1
21:21:17.542602,-106
21:21:17.542602,-26369
21:21:17.542602,-1
21:21:17.542602,-99
21:21:17.542602,-25089
21:21:17.542602,-1
21:21:17.542602,-99
21:21:17.542602,-24577
21:21:17.542602,-1
21:21:17.542602,-99
21:21:17.542602,-25601
21:21:17.542602,-1
21:21:17.542602,-99
21:21:17.542602,-25601
21:21:17.542602,-1
21:21:17.542602,-104
21:21:17.542602,-25089
21:21:17.542602,-1
21:21:17.542602,-92
21:21:17.542602,-23297
21:21:17.542602,-1
21:21:17.542602,-99
21:21:17.542602,-26369
21:21:17.542602,-1
21:21:17.542602,-101
21:21:17.542602,-25089
21:21:17.542602,-1
21:21:17.542602,-101
21:21:17.542602,-26881
21:21:17.542602,-1
21:21:17.542602,-116
21:21:17.542602,-31745
21:21:17.542602,-1
21:21:17.542602,-116
21:21:18.140442,-80
21:21:18.140442,-14081
21:21:18.140442,-1
21:21:18.140442,-66
21:21:18.140442,-21505
21:21:18.140442,-1
21:21:18.140442,-94
21:21:18.140442,-23809
21:21:18.140442,-1
21:21:18.140442,-97
21:21:18.140442,-23809
21:21:18.140442,-1
21:21:18.140442,-89
21:21:18.140442,-22017
21:21:18.140442,-1
21:21:18.140442,-94
21:21:18.140442,27135
21:21:18.140442,-1
21:21:18.140442,-277
21:21:18.140442,-3073
21:21:18.140442,-2
21:21:18.140442,123
21:21:18.140442,1024
21:21:18.140442,3
21:21:18.140442,1079
21:21:18.140442,25856
21:21:18.140442,2
21:21:18.140442,-35
21:21:18.140442,24063
21:21:18.140442,-1
21:21:18.140442,-132
21:21:18.140442,4095
21:21:18.140442,-1
21:21:18.140442,-260
21:21:18.140442,10751
21:21:18.140442,-1
21:21:18.140442,-234
21:21:18.140442,2303
21:21:18.140442,-1
21:21:18.140442,-222
21:21:18.140442,12031
21:21:18.140442,-1
21:21:18.140442,-215
21:21:18.140442,11263
21:21:18.140442,-1
21:21:18.140442,-210
21:21:18.140442,12031
21:21:18.140442,-1
21:21:18.140442,-208
21:21:18.140442,13823
21:21:18.140442,-1
21:21:18.140442,-203
21:21:18.140442,12543
21:21:18.140442,-1
21:21:18.140442,-213
21:21:18.140442,12543
21:21:18.140442,-1
21:21:18.140442,-201
21:21:18.140442,17407
21:21:18.140442,-1
21:21:18.140442,-172
21:21:18.140442,25855
21:21:18.140442,-1
21:21:18.140442,-139
21:21:18.140442,-31745
21:21:18.140442,-1
21:21:18.140442,-123
21:21:18.140442,32511
21:21:18.140442,-1
21:21:18.140442,-134
21:21:18.140442,30207
21:21:18.140442,-1
21:21:18.140442,-134
21:21:18.140442,-32257
21:21:18.140442,-1
21:21:18.140442,-134
21:21:18.140442,30719
21:21:18.140442,-1
21:21:18.140442,-123
21:21:18.140442,-29441
21:21:18.140442,-1
21:21:18.140442,-118
21:21:18.140442,-29441
21:21:18.140442,-1
21:21:18.140442,-116
21:21:18.140442,-30465
21:21:18.140442,-1
21:21:18.140442,-125
21:21:18.140442,-29953
21:21:18.140442,-1
21:21:18.140442,-116
21:21:18.140442,-31745
21:21:18.140442,-1
21:21:18.140442,-127
21:21:18.140442,-30465
21:21:18.140442,-1
21:21:18.140442,-113
21:21:18.140442,-28161
21:21:18.140442,-1
21:21:18.140442,-120
21:21:18.140442,-30465
21:21:18.140442,-1
21:21:18.140442,-108
21:21:18.140442,-27393
21:21:18.140442,-1
21:21:18.140442,-106
21:21:18.140442,-26369
21:21:18.140442,-1
21:21:18.140442,-104
21:21:18.792149,-104
21:21:18.792149,-25601
21:21:18.792149,-1
21:21:18.792149,-101
21:21:18.792149,-24577
21:21:18.792149,-1
21:21:18.792149,-99
21:21:18.792149,-25089
21:21:18.792149,-1
21:21:18.792149,-94
21:21:18.792149,-22529
21:21:18.792149,-1
21:21:18.792149,-89
21:21:18.792149,-23809
21:21:18.792149,-1
21:21:18.792149,-97
21:21:18.792149,-25601
21:21:18.792149,-1
21:21:18.792149,-106
21:21:18.792149,-28161
21:21:18.792149,-1
21:21:18.792149,-120
21:21:18.792149,-31745
21:21:18.792149,-1
21:21:18.792149,-113
21:21:18.792149,-20737
21:21:18.792149,-1
21:21:18.792149,-61
21:21:18.792149,-17153
21:21:18.792149,-1
21:21:18.792149,-97
21:21:18.792149,-29953
21:21:18.792149,-1
21:21:18.792149,-123
21:21:18.792149,-28161
21:21:18.792149,-1
21:21:18.792149,-106
21:21:18.792149,-29953
21:21:18.792149,-1
21:21:18.792149,-125
21:21:18.792149,-29441
21:21:18.792149,-1
21:21:18.792149,-161
21:21:18.792149,-7425
21:21:18.792149,-2
21:21:18.792149,-305
21:21:18.792149,11007
21:21:18.792149,0
21:21:18.792149,682
21:21:18.792149,13568
21:21:18.792149,4
21:21:18.792149,700
21:21:18.792149,2304
21:21:18.792149,0
21:21:18.792149,-177
21:21:18.792149,31487
21:21:18.792149,-1
21:21:18.792149,-246
21:21:18.792149,-5121
21:21:18.792149,-2
21:21:18.792149,-213
21:21:18.792149,9471
21:21:18.792149,-1
21:21:18.792149,-236
21:21:18.792149,13823
21:21:18.792149,-1
21:21:18.792149,-189
21:21:18.792149,14335
21:21:18.792149,-1
21:21:18.792149,-198
21:21:18.792149,16895
21:21:18.792149,-1
21:21:18.792149,-189
21:21:18.792149,17919
21:21:18.792149,-1
21:21:18.792149,-184
21:21:18.792149,18687
21:21:18.792149,-1
21:21:18.792149,-189
21:21:18.792149,16127
21:21:18.792149,-1
21:21:18.792149,-189
21:21:18.792149,19967
21:21:18.792149,-1
21:21:18.792149,-175
21:21:18.792149,24575
21:21:18.792149,-1
21:21:18.792149,-137
21:21:18.792149,-31233
21:21:18.792149,-1
21:21:18.792149,-118
21:21:18.792149,-29441
21:21:18.792149,-1
21:21:18.792149,-118
21:21:18.792149,32511
21:21:18.792149,-1
21:21:18.792149,-139
21:21:18.792149,31487
21:21:18.792149,-1
21:21:18.792149,-125
21:21:18.792149,32511
21:21:18.792149,-1
21:21:18.792149,-130
21:21:18.792149,-30465
21:21:18.792149,-1
21:21:18.792149,-120
21:21:18.792149,-30465
21:21:18.792149,-1
21:21:18.792149,-116
21:21:19.242130,-120
21:21:19.242130,-30465
21:21:19.242130,-1
21:21:19.242130,-120
21:21:19.242130,-32257
21:21:19.242130,-1
21:21:19.242130,-130
21:21:19.242130,-32257
21:21:19.242130,-1
21:21:19.242130,-127
21:21:19.242130,-31233
21:21:19.242130,-1
21:21:19.242130,-123
21:21:19.242130,32511
21:21:19.242130,-1
21:21:19.242130,-132
21:21:19.242130,-31233
21:21:19.242130,-1
21:21:19.242130,-113
21:21:19.242130,-28673
21:21:19.242130,-1
21:21:19.242130,-113
21:21:19.242130,-28161
21:21:19.242130,-1
21:21:19.242130,-108
21:21:19.242130,-28161
21:21:19.242130,-1
21:21:19.242130,-108
21:21:19.242130,-27393
21:21:19.242130,-1
21:21:19.242130,-111
21:21:19.242130,-29441
21:21:19.242130,-1
21:21:19.242130,-125
21:21:19.242130,31999
21:21:19.242130,-1
21:21:19.242130,-137
21:21:19.242130,32511
21:21:19.242130,-1
21:21:19.242130,-108
21:21:19.242130,-18433
21:21:19.242130,-1
21:21:19.242130,-54
21:21:19.242130,-16641
21:21:19.242130,-1
21:21:19.242130,-94
21:21:19.242130,-24577
21:21:19.242130,-1
21:21:19.242130,-82
21:21:19.242130,-22017
21:21:19.242130,-1
21:21:19.242130,-97
21:21:19.242130,-23809
21:21:19.242130,-1
21:21:19.242130,-97
21:21:19.242130,-27393
21:21:19.242130,-1
21:21:19.242130,-165
21:21:19.242130,-9985
21:21:19.242130,-2
21:21:19.242130,-284
21:21:19.242130,-30977
21:21:19.242130,0
21:21:19.242130,828
21:21:19.242130,-30720
21:21:19.242130,4
21:21:19.242130,655
21:21:19.242130,-8448
21:21:19.242130,-1
21:21:19.242130,-165
21:21:19.242130,30719
21:21:19.242130,-1
21:21:19.242130,-253
21:21:19.242130,-3073
21:21:19.242130,-2
21:21:19.242130,-224
21:21:19.242130,2815
21:21:19.242130,-1
21:21:19.242130,-251
21:21:19.242130,7679
21:21:19.242130,-1
21:21:19.242130,-224
21:21:19.242130,7167
21:21:19.242130,-1
21:21:19.242130,-224
21:21:19.242130,8447
21:21:19.242130,-1
21:21:19.242130,-224
21:21:19.242130,10239
21:21:19.242130,-1
21:21:19.242130,-217
21:21:19.242130,8447
21:21:19.242130,-1
21:21:19.242130,-227
21:21:19.242130,7167
21:21:19.242130,-1
21:21:19.242130,-227
21:21:19.242130,9471
21:21:19.242130,-1
21:21:19.242130,-208
21:21:19.242130,16127
21:21:19.242130,-1
21:21:19.242130,-168
21:21:19.242130,28415
21:21:19.242130,-1
21:21:19.242130,-137
21:21:19.242130,31487
21:21:19.242130,-1
21:21:19.242130,-139
21:21:19.892395,-146
21:21:19.892395,30207
21:21:19.892395,-1
21:21:19.892395,-127
21:21:19.892395,32511
21:21:19.892395,-1
21:21:19.892395,-130
21:21:19.892395,-31233
21:21:19.892395,-1
21:21:19.892395,-120
21:21:19.892395,-29953
21:21:19.892395,-1
21:21:19.892395,-111
21:21:19.892395,-27393
21:21:19.892395,-1
21:21:19.892395,-113
21:21:19.892395,-28161
21:21:19.892395,-1
21:21:19.892395,-106
21:21:19.892395,-26881
21:21:19.892395,-1
21:21:19.892395,-111
21:21:19.892395,-28673
21:21:19.892395,-1
21:21:19.892395,-116
21:21:19.892395,-29441
21:21:19.892395,-1
21:21:19.892395,-111
21:21:19.892395,-28161
21:21:19.892395,-1
21:21:19.892395,-108
21:21:19.892395,-27393
21:21:19.892395,-1
21:21:19.892395,-108
21:21:19.892395,-26881
21:21:19.892395,-1
21:21:19.892395,-101
21:21:19.892395,-25089
21:21:19.892395,-1
21:21:19.892395,-104
21:21:19.892395,-26881
21:21:19.892395,-1
21:21:19.892395,-104
21:21:19.892395,-25601
21:21:19.892395,-1
21:21:19.892395,-104
21:21:19.892395,-28673
21:21:19.892395,-1
21:21:19.892395,-123
21:21:19.892395,31999
21:21:19.892395,-1
21:21:19.892395,-134
21:21:19.892395,-29441
21:21:19.892395,-1
21:21:19.892395,-73
21:21:19.892395,-14081
21:21:19.892395,-1
21:21:19.892395,-73
21:21:19.892395,-23297
21:21:19.892395,-1
21:21:19.892395,-97
21:21:19.892395,-23809
21:21:19.892395,-1
21:21:19.892395,-94
21:21:19.892395,-25089
21:21:19.892395,-1
21:21:19.892395,-99
21:21:19.892395,-25601
21:21:19.892395,-1
21:21:19.892395,-111
21:21:19.892395,23551
21:21:19.892395,-1
21:21:19.892395,-296
21:21:19.892395,-14593
21:21:19.892395,-2
21:21:19.892395,78
21:21:19.892395,15360
21:21:19.892395,3
21:21:19.892395,1259
21:21:19.892395,2048
21:21:19.892395,3
21:21:19.892395,14
21:21:19.892395,16640
21:21:19.892395,-1
21:21:19.892395,-168
21:21:19.892395,-3841
21:21:19.892395,-2
21:21:19.892395,-296
21:21:19.892395,1535
21:21:19.892395,-1
21:21:19.892395,-265
21:21:19.892395,-5121
21:21:19.892395,-2
21:21:19.892395,-255
21:21:19.892395,2303
21:21:19.892395,-1
21:21:19.892395,-255
21:21:19.892395,1535
21:21:19.892395,-1
21:21:19.892395,-246
21:21:19.892395,2303
21:21:19.892395,-1
21:21:19.892395,-251
21:21:19.892395,511
21:21:19.892395,-1
21:21:19.892395,-265
21:21:19.892395,-3073
21:21:19.892395,-2
21:21:19.892395,-272
21:21:20.342380,-274
21:21:20.342380,-4353
21:21:20.342380,-2
21:21:20.342380,-262
21:21:20.342380,3583
21:21:20.342380,-1
21:21:20.342380,-227
21:21:20.342380,14335
21:21:20.342380,-1
21:21:20.342380,-177
21:21:20.342380,24063
21:21:20.342380,-1
21:21:20.342380,-153
21:21:20.342380,28415
21:21:20.342380,-1
21:21:20.342380,-134
21:21:20.342380,-31745
21:21:20.342380,-1
21:21:20.342380,-120
21:21:20.342380,-29441
21:21:20.342380,-1
21:21:20.342380,-113
21:21:20.342380,-28161
21:21:20.342380,-1
21:21:20.342380,-106
21:21:20.342380,-26369
21:21:20.342380,-1
21:21:20.342380,-104
21:21:20.342380,-26369
21:21:20.342380,-1
21:21:20.342380,-104
21:21:20.342380,-26369
21:21:20.342380,-1
21:21:20.342380,-99
21:21:20.342380,-23297
21:21:20.342380,-1
21:21:20.342380,-97
21:21:20.342380,-26369
21:21:20.342380,-1
21:21:20.342380,-104
21:21:20.342380,-26369
21:21:20.342380,-1
21:21:20.342380,-106
21:21:20.342380,-26881
21:21:20.342380,-1
21:21:20.342380,-108
21:21:20.342380,-26881
21:21:20.342380,-1
21:21:20.342380,-106
21:21:20.342380,-26881
21:21:20.342380,-1
21:21:20.342380,-106
21:21:20.342380,-26369
21:21:20.342380,-1
21:21:20.342380,-104
21:21:20.342380,-26881
21:21:20.342380,-1
21:21:20.342380,-106
21:21:20.342380,-26881
21:21:20.342380,-1
21:21:20.342380,-104
21:21:20.342380,-26369
21:21:20.342380,-1
21:21:20.342380,-104
21:21:20.342380,-26369
21:21:20.342380,-1
21:21:20.342380,-101
21:21:20.342380,-26881
21:21:20.342380,-1
21:21:20.342380,-106
21:21:20.342380,-26369
21:21:20.342380,-1
21:21:20.342380,-106
21:21:20.342380,-27393
21:21:20.342380,-1
21:21:20.342380,-113
21:21:20.342380,-29953
21:21:20.342380,-1
21:21:20.342380,-130
21:21:20.342380,28927
21:21:20.342380,-1
21:21:20.342380,-149
21:21:20.342380,-31745
21:21:20.342380,-1
21:21:20.342380,-85
21:21:20.342380,-17921
21:21:20.342380,-1
21:21:20.342380,-82
21:21:20.342380,-23809
21:21:20.342380,-1
21:21:20.342380,-101
21:21:20.342380,-26881
21:21:20.342380,-1
21:21:20.342380,-104
21:21:20.342380,-25601
21:21:20.342380,-1
21:21:20.342380,-106
21:21:20.342380,-27393
21:21:20.342380,-1
21:21:20.342380,-113
21:21:20.342380,24063
21:21:20.342380,-1
21:21:20.342380,-279
21:21:20.342380,-9985
21:21:20.342380,-2
21:21:20.342380,97
21:21:20.342380,28672
21:21:20.342380,3
21:21:20.342380,1333
21:21:20.942548,821
21:21:20.942548,4608
21:21:20.942548,0
21:21:20.942548,-220
21:21:20.942548,15615
21:21:20.942548,-1
21:21:20.942548,-274
21:21:20.942548,-11009
21:21:20.942548,-2
21:21:20.942548,-265
21:21:20.942548,-3073
21:21:20.942548,-2
21:21:20.942548,-272
21:21:20.942548,1535
21:21:20.942548,-1
21:21:20.942548,-248
21:21:20.942548,1023
21:21:20.942548,-1
21:21:20.942548,-243
21:21:20.942548,4095
21:21:20.942548,-1
21:21:20.942548,-246
21:21:20.942548,2303
21:21:20.942548,-1
21:21:20.942548,-251
21:21:20.942548,511
21:21:20.942548,-1
21:21:20.942548,-262
21:21:20.942548,-2049
21:21:20.942548,-2
21:21:20.942548,-267
21:21:20.942548,-2561
21:21:20.942548,-2
21:21:20.942548,-255
21:21:20.942548,4607
21:21:20.942548,-1
21:21:20.942548,-220
21:21:20.942548,13055
21:21:20.942548,-1
21:21:20.942548,-187
21:21:20.942548,21759
21:21:20.942548,-1
21:21:20.942548,-161
21:21:20.942548,27135
21:21:20.942548,-1
21:21:20.942548,-144
21:21:20.942548,31487
21:21:20.942548,-1
21:21:20.942548,-127
21:21:20.942548,-31745
21:21:20.942548,-1
21:21:20.942548,-118
21:21:20.942548,-28161
21:21:20.942548,-1
21:21:20.942548,-108
21:21:20.942548,-27393
21:21:20.942548,-1
21:21:20.942548,-106
21:21:20.942548,-26881
21:21:20.942548,-1
21:21:20.942548,-106
21:21:20.942548,-25601
21:21:20.942548,-1
21:21:20.942548,-101
21:21:20.942548,-26881
21:21:20.942548,-1
21:21:20.942548,-108
21:21:20.942548,-27393
21:21:20.942548,-1
21:21:20.942548,-111
21:21:20.942548,-27393
21:21:20.942548,-1
21:21:20.942548,-111
21:21:20.942548,-28673
21:21:20.942548,-1
21:21:20.942548,-118
21:21:20.942548,-30465
21:21:20.942548,-1
21:21:20.942548,-120
21:21:20.942548,-31745
21:21:20.942548,-1
21:21:20.942548,-127
21:21:20.942548,-29953
21:21:20.942548,-1
21:21:20.942548,-116
21:21:20.942548,-29953
21:21:20.942548,-1
21:21:20.942548,-116
21:21:20.942548,-27393
21:21:20.942548,-1
21:21:20.942548,-104
21:21:20.942548,-26881
21:21:20.942548,-1
21:21:20.942548,-108
21:21:20.942548,-26881
21:21:20.942548,-1
21:21:20.942548,-104
21:21:20.942548,-26369
21:21:20.942548,-1
21:21:20.942548,-108
21:21:20.942548,-27393
21:21:20.942548,-1
21:21:20.942548,-116
21:21:20.942548,32511
21:21:20.942548,-1
21:21:20.942548,-142
21:21:20.942548,31999
21:21:20.942548,-1
21:21:20.942548,-97
21:21:21.442767,-68
21:21:21.442767,-17153
21:21:21.442767,-1
21:21:21.442767,-80
21:21:21.442767,-22529
21:21:21.442767,-1
21:21:21.442767,-94
21:21:21.442767,-23809
21:21:21.442767,-1
21:21:21.442767,-92
21:21:21.442767,-23297
21:21:21.442767,-1
21:21:21.442767,-97
21:21:21.442767,-25601
21:21:21.442767,-1
21:21:21.442767,-130
21:21:21.442767,8447
21:21:21.442767,-1
21:21:21.442767,-310
21:21:21.442767,-22017
21:21:21.442767,-1
21:21:21.442767,584
21:21:21.442767,-15104
21:21:21.442767,4
21:21:21.442767,1044
21:21:21.442767,-1280
21:21:21.442767,0
21:21:21.442767,-175
21:21:21.442767,23551
21:21:21.442767,-1
21:21:21.442767,-217
21:21:21.442767,-6913
21:21:21.442767,-2
21:21:21.442767,-253
21:21:21.442767,4095
21:21:21.442767,-1
21:21:21.442767,-262
21:21:21.442767,1023
21:21:21.442767,-1
21:21:21.442767,-241
21:21:21.442767,2815
21:21:21.442767,-1
21:21:21.442767,-243
21:21:21.442767,4607
21:21:21.442767,-1
21:21:21.442767,-241
21:21:21.442767,3583
21:21:21.442767,-1
21:21:21.442767,-246
21:21:21.442767,1023
21:21:21.442767,-1
21:21:21.442767,-260
21:21:21.442767,-1281
21:21:21.442767,-2
21:21:21.442767,-265
21:21:21.442767,-3073
21:21:21.442767,-2
21:21:21.442767,-260
21:21:21.442767,4607
21:21:21.442767,-1
21:21:21.442767,-220
21:21:21.442767,13055
21:21:21.442767,-1
21:21:21.442767,-187
21:21:21.442767,21759
21:21:21.442767,-1
21:21:21.442767,-163
21:21:21.442767,26623
21:21:21.442767,-1
21:21:21.442767,-146
21:21:21.442767,29439
21:21:21.442767,-1
21:21:21.442767,-134
21:21:21.442767,32511
21:21:21.442767,-1
21:21:21.442767,-125
21:21:21.442767,-30465
21:21:21.442767,-1
21:21:21.442767,-120
21:21:21.442767,-30465
21:21:21.442767,-1
21:21:21.442767,-118
21:21:21.442767,-29441
21:21:21.442767,-1
21:21:21.442767,-118
21:21:21.442767,-29953
21:21:21.442767,-1
21:21:21.442767,-116
21:21:21.442767,-29953
21:21:21.442767,-1
21:21:21.442767,-120
21:21:21.442767,-29441
21:21:21.442767,-1
21:21:21.442767,-113
21:21:21.442767,-28673
21:21:21.442767,-1
21:21:21.442767,-116
21:21:21.442767,-29441
21:21:21.442767,-1
21:21:21.442767,-116
21:21:21.442767,-28673
21:21:21.442767,-1
21:21:21.442767,-111
21:21:21.442767,-26881
21:21:21.442767,-1
21:21:21.442767,-106
21:21:21.442767,-26881
21:21:21.442767,-1
21:21:21.442767,-104
21:21:22.043370,-101
21:21:22.043370,-25601
21:21:22.043370,-1
21:21:22.043370,-99
21:21:22.043370,-25601
21:21:22.043370,-1
21:21:22.043370,-97
21:21:22.043370,-22529
21:21:22.043370,-1
21:21:22.043370,-89
21:21:22.043370,-25089
21:21:22.043370,-1
21:21:22.043370,-108
21:21:22.043370,-29953
21:21:22.043370,-1
21:21:22.043370,-125
21:21:22.043370,-26881
21:21:22.043370,-1
21:21:22.043370,-68
21:21:22.043370,-13057
21:21:22.043370,-1
21:21:22.043370,-63
21:21:22.043370,-18945
21:21:22.043370,-1
21:21:22.043370,-85
21:21:22.043370,-22529
21:21:22.043370,-1
21:21:22.043370,-87
21:21:22.043370,-22017
21:21:22.043370,-1
21:21:22.043370,-89
21:21:22.043370,-23297
21:21:22.043370,-1
21:21:22.043370,-97
21:21:22.043370,31999
21:21:22.043370,-1
21:21:22.043370,-239
21:21:22.043370,-7425
21:21:22.043370,-2
21:21:22.043370,11
21:21:22.043370,-16128
21:21:22.043370,2
21:21:22.043370,1231
21:21:22.043370,30720
21:21:22.043370,3
21:21:22.043370,111
21:21:22.043370,18432
21:21:22.043370,-1
21:21:22.043370,-153
21:21:22.043370,6399
21:21:22.043370,-1
21:21:22.043370,-274
21:21:22.043370,6399
21:21:22.043370,-1
21:21:22.043370,-236
21:21:22.043370,1535
21:21:22.043370,-1
21:21:22.043370,-229
21:21:22.043370,8447
21:21:22.043370,-1
21:21:22.043370,-229
21:21:22.043370,9471
21:21:22.043370,-1
21:21:22.043370,-222
21:21:22.043370,7167
21:21:22.043370,-1
21:21:22.043370,-227
21:21:22.043370,8447
21:21:22.043370,-1
21:21:22.043370,-229
21:21:22.043370,5887
21:21:22.043370,-1
21:21:22.043370,-234
21:21:22.043370,6399
21:21:22.043370,-1
21:21:22.043370,-224
21:21:22.043370,10751
21:21:22.043370,-1
21:21:22.043370,-198
21:21:22.043370,18687
21:21:22.043370,-1
21:21:22.043370,-172
21:21:22.043370,25855
21:21:22.043370,-1
21:21:22.043370,-149
21:21:22.043370,26623
21:21:22.043370,-1
21:21:22.043370,-153
21:21:22.043370,29439
21:21:22.043370,-1
21:21:22.043370,-132
21:21:22.043370,-31745
21:21:22.043370,-1
21:21:22.043370,-118
21:21:22.043370,-29953
21:21:22.043370,-1
21:21:22.043370,-113
21:21:22.043370,-27393
21:21:22.043370,-1
21:21:22.043370,-113
21:21:22.043370,-28673
21:21:22.043370,-1
21:21:22.043370,-104
21:21:22.043370,-26369
21:21:22.043370,-1
21:21:22.043370,-108
21:21:22.043370,-28161
21:21:22.043370,-1
21:21:22.043370,-111
21:21:22.593201,-108
21:21:22.593201,-28161
21:21:22.593201,-1
21:21:22.593201,-116
21:21:22.593201,-28161
21:21:22.593201,-1
21:21:22.593201,-106
21:21:22.593201,-26369
21:21:22.593201,-1
21:21:22.593201,-101
21:21:22.593201,-25601
21:21:22.593201,-1
21:21:22.593201,-101
21:21:22.593201,-23809
21:21:22.593201,-1
21:21:22.593201,-82
21:21:22.593201,-19713
21:21:22.593201,-1
21:21:22.593201,-80
21:21:22.593201,-22017
21:21:22.593201,-1
21:21:22.593201,-85
21:21:22.593201,-18945
21:21:22.593201,-1
21:21:22.593201,-78
21:21:22.593201,-20225
21:21:22.593201,-1
21:21:22.593201,-78
21:21:22.593201,-19713
21:21:22.593201,-1
21:21:22.593201,-75
21:21:22.593201,-20737
21:21:22.593201,-1
21:21:22.593201,-97
21:21:22.593201,-26881
21:21:22.593201,-1
21:21:22.593201,-106
21:21:22.593201,-21505
21:21:22.593201,-1
21:21:22.593201,-52
21:21:22.593201,-9985
21:21:22.593201,-1
21:21:22.593201,-49
21:21:22.593201,-16641
21:21:22.593201,-1
21:21:22.593201,-71
21:21:22.593201,-18945
21:21:22.593201,-1
21:21:22.593201,-75
21:21:22.593201,-18433
21:21:22.593201,-1
21:21:22.593201,-78
21:21:22.593201,-20225
21:21:22.593201,-1
21:21:22.593201,-80
21:21:22.593201,-32257
21:21:22.593201,-1
21:21:22.593201,-251
21:21:22.593201,-5633
21:21:22.593201,-2
21:21:22.593201,49
21:21:22.593201,-22784
21:21:22.593201,2
21:21:22.593201,1075
21:21:22.593201,-14336
21:21:22.593201,2
21:21:22.593201,37
21:21:22.593201,26880
21:21:22.593201,-1
21:21:22.593201,-108
21:21:22.593201,10239
21:21:22.593201,-1
21:21:22.593201,-253
21:21:22.593201,15615
21:21:22.593201,-1
21:21:22.593201,-210
21:21:22.593201,6399
21:21:22.593201,-1
21:21:22.593201,-210
21:21:22.593201,13823
21:21:22.593201,-1
21:21:22.593201,-203
21:21:22.593201,16127
21:21:22.593201,-1
21:21:22.593201,-187
21:21:22.593201,17407
21:21:22.593201,-1
21:21:22.593201,-191
21:21:22.593201,16895
21:21:22.593201,-1
21:21:22.593201,-194
21:21:22.593201,16895
21:21:22.593201,-1
21:21:22.593201,-187
21:21:22.593201,19199
21:21:22.593201,-1
21:21:22.593201,-179
21:21:22.593201,21759
21:21:22.593201,-1
21:21:22.593201,-156
21:21:22.593201,31487
21:21:22.593201,-1
21:21:22.593201,-118
21:21:22.593201,-26881
21:21:22.593201,-1
21:21:22.593201,-104
21:21:22.593201,-29441
21:21:22.593201,-1
21:21:22.593201,-132
21:21:23.142694,-130
21:21:23.142694,-32257
21:21:23.142694,-1
21:21:23.142694,-137
21:21:23.142694,30719
21:21:23.142694,-1
21:21:23.142694,-127
21:21:23.142694,-32257
21:21:23.142694,-1
21:21:23.142694,-120
21:21:23.142694,-29441
21:21:23.142694,-1
21:21:23.142694,-116
21:21:23.142694,-27393
21:21:23.142694,-1
21:21:23.142694,-104
21:21:23.142694,-28673
21:21:23.142694,-1
21:21:23.142694,-111
21:21:23.142694,-25601
21:21:23.142694,-1
21:21:23.142694,-101
21:21:23.142694,-26881
21:21:23.142694,-1
21:21:23.142694,-101
21:21:23.142694,-25089
21:21:23.142694,-1
21:21:23.142694,-104
21:21:23.142694,-25601
21:21:23.142694,-1
21:21:23.142694,-97
21:21:23.142694,-24577
21:21:23.142694,-1
21:21:23.142694,-97
21:21:23.142694,-23297
21:21:23.142694,-1
21:21:23.142694,-92
21:21:23.142694,-23297
21:21:23.142694,-1
21:21:23.142694,-97
21:21:23.142694,-23809
21:21:23.142694,-1
21:21:23.142694,-87
21:21:23.142694,-22017
21:21:23.142694,-1
21:21:23.142694,-87
21:21:23.142694,-22529
21:21:23.142694,-1
21:21:23.142694,-99
21:21:23.142694,-28161
21:21:23.142694,-1
21:21:23.142694,-123
21:21:23.142694,-31745
21:21:23.142694,-1
21:21:23.142694,-104
21:21:23.142694,-17153
21:21:23.142694,-1
21:21:23.142694,-49
21:21:23.142694,-14849
21:21:23.142694,-1
21:21:23.142694,-78
21:21:23.142694,-22529
21:21:23.142694,-1
21:21:23.142694,-85
21:21:23.142694,-18433
21:21:23.142694,-1
21:21:23.142694,-75
21:21:23.142694,-21505
21:21:23.142694,-1
21:21:23.142694,-89
21:21:23.142694,-22529
21:21:23.142694,-1
21:21:23.142694,-130
21:21:23.142694,1535
21:21:23.142694,-1
21:21:23.142694,-319
21:21:23.142694,-13569
21:21:23.142694,-1
21:21:23.142694,563
21:21:23.142694,6400
21:21:23.142694,4
21:21:23.142694,795
21:21:23.142694,25856
21:21:23.142694,0
21:21:23.142694,-170
21:21:23.142694,29439
21:21:23.142694,-1
21:21:23.142694,-246
21:21:23.142694,-9985
21:21:23.142694,-2
21:21:23.142694,-224
21:21:23.142694,12031
21:21:23.142694,-1
21:21:23.142694,-222
21:21:23.142694,13055
21:21:23.142694,-1
21:21:23.142694,-198
21:21:23.142694,13823
21:21:23.142694,-1
21:21:23.142694,-198
21:21:23.142694,16895
21:21:23.142694,-1
21:21:23.142694,-194
21:21:23.142694,16127
21:21:23.142694,-1
21:21:23.142694,-194
21:21:23.142694,15615
21:21:23.142694,-1
21:21:23.142694,-198
21:21:23.692708,-198
21:21:23.692708,16127
21:21:23.692708,-1
21:21:23.692708,-189
21:21:23.692708,19967
21:21:23.692708,-1
21:21:23.692708,-168
21:21:23.692708,27647
21:21:23.692708,-1
21:21:23.692708,-123
21:21:23.692708,-26881
21:21:23.692708,-1
21:21:23.692708,-99
21:21:23.692708,-26881
21:21:23.692708,-1
21:21:23.692708,-113
21:21:23.692708,-29953
21:21:23.692708,-1
21:21:23.692708,-118
21:21:23.692708,-29441
21:21:23.692708,-1
21:21:23.692708,-113
21:21:23.692708,-27393
21:21:23.692708,-1
21:21:23.692708,-99
21:21:23.692708,-25089
21:21:23.692708,-1
21:21:23.692708,-99
21:21:23.692708,-24577
21:21:23.692708,-1
21:21:23.692708,-97
21:21:23.692708,-25089
21:21:23.692708,-1
21:21:23.692708,-101
21:21:23.692708,-25601
21:21:23.692708,-1
21:21:23.692708,-99
21:21:23.692708,-25089
21:21:23.692708,-1
21:21:23.692708,-104
21:21:23.692708,-26369
21:21:23.692708,-1
21:21:23.692708,-99
21:21:23.692708,-25089
21:21:23.692708,-1
21:21:23.692708,-97
21:21:23.692708,-23297
21:21:23.692708,-1
21:21:23.692708,-92
21:21:23.692708,-23297
21:21:23.692708,-1
21:21:23.692708,-87
21:21:23.692708,-21505
21:21:23.692708,-1
21:21:23.692708,-87
21:21:23.692708,-21505
21:21:23.692708,-1
21:21:23.692708,-82
21:21:23.692708,-20737
21:21:23.692708,-1
21:21:23.692708,-85
21:21:23.692708,-20225
21:21:23.692708,-1
21:21:23.692708,-80
21:21:23.692708,-20737
21:21:23.692708,-1
21:21:23.692708,-82
21:21:23.692708,-20737
21:21:23.692708,-1
21:21:23.692708,-80
21:21:23.692708,-20225
21:21:23.692708,-1
21:21:23.692708,-85
21:21:23.692708,-23297
21:21:23.692708,-1
21:21:23.692708,-104
21:21:23.692708,-29441
21:21:23.692708,-1
21:21:23.692708,-123
21:21:23.692708,-28161
21:21:23.692708,-1
21:21:23.692708,-78
21:21:23.692708,-14081
21:21:23.692708,-1
21:21:23.692708,-56
21:21:23.692708,-17153
21:21:23.692708,-1
21:21:23.692708,-82
21:21:23.692708,-22529
21:21:23.692708,-1
21:21:23.692708,-85
21:21:23.692708,-21505
21:21:23.692708,-1
21:21:23.692708,-87
21:21:23.692708,-23297
21:21:23.692708,-1
21:21:23.692708,-97
21:21:23.692708,-31233
21:21:23.692708,-1
21:21:23.692708,-227
21:21:23.692708,-14081
21:21:23.692708,-2
21:21:23.692708,-78
21:21:23.692708,18687
21:21:23.692708,2
21:21:23.692708,1186
21:21:23.692708,-9472
21:21:23.692708,3
21:21:23.692708,217
21:21:24.292261,-165
21:21:24.292261,28927
21:21:24.292261,-1
21:21:24.292261,-215
21:21:24.292261,-6145
21:21:24.292261,-2
21:21:24.292261,-241
21:21:24.292261,5375
21:21:24.292261,-1
21:21:24.292261,-251
21:21:24.292261,5375
21:21:24.292261,-1
21:21:24.292261,-232
21:21:24.292261,4607
21:21:24.292261,-1
21:21:24.292261,-234
21:21:24.292261,7167
21:21:24.292261,-1
21:21:24.292261,-232
21:21:24.292261,5887
21:21:24.292261,-1
21:21:24.292261,-241
21:21:24.292261,1535
21:21:24.292261,-1
21:21:24.292261,-258
21:21:24.292261,511
21:21:24.292261,-1
21:21:24.292261,-258
21:21:24.292261,-257
21:21:24.292261,-2
21:21:24.292261,-246
21:21:24.292261,5887
21:21:24.292261,-1
21:21:24.292261,-217
21:21:24.292261,15615
21:21:24.292261,-1
21:21:24.292261,-177
21:21:24.292261,24063
21:21:24.292261,-1
21:21:24.292261,-153
21:21:24.292261,28415
21:21:24.292261,-1
21:21:24.292261,-142
21:21:24.292261,30719
21:21:24.292261,-1
21:21:24.292261,-130
21:21:24.292261,-30465
21:21:24.292261,-1
21:21:24.292261,-113
21:21:24.292261,-28161
21:21:24.292261,-1
21:21:24.292261,-106
21:21:24.292261,-25601
21:21:24.292261,-1
21:21:24.292261,-104
21:21:24.292261,-26369
21:21:24.292261,-1
21:21:24.292261,-101
21:21:24.292261,-25601
21:21:24.292261,-1
21:21:24.292261,-106
21:21:24.292261,-27393
21:21:24.292261,-1
21:21:24.292261,-108
21:21:24.292261,-28161
21:21:24.292261,-1
21:21:24.292261,-113
21:21:24.292261,-28673
21:21:24.292261,-1
21:21:24.292261,-111
21:21:24.292261,-27393
21:21:24.292261,-1
21:21:24.292261,-108
21:21:24.292261,-27393
21:21:24.292261,-1
21:21:24.292261,-111
21:21:24.292261,-31233
21:21:24.292261,-1
21:21:24.292261,-144
21:21:24.292261,25343
21:21:24.292261,-1
21:21:24.292261,-146
21:21:24.292261,30719
21:21:24.292261,-1
21:21:24.292261,-142
21:21:24.292261,28927
21:21:24.292261,-1
21:21:24.292261,-134
21:21:24.292261,-29441
21:21:24.292261,-1
21:21:24.292261,-92
21:21:24.292261,-20737
21:21:24.292261,-1
21:21:24.292261,-92
21:21:24.292261,-24577
21:21:24.292261,-1
21:21:24.292261,-89
21:21:24.292261,-22529
21:21:24.292261,-1
21:21:24.292261,-92
21:21:24.292261,-23297
21:21:24.292261,-1
21:21:24.292261,-94
21:21:24.292261,-24577
21:21:24.292261,-1
21:21:24.292261,-94
21:21:24.292261,-23297
21:21:24.292261,-1
21:21:24.292261,-99
21:21:24.792833,-101
21:21:24.792833,-25089
21:21:24.792833,-1
21:21:24.792833,-104
21:21:24.792833,-26369
21:21:24.792833,-1
21:21:24.792833,-99
21:21:24.792833,-25089
21:21:24.792833,-1
21:21:24.792833,-104
