timestamp,ecg
21:32:55.197354,213
21:32:55.197354,11264
21:32:55.197354,0
21:32:55.197354,-21
21:32:55.197354,12031
21:32:55.197354,-1
21:32:55.197354,-182
21:32:55.197354,-23297
21:32:55.197354,-1
21:32:55.197354,-101
21:32:55.197354,-31233
21:32:55.197354,-1
21:32:55.197354,-165
21:32:55.197354,20991
21:32:55.197354,-1
21:32:55.197354,-132
21:32:55.197354,22271
21:32:55.197354,-1
21:32:55.197354,-189
21:32:55.197354,20479
21:32:55.197354,-1
21:32:55.197354,-239
21:32:55.197354,9471
21:32:55.197354,-1
21:32:55.197354,-125
21:32:55.197354,27647
21:32:55.197354,-1
21:32:55.197354,-274
21:32:55.197354,-19457
21:32:55.197354,-2
21:32:55.197354,-310
21:32:55.197354,1535
21:32:55.197354,-1
21:32:55.197354,-184
21:32:55.197354,15615
21:32:55.197354,-1
21:32:55.197354,-215
21:32:55.197354,-28673
21:32:55.197354,-1
21:32:55.197354,2
21:32:55.197354,8960
21:32:55.197354,0
21:32:55.197354,73
21:32:55.197354,27648
21:32:55.197354,0
21:32:55.197354,94
21:32:55.197354,20480
21:32:55.197354,0
21:32:55.197354,80
21:32:55.197354,24832
21:32:55.197354,0
21:32:55.197354,113
21:32:55.197354,28928
21:32:55.197354,0
21:32:55.197354,101
21:32:55.197354,22272
21:32:55.197354,0
21:32:55.197354,94
21:32:55.197354,25856
21:32:55.197354,0
21:32:55.197354,89
21:32:55.197354,22272
21:32:55.197354,0
21:32:55.197354,87
21:32:55.197354,17408
21:32:55.197354,0
21:32:55.197354,63
21:32:55.197354,19200
21:32:55.197354,0
21:32:55.197354,82
21:32:55.197354,16128
21:32:55.197354,0
21:32:55.197354,49
21:32:55.197354,16128
21:32:55.197354,0
21:32:55.197354,85
21:32:55.197354,25344
21:32:55.197354,0
21:32:55.197354,92
21:32:55.197354,18176
21:32:55.197354,0
21:32:55.197354,73
21:32:55.197354,22784
21:32:55.197354,0
21:32:55.197354,85
21:32:55.197354,16128
21:32:55.197354,0
21:32:55.197354,54
21:32:55.197354,12032
21:32:55.197354,0
21:32:55.197354,21
21:32:55.197354,-1024
21:32:55.197354,-1
21:32:55.197354,-18
21:32:55.197354,-769
21:32:55.197354,-1
21:32:55.197354,44
21:32:55.197354,19968
21:32:55.197354,0
21:32:55.197354,80
21:32:55.197354,15616
21:32:55.197354,0
21:32:55.197354,37
21:32:55.197354,10240
21:32:55.197354,0
21:32:55.197354,56
21:32:55.197354,13312
21:32:55.197354,0
21:32:55.197354,35
21:32:55.747121,40
21:32:55.747121,8960
21:32:55.747121,0
21:32:55.747121,-49
21:32:55.747121,9471
21:32:55.747121,-1
21:32:55.747121,-153
21:32:55.747121,19967
21:32:55.747121,2
21:32:55.747121,1652
21:32:55.747121,10240
21:32:55.747121,7
21:32:55.747121,876
21:32:55.747121,12544
21:32:55.747121,0
21:32:55.747121,-85
21:32:55.747121,-32257
21:32:55.747121,-1
21:32:55.747121,-222
21:32:55.747121,13055
21:32:55.747121,-1
21:32:55.747121,-177
21:32:55.747121,16127
21:32:55.747121,-1
21:32:55.747121,-196
21:32:55.747121,17919
21:32:55.747121,-1
21:32:55.747121,-198
21:32:55.747121,11263
21:32:55.747121,-1
21:32:55.747121,-201
21:32:55.747121,15103
21:32:55.747121,-1
21:32:55.747121,-229
21:32:55.747121,2815
21:32:55.747121,-1
21:32:55.747121,-251
21:32:55.747121,-7425
21:32:55.747121,-2
21:32:55.747121,-317
21:32:55.747121,-14081
21:32:55.747121,-2
21:32:55.747121,-312
21:32:55.747121,-14593
21:32:55.747121,-2
21:32:55.747121,-281
21:32:55.747121,5887
21:32:55.747121,-1
21:32:55.747121,-206
21:32:55.747121,20991
21:32:55.747121,-1
21:32:55.747121,-118
21:32:55.747121,-16641
21:32:55.747121,-1
21:32:55.747121,-30
21:32:55.747121,255
21:32:55.747121,0
21:32:55.747121,35
21:32:55.747121,14336
21:32:55.747121,0
21:32:55.747121,56
21:32:55.747121,15616
21:32:55.747121,0
21:32:55.747121,75
21:32:55.747121,19968
21:32:55.747121,0
21:32:55.747121,78
21:32:55.747121,18176
21:32:55.747121,0
21:32:55.747121,56
21:32:55.747121,15616
21:32:55.747121,0
21:32:55.747121,59
21:32:55.747121,9472
21:32:55.747121,0
21:32:55.747121,35
21:32:55.747121,12544
21:32:55.747121,0
21:32:55.747121,47
21:32:55.747121,10240
21:32:55.747121,0
21:32:55.747121,44
21:32:55.747121,9472
21:32:55.747121,0
21:32:55.747121,30
21:32:55.747121,8960
21:32:55.747121,0
21:32:55.747121,40
21:32:55.747121,10752
21:32:55.747121,0
21:32:55.747121,40
21:32:55.747121,8448
21:32:55.747121,0
21:32:55.747121,40
21:32:55.747121,12544
21:32:55.747121,0
21:32:55.747121,42
21:32:55.747121,9472
21:32:55.747121,0
21:32:55.747121,37
21:32:55.747121,9472
21:32:55.747121,0
21:32:55.747121,40
21:32:55.747121,6656
21:32:55.747121,0
21:32:55.747121,7
21:32:55.747121,0
21:32:55.747121,0
21:32:55.747121,2
21:32:56.344645,40
21:32:56.344645,22784
21:32:56.344645,0
21:32:56.344645,80
21:32:56.344645,13312
21:32:56.344645,0
21:32:56.344645,52
21:32:56.344645,15104
21:32:56.344645,0
21:32:56.344645,52
21:32:56.344645,12032
21:32:56.344645,0
21:32:56.344645,47
21:32:56.344645,8960
21:32:56.344645,0
21:32:56.344645,18
21:32:56.344645,-11264
21:32:56.344645,-1
21:32:56.344645,-196
21:32:56.344645,22271
21:32:56.344645,-1
21:32:56.344645,476
21:32:56.344645,-7680
21:32:56.344645,5
21:32:56.344645,1785
21:32:56.344645,-28928
21:32:56.344645,3
21:32:56.344645,75
21:32:56.344645,-15104
21:32:56.344645,-1
21:32:56.344645,-89
21:32:56.344645,12543
21:32:56.344645,-1
21:32:56.344645,-201
21:32:56.344645,21759
21:32:56.344645,-1
21:32:56.344645,-203
21:32:56.344645,14335
21:32:56.344645,-1
21:32:56.344645,-184
21:32:56.344645,15615
21:32:56.344645,-1
21:32:56.344645,-201
21:32:56.344645,15615
21:32:56.344645,-1
21:32:56.344645,-206
21:32:56.344645,11263
21:32:56.344645,-1
21:32:56.344645,-220
21:32:56.344645,1023
21:32:56.344645,-1
21:32:56.344645,-265
21:32:56.344645,-769
21:32:56.344645,-2
21:32:56.344645,-288
21:32:56.344645,-14081
21:32:56.344645,-2
21:32:56.344645,-300
21:32:56.344645,-5633
21:32:56.344645,-2
21:32:56.344645,-255
21:32:56.344645,7679
21:32:56.344645,-1
21:32:56.344645,-172
21:32:56.344645,-28673
21:32:56.344645,-1
21:32:56.344645,-82
21:32:56.344645,-10497
21:32:56.344645,-1
21:32:56.344645,11
21:32:56.344645,8448
21:32:56.344645,0
21:32:56.344645,30
21:32:56.344645,11264
21:32:56.344645,0
21:32:56.344645,61
21:32:56.344645,15104
21:32:56.344645,0
21:32:56.344645,56
21:32:56.344645,16128
21:32:56.344645,0
21:32:56.344645,61
21:32:56.344645,13312
21:32:56.344645,0
21:32:56.344645,33
21:32:56.344645,5888
21:32:56.344645,0
21:32:56.344645,37
21:32:56.344645,8960
21:32:56.344645,0
21:32:56.344645,21
21:32:56.344645,9472
21:32:56.344645,0
21:32:56.344645,44
21:32:56.344645,7168
21:32:56.344645,0
21:32:56.344645,37
21:32:56.344645,12032
21:32:56.344645,0
21:32:56.344645,40
21:32:56.344645,10240
21:32:56.344645,0
21:32:56.344645,37
21:32:56.344645,8448
21:32:56.344645,0
21:32:56.344645,47
21:32:56.344645,15616
21:32:56.344645,0
21:32:56.344645,44
21:32:56.847450,35
21:32:56.847450,12032
21:32:56.847450,0
21:32:56.847450,40
21:32:56.847450,8960
21:32:56.847450,0
21:32:56.847450,52
21:32:56.847450,12032
21:32:56.847450,0
21:32:56.847450,23
21:32:56.847450,2816
21:32:56.847450,0
21:32:56.847450,-11
21:32:56.847450,-4353
21:32:56.847450,-1
21:32:56.847450,33
21:32:56.847450,23552
21:32:56.847450,0
21:32:56.847450,97
21:32:56.847450,18688
21:32:56.847450,0
21:32:56.847450,66
21:32:56.847450,15616
21:32:56.847450,0
21:32:56.847450,61
21:32:56.847450,16896
21:32:56.847450,0
21:32:56.847450,71
21:32:56.847450,17408
21:32:56.847450,0
21:32:56.847450,63
21:32:56.847450,5376
21:32:56.847450,0
21:32:56.847450,-137
21:32:56.847450,6399
21:32:56.847450,-1
21:32:56.847450,229
21:32:56.847450,768
21:32:56.847450,5
21:32:56.847450,1918
21:32:56.847450,4352
21:32:56.847450,5
21:32:56.847450,291
21:32:56.847450,-13312
21:32:56.847450,-1
21:32:56.847450,-75
21:32:56.847450,18687
21:32:56.847450,-1
21:32:56.847450,-203
21:32:56.847450,21759
21:32:56.847450,-1
21:32:56.847450,-196
21:32:56.847450,15103
21:32:56.847450,-1
21:32:56.847450,-191
21:32:56.847450,13055
21:32:56.847450,-1
21:32:56.847450,-206
21:32:56.847450,16895
21:32:56.847450,-1
21:32:56.847450,-201
21:32:56.847450,9471
21:32:56.847450,-1
21:32:56.847450,-232
21:32:56.847450,2815
21:32:56.847450,-1
21:32:56.847450,-277
21:32:56.847450,-12289
21:32:56.847450,-2
21:32:56.847450,-314
21:32:56.847450,-17665
21:32:56.847450,-2
21:32:56.847450,-336
21:32:56.847450,-13569
21:32:56.847450,-2
21:32:56.847450,-269
21:32:56.847450,4095
21:32:56.847450,-1
21:32:56.847450,-206
21:32:56.847450,27647
21:32:56.847450,-1
21:32:56.847450,-97
21:32:56.847450,-13057
21:32:56.847450,-1
21:32:56.847450,4
21:32:56.847450,11264
21:32:56.847450,0
21:32:56.847450,63
21:32:56.847450,19200
21:32:56.847450,0
21:32:56.847450,75
21:32:56.847450,16896
21:32:56.847450,0
21:32:56.847450,68
21:32:56.847450,18688
21:32:56.847450,0
21:32:56.847450,66
21:32:56.847450,15616
21:32:56.847450,0
21:32:56.847450,71
21:32:56.847450,16128
21:32:56.847450,0
21:32:56.847450,40
21:32:56.847450,10240
21:32:56.847450,0
21:32:56.847450,47
21:32:56.847450,9472
21:32:56.847450,0
21:32:56.847450,37
21:32:57.397471,44
21:32:57.397471,9472
21:32:57.397471,0
21:32:57.397471,37
21:32:57.397471,12032
21:32:57.397471,0
21:32:57.397471,52
21:32:57.397471,9472
21:32:57.397471,0
21:32:57.397471,35
21:32:57.397471,12032
21:32:57.397471,0
21:32:57.397471,44
21:32:57.397471,13824
21:32:57.397471,0
21:32:57.397471,82
21:32:57.397471,22784
21:32:57.397471,0
21:32:57.397471,68
21:32:57.397471,14336
21:32:57.397471,0
21:32:57.397471,61
21:32:57.397471,17408
21:32:57.397471,0
21:32:57.397471,68
21:32:57.397471,16896
21:32:57.397471,0
21:32:57.397471,59
21:32:57.397471,13312
21:32:57.397471,0
21:32:57.397471,47
21:32:57.397471,12032
21:32:57.397471,0
21:32:57.397471,40
21:32:57.397471,7680
21:32:57.397471,0
21:32:57.397471,16
21:32:57.397471,-512
21:32:57.397471,-1
21:32:57.397471,16
21:32:57.397471,16896
21:32:57.397471,0
21:32:57.397471,97
21:32:57.397471,23552
21:32:57.397471,0
21:32:57.397471,63
21:32:57.397471,10752
21:32:57.397471,0
21:32:57.397471,52
21:32:57.397471,15104
21:32:57.397471,0
21:32:57.397471,54
21:32:57.397471,15104
21:32:57.397471,0
21:32:57.397471,61
21:32:57.397471,7168
21:32:57.397471,0
21:32:57.397471,-82
21:32:57.397471,4095
21:32:57.397471,-1
21:32:57.397471,-59
21:32:57.397471,18175
21:32:57.397471,3
21:32:57.397471,1823
21:32:57.397471,-23552
21:32:57.397471,6
21:32:57.397471,639
21:32:57.397471,-4608
21:32:57.397471,-1
21:32:57.397471,-73
21:32:57.397471,28927
21:32:57.397471,-1
21:32:57.397471,-229
21:32:57.397471,14335
21:32:57.397471,-1
21:32:57.397471,-194
21:32:57.397471,8447
21:32:57.397471,-1
21:32:57.397471,-224
21:32:57.397471,12543
21:32:57.397471,-1
21:32:57.397471,-203
21:32:57.397471,11263
21:32:57.397471,-1
21:32:57.397471,-229
21:32:57.397471,3583
21:32:57.397471,-1
21:32:57.397471,-236
21:32:57.397471,3583
21:32:57.397471,-1
21:32:57.397471,-279
21:32:57.397471,-8705
21:32:57.397471,-2
21:32:57.397471,-298
21:32:57.397471,-21505
21:32:57.397471,-2
21:32:57.397471,-362
21:32:57.397471,-18433
21:32:57.397471,-2
21:32:57.397471,-300
21:32:57.397471,-6913
21:32:57.397471,-2
21:32:57.397471,-236
21:32:57.397471,17919
21:32:57.397471,-1
21:32:57.397471,-144
21:32:57.397471,-22017
21:32:57.397471,-1
21:32:57.397471,-37
21:32:57.996111,-2
21:32:57.996111,8703
21:32:57.996111,0
21:32:57.996111,52
21:32:57.996111,15616
21:32:57.996111,0
21:32:57.996111,73
21:32:57.996111,18176
21:32:57.996111,0
21:32:57.996111,56
21:32:57.996111,15616
21:32:57.996111,0
21:32:57.996111,80
21:32:57.996111,21760
21:32:57.996111,0
21:32:57.996111,78
21:32:57.996111,15616
21:32:57.996111,0
21:32:57.996111,61
21:32:57.996111,19200
21:32:57.996111,0
21:32:57.996111,63
21:32:57.996111,13312
21:32:57.996111,0
21:32:57.996111,71
21:32:57.996111,19200
21:32:57.996111,0
21:32:57.996111,61
21:32:57.996111,15104
21:32:57.996111,0
21:32:57.996111,61
21:32:57.996111,17408
21:32:57.996111,0
21:32:57.996111,66
21:32:57.996111,15104
21:32:57.996111,0
21:32:57.996111,63
21:32:57.996111,16896
21:32:57.996111,0
21:32:57.996111,61
21:32:57.996111,15616
21:32:57.996111,0
21:32:57.996111,59
21:32:57.996111,13824
21:32:57.996111,0
21:32:57.996111,61
21:32:57.996111,15616
21:32:57.996111,0
21:32:57.996111,47
21:32:57.996111,13312
21:32:57.996111,0
21:32:57.996111,63
21:32:57.996111,15104
21:32:57.996111,0
21:32:57.996111,59
21:32:57.996111,17408
21:32:57.996111,0
21:32:57.996111,68
21:32:57.996111,13312
21:32:57.996111,0
21:32:57.996111,56
21:32:57.996111,16896
21:32:57.996111,0
21:32:57.996111,44
21:32:57.996111,5376
21:32:57.996111,0
21:32:57.996111,7
21:32:57.996111,-2304
21:32:57.996111,-1
21:32:57.996111,-4
21:32:57.996111,11007
21:32:57.996111,0
21:32:57.996111,85
21:32:57.996111,20992
21:32:57.996111,0
21:32:57.996111,56
21:32:57.996111,10752
21:32:57.996111,0
21:32:57.996111,44
21:32:57.996111,12544
21:32:57.996111,0
21:32:57.996111,47
21:32:57.996111,8960
21:32:57.996111,0
21:32:57.996111,40
21:32:57.996111,9472
21:32:57.996111,0
21:32:57.996111,-35
21:32:57.996111,14335
21:32:57.996111,-1
21:32:57.996111,-201
21:32:57.996111,-27905
21:32:57.996111,1
21:32:57.996111,1468
21:32:57.996111,24832
21:32:57.996111,7
21:32:57.996111,1079
21:32:57.996111,-29952
21:32:57.996111,0
21:32:57.996111,-87
21:32:57.996111,-25601
21:32:57.996111,-1
21:32:57.996111,-210
21:32:57.996111,8959
21:32:57.996111,-1
21:32:57.996111,-194
21:32:57.996111,11263
21:32:57.996111,-1
21:32:57.996111,-220
21:32:58.547308,-203
21:32:58.547308,13823
21:32:58.547308,-1
21:32:58.547308,-206
21:32:58.547308,11263
21:32:58.547308,-1
21:32:58.547308,-227
21:32:58.547308,4095
21:32:58.547308,-1
21:32:58.547308,-246
21:32:58.547308,511
21:32:58.547308,-1
21:32:58.547308,-279
21:32:58.547308,-13569
21:32:58.547308,-2
21:32:58.547308,-329
21:32:58.547308,-17665
21:32:58.547308,-2
21:32:58.547308,-326
21:32:58.547308,-14593
21:32:58.547308,-2
21:32:58.547308,-279
21:32:58.547308,5375
21:32:58.547308,-1
21:32:58.547308,-198
21:32:58.547308,27135
21:32:58.547308,-1
21:32:58.547308,-99
21:32:58.547308,-10497
21:32:58.547308,-1
21:32:58.547308,11
21:32:58.547308,11264
21:32:58.547308,0
21:32:58.547308,52
21:32:58.547308,16896
21:32:58.547308,0
21:32:58.547308,80
21:32:58.547308,18176
21:32:58.547308,0
21:32:58.547308,75
21:32:58.547308,23552
21:32:58.547308,0
21:32:58.547308,78
21:32:58.547308,16128
21:32:58.547308,0
21:32:58.547308,63
21:32:58.547308,16128
21:32:58.547308,0
21:32:58.547308,61
21:32:58.547308,16896
21:32:58.547308,0
21:32:58.547308,63
21:32:58.547308,15616
21:32:58.547308,0
21:32:58.547308,73
21:32:58.547308,18176
21:32:58.547308,0
21:32:58.547308,52
21:32:58.547308,13824
21:32:58.547308,0
21:32:58.547308,68
21:32:58.547308,17408
21:32:58.547308,0
21:32:58.547308,56
21:32:58.547308,15616
21:32:58.547308,0
21:32:58.547308,73
21:32:58.547308,18688
21:32:58.547308,0
21:32:58.547308,61
21:32:58.547308,15616
21:32:58.547308,0
21:32:58.547308,68
21:32:58.547308,16896
21:32:58.547308,0
21:32:58.547308,66
21:32:58.547308,16896
21:32:58.547308,0
21:32:58.547308,56
21:32:58.547308,15104
21:32:58.547308,0
21:32:58.547308,61
21:32:58.547308,15616
21:32:58.547308,0
21:32:58.547308,56
21:32:58.547308,13312
21:32:58.547308,0
21:32:58.547308,49
21:32:58.547308,13312
21:32:58.547308,0
21:32:58.547308,52
21:32:58.547308,10752
21:32:58.547308,0
21:32:58.547308,28
21:32:58.547308,5376
21:32:58.547308,0
21:32:58.547308,7
21:32:58.547308,-3584
21:32:58.547308,-1
21:32:58.547308,-2
21:32:58.547308,11007
21:32:58.547308,0
21:32:58.547308,73
21:32:58.547308,18688
21:32:58.547308,0
21:32:58.547308,61
21:32:58.547308,12032
21:32:58.547308,0
21:32:58.547308,44
21:32:59.096657,44
21:32:59.096657,11264
21:32:59.096657,0
21:32:59.096657,52
21:32:59.096657,12032
21:32:59.096657,0
21:32:59.096657,21
21:32:59.096657,-21760
21:32:59.096657,-1
21:32:59.096657,-253
21:32:59.096657,-23297
21:32:59.096657,-1
21:32:59.096657,772
21:32:59.096657,-15104
21:32:59.096657,6
21:32:59.096657,1634
21:32:59.096657,32000
21:32:59.096657,2
21:32:59.096657,11
21:32:59.096657,-8960
21:32:59.096657,-1
21:32:59.096657,-113
21:32:59.096657,12543
21:32:59.096657,-1
21:32:59.096657,-172
21:32:59.096657,23551
21:32:59.096657,-1
21:32:59.096657,-196
21:32:59.096657,18687
21:32:59.096657,-1
21:32:59.096657,-175
21:32:59.096657,17919
21:32:59.096657,-1
21:32:59.096657,-184
21:32:59.096657,19967
21:32:59.096657,-1
21:32:59.096657,-189
21:32:59.096657,12031
21:32:59.096657,-1
21:32:59.096657,-220
21:32:59.096657,7679
21:32:59.096657,-1
21:32:59.096657,-260
21:32:59.096657,-9217
21:32:59.096657,-2
21:32:59.096657,-293
21:32:59.096657,-11777
21:32:59.096657,-2
21:32:59.096657,-319
21:32:59.096657,-10497
21:32:59.096657,-2
21:32:59.096657,-255
21:32:59.096657,7167
21:32:59.096657,-1
21:32:59.096657,-191
21:32:59.096657,-32257
21:32:59.096657,-1
21:32:59.096657,-66
21:32:59.096657,-4353
21:32:59.096657,-1
21:32:59.096657,16
21:32:59.096657,12032
21:32:59.096657,0
21:32:59.096657,71
21:32:59.096657,20992
21:32:59.096657,0
21:32:59.096657,85
21:32:59.096657,21760
21:32:59.096657,0
21:32:59.096657,85
21:32:59.096657,20992
21:32:59.096657,0
21:32:59.096657,73
21:32:59.096657,18688
21:32:59.096657,0
21:32:59.096657,73
21:32:59.096657,16128
21:32:59.096657,0
21:32:59.096657,56
21:32:59.096657,16128
21:32:59.096657,0
21:32:59.096657,66
21:32:59.096657,15616
21:32:59.096657,0
21:32:59.096657,54
21:32:59.096657,13312
21:32:59.096657,0
21:32:59.096657,59
21:32:59.096657,16128
21:32:59.096657,0
21:32:59.096657,59
21:32:59.096657,15616
21:32:59.096657,0
21:32:59.096657,73
21:32:59.096657,18688
21:32:59.096657,0
21:32:59.096657,54
21:32:59.096657,15104
21:32:59.096657,0
21:32:59.096657,78
21:32:59.096657,18688
21:32:59.096657,0
21:32:59.096657,59
21:32:59.096657,15616
21:32:59.096657,0
21:32:59.096657,66
21:32:59.096657,13312
21:32:59.096657,0
21:32:59.096657,47
21:32:59.647181,61
21:32:59.647181,16128
21:32:59.647181,0
21:32:59.647181,63
21:32:59.647181,17408
21:32:59.647181,0
21:32:59.647181,66
21:32:59.647181,16128
21:32:59.647181,0
21:32:59.647181,47
21:32:59.647181,9472
21:32:59.647181,0
21:32:59.647181,35
21:32:59.647181,3584
21:32:59.647181,0
21:32:59.647181,0
21:32:59.647181,4608
21:32:59.647181,0
21:32:59.647181,26
21:32:59.647181,4096
21:32:59.647181,0
21:32:59.647181,18
21:32:59.647181,3584
21:32:59.647181,0
21:32:59.647181,23
21:32:59.647181,20480
21:32:59.647181,0
21:32:59.647181,104
21:32:59.647181,20992
21:32:59.647181,0
21:32:59.647181,80
21:32:59.647181,22272
21:32:59.647181,0
21:32:59.647181,54
21:32:59.647181,-15104
21:32:59.647181,-1
21:32:59.647181,-203
21:32:59.647181,-7425
21:32:59.647181,-1
21:32:59.647181,824
21:32:59.647181,5632
21:32:59.647181,7
21:32:59.647181,1742
21:32:59.647181,-14848
21:32:59.647181,2
21:32:59.647181,16
21:32:59.647181,-16896
21:32:59.647181,-1
21:32:59.647181,-130
21:32:59.647181,10751
21:32:59.647181,-1
21:32:59.647181,-191
21:32:59.647181,17407
21:32:59.647181,-1
21:32:59.647181,-215
21:32:59.647181,16895
21:32:59.647181,-1
21:32:59.647181,-179
21:32:59.647181,13055
21:32:59.647181,-1
21:32:59.647181,-215
21:32:59.647181,11263
21:32:59.647181,-1
21:32:59.647181,-224
21:32:59.647181,7167
21:32:59.647181,-1
21:32:59.647181,-222
21:32:59.647181,4095
21:32:59.647181,-1
21:32:59.647181,-277
21:32:59.647181,-10497
21:32:59.647181,-2
21:32:59.647181,-303
21:32:59.647181,-12801
21:32:59.647181,-2
21:32:59.647181,-310
21:32:59.647181,-7937
21:32:59.647181,-2
21:32:59.647181,-255
21:32:59.647181,9471
21:32:59.647181,-1
21:32:59.647181,-177
21:32:59.647181,-31745
21:32:59.647181,-1
21:32:59.647181,-71
21:32:59.647181,-5121
21:32:59.647181,-1
21:32:59.647181,23
21:32:59.647181,16128
21:32:59.647181,0
21:32:59.647181,82
21:32:59.647181,20480
21:32:59.647181,0
21:32:59.647181,85
21:32:59.647181,25344
21:32:59.647181,0
21:32:59.647181,99
21:32:59.647181,22784
21:32:59.647181,0
21:32:59.647181,92
21:32:59.647181,24064
21:32:59.647181,0
21:32:59.647181,85
21:32:59.647181,19968
21:32:59.647181,0
21:32:59.647181,73
21:32:59.647181,18688
21:32:59.647181,0
21:32:59.647181,73
21:33:00.198323,63
21:33:00.198323,16896
21:33:00.198323,0
21:33:00.198323,73
21:33:00.198323,16896
21:33:00.198323,0
21:33:00.198323,61
21:33:00.198323,16896
21:33:00.198323,0
21:33:00.198323,71
21:33:00.198323,17408
21:33:00.198323,0
21:33:00.198323,71
21:33:00.198323,24064
21:33:00.198323,0
21:33:00.198323,94
21:33:00.198323,20480
21:33:00.198323,0
21:33:00.198323,87
21:33:00.198323,23552
21:33:00.198323,0
21:33:00.198323,82
21:33:00.198323,22272
21:33:00.198323,0
21:33:00.198323,92
21:33:00.198323,18688
21:33:00.198323,0
21:33:00.198323,68
21:33:00.198323,20992
21:33:00.198323,0
21:33:00.198323,59
21:33:00.198323,5888
21:33:00.198323,0
21:33:00.198323,23
21:33:00.198323,6656
21:33:00.198323,0
21:33:00.198323,42
21:33:00.198323,21760
21:33:00.198323,0
21:33:00.198323,108
21:33:00.198323,25344
21:33:00.198323,0
21:33:00.198323,75
21:33:00.198323,15104
21:33:00.198323,0
21:33:00.198323,71
21:33:00.198323,20992
21:33:00.198323,0
21:33:00.198323,68
21:33:00.198323,15616
21:33:00.198323,0
21:33:00.198323,66
21:33:00.198323,10752
21:33:00.198323,0
21:33:00.198323,-78
21:33:00.198323,6399
21:33:00.198323,-1
21:33:00.198323,18
21:33:00.198323,-14848
21:33:00.198323,3
21:33:00.198323,1854
21:33:00.198323,14592
21:33:00.198323,6
21:33:00.198323,556
21:33:00.198323,-6656
21:33:00.198323,-1
21:33:00.198323,-82
21:33:00.198323,25343
21:33:00.198323,-1
21:33:00.198323,-210
21:33:00.198323,20479
21:33:00.198323,-1
21:33:00.198323,-189
21:33:00.198323,12031
21:33:00.198323,-1
21:33:00.198323,-206
21:33:00.198323,14335
21:33:00.198323,-1
21:33:00.198323,-194
21:33:00.198323,17919
21:33:00.198323,-1
21:33:00.198323,-191
21:33:00.198323,15615
21:33:00.198323,-1
21:33:00.198323,-203
21:33:00.198323,5375
21:33:00.198323,-1
21:33:00.198323,-272
21:33:00.198323,-5633
21:33:00.198323,-2
21:33:00.198323,-288
21:33:00.198323,-13569
21:33:00.198323,-2
21:33:00.198323,-307
21:33:00.198323,-8705
21:33:00.198323,-2
21:33:00.198323,-277
21:33:00.198323,-257
21:33:00.198323,-2
21:33:00.198323,-224
21:33:00.198323,22783
21:33:00.198323,-1
21:33:00.198323,-104
21:33:00.198323,-13057
21:33:00.198323,-1
21:33:00.198323,0
21:33:00.198323,10752
21:33:00.198323,0
21:33:00.198323,54
21:33:00.747646,68
21:33:00.747646,22272
21:33:00.747646,0
21:33:00.747646,94
21:33:00.747646,23552
21:33:00.747646,0
21:33:00.747646,97
21:33:00.747646,26624
21:33:00.747646,0
21:33:00.747646,104
21:33:00.747646,26624
21:33:00.747646,0
21:33:00.747646,101
21:33:00.747646,24064
21:33:00.747646,0
21:33:00.747646,89
21:33:00.747646,22272
21:33:00.747646,0
21:33:00.747646,82
21:33:00.747646,20992
21:33:00.747646,0
21:33:00.747646,89
21:33:00.747646,22784
21:33:00.747646,0
21:33:00.747646,87
21:33:00.747646,21760
21:33:00.747646,0
21:33:00.747646,89
21:33:00.747646,23552
21:33:00.747646,0
21:33:00.747646,82
21:33:00.747646,19968
21:33:00.747646,0
21:33:00.747646,94
21:33:00.747646,22784
21:33:00.747646,0
21:33:00.747646,68
21:33:00.747646,20480
21:33:00.747646,0
21:33:00.747646,85
21:33:00.747646,14336
21:33:00.747646,0
21:33:00.747646,42
21:33:00.747646,7168
21:33:00.747646,0
21:33:00.747646,9
21:33:00.747646,9472
21:33:00.747646,0
21:33:00.747646,101
21:33:00.747646,30208
21:33:00.747646,0
21:33:00.747646,87
21:33:00.747646,16128
21:33:00.747646,0
21:33:00.747646,66
21:33:00.747646,18688
21:33:00.747646,0
21:33:00.747646,61
21:33:00.747646,12032
21:33:00.747646,0
21:33:00.747646,59
21:33:00.747646,16896
21:33:00.747646,0
21:33:00.747646,9
21:33:00.747646,31744
21:33:00.747646,-1
21:33:00.747646,-229
21:33:00.747646,-28929
21:33:00.747646,0
21:33:00.747646,1136
21:33:00.747646,16384
21:33:00.747646,7
21:33:00.747646,1366
21:33:00.747646,23552
21:33:00.747646,1
21:33:00.747646,-68
21:33:00.747646,-22529
21:33:00.747646,-1
21:33:00.747646,-170
21:33:00.747646,15103
21:33:00.747646,-1
21:33:00.747646,-179
21:33:00.747646,14335
21:33:00.747646,-1
21:33:00.747646,-201
21:33:00.747646,18687
21:33:00.747646,-1
21:33:00.747646,-187
21:33:00.747646,16895
21:33:00.747646,-1
21:33:00.747646,-191
21:33:00.747646,16127
21:33:00.747646,-1
21:33:00.747646,-213
21:33:00.747646,5887
21:33:00.747646,-1
21:33:00.747646,-236
21:33:00.747646,1023
21:33:00.747646,-1
21:33:00.747646,-291
21:33:00.747646,-12289
21:33:00.747646,-2
21:33:00.747646,-303
21:33:00.747646,-13569
21:33:00.747646,-2
21:33:00.747646,-307
21:33:00.747646,-4353
21:33:00.747646,-2
21:33:00.747646,-232
21:33:01.297354,-191
21:33:01.297354,30207
21:33:01.297354,-1
21:33:01.297354,-82
21:33:01.297354,-9985
21:33:01.297354,-1
21:33:01.297354,-4
21:33:01.297354,9727
21:33:01.297354,0
21:33:01.297354,73
21:33:01.297354,20992
21:33:01.297354,0
21:33:01.297354,82
21:33:01.297354,24064
21:33:01.297354,0
21:33:01.297354,104
21:33:01.297354,24064
21:33:01.297354,0
21:33:01.297354,85
21:33:01.297354,22784
21:33:01.297354,0
21:33:01.297354,87
21:33:01.297354,19200
21:33:01.297354,0
21:33:01.297354,75
21:33:01.297354,19968
21:33:01.297354,0
21:33:01.297354,73
21:33:01.297354,19968
21:33:01.297354,0
21:33:01.297354,87
21:33:01.297354,18176
21:33:01.297354,0
21:33:01.297354,66
21:33:01.297354,20480
21:33:01.297354,0
21:33:01.297354,75
21:33:01.297354,18176
21:33:01.297354,0
21:33:01.297354,82
21:33:01.297354,22272
21:33:01.297354,0
21:33:01.297354,73
21:33:01.297354,14336
21:33:01.297354,0
21:33:01.297354,42
21:33:01.297354,6656
21:33:01.297354,0
21:33:01.297354,18
21:33:01.297354,12032
21:33:01.297354,0
21:33:01.297354,99
21:33:01.297354,30208
21:33:01.297354,0
21:33:01.297354,97
21:33:01.297354,18176
21:33:01.297354,0
21:33:01.297354,68
21:33:01.297354,20480
21:33:01.297354,0
21:33:01.297354,73
21:33:01.297354,15616
21:33:01.297354,0
21:33:01.297354,71
21:33:01.297354,18176
21:33:01.297354,0
21:33:01.297354,26
21:33:01.297354,-27648
21:33:01.297354,-1
21:33:01.297354,-246
21:33:01.297354,11007
21:33:01.297354,0
21:33:01.297354,992
21:33:01.297354,-1280
21:33:01.297354,6
21:33:01.297354,1423
21:33:01.297354,-20736
21:33:01.297354,1
21:33:01.297354,-37
21:33:01.297354,-17153
21:33:01.297354,-1
21:33:01.297354,-156
21:33:01.297354,11263
21:33:01.297354,-1
21:33:01.297354,-189
21:33:01.297354,15103
21:33:01.297354,-1
21:33:01.297354,-203
21:33:01.297354,18687
21:33:01.297354,-1
21:33:01.297354,-191
21:33:01.297354,15103
21:33:01.297354,-1
21:33:01.297354,-194
21:33:01.297354,14335
21:33:01.297354,-1
21:33:01.297354,-213
21:33:01.297354,10239
21:33:01.297354,-1
21:33:01.297354,-224
21:33:01.297354,3583
21:33:01.297354,-1
21:33:01.297354,-272
21:33:01.297354,-9985
21:33:01.297354,-2
21:33:01.297354,-314
21:33:01.297354,-17153
21:33:01.297354,-2
21:33:01.297354,-303
21:33:01.947420,-277
21:33:01.947420,1023
21:33:01.947420,-1
21:33:01.947420,-203
21:33:01.947420,28927
21:33:01.947420,-1
21:33:01.947420,-99
21:33:01.947420,-8705
21:33:01.947420,-1
21:33:01.947420,21
21:33:01.947420,8960
21:33:01.947420,0
21:33:01.947420,49
21:33:01.947420,16896
21:33:01.947420,0
21:33:01.947420,66
21:33:01.947420,18176
21:33:01.947420,0
21:33:01.947420,82
21:33:01.947420,18688
21:33:01.947420,0
21:33:01.947420,59
21:33:01.947420,15104
21:33:01.947420,0
21:33:01.947420,59
21:33:01.947420,12032
21:33:01.947420,0
21:33:01.947420,44
21:33:01.947420,12032
21:33:01.947420,0
21:33:01.947420,42
21:33:01.947420,10752
21:33:01.947420,0
21:33:01.947420,52
21:33:01.947420,16128
21:33:01.947420,0
21:33:01.947420,63
21:33:01.947420,16128
21:33:01.947420,0
21:33:01.947420,63
21:33:01.947420,13824
21:33:01.947420,0
21:33:01.947420,52
21:33:01.947420,10752
21:33:01.947420,0
21:33:01.947420,16
21:33:01.947420,1024
21:33:01.947420,0
21:33:01.947420,16
21:33:01.947420,12544
21:33:01.947420,0
21:33:01.947420,104
21:33:01.947420,28928
21:33:01.947420,0
21:33:01.947420,71
21:33:01.947420,13824
21:33:01.947420,0
21:33:01.947420,71
21:33:01.947420,19200
21:33:01.947420,0
21:33:01.947420,73
21:33:01.947420,19968
21:33:01.947420,0
21:33:01.947420,75
21:33:01.947420,15616
21:33:01.947420,0
21:33:01.947420,30
21:33:01.947420,-25344
21:33:01.947420,-1
21:33:01.947420,-243
21:33:01.947420,17151
21:33:01.947420,0
21:33:01.947420,1034
21:33:01.947420,4352
21:33:01.947420,7
21:33:01.947420,1423
21:33:01.947420,-18944
21:33:01.947420,1
21:33:01.947420,-30
21:33:01.947420,-16641
21:33:01.947420,-1
21:33:01.947420,-139
21:33:01.947420,18687
21:33:01.947420,-1
21:33:01.947420,-161
21:33:01.947420,22783
21:33:01.947420,-1
21:33:01.947420,-175
21:33:01.947420,23551
21:33:01.947420,-1
21:33:01.947420,-175
21:33:01.947420,17919
21:33:01.947420,-1
21:33:01.947420,-175
21:33:01.947420,22783
21:33:01.947420,-1
21:33:01.947420,-187
21:33:01.947420,12031
21:33:01.947420,-1
21:33:01.947420,-222
21:33:01.947420,5375
21:33:01.947420,-1
21:33:01.947420,-265
21:33:01.947420,-7937
21:33:01.947420,-2
21:33:01.947420,-298
21:33:01.947420,-9217
21:33:01.947420,-2
21:33:01.947420,-272
21:33:02.447488,-243
21:33:02.447488,10239
21:33:02.447488,-1
21:33:02.447488,-182
21:33:02.447488,-32257
21:33:02.447488,-1
21:33:02.447488,-68
21:33:02.447488,-3329
21:33:02.447488,-1
21:33:02.447488,21
21:33:02.447488,11264
21:33:02.447488,0
21:33:02.447488,73
21:33:02.447488,22272
21:33:02.447488,0
21:33:02.447488,82
21:33:02.447488,19968
21:33:02.447488,0
21:33:02.447488,85
21:33:02.447488,22272
21:33:02.447488,0
21:33:02.447488,78
21:33:02.447488,16896
21:33:02.447488,0
21:33:02.447488,71
21:33:02.447488,20992
21:33:02.447488,0
21:33:02.447488,75
21:33:02.447488,16896
21:33:02.447488,0
21:33:02.447488,63
21:33:02.447488,15104
21:33:02.447488,0
21:33:02.447488,59
21:33:02.447488,20480
21:33:02.447488,0
21:33:02.447488,82
21:33:02.447488,16128
21:33:02.447488,0
21:33:02.447488,63
21:33:02.447488,18688
21:33:02.447488,0
21:33:02.447488,75
21:33:02.447488,18176
21:33:02.447488,0
21:33:02.447488,68
21:33:02.447488,17408
21:33:02.447488,0
21:33:02.447488,68
21:33:02.447488,15104
21:33:02.447488,0
21:33:02.447488,35
21:33:02.447488,3584
21:33:02.447488,0
21:33:02.447488,14
21:33:02.447488,7168
21:33:02.447488,0
21:33:02.447488,59
21:33:02.447488,24832
21:33:02.447488,0
21:33:02.447488,101
21:33:02.447488,20480
21:33:02.447488,0
21:33:02.447488,68
21:33:02.447488,18176
21:33:02.447488,0
21:33:02.447488,73
21:33:02.447488,16896
21:33:02.447488,0
21:33:02.447488,61
21:33:02.447488,16128
21:33:02.447488,0
21:33:02.447488,59
21:33:02.447488,1024
21:33:02.447488,0
21:33:02.447488,-146
21:33:02.447488,15103
21:33:02.447488,-1
21:33:02.447488,336
21:33:02.447488,-27648
21:33:02.447488,5
21:33:02.447488,1975
21:33:02.447488,-5888
21:33:02.447488,4
21:33:02.447488,255
21:33:02.447488,-20992
21:33:02.447488,-1
21:33:02.447488,-106
21:33:02.447488,20479
21:33:02.447488,-1
21:33:02.447488,-201
21:33:02.447488,19199
21:33:02.447488,-1
21:33:02.447488,-187
21:33:02.447488,15615
21:33:02.447488,-1
21:33:02.447488,-191
21:33:02.447488,17407
21:33:02.447488,-1
21:33:02.447488,-189
21:33:02.447488,18687
21:33:02.447488,-1
21:33:02.447488,-196
21:33:02.447488,12031
21:33:02.447488,-1
21:33:02.447488,-213
21:33:02.447488,7167
21:33:02.447488,-1
21:33:02.447488,-258
21:33:03.046235,-286
21:33:03.046235,-14081
21:33:03.046235,-2
21:33:03.046235,-319
21:33:03.046235,-14081
21:33:03.046235,-2
21:33:03.046235,-303
21:33:03.046235,-6145
21:33:03.046235,-2
21:33:03.046235,-241
21:33:03.046235,16895
21:33:03.046235,-1
21:33:03.046235,-130
21:33:03.046235,-15873
21:33:03.046235,-1
21:33:03.046235,-11
21:33:03.046235,7935
21:33:03.046235,0
21:33:03.046235,63
21:33:03.046235,20480
21:33:03.046235,0
21:33:03.046235,89
21:33:03.046235,24064
21:33:03.046235,0
21:33:03.046235,99
21:33:03.046235,26624
21:33:03.046235,0
21:33:03.046235,94
21:33:03.046235,20992
21:33:03.046235,0
21:33:03.046235,89
21:33:03.046235,23552
21:33:03.046235,0
21:33:03.046235,73
21:33:03.046235,16128
21:33:03.046235,0
21:33:03.046235,68
21:33:03.046235,17408
21:33:03.046235,0
21:33:03.046235,61
21:33:03.046235,15616
21:33:03.046235,0
21:33:03.046235,68
21:33:03.046235,15104
21:33:03.046235,0
21:33:03.046235,47
21:33:03.046235,15616
21:33:03.046235,0
21:33:03.046235,68
21:33:03.046235,14336
21:33:03.046235,0
21:33:03.046235,52
21:33:03.046235,15616
21:33:03.046235,0
21:33:03.046235,63
21:33:03.046235,14336
21:33:03.046235,0
21:33:03.046235,47
21:33:03.046235,10752
21:33:03.046235,0
21:33:03.046235,40
21:33:03.046235,6656
21:33:03.046235,0
21:33:03.046235,16
21:33:03.046235,1792
21:33:03.046235,0
21:33:03.046235,0
21:33:03.046235,12032
21:33:03.046235,0
21:33:03.046235,104
21:33:03.046235,24064
21:33:03.046235,0
21:33:03.046235,54
21:33:03.046235,12032
21:33:03.046235,0
21:33:03.046235,59
21:33:03.046235,15616
21:33:03.046235,0
21:33:03.046235,63
21:33:03.046235,15104
21:33:03.046235,0
21:33:03.046235,47
21:33:03.046235,8448
21:33:03.046235,0
21:33:03.046235,-49
21:33:03.046235,10751
21:33:03.046235,-1
21:33:03.046235,-146
21:33:03.046235,11007
21:33:03.046235,2
21:33:03.046235,1517
21:33:03.046235,23808
21:33:03.046235,6
21:33:03.046235,738
21:33:03.046235,14336
21:33:03.046235,0
21:33:03.046235,-18
21:33:03.046235,-21505
21:33:03.046235,-1
21:33:03.046235,-191
21:33:03.046235,25343
21:33:03.046235,-1
21:33:03.046235,-132
21:33:03.046235,23551
21:33:03.046235,-1
21:33:03.046235,-168
21:33:03.046235,27647
21:33:03.046235,-1
21:33:03.046235,-165
21:33:03.597461,-175
21:33:03.597461,24575
21:33:03.597461,-1
21:33:03.597461,-161
21:33:03.597461,20991
21:33:03.597461,-1
21:33:03.597461,-187
21:33:03.597461,12543
21:33:03.597461,-1
21:33:03.597461,-227
21:33:03.597461,5375
21:33:03.597461,-1
21:33:03.597461,-253
21:33:03.597461,-1281
21:33:03.597461,-2
21:33:03.597461,-248
21:33:03.597461,5887
21:33:03.597461,-1
21:33:03.597461,-222
21:33:03.597461,21759
21:33:03.597461,-1
21:33:03.597461,-108
21:33:03.597461,-17921
21:33:03.597461,-1
21:33:03.597461,-35
21:33:03.597461,4351
21:33:03.597461,0
21:33:03.597461,59
21:33:03.597461,20992
21:33:03.597461,0
21:33:03.597461,97
21:33:03.597461,26624
21:33:03.597461,0
21:33:03.597461,104
21:33:03.597461,24064
21:33:03.597461,0
21:33:03.597461,89
21:33:03.597461,24064
21:33:03.597461,0
21:33:03.597461,94
21:33:03.597461,20480
21:33:03.597461,0
21:33:03.597461,66
21:33:03.597461,16896
21:33:03.597461,0
21:33:03.597461,68
21:33:03.597461,17408
21:33:03.597461,0
21:33:03.597461,63
21:33:03.597461,14336
21:33:03.597461,0
21:33:03.597461,63
21:33:03.597461,19968
21:33:03.597461,0
21:33:03.597461,78
21:33:03.597461,17408
21:33:03.597461,0
21:33:03.597461,73
21:33:03.597461,20480
21:33:03.597461,0
21:33:03.597461,73
21:33:03.597461,18176
21:33:03.597461,0
21:33:03.597461,73
21:33:03.597461,17408
21:33:03.597461,0
21:33:03.597461,66
21:33:03.597461,17408
21:33:03.597461,0
21:33:03.597461,63
21:33:03.597461,13312
21:33:03.597461,0
21:33:03.597461,33
21:33:03.597461,2816
21:33:03.597461,0
21:33:03.597461,4
21:33:03.597461,4608
21:33:03.597461,0
21:33:03.597461,52
21:33:03.597461,22784
21:33:03.597461,0
21:33:03.597461,94
21:33:03.597461,15616
21:33:03.597461,0
21:33:03.597461,35
21:33:03.597461,13312
21:33:03.597461,0
21:33:03.597461,63
21:33:03.597461,13824
21:33:03.597461,0
21:33:03.597461,56
21:33:03.597461,15104
21:33:03.597461,0
21:33:03.597461,35
21:33:03.597461,-9472
21:33:03.597461,-1
21:33:03.597461,-208
21:33:03.597461,18687
21:33:03.597461,-1
21:33:03.597461,518
21:33:03.597461,6144
21:33:03.597461,6
21:33:03.597461,1773
21:33:03.597461,-25344
21:33:03.597461,3
21:33:03.597461,139
21:33:03.597461,-12032
21:33:03.597461,-1
21:33:03.597461,-111
21:33:04.097156,-196
21:33:04.097156,19199
21:33:04.097156,-1
21:33:04.097156,-158
21:33:04.097156,20479
21:33:04.097156,-1
21:33:04.097156,-189
21:33:04.097156,19967
21:33:04.097156,-1
21:33:04.097156,-177
21:33:04.097156,19199
21:33:04.097156,-1
21:33:04.097156,-191
21:33:04.097156,15615
21:33:04.097156,-1
21:33:04.097156,-201
21:33:04.097156,8959
21:33:04.097156,-1
21:33:04.097156,-241
21:33:04.097156,511
21:33:04.097156,-1
21:33:04.097156,-286
21:33:04.097156,-15361
21:33:04.097156,-2
21:33:04.097156,-329
21:33:04.097156,-18433
21:33:04.097156,-2
21:33:04.097156,-310
21:33:04.097156,-6145
21:33:04.097156,-2
21:33:04.097156,-239
21:33:04.097156,19967
21:33:04.097156,-1
21:33:04.097156,-123
21:33:04.097156,-13057
21:33:04.097156,-1
21:33:04.097156,16
21:33:04.097156,13824
21:33:04.097156,0
21:33:04.097156,82
21:33:04.097156,28928
21:33:04.097156,0
21:33:04.097156,137
21:33:04.097156,-30464
21:33:04.097156,0
21:33:04.097156,120
21:33:04.097156,31488
21:33:04.097156,0
21:33:04.097156,134
21:33:04.097156,32512
21:33:04.097156,0
21:33:04.097156,118
21:33:04.097156,30720
21:33:04.097156,0
21:33:04.097156,108
21:33:04.097156,25856
21:33:04.097156,0
21:33:04.097156,104
21:33:04.097156,23552
21:33:04.097156,0
21:33:04.097156,75
21:33:04.097156,20992
21:33:04.097156,0
21:33:04.097156,89
21:33:04.097156,21760
21:33:04.097156,0
21:33:04.097156,89
21:33:04.097156,23552
21:33:04.097156,0
21:33:04.097156,94
21:33:04.097156,23552
21:33:04.097156,0
21:33:04.097156,82
21:33:04.097156,20992
21:33:04.097156,0
21:33:04.097156,92
21:33:04.097156,21760
21:33:04.097156,0
21:33:04.097156,68
21:33:04.097156,18176
21:33:04.097156,0
21:33:04.097156,85
21:33:04.097156,20992
21:33:04.097156,0
21:33:04.097156,78
21:33:04.097156,20480
21:33:04.097156,0
21:33:04.097156,75
21:33:04.097156,18176
21:33:04.097156,0
21:33:04.097156,75
21:33:04.097156,18688
21:33:04.097156,0
21:33:04.097156,44
21:33:04.097156,3584
21:33:04.097156,0
21:33:04.097156,9
21:33:04.097156,7168
21:33:04.097156,0
21:33:04.097156,68
21:33:04.097156,25856
21:33:04.097156,0
21:33:04.097156,99
21:33:04.097156,19200
21:33:04.097156,0
21:33:04.097156,68
21:33:04.097156,19968
21:33:04.097156,0
21:33:04.097156,78
21:33:04.697273,73
21:33:04.697273,18688
21:33:04.697273,0
21:33:04.697273,66
21:33:04.697273,16128
21:33:04.697273,0
21:33:04.697273,11
21:33:04.697273,27392
21:33:04.697273,-1
21:33:04.697273,-75
21:33:04.697273,-9217
21:33:04.697273,2
21:33:04.697273,1825
21:33:04.697273,-17664
21:33:04.697273,7
21:33:04.697273,1053
21:33:04.697273,-22528
21:33:04.697273,0
21:33:04.697273,-120
21:33:04.697273,27135
21:33:04.697273,-1
21:33:04.697273,-187
21:33:04.697273,12031
21:33:04.697273,-1
21:33:04.697273,-206
21:33:04.697273,13823
21:33:04.697273,-1
21:33:04.697273,-198
21:33:04.697273,15103
21:33:04.697273,-1
21:33:04.697273,-198
21:33:04.697273,16127
21:33:04.697273,-1
21:33:04.697273,-194
21:33:04.697273,14335
21:33:04.697273,-1
21:33:04.697273,-215
21:33:04.697273,5375
21:33:04.697273,-1
21:33:04.697273,-260
21:33:04.697273,-8705
21:33:04.697273,-2
21:33:04.697273,-324
21:33:04.697273,-20737
21:33:04.697273,-2
21:33:04.697273,-345
21:33:04.697273,-23297
21:33:04.697273,-2
21:33:04.697273,-343
21:33:04.697273,-17665
21:33:04.697273,-2
21:33:04.697273,-284
21:33:04.697273,8959
21:33:04.697273,-1
21:33:04.697273,-153
21:33:04.697273,-19713
21:33:04.697273,-1
21:33:04.697273,-9
21:33:04.697273,10495
21:33:04.697273,0
21:33:04.697273,82
21:33:04.697273,25344
21:33:04.697273,0
21:33:04.697273,92
21:33:04.697273,27648
21:33:04.697273,0
21:33:04.697273,120
21:33:04.697273,30208
21:33:04.697273,0
21:33:04.697273,125
21:33:04.697273,30720
21:33:04.697273,0
21:33:04.697273,106
21:33:04.697273,28416
21:33:04.697273,0
21:33:04.697273,111
21:33:04.697273,24832
21:33:04.697273,0
21:33:04.697273,87
21:33:04.697273,22272
21:33:04.697273,0
21:33:04.697273,82
21:33:04.697273,20992
21:33:04.697273,0
21:33:04.697273,87
21:33:04.697273,20480
21:33:04.697273,0
21:33:04.697273,73
21:33:04.697273,20480
21:33:04.697273,0
21:33:04.697273,87
21:33:04.697273,19968
21:33:04.697273,0
21:33:04.697273,71
21:33:04.697273,19968
21:33:04.697273,0
21:33:04.697273,82
21:33:04.697273,19968
21:33:04.697273,0
21:33:04.697273,73
21:33:04.697273,19200
21:33:04.697273,0
21:33:04.697273,75
21:33:04.697273,19200
21:33:04.697273,0
21:33:04.697273,80
21:33:04.697273,18688
21:33:04.697273,0
21:33:04.697273,66
21:33:05.297513,63
21:33:05.297513,17408
21:33:05.297513,0
21:33:05.297513,68
21:33:05.297513,14336
21:33:05.297513,0
21:33:05.297513,42
21:33:05.297513,8960
21:33:05.297513,0
21:33:05.297513,18
21:33:05.297513,512
21:33:05.297513,0
21:33:05.297513,26
21:33:05.297513,20480
21:33:05.297513,0
21:33:05.297513,111
21:33:05.297513,27136
21:33:05.297513,0
21:33:05.297513,92
21:33:05.297513,20480
21:33:05.297513,0
21:33:05.297513,78
21:33:05.297513,23552
21:33:05.297513,0
21:33:05.297513,97
21:33:05.297513,19968
21:33:05.297513,0
21:33:05.297513,75
21:33:05.297513,18688
21:33:05.297513,0
21:33:05.297513,-14
21:33:05.297513,21759
21:33:05.297513,-1
21:33:05.297513,-59
21:33:05.297513,-7425
21:33:05.297513,2
21:33:05.297513,1752
21:33:05.297513,0
21:33:05.297513,7
21:33:05.297513,824
21:33:05.297513,16896
21:33:05.297513,0
21:33:05.297513,-71
21:33:05.297513,-27393
21:33:05.297513,-1
21:33:05.297513,-187
21:33:05.297513,18687
21:33:05.297513,-1
21:33:05.297513,-168
21:33:05.297513,17407
21:33:05.297513,-1
21:33:05.297513,-187
21:33:05.297513,22783
21:33:05.297513,-1
21:33:05.297513,-177
21:33:05.297513,17407
21:33:05.297513,-1
21:33:05.297513,-182
21:33:05.297513,17919
21:33:05.297513,-1
21:33:05.297513,-201
21:33:05.297513,12031
21:33:05.297513,-1
21:33:05.297513,-232
21:33:05.297513,-257
21:33:05.297513,-2
21:33:05.297513,-269
21:33:05.297513,-5633
21:33:05.297513,-2
21:33:05.297513,-293
21:33:05.297513,-8705
21:33:05.297513,-2
21:33:05.297513,-269
21:33:05.297513,4607
21:33:05.297513,-1
21:33:05.297513,-208
21:33:05.297513,20479
21:33:05.297513,-1
21:33:05.297513,-139
21:33:05.297513,-18433
21:33:05.297513,-1
21:33:05.297513,-18
21:33:05.297513,4863
21:33:05.297513,0
21:33:05.297513,52
21:33:05.297513,15104
21:33:05.297513,0
21:33:05.297513,59
21:33:05.297513,17408
21:33:05.297513,0
21:33:05.297513,73
21:33:05.297513,18176
21:33:05.297513,0
21:33:05.297513,78
21:33:05.297513,20480
21:33:05.297513,0
21:33:05.297513,68
21:33:05.297513,14336
21:33:05.297513,0
21:33:05.297513,52
21:33:05.297513,13312
21:33:05.297513,0
21:33:05.297513,47
21:33:05.297513,12032
21:33:05.297513,0
21:33:05.297513,49
21:33:05.297513,13824
21:33:05.297513,0
21:33:05.297513,56
21:33:05.847512,42
21:33:05.847512,10752
21:33:05.847512,0
21:33:05.847512,56
21:33:05.847512,13312
21:33:05.847512,0
21:33:05.847512,54
21:33:05.847512,16128
21:33:05.847512,0
21:33:05.847512,59
21:33:05.847512,15104
21:33:05.847512,0
21:33:05.847512,71
21:33:05.847512,18176
21:33:05.847512,0
21:33:05.847512,66
21:33:05.847512,15616
21:33:05.847512,0
21:33:05.847512,54
21:33:05.847512,16128
21:33:05.847512,0
21:33:05.847512,85
21:33:05.847512,20992
21:33:05.847512,0
21:33:05.847512,59
21:33:05.847512,16896
21:33:05.847512,0
21:33:05.847512,82
21:33:05.847512,17408
21:33:05.847512,0
21:33:05.847512,63
21:33:05.847512,20480
21:33:05.847512,0
21:33:05.847512,68
21:33:05.847512,10752
21:33:05.847512,0
21:33:05.847512,54
21:33:05.847512,18688
21:33:05.847512,0
21:33:05.847512,49
21:33:05.847512,6656
21:33:05.847512,0
21:33:05.847512,28
21:33:05.847512,5888
21:33:05.847512,0
21:33:05.847512,9
21:33:05.847512,5888
21:33:05.847512,0
21:33:05.847512,61
21:33:05.847512,21760
21:33:05.847512,0
21:33:05.847512,80
21:33:05.847512,15104
21:33:05.847512,0
21:33:05.847512,44
21:33:05.847512,12032
21:33:05.847512,0
21:33:05.847512,54
21:33:05.847512,14336
21:33:05.847512,0
21:33:05.847512,49
21:33:05.847512,8960
21:33:05.847512,0
21:33:05.847512,-18
21:33:05.847512,27135
21:33:05.847512,-1
21:33:05.847512,-206
21:33:05.847512,-7169
21:33:05.847512,0
21:33:05.847512,1181
21:33:05.847512,-15616
21:33:05.847512,6
21:33:05.847512,1127
21:33:05.847512,-12288
21:33:05.847512,0
21:33:05.847512,-66
21:33:05.847512,-17153
21:33:05.847512,-1
21:33:05.847512,-170
21:33:05.847512,20479
21:33:05.847512,-1
21:33:05.847512,-151
21:33:05.847512,15615
21:33:05.847512,-1
21:33:05.847512,-187
21:33:05.847512,30719
21:33:05.847512,-1
21:33:05.847512,-149
21:33:05.847512,20479
21:33:05.847512,-1
21:33:05.847512,-172
21:33:05.847512,19199
21:33:05.847512,-1
21:33:05.847512,-198
21:33:05.847512,17919
21:33:05.847512,-1
21:33:05.847512,-191
21:33:05.847512,10239
21:33:05.847512,-1
21:33:05.847512,-232
21:33:05.847512,2815
21:33:05.847512,-1
21:33:05.847512,-255
21:33:05.847512,1535
21:33:05.847512,-1
21:33:05.847512,-229
21:33:05.847512,14335
21:33:05.847512,-1
21:33:05.847512,-175
21:33:06.397577,-165
21:33:06.397577,28415
21:33:06.397577,-1
21:33:06.397577,-89
21:33:06.397577,-6401
21:33:06.397577,-1
21:33:06.397577,7
21:33:06.397577,7168
21:33:06.397577,0
21:33:06.397577,54
21:33:06.397577,17408
21:33:06.397577,0
21:33:06.397577,75
21:33:06.397577,18688
21:33:06.397577,0
21:33:06.397577,56
21:33:06.397577,14336
21:33:06.397577,0
21:33:06.397577,92
21:33:06.397577,-31744
21:33:06.397577,0
21:33:06.397577,104
21:33:06.397577,15104
21:33:06.397577,0
21:33:06.397577,87
21:33:06.397577,27648
21:33:06.397577,0
21:33:06.397577,97
21:33:06.397577,30720
21:33:06.397577,0
21:33:06.397577,89
21:33:06.397577,10240
21:33:06.397577,0
21:33:06.397577,73
21:33:06.397577,27136
21:33:06.397577,0
21:33:06.397577,75
21:33:06.397577,16896
21:33:06.397577,0
21:33:06.397577,120
21:33:06.397577,30208
21:33:06.397577,0
21:33:06.397577,49
21:33:06.397577,18176
21:33:06.397577,0
21:33:06.397577,104
21:33:06.397577,12032
21:33:06.397577,0
21:33:06.397577,49
21:33:06.397577,19200
21:33:06.397577,0
21:33:06.397577,47
21:33:06.397577,16128
21:33:06.397577,0
21:33:06.397577,68
21:33:06.397577,5376
21:33:06.397577,0
21:33:06.397577,33
21:33:06.397577,8448
21:33:06.397577,0
21:33:06.397577,0
21:33:06.397577,4608
21:33:06.397577,0
21:33:06.397577,18
21:33:06.397577,1792
21:33:06.397577,0
21:33:06.397577,37
21:33:06.397577,22272
21:33:06.397577,0
21:33:06.397577,73
21:33:06.397577,1024
21:33:06.397577,0
21:33:06.397577,2
21:33:06.397577,16896
21:33:06.397577,0
21:33:06.397577,80
21:33:06.397577,5376
21:33:06.397577,0
21:33:06.397577,-9
21:33:06.397577,2047
21:33:06.397577,0
21:33:06.397577,4
21:33:06.397577,-18688
21:33:06.397577,-1
21:33:06.397577,-156
21:33:06.397577,-1537
21:33:06.397577,-1
21:33:06.397577,426
21:33:06.397577,12544
21:33:06.397577,3
21:33:06.397577,731
21:33:06.397577,-768
21:33:06.397577,0
21:33:06.397577,-11
21:33:06.397577,2559
21:33:06.397577,0
21:33:06.397577,-42
21:33:06.397577,-31233
21:33:06.397577,-1
21:33:06.397577,-97
21:33:06.397577,-14849
21:33:06.397577,-1
21:33:06.397577,-78
21:33:06.397577,-19713
21:33:06.397577,-1
21:33:06.397577,-54
21:33:06.397577,-16641
21:33:06.397577,-1
21:33:06.397577,-68
21:33:07.043699,-49
21:33:07.043699,-13569
21:33:07.043699,-1
21:33:07.043699,-52
21:33:07.043699,-17153
21:33:07.043699,-1
21:33:07.043699,-73
21:33:07.043699,-6401
21:33:07.043699,-1
21:33:07.043699,-21
21:33:07.043699,-13057
21:33:07.043699,-1
21:33:07.043699,-26
21:33:07.043699,4351
21:33:07.043699,0
21:33:07.043699,28
21:33:07.043699,7680
21:33:07.043699,0
21:33:07.043699,33
21:33:07.043699,5888
21:33:07.043699,0
21:33:07.043699,28
21:33:07.043699,7680
21:33:07.043699,0
21:33:07.043699,14
21:33:07.043699,3584
21:33:07.043699,0
21:33:07.043699,30
21:33:07.043699,8448
21:33:07.043699,0
21:33:07.043699,23
21:33:07.043699,5376
21:33:07.043699,0
21:33:07.043699,30
21:33:07.043699,8448
21:33:07.043699,0
21:33:07.043699,35
21:33:07.043699,12544
21:33:07.043699,0
21:33:07.043699,42
21:33:07.043699,6656
21:33:07.043699,0
21:33:07.043699,44
21:33:07.043699,12032
21:33:07.043699,0
21:33:07.043699,11
21:33:07.043699,7168
21:33:07.043699,0
21:33:07.043699,63
21:33:07.043699,11264
21:33:07.043699,0
21:33:07.043699,33
21:33:07.043699,13824
21:33:07.043699,0
21:33:07.043699,47
21:33:07.043699,6656
21:33:07.043699,0
21:33:07.043699,30
21:33:07.043699,7168
21:33:07.043699,0
21:33:07.043699,47
21:33:07.043699,13312
21:33:07.043699,0
21:33:07.043699,0
21:33:07.043699,1792
21:33:07.043699,0
21:33:07.043699,56
21:33:07.043699,12032
21:33:07.043699,0
21:33:07.043699,-7
21:33:07.043699,-9985
21:33:07.043699,-1
21:33:07.043699,26
21:33:07.043699,26624
21:33:07.043699,0
21:33:07.043699,99
21:33:07.043699,10752
21:33:07.043699,0
21:33:07.043699,16
21:33:07.043699,10752
21:33:07.043699,0
21:33:07.043699,56
21:33:07.043699,13824
21:33:07.043699,0
21:33:07.043699,54
21:33:07.043699,11264
21:33:07.043699,0
21:33:07.043699,35
21:33:07.043699,1792
21:33:07.043699,0
21:33:07.043699,-97
21:33:07.043699,-32257
21:33:07.043699,-1
21:33:07.043699,227
21:33:07.043699,24576
21:33:07.043699,3
21:33:07.043699,1141
21:33:07.043699,-19200
21:33:07.043699,2
21:33:07.043699,116
21:33:07.043699,-4096
21:33:07.043699,-1
21:33:07.043699,-4
21:33:07.043699,-20737
21:33:07.043699,-1
21:33:07.043699,-92
21:33:07.043699,-17921
21:33:07.043699,-1
21:33:07.043699,-87
21:33:07.497328,-80
21:33:07.497328,-16641
21:33:07.497328,-1
21:33:07.497328,-82
21:33:07.497328,-20737
21:33:07.497328,-1
21:33:07.497328,-66
21:33:07.497328,-16641
21:33:07.497328,-1
21:33:07.497328,-71
21:33:07.497328,-18433
21:33:07.497328,-1
21:33:07.497328,-78
21:33:07.497328,-19713
21:33:07.497328,-1
21:33:07.497328,-78
21:33:07.497328,-18945
21:33:07.497328,-1
21:33:07.497328,-71
21:33:07.497328,-14849
21:33:07.497328,-1
21:33:07.497328,-47
21:33:07.497328,-9217
21:33:07.497328,-1
21:33:07.497328,-18
21:33:07.497328,-257
21:33:07.497328,-1
21:33:07.497328,0
21:33:07.497328,-1792
21:33:07.497328,-1
21:33:07.497328,-4
21:33:07.497328,767
21:33:07.497328,0
21:33:07.497328,2
21:33:07.497328,1792
21:33:07.497328,0
21:33:07.497328,16
21:33:07.497328,4096
21:33:07.497328,0
21:33:07.497328,18
21:33:07.497328,4608
21:33:07.497328,0
21:33:07.497328,14
21:33:07.497328,2816
21:33:07.497328,0
21:33:07.497328,7
21:33:07.497328,2304
21:33:07.497328,0
21:33:07.497328,11
21:33:07.497328,1792
21:33:07.497328,0
21:33:07.497328,4
21:33:07.497328,1024
21:33:07.497328,0
21:33:07.497328,4
21:33:07.497328,2304
21:33:07.497328,0
21:33:07.497328,7
21:33:07.497328,1792
21:33:07.497328,0
21:33:07.497328,9
21:33:07.497328,2816
21:33:07.497328,0
21:33:07.497328,16
21:33:07.497328,3584
21:33:07.497328,0
21:33:07.497328,9
21:33:07.497328,0
21:33:07.497328,0
21:33:07.497328,-14
21:33:07.497328,-3329
21:33:07.497328,-1
21:33:07.497328,7
21:33:07.497328,12032
21:33:07.497328,0
21:33:07.497328,73
21:33:07.497328,13824
21:33:07.497328,0
21:33:07.497328,28
21:33:07.497328,7168
21:33:07.497328,0
21:33:07.497328,30
21:33:07.497328,8448
21:33:07.497328,0
21:33:07.497328,28
21:33:07.497328,5888
21:33:07.497328,0
21:33:07.497328,21
21:33:07.497328,4096
21:33:07.497328,0
21:33:07.497328,-28
21:33:07.497328,28927
21:33:07.497328,-1
21:33:07.497328,-168
21:33:07.497328,-26113
21:33:07.497328,0
21:33:07.497328,729
21:33:07.497328,6912
21:33:07.497328,4
21:33:07.497328,708
21:33:07.497328,32512
21:33:07.497328,0
21:33:07.497328,-40
21:33:07.497328,-5633
21:33:07.497328,-1
21:33:07.497328,-104
21:33:07.497328,-30465
21:33:07.497328,-1
21:33:07.497328,-85
21:33:08.047503,-92
21:33:08.047503,-25089
21:33:08.047503,-1
21:33:08.047503,-82
21:33:08.047503,-18433
21:33:08.047503,-1
21:33:08.047503,-78
21:33:08.047503,-18433
21:33:08.047503,-1
21:33:08.047503,-66
21:33:08.047503,-16641
21:33:08.047503,-1
21:33:08.047503,-59
21:33:08.047503,-12289
21:33:08.047503,-1
21:33:08.047503,-44
21:33:08.047503,-10497
21:33:08.047503,-1
21:33:08.047503,-40
21:33:08.047503,-7425
21:33:08.047503,-1
21:33:08.047503,-21
21:33:08.047503,-3329
21:33:08.047503,-1
21:33:08.047503,-4
21:33:08.047503,255
21:33:08.047503,0
21:33:08.047503,0
21:33:08.047503,-512
21:33:08.047503,-1
21:33:08.047503,-7
21:33:08.047503,-2049
21:33:08.047503,-1
21:33:08.047503,-11
21:33:08.047503,-2049
21:33:08.047503,-1
21:33:08.047503,-2
21:33:08.047503,1279
21:33:08.047503,0
21:33:08.047503,4
21:33:08.047503,1024
21:33:08.047503,0
21:33:08.047503,14
21:33:08.047503,4096
21:33:08.047503,0
21:33:08.047503,9
21:33:08.047503,2304
21:33:08.047503,0
21:33:08.047503,7
21:33:08.047503,1024
21:33:08.047503,0
21:33:08.047503,7
21:33:08.047503,1024
21:33:08.047503,0
21:33:08.047503,7
21:33:08.047503,1792
21:33:08.047503,0
21:33:08.047503,-2
21:33:08.047503,767
21:33:08.047503,0
21:33:08.047503,21
21:33:08.047503,6656
21:33:08.047503,0
21:33:08.047503,21
21:33:08.047503,3584
21:33:08.047503,0
21:33:08.047503,16
21:33:08.047503,7168
21:33:08.047503,0
21:33:08.047503,33
21:33:08.047503,5376
21:33:08.047503,0
21:33:08.047503,2
21:33:08.047503,-512
21:33:08.047503,-1
21:33:08.047503,16
21:33:08.047503,14336
21:33:08.047503,0
21:33:08.047503,78
21:33:08.047503,15104
21:33:08.047503,0
21:33:08.047503,33
21:33:08.047503,8448
21:33:08.047503,0
21:33:08.047503,42
21:33:08.047503,13312
21:33:08.047503,0
21:33:08.047503,54
21:33:08.047503,10752
21:33:08.047503,0
21:33:08.047503,33
21:33:08.047503,7168
21:33:08.047503,0
21:33:08.047503,-9
21:33:08.047503,-31233
21:33:08.047503,-1
21:33:08.047503,-165
21:33:08.047503,-26113
21:33:08.047503,0
21:33:08.047503,776
21:33:08.047503,32256
21:33:08.047503,4
21:33:08.047503,795
21:33:08.047503,-23808
21:33:08.047503,0
21:33:08.047503,-21
21:33:08.047503,2559
21:33:08.047503,0
21:33:08.047503,-89
21:33:08.647405,-123
21:33:08.647405,-19713
21:33:08.647405,-1
21:33:08.647405,-87
21:33:08.647405,-25601
21:33:08.647405,-1
21:33:08.647405,-80
21:33:08.647405,-18945
21:33:08.647405,-1
21:33:08.647405,-78
21:33:08.647405,-15873
21:33:08.647405,-1
21:33:08.647405,-47
21:33:08.647405,-12289
21:33:08.647405,-1
21:33:08.647405,-56
21:33:08.647405,-14081
21:33:08.647405,-1
21:33:08.647405,-59
21:33:08.647405,-14849
21:33:08.647405,-1
21:33:08.647405,-59
21:33:08.647405,-13569
21:33:08.647405,-1
21:33:08.647405,-35
21:33:08.647405,-5121
21:33:08.647405,-1
21:33:08.647405,-11
21:33:08.647405,-257
21:33:08.647405,-1
21:33:08.647405,7
21:33:08.647405,1792
21:33:08.647405,0
21:33:08.647405,-4
21:33:08.647405,-1537
21:33:08.647405,-1
21:33:08.647405,-7
21:33:08.647405,-2049
21:33:08.647405,-1
21:33:08.647405,7
21:33:08.647405,6656
21:33:08.647405,0
21:33:08.647405,21
21:33:08.647405,3584
21:33:08.647405,0
21:33:08.647405,21
21:33:08.647405,5888
21:33:08.647405,0
21:33:08.647405,18
21:33:08.647405,4608
21:33:08.647405,0
21:33:08.647405,18
21:33:08.647405,3584
21:33:08.647405,0
21:33:08.647405,18
21:33:08.647405,5888
21:33:08.647405,0
21:33:08.647405,18
21:33:08.647405,5888
21:33:08.647405,0
21:33:08.647405,26
21:33:08.647405,5888
21:33:08.647405,0
21:33:08.647405,21
21:33:08.647405,6656
21:33:08.647405,0
21:33:08.647405,30
21:33:08.647405,7168
21:33:08.647405,0
21:33:08.647405,21
21:33:08.647405,2816
21:33:08.647405,0
21:33:08.647405,0
21:33:08.647405,-1792
21:33:08.647405,-1
21:33:08.647405,2
21:33:08.647405,8960
21:33:08.647405,0
21:33:08.647405,66
21:33:08.647405,15104
21:33:08.647405,0
21:33:08.647405,33
21:33:08.647405,6656
21:33:08.647405,0
21:33:08.647405,30
21:33:08.647405,8448
21:33:08.647405,0
21:33:08.647405,35
21:33:08.647405,7680
21:33:08.647405,0
21:33:08.647405,28
21:33:08.647405,6656
21:33:08.647405,0
21:33:08.647405,2
21:33:08.647405,-25856
21:33:08.647405,-1
21:33:08.647405,-201
21:33:08.647405,-257
21:33:08.647405,-1
21:33:08.647405,599
21:33:08.647405,-27648
21:33:08.647405,4
21:33:08.647405,1041
21:33:08.647405,22272
21:33:08.647405,1
21:33:08.647405,-42
21:33:08.647405,-6401
21:33:08.647405,-1
21:33:08.647405,-85
21:33:09.197674,-153
21:33:09.197674,-29441
21:33:09.197674,-1
21:33:09.197674,-104
21:33:09.197674,-31745
21:33:09.197674,-1
21:33:09.197674,-116
21:33:09.197674,-26369
21:33:09.197674,-1
21:33:09.197674,-108
21:33:09.197674,-27393
21:33:09.197674,-1
21:33:09.197674,-101
21:33:09.197674,-26369
21:33:09.197674,-1
21:33:09.197674,-106
21:33:09.197674,-28161
21:33:09.197674,-1
21:33:09.197674,-104
21:33:09.197674,-22529
21:33:09.197674,-1
21:33:09.197674,-92
21:33:09.197674,-23809
21:33:09.197674,-1
21:33:09.197674,-80
21:33:09.197674,-15873
21:33:09.197674,-1
21:33:09.197674,-47
21:33:09.197674,-7425
21:33:09.197674,-1
21:33:09.197674,-16
21:33:09.197674,-2049
21:33:09.197674,-1
21:33:09.197674,-11
21:33:09.197674,-2049
21:33:09.197674,-1
21:33:09.197674,-4
21:33:09.197674,1279
21:33:09.197674,0
21:33:09.197674,11
21:33:09.197674,4096
21:33:09.197674,0
21:33:09.197674,21
21:33:09.197674,6656
21:33:09.197674,0
21:33:09.197674,26
21:33:09.197674,5888
21:33:09.197674,0
21:33:09.197674,23
21:33:09.197674,6656
21:33:09.197674,0
21:33:09.197674,26
21:33:09.197674,4608
21:33:09.197674,0
21:33:09.197674,14
21:33:09.197674,3584
21:33:09.197674,0
21:33:09.197674,11
21:33:09.197674,2816
21:33:09.197674,0
21:33:09.197674,7
21:33:09.197674,1024
21:33:09.197674,0
21:33:09.197674,7
21:33:09.197674,1792
21:33:09.197674,0
21:33:09.197674,11
21:33:09.197674,2816
21:33:09.197674,0
21:33:09.197674,9
21:33:09.197674,2816
21:33:09.197674,0
21:33:09.197674,14
21:33:09.197674,3584
21:33:09.197674,0
21:33:09.197674,11
21:33:09.197674,512
21:33:09.197674,0
21:33:09.197674,-7
21:33:09.197674,-3841
21:33:09.197674,-1
21:33:09.197674,-9
21:33:09.197674,6143
21:33:09.197674,0
21:33:09.197674,59
21:33:09.197674,15104
21:33:09.197674,0
21:33:09.197674,35
21:33:09.197674,4608
21:33:09.197674,0
21:33:09.197674,23
21:33:09.197674,5888
21:33:09.197674,0
21:33:09.197674,21
21:33:09.197674,5376
21:33:09.197674,0
21:33:09.197674,16
21:33:09.197674,3584
21:33:09.197674,0
21:33:09.197674,-2
21:33:09.197674,-22017
21:33:09.197674,-1
21:33:09.197674,-196
21:33:09.197674,-14849
21:33:09.197674,-1
21:33:09.197674,523
21:33:09.197674,-25344
21:33:09.197674,4
21:33:09.197674,1158
21:33:09.747458,447
21:33:09.747458,-10240
21:33:09.747458,-1
21:33:09.747458,-52
21:33:09.747458,-20737
21:33:09.747458,-1
21:33:09.747458,-161
21:33:09.747458,31999
21:33:09.747458,-1
21:33:09.747458,-113
21:33:09.747458,31999
21:33:09.747458,-1
21:33:09.747458,-120
21:33:09.747458,-28161
21:33:09.747458,-1
21:33:09.747458,-111
21:33:09.747458,-25089
21:33:09.747458,-1
21:33:09.747458,-87
21:33:09.747458,-23297
21:33:09.747458,-1
21:33:09.747458,-97
21:33:09.747458,-25089
21:33:09.747458,-1
21:33:09.747458,-104
21:33:09.747458,-26881
21:33:09.747458,-1
21:33:09.747458,-104
21:33:09.747458,-26369
21:33:09.747458,-1
21:33:09.747458,-94
21:33:09.747458,-17921
21:33:09.747458,-1
21:33:09.747458,-52
21:33:09.747458,-7425
21:33:09.747458,-1
21:33:09.747458,-11
21:33:09.747458,-769
21:33:09.747458,-1
21:33:09.747458,0
21:33:09.747458,512
21:33:09.747458,0
21:33:09.747458,4
21:33:09.747458,2816
21:33:09.747458,0
21:33:09.747458,18
21:33:09.747458,5888
21:33:09.747458,0
21:33:09.747458,23
21:33:09.747458,5888
21:33:09.747458,0
21:33:09.747458,26
21:33:09.747458,6656
21:33:09.747458,0
21:33:09.747458,28
21:33:09.747458,7680
21:33:09.747458,0
21:33:09.747458,28
21:33:09.747458,7680
21:33:09.747458,0
21:33:09.747458,30
21:33:09.747458,6656
21:33:09.747458,0
21:33:09.747458,26
21:33:09.747458,5888
21:33:09.747458,0
21:33:09.747458,21
21:33:09.747458,4096
21:33:09.747458,0
21:33:09.747458,14
21:33:09.747458,3584
21:33:09.747458,0
21:33:09.747458,14
21:33:09.747458,4096
21:33:09.747458,0
21:33:09.747458,16
21:33:09.747458,3584
21:33:09.747458,0
21:33:09.747458,16
21:33:09.747458,4096
21:33:09.747458,0
21:33:09.747458,21
21:33:09.747458,7168
21:33:09.747458,0
21:33:09.747458,30
21:33:09.747458,7168
21:33:09.747458,0
21:33:09.747458,23
21:33:09.747458,6656
21:33:09.747458,0
21:33:09.747458,28
21:33:09.747458,5888
21:33:09.747458,0
21:33:09.747458,23
21:33:09.747458,5888
21:33:09.747458,0
21:33:09.747458,26
21:33:09.747458,7168
21:33:09.747458,0
21:33:09.747458,26
21:33:09.747458,5888
21:33:09.747458,0
21:33:09.747458,21
21:33:09.747458,4608
21:33:09.747458,0
21:33:09.747458,26
21:33:09.747458,5888
21:33:09.747458,0
21:33:09.747458,23
21:33:10.297427,28
21:33:10.297427,6656
21:33:10.297427,0
21:33:10.297427,23
21:33:10.297427,5888
21:33:10.297427,0
21:33:10.297427,21
21:33:10.297427,4096
21:33:10.297427,0
21:33:10.297427,4
21:33:10.297427,-1792
21:33:10.297427,-1
21:33:10.297427,7
21:33:10.297427,12032
21:33:10.297427,0
21:33:10.297427,80
21:33:10.297427,18688
21:33:10.297427,0
21:33:10.297427,54
21:33:10.297427,12032
21:33:10.297427,0
21:33:10.297427,44
21:33:10.297427,13824
21:33:10.297427,0
21:33:10.297427,59
21:33:10.297427,13824
21:33:10.297427,0
21:33:10.297427,52
21:33:10.297427,9472
21:33:10.297427,0
21:33:10.297427,-21
21:33:10.297427,30719
21:33:10.297427,-1
21:33:10.297427,-134
21:33:10.297427,3071
21:33:10.297427,1
21:33:10.297427,954
21:33:10.297427,256
21:33:10.297427,5
21:33:10.297427,790
21:33:10.297427,30208
21:33:10.297427,0
21:33:10.297427,-26
21:33:10.297427,-2049
21:33:10.297427,-1
21:33:10.297427,-130
21:33:10.297427,27135
21:33:10.297427,-1
21:33:10.297427,-108
21:33:10.297427,-30465
21:33:10.297427,-1
21:33:10.297427,-127
21:33:10.297427,-28161
21:33:10.297427,-1
21:33:10.297427,-111
21:33:10.297427,-28161
21:33:10.297427,-1
21:33:10.297427,-101
21:33:10.297427,-23809
21:33:10.297427,-1
21:33:10.297427,-94
21:33:10.297427,-24577
21:33:10.297427,-1
21:33:10.297427,-99
21:33:10.297427,-25601
21:33:10.297427,-1
21:33:10.297427,-101
21:33:10.297427,-26881
21:33:10.297427,-1
21:33:10.297427,-106
21:33:10.297427,-23297
21:33:10.297427,-1
21:33:10.297427,-71
21:33:10.297427,-12289
21:33:10.297427,-1
21:33:10.297427,-37
21:33:10.297427,-8193
21:33:10.297427,-1
21:33:10.297427,-26
21:33:10.297427,-5121
21:33:10.297427,-1
21:33:10.297427,-7
21:33:10.297427,255
21:33:10.297427,0
21:33:10.297427,0
21:33:10.297427,1792
21:33:10.297427,0
21:33:10.297427,14
21:33:10.297427,5888
21:33:10.297427,0
21:33:10.297427,30
21:33:10.297427,5888
21:33:10.297427,0
21:33:10.297427,23
21:33:10.297427,8448
21:33:10.297427,0
21:33:10.297427,30
21:33:10.297427,5888
21:33:10.297427,0
21:33:10.297427,23
21:33:10.297427,6656
21:33:10.297427,0
21:33:10.297427,21
21:33:10.297427,4608
21:33:10.297427,0
21:33:10.297427,21
21:33:10.297427,4096
21:33:10.297427,0
21:33:10.297427,18
21:33:10.847557,28
21:33:10.847557,5376
21:33:10.847557,0
21:33:10.847557,16
21:33:10.847557,4608
21:33:10.847557,0
21:33:10.847557,26
21:33:10.847557,7168
21:33:10.847557,0
21:33:10.847557,23
21:33:10.847557,9472
21:33:10.847557,0
21:33:10.847557,54
21:33:10.847557,15616
21:33:10.847557,0
21:33:10.847557,59
21:33:10.847557,14336
21:33:10.847557,0
21:33:10.847557,54
21:33:10.847557,13824
21:33:10.847557,0
21:33:10.847557,49
21:33:10.847557,10240
21:33:10.847557,0
21:33:10.847557,28
21:33:10.847557,7168
21:33:10.847557,0
21:33:10.847557,44
21:33:10.847557,18688
21:33:10.847557,0
21:33:10.847557,94
21:33:10.847557,20480
21:33:10.847557,0
21:33:10.847557,59
21:33:10.847557,14336
21:33:10.847557,0
21:33:10.847557,54
21:33:10.847557,14336
21:33:10.847557,0
21:33:10.847557,54
21:33:10.847557,11264
21:33:10.847557,0
21:33:10.847557,49
21:33:10.847557,10240
21:33:10.847557,0
21:33:10.847557,-40
21:33:10.847557,21759
21:33:10.847557,-1
21:33:10.847557,-113
21:33:10.847557,24831
21:33:10.847557,1
21:33:10.847557,980
21:33:10.847557,28672
21:33:10.847557,4
21:33:10.847557,573
21:33:10.847557,8448
21:33:10.847557,0
21:33:10.847557,0
21:33:10.847557,-512
21:33:10.847557,-1
21:33:10.847557,-116
21:33:10.847557,-25089
21:33:10.847557,-1
21:33:10.847557,-66
21:33:10.847557,-23809
21:33:10.847557,-1
21:33:10.847557,-94
21:33:10.847557,-20225
21:33:10.847557,-1
21:33:10.847557,-87
21:33:10.847557,-20737
21:33:10.847557,-1
21:33:10.847557,-75
21:33:10.847557,-18945
21:33:10.847557,-1
21:33:10.847557,-73
21:33:10.847557,-17921
21:33:10.847557,-1
21:33:10.847557,-73
21:33:10.847557,-20225
21:33:10.847557,-1
21:33:10.847557,-78
21:33:10.847557,-19713
21:33:10.847557,-1
21:33:10.847557,-68
21:33:10.847557,-11777
21:33:10.847557,-1
21:33:10.847557,-33
21:33:10.847557,-3841
21:33:10.847557,-1
21:33:10.847557,2
21:33:10.847557,512
21:33:10.847557,0
21:33:10.847557,0
21:33:10.847557,-512
21:33:10.847557,-1
21:33:10.847557,-7
21:33:10.847557,255
21:33:10.847557,0
21:33:10.847557,7
21:33:10.847557,2304
21:33:10.847557,0
21:33:10.847557,14
21:33:10.847557,5376
21:33:10.847557,0
21:33:10.847557,23
21:33:10.847557,5376
21:33:10.847557,0
21:33:10.847557,21
21:33:11.397622,26
21:33:11.397622,6656
21:33:11.397622,0
21:33:11.397622,21
21:33:11.397622,4608
21:33:11.397622,0
21:33:11.397622,16
21:33:11.397622,4608
21:33:11.397622,0
21:33:11.397622,23
21:33:11.397622,8960
21:33:11.397622,0
21:33:11.397622,33
21:33:11.397622,8448
21:33:11.397622,0
21:33:11.397622,42
21:33:11.397622,10240
21:33:11.397622,0
21:33:11.397622,35
21:33:11.397622,10240
21:33:11.397622,0
21:33:11.397622,47
21:33:11.397622,13312
21:33:11.397622,0
21:33:11.397622,52
21:33:11.397622,12544
21:33:11.397622,0
21:33:11.397622,47
21:33:11.397622,11264
21:33:11.397622,0
21:33:11.397622,35
21:33:11.397622,5376
21:33:11.397622,0
21:33:11.397622,16
21:33:11.397622,5376
21:33:11.397622,0
21:33:11.397622,42
21:33:11.397622,20480
21:33:11.397622,0
21:33:11.397622,92
21:33:11.397622,18176
21:33:11.397622,0
21:33:11.397622,52
21:33:11.397622,12544
21:33:11.397622,0
21:33:11.397622,52
21:33:11.397622,13824
21:33:11.397622,0
21:33:11.397622,52
21:33:11.397622,11264
21:33:11.397622,0
21:33:11.397622,42
21:33:11.397622,7168
21:33:11.397622,0
21:33:11.397622,-54
21:33:11.397622,17407
21:33:11.397622,-1
21:33:11.397622,-92
21:33:11.397622,-6657
21:33:11.397622,1
21:33:11.397622,1224
21:33:11.397622,9216
21:33:11.397622,5
21:33:11.397622,606
21:33:11.397622,8448
21:33:11.397622,0
21:33:11.397622,-9
21:33:11.397622,-10497
21:33:11.397622,-1
21:33:11.397622,-144
21:33:11.397622,-30465
21:33:11.397622,-1
21:33:11.397622,-94
21:33:11.397622,-31233
21:33:11.397622,-1
21:33:11.397622,-120
21:33:11.397622,-27393
21:33:11.397622,-1
21:33:11.397622,-113
21:33:11.397622,-28673
21:33:11.397622,-1
21:33:11.397622,-108
21:33:11.397622,-28161
21:33:11.397622,-1
21:33:11.397622,-116
21:33:11.397622,-30465
21:33:11.397622,-1
21:33:11.397622,-130
21:33:11.397622,30207
21:33:11.397622,-1
21:33:11.397622,-144
21:33:11.397622,28415
21:33:11.397622,-1
21:33:11.397622,-139
21:33:11.397622,-32257
21:33:11.397622,-1
21:33:11.397622,-111
21:33:11.397622,-22017
21:33:11.397622,-1
21:33:11.397622,-66
21:33:11.397622,-12289
21:33:11.397622,-1
21:33:11.397622,-35
21:33:11.397622,-4353
21:33:11.397622,-1
21:33:11.397622,-4
21:33:11.397622,255
21:33:11.397622,0
21:33:11.397622,7
21:33:12.047420,16
21:33:12.047420,5888
21:33:12.047420,0
21:33:12.047420,26
21:33:12.047420,7168
21:33:12.047420,0
21:33:12.047420,37
21:33:12.047420,12544
21:33:12.047420,0
21:33:12.047420,56
21:33:12.047420,13312
21:33:12.047420,0
21:33:12.047420,44
21:33:12.047420,10240
21:33:12.047420,0
21:33:12.047420,35
21:33:12.047420,8960
21:33:12.047420,0
21:33:12.047420,37
21:33:12.047420,7168
21:33:12.047420,0
21:33:12.047420,23
21:33:12.047420,6656
21:33:12.047420,0
21:33:12.047420,26
21:33:12.047420,5888
21:33:12.047420,0
21:33:12.047420,26
21:33:12.047420,6656
21:33:12.047420,0
21:33:12.047420,28
21:33:12.047420,7680
21:33:12.047420,0
21:33:12.047420,33
21:33:12.047420,8448
21:33:12.047420,0
21:33:12.047420,40
21:33:12.047420,12544
21:33:12.047420,0
21:33:12.047420,49
21:33:12.047420,11264
21:33:12.047420,0
21:33:12.047420,44
21:33:12.047420,10752
21:33:12.047420,0
21:33:12.047420,40
21:33:12.047420,10752
21:33:12.047420,0
21:33:12.047420,40
21:33:12.047420,8448
21:33:12.047420,0
21:33:12.047420,21
21:33:12.047420,1792
21:33:12.047420,0
21:33:12.047420,0
21:33:12.047420,2304
21:33:12.047420,0
21:33:12.047420,40
21:33:12.047420,19968
21:33:12.047420,0
21:33:12.047420,80
21:33:12.047420,15616
21:33:12.047420,0
21:33:12.047420,49
21:33:12.047420,13312
21:33:12.047420,0
21:33:12.047420,56
21:33:12.047420,14336
21:33:12.047420,0
21:33:12.047420,52
21:33:12.047420,12544
21:33:12.047420,0
21:33:12.047420,42
21:33:12.047420,512
21:33:12.047420,0
21:33:12.047420,-118
21:33:12.047420,17407
21:33:12.047420,-1
21:33:12.047420,127
21:33:12.047420,-29952
21:33:12.047420,3
21:33:12.047420,1470
21:33:12.047420,10496
21:33:12.047420,4
21:33:12.047420,253
21:33:12.047420,-7168
21:33:12.047420,-1
21:33:12.047420,-18
21:33:12.047420,-29441
21:33:12.047420,-1
21:33:12.047420,-149
21:33:12.047420,-26369
21:33:12.047420,-1
21:33:12.047420,-111
21:33:12.047420,-32257
21:33:12.047420,-1
21:33:12.047420,-116
21:33:12.047420,-28673
21:33:12.047420,-1
21:33:12.047420,-118
21:33:12.047420,-29441
21:33:12.047420,-1
21:33:12.047420,-116
21:33:12.047420,-29953
21:33:12.047420,-1
21:33:12.047420,-123
21:33:12.047420,31999
21:33:12.047420,-1
21:33:12.047420,-139
21:33:12.547520,-149
21:33:12.547520,25855
21:33:12.547520,-1
21:33:12.547520,-158
21:33:12.547520,27647
21:33:12.547520,-1
21:33:12.547520,-130
21:33:12.547520,-27393
21:33:12.547520,-1
21:33:12.547520,-87
21:33:12.547520,-16641
21:33:12.547520,-1
21:33:12.547520,-47
21:33:12.547520,-8193
21:33:12.547520,-1
21:33:12.547520,-18
21:33:12.547520,-769
21:33:12.547520,-1
21:33:12.547520,7
21:33:12.547520,3584
21:33:12.547520,0
21:33:12.547520,18
21:33:12.547520,5888
21:33:12.547520,0
21:33:12.547520,28
21:33:12.547520,10240
21:33:12.547520,0
21:33:12.547520,47
21:33:12.547520,10752
21:33:12.547520,0
21:33:12.547520,40
21:33:12.547520,10240
21:33:12.547520,0
21:33:12.547520,37
21:33:12.547520,9472
21:33:12.547520,0
21:33:12.547520,33
21:33:12.547520,7680
21:33:12.547520,0
21:33:12.547520,30
21:33:12.547520,7168
21:33:12.547520,0
21:33:12.547520,28
21:33:12.547520,5888
21:33:12.547520,0
21:33:12.547520,18
21:33:12.547520,4608
21:33:12.547520,0
21:33:12.547520,21
21:33:12.547520,4608
21:33:12.547520,0
21:33:12.547520,18
21:33:12.547520,5376
21:33:12.547520,0
21:33:12.547520,26
21:33:12.547520,6656
21:33:12.547520,0
21:33:12.547520,26
21:33:12.547520,7168
21:33:12.547520,0
21:33:12.547520,30
21:33:12.547520,8448
21:33:12.547520,0
21:33:12.547520,30
21:33:12.547520,8448
21:33:12.547520,0
21:33:12.547520,35
21:33:12.547520,7168
21:33:12.547520,0
21:33:12.547520,30
21:33:12.547520,7680
21:33:12.547520,0
21:33:12.547520,26
21:33:12.547520,7168
21:33:12.547520,0
21:33:12.547520,30
21:33:12.547520,7680
21:33:12.547520,0
21:33:12.547520,28
21:33:12.547520,8448
21:33:12.547520,0
21:33:12.547520,37
21:33:12.547520,8960
21:33:12.547520,0
21:33:12.547520,33
21:33:12.547520,7168
21:33:12.547520,0
21:33:12.547520,23
21:33:12.547520,5376
21:33:12.547520,0
21:33:12.547520,16
21:33:12.547520,0
21:33:12.547520,0
21:33:12.547520,-14
21:33:12.547520,-257
21:33:12.547520,-1
21:33:12.547520,33
21:33:12.547520,14336
21:33:12.547520,0
21:33:12.547520,49
21:33:12.547520,10240
21:33:12.547520,0
21:33:12.547520,33
21:33:12.547520,7168
21:33:12.547520,0
21:33:12.547520,26
21:33:12.547520,6656
21:33:12.547520,0
21:33:12.547520,23
21:33:13.195345,21
21:33:13.195345,2816
21:33:13.195345,0
21:33:13.195345,-40
21:33:13.195345,23551
21:33:13.195345,-1
21:33:13.195345,-161
21:33:13.195345,7423
21:33:13.195345,1
21:33:13.195345,1077
21:33:13.195345,-24064
21:33:13.195345,5
21:33:13.195345,866
21:33:13.195345,-32256
21:33:13.195345,0
21:33:13.195345,-52
21:33:13.195345,-14849
21:33:13.195345,-1
21:33:13.195345,-151
21:33:13.195345,24575
21:33:13.195345,-1
21:33:13.195345,-130
21:33:13.195345,27647
21:33:13.195345,-1
21:33:13.195345,-156
21:33:13.195345,30207
21:33:13.195345,-1
21:33:13.195345,-134
21:33:13.195345,31487
21:33:13.195345,-1
21:33:13.195345,-130
21:33:13.195345,30719
21:33:13.195345,-1
21:33:13.195345,-144
21:33:13.195345,27647
21:33:13.195345,-1
21:33:13.195345,-153
21:33:13.195345,24575
21:33:13.195345,-1
21:33:13.195345,-168
21:33:13.195345,21759
21:33:13.195345,-1
21:33:13.195345,-172
21:33:13.195345,24575
21:33:13.195345,-1
21:33:13.195345,-142
21:33:13.195345,-30465
21:33:13.195345,-1
21:33:13.195345,-101
21:33:13.195345,-19713
21:33:13.195345,-1
21:33:13.195345,-59
21:33:13.195345,-11009
21:33:13.195345,-1
21:33:13.195345,-28
21:33:13.195345,-3329
21:33:13.195345,-1
21:33:13.195345,-2
21:33:13.195345,1279
21:33:13.195345,0
21:33:13.195345,9
21:33:13.195345,3584
21:33:13.195345,0
21:33:13.195345,21
21:33:13.195345,5888
21:33:13.195345,0
21:33:13.195345,23
21:33:13.195345,7168
21:33:13.195345,0
21:33:13.195345,33
21:33:13.195345,8448
21:33:13.195345,0
21:33:13.195345,35
21:33:13.195345,8960
21:33:13.195345,0
21:33:13.195345,30
21:33:13.195345,7168
21:33:13.195345,0
21:33:13.195345,26
21:33:13.195345,5376
21:33:13.195345,0
21:33:13.195345,21
21:33:13.195345,4608
21:33:13.195345,0
21:33:13.195345,16
21:33:13.195345,3584
21:33:13.195345,0
21:33:13.195345,11
21:33:13.195345,3584
21:33:13.195345,0
21:33:13.195345,14
21:33:13.195345,4608
21:33:13.195345,0
21:33:13.195345,18
21:33:13.195345,4608
21:33:13.195345,0
21:33:13.195345,18
21:33:13.195345,4608
21:33:13.195345,0
21:33:13.195345,26
21:33:13.195345,7168
21:33:13.195345,0
21:33:13.195345,23
21:33:13.195345,5888
21:33:13.195345,0
21:33:13.195345,26
21:33:13.195345,6656
21:33:13.195345,0
21:33:13.195345,26
21:33:13.647353,26
21:33:13.647353,6656
21:33:13.647353,0
21:33:13.647353,26
21:33:13.647353,5888
21:33:13.647353,0
21:33:13.647353,21
21:33:13.647353,5376
21:33:13.647353,0
21:33:13.647353,21
21:33:13.647353,6656
21:33:13.647353,0
21:33:13.647353,33
21:33:13.647353,8448
21:33:13.647353,0
21:33:13.647353,30
21:33:13.647353,7168
21:33:13.647353,0
21:33:13.647353,28
21:33:13.647353,5888
21:33:13.647353,0
21:33:13.647353,23
21:33:13.647353,5888
21:33:13.647353,0
21:33:13.647353,18
21:33:13.647353,3584
21:33:13.647353,0
21:33:13.647353,4
21:33:13.647353,-1024
21:33:13.647353,-1
21:33:13.647353,0
21:33:13.647353,7680
21:33:13.647353,0
21:33:13.647353,59
21:33:13.647353,16128
21:33:13.647353,0
21:33:13.647353,52
21:33:13.647353,10240
21:33:13.647353,0
21:33:13.647353,35
21:33:13.647353,8960
21:33:13.647353,0
21:33:13.647353,35
21:33:13.647353,7680
21:33:13.647353,0
21:33:13.647353,28
21:33:13.647353,6656
21:33:13.647353,0
21:33:13.647353,-4
21:33:13.647353,-26369
21:33:13.647353,-1
21:33:13.647353,-191
21:33:13.647353,5631
21:33:13.647353,0
21:33:13.647353,679
21:33:13.647353,9216
21:33:13.647353,5
21:33:13.647353,1160
21:33:13.647353,32000
21:33:13.647353,1
21:33:13.647353,-49
21:33:13.647353,-9217
21:33:13.647353,-1
21:33:13.647353,-87
21:33:13.647353,25343
21:33:13.647353,-1
21:33:13.647353,-130
21:33:13.647353,-30465
21:33:13.647353,-1
21:33:13.647353,-137
21:33:13.647353,-32257
21:33:13.647353,-1
21:33:13.647353,-123
21:33:13.647353,-32257
21:33:13.647353,-1
21:33:13.647353,-125
21:33:13.647353,-30465
21:33:13.647353,-1
21:33:13.647353,-123
21:33:13.647353,-31745
21:33:13.647353,-1
21:33:13.647353,-130
21:33:13.647353,30207
21:33:13.647353,-1
21:33:13.647353,-139
21:33:13.647353,30719
21:33:13.647353,-1
21:33:13.647353,-137
21:33:13.647353,-31745
21:33:13.647353,-1
21:33:13.647353,-111
21:33:13.647353,-25601
21:33:13.647353,-1
21:33:13.647353,-87
21:33:13.647353,-16641
21:33:13.647353,-1
21:33:13.647353,-49
21:33:13.647353,-11009
21:33:13.647353,-1
21:33:13.647353,-35
21:33:13.647353,-3841
21:33:13.647353,-1
21:33:13.647353,-2
21:33:13.647353,767
21:33:13.647353,0
21:33:13.647353,9
21:33:13.647353,4608
21:33:13.647353,0
21:33:13.647353,23
21:33:14.243171,26
21:33:14.243171,7680
21:33:14.243171,0
21:33:14.243171,33
21:33:14.243171,7168
21:33:14.243171,0
21:33:14.243171,35
21:33:14.243171,10752
21:33:14.243171,0
21:33:14.243171,49
21:33:14.243171,14336
21:33:14.243171,0
21:33:14.243171,47
21:33:14.243171,10752
21:33:14.243171,0
21:33:14.243171,42
21:33:14.243171,10752
21:33:14.243171,0
21:33:14.243171,44
21:33:14.243171,10240
21:33:14.243171,0
21:33:14.243171,37
21:33:14.243171,10240
21:33:14.243171,0
21:33:14.243171,37
21:33:14.243171,10240
21:33:14.243171,0
21:33:14.243171,44
21:33:14.243171,12032
21:33:14.243171,0
21:33:14.243171,42
21:33:14.243171,10240
21:33:14.243171,0
21:33:14.243171,47
21:33:14.243171,12544
21:33:14.243171,0
21:33:14.243171,44
21:33:14.243171,11264
21:33:14.243171,0
21:33:14.243171,47
21:33:14.243171,11264
21:33:14.243171,0
21:33:14.243171,42
21:33:14.243171,10240
21:33:14.243171,0
21:33:14.243171,44
21:33:14.243171,13312
21:33:14.243171,0
21:33:14.243171,52
21:33:14.243171,12032
21:33:14.243171,0
21:33:14.243171,47
21:33:14.243171,12544
21:33:14.243171,0
21:33:14.243171,42
21:33:14.243171,8448
21:33:14.243171,0
21:33:14.243171,35
21:33:14.243171,6656
21:33:14.243171,0
21:33:14.243171,9
21:33:14.243171,1792
21:33:14.243171,0
21:33:14.243171,23
21:33:14.243171,13312
21:33:14.243171,0
21:33:14.243171,63
21:33:14.243171,13824
21:33:14.243171,0
21:33:14.243171,40
21:33:14.243171,8448
21:33:14.243171,0
21:33:14.243171,30
21:33:14.243171,8448
21:33:14.243171,0
21:33:14.243171,35
21:33:14.243171,8960
21:33:14.243171,0
21:33:14.243171,33
21:33:14.243171,2304
21:33:14.243171,0
21:33:14.243171,-82
21:33:14.243171,16127
21:33:14.243171,-1
21:33:14.243171,-59
21:33:14.243171,3071
21:33:14.243171,2
21:33:14.243171,1200
21:33:14.243171,-19712
21:33:14.243171,4
21:33:14.243171,487
21:33:14.243171,-4608
21:33:14.243171,-1
21:33:14.243171,-40
21:33:14.243171,-19713
21:33:14.243171,-1
21:33:14.243171,-161
21:33:14.243171,32511
21:33:14.243171,-1
21:33:14.243171,-108
21:33:14.243171,31999
21:33:14.243171,-1
21:33:14.243171,-130
21:33:14.243171,-28673
21:33:14.243171,-1
21:33:14.243171,-116
21:33:14.243171,-29953
21:33:14.243171,-1
21:33:14.243171,-111
21:33:14.747540,-111
21:33:14.747540,-29441
21:33:14.747540,-1
21:33:14.747540,-118
21:33:14.747540,-30465
21:33:14.747540,-1
21:33:14.747540,-123
21:33:14.747540,-29953
21:33:14.747540,-1
21:33:14.747540,-120
21:33:14.747540,-29953
21:33:14.747540,-1
21:33:14.747540,-108
21:33:14.747540,-22529
21:33:14.747540,-1
21:33:14.747540,-71
21:33:14.747540,-10497
21:33:14.747540,-1
21:33:14.747540,-18
21:33:14.747540,-2561
21:33:14.747540,-1
21:33:14.747540,-7
21:33:14.747540,767
21:33:14.747540,0
21:33:14.747540,16
21:33:14.747540,7680
21:33:14.747540,0
21:33:14.747540,35
21:33:14.747540,8448
21:33:14.747540,0
21:33:14.747540,30
21:33:14.747540,8448
21:33:14.747540,0
21:33:14.747540,37
21:33:14.747540,10752
21:33:14.747540,0
21:33:14.747540,49
21:33:14.747540,12544
21:33:14.747540,0
21:33:14.747540,40
21:33:14.747540,9472
21:33:14.747540,0
21:33:14.747540,35
21:33:14.747540,7168
21:33:14.747540,0
21:33:14.747540,23
21:33:14.747540,6656
21:33:14.747540,0
21:33:14.747540,30
21:33:14.747540,7680
21:33:14.747540,0
21:33:14.747540,28
21:33:14.747540,7168
21:33:14.747540,0
21:33:14.747540,26
21:33:14.747540,7168
21:33:14.747540,0
21:33:14.747540,33
21:33:14.747540,7680
21:33:14.747540,0
21:33:14.747540,30
21:33:14.747540,8960
21:33:14.747540,0
21:33:14.747540,35
21:33:14.747540,8448
21:33:14.747540,0
21:33:14.747540,28
21:33:14.747540,7680
21:33:14.747540,0
21:33:14.747540,35
21:33:14.747540,6656
21:33:14.747540,0
21:33:14.747540,18
21:33:14.747540,2304
21:33:14.747540,0
21:33:14.747540,-2
21:33:14.747540,-1537
21:33:14.747540,-1
21:33:14.747540,4
21:33:14.747540,2304
21:33:14.747540,0
21:33:14.747540,4
21:33:14.747540,512
21:33:14.747540,0
21:33:14.747540,11
21:33:14.747540,2816
21:33:14.747540,0
21:33:14.747540,2
21:33:14.747540,-2304
21:33:14.747540,-1
21:33:14.747540,-21
21:33:14.747540,-5633
21:33:14.747540,-1
21:33:14.747540,-4
21:33:14.747540,7935
21:33:14.747540,0
21:33:14.747540,49
21:33:14.747540,10752
21:33:14.747540,0
21:33:14.747540,33
21:33:14.747540,10240
21:33:14.747540,0
21:33:14.747540,49
21:33:14.747540,12544
21:33:14.747540,0
21:33:14.747540,44
21:33:14.747540,12544
21:33:14.747540,0
21:33:14.747540,54
21:33:15.348142,37
21:33:15.348142,-7680
21:33:15.348142,-1
21:33:15.348142,-137
21:33:15.348142,-20737
21:33:15.348142,-1
21:33:15.348142,367
21:33:15.348142,5632
21:33:15.348142,4
21:33:15.348142,1283
21:33:15.348142,-12544
21:33:15.348142,2
21:33:15.348142,87
21:33:15.348142,-6656
21:33:15.348142,-1
21:33:15.348142,-16
21:33:15.348142,-26881
21:33:15.348142,-1
21:33:15.348142,-113
21:33:15.348142,-20225
21:33:15.348142,-1
21:33:15.348142,-94
21:33:15.348142,-23297
21:33:15.348142,-1
21:33:15.348142,-75
21:33:15.348142,-18433
21:33:15.348142,-1
21:33:15.348142,-71
21:33:15.348142,-16641
21:33:15.348142,-1
21:33:15.348142,-68
21:33:15.348142,-17921
21:33:15.348142,-1
21:33:15.348142,-68
21:33:15.348142,-17921
21:33:15.348142,-1
21:33:15.348142,-82
21:33:15.348142,-21505
21:33:15.348142,-1
21:33:15.348142,-82
21:33:15.348142,-18945
21:33:15.348142,-1
21:33:15.348142,-71
21:33:15.348142,-14849
21:33:15.348142,-1
21:33:15.348142,-42
21:33:15.348142,-7425
21:33:15.348142,-1
21:33:15.348142,-21
21:33:15.348142,-3841
21:33:15.348142,-1
21:33:15.348142,-14
21:33:15.348142,-1537
21:33:15.348142,-1
21:33:15.348142,9
21:33:15.348142,5376
21:33:15.348142,0
21:33:15.348142,18
21:33:15.348142,4608
21:33:15.348142,0
21:33:15.348142,26
21:33:15.348142,7168
21:33:15.348142,0
21:33:15.348142,23
21:33:15.348142,5376
21:33:15.348142,0
21:33:15.348142,28
21:33:15.348142,8960
21:33:15.348142,0
21:33:15.348142,30
21:33:15.348142,7168
21:33:15.348142,0
21:33:15.348142,33
21:33:15.348142,7680
21:33:15.348142,0
21:33:15.348142,26
21:33:15.348142,7168
21:33:15.348142,0
21:33:15.348142,28
21:33:15.348142,6656
21:33:15.348142,0
21:33:15.348142,23
21:33:15.348142,5376
21:33:15.348142,0
21:33:15.348142,23
21:33:15.348142,6656
21:33:15.348142,0
21:33:15.348142,28
21:33:15.348142,7680
21:33:15.348142,0
21:33:15.348142,33
21:33:15.348142,8448
21:33:15.348142,0
21:33:15.348142,30
21:33:15.348142,8448
21:33:15.348142,0
21:33:15.348142,35
21:33:15.348142,7680
21:33:15.348142,0
21:33:15.348142,33
21:33:15.348142,8960
21:33:15.348142,0
21:33:15.348142,35
21:33:15.348142,9472
21:33:15.348142,0
21:33:15.348142,37
21:33:15.348142,9472
21:33:15.348142,0
21:33:15.348142,35
21:33:15.897716,35
21:33:15.897716,8960
21:33:15.897716,0
21:33:15.897716,33
21:33:15.897716,7680
21:33:15.897716,0
21:33:15.897716,26
21:33:15.897716,4096
21:33:15.897716,0
21:33:15.897716,11
21:33:15.897716,2304
21:33:15.897716,0
21:33:15.897716,26
21:33:15.897716,16896
21:33:15.897716,0
21:33:15.897716,99
21:33:15.897716,24832
21:33:15.897716,0
21:33:15.897716,78
21:33:15.897716,17408
21:33:15.897716,0
21:33:15.897716,66
21:33:15.897716,16896
21:33:15.897716,0
21:33:15.897716,66
21:33:15.897716,15616
21:33:15.897716,0
21:33:15.897716,54
21:33:15.897716,13312
21:33:15.897716,0
21:33:15.897716,9
21:33:15.897716,-28928
21:33:15.897716,-1
21:33:15.897716,-142
21:33:15.897716,-15617
21:33:15.897716,0
21:33:15.897716,862
21:33:15.897716,-512
21:33:15.897716,4
21:33:15.897716,883
21:33:15.897716,-19712
21:33:15.897716,0
21:33:15.897716,-26
21:33:15.897716,3839
21:33:15.897716,0
21:33:15.897716,-80
21:33:15.897716,-29953
21:33:15.897716,-1
21:33:15.897716,-73
21:33:15.897716,-20225
21:33:15.897716,-1
21:33:15.897716,-97
21:33:15.897716,-20737
21:33:15.897716,-1
21:33:15.897716,-78
21:33:15.897716,-20225
21:33:15.897716,-1
21:33:15.897716,-68
21:33:15.897716,-15873
21:33:15.897716,-1
21:33:15.897716,-71
21:33:15.897716,-18945
21:33:15.897716,-1
21:33:15.897716,-73
21:33:15.897716,-19713
21:33:15.897716,-1
21:33:15.897716,-80
21:33:15.897716,-20225
21:33:15.897716,-1
21:33:15.897716,-82
21:33:15.897716,-20225
21:33:15.897716,-1
21:33:15.897716,-63
21:33:15.897716,-12289
21:33:15.897716,-1
21:33:15.897716,-35
21:33:15.897716,-5633
21:33:15.897716,-1
21:33:15.897716,-18
21:33:15.897716,-3841
21:33:15.897716,-1
21:33:15.897716,-11
21:33:15.897716,-257
21:33:15.897716,-1
21:33:15.897716,7
21:33:15.897716,3584
21:33:15.897716,0
21:33:15.897716,14
21:33:15.897716,4096
21:33:15.897716,0
21:33:15.897716,23
21:33:15.897716,7680
21:33:15.897716,0
21:33:15.897716,30
21:33:15.897716,7168
21:33:15.897716,0
21:33:15.897716,28
21:33:15.897716,7680
21:33:15.897716,0
21:33:15.897716,28
21:33:15.897716,5888
21:33:15.897716,0
21:33:15.897716,23
21:33:15.897716,5888
21:33:15.897716,0
21:33:15.897716,23
21:33:15.897716,5376
21:33:15.897716,0
21:33:15.897716,23
21:33:16.497395,30
21:33:16.497395,8448
21:33:16.497395,0
21:33:16.497395,33
21:33:16.497395,9472
21:33:16.497395,0
21:33:16.497395,40
21:33:16.497395,9472
21:33:16.497395,0
21:33:16.497395,42
21:33:16.497395,15104
21:33:16.497395,0
21:33:16.497395,63
21:33:16.497395,13824
21:33:16.497395,0
21:33:16.497395,49
21:33:16.497395,13824
21:33:16.497395,0
21:33:16.497395,54
21:33:16.497395,13824
21:33:16.497395,0
21:33:16.497395,52
21:33:16.497395,12544
21:33:16.497395,0
21:33:16.497395,47
21:33:16.497395,10240
21:33:16.497395,0
21:33:16.497395,33
21:33:16.497395,7168
21:33:16.497395,0
21:33:16.497395,14
21:33:16.497395,1024
21:33:16.497395,0
21:33:16.497395,23
21:33:16.497395,14336
21:33:16.497395,0
21:33:16.497395,71
21:33:16.497395,15616
21:33:16.497395,0
21:33:16.497395,47
21:33:16.497395,8960
21:33:16.497395,0
21:33:16.497395,33
21:33:16.497395,10240
21:33:16.497395,0
21:33:16.497395,42
21:33:16.497395,8960
21:33:16.497395,0
21:33:16.497395,33
21:33:16.497395,5888
21:33:16.497395,0
21:33:16.497395,-42
21:33:16.497395,24063
21:33:16.497395,-1
21:33:16.497395,-108
21:33:16.497395,27391
21:33:16.497395,1
21:33:16.497395,1060
21:33:16.497395,-1024
21:33:16.497395,4
21:33:16.497395,672
21:33:16.497395,12032
21:33:16.497395,0
21:33:16.497395,-33
21:33:16.497395,-7425
21:33:16.497395,-1
21:33:16.497395,-137
21:33:16.497395,32511
21:33:16.497395,-1
21:33:16.497395,-89
21:33:16.497395,-28161
21:33:16.497395,-1
21:33:16.497395,-116
21:33:16.497395,-24577
21:33:16.497395,-1
21:33:16.497395,-97
21:33:16.497395,-26369
21:33:16.497395,-1
21:33:16.497395,-99
21:33:16.497395,-24577
21:33:16.497395,-1
21:33:16.497395,-99
21:33:16.497395,-25601
21:33:16.497395,-1
21:33:16.497395,-101
21:33:16.497395,-26881
21:33:16.497395,-1
21:33:16.497395,-111
21:33:16.497395,-28673
21:33:16.497395,-1
21:33:16.497395,-113
21:33:16.497395,-25089
21:33:16.497395,-1
21:33:16.497395,-75
21:33:16.497395,-15361
21:33:16.497395,-1
21:33:16.497395,-52
21:33:16.497395,-9217
21:33:16.497395,-1
21:33:16.497395,-26
21:33:16.497395,-3841
21:33:16.497395,-1
21:33:16.497395,-9
21:33:16.497395,-257
21:33:16.497395,-1
21:33:16.497395,2
21:33:16.497395,2304
21:33:16.497395,0
21:33:16.497395,18
21:33:17.097635,23
21:33:17.097635,5888
21:33:17.097635,0
21:33:17.097635,21
21:33:17.097635,5888
21:33:17.097635,0
21:33:17.097635,26
21:33:17.097635,6656
21:33:17.097635,0
21:33:17.097635,23
21:33:17.097635,5376
21:33:17.097635,0
21:33:17.097635,16
21:33:17.097635,2304
21:33:17.097635,0
21:33:17.097635,11
21:33:17.097635,4096
21:33:17.097635,0
21:33:17.097635,30
21:33:17.097635,8960
21:33:17.097635,0
21:33:17.097635,28
21:33:17.097635,6656
21:33:17.097635,0
21:33:17.097635,33
21:33:17.097635,9472
21:33:17.097635,0
21:33:17.097635,35
21:33:17.097635,9472
21:33:17.097635,0
21:33:17.097635,37
21:33:17.097635,9472
21:33:17.097635,0
21:33:17.097635,42
21:33:17.097635,12032
21:33:17.097635,0
21:33:17.097635,47
21:33:17.097635,11264
21:33:17.097635,0
21:33:17.097635,44
21:33:17.097635,10240
21:33:17.097635,0
21:33:17.097635,35
21:33:17.097635,9472
21:33:17.097635,0
21:33:17.097635,37
21:33:17.097635,8448
21:33:17.097635,0
21:33:17.097635,30
21:33:17.097635,8448
21:33:17.097635,0
21:33:17.097635,28
21:33:17.097635,5376
21:33:17.097635,0
21:33:17.097635,9
21:33:17.097635,-512
21:33:17.097635,-1
21:33:17.097635,7
21:33:17.097635,10752
21:33:17.097635,0
21:33:17.097635,63
21:33:17.097635,15104
21:33:17.097635,0
21:33:17.097635,47
21:33:17.097635,10240
21:33:17.097635,0
21:33:17.097635,35
21:33:17.097635,8960
21:33:17.097635,0
21:33:17.097635,35
21:33:17.097635,8960
21:33:17.097635,0
21:33:17.097635,30
21:33:17.097635,5376
21:33:17.097635,0
21:33:17.097635,-14
21:33:17.097635,-29441
21:33:17.097635,-1
21:33:17.097635,-165
21:33:17.097635,28671
21:33:17.097635,0
21:33:17.097635,757
21:33:17.097635,-7168
21:33:17.097635,4
21:33:17.097635,954
21:33:17.097635,-3840
21:33:17.097635,0
21:33:17.097635,-49
21:33:17.097635,-5633
21:33:17.097635,-1
21:33:17.097635,-89
21:33:17.097635,31487
21:33:17.097635,-1
21:33:17.097635,-104
21:33:17.097635,-26369
21:33:17.097635,-1
21:33:17.097635,-118
21:33:17.097635,-26369
21:33:17.097635,-1
21:33:17.097635,-99
21:33:17.097635,-27393
21:33:17.097635,-1
21:33:17.097635,-106
21:33:17.097635,-24577
21:33:17.097635,-1
21:33:17.097635,-97
21:33:17.097635,-26369
21:33:17.097635,-1
21:33:17.097635,-101
21:33:17.597538,-97
21:33:17.597538,-26881
21:33:17.597538,-1
21:33:17.597538,-111
21:33:17.597538,-26369
21:33:17.597538,-1
21:33:17.597538,-97
21:33:17.597538,-22017
21:33:17.597538,-1
21:33:17.597538,-73
21:33:17.597538,-14081
21:33:17.597538,-1
21:33:17.597538,-42
21:33:17.597538,-9217
21:33:17.597538,-1
21:33:17.597538,-28
21:33:17.597538,-3841
21:33:17.597538,-1
21:33:17.597538,-4
21:33:17.597538,767
21:33:17.597538,0
21:33:17.597538,9
21:33:17.597538,4608
21:33:17.597538,0
21:33:17.597538,23
21:33:17.597538,8448
21:33:17.597538,0
21:33:17.597538,47
21:33:17.597538,12032
21:33:17.597538,0
21:33:17.597538,40
21:33:17.597538,10752
21:33:17.597538,0
21:33:17.597538,42
21:33:17.597538,10240
21:33:17.597538,0
21:33:17.597538,40
21:33:17.597538,9472
21:33:17.597538,0
21:33:17.597538,33
21:33:17.597538,7168
21:33:17.597538,0
21:33:17.597538,28
21:33:17.597538,7168
21:33:17.597538,0
21:33:17.597538,26
21:33:17.597538,7168
21:33:17.597538,0
21:33:17.597538,26
21:33:17.597538,5376
21:33:17.597538,0
21:33:17.597538,21
21:33:17.597538,5888
21:33:17.597538,0
21:33:17.597538,26
21:33:17.597538,7680
21:33:17.597538,0
21:33:17.597538,30
21:33:17.597538,7680
21:33:17.597538,0
21:33:17.597538,30
21:33:17.597538,7680
21:33:17.597538,0
21:33:17.597538,30
21:33:17.597538,8448
21:33:17.597538,0
21:33:17.597538,30
21:33:17.597538,6656
21:33:17.597538,0
21:33:17.597538,26
21:33:17.597538,7168
21:33:17.597538,0
21:33:17.597538,23
21:33:17.597538,5376
21:33:17.597538,0
21:33:17.597538,21
21:33:17.597538,5376
21:33:17.597538,0
21:33:17.597538,23
21:33:17.597538,6656
21:33:17.597538,0
21:33:17.597538,18
21:33:17.597538,2304
21:33:17.597538,0
21:33:17.597538,0
21:33:17.597538,-1024
21:33:17.597538,-1
21:33:17.597538,11
21:33:17.597538,9472
21:33:17.597538,0
21:33:17.597538,35
21:33:17.597538,3584
21:33:17.597538,0
21:33:17.597538,9
21:33:17.597538,2304
21:33:17.597538,0
21:33:17.597538,11
21:33:17.597538,4608
21:33:17.597538,0
21:33:17.597538,18
21:33:17.597538,0
21:33:17.597538,0
21:33:17.597538,-2
21:33:17.597538,-2049
21:33:17.597538,-1
21:33:17.597538,-87
21:33:17.597538,14335
21:33:17.597538,-1
21:33:17.597538,-104
21:33:18.147748,397
21:33:18.147748,9216
21:33:18.147748,4
21:33:18.147748,1184
21:33:18.147748,8960
21:33:18.147748,2
21:33:18.147748,-21
21:33:18.147748,-18433
21:33:18.147748,-1
21:33:18.147748,-78
21:33:18.147748,23551
21:33:18.147748,-1
21:33:18.147748,-153
21:33:18.147748,-29441
21:33:18.147748,-1
21:33:18.147748,-125
21:33:18.147748,-32257
21:33:18.147748,-1
21:33:18.147748,-118
21:33:18.147748,-29953
21:33:18.147748,-1
21:33:18.147748,-118
21:33:18.147748,-29441
21:33:18.147748,-1
21:33:18.147748,-116
21:33:18.147748,-28161
21:33:18.147748,-1
21:33:18.147748,-108
21:33:18.147748,-29953
21:33:18.147748,-1
21:33:18.147748,-125
21:33:18.147748,-31233
21:33:18.147748,-1
21:33:18.147748,-123
21:33:18.147748,-31233
21:33:18.147748,-1
21:33:18.147748,-111
21:33:18.147748,-24577
21:33:18.147748,-1
21:33:18.147748,-82
21:33:18.147748,-17153
21:33:18.147748,-1
21:33:18.147748,-61
21:33:18.147748,-13057
21:33:18.147748,-1
21:33:18.147748,-44
21:33:18.147748,-11777
21:33:18.147748,-1
21:33:18.147748,-44
21:33:18.147748,-5121
21:33:18.147748,-1
21:33:18.147748,-4
21:33:18.147748,-1537
21:33:18.147748,-1
21:33:18.147748,-2
21:33:18.147748,255
21:33:18.147748,0
21:33:18.147748,-2
21:33:18.147748,1279
21:33:18.147748,0
21:33:18.147748,7
21:33:18.147748,2304
21:33:18.147748,0
21:33:18.147748,26
21:33:18.147748,4096
21:33:18.147748,0
21:33:18.147748,4
21:33:18.147748,5376
21:33:18.147748,0
21:33:18.147748,21
21:33:18.147748,3584
21:33:18.147748,0
21:33:18.147748,23
21:33:18.147748,5376
21:33:18.147748,0
21:33:18.147748,9
21:33:18.147748,2304
21:33:18.147748,0
21:33:18.147748,18
21:33:18.147748,5376
21:33:18.147748,0
21:33:18.147748,14
21:33:18.147748,3584
21:33:18.147748,0
21:33:18.147748,16
21:33:18.147748,4096
21:33:18.147748,0
21:33:18.147748,14
21:33:18.147748,3584
21:33:18.147748,0
21:33:18.147748,9
21:33:18.147748,2304
21:33:18.147748,0
21:33:18.147748,11
21:33:18.147748,2304
21:33:18.147748,0
21:33:18.147748,9
21:33:18.147748,2816
21:33:18.147748,0
21:33:18.147748,14
21:33:18.147748,3584
21:33:18.147748,0
21:33:18.147748,16
21:33:18.147748,4096
21:33:18.147748,0
21:33:18.147748,11
21:33:18.147748,2304
21:33:18.147748,0
21:33:18.147748,11
21:33:18.747425,11
21:33:18.747425,2816
21:33:18.747425,0
21:33:18.747425,11
21:33:18.747425,1792
21:33:18.747425,0
21:33:18.747425,-7
21:33:18.747425,-5121
21:33:18.747425,-1
21:33:18.747425,-21
21:33:18.747425,1279
21:33:18.747425,0
21:33:18.747425,52
21:33:18.747425,18176
21:33:18.747425,0
21:33:18.747425,52
21:33:18.747425,9472
21:33:18.747425,0
21:33:18.747425,33
21:33:18.747425,7680
21:33:18.747425,0
21:33:18.747425,30
21:33:18.747425,7680
21:33:18.747425,0
21:33:18.747425,26
21:33:18.747425,6656
21:33:18.747425,0
21:33:18.747425,14
21:33:18.747425,-13824
21:33:18.747425,-1
21:33:18.747425,-168
21:33:18.747425,-27393
21:33:18.747425,-1
21:33:18.747425,348
21:33:18.747425,-2304
21:33:18.747425,3
21:33:18.747425,1205
21:33:18.747425,27136
21:33:18.747425,2
21:33:18.747425,28
21:33:18.747425,-12544
21:33:18.747425,-1
21:33:18.747425,-49
21:33:18.747425,28927
21:33:18.747425,-1
21:33:18.747425,-139
21:33:18.747425,-27393
21:33:18.747425,-1
21:33:18.747425,-130
21:33:18.747425,31487
21:33:18.747425,-1
21:33:18.747425,-118
21:33:18.747425,-29441
21:33:18.747425,-1
21:33:18.747425,-118
21:33:18.747425,-26881
21:33:18.747425,-1
21:33:18.747425,-97
21:33:18.747425,-25601
21:33:18.747425,-1
21:33:18.747425,-104
21:33:18.747425,-25601
21:33:18.747425,-1
21:33:18.747425,-106
21:33:18.747425,-29441
21:33:18.747425,-1
21:33:18.747425,-111
21:33:18.747425,-25601
21:33:18.747425,-1
21:33:18.747425,-97
21:33:18.747425,-22529
21:33:18.747425,-1
21:33:18.747425,-73
21:33:18.747425,-14081
21:33:18.747425,-1
21:33:18.747425,-44
21:33:18.747425,-9985
21:33:18.747425,-1
21:33:18.747425,-37
21:33:18.747425,-7425
21:33:18.747425,-1
21:33:18.747425,-23
21:33:18.747425,-2561
21:33:18.747425,-1
21:33:18.747425,-2
21:33:18.747425,767
21:33:18.747425,0
21:33:18.747425,9
21:33:18.747425,4096
21:33:18.747425,0
21:33:18.747425,21
21:33:18.747425,5376
21:33:18.747425,0
21:33:18.747425,21
21:33:18.747425,4608
21:33:18.747425,0
21:33:18.747425,14
21:33:18.747425,4096
21:33:18.747425,0
21:33:18.747425,16
21:33:18.747425,4096
21:33:18.747425,0
21:33:18.747425,16
21:33:18.747425,3584
21:33:18.747425,0
21:33:18.747425,14
21:33:18.747425,4096
21:33:18.747425,0
21:33:18.747425,18
21:33:19.297963,18
21:33:19.297963,4608
21:33:19.297963,0
21:33:19.297963,21
21:33:19.297963,5376
21:33:19.297963,0
21:33:19.297963,18
21:33:19.297963,4096
21:33:19.297963,0
21:33:19.297963,23
21:33:19.297963,8448
21:33:19.297963,0
21:33:19.297963,35
21:33:19.297963,6656
21:33:19.297963,0
21:33:19.297963,23
21:33:19.297963,7680
21:33:19.297963,0
21:33:19.297963,37
21:33:19.297963,12032
21:33:19.297963,0
21:33:19.297963,54
21:33:19.297963,12544
21:33:19.297963,0
21:33:19.297963,47
21:33:19.297963,12032
21:33:19.297963,0
21:33:19.297963,42
21:33:19.297963,9472
21:33:19.297963,0
21:33:19.297963,26
21:33:19.297963,2304
21:33:19.297963,0
21:33:19.297963,14
21:33:19.297963,11264
21:33:19.297963,0
21:33:19.297963,68
21:33:19.297963,17408
21:33:19.297963,0
21:33:19.297963,54
21:33:19.297963,10752
21:33:19.297963,0
21:33:19.297963,35
21:33:19.297963,10752
21:33:19.297963,0
21:33:19.297963,54
21:33:19.297963,12544
21:33:19.297963,0
21:33:19.297963,47
21:33:19.297963,11264
21:33:19.297963,0
21:33:19.297963,2
21:33:19.297963,-29696
21:33:19.297963,-1
21:33:19.297963,-170
21:33:19.297963,31743
21:33:19.297963,0
21:33:19.297963,781
21:33:19.297963,-5376
21:33:19.297963,4
21:33:19.297963,935
21:33:19.297963,-8704
21:33:19.297963,0
21:33:19.297963,-40
21:33:19.297963,-4353
21:33:19.297963,-1
21:33:19.297963,-104
21:33:19.297963,29439
21:33:19.297963,-1
21:33:19.297963,-99
21:33:19.297963,-27393
21:33:19.297963,-1
21:33:19.297963,-123
21:33:19.297963,-25089
21:33:19.297963,-1
21:33:19.297963,-92
21:33:19.297963,-26369
21:33:19.297963,-1
21:33:19.297963,-101
21:33:19.297963,-23297
21:33:19.297963,-1
21:33:19.297963,-94
21:33:19.297963,-23809
21:33:19.297963,-1
21:33:19.297963,-89
21:33:19.297963,-23297
21:33:19.297963,-1
21:33:19.297963,-94
21:33:19.297963,-23297
21:33:19.297963,-1
21:33:19.297963,-89
21:33:19.297963,-22017
21:33:19.297963,-1
21:33:19.297963,-73
21:33:19.297963,-14081
21:33:19.297963,-1
21:33:19.297963,-44
21:33:19.297963,-8193
21:33:19.297963,-1
21:33:19.297963,-26
21:33:19.297963,-5633
21:33:19.297963,-1
21:33:19.297963,-23
21:33:19.297963,-4353
21:33:19.297963,-1
21:33:19.297963,-4
21:33:19.297963,767
21:33:19.297963,0
21:33:19.297963,7
21:33:19.848305,11
21:33:19.848305,4608
21:33:19.848305,0
21:33:19.848305,21
21:33:19.848305,5376
21:33:19.848305,0
21:33:19.848305,21
21:33:19.848305,5376
21:33:19.848305,0
21:33:19.848305,21
21:33:19.848305,5376
21:33:19.848305,0
21:33:19.848305,21
21:33:19.848305,4096
21:33:19.848305,0
21:33:19.848305,16
21:33:19.848305,7168
21:33:19.848305,0
21:33:19.848305,37
21:33:19.848305,9472
21:33:19.848305,0
21:33:19.848305,37
21:33:19.848305,10240
21:33:19.848305,0
21:33:19.848305,40
21:33:19.848305,10240
21:33:19.848305,0
21:33:19.848305,42
21:33:19.848305,10240
21:33:19.848305,0
21:33:19.848305,40
21:33:19.848305,11264
21:33:19.848305,0
21:33:19.848305,47
21:33:19.848305,12032
21:33:19.848305,0
21:33:19.848305,47
21:33:19.848305,11264
21:33:19.848305,0
21:33:19.848305,42
21:33:19.848305,8960
21:33:19.848305,0
21:33:19.848305,26
21:33:19.848305,4096
21:33:19.848305,0
21:33:19.848305,4
21:33:19.848305,1024
21:33:19.848305,0
21:33:19.848305,33
21:33:19.848305,17408
21:33:19.848305,0
21:33:19.848305,75
21:33:19.848305,12544
21:33:19.848305,0
21:33:19.848305,30
21:33:19.848305,8448
21:33:19.848305,0
21:33:19.848305,33
21:33:19.848305,6656
21:33:19.848305,0
21:33:19.848305,28
21:33:19.848305,8448
21:33:19.848305,0
21:33:19.848305,26
21:33:19.848305,512
21:33:19.848305,0
21:33:19.848305,-82
21:33:19.848305,18687
21:33:19.848305,-1
21:33:19.848305,-28
21:33:19.848305,7935
21:33:19.848305,2
21:33:19.848305,1150
21:33:19.848305,18944
21:33:19.848305,4
21:33:19.848305,407
21:33:19.848305,-8960
21:33:19.848305,-1
21:33:19.848305,-30
21:33:19.848305,-18945
21:33:19.848305,-1
21:33:19.848305,-156
21:33:19.848305,-31745
21:33:19.848305,-1
21:33:19.848305,-111
21:33:19.848305,31999
21:33:19.848305,-1
21:33:19.848305,-123
21:33:19.848305,-28161
21:33:19.848305,-1
21:33:19.848305,-120
21:33:19.848305,-30465
21:33:19.848305,-1
21:33:19.848305,-116
21:33:19.848305,-29441
21:33:19.848305,-1
21:33:19.848305,-116
21:33:19.848305,-29441
21:33:19.848305,-1
21:33:19.848305,-118
21:33:19.848305,-31233
21:33:19.848305,-1
21:33:19.848305,-123
21:33:19.848305,-29441
21:33:19.848305,-1
21:33:19.848305,-106
21:33:19.848305,-23297
21:33:19.848305,-1
21:33:19.848305,-73
21:33:20.397443,-52
21:33:20.397443,-9217
21:33:20.397443,-1
21:33:20.397443,-30
21:33:20.397443,-7425
21:33:20.397443,-1
21:33:20.397443,-33
21:33:20.397443,-7425
21:33:20.397443,-1
21:33:20.397443,-21
21:33:20.397443,-3329
21:33:20.397443,-1
21:33:20.397443,-11
21:33:20.397443,-257
21:33:20.397443,-1
21:33:20.397443,9
21:33:20.397443,5376
21:33:20.397443,0
21:33:20.397443,18
21:33:20.397443,3584
21:33:20.397443,0
21:33:20.397443,18
21:33:20.397443,5888
21:33:20.397443,0
21:33:20.397443,23
21:33:20.397443,5376
21:33:20.397443,0
21:33:20.397443,18
21:33:20.397443,4608
21:33:20.397443,0
21:33:20.397443,18
21:33:20.397443,5376
21:33:20.397443,0
21:33:20.397443,18
21:33:20.397443,5376
21:33:20.397443,0
21:33:20.397443,21
21:33:20.397443,5376
21:33:20.397443,0
21:33:20.397443,18
21:33:20.397443,4608
21:33:20.397443,0
21:33:20.397443,21
21:33:20.397443,5888
21:33:20.397443,0
21:33:20.397443,26
21:33:20.397443,7168
21:33:20.397443,0
21:33:20.397443,28
21:33:20.397443,6656
21:33:20.397443,0
21:33:20.397443,28
21:33:20.397443,7168
21:33:20.397443,0
21:33:20.397443,28
21:33:20.397443,6656
21:33:20.397443,0
21:33:20.397443,23
21:33:20.397443,5376
21:33:20.397443,0
21:33:20.397443,21
21:33:20.397443,5888
21:33:20.397443,0
21:33:20.397443,23
21:33:20.397443,5888
21:33:20.397443,0
21:33:20.397443,23
21:33:20.397443,5888
21:33:20.397443,0
21:33:20.397443,18
21:33:20.397443,2816
21:33:20.397443,0
21:33:20.397443,0
21:33:20.397443,-2816
21:33:20.397443,-1
21:33:20.397443,-16
21:33:20.397443,-769
21:33:20.397443,-1
21:33:20.397443,28
21:33:20.397443,12544
21:33:20.397443,0
21:33:20.397443,40
21:33:20.397443,5888
21:33:20.397443,0
21:33:20.397443,18
21:33:20.397443,4096
21:33:20.397443,0
21:33:20.397443,16
21:33:20.397443,4096
21:33:20.397443,0
21:33:20.397443,16
21:33:20.397443,3584
21:33:20.397443,0
21:33:20.397443,7
21:33:20.397443,-12544
21:33:20.397443,-1
21:33:20.397443,-168
21:33:20.397443,30719
21:33:20.397443,-1
21:33:20.397443,305
21:33:20.397443,-3328
21:33:20.397443,3
21:33:20.397443,1276
21:33:20.397443,-16128
21:33:20.397443,2
21:33:20.397443,49
21:33:20.397443,-17408
21:33:20.397443,-1
21:33:20.397443,-59
21:33:20.993517,-151
21:33:20.993517,25343
21:33:20.993517,-1
21:33:20.993517,-125
21:33:20.993517,29439
21:33:20.993517,-1
21:33:20.993517,-144
21:33:20.993517,-32257
21:33:20.993517,-1
21:33:20.993517,-127
21:33:20.993517,-32257
21:33:20.993517,-1
21:33:20.993517,-113
21:33:20.993517,-24577
21:33:20.993517,-1
21:33:20.993517,-94
21:33:20.993517,-25089
21:33:20.993517,-1
21:33:20.993517,-104
21:33:20.993517,-26881
21:33:20.993517,-1
21:33:20.993517,-106
21:33:20.993517,-26369
21:33:20.993517,-1
21:33:20.993517,-101
21:33:20.993517,-25089
21:33:20.993517,-1
21:33:20.993517,-85
21:33:20.993517,-16641
21:33:20.993517,-1
21:33:20.993517,-54
21:33:20.993517,-10497
21:33:20.993517,-1
21:33:20.993517,-33
21:33:20.993517,-6401
21:33:20.993517,-1
21:33:20.993517,-16
21:33:20.993517,-769
21:33:20.993517,-1
21:33:20.993517,2
21:33:20.993517,2304
21:33:20.993517,0
21:33:20.993517,23
21:33:20.993517,8448
21:33:20.993517,0
21:33:20.993517,33
21:33:20.993517,8448
21:33:20.993517,0
21:33:20.993517,37
21:33:20.993517,11264
21:33:20.993517,0
21:33:20.993517,47
21:33:20.993517,12032
21:33:20.993517,0
21:33:20.993517,44
21:33:20.993517,10240
21:33:20.993517,0
21:33:20.993517,33
21:33:20.993517,7680
21:33:20.993517,0
21:33:20.993517,33
21:33:20.993517,8448
21:33:20.993517,0
21:33:20.993517,30
21:33:20.993517,8448
21:33:20.993517,0
21:33:20.993517,33
21:33:20.993517,7168
21:33:20.993517,0
21:33:20.993517,30
21:33:20.993517,8960
21:33:20.993517,0
21:33:20.993517,33
21:33:20.993517,7168
21:33:20.993517,0
21:33:20.993517,28
21:33:20.993517,7680
21:33:20.993517,0
21:33:20.993517,33
21:33:20.993517,8960
21:33:20.993517,0
21:33:20.993517,35
21:33:20.993517,8960
21:33:20.993517,0
21:33:20.993517,30
21:33:20.993517,8448
21:33:20.993517,0
21:33:20.993517,37
21:33:20.993517,8448
21:33:20.993517,0
21:33:20.993517,33
21:33:20.993517,8960
21:33:20.993517,0
21:33:20.993517,35
21:33:20.993517,9472
21:33:20.993517,0
21:33:20.993517,37
21:33:20.993517,8448
21:33:20.993517,0
21:33:20.993517,33
21:33:20.993517,8960
21:33:20.993517,0
21:33:20.993517,37
21:33:20.993517,8448
21:33:20.993517,0
21:33:20.993517,30
21:33:20.993517,7168
21:33:20.993517,0
21:33:20.993517,26
21:33:21.497713,16
21:33:21.497713,1024
21:33:21.497713,0
21:33:21.497713,4
21:33:21.497713,5888
21:33:21.497713,0
21:33:21.497713,52
21:33:21.497713,16128
21:33:21.497713,0
21:33:21.497713,59
21:33:21.497713,13824
21:33:21.497713,0
21:33:21.497713,56
21:33:21.497713,13824
21:33:21.497713,0
21:33:21.497713,49
21:33:21.497713,12544
21:33:21.497713,0
21:33:21.497713,44
21:33:21.497713,10752
21:33:21.497713,0
21:33:21.497713,35
21:33:21.497713,-7168
21:33:21.497713,-1
21:33:21.497713,-151
21:33:21.497713,-24577
21:33:21.497713,-1
21:33:21.497713,376
21:33:21.497713,11264
21:33:21.497713,4
21:33:21.497713,1271
21:33:21.497713,-26368
21:33:21.497713,2
21:33:21.497713,49
21:33:21.497713,-5376
21:33:21.497713,-1
21:33:21.497713,-18
21:33:21.497713,32511
21:33:21.497713,-1
21:33:21.497713,-127
21:33:21.497713,-22529
21:33:21.497713,-1
21:33:21.497713,-113
21:33:21.497713,-31233
21:33:21.497713,-1
21:33:21.497713,-101
21:33:21.497713,-25601
21:33:21.497713,-1
21:33:21.497713,-108
21:33:21.497713,-25601
21:33:21.497713,-1
21:33:21.497713,-92
21:33:21.497713,-23809
21:33:21.497713,-1
21:33:21.497713,-101
21:33:21.497713,-26881
21:33:21.497713,-1
21:33:21.497713,-106
21:33:21.497713,-25601
21:33:21.497713,-1
21:33:21.497713,-94
21:33:21.497713,-24577
21:33:21.497713,-1
21:33:21.497713,-92
21:33:21.497713,-18945
21:33:21.497713,-1
21:33:21.497713,-63
21:33:21.497713,-13569
21:33:21.497713,-1
21:33:21.497713,-35
21:33:21.497713,-3841
21:33:21.497713,-1
21:33:21.497713,-11
21:33:21.497713,-2049
21:33:21.497713,-1
21:33:21.497713,0
21:33:21.497713,2304
21:33:21.497713,0
21:33:21.497713,14
21:33:21.497713,4608
21:33:21.497713,0
21:33:21.497713,26
21:33:21.497713,7680
21:33:21.497713,0
21:33:21.497713,30
21:33:21.497713,8448
21:33:21.497713,0
21:33:21.497713,33
21:33:21.497713,8448
21:33:21.497713,0
21:33:21.497713,30
21:33:21.497713,7168
21:33:21.497713,0
21:33:21.497713,28
21:33:21.497713,5376
21:33:21.497713,0
21:33:21.497713,11
21:33:21.497713,1792
21:33:21.497713,0
21:33:21.497713,11
21:33:21.497713,5376
21:33:21.497713,0
21:33:21.497713,21
21:33:21.497713,4096
21:33:21.497713,0
21:33:21.497713,18
21:33:21.497713,5376
21:33:21.497713,0
21:33:21.497713,21
21:33:22.097705,21
21:33:22.097705,4608
21:33:22.097705,0
21:33:22.097705,21
21:33:22.097705,6656
21:33:22.097705,0
21:33:22.097705,26
21:33:22.097705,7680
21:33:22.097705,0
21:33:22.097705,44
21:33:22.097705,13824
21:33:22.097705,0
21:33:22.097705,47
21:33:22.097705,10240
21:33:22.097705,0
21:33:22.097705,42
21:33:22.097705,11264
21:33:22.097705,0
21:33:22.097705,44
21:33:22.097705,10752
21:33:22.097705,0
21:33:22.097705,35
21:33:22.097705,7168
21:33:22.097705,0
21:33:22.097705,16
21:33:22.097705,512
21:33:22.097705,0
21:33:22.097705,0
21:33:22.097705,4608
21:33:22.097705,0
21:33:22.097705,49
21:33:22.097705,17408
21:33:22.097705,0
21:33:22.097705,56
21:33:22.097705,10240
21:33:22.097705,0
21:33:22.097705,30
21:33:22.097705,6656
21:33:22.097705,0
21:33:22.097705,28
21:33:22.097705,5888
21:33:22.097705,0
21:33:22.097705,21
21:33:22.097705,6656
21:33:22.097705,0
21:33:22.097705,16
21:33:22.097705,-12544
21:33:22.097705,-1
21:33:22.097705,-175
21:33:22.097705,27647
21:33:22.097705,-1
21:33:22.097705,274
21:33:22.097705,-19712
21:33:22.097705,3
21:33:22.097705,1226
21:33:22.097705,-16128
21:33:22.097705,2
21:33:22.097705,61
21:33:22.097705,-14336
21:33:22.097705,-1
21:33:22.097705,-42
21:33:22.097705,30207
21:33:22.097705,-1
21:33:22.097705,-142
21:33:22.097705,-26369
21:33:22.097705,-1
21:33:22.097705,-125
21:33:22.097705,31999
21:33:22.097705,-1
21:33:22.097705,-111
21:33:22.097705,-27393
21:33:22.097705,-1
21:33:22.097705,-113
21:33:22.097705,-28161
21:33:22.097705,-1
21:33:22.097705,-108
21:33:22.097705,-26881
21:33:22.097705,-1
21:33:22.097705,-104
21:33:22.097705,-26881
21:33:22.097705,-1
21:33:22.097705,-111
21:33:22.097705,-27393
21:33:22.097705,-1
21:33:22.097705,-106
21:33:22.097705,-26369
21:33:22.097705,-1
21:33:22.097705,-94
21:33:22.097705,-17921
21:33:22.097705,-1
21:33:22.097705,-47
21:33:22.097705,-8705
21:33:22.097705,-1
21:33:22.097705,-26
21:33:22.097705,-3329
21:33:22.097705,-1
21:33:22.097705,-14
21:33:22.097705,-4353
21:33:22.097705,-1
21:33:22.097705,-11
21:33:22.097705,-1537
21:33:22.097705,-1
21:33:22.097705,-2
21:33:22.097705,767
21:33:22.097705,0
21:33:22.097705,11
21:33:22.097705,4096
21:33:22.097705,0
21:33:22.097705,18
21:33:22.647762,21
21:33:22.647762,5376
21:33:22.647762,0
21:33:22.647762,21
21:33:22.647762,4608
21:33:22.647762,0
21:33:22.647762,14
21:33:22.647762,4608
21:33:22.647762,0
21:33:22.647762,18
21:33:22.647762,2816
21:33:22.647762,0
21:33:22.647762,9
21:33:22.647762,3584
21:33:22.647762,0
21:33:22.647762,21
21:33:22.647762,7168
21:33:22.647762,0
21:33:22.647762,35
21:33:22.647762,8448
21:33:22.647762,0
21:33:22.647762,28
21:33:22.647762,8448
21:33:22.647762,0
21:33:22.647762,35
21:33:22.647762,7680
21:33:22.647762,0
21:33:22.647762,30
21:33:22.647762,9472
21:33:22.647762,0
21:33:22.647762,37
21:33:22.647762,7680
21:33:22.647762,0
21:33:22.647762,26
21:33:22.647762,7168
21:33:22.647762,0
21:33:22.647762,30
21:33:22.647762,7168
21:33:22.647762,0
21:33:22.647762,30
21:33:22.647762,8448
21:33:22.647762,0
21:33:22.647762,35
21:33:22.647762,8960
21:33:22.647762,0
21:33:22.647762,33
21:33:22.647762,7168
21:33:22.647762,0
21:33:22.647762,28
21:33:22.647762,7168
21:33:22.647762,0
21:33:22.647762,28
21:33:22.647762,6656
21:33:22.647762,0
21:33:22.647762,23
21:33:22.647762,5888
21:33:22.647762,0
21:33:22.647762,16
21:33:22.647762,0
21:33:22.647762,0
21:33:22.647762,-11
21:33:22.647762,-2049
21:33:22.647762,-1
21:33:22.647762,11
21:33:22.647762,10752
21:33:22.647762,0
21:33:22.647762,52
21:33:22.647762,8448
21:33:22.647762,0
21:33:22.647762,21
21:33:22.647762,5376
21:33:22.647762,0
21:33:22.647762,21
21:33:22.647762,5376
21:33:22.647762,0
21:33:22.647762,23
21:33:22.647762,4608
21:33:22.647762,0
21:33:22.647762,16
21:33:22.647762,-1024
21:33:22.647762,-1
21:33:22.647762,-94
21:33:22.647762,18687
21:33:22.647762,-1
21:33:22.647762,7
21:33:22.647762,26368
21:33:22.647762,2
21:33:22.647762,1224
21:33:22.647762,22784
21:33:22.647762,4
21:33:22.647762,388
21:33:22.647762,-11264
21:33:22.647762,-1
21:33:22.647762,-37
21:33:22.647762,-20225
21:33:22.647762,-1
21:33:22.647762,-158
21:33:22.647762,-32257
21:33:22.647762,-1
21:33:22.647762,-113
21:33:22.647762,32511
21:33:22.647762,-1
21:33:22.647762,-118
21:33:22.647762,-27393
21:33:22.647762,-1
21:33:22.647762,-116
21:33:22.647762,-28673
21:33:22.647762,-1
21:33:22.647762,-104
21:33:23.197380,-106
21:33:23.197380,-28673
21:33:23.197380,-1
21:33:23.197380,-113
21:33:23.197380,-28673
21:33:23.197380,-1
21:33:23.197380,-120
21:33:23.197380,-31233
21:33:23.197380,-1
21:33:23.197380,-113
21:33:23.197380,-27393
21:33:23.197380,-1
21:33:23.197380,-104
21:33:23.197380,-21505
21:33:23.197380,-1
21:33:23.197380,-56
21:33:23.197380,-9217
21:33:23.197380,-1
21:33:23.197380,-28
21:33:23.197380,-5633
21:33:23.197380,-1
21:33:23.197380,-14
21:33:23.197380,-257
21:33:23.197380,-1
21:33:23.197380,7
21:33:23.197380,4096
21:33:23.197380,0
21:33:23.197380,26
21:33:23.197380,7168
21:33:23.197380,0
21:33:23.197380,28
21:33:23.197380,7168
21:33:23.197380,0
21:33:23.197380,28
21:33:23.197380,7680
21:33:23.197380,0
21:33:23.197380,35
21:33:23.197380,7680
21:33:23.197380,0
21:33:23.197380,26
21:33:23.197380,6656
21:33:23.197380,0
21:33:23.197380,26
21:33:23.197380,5888
21:33:23.197380,0
21:33:23.197380,21
21:33:23.197380,5376
21:33:23.197380,0
21:33:23.197380,21
21:33:23.197380,4608
21:33:23.197380,0
21:33:23.197380,18
21:33:23.197380,5376
21:33:23.197380,0
21:33:23.197380,23
21:33:23.197380,5888
21:33:23.197380,0
21:33:23.197380,18
21:33:23.197380,5376
21:33:23.197380,0
21:33:23.197380,26
21:33:23.197380,5888
21:33:23.197380,0
21:33:23.197380,21
21:33:23.197380,5376
21:33:23.197380,0
21:33:23.197380,26
21:33:23.197380,7680
21:33:23.197380,0
21:33:23.197380,37
21:33:23.197380,8960
21:33:23.197380,0
21:33:23.197380,30
21:33:23.197380,8448
21:33:23.197380,0
21:33:23.197380,37
21:33:23.197380,9472
21:33:23.197380,0
21:33:23.197380,35
21:33:23.197380,8960
21:33:23.197380,0
21:33:23.197380,28
21:33:23.197380,5376
21:33:23.197380,0
21:33:23.197380,18
21:33:23.197380,2304
21:33:23.197380,0
21:33:23.197380,0
21:33:23.197380,4608
21:33:23.197380,0
21:33:23.197380,52
21:33:23.197380,16128
21:33:23.197380,0
21:33:23.197380,49
21:33:23.197380,8960
21:33:23.197380,0
21:33:23.197380,23
21:33:23.197380,5376
21:33:23.197380,0
21:33:23.197380,28
21:33:23.197380,7168
21:33:23.197380,0
21:33:23.197380,23
21:33:23.197380,5888
21:33:23.197380,0
21:33:23.197380,2
21:33:23.197380,-24832
21:33:23.197380,-1
21:33:23.197380,-203
21:33:23.747595,-35
21:33:23.747595,6655
21:33:23.747595,2
21:33:23.747595,1143
21:33:23.747595,18944
21:33:23.747595,4
21:33:23.747595,404
21:33:23.747595,-10752
21:33:23.747595,-1
21:33:23.747595,-21
21:33:23.747595,-17153
21:33:23.747595,-1
21:33:23.747595,-156
21:33:23.747595,-26881
21:33:23.747595,-1
21:33:23.747595,-87
21:33:23.747595,-29953
21:33:23.747595,-1
21:33:23.747595,-104
21:33:23.747595,-21505
21:33:23.747595,-1
21:33:23.747595,-89
21:33:23.747595,-22529
21:33:23.747595,-1
21:33:23.747595,-89
21:33:23.747595,-22529
21:33:23.747595,-1
21:33:23.747595,-87
21:33:23.747595,-23297
21:33:23.747595,-1
21:33:23.747595,-101
21:33:23.747595,-25601
21:33:23.747595,-1
21:33:23.747595,-92
21:33:23.747595,-22017
21:33:23.747595,-1
21:33:23.747595,-82
21:33:23.747595,-17921
21:33:23.747595,-1
21:33:23.747595,-56
21:33:23.747595,-10497
21:33:23.747595,-1
21:33:23.747595,-23
21:33:23.747595,-2049
21:33:23.747595,-1
21:33:23.747595,-14
21:33:23.747595,-5121
21:33:23.747595,-1
21:33:23.747595,-18
21:33:23.747595,-3841
21:33:23.747595,-1
21:33:23.747595,-11
21:33:23.747595,-769
21:33:23.747595,-1
21:33:23.747595,0
21:33:23.747595,1024
21:33:23.747595,0
21:33:23.747595,11
21:33:23.747595,3584
21:33:23.747595,0
21:33:23.747595,16
21:33:23.747595,4608
21:33:23.747595,0
21:33:23.747595,18
21:33:23.747595,3584
21:33:23.747595,0
21:33:23.747595,9
21:33:23.747595,1792
21:33:23.747595,0
21:33:23.747595,2
21:33:23.747595,512
21:33:23.747595,0
21:33:23.747595,2
21:33:23.747595,0
21:33:23.747595,0
21:33:23.747595,0
21:33:23.747595,0
21:33:23.747595,0
21:33:23.747595,-2
21:33:23.747595,-257
21:33:23.747595,-1
21:33:23.747595,4
21:33:23.747595,1792
21:33:23.747595,0
21:33:23.747595,7
21:33:23.747595,2304
21:33:23.747595,0
21:33:23.747595,9
21:33:23.747595,1792
21:33:23.747595,0
21:33:23.747595,9
21:33:23.747595,2816
21:33:23.747595,0
21:33:23.747595,4
21:33:23.747595,512
21:33:23.747595,0
21:33:23.747595,7
21:33:23.747595,1024
21:33:23.747595,0
21:33:23.747595,-4
21:33:23.747595,-1537
21:33:23.747595,-1
21:33:23.747595,-11
21:33:23.747595,-6913
21:33:23.747595,-1
21:33:23.747595,-35
21:33:23.747595,-4353
21:33:23.747595,-1
21:33:23.747595,21
21:33:24.297518,44
21:33:24.297518,8448
21:33:24.297518,0
21:33:24.297518,16
21:33:24.297518,1792
21:33:24.297518,0
21:33:24.297518,4
21:33:24.297518,3584
21:33:24.297518,0
21:33:24.297518,18
21:33:24.297518,6656
21:33:24.297518,0
21:33:24.297518,30
21:33:24.297518,3584
21:33:24.297518,0
21:33:24.297518,-54
21:33:24.297518,20479
21:33:24.297518,-1
21:33:24.297518,-142
21:33:24.297518,18175
21:33:24.297518,1
21:33:24.297518,1051
21:33:24.297518,5120
21:33:24.297518,5
21:33:24.297518,703
21:33:24.297518,13312
21:33:24.297518,0
21:33:24.297518,-56
21:33:24.297518,-14081
21:33:24.297518,-1
21:33:24.297518,-153
21:33:24.297518,27647
21:33:24.297518,-1
21:33:24.297518,-118
21:33:24.297518,30207
21:33:24.297518,-1
21:33:24.297518,-142
21:33:24.297518,-32257
21:33:24.297518,-1
21:33:24.297518,-127
21:33:24.297518,-31745
21:33:24.297518,-1
21:33:24.297518,-123
21:33:24.297518,-31233
21:33:24.297518,-1
21:33:24.297518,-120
21:33:24.297518,-31233
21:33:24.297518,-1
21:33:24.297518,-125
21:33:24.297518,-31745
21:33:24.297518,-1
21:33:24.297518,-127
21:33:24.297518,32511
21:33:24.297518,-1
21:33:24.297518,-123
21:33:24.297518,-28673
21:33:24.297518,-1
21:33:24.297518,-99
21:33:24.297518,-18945
21:33:24.297518,-1
21:33:24.297518,-54
21:33:24.297518,-9985
21:33:24.297518,-1
21:33:24.297518,-33
21:33:24.297518,-6913
21:33:24.297518,-1
21:33:24.297518,-23
21:33:24.297518,-3329
21:33:24.297518,-1
21:33:24.297518,-4
21:33:24.297518,255
21:33:24.297518,0
21:33:24.297518,2
21:33:24.297518,2304
21:33:24.297518,0
21:33:24.297518,9
21:33:24.297518,2304
21:33:24.297518,0
21:33:24.297518,14
21:33:24.297518,4096
21:33:24.297518,0
21:33:24.297518,16
21:33:24.297518,3584
21:33:24.297518,0
21:33:24.297518,9
21:33:24.297518,1792
21:33:24.297518,0
21:33:24.297518,4
21:33:24.297518,512
21:33:24.297518,0
21:33:24.297518,0
21:33:24.297518,-512
21:33:24.297518,-1
21:33:24.297518,0
21:33:24.297518,0
21:33:24.297518,0
21:33:24.297518,-2
21:33:24.297518,255
21:33:24.297518,0
21:33:24.297518,2
21:33:24.297518,1792
21:33:24.297518,0
21:33:24.297518,7
21:33:24.297518,1024
21:33:24.297518,0
21:33:24.297518,4
21:33:24.297518,1792
21:33:24.297518,0
21:33:24.297518,9
21:33:24.847587,11
21:33:24.847587,2304
21:33:24.847587,0
21:33:24.847587,9
21:33:24.847587,2304
21:33:24.847587,0
21:33:24.847587,11
21:33:24.847587,4608
21:33:24.847587,0
21:33:24.847587,33
21:33:24.847587,8448
21:33:24.847587,0
21:33:24.847587,26
21:33:24.847587,5888
21:33:24.847587,0
21:33:24.847587,26
21:33:24.847587,5888
21:33:24.847587,0
21:33:24.847587,23
21:33:24.847587,5888
21:33:24.847587,0
21:33:24.847587,16
21:33:24.847587,3584
21:33:24.847587,0
21:33:24.847587,11
21:33:24.847587,0
21:33:24.847587,0
21:33:24.847587,-14
21:33:24.847587,-3841
21:33:24.847587,-1
21:33:24.847587,7
21:33:24.847587,10240
21:33:24.847587,0
21:33:24.847587,49
21:33:24.847587,9472
21:33:24.847587,0
21:33:24.847587,26
21:33:24.847587,5888
21:33:24.847587,0
21:33:24.847587,21
21:33:24.847587,6656
21:33:24.847587,0
21:33:24.847587,26
21:33:24.847587,4096
21:33:24.847587,0
21:33:24.847587,14
21:33:24.847587,0
21:33:24.847587,0
21:33:24.847587,-85
21:33:24.847587,16127
21:33:24.847587,-1
21:33:24.847587,-61
21:33:24.847587,-1281
21:33:24.847587,1
21:33:24.847587,1188
21:33:24.847587,-14336
21:33:24.847587,4
21:33:24.847587,511
21:33:24.847587,-7680
21:33:24.847587,-1
21:33:24.847587,-61
21:33:24.847587,-20225
21:33:24.847587,-1
21:33:24.847587,-168
21:33:24.847587,27135
21:33:24.847587,-1
21:33:24.847587,-130
21:33:24.847587,27647
21:33:24.847587,-1
21:33:24.847587,-144
21:33:24.847587,32511
21:33:24.847587,-1
21:33:24.847587,-137
21:33:24.847587,30719
21:33:24.847587,-1
21:33:24.847587,-125
21:33:24.847587,-30465
21:33:24.847587,-1
21:33:24.847587,-123
21:33:24.847587,-31745
21:33:24.847587,-1
21:33:24.847587,-132
21:33:24.847587,29439
21:33:24.847587,-1
21:33:24.847587,-137
21:33:24.847587,-31745
21:33:24.847587,-1
21:33:24.847587,-120
21:33:24.847587,-29953
21:33:24.847587,-1
21:33:24.847587,-108
21:33:24.847587,-21505
21:33:24.847587,-1
21:33:24.847587,-63
21:33:24.847587,-13057
21:33:24.847587,-1
21:33:24.847587,-44
21:33:24.847587,-9217
21:33:24.847587,-1
21:33:24.847587,-28
21:33:24.847587,-2561
21:33:24.847587,-1
21:33:24.847587,-2
21:33:24.847587,767
21:33:24.847587,0
21:33:24.847587,14
21:33:24.847587,5376
21:33:24.847587,0
21:33:24.847587,18
21:33:25.497849,16
21:33:25.497849,5376
21:33:25.497849,0
21:33:25.497849,28
21:33:25.497849,8448
21:33:25.497849,0
21:33:25.497849,37
21:33:25.497849,10752
21:33:25.497849,0
21:33:25.497849,44
21:33:25.497849,10752
21:33:25.497849,0
21:33:25.497849,35
21:33:25.497849,8448
21:33:25.497849,0
21:33:25.497849,30
21:33:25.497849,7680
21:33:25.497849,0
21:33:25.497849,30
21:33:25.497849,5376
21:33:25.497849,0
21:33:25.497849,16
21:33:25.497849,6656
21:33:25.497849,0
21:33:25.497849,37
21:33:25.497849,10752
21:33:25.497849,0
21:33:25.497849,44
21:33:25.497849,10752
21:33:25.497849,0
21:33:25.497849,37
21:33:25.497849,9472
21:33:25.497849,0
21:33:25.497849,40
21:33:25.497849,9472
21:33:25.497849,0
21:33:25.497849,40
21:33:25.497849,8960
21:33:25.497849,0
21:33:25.497849,30
21:33:25.497849,9472
21:33:25.497849,0
21:33:25.497849,42
21:33:25.497849,8960
21:33:25.497849,0
21:33:25.497849,28
21:33:25.497849,7680
21:33:25.497849,0
21:33:25.497849,28
21:33:25.497849,7680
21:33:25.497849,0
21:33:25.497849,30
21:33:25.497849,7168
21:33:25.497849,0
21:33:25.497849,28
21:33:25.497849,5376
21:33:25.497849,0
21:33:25.497849,2
21:33:25.497849,-2304
21:33:25.497849,-1
21:33:25.497849,2
21:33:25.497849,7680
21:33:25.497849,0
21:33:25.497849,59
21:33:25.497849,15616
21:33:25.497849,0
21:33:25.497849,40
21:33:25.497849,5888
21:33:25.497849,0
21:33:25.497849,23
21:33:25.497849,7168
21:33:25.497849,0
21:33:25.497849,33
21:33:25.497849,7168
21:33:25.497849,0
21:33:25.497849,26
21:33:25.497849,6656
21:33:25.497849,0
21:33:25.497849,-9
21:33:25.497849,-31745
21:33:25.497849,-1
21:33:25.497849,-194
21:33:25.497849,20223
21:33:25.497849,0
21:33:25.497849,738
21:33:25.497849,-3584
21:33:25.497849,4
21:33:25.497849,989
21:33:25.497849,-1280
21:33:25.497849,0
21:33:25.497849,-47
21:33:25.497849,-3841
21:33:25.497849,-1
21:33:25.497849,-108
21:33:25.497849,24575
21:33:25.497849,-1
21:33:25.497849,-111
21:33:25.497849,-31233
21:33:25.497849,-1
21:33:25.497849,-142
21:33:25.497849,-29441
21:33:25.497849,-1
21:33:25.497849,-106
21:33:25.497849,-28673
21:33:25.497849,-1
21:33:25.497849,-104
21:33:25.497849,-24577
21:33:25.497849,-1
21:33:25.497849,-104
21:33:25.997780,-106
21:33:25.997780,-25089
21:33:25.997780,-1
21:33:25.997780,-101
21:33:25.997780,-26881
21:33:25.997780,-1
21:33:25.997780,-104
21:33:25.997780,-25601
21:33:25.997780,-1
21:33:25.997780,-97
21:33:25.997780,-20225
21:33:25.997780,-1
21:33:25.997780,-56
21:33:25.997780,-8193
21:33:25.997780,-1
21:33:25.997780,-14
21:33:25.997780,-1537
21:33:25.997780,-1
21:33:25.997780,-7
21:33:25.997780,-1537
21:33:25.997780,-1
21:33:25.997780,0
21:33:25.997780,4096
21:33:25.997780,0
21:33:25.997780,30
21:33:25.997780,8448
21:33:25.997780,0
21:33:25.997780,35
21:33:25.997780,10752
21:33:25.997780,0
21:33:25.997780,42
