timestamp,ecg,reconstructed_time
2025-11-07 17:55:12.290154,-130,2025-11-07 17:55:12.290154000
2025-11-07 17:55:12.290154,32511,2025-11-07 17:55:12.297846308
2025-11-07 17:55:12.290154,-1,2025-11-07 17:55:12.305538615
2025-11-07 17:55:12.290154,-120,2025-11-07 17:55:12.313230923
2025-11-07 17:55:12.290154,-20737,2025-11-07 17:55:12.320923231
2025-11-07 17:55:12.290154,-1,2025-11-07 17:55:12.328615538
2025-11-07 17:55:12.290154,-61,2025-11-07 17:55:12.336307846
2025-11-07 17:55:12.290154,-20737,2025-11-07 17:55:12.344000154
2025-11-07 17:55:12.290154,-1,2025-11-07 17:55:12.351692462
2025-11-07 17:55:12.290154,-92,2025-11-07 17:55:12.359384769
2025-11-07 17:55:12.290154,-20225,2025-11-07 17:55:12.367077077
2025-11-07 17:55:12.290154,-1,2025-11-07 17:55:12.374769385
2025-11-07 17:55:12.290154,-80,2025-11-07 17:55:12.382461692
2025-11-07 17:55:12.290154,-19713,2025-11-07 17:55:12.390154000
2025-11-07 17:55:12.290154,-1,2025-11-07 17:55:12.397846308
2025-11-07 17:55:12.290154,-68,2025-11-07 17:55:12.405538615
2025-11-07 17:55:12.290154,-19713,2025-11-07 17:55:12.413230923
2025-11-07 17:55:12.290154,-1,2025-11-07 17:55:12.420923231
2025-11-07 17:55:12.290154,-137,2025-11-07 17:55:12.428615538
2025-11-07 17:55:12.290154,-26881,2025-11-07 17:55:12.436307846
2025-11-07 17:55:12.290154,-1,2025-11-07 17:55:12.444000154
2025-11-07 17:55:12.290154,437,2025-11-07 17:55:12.451692462
2025-11-07 17:55:12.290154,18944,2025-11-07 17:55:12.459384769
2025-11-07 17:55:12.290154,5,2025-11-07 17:55:12.467077077
2025-11-07 17:55:12.290154,1271,2025-11-07 17:55:12.474769385
2025-11-07 17:55:12.290154,28672,2025-11-07 17:55:12.482461692
2025-11-07 17:55:12.290154,-1,2025-11-07 17:55:12.490154000
2025-11-07 17:55:12.290154,-794,2025-11-07 17:55:12.497846308
2025-11-07 17:55:12.290154,-27393,2025-11-07 17:55:12.505538615
2025-11-07 17:55:12.290154,-1,2025-11-07 17:55:12.513230923
2025-11-07 17:55:12.290154,115,2025-11-07 17:55:12.520923231
2025-11-07 17:55:12.290154,10496,2025-11-07 17:55:12.528615538
2025-11-07 17:55:12.290154,-1,2025-11-07 17:55:12.536307846
2025-11-07 17:55:12.290154,-174,2025-11-07 17:55:12.544000154
2025-11-07 17:55:12.290154,-15361,2025-11-07 17:55:12.551692462
2025-11-07 17:55:12.290154,-1,2025-11-07 17:55:12.559384769
2025-11-07 17:55:12.290154,-144,2025-11-07 17:55:12.567077077
2025-11-07 17:55:12.290154,25855,2025-11-07 17:55:12.574769385
2025-11-07 17:55:12.290154,-1,2025-11-07 17:55:12.582461692
2025-11-07 17:55:12.290154,-104,2025-11-07 17:55:12.590154000
2025-11-07 17:55:12.290154,-29953,2025-11-07 17:55:12.597846308
2025-11-07 17:55:12.290154,-1,2025-11-07 17:55:12.605538615
2025-11-07 17:55:12.290154,-130,2025-11-07 17:55:12.613230923
2025-11-07 17:55:12.290154,-27393,2025-11-07 17:55:12.620923231
2025-11-07 17:55:12.290154,-1,2025-11-07 17:55:12.628615538
2025-11-07 17:55:12.290154,-104,2025-11-07 17:55:12.636307846
2025-11-07 17:55:12.290154,-26369,2025-11-07 17:55:12.644000154
2025-11-07 17:55:12.290154,-1,2025-11-07 17:55:12.651692462
2025-11-07 17:55:12.290154,-104,2025-11-07 17:55:12.659384769
2025-11-07 17:55:12.290154,-25089,2025-11-07 17:55:12.667077077
2025-11-07 17:55:12.290154,-1,2025-11-07 17:55:12.674769385
2025-11-07 17:55:12.290154,-89,2025-11-07 17:55:12.682461692
2025-11-07 17:55:12.290154,-20225,2025-11-07 17:55:12.690154000
2025-11-07 17:55:12.290154,-1,2025-11-07 17:55:12.697846308
2025-11-07 17:55:12.290154,-78,2025-11-07 17:55:12.705538615
2025-11-07 17:55:12.290154,-18433,2025-11-07 17:55:12.713230923
2025-11-07 17:55:12.290154,-1,2025-11-07 17:55:12.720923231
2025-11-07 17:55:12.290154,-61,2025-11-07 17:55:12.728615538
2025-11-07 17:55:12.290154,-11777,2025-11-07 17:55:12.736307846
2025-11-07 17:55:12.290154,-1,2025-11-07 17:55:12.744000154
2025-11-07 17:55:12.290154,-35,2025-11-07 17:55:12.751692462
2025-11-07 17:55:12.290154,-6401,2025-11-07 17:55:12.759384769
2025-11-07 17:55:12.290154,-1,2025-11-07 17:55:12.767077077
2025-11-07 17:55:12.290154,-2,2025-11-07 17:55:12.774769385
2025-11-07 17:55:12.290154,6143,2025-11-07 17:55:12.782461692
2025-11-07 17:55:12.290154,0,2025-11-07 17:55:12.790154000
2025-11-07 17:55:12.290154,35,2025-11-07 17:55:12.797846308
2025-11-07 17:55:12.290154,10240,2025-11-07 17:55:12.805538615
2025-11-07 17:55:12.290154,0,2025-11-07 17:55:12.813230923
2025-11-07 17:55:12.290154,44,2025-11-07 17:55:12.820923230
2025-11-07 17:55:12.290154,8960,2025-11-07 17:55:12.828615538
2025-11-07 17:55:12.290154,0,2025-11-07 17:55:12.836307846
2025-11-07 17:55:12.290154,11,2025-11-07 17:55:12.844000154
2025-11-07 17:55:12.290154,-6656,2025-11-07 17:55:12.851692462
2025-11-07 17:55:12.290154,-1,2025-11-07 17:55:12.859384769
2025-11-07 17:55:12.290154,-68,2025-11-07 17:55:12.867077077
2025-11-07 17:55:12.290154,-26369,2025-11-07 17:55:12.874769385
2025-11-07 17:55:12.290154,-1,2025-11-07 17:55:12.882461692
2025-11-07 17:55:12.290154,-132,2025-11-07 17:55:12.890154000
2025-11-07 17:55:12.290154,27135,2025-11-07 17:55:12.897846308
2025-11-07 17:55:12.290154,-1,2025-11-07 17:55:12.905538615
2025-11-07 17:55:12.290154,-158,2025-11-07 17:55:12.913230923
2025-11-07 17:55:12.290154,24831,2025-11-07 17:55:12.920923231
2025-11-07 17:55:12.290154,-1,2025-11-07 17:55:12.928615538
2025-11-07 17:55:12.290154,-163,2025-11-07 17:55:12.936307846
2025-11-07 17:55:12.290154,24063,2025-11-07 17:55:12.944000154
2025-11-07 17:55:12.290154,-1,2025-11-07 17:55:12.951692462
2025-11-07 17:55:12.290154,-160,2025-11-07 17:55:12.959384769
2025-11-07 17:55:12.290154,25343,2025-11-07 17:55:12.967077077
2025-11-07 17:55:12.290154,-1,2025-11-07 17:55:12.974769385
2025-11-07 17:55:12.290154,-156,2025-11-07 17:55:12.982461692
2025-11-07 17:55:12.290154,27903,2025-11-07 17:55:12.990154000
2025-11-07 17:55:12.290154,-1,2025-11-07 17:55:12.997846308
2025-11-07 17:55:12.290154,-144,2025-11-07 17:55:13.005538615
2025-11-07 17:55:12.290154,28927,2025-11-07 17:55:13.013230923
2025-11-07 17:55:12.290154,-1,2025-11-07 17:55:13.020923231
2025-11-07 17:55:12.290154,-141,2025-11-07 17:55:13.028615538
2025-11-07 17:55:12.290154,31999,2025-11-07 17:55:13.036307846
2025-11-07 17:55:12.290154,-1,2025-11-07 17:55:13.044000154
2025-11-07 17:55:12.290154,-122,2025-11-07 17:55:13.051692462
2025-11-07 17:55:12.290154,-30465,2025-11-07 17:55:13.059384769
2025-11-07 17:55:12.290154,-1,2025-11-07 17:55:13.067077077
2025-11-07 17:55:12.290154,-120,2025-11-07 17:55:13.074769385
2025-11-07 17:55:12.290154,-29185,2025-11-07 17:55:13.082461692
2025-11-07 17:55:12.290154,-1,2025-11-07 17:55:13.090154000
2025-11-07 17:55:12.290154,-111,2025-11-07 17:55:13.097846308
2025-11-07 17:55:12.290154,-26881,2025-11-07 17:55:13.105538615
2025-11-07 17:55:12.290154,-1,2025-11-07 17:55:13.113230923
2025-11-07 17:55:12.290154,-106,2025-11-07 17:55:13.120923231
2025-11-07 17:55:12.875541,-104,2025-11-07 17:55:13.128615538
2025-11-07 17:55:12.875541,-25601,2025-11-07 17:55:13.136307846
2025-11-07 17:55:12.875541,-1,2025-11-07 17:55:13.144000154
2025-11-07 17:55:12.875541,-99,2025-11-07 17:55:13.151692462
2025-11-07 17:55:12.875541,-25089,2025-11-07 17:55:13.159384769
2025-11-07 17:55:12.875541,-1,2025-11-07 17:55:13.167077077
2025-11-07 17:55:12.875541,-99,2025-11-07 17:55:13.174769385
2025-11-07 17:55:12.875541,-26369,2025-11-07 17:55:13.182461692
2025-11-07 17:55:12.875541,-1,2025-11-07 17:55:13.190154000
2025-11-07 17:55:12.875541,-106,2025-11-07 17:55:13.197846308
2025-11-07 17:55:12.875541,-25089,2025-11-07 17:55:13.205538615
2025-11-07 17:55:12.875541,-1,2025-11-07 17:55:13.213230923
2025-11-07 17:55:12.875541,-85,2025-11-07 17:55:13.220923231
2025-11-07 17:55:12.875541,-22017,2025-11-07 17:55:13.228615538
2025-11-07 17:55:12.875541,-1,2025-11-07 17:55:13.236307846
2025-11-07 17:55:12.875541,-94,2025-11-07 17:55:13.244000154
2025-11-07 17:55:12.875541,-23809,2025-11-07 17:55:13.251692462
2025-11-07 17:55:12.875541,-1,2025-11-07 17:55:13.259384769
2025-11-07 17:55:12.875541,-92,2025-11-07 17:55:13.267077077
2025-11-07 17:55:12.875541,-23809,2025-11-07 17:55:13.274769385
2025-11-07 17:55:12.875541,-1,2025-11-07 17:55:13.282461692
2025-11-07 17:55:12.875541,-94,2025-11-07 17:55:13.290154000
2025-11-07 17:55:12.875541,-22529,2025-11-07 17:55:13.297846308
2025-11-07 17:55:12.875541,-1,2025-11-07 17:55:13.305538615
2025-11-07 17:55:12.875541,-89,2025-11-07 17:55:13.313230923
2025-11-07 17:55:12.875541,-23297,2025-11-07 17:55:13.320923231
2025-11-07 17:55:12.875541,-1,2025-11-07 17:55:13.328615538
2025-11-07 17:55:12.875541,-92,2025-11-07 17:55:13.336307846
2025-11-07 17:55:12.875541,-22017,2025-11-07 17:55:13.344000154
2025-11-07 17:55:12.875541,-1,2025-11-07 17:55:13.351692462
2025-11-07 17:55:12.875541,-85,2025-11-07 17:55:13.359384769
2025-11-07 17:55:12.875541,-22529,2025-11-07 17:55:13.367077077
2025-11-07 17:55:12.875541,-1,2025-11-07 17:55:13.374769385
2025-11-07 17:55:12.875541,-87,2025-11-07 17:55:13.382461692
2025-11-07 17:55:12.875541,-20225,2025-11-07 17:55:13.390154000
2025-11-07 17:55:12.875541,-1,2025-11-07 17:55:13.397846308
2025-11-07 17:55:12.875541,-85,2025-11-07 17:55:13.405538615
2025-11-07 17:55:12.875541,-25089,2025-11-07 17:55:13.413230923
2025-11-07 17:55:12.875541,-1,2025-11-07 17:55:13.420923231
2025-11-07 17:55:12.875541,-115,2025-11-07 17:55:13.428615538
2025-11-07 17:55:12.875541,31999,2025-11-07 17:55:13.436307846
2025-11-07 17:55:12.875541,-1,2025-11-07 17:55:13.444000154
2025-11-07 17:55:12.875541,-134,2025-11-07 17:55:13.451692462
2025-11-07 17:55:12.875541,31999,2025-11-07 17:55:13.459384769
2025-11-07 17:55:12.875541,-1,2025-11-07 17:55:13.467077077
2025-11-07 17:55:12.875541,-118,2025-11-07 17:55:13.474769385
2025-11-07 17:55:12.875541,-21505,2025-11-07 17:55:13.482461692
2025-11-07 17:55:12.875541,-1,2025-11-07 17:55:13.490154000
2025-11-07 17:55:12.875541,-61,2025-11-07 17:55:13.497846308
2025-11-07 17:55:12.875541,-18433,2025-11-07 17:55:13.505538615
2025-11-07 17:55:12.875541,-1,2025-11-07 17:55:13.513230923
2025-11-07 17:55:12.875541,-85,2025-11-07 17:55:13.520923231
2025-11-07 17:55:12.875541,-19713,2025-11-07 17:55:13.528615538
2025-11-07 17:55:12.875541,-1,2025-11-07 17:55:13.536307846
2025-11-07 17:55:12.875541,-70,2025-11-07 17:55:13.544000154
2025-11-07 17:55:12.875541,-16641,2025-11-07 17:55:13.551692462
2025-11-07 17:55:12.875541,-1,2025-11-07 17:55:13.559384769
2025-11-07 17:55:12.875541,-59,2025-11-07 17:55:13.567077077
2025-11-07 17:55:12.875541,-16641,2025-11-07 17:55:13.574769385
2025-11-07 17:55:12.875541,-1,2025-11-07 17:55:13.582461692
2025-11-07 17:55:12.875541,-127,2025-11-07 17:55:13.590154000
2025-11-07 17:55:12.875541,27135,2025-11-07 17:55:13.597846308
2025-11-07 17:55:12.875541,-1,2025-11-07 17:55:13.605538615
2025-11-07 17:55:12.875541,283,2025-11-07 17:55:13.613230923
2025-11-07 17:55:12.875541,-5120,2025-11-07 17:55:13.620923231
2025-11-07 17:55:12.875541,4,2025-11-07 17:55:13.628615538
2025-11-07 17:55:12.875541,1576,2025-11-07 17:55:13.636307846
2025-11-07 17:55:12.875541,30464,2025-11-07 17:55:13.644000154
2025-11-07 17:55:12.875541,1,2025-11-07 17:55:13.651692462
2025-11-07 17:55:12.875541,-628,2025-11-07 17:55:13.659384769
2025-11-07 17:55:12.875541,22271,2025-11-07 17:55:13.667077077
2025-11-07 17:55:12.875541,-1,2025-11-07 17:55:13.674769385
2025-11-07 17:55:12.875541,179,2025-11-07 17:55:13.682461692
2025-11-07 17:55:12.875541,18432,2025-11-07 17:55:13.690154000
2025-11-07 17:55:12.875541,-1,2025-11-07 17:55:13.697846308
2025-11-07 17:55:12.875541,-245,2025-11-07 17:55:13.705538615
2025-11-07 17:55:12.875541,-22529,2025-11-07 17:55:13.713230923
2025-11-07 17:55:12.875541,-1,2025-11-07 17:55:13.720923231
2025-11-07 17:55:12.875541,-151,2025-11-07 17:55:13.728615538
2025-11-07 17:55:12.875541,14591,2025-11-07 17:55:13.736307846
2025-11-07 17:55:12.875541,-1,2025-11-07 17:55:13.744000154
2025-11-07 17:55:12.875541,-139,2025-11-07 17:55:13.751692462
2025-11-07 17:55:12.875541,30719,2025-11-07 17:55:13.759384769
2025-11-07 17:55:12.875541,-1,2025-11-07 17:55:13.767077077
2025-11-07 17:55:12.875541,-158,2025-11-07 17:55:13.774769385
2025-11-07 17:55:12.875541,30207,2025-11-07 17:55:13.782461692
2025-11-07 17:55:12.875541,-1,2025-11-07 17:55:13.790154000
2025-11-07 17:55:12.875541,-134,2025-11-07 17:55:13.797846308
2025-11-07 17:55:12.875541,29695,2025-11-07 17:55:13.805538615
2025-11-07 17:55:12.875541,-1,2025-11-07 17:55:13.813230923
2025-11-07 17:55:12.875541,-134,2025-11-07 17:55:13.820923230
2025-11-07 17:55:12.875541,-31745,2025-11-07 17:55:13.828615538
2025-11-07 17:55:12.875541,-1,2025-11-07 17:55:13.836307846
2025-11-07 17:55:12.875541,-127,2025-11-07 17:55:13.844000154
2025-11-07 17:55:12.875541,32511,2025-11-07 17:55:13.851692462
2025-11-07 17:55:12.875541,-1,2025-11-07 17:55:13.859384769
2025-11-07 17:55:12.875541,-130,2025-11-07 17:55:13.867077077
2025-11-07 17:55:12.875541,-32257,2025-11-07 17:55:13.874769385
2025-11-07 17:55:12.875541,-1,2025-11-07 17:55:13.882461692
2025-11-07 17:55:12.875541,-127,2025-11-07 17:55:13.890154000
2025-11-07 17:55:12.875541,-31745,2025-11-07 17:55:13.897846308
2025-11-07 17:55:12.875541,-1,2025-11-07 17:55:13.905538615
2025-11-07 17:55:12.875541,-120,2025-11-07 17:55:13.913230923
2025-11-07 17:55:12.875541,-28161,2025-11-07 17:55:13.920923231
2025-11-07 17:55:12.875541,-1,2025-11-07 17:55:13.928615538
2025-11-07 17:55:12.875541,-94,2025-11-07 17:55:13.936307846
2025-11-07 17:55:12.875541,-20225,2025-11-07 17:55:13.944000154
2025-11-07 17:55:12.875541,-1,2025-11-07 17:55:13.951692462
2025-11-07 17:55:12.875541,-63,2025-11-07 17:55:13.959384769
2025-11-07 17:55:13.414181,-49,2025-11-07 17:55:13.967077077
2025-11-07 17:55:13.414181,-8193,2025-11-07 17:55:13.974769385
2025-11-07 17:55:13.414181,-1,2025-11-07 17:55:13.982461692
2025-11-07 17:55:13.414181,-16,2025-11-07 17:55:13.990154000
2025-11-07 17:55:13.414181,-3329,2025-11-07 17:55:13.997846308
2025-11-07 17:55:13.414181,-1,2025-11-07 17:55:14.005538615
2025-11-07 17:55:13.414181,-37,2025-11-07 17:55:14.013230923
2025-11-07 17:55:13.414181,-17665,2025-11-07 17:55:14.020923231
2025-11-07 17:55:13.414181,-1,2025-11-07 17:55:14.028615538
2025-11-07 17:55:13.414181,-99,2025-11-07 17:55:14.036307846
2025-11-07 17:55:13.414181,-29953,2025-11-07 17:55:14.044000154
2025-11-07 17:55:13.414181,-1,2025-11-07 17:55:14.051692462
2025-11-07 17:55:13.414181,-130,2025-11-07 17:55:14.059384769
2025-11-07 17:55:13.414181,30207,2025-11-07 17:55:14.067077077
2025-11-07 17:55:13.414181,-1,2025-11-07 17:55:14.074769385
2025-11-07 17:55:13.414181,-141,2025-11-07 17:55:14.082461692
2025-11-07 17:55:13.414181,31487,2025-11-07 17:55:14.090154000
2025-11-07 17:55:13.414181,-1,2025-11-07 17:55:14.097846308
2025-11-07 17:55:13.414181,-127,2025-11-07 17:55:14.105538615
2025-11-07 17:55:13.414181,31999,2025-11-07 17:55:14.113230923
2025-11-07 17:55:13.414181,-1,2025-11-07 17:55:14.120923231
2025-11-07 17:55:13.414181,-132,2025-11-07 17:55:14.128615538
2025-11-07 17:55:13.414181,-32257,2025-11-07 17:55:14.136307846
2025-11-07 17:55:13.414181,-1,2025-11-07 17:55:14.144000154
2025-11-07 17:55:13.414181,-122,2025-11-07 17:55:14.151692462
2025-11-07 17:55:13.414181,-29953,2025-11-07 17:55:14.159384769
2025-11-07 17:55:13.414181,-1,2025-11-07 17:55:14.167077077
2025-11-07 17:55:13.414181,-118,2025-11-07 17:55:14.174769385
2025-11-07 17:55:13.414181,-29185,2025-11-07 17:55:14.182461692
2025-11-07 17:55:13.414181,-1,2025-11-07 17:55:14.190154000
2025-11-07 17:55:13.414181,-111,2025-11-07 17:55:14.197846308
2025-11-07 17:55:13.414181,-27393,2025-11-07 17:55:14.205538615
2025-11-07 17:55:13.414181,-1,2025-11-07 17:55:14.213230923
2025-11-07 17:55:13.414181,-101,2025-11-07 17:55:14.220923231
2025-11-07 17:55:13.414181,-24321,2025-11-07 17:55:14.228615538
2025-11-07 17:55:13.414181,-1,2025-11-07 17:55:14.236307846
2025-11-07 17:55:13.414181,-96,2025-11-07 17:55:14.244000154
2025-11-07 17:55:13.414181,-23809,2025-11-07 17:55:14.251692462
2025-11-07 17:55:13.414181,-1,2025-11-07 17:55:14.259384769
2025-11-07 17:55:13.414181,-92,2025-11-07 17:55:14.267077077
2025-11-07 17:55:13.414181,-22529,2025-11-07 17:55:14.274769385
2025-11-07 17:55:13.414181,-1,2025-11-07 17:55:14.282461692
2025-11-07 17:55:13.414181,-85,2025-11-07 17:55:14.290154000
2025-11-07 17:55:13.414181,-20737,2025-11-07 17:55:14.297846308
2025-11-07 17:55:13.414181,-1,2025-11-07 17:55:14.305538615
2025-11-07 17:55:13.414181,-80,2025-11-07 17:55:14.313230923
2025-11-07 17:55:13.414181,-20737,2025-11-07 17:55:14.320923231
2025-11-07 17:55:13.414181,-1,2025-11-07 17:55:14.328615538
2025-11-07 17:55:13.414181,-82,2025-11-07 17:55:14.336307846
2025-11-07 17:55:13.414181,-20737,2025-11-07 17:55:14.344000154
2025-11-07 17:55:13.414181,-1,2025-11-07 17:55:14.351692462
2025-11-07 17:55:13.414181,-80,2025-11-07 17:55:14.359384769
2025-11-07 17:55:13.414181,-21505,2025-11-07 17:55:14.367077077
2025-11-07 17:55:13.414181,-1,2025-11-07 17:55:14.374769385
2025-11-07 17:55:13.414181,-85,2025-11-07 17:55:14.382461692
2025-11-07 17:55:13.414181,-20737,2025-11-07 17:55:14.390154000
2025-11-07 17:55:13.414181,-1,2025-11-07 17:55:14.397846308
2025-11-07 17:55:13.414181,-82,2025-11-07 17:55:14.405538615
2025-11-07 17:55:13.414181,-21505,2025-11-07 17:55:14.413230923
2025-11-07 17:55:13.414181,-1,2025-11-07 17:55:14.420923231
2025-11-07 17:55:13.414181,-85,2025-11-07 17:55:14.428615538
2025-11-07 17:55:13.414181,-20737,2025-11-07 17:55:14.436307846
2025-11-07 17:55:13.414181,-1,2025-11-07 17:55:14.444000154
2025-11-07 17:55:13.414181,-85,2025-11-07 17:55:14.451692462
2025-11-07 17:55:13.414181,-21505,2025-11-07 17:55:14.459384769
2025-11-07 17:55:13.414181,-1,2025-11-07 17:55:14.467077077
2025-11-07 17:55:13.414181,-82,2025-11-07 17:55:14.474769385
2025-11-07 17:55:13.414181,-21505,2025-11-07 17:55:14.482461692
2025-11-07 17:55:13.414181,-1,2025-11-07 17:55:14.490154000
2025-11-07 17:55:13.414181,-85,2025-11-07 17:55:14.497846308
2025-11-07 17:55:13.414181,-20225,2025-11-07 17:55:14.505538615
2025-11-07 17:55:13.414181,-1,2025-11-07 17:55:14.513230923
2025-11-07 17:55:13.414181,-80,2025-11-07 17:55:14.520923231
2025-11-07 17:55:13.414181,-20225,2025-11-07 17:55:14.528615538
2025-11-07 17:55:13.414181,-1,2025-11-07 17:55:14.536307846
2025-11-07 17:55:13.414181,-80,2025-11-07 17:55:14.544000154
2025-11-07 17:55:13.414181,-20737,2025-11-07 17:55:14.551692462
2025-11-07 17:55:13.414181,-1,2025-11-07 17:55:14.559384769
2025-11-07 17:55:13.414181,-82,2025-11-07 17:55:14.567077077
2025-11-07 17:55:13.414181,-20225,2025-11-07 17:55:14.574769385
2025-11-07 17:55:13.414181,-1,2025-11-07 17:55:14.582461692
2025-11-07 17:55:13.414181,-80,2025-11-07 17:55:14.590154000
2025-11-07 17:55:13.414181,-19713,2025-11-07 17:55:14.597846308
2025-11-07 17:55:13.414181,-1,2025-11-07 17:55:14.605538615
2025-11-07 17:55:13.414181,-73,2025-11-07 17:55:14.613230923
2025-11-07 17:55:13.414181,-18433,2025-11-07 17:55:14.620923231
2025-11-07 17:55:13.414181,-1,2025-11-07 17:55:14.628615538
2025-11-07 17:55:13.414181,-87,2025-11-07 17:55:14.636307846
2025-11-07 17:55:13.414181,-27393,2025-11-07 17:55:14.644000154
2025-11-07 17:55:13.414181,-1,2025-11-07 17:55:14.651692462
2025-11-07 17:55:13.414181,-127,2025-11-07 17:55:14.659384769
2025-11-07 17:55:13.414181,31487,2025-11-07 17:55:14.667077077
2025-11-07 17:55:13.414181,-1,2025-11-07 17:55:14.674769385
2025-11-07 17:55:13.414181,-125,2025-11-07 17:55:14.682461692
2025-11-07 17:55:13.414181,-26369,2025-11-07 17:55:14.690154000
2025-11-07 17:55:13.414181,-1,2025-11-07 17:55:14.697846308
2025-11-07 17:55:13.414181,-70,2025-11-07 17:55:14.705538615
2025-11-07 17:55:13.414181,-11009,2025-11-07 17:55:14.713230923
2025-11-07 17:55:13.414181,-1,2025-11-07 17:55:14.720923231
2025-11-07 17:55:13.414181,-54,2025-11-07 17:55:14.728615538
2025-11-07 17:55:13.414181,-18433,2025-11-07 17:55:14.736307846
2025-11-07 17:55:13.414181,-1,2025-11-07 17:55:14.744000154
2025-11-07 17:55:13.414181,-73,2025-11-07 17:55:14.751692462
2025-11-07 17:55:13.414181,-15361,2025-11-07 17:55:14.759384769
2025-11-07 17:55:13.414181,-1,2025-11-07 17:55:14.767077077
2025-11-07 17:55:13.414181,-56,2025-11-07 17:55:14.774769385
2025-11-07 17:55:13.414181,-14849,2025-11-07 17:55:14.782461692
2025-11-07 17:55:13.414181,-1,2025-11-07 17:55:14.790154000
2025-11-07 17:55:13.414181,-61,2025-11-07 17:55:14.797846308
2025-11-07 17:55:13.954669,-108,2025-11-07 17:55:14.805538615
2025-11-07 17:55:13.954669,25343,2025-11-07 17:55:14.813230923
2025-11-07 17:55:13.954669,-1,2025-11-07 17:55:14.820923230
2025-11-07 17:55:13.954669,174,2025-11-07 17:55:14.828615538
2025-11-07 17:55:13.954669,20480,2025-11-07 17:55:14.836307846
2025-11-07 17:55:13.954669,4,2025-11-07 17:55:14.844000154
2025-11-07 17:55:13.954669,1692,2025-11-07 17:55:14.851692462
2025-11-07 17:55:13.954669,8960,2025-11-07 17:55:14.859384769
2025-11-07 17:55:13.954669,3,2025-11-07 17:55:14.867077077
2025-11-07 17:55:13.954669,-416,2025-11-07 17:55:14.874769385
2025-11-07 17:55:13.954669,-1,2025-11-07 17:55:14.882461692
2025-11-07 17:55:13.954669,-2,2025-11-07 17:55:14.890154000
2025-11-07 17:55:13.954669,182,2025-11-07 17:55:14.897846308
2025-11-07 17:55:13.954669,-30208,2025-11-07 17:55:14.905538615
2025-11-07 17:55:13.954669,-1,2025-11-07 17:55:14.913230923
2025-11-07 17:55:13.954669,-274,2025-11-07 17:55:14.920923231
2025-11-07 17:55:13.954669,-28673,2025-11-07 17:55:14.928615538
2025-11-07 17:55:13.954669,-1,2025-11-07 17:55:14.936307846
2025-11-07 17:55:13.954669,-134,2025-11-07 17:55:14.944000154
2025-11-07 17:55:13.954669,13311,2025-11-07 17:55:14.951692462
2025-11-07 17:55:13.954669,-1,2025-11-07 17:55:14.959384769
2025-11-07 17:55:13.954669,-153,2025-11-07 17:55:14.967077077
2025-11-07 17:55:13.954669,30719,2025-11-07 17:55:14.974769385
2025-11-07 17:55:13.954669,-1,2025-11-07 17:55:14.982461692
2025-11-07 17:55:13.954669,-160,2025-11-07 17:55:14.990154000
2025-11-07 17:55:13.954669,27903,2025-11-07 17:55:14.997846308
2025-11-07 17:55:13.954669,-1,2025-11-07 17:55:15.005538615
2025-11-07 17:55:13.954669,-134,2025-11-07 17:55:15.013230923
2025-11-07 17:55:13.954669,30207,2025-11-07 17:55:15.020923231
2025-11-07 17:55:13.954669,-1,2025-11-07 17:55:15.028615538
2025-11-07 17:55:13.954669,-137,2025-11-07 17:55:15.036307846
2025-11-07 17:55:13.954669,31999,2025-11-07 17:55:15.044000154
2025-11-07 17:55:13.954669,-1,2025-11-07 17:55:15.051692462
2025-11-07 17:55:13.954669,-132,2025-11-07 17:55:15.059384769
2025-11-07 17:55:13.954669,32511,2025-11-07 17:55:15.067077077
2025-11-07 17:55:13.954669,-1,2025-11-07 17:55:15.074769385
2025-11-07 17:55:13.954669,-125,2025-11-07 17:55:15.082461692
2025-11-07 17:55:13.954669,-32257,2025-11-07 17:55:15.090154000
2025-11-07 17:55:13.954669,-1,2025-11-07 17:55:15.097846308
2025-11-07 17:55:13.954669,-130,2025-11-07 17:55:15.105538615
2025-11-07 17:55:13.954669,-32257,2025-11-07 17:55:15.113230923
2025-11-07 17:55:13.954669,-1,2025-11-07 17:55:15.120923231
2025-11-07 17:55:13.954669,-125,2025-11-07 17:55:15.128615538
2025-11-07 17:55:13.954669,-29953,2025-11-07 17:55:15.136307846
2025-11-07 17:55:13.954669,-1,2025-11-07 17:55:15.144000154
2025-11-07 17:55:13.954669,-106,2025-11-07 17:55:15.151692462
2025-11-07 17:55:13.954669,-22529,2025-11-07 17:55:15.159384769
2025-11-07 17:55:13.954669,-1,2025-11-07 17:55:15.167077077
2025-11-07 17:55:13.954669,-73,2025-11-07 17:55:15.174769385
2025-11-07 17:55:13.954669,-14849,2025-11-07 17:55:15.182461692
2025-11-07 17:55:13.954669,-1,2025-11-07 17:55:15.190154000
2025-11-07 17:55:13.954669,-40,2025-11-07 17:55:15.197846308
2025-11-07 17:55:13.954669,-4353,2025-11-07 17:55:15.205538615
2025-11-07 17:55:13.954669,-1,2025-11-07 17:55:15.213230923
2025-11-07 17:55:13.954669,-2,2025-11-07 17:55:15.220923231
2025-11-07 17:55:13.954669,-2561,2025-11-07 17:55:15.228615538
2025-11-07 17:55:13.954669,-1,2025-11-07 17:55:15.236307846
2025-11-07 17:55:13.954669,-42,2025-11-07 17:55:15.244000154
2025-11-07 17:55:13.954669,-18945,2025-11-07 17:55:15.251692462
2025-11-07 17:55:13.954669,-1,2025-11-07 17:55:15.259384769
2025-11-07 17:55:13.954669,-99,2025-11-07 17:55:15.267077077
2025-11-07 17:55:13.954669,-29953,2025-11-07 17:55:15.274769385
2025-11-07 17:55:13.954669,-1,2025-11-07 17:55:15.282461692
2025-11-07 17:55:13.954669,-127,2025-11-07 17:55:15.290154000
2025-11-07 17:55:13.954669,31999,2025-11-07 17:55:15.297846308
2025-11-07 17:55:13.954669,-1,2025-11-07 17:55:15.305538615
2025-11-07 17:55:13.954669,-134,2025-11-07 17:55:15.313230923
2025-11-07 17:55:13.954669,31487,2025-11-07 17:55:15.320923231
2025-11-07 17:55:13.954669,-1,2025-11-07 17:55:15.328615538
2025-11-07 17:55:13.954669,-130,2025-11-07 17:55:15.336307846
2025-11-07 17:55:13.954669,-32257,2025-11-07 17:55:15.344000154
2025-11-07 17:55:13.954669,-1,2025-11-07 17:55:15.351692462
2025-11-07 17:55:13.954669,-125,2025-11-07 17:55:15.359384769
2025-11-07 17:55:13.954669,-30977,2025-11-07 17:55:15.367077077
2025-11-07 17:55:13.954669,-1,2025-11-07 17:55:15.374769385
2025-11-07 17:55:13.954669,-118,2025-11-07 17:55:15.382461692
2025-11-07 17:55:13.954669,-29953,2025-11-07 17:55:15.390154000
2025-11-07 17:55:13.954669,-1,2025-11-07 17:55:15.397846308
2025-11-07 17:55:13.954669,-115,2025-11-07 17:55:15.405538615
2025-11-07 17:55:13.954669,-28673,2025-11-07 17:55:15.413230923
2025-11-07 17:55:13.954669,-1,2025-11-07 17:55:15.420923231
2025-11-07 17:55:13.954669,-106,2025-11-07 17:55:15.428615538
2025-11-07 17:55:13.954669,-25601,2025-11-07 17:55:15.436307846
2025-11-07 17:55:13.954669,-1,2025-11-07 17:55:15.444000154
2025-11-07 17:55:13.954669,-99,2025-11-07 17:55:15.451692462
2025-11-07 17:55:13.954669,-24321,2025-11-07 17:55:15.459384769
2025-11-07 17:55:13.954669,-1,2025-11-07 17:55:15.467077077
2025-11-07 17:55:13.954669,-94,2025-11-07 17:55:15.474769385
2025-11-07 17:55:13.954669,-23297,2025-11-07 17:55:15.482461692
2025-11-07 17:55:13.954669,-1,2025-11-07 17:55:15.490154000
2025-11-07 17:55:13.954669,-92,2025-11-07 17:55:15.497846308
2025-11-07 17:55:13.954669,-23297,2025-11-07 17:55:15.505538615
2025-11-07 17:55:13.954669,-1,2025-11-07 17:55:15.513230923
2025-11-07 17:55:13.954669,-92,2025-11-07 17:55:15.520923231
2025-11-07 17:55:13.954669,-22529,2025-11-07 17:55:15.528615538
2025-11-07 17:55:13.954669,-1,2025-11-07 17:55:15.536307846
2025-11-07 17:55:13.954669,-89,2025-11-07 17:55:15.544000154
2025-11-07 17:55:13.954669,-22529,2025-11-07 17:55:15.551692462
2025-11-07 17:55:13.954669,-1,2025-11-07 17:55:15.559384769
2025-11-07 17:55:13.954669,-89,2025-11-07 17:55:15.567077077
2025-11-07 17:55:13.954669,-22017,2025-11-07 17:55:15.574769385
2025-11-07 17:55:13.954669,-1,2025-11-07 17:55:15.582461692
2025-11-07 17:55:13.954669,-89,2025-11-07 17:55:15.590154000
2025-11-07 17:55:13.954669,-22529,2025-11-07 17:55:15.597846308
2025-11-07 17:55:13.954669,-1,2025-11-07 17:55:15.605538615
2025-11-07 17:55:13.954669,-89,2025-11-07 17:55:15.613230923
2025-11-07 17:55:13.954669,-22529,2025-11-07 17:55:15.620923231
2025-11-07 17:55:13.954669,-1,2025-11-07 17:55:15.628615538
2025-11-07 17:55:13.954669,-87,2025-11-07 17:55:15.636307846
2025-11-07 17:55:14.585779,-87,2025-11-07 17:55:15.644000154
2025-11-07 17:55:14.585779,-22529,2025-11-07 17:55:15.651692462
2025-11-07 17:55:14.585779,-1,2025-11-07 17:55:15.659384769
2025-11-07 17:55:14.585779,-87,2025-11-07 17:55:15.667077077
2025-11-07 17:55:14.585779,-22017,2025-11-07 17:55:15.674769385
2025-11-07 17:55:14.585779,-1,2025-11-07 17:55:15.682461692
2025-11-07 17:55:14.585779,-87,2025-11-07 17:55:15.690154000
2025-11-07 17:55:14.585779,-20225,2025-11-07 17:55:15.697846308
2025-11-07 17:55:14.585779,-1,2025-11-07 17:55:15.705538615
2025-11-07 17:55:14.585779,-73,2025-11-07 17:55:15.713230923
2025-11-07 17:55:14.585779,-17665,2025-11-07 17:55:15.720923231
2025-11-07 17:55:14.585779,-1,2025-11-07 17:55:15.728615538
2025-11-07 17:55:14.585779,-75,2025-11-07 17:55:15.736307846
2025-11-07 17:55:14.585779,-18945,2025-11-07 17:55:15.744000154
2025-11-07 17:55:14.585779,-1,2025-11-07 17:55:15.751692462
2025-11-07 17:55:14.585779,-78,2025-11-07 17:55:15.759384769
2025-11-07 17:55:14.585779,-18945,2025-11-07 17:55:15.767077077
2025-11-07 17:55:14.585779,-1,2025-11-07 17:55:15.774769385
2025-11-07 17:55:14.585779,-70,2025-11-07 17:55:15.782461692
2025-11-07 17:55:14.585779,-17665,2025-11-07 17:55:15.790154000
2025-11-07 17:55:14.585779,-1,2025-11-07 17:55:15.797846308
2025-11-07 17:55:14.585779,-75,2025-11-07 17:55:15.805538615
2025-11-07 17:55:14.585779,-18433,2025-11-07 17:55:15.813230923
2025-11-07 17:55:14.585779,-1,2025-11-07 17:55:15.820923230
2025-11-07 17:55:14.585779,-68,2025-11-07 17:55:15.828615538
2025-11-07 17:55:14.585779,-16641,2025-11-07 17:55:15.836307846
2025-11-07 17:55:14.585779,-1,2025-11-07 17:55:15.844000154
2025-11-07 17:55:14.585779,-70,2025-11-07 17:55:15.851692462
2025-11-07 17:55:14.585779,-17665,2025-11-07 17:55:15.859384769
2025-11-07 17:55:14.585779,-1,2025-11-07 17:55:15.867077077
2025-11-07 17:55:14.585779,-70,2025-11-07 17:55:15.874769385
2025-11-07 17:55:14.585779,-17665,2025-11-07 17:55:15.882461692
2025-11-07 17:55:14.585779,-1,2025-11-07 17:55:15.890154000
2025-11-07 17:55:14.585779,-70,2025-11-07 17:55:15.897846308
2025-11-07 17:55:14.585779,-17665,2025-11-07 17:55:15.905538615
2025-11-07 17:55:14.585779,-1,2025-11-07 17:55:15.913230923
2025-11-07 17:55:14.585779,-70,2025-11-07 17:55:15.920923231
2025-11-07 17:55:14.585779,-18433,2025-11-07 17:55:15.928615538
2025-11-07 17:55:14.585779,-1,2025-11-07 17:55:15.936307846
2025-11-07 17:55:14.585779,-70,2025-11-07 17:55:15.944000154
2025-11-07 17:55:14.585779,-17153,2025-11-07 17:55:15.951692462
2025-11-07 17:55:14.585779,-1,2025-11-07 17:55:15.959384769
2025-11-07 17:55:14.585779,-78,2025-11-07 17:55:15.967077077
2025-11-07 17:55:14.585779,-24321,2025-11-07 17:55:15.974769385
2025-11-07 17:55:14.585779,-1,2025-11-07 17:55:15.982461692
2025-11-07 17:55:14.585779,-120,2025-11-07 17:55:15.990154000
2025-11-07 17:55:14.585779,31999,2025-11-07 17:55:15.997846308
2025-11-07 17:55:14.585779,-1,2025-11-07 17:55:16.005538615
2025-11-07 17:55:14.585779,-130,2025-11-07 17:55:16.013230923
2025-11-07 17:55:14.585779,-28673,2025-11-07 17:55:16.020923231
2025-11-07 17:55:14.585779,-1,2025-11-07 17:55:16.028615538
2025-11-07 17:55:14.585779,-75,2025-11-07 17:55:16.036307846
2025-11-07 17:55:14.585779,-9217,2025-11-07 17:55:16.044000154
2025-11-07 17:55:14.585779,-1,2025-11-07 17:55:16.051692462
2025-11-07 17:55:14.585779,-37,2025-11-07 17:55:16.059384769
2025-11-07 17:55:14.585779,-15873,2025-11-07 17:55:16.067077077
2025-11-07 17:55:14.585779,-1,2025-11-07 17:55:16.074769385
2025-11-07 17:55:14.585779,-75,2025-11-07 17:55:16.082461692
2025-11-07 17:55:14.585779,-16641,2025-11-07 17:55:16.090154000
2025-11-07 17:55:14.585779,-1,2025-11-07 17:55:16.097846308
2025-11-07 17:55:14.585779,-59,2025-11-07 17:55:16.105538615
2025-11-07 17:55:14.585779,-14849,2025-11-07 17:55:16.113230923
2025-11-07 17:55:14.585779,-1,2025-11-07 17:55:16.120923231
2025-11-07 17:55:14.585779,-56,2025-11-07 17:55:16.128615538
2025-11-07 17:55:14.585779,-18945,2025-11-07 17:55:16.136307846
2025-11-07 17:55:14.585779,-1,2025-11-07 17:55:16.144000154
2025-11-07 17:55:14.585779,-148,2025-11-07 17:55:16.151692462
2025-11-07 17:55:14.585779,-24321,2025-11-07 17:55:16.159384769
2025-11-07 17:55:14.585779,-1,2025-11-07 17:55:16.167077077
2025-11-07 17:55:14.585779,517,2025-11-07 17:55:16.174769385
2025-11-07 17:55:14.585779,-7168,2025-11-07 17:55:16.182461692
2025-11-07 17:55:14.585779,5,2025-11-07 17:55:16.190154000
2025-11-07 17:55:14.585779,1520,2025-11-07 17:55:16.197846308
2025-11-07 17:55:14.585779,-16640,2025-11-07 17:55:16.205538615
2025-11-07 17:55:14.585779,0,2025-11-07 17:55:16.213230923
2025-11-07 17:55:14.585779,-529,2025-11-07 17:55:16.220923231
2025-11-07 17:55:14.585779,-5633,2025-11-07 17:55:16.228615538
2025-11-07 17:55:14.585779,-1,2025-11-07 17:55:16.236307846
2025-11-07 17:55:14.585779,92,2025-11-07 17:55:16.244000154
2025-11-07 17:55:14.585779,-2048,2025-11-07 17:55:16.251692462
2025-11-07 17:55:14.585779,-2,2025-11-07 17:55:16.259384769
2025-11-07 17:55:14.585779,-224,2025-11-07 17:55:16.267077077
2025-11-07 17:55:14.585779,-26881,2025-11-07 17:55:16.274769385
2025-11-07 17:55:14.585779,-1,2025-11-07 17:55:16.282461692
2025-11-07 17:55:14.585779,-193,2025-11-07 17:55:16.290154000
2025-11-07 17:55:14.585779,12543,2025-11-07 17:55:16.297846308
2025-11-07 17:55:14.585779,-1,2025-11-07 17:55:16.305538615
2025-11-07 17:55:14.585779,-148,2025-11-07 17:55:16.313230923
2025-11-07 17:55:14.585779,24831,2025-11-07 17:55:16.320923231
2025-11-07 17:55:14.585779,-1,2025-11-07 17:55:16.328615538
2025-11-07 17:55:14.585779,-174,2025-11-07 17:55:16.336307846
2025-11-07 17:55:14.585779,26623,2025-11-07 17:55:16.344000154
2025-11-07 17:55:14.585779,-1,2025-11-07 17:55:16.351692462
2025-11-07 17:55:14.585779,-148,2025-11-07 17:55:16.359384769
2025-11-07 17:55:14.585779,25855,2025-11-07 17:55:16.367077077
2025-11-07 17:55:14.585779,-1,2025-11-07 17:55:16.374769385
2025-11-07 17:55:14.585779,-146,2025-11-07 17:55:16.382461692
2025-11-07 17:55:14.585779,30207,2025-11-07 17:55:16.390154000
2025-11-07 17:55:14.585779,-1,2025-11-07 17:55:16.397846308
2025-11-07 17:55:14.585779,-141,2025-11-07 17:55:16.405538615
2025-11-07 17:55:14.585779,29695,2025-11-07 17:55:16.413230923
2025-11-07 17:55:14.585779,-1,2025-11-07 17:55:16.420923231
2025-11-07 17:55:14.585779,-139,2025-11-07 17:55:16.428615538
2025-11-07 17:55:14.585779,30719,2025-11-07 17:55:16.436307846
2025-11-07 17:55:14.585779,-1,2025-11-07 17:55:16.444000154
2025-11-07 17:55:14.585779,-134,2025-11-07 17:55:16.451692462
2025-11-07 17:55:14.585779,32511,2025-11-07 17:55:16.459384769
2025-11-07 17:55:14.585779,-1,2025-11-07 17:55:16.467077077
2025-11-07 17:55:14.585779,-125,2025-11-07 17:55:16.474769385
2025-11-07 17:55:15.164848,-118,2025-11-07 17:55:16.482461692
2025-11-07 17:55:15.164848,-25601,2025-11-07 17:55:16.490154000
2025-11-07 17:55:15.164848,-1,2025-11-07 17:55:16.497846308
2025-11-07 17:55:15.164848,-85,2025-11-07 17:55:16.505538615
2025-11-07 17:55:15.164848,-17153,2025-11-07 17:55:16.513230923
2025-11-07 17:55:15.164848,-1,2025-11-07 17:55:16.520923231
2025-11-07 17:55:15.164848,-52,2025-11-07 17:55:16.528615538
2025-11-07 17:55:15.164848,-8193,2025-11-07 17:55:16.536307846
2025-11-07 17:55:15.164848,-1,2025-11-07 17:55:16.544000154
2025-11-07 17:55:15.164848,-18,2025-11-07 17:55:16.551692462
2025-11-07 17:55:15.164848,-2561,2025-11-07 17:55:16.559384769
2025-11-07 17:55:15.164848,-1,2025-11-07 17:55:16.567077077
2025-11-07 17:55:15.164848,-28,2025-11-07 17:55:16.574769385
2025-11-07 17:55:15.164848,-14849,2025-11-07 17:55:16.582461692
2025-11-07 17:55:15.164848,-1,2025-11-07 17:55:16.590154000
2025-11-07 17:55:15.164848,-87,2025-11-07 17:55:16.597846308
2025-11-07 17:55:15.164848,-28161,2025-11-07 17:55:16.605538615
2025-11-07 17:55:15.164848,-1,2025-11-07 17:55:16.613230923
2025-11-07 17:55:15.164848,-127,2025-11-07 17:55:16.620923231
2025-11-07 17:55:15.164848,31487,2025-11-07 17:55:16.628615538
2025-11-07 17:55:15.164848,-1,2025-11-07 17:55:16.636307846
2025-11-07 17:55:15.164848,-134,2025-11-07 17:55:16.644000154
2025-11-07 17:55:15.164848,-31745,2025-11-07 17:55:16.651692462
2025-11-07 17:55:15.164848,-1,2025-11-07 17:55:16.659384769
2025-11-07 17:55:15.164848,-122,2025-11-07 17:55:16.667077077
2025-11-07 17:55:15.164848,-32257,2025-11-07 17:55:16.674769385
2025-11-07 17:55:15.164848,-1,2025-11-07 17:55:16.682461692
2025-11-07 17:55:15.164848,-125,2025-11-07 17:55:16.690154000
2025-11-07 17:55:15.164848,-30977,2025-11-07 17:55:16.697846308
2025-11-07 17:55:15.164848,-1,2025-11-07 17:55:16.705538615
2025-11-07 17:55:15.164848,-120,2025-11-07 17:55:16.713230923
2025-11-07 17:55:15.164848,-29185,2025-11-07 17:55:16.720923231
2025-11-07 17:55:15.164848,-1,2025-11-07 17:55:16.728615538
2025-11-07 17:55:15.164848,-111,2025-11-07 17:55:16.736307846
2025-11-07 17:55:15.164848,-28161,2025-11-07 17:55:16.744000154
2025-11-07 17:55:15.164848,-1,2025-11-07 17:55:16.751692462
2025-11-07 17:55:15.164848,-111,2025-11-07 17:55:16.759384769
2025-11-07 17:55:15.164848,-27393,2025-11-07 17:55:16.767077077
2025-11-07 17:55:15.164848,-1,2025-11-07 17:55:16.774769385
2025-11-07 17:55:15.164848,-104,2025-11-07 17:55:16.782461692
2025-11-07 17:55:15.164848,-25089,2025-11-07 17:55:16.790154000
2025-11-07 17:55:15.164848,-1,2025-11-07 17:55:16.797846308
2025-11-07 17:55:15.164848,-99,2025-11-07 17:55:16.805538615
2025-11-07 17:55:15.164848,-25089,2025-11-07 17:55:16.813230923
2025-11-07 17:55:15.164848,-1,2025-11-07 17:55:16.820923230
2025-11-07 17:55:15.164848,-96,2025-11-07 17:55:16.828615538
2025-11-07 17:55:15.164848,-23809,2025-11-07 17:55:16.836307846
2025-11-07 17:55:15.164848,-1,2025-11-07 17:55:16.844000154
2025-11-07 17:55:15.164848,-94,2025-11-07 17:55:16.851692462
2025-11-07 17:55:15.164848,-23297,2025-11-07 17:55:16.859384769
2025-11-07 17:55:15.164848,-1,2025-11-07 17:55:16.867077077
2025-11-07 17:55:15.164848,-94,2025-11-07 17:55:16.874769385
2025-11-07 17:55:15.164848,-23297,2025-11-07 17:55:16.882461692
2025-11-07 17:55:15.164848,-1,2025-11-07 17:55:16.890154000
2025-11-07 17:55:15.164848,-89,2025-11-07 17:55:16.897846308
2025-11-07 17:55:15.164848,-23297,2025-11-07 17:55:16.905538615
2025-11-07 17:55:15.164848,-1,2025-11-07 17:55:16.913230923
2025-11-07 17:55:15.164848,-92,2025-11-07 17:55:16.920923231
2025-11-07 17:55:15.164848,-23297,2025-11-07 17:55:16.928615538
2025-11-07 17:55:15.164848,-1,2025-11-07 17:55:16.936307846
2025-11-07 17:55:15.164848,-92,2025-11-07 17:55:16.944000154
2025-11-07 17:55:15.164848,-23297,2025-11-07 17:55:16.951692462
2025-11-07 17:55:15.164848,-1,2025-11-07 17:55:16.959384769
2025-11-07 17:55:15.164848,-92,2025-11-07 17:55:16.967077077
2025-11-07 17:55:15.164848,-23297,2025-11-07 17:55:16.974769385
2025-11-07 17:55:15.164848,-1,2025-11-07 17:55:16.982461692
2025-11-07 17:55:15.164848,-89,2025-11-07 17:55:16.990154000
2025-11-07 17:55:15.164848,-23297,2025-11-07 17:55:16.997846308
2025-11-07 17:55:15.164848,-1,2025-11-07 17:55:17.005538615
2025-11-07 17:55:15.164848,-92,2025-11-07 17:55:17.013230923
2025-11-07 17:55:15.164848,-22529,2025-11-07 17:55:17.020923231
2025-11-07 17:55:15.164848,-1,2025-11-07 17:55:17.028615538
2025-11-07 17:55:15.164848,-92,2025-11-07 17:55:17.036307846
2025-11-07 17:55:15.164848,-23297,2025-11-07 17:55:17.044000154
2025-11-07 17:55:15.164848,-1,2025-11-07 17:55:17.051692462
2025-11-07 17:55:15.164848,-89,2025-11-07 17:55:17.059384769
2025-11-07 17:55:15.164848,-22529,2025-11-07 17:55:17.067077077
2025-11-07 17:55:15.164848,-1,2025-11-07 17:55:17.074769385
2025-11-07 17:55:15.164848,-87,2025-11-07 17:55:17.082461692
2025-11-07 17:55:15.164848,-22017,2025-11-07 17:55:17.090154000
2025-11-07 17:55:15.164848,-1,2025-11-07 17:55:17.097846308
2025-11-07 17:55:15.164848,-89,2025-11-07 17:55:17.105538615
2025-11-07 17:55:15.164848,-22529,2025-11-07 17:55:17.113230923
2025-11-07 17:55:15.164848,-1,2025-11-07 17:55:17.120923231
2025-11-07 17:55:15.164848,-85,2025-11-07 17:55:17.128615538
2025-11-07 17:55:15.164848,-21505,2025-11-07 17:55:17.136307846
2025-11-07 17:55:15.164848,-1,2025-11-07 17:55:17.144000154
2025-11-07 17:55:15.164848,-87,2025-11-07 17:55:17.151692462
2025-11-07 17:55:15.164848,-22529,2025-11-07 17:55:17.159384769
2025-11-07 17:55:15.164848,-1,2025-11-07 17:55:17.167077077
2025-11-07 17:55:15.164848,-87,2025-11-07 17:55:17.174769385
2025-11-07 17:55:15.164848,-20737,2025-11-07 17:55:17.182461692
2025-11-07 17:55:15.164848,-1,2025-11-07 17:55:17.190154000
2025-11-07 17:55:15.164848,-82,2025-11-07 17:55:17.197846308
2025-11-07 17:55:15.164848,-21505,2025-11-07 17:55:17.205538615
2025-11-07 17:55:15.164848,-1,2025-11-07 17:55:17.213230923
2025-11-07 17:55:15.164848,-82,2025-11-07 17:55:17.220923231
2025-11-07 17:55:15.164848,-20737,2025-11-07 17:55:17.228615538
2025-11-07 17:55:15.164848,-1,2025-11-07 17:55:17.236307846
2025-11-07 17:55:15.164848,-85,2025-11-07 17:55:17.244000154
2025-11-07 17:55:15.164848,-20737,2025-11-07 17:55:17.251692462
2025-11-07 17:55:15.164848,-1,2025-11-07 17:55:17.259384769
2025-11-07 17:55:15.164848,-80,2025-11-07 17:55:17.267077077
2025-11-07 17:55:15.164848,-20737,2025-11-07 17:55:17.274769385
2025-11-07 17:55:15.164848,-1,2025-11-07 17:55:17.282461692
2025-11-07 17:55:15.164848,-82,2025-11-07 17:55:17.290154000
2025-11-07 17:55:15.164848,-19713,2025-11-07 17:55:17.297846308
2025-11-07 17:55:15.164848,-1,2025-11-07 17:55:17.305538615
2025-11-07 17:55:15.164848,-78,2025-11-07 17:55:17.313230923
2025-11-07 17:55:15.664256,-80,2025-11-07 17:55:17.320923231
2025-11-07 17:55:15.664256,-18945,2025-11-07 17:55:17.328615538
2025-11-07 17:55:15.664256,-1,2025-11-07 17:55:17.336307846
2025-11-07 17:55:15.664256,-73,2025-11-07 17:55:17.344000154
2025-11-07 17:55:15.664256,-18945,2025-11-07 17:55:17.351692462
2025-11-07 17:55:15.664256,-1,2025-11-07 17:55:17.359384769
2025-11-07 17:55:15.664256,-73,2025-11-07 17:55:17.367077077
2025-11-07 17:55:15.664256,-20225,2025-11-07 17:55:17.374769385
2025-11-07 17:55:15.664256,-1,2025-11-07 17:55:17.382461692
2025-11-07 17:55:15.664256,-101,2025-11-07 17:55:17.390154000
2025-11-07 17:55:15.664256,-30465,2025-11-07 17:55:17.397846308
2025-11-07 17:55:15.664256,-1,2025-11-07 17:55:17.405538615
2025-11-07 17:55:15.664256,-132,2025-11-07 17:55:17.413230923
2025-11-07 17:55:15.664256,30719,2025-11-07 17:55:17.420923231
2025-11-07 17:55:15.664256,-1,2025-11-07 17:55:17.428615538
2025-11-07 17:55:15.664256,-115,2025-11-07 17:55:17.436307846
2025-11-07 17:55:15.664256,-14849,2025-11-07 17:55:17.444000154
2025-11-07 17:55:15.664256,-1,2025-11-07 17:55:17.451692462
2025-11-07 17:55:15.664256,-21,2025-11-07 17:55:17.459384769
2025-11-07 17:55:15.664256,-7425,2025-11-07 17:55:17.467077077
2025-11-07 17:55:15.664256,-1,2025-11-07 17:55:17.474769385
2025-11-07 17:55:15.664256,-49,2025-11-07 17:55:17.482461692
2025-11-07 17:55:15.664256,-16641,2025-11-07 17:55:17.490154000
2025-11-07 17:55:15.664256,-1,2025-11-07 17:55:17.497846308
2025-11-07 17:55:15.664256,-70,2025-11-07 17:55:17.505538615
2025-11-07 17:55:15.664256,-14081,2025-11-07 17:55:17.513230923
2025-11-07 17:55:15.664256,-1,2025-11-07 17:55:17.520923231
2025-11-07 17:55:15.664256,-44,2025-11-07 17:55:17.528615538
2025-11-07 17:55:15.664256,-11777,2025-11-07 17:55:17.536307846
2025-11-07 17:55:15.664256,-1,2025-11-07 17:55:17.544000154
2025-11-07 17:55:15.664256,-61,2025-11-07 17:55:17.551692462
2025-11-07 17:55:15.664256,-29185,2025-11-07 17:55:17.559384769
2025-11-07 17:55:15.664256,-1,2025-11-07 17:55:17.567077077
2025-11-07 17:55:15.664256,-139,2025-11-07 17:55:17.574769385
2025-11-07 17:55:15.664256,4863,2025-11-07 17:55:17.582461692
2025-11-07 17:55:15.664256,1,2025-11-07 17:55:17.590154000
2025-11-07 17:55:15.664256,1257,2025-11-07 17:55:17.597846308
2025-11-07 17:55:15.664256,-19456,2025-11-07 17:55:17.605538615
2025-11-07 17:55:15.664256,6,2025-11-07 17:55:17.613230923
2025-11-07 17:55:15.664256,617,2025-11-07 17:55:17.620923231
2025-11-07 17:55:15.664256,-11008,2025-11-07 17:55:17.628615538
2025-11-07 17:55:15.664256,-3,2025-11-07 17:55:17.636307846
2025-11-07 17:55:15.664256,-238,2025-11-07 17:55:17.644000154
2025-11-07 17:55:15.664256,-21249,2025-11-07 17:55:17.651692462
2025-11-07 17:55:15.664256,0,2025-11-07 17:55:17.659384769
2025-11-07 17:55:15.664256,-167,2025-11-07 17:55:17.667077077
2025-11-07 17:55:15.664256,-3073,2025-11-07 17:55:17.674769385
2025-11-07 17:55:15.664256,-2,2025-11-07 17:55:17.682461692
2025-11-07 17:55:15.664256,-96,2025-11-07 17:55:17.690154000
2025-11-07 17:55:15.664256,28415,2025-11-07 17:55:17.697846308
2025-11-07 17:55:15.664256,-1,2025-11-07 17:55:17.705538615
2025-11-07 17:55:15.664256,-210,2025-11-07 17:55:17.713230923
2025-11-07 17:55:15.664256,27903,2025-11-07 17:55:17.720923231
2025-11-07 17:55:15.664256,-1,2025-11-07 17:55:17.728615538
2025-11-07 17:55:15.664256,-141,2025-11-07 17:55:17.736307846
2025-11-07 17:55:15.664256,23039,2025-11-07 17:55:17.744000154
2025-11-07 17:55:15.664256,-1,2025-11-07 17:55:17.751692462
2025-11-07 17:55:15.664256,-148,2025-11-07 17:55:17.759384769
2025-11-07 17:55:15.664256,31487,2025-11-07 17:55:17.767077077
2025-11-07 17:55:15.664256,-1,2025-11-07 17:55:17.774769385
2025-11-07 17:55:15.664256,-139,2025-11-07 17:55:17.782461692
2025-11-07 17:55:15.664256,31999,2025-11-07 17:55:17.790154000
2025-11-07 17:55:15.664256,-1,2025-11-07 17:55:17.797846308
2025-11-07 17:55:15.664256,-122,2025-11-07 17:55:17.805538615
2025-11-07 17:55:15.664256,-32257,2025-11-07 17:55:17.813230923
2025-11-07 17:55:15.664256,-1,2025-11-07 17:55:17.820923230
2025-11-07 17:55:15.664256,-125,2025-11-07 17:55:17.828615538
2025-11-07 17:55:15.664256,-29185,2025-11-07 17:55:17.836307846
2025-11-07 17:55:15.664256,-1,2025-11-07 17:55:17.844000154
2025-11-07 17:55:15.664256,-106,2025-11-07 17:55:17.851692462
2025-11-07 17:55:15.664256,-24321,2025-11-07 17:55:17.859384769
2025-11-07 17:55:15.664256,-1,2025-11-07 17:55:17.867077077
2025-11-07 17:55:15.664256,-96,2025-11-07 17:55:17.874769385
2025-11-07 17:55:15.664256,-25089,2025-11-07 17:55:17.882461692
2025-11-07 17:55:15.664256,-1,2025-11-07 17:55:17.890154000
2025-11-07 17:55:15.664256,-80,2025-11-07 17:55:17.897846308
2025-11-07 17:55:15.664256,-14849,2025-11-07 17:55:17.905538615
2025-11-07 17:55:15.664256,-1,2025-11-07 17:55:17.913230923
2025-11-07 17:55:15.664256,-47,2025-11-07 17:55:17.920923231
2025-11-07 17:55:15.664256,-8193,2025-11-07 17:55:17.928615538
2025-11-07 17:55:15.664256,-1,2025-11-07 17:55:17.936307846
2025-11-07 17:55:15.664256,-23,2025-11-07 17:55:17.944000154
2025-11-07 17:55:15.664256,-3329,2025-11-07 17:55:17.951692462
2025-11-07 17:55:15.664256,-1,2025-11-07 17:55:17.959384769
2025-11-07 17:55:15.664256,-2,2025-11-07 17:55:17.967077077
2025-11-07 17:55:15.664256,1279,2025-11-07 17:55:17.974769385
2025-11-07 17:55:15.664256,0,2025-11-07 17:55:17.982461692
2025-11-07 17:55:15.664256,-9,2025-11-07 17:55:17.990154000
2025-11-07 17:55:15.664256,-9985,2025-11-07 17:55:17.997846308
2025-11-07 17:55:15.664256,-1,2025-11-07 17:55:18.005538615
2025-11-07 17:55:15.664256,-78,2025-11-07 17:55:18.013230923
2025-11-07 17:55:15.664256,-26369,2025-11-07 17:55:18.020923231
2025-11-07 17:55:15.664256,-1,2025-11-07 17:55:18.028615538
2025-11-07 17:55:15.664256,-125,2025-11-07 17:55:18.036307846
2025-11-07 17:55:15.664256,30207,2025-11-07 17:55:18.044000154
2025-11-07 17:55:15.664256,-1,2025-11-07 17:55:18.051692462
2025-11-07 17:55:15.664256,-137,2025-11-07 17:55:18.059384769
2025-11-07 17:55:15.664256,31487,2025-11-07 17:55:18.067077077
2025-11-07 17:55:15.664256,-1,2025-11-07 17:55:18.074769385
2025-11-07 17:55:15.664256,-141,2025-11-07 17:55:18.082461692
2025-11-07 17:55:15.664256,28927,2025-11-07 17:55:18.090154000
2025-11-07 17:55:15.664256,-1,2025-11-07 17:55:18.097846308
2025-11-07 17:55:15.664256,-137,2025-11-07 17:55:18.105538615
2025-11-07 17:55:15.664256,31999,2025-11-07 17:55:18.113230923
2025-11-07 17:55:15.664256,-1,2025-11-07 17:55:18.120923231
2025-11-07 17:55:15.664256,-132,2025-11-07 17:55:18.128615538
2025-11-07 17:55:15.664256,32511,2025-11-07 17:55:18.136307846
2025-11-07 17:55:15.664256,-1,2025-11-07 17:55:18.144000154
2025-11-07 17:55:15.664256,-127,2025-11-07 17:55:18.151692462
2025-11-07 17:55:16.247049,-127,2025-11-07 17:55:18.159384769
2025-11-07 17:55:16.247049,-31745,2025-11-07 17:55:18.167077077
2025-11-07 17:55:16.247049,-1,2025-11-07 17:55:18.174769385
2025-11-07 17:55:16.247049,-115,2025-11-07 17:55:18.182461692
2025-11-07 17:55:16.247049,-27393,2025-11-07 17:55:18.190154000
2025-11-07 17:55:16.247049,-1,2025-11-07 17:55:18.197846308
2025-11-07 17:55:16.247049,-106,2025-11-07 17:55:18.205538615
2025-11-07 17:55:16.247049,-26369,2025-11-07 17:55:18.213230923
2025-11-07 17:55:16.247049,-1,2025-11-07 17:55:18.220923231
2025-11-07 17:55:16.247049,-106,2025-11-07 17:55:18.228615538
2025-11-07 17:55:16.247049,-26881,2025-11-07 17:55:18.236307846
2025-11-07 17:55:16.247049,-1,2025-11-07 17:55:18.244000154
2025-11-07 17:55:16.247049,-94,2025-11-07 17:55:18.251692462
2025-11-07 17:55:16.247049,-21505,2025-11-07 17:55:18.259384769
2025-11-07 17:55:16.247049,-1,2025-11-07 17:55:18.267077077
2025-11-07 17:55:16.247049,-82,2025-11-07 17:55:18.274769385
2025-11-07 17:55:16.247049,-20225,2025-11-07 17:55:18.282461692
2025-11-07 17:55:16.247049,-1,2025-11-07 17:55:18.290154000
2025-11-07 17:55:16.247049,-80,2025-11-07 17:55:18.297846308
2025-11-07 17:55:16.247049,-21505,2025-11-07 17:55:18.305538615
2025-11-07 17:55:16.247049,-1,2025-11-07 17:55:18.313230923
2025-11-07 17:55:16.247049,-82,2025-11-07 17:55:18.320923231
2025-11-07 17:55:16.247049,-19713,2025-11-07 17:55:18.328615538
2025-11-07 17:55:16.247049,-1,2025-11-07 17:55:18.336307846
2025-11-07 17:55:16.247049,-80,2025-11-07 17:55:18.344000154
2025-11-07 17:55:16.247049,-20737,2025-11-07 17:55:18.351692462
2025-11-07 17:55:16.247049,-1,2025-11-07 17:55:18.359384769
2025-11-07 17:55:16.247049,-82,2025-11-07 17:55:18.367077077
2025-11-07 17:55:16.247049,-21505,2025-11-07 17:55:18.374769385
2025-11-07 17:55:16.247049,-1,2025-11-07 17:55:18.382461692
2025-11-07 17:55:16.247049,-82,2025-11-07 17:55:18.390154000
2025-11-07 17:55:16.247049,-19713,2025-11-07 17:55:18.397846308
2025-11-07 17:55:16.247049,-1,2025-11-07 17:55:18.405538615
2025-11-07 17:55:16.247049,-80,2025-11-07 17:55:18.413230923
2025-11-07 17:55:16.247049,-22017,2025-11-07 17:55:18.420923231
2025-11-07 17:55:16.247049,-1,2025-11-07 17:55:18.428615538
2025-11-07 17:55:16.247049,-94,2025-11-07 17:55:18.436307846
2025-11-07 17:55:16.247049,-25089,2025-11-07 17:55:18.444000154
2025-11-07 17:55:16.247049,-1,2025-11-07 17:55:18.451692462
2025-11-07 17:55:16.247049,-94,2025-11-07 17:55:18.459384769
2025-11-07 17:55:16.247049,-20737,2025-11-07 17:55:18.467077077
2025-11-07 17:55:16.247049,-1,2025-11-07 17:55:18.474769385
2025-11-07 17:55:16.247049,-75,2025-11-07 17:55:18.482461692
2025-11-07 17:55:16.247049,-18945,2025-11-07 17:55:18.490154000
2025-11-07 17:55:16.247049,-1,2025-11-07 17:55:18.497846308
2025-11-07 17:55:16.247049,-75,2025-11-07 17:55:18.505538615
2025-11-07 17:55:16.247049,-18945,2025-11-07 17:55:18.513230923
2025-11-07 17:55:16.247049,-1,2025-11-07 17:55:18.520923231
2025-11-07 17:55:16.247049,-75,2025-11-07 17:55:18.528615538
2025-11-07 17:55:16.247049,-17665,2025-11-07 17:55:18.536307846
2025-11-07 17:55:16.247049,-1,2025-11-07 17:55:18.544000154
2025-11-07 17:55:16.247049,-68,2025-11-07 17:55:18.551692462
2025-11-07 17:55:16.247049,-18433,2025-11-07 17:55:18.559384769
2025-11-07 17:55:16.247049,-1,2025-11-07 17:55:18.567077077
2025-11-07 17:55:16.247049,-78,2025-11-07 17:55:18.574769385
2025-11-07 17:55:16.247049,-18433,2025-11-07 17:55:18.582461692
2025-11-07 17:55:16.247049,-1,2025-11-07 17:55:18.590154000
2025-11-07 17:55:16.247049,-66,2025-11-07 17:55:18.597846308
2025-11-07 17:55:16.247049,-17153,2025-11-07 17:55:18.605538615
2025-11-07 17:55:16.247049,-1,2025-11-07 17:55:18.613230923
2025-11-07 17:55:16.247049,-66,2025-11-07 17:55:18.620923231
2025-11-07 17:55:16.247049,-15873,2025-11-07 17:55:18.628615538
2025-11-07 17:55:16.247049,-1,2025-11-07 17:55:18.636307846
2025-11-07 17:55:16.247049,-63,2025-11-07 17:55:18.644000154
2025-11-07 17:55:16.247049,-14849,2025-11-07 17:55:18.651692462
2025-11-07 17:55:16.247049,-1,2025-11-07 17:55:18.659384769
2025-11-07 17:55:16.247049,-59,2025-11-07 17:55:18.667077077
2025-11-07 17:55:16.247049,-17665,2025-11-07 17:55:18.674769385
2025-11-07 17:55:16.247049,-1,2025-11-07 17:55:18.682461692
2025-11-07 17:55:16.247049,-92,2025-11-07 17:55:18.690154000
2025-11-07 17:55:16.247049,-29185,2025-11-07 17:55:18.697846308
2025-11-07 17:55:16.247049,-1,2025-11-07 17:55:18.705538615
2025-11-07 17:55:16.247049,-120,2025-11-07 17:55:18.713230923
2025-11-07 17:55:16.247049,-29185,2025-11-07 17:55:18.720923231
2025-11-07 17:55:16.247049,-1,2025-11-07 17:55:18.728615538
2025-11-07 17:55:16.247049,-106,2025-11-07 17:55:18.736307846
2025-11-07 17:55:16.247049,-17153,2025-11-07 17:55:18.744000154
2025-11-07 17:55:16.247049,-1,2025-11-07 17:55:18.751692462
2025-11-07 17:55:16.247049,-28,2025-11-07 17:55:18.759384769
2025-11-07 17:55:16.247049,-6401,2025-11-07 17:55:18.767077077
2025-11-07 17:55:16.247049,-1,2025-11-07 17:55:18.774769385
2025-11-07 17:55:16.247049,-49,2025-11-07 17:55:18.782461692
2025-11-07 17:55:16.247049,-16641,2025-11-07 17:55:18.790154000
2025-11-07 17:55:16.247049,-1,2025-11-07 17:55:18.797846308
2025-11-07 17:55:16.247049,-63,2025-11-07 17:55:18.805538615
2025-11-07 17:55:16.247049,-14081,2025-11-07 17:55:18.813230923
2025-11-07 17:55:16.247049,-1,2025-11-07 17:55:18.820923230
2025-11-07 17:55:16.247049,-52,2025-11-07 17:55:18.828615538
2025-11-07 17:55:16.247049,-11777,2025-11-07 17:55:18.836307846
2025-11-07 17:55:16.247049,-1,2025-11-07 17:55:18.844000154
2025-11-07 17:55:16.247049,-44,2025-11-07 17:55:18.851692462
2025-11-07 17:55:16.247049,-21505,2025-11-07 17:55:18.859384769
2025-11-07 17:55:16.247049,-1,2025-11-07 17:55:18.867077077
2025-11-07 17:55:16.247049,-141,2025-11-07 17:55:18.874769385
2025-11-07 17:55:16.247049,-32001,2025-11-07 17:55:18.882461692
2025-11-07 17:55:16.247049,0,2025-11-07 17:55:18.890154000
2025-11-07 17:55:16.247049,978,2025-11-07 17:55:18.897846308
2025-11-07 17:55:16.247049,-7936,2025-11-07 17:55:18.905538615
2025-11-07 17:55:16.247049,5,2025-11-07 17:55:18.913230923
2025-11-07 17:55:16.247049,567,2025-11-07 17:55:18.920923231
2025-11-07 17:55:16.247049,-25600,2025-11-07 17:55:18.928615538
2025-11-07 17:55:16.247049,-3,2025-11-07 17:55:18.936307846
2025-11-07 17:55:16.247049,-330,2025-11-07 17:55:18.944000154
2025-11-07 17:55:16.247049,-15873,2025-11-07 17:55:18.951692462
2025-11-07 17:55:16.247049,0,2025-11-07 17:55:18.959384769
2025-11-07 17:55:16.247049,-87,2025-11-07 17:55:18.967077077
2025-11-07 17:55:16.247049,4095,2025-11-07 17:55:18.974769385
2025-11-07 17:55:16.247049,-1,2025-11-07 17:55:18.982461692
2025-11-07 17:55:16.247049,-82,2025-11-07 17:55:18.990154000
2025-11-07 17:55:16.789044,-111,2025-11-07 17:55:18.997846308
2025-11-07 17:55:16.789044,19967,2025-11-07 17:55:19.005538615
2025-11-07 17:55:16.789044,-1,2025-11-07 17:55:19.013230923
2025-11-07 17:55:16.789044,-125,2025-11-07 17:55:19.020923231
2025-11-07 17:55:16.789044,-28161,2025-11-07 17:55:19.028615538
2025-11-07 17:55:16.789044,-1,2025-11-07 17:55:19.036307846
2025-11-07 17:55:16.789044,-141,2025-11-07 17:55:19.044000154
2025-11-07 17:55:16.789044,-32257,2025-11-07 17:55:19.051692462
2025-11-07 17:55:16.789044,-1,2025-11-07 17:55:19.059384769
2025-11-07 17:55:16.789044,-111,2025-11-07 17:55:19.067077077
2025-11-07 17:55:16.789044,-31745,2025-11-07 17:55:19.074769385
2025-11-07 17:55:16.789044,-1,2025-11-07 17:55:19.082461692
2025-11-07 17:55:16.789044,-125,2025-11-07 17:55:19.090154000
2025-11-07 17:55:16.789044,-27393,2025-11-07 17:55:19.097846308
2025-11-07 17:55:16.789044,-1,2025-11-07 17:55:19.105538615
2025-11-07 17:55:16.789044,-106,2025-11-07 17:55:19.113230923
2025-11-07 17:55:16.789044,-28673,2025-11-07 17:55:19.120923231
2025-11-07 17:55:16.789044,-1,2025-11-07 17:55:19.128615538
2025-11-07 17:55:16.789044,-101,2025-11-07 17:55:19.136307846
2025-11-07 17:55:16.789044,-22529,2025-11-07 17:55:19.144000154
2025-11-07 17:55:16.789044,-1,2025-11-07 17:55:19.151692462
2025-11-07 17:55:16.789044,-92,2025-11-07 17:55:19.159384769
2025-11-07 17:55:16.789044,-23809,2025-11-07 17:55:19.167077077
2025-11-07 17:55:16.789044,-1,2025-11-07 17:55:19.174769385
2025-11-07 17:55:16.789044,-87,2025-11-07 17:55:19.182461692
2025-11-07 17:55:16.789044,-21505,2025-11-07 17:55:19.190154000
2025-11-07 17:55:16.789044,-1,2025-11-07 17:55:19.197846308
2025-11-07 17:55:16.789044,-78,2025-11-07 17:55:19.205538615
2025-11-07 17:55:16.789044,-11777,2025-11-07 17:55:19.213230923
2025-11-07 17:55:16.789044,-1,2025-11-07 17:55:19.220923231
2025-11-07 17:55:16.789044,-23,2025-11-07 17:55:19.228615538
2025-11-07 17:55:16.789044,-3329,2025-11-07 17:55:19.236307846
2025-11-07 17:55:16.789044,-1,2025-11-07 17:55:19.244000154
2025-11-07 17:55:16.789044,-9,2025-11-07 17:55:19.251692462
2025-11-07 17:55:16.789044,255,2025-11-07 17:55:19.259384769
2025-11-07 17:55:16.789044,0,2025-11-07 17:55:19.267077077
2025-11-07 17:55:16.789044,4,2025-11-07 17:55:19.274769385
2025-11-07 17:55:16.789044,-2816,2025-11-07 17:55:19.282461692
2025-11-07 17:55:16.789044,-1,2025-11-07 17:55:19.290154000
2025-11-07 17:55:16.789044,-52,2025-11-07 17:55:19.297846308
2025-11-07 17:55:16.789044,-23297,2025-11-07 17:55:19.305538615
2025-11-07 17:55:16.789044,-1,2025-11-07 17:55:19.313230923
2025-11-07 17:55:16.789044,-120,2025-11-07 17:55:19.320923231
2025-11-07 17:55:16.789044,31999,2025-11-07 17:55:19.328615538
2025-11-07 17:55:16.789044,-1,2025-11-07 17:55:19.336307846
2025-11-07 17:55:16.789044,-141,2025-11-07 17:55:19.344000154
2025-11-07 17:55:16.789044,27135,2025-11-07 17:55:19.351692462
2025-11-07 17:55:16.789044,-1,2025-11-07 17:55:19.359384769
2025-11-07 17:55:16.789044,-158,2025-11-07 17:55:19.367077077
2025-11-07 17:55:16.789044,25855,2025-11-07 17:55:19.374769385
2025-11-07 17:55:16.789044,-1,2025-11-07 17:55:19.382461692
2025-11-07 17:55:16.789044,-148,2025-11-07 17:55:19.390154000
2025-11-07 17:55:16.789044,28415,2025-11-07 17:55:19.397846308
2025-11-07 17:55:16.789044,-1,2025-11-07 17:55:19.405538615
2025-11-07 17:55:16.789044,-146,2025-11-07 17:55:19.413230923
2025-11-07 17:55:16.789044,30207,2025-11-07 17:55:19.420923231
2025-11-07 17:55:16.789044,-1,2025-11-07 17:55:19.428615538
2025-11-07 17:55:16.789044,-134,2025-11-07 17:55:19.436307846
2025-11-07 17:55:16.789044,30719,2025-11-07 17:55:19.444000154
2025-11-07 17:55:16.789044,-1,2025-11-07 17:55:19.451692462
2025-11-07 17:55:16.789044,-134,2025-11-07 17:55:19.459384769
2025-11-07 17:55:16.789044,-29953,2025-11-07 17:55:19.467077077
2025-11-07 17:55:16.789044,-1,2025-11-07 17:55:19.474769385
2025-11-07 17:55:16.789044,-108,2025-11-07 17:55:19.482461692
2025-11-07 17:55:16.789044,-28161,2025-11-07 17:55:19.490154000
2025-11-07 17:55:16.789044,-1,2025-11-07 17:55:19.497846308
2025-11-07 17:55:16.789044,-111,2025-11-07 17:55:19.505538615
2025-11-07 17:55:16.789044,-26369,2025-11-07 17:55:19.513230923
2025-11-07 17:55:16.789044,-1,2025-11-07 17:55:19.520923231
2025-11-07 17:55:16.789044,-92,2025-11-07 17:55:19.528615538
2025-11-07 17:55:16.789044,-22529,2025-11-07 17:55:19.536307846
2025-11-07 17:55:16.789044,-1,2025-11-07 17:55:19.544000154
2025-11-07 17:55:16.789044,-87,2025-11-07 17:55:19.551692462
2025-11-07 17:55:16.789044,-20225,2025-11-07 17:55:19.559384769
2025-11-07 17:55:16.789044,-1,2025-11-07 17:55:19.567077077
2025-11-07 17:55:16.789044,-75,2025-11-07 17:55:19.574769385
2025-11-07 17:55:16.789044,-17665,2025-11-07 17:55:19.582461692
2025-11-07 17:55:16.789044,-1,2025-11-07 17:55:19.590154000
2025-11-07 17:55:16.789044,-66,2025-11-07 17:55:19.597846308
2025-11-07 17:55:16.789044,-15361,2025-11-07 17:55:19.605538615
2025-11-07 17:55:16.789044,-1,2025-11-07 17:55:19.613230923
2025-11-07 17:55:16.789044,-63,2025-11-07 17:55:19.620923231
2025-11-07 17:55:16.789044,-17153,2025-11-07 17:55:19.628615538
2025-11-07 17:55:16.789044,-1,2025-11-07 17:55:19.636307846
2025-11-07 17:55:16.789044,-68,2025-11-07 17:55:19.644000154
2025-11-07 17:55:16.789044,-17153,2025-11-07 17:55:19.651692462
2025-11-07 17:55:16.789044,-1,2025-11-07 17:55:19.659384769
2025-11-07 17:55:16.789044,-68,2025-11-07 17:55:19.667077077
2025-11-07 17:55:16.789044,-17153,2025-11-07 17:55:19.674769385
2025-11-07 17:55:16.789044,-1,2025-11-07 17:55:19.682461692
2025-11-07 17:55:16.789044,-66,2025-11-07 17:55:19.690154000
2025-11-07 17:55:16.789044,-15873,2025-11-07 17:55:19.697846308
2025-11-07 17:55:16.789044,-1,2025-11-07 17:55:19.705538615
2025-11-07 17:55:16.789044,-66,2025-11-07 17:55:19.713230923
2025-11-07 17:55:16.789044,-17153,2025-11-07 17:55:19.720923231
2025-11-07 17:55:16.789044,-1,2025-11-07 17:55:19.728615538
2025-11-07 17:55:16.789044,-66,2025-11-07 17:55:19.736307846
2025-11-07 17:55:16.789044,-16641,2025-11-07 17:55:19.744000154
2025-11-07 17:55:16.789044,-1,2025-11-07 17:55:19.751692462
2025-11-07 17:55:16.789044,-68,2025-11-07 17:55:19.759384769
2025-11-07 17:55:16.789044,-15873,2025-11-07 17:55:19.767077077
2025-11-07 17:55:16.789044,-1,2025-11-07 17:55:19.774769385
2025-11-07 17:55:16.789044,-63,2025-11-07 17:55:19.782461692
2025-11-07 17:55:16.789044,-16641,2025-11-07 17:55:19.790154000
2025-11-07 17:55:16.789044,-1,2025-11-07 17:55:19.797846308
2025-11-07 17:55:16.789044,-66,2025-11-07 17:55:19.805538615
2025-11-07 17:55:16.789044,-14849,2025-11-07 17:55:19.813230923
2025-11-07 17:55:16.789044,-1,2025-11-07 17:55:19.820923230
2025-11-07 17:55:16.789044,-59,2025-11-07 17:55:19.828615538
2025-11-07 17:55:17.329668,-59,2025-11-07 17:55:19.836307846
2025-11-07 17:55:17.329668,-14081,2025-11-07 17:55:19.844000154
2025-11-07 17:55:17.329668,-1,2025-11-07 17:55:19.851692462
2025-11-07 17:55:17.329668,-61,2025-11-07 17:55:19.859384769
2025-11-07 17:55:17.329668,-15873,2025-11-07 17:55:19.867077077
2025-11-07 17:55:17.329668,-1,2025-11-07 17:55:19.874769385
2025-11-07 17:55:17.329668,-61,2025-11-07 17:55:19.882461692
2025-11-07 17:55:17.329668,-12289,2025-11-07 17:55:19.890154000
2025-11-07 17:55:17.329668,-1,2025-11-07 17:55:19.897846308
2025-11-07 17:55:17.329668,-49,2025-11-07 17:55:19.905538615
2025-11-07 17:55:17.329668,-17665,2025-11-07 17:55:19.913230923
2025-11-07 17:55:17.329668,-1,2025-11-07 17:55:19.920923231
2025-11-07 17:55:17.329668,-96,2025-11-07 17:55:19.928615538
2025-11-07 17:55:17.329668,-26881,2025-11-07 17:55:19.936307846
2025-11-07 17:55:17.329668,-1,2025-11-07 17:55:19.944000154
2025-11-07 17:55:17.329668,-104,2025-11-07 17:55:19.951692462
2025-11-07 17:55:17.329668,-25089,2025-11-07 17:55:19.959384769
2025-11-07 17:55:17.329668,-1,2025-11-07 17:55:19.967077077
2025-11-07 17:55:17.329668,-75,2025-11-07 17:55:19.974769385
2025-11-07 17:55:17.329668,-7425,2025-11-07 17:55:19.982461692
2025-11-07 17:55:17.329668,-1,2025-11-07 17:55:19.990154000
2025-11-07 17:55:17.329668,-4,2025-11-07 17:55:19.997846308
2025-11-07 17:55:17.329668,-5121,2025-11-07 17:55:20.005538615
2025-11-07 17:55:17.329668,-1,2025-11-07 17:55:20.013230923
2025-11-07 17:55:17.329668,-47,2025-11-07 17:55:20.020923231
2025-11-07 17:55:17.329668,-11009,2025-11-07 17:55:20.028615538
2025-11-07 17:55:17.329668,-1,2025-11-07 17:55:20.036307846
2025-11-07 17:55:17.329668,-33,2025-11-07 17:55:20.044000154
2025-11-07 17:55:17.329668,-8193,2025-11-07 17:55:20.051692462
2025-11-07 17:55:17.329668,-1,2025-11-07 17:55:20.059384769
2025-11-07 17:55:17.329668,-33,2025-11-07 17:55:20.067077077
2025-11-07 17:55:17.329668,-8193,2025-11-07 17:55:20.074769385
2025-11-07 17:55:17.329668,-1,2025-11-07 17:55:20.082461692
2025-11-07 17:55:17.329668,-70,2025-11-07 17:55:20.090154000
2025-11-07 17:55:17.329668,31999,2025-11-07 17:55:20.097846308
2025-11-07 17:55:17.329668,-1,2025-11-07 17:55:20.105538615
2025-11-07 17:55:17.329668,85,2025-11-07 17:55:20.113230923
2025-11-07 17:55:17.329668,-30464,2025-11-07 17:55:20.120923231
2025-11-07 17:55:17.329668,3,2025-11-07 17:55:20.128615538
2025-11-07 17:55:17.329668,1647,2025-11-07 17:55:20.136307846
2025-11-07 17:55:17.329668,-9984,2025-11-07 17:55:20.144000154
2025-11-07 17:55:17.329668,3,2025-11-07 17:55:20.151692462
2025-11-07 17:55:17.329668,-326,2025-11-07 17:55:20.159384769
2025-11-07 17:55:17.329668,-19969,2025-11-07 17:55:20.167077077
2025-11-07 17:55:17.329668,-2,2025-11-07 17:55:20.174769385
2025-11-07 17:55:17.329668,203,2025-11-07 17:55:20.182461692
2025-11-07 17:55:17.329668,-3584,2025-11-07 17:55:20.190154000
2025-11-07 17:55:17.329668,-1,2025-11-07 17:55:20.197846308
2025-11-07 17:55:17.329668,-229,2025-11-07 17:55:20.205538615
2025-11-07 17:55:17.329668,-20737,2025-11-07 17:55:20.213230923
2025-11-07 17:55:17.329668,-1,2025-11-07 17:55:20.220923231
2025-11-07 17:55:17.329668,-106,2025-11-07 17:55:20.228615538
2025-11-07 17:55:17.329668,16895,2025-11-07 17:55:20.236307846
2025-11-07 17:55:17.329668,-1,2025-11-07 17:55:20.244000154
2025-11-07 17:55:17.329668,-127,2025-11-07 17:55:20.251692462
2025-11-07 17:55:17.329668,-24321,2025-11-07 17:55:20.259384769
2025-11-07 17:55:17.329668,-1,2025-11-07 17:55:20.267077077
2025-11-07 17:55:17.329668,-127,2025-11-07 17:55:20.274769385
2025-11-07 17:55:17.329668,-27393,2025-11-07 17:55:20.282461692
2025-11-07 17:55:17.329668,-1,2025-11-07 17:55:20.290154000
2025-11-07 17:55:17.329668,-82,2025-11-07 17:55:20.297846308
2025-11-07 17:55:17.329668,-23809,2025-11-07 17:55:20.305538615
2025-11-07 17:55:17.329668,-1,2025-11-07 17:55:20.313230923
2025-11-07 17:55:17.329668,-99,2025-11-07 17:55:20.320923231
2025-11-07 17:55:17.329668,-20737,2025-11-07 17:55:20.328615538
2025-11-07 17:55:17.329668,-1,2025-11-07 17:55:20.336307846
2025-11-07 17:55:17.329668,-75,2025-11-07 17:55:20.344000154
2025-11-07 17:55:17.329668,-18433,2025-11-07 17:55:20.351692462
2025-11-07 17:55:17.329668,-1,2025-11-07 17:55:20.359384769
2025-11-07 17:55:17.329668,-66,2025-11-07 17:55:20.367077077
2025-11-07 17:55:17.329668,-15873,2025-11-07 17:55:20.374769385
2025-11-07 17:55:17.329668,-1,2025-11-07 17:55:20.382461692
2025-11-07 17:55:17.329668,-63,2025-11-07 17:55:20.390154000
2025-11-07 17:55:17.329668,-15361,2025-11-07 17:55:20.397846308
2025-11-07 17:55:17.329668,-1,2025-11-07 17:55:20.405538615
2025-11-07 17:55:17.329668,-59,2025-11-07 17:55:20.413230923
2025-11-07 17:55:17.329668,-12289,2025-11-07 17:55:20.420923231
2025-11-07 17:55:17.329668,-1,2025-11-07 17:55:20.428615538
2025-11-07 17:55:17.329668,-37,2025-11-07 17:55:20.436307846
2025-11-07 17:55:17.329668,-5121,2025-11-07 17:55:20.444000154
2025-11-07 17:55:17.329668,-1,2025-11-07 17:55:20.451692462
2025-11-07 17:55:17.329668,0,2025-11-07 17:55:20.459384769
2025-11-07 17:55:17.329668,3584,2025-11-07 17:55:20.467077077
2025-11-07 17:55:17.329668,0,2025-11-07 17:55:20.474769385
2025-11-07 17:55:17.329668,21,2025-11-07 17:55:20.482461692
2025-11-07 17:55:17.329668,8960,2025-11-07 17:55:20.490154000
2025-11-07 17:55:17.329668,0,2025-11-07 17:55:20.497846308
2025-11-07 17:55:17.329668,52,2025-11-07 17:55:20.505538615
2025-11-07 17:55:17.329668,10752,2025-11-07 17:55:20.513230923
2025-11-07 17:55:17.329668,0,2025-11-07 17:55:20.520923231
2025-11-07 17:55:17.329668,4,2025-11-07 17:55:20.528615538
2025-11-07 17:55:17.329668,-10240,2025-11-07 17:55:20.536307846
2025-11-07 17:55:17.329668,-1,2025-11-07 17:55:20.544000154
2025-11-07 17:55:17.329668,-66,2025-11-07 17:55:20.551692462
2025-11-07 17:55:17.329668,-20225,2025-11-07 17:55:20.559384769
2025-11-07 17:55:17.329668,-1,2025-11-07 17:55:20.567077077
2025-11-07 17:55:17.329668,-89,2025-11-07 17:55:20.574769385
2025-11-07 17:55:17.329668,-25089,2025-11-07 17:55:20.582461692
2025-11-07 17:55:17.329668,-1,2025-11-07 17:55:20.590154000
2025-11-07 17:55:17.329668,-101,2025-11-07 17:55:20.597846308
2025-11-07 17:55:17.329668,-25601,2025-11-07 17:55:20.605538615
2025-11-07 17:55:17.329668,-1,2025-11-07 17:55:20.613230923
2025-11-07 17:55:17.329668,-99,2025-11-07 17:55:20.620923231
2025-11-07 17:55:17.329668,-26369,2025-11-07 17:55:20.628615538
2025-11-07 17:55:17.329668,-1,2025-11-07 17:55:20.636307846
2025-11-07 17:55:17.329668,-108,2025-11-07 17:55:20.644000154
2025-11-07 17:55:17.329668,-26369,2025-11-07 17:55:20.651692462
2025-11-07 17:55:17.329668,-1,2025-11-07 17:55:20.659384769
2025-11-07 17:55:17.329668,-99,2025-11-07 17:55:20.667077077
2025-11-07 17:55:17.867049,-99,2025-11-07 17:55:20.674769385
2025-11-07 17:55:17.867049,-24321,2025-11-07 17:55:20.682461692
2025-11-07 17:55:17.867049,-1,2025-11-07 17:55:20.690154000
2025-11-07 17:55:17.867049,-94,2025-11-07 17:55:20.697846308
2025-11-07 17:55:17.867049,-23809,2025-11-07 17:55:20.705538615
2025-11-07 17:55:17.867049,-1,2025-11-07 17:55:20.713230923
2025-11-07 17:55:17.867049,-92,2025-11-07 17:55:20.720923231
2025-11-07 17:55:17.867049,-22529,2025-11-07 17:55:20.728615538
2025-11-07 17:55:17.867049,-1,2025-11-07 17:55:20.736307846
2025-11-07 17:55:17.867049,-80,2025-11-07 17:55:20.744000154
2025-11-07 17:55:17.867049,-16641,2025-11-07 17:55:20.751692462
2025-11-07 17:55:17.867049,-1,2025-11-07 17:55:20.759384769
2025-11-07 17:55:17.867049,-61,2025-11-07 17:55:20.767077077
2025-11-07 17:55:17.867049,-17153,2025-11-07 17:55:20.774769385
2025-11-07 17:55:17.867049,-1,2025-11-07 17:55:20.782461692
2025-11-07 17:55:17.867049,-68,2025-11-07 17:55:20.790154000
2025-11-07 17:55:17.867049,-16641,2025-11-07 17:55:20.797846308
2025-11-07 17:55:17.867049,-1,2025-11-07 17:55:20.805538615
2025-11-07 17:55:17.867049,-63,2025-11-07 17:55:20.813230923
2025-11-07 17:55:17.867049,-15873,2025-11-07 17:55:20.820923230
2025-11-07 17:55:17.867049,-1,2025-11-07 17:55:20.828615538
2025-11-07 17:55:17.867049,-66,2025-11-07 17:55:20.836307846
2025-11-07 17:55:17.867049,-16641,2025-11-07 17:55:20.844000154
2025-11-07 17:55:17.867049,-1,2025-11-07 17:55:20.851692462
2025-11-07 17:55:17.867049,-66,2025-11-07 17:55:20.859384769
2025-11-07 17:55:17.867049,-17665,2025-11-07 17:55:20.867077077
2025-11-07 17:55:17.867049,-1,2025-11-07 17:55:20.874769385
2025-11-07 17:55:17.867049,-75,2025-11-07 17:55:20.882461692
2025-11-07 17:55:17.867049,-18433,2025-11-07 17:55:20.890154000
2025-11-07 17:55:17.867049,-1,2025-11-07 17:55:20.897846308
2025-11-07 17:55:17.867049,-75,2025-11-07 17:55:20.905538615
2025-11-07 17:55:17.867049,-20225,2025-11-07 17:55:20.913230923
2025-11-07 17:55:17.867049,-1,2025-11-07 17:55:20.920923231
2025-11-07 17:55:17.867049,-80,2025-11-07 17:55:20.928615538
2025-11-07 17:55:17.867049,-19713,2025-11-07 17:55:20.936307846
2025-11-07 17:55:17.867049,-1,2025-11-07 17:55:20.944000154
2025-11-07 17:55:17.867049,-78,2025-11-07 17:55:20.951692462
2025-11-07 17:55:17.867049,-19713,2025-11-07 17:55:20.959384769
2025-11-07 17:55:17.867049,-1,2025-11-07 17:55:20.967077077
2025-11-07 17:55:17.867049,-80,2025-11-07 17:55:20.974769385
2025-11-07 17:55:17.867049,-20225,2025-11-07 17:55:20.982461692
2025-11-07 17:55:17.867049,-1,2025-11-07 17:55:20.990154000
2025-11-07 17:55:17.867049,-80,2025-11-07 17:55:20.997846308
2025-11-07 17:55:17.867049,-20737,2025-11-07 17:55:21.005538615
2025-11-07 17:55:17.867049,-1,2025-11-07 17:55:21.013230923
2025-11-07 17:55:17.867049,-80,2025-11-07 17:55:21.020923231
2025-11-07 17:55:17.867049,-20225,2025-11-07 17:55:21.028615538
2025-11-07 17:55:17.867049,-1,2025-11-07 17:55:21.036307846
2025-11-07 17:55:17.867049,-85,2025-11-07 17:55:21.044000154
2025-11-07 17:55:17.867049,-22017,2025-11-07 17:55:21.051692462
2025-11-07 17:55:17.867049,-1,2025-11-07 17:55:21.059384769
2025-11-07 17:55:17.867049,-85,2025-11-07 17:55:21.067077077
2025-11-07 17:55:17.867049,-21505,2025-11-07 17:55:21.074769385
2025-11-07 17:55:17.867049,-1,2025-11-07 17:55:21.082461692
2025-11-07 17:55:17.867049,-87,2025-11-07 17:55:21.090154000
2025-11-07 17:55:17.867049,-22529,2025-11-07 17:55:21.097846308
2025-11-07 17:55:17.867049,-1,2025-11-07 17:55:21.105538615
2025-11-07 17:55:17.867049,-85,2025-11-07 17:55:21.113230923
2025-11-07 17:55:17.867049,-20737,2025-11-07 17:55:21.120923231
2025-11-07 17:55:17.867049,-1,2025-11-07 17:55:21.128615538
2025-11-07 17:55:17.867049,-80,2025-11-07 17:55:21.136307846
2025-11-07 17:55:17.867049,-20225,2025-11-07 17:55:21.144000154
2025-11-07 17:55:17.867049,-1,2025-11-07 17:55:21.151692462
2025-11-07 17:55:17.867049,-75,2025-11-07 17:55:21.159384769
2025-11-07 17:55:17.867049,-22017,2025-11-07 17:55:21.167077077
2025-11-07 17:55:17.867049,-1,2025-11-07 17:55:21.174769385
2025-11-07 17:55:17.867049,-113,2025-11-07 17:55:21.182461692
2025-11-07 17:55:17.867049,31487,2025-11-07 17:55:21.190154000
2025-11-07 17:55:17.867049,-1,2025-11-07 17:55:21.197846308
2025-11-07 17:55:17.867049,-141,2025-11-07 17:55:21.205538615
2025-11-07 17:55:17.867049,29695,2025-11-07 17:55:21.213230923
2025-11-07 17:55:17.867049,-1,2025-11-07 17:55:21.220923231
2025-11-07 17:55:17.867049,-130,2025-11-07 17:55:21.228615538
2025-11-07 17:55:17.867049,-25089,2025-11-07 17:55:21.236307846
2025-11-07 17:55:17.867049,-1,2025-11-07 17:55:21.244000154
2025-11-07 17:55:17.867049,-70,2025-11-07 17:55:21.251692462
2025-11-07 17:55:17.867049,-19713,2025-11-07 17:55:21.259384769
2025-11-07 17:55:17.867049,-1,2025-11-07 17:55:21.267077077
2025-11-07 17:55:17.867049,-106,2025-11-07 17:55:21.274769385
2025-11-07 17:55:17.867049,-29953,2025-11-07 17:55:21.282461692
2025-11-07 17:55:17.867049,-1,2025-11-07 17:55:21.290154000
2025-11-07 17:55:17.867049,-111,2025-11-07 17:55:21.297846308
2025-11-07 17:55:17.867049,-27393,2025-11-07 17:55:21.305538615
2025-11-07 17:55:17.867049,-1,2025-11-07 17:55:21.313230923
2025-11-07 17:55:17.867049,-113,2025-11-07 17:55:21.320923231
2025-11-07 17:55:17.867049,-28161,2025-11-07 17:55:21.328615538
2025-11-07 17:55:17.867049,-1,2025-11-07 17:55:21.336307846
2025-11-07 17:55:17.867049,-130,2025-11-07 17:55:21.344000154
2025-11-07 17:55:17.867049,15103,2025-11-07 17:55:21.351692462
2025-11-07 17:55:17.867049,-1,2025-11-07 17:55:21.359384769
2025-11-07 17:55:17.867049,-130,2025-11-07 17:55:21.367077077
2025-11-07 17:55:17.867049,-5633,2025-11-07 17:55:21.374769385
2025-11-07 17:55:17.867049,1,2025-11-07 17:55:21.382461692
2025-11-07 17:55:17.867049,1423,2025-11-07 17:55:21.390154000
2025-11-07 17:55:17.867049,6144,2025-11-07 17:55:21.397846308
2025-11-07 17:55:17.867049,5,2025-11-07 17:55:21.405538615
2025-11-07 17:55:17.867049,-61,2025-11-07 17:55:21.413230923
2025-11-07 17:55:17.867049,32255,2025-11-07 17:55:21.420923231
2025-11-07 17:55:17.867049,-3,2025-11-07 17:55:21.428615538
2025-11-07 17:55:17.867049,-56,2025-11-07 17:55:21.436307846
2025-11-07 17:55:17.867049,6143,2025-11-07 17:55:21.444000154
2025-11-07 17:55:17.867049,0,2025-11-07 17:55:21.451692462
2025-11-07 17:55:17.867049,-326,2025-11-07 17:55:21.459384769
2025-11-07 17:55:17.867049,-769,2025-11-07 17:55:21.467077077
2025-11-07 17:55:17.867049,-2,2025-11-07 17:55:21.474769385
2025-11-07 17:55:17.867049,-151,2025-11-07 17:55:21.482461692
2025-11-07 17:55:17.867049,4095,2025-11-07 17:55:21.490154000
2025-11-07 17:55:17.867049,-1,2025-11-07 17:55:21.497846308
2025-11-07 17:55:17.867049,-248,2025-11-07 17:55:21.505538615
2025-11-07 17:55:18.454423,-198,2025-11-07 17:55:21.513230923
2025-11-07 17:55:18.454423,11519,2025-11-07 17:55:21.520923231
2025-11-07 17:55:18.454423,-1,2025-11-07 17:55:21.528615538
2025-11-07 17:55:18.454423,-219,2025-11-07 17:55:21.536307846
2025-11-07 17:55:18.454423,15615,2025-11-07 17:55:21.544000154
2025-11-07 17:55:18.454423,-1,2025-11-07 17:55:21.551692462
2025-11-07 17:55:18.454423,-186,2025-11-07 17:55:21.559384769
2025-11-07 17:55:18.454423,18687,2025-11-07 17:55:21.567077077
2025-11-07 17:55:18.454423,-1,2025-11-07 17:55:21.574769385
2025-11-07 17:55:18.454423,-174,2025-11-07 17:55:21.582461692
2025-11-07 17:55:18.454423,21759,2025-11-07 17:55:21.590154000
2025-11-07 17:55:18.454423,-1,2025-11-07 17:55:21.597846308
2025-11-07 17:55:18.454423,-167,2025-11-07 17:55:21.605538615
2025-11-07 17:55:18.454423,24831,2025-11-07 17:55:21.613230923
2025-11-07 17:55:18.454423,-1,2025-11-07 17:55:21.620923231
2025-11-07 17:55:18.454423,-156,2025-11-07 17:55:21.628615538
2025-11-07 17:55:18.454423,26623,2025-11-07 17:55:21.636307846
2025-11-07 17:55:18.454423,-1,2025-11-07 17:55:21.644000154
2025-11-07 17:55:18.454423,-148,2025-11-07 17:55:21.651692462
2025-11-07 17:55:18.454423,29695,2025-11-07 17:55:21.659384769
2025-11-07 17:55:18.454423,-1,2025-11-07 17:55:21.667077077
2025-11-07 17:55:18.454423,-130,2025-11-07 17:55:21.674769385
2025-11-07 17:55:18.454423,-28161,2025-11-07 17:55:21.682461692
2025-11-07 17:55:18.454423,-1,2025-11-07 17:55:21.690154000
2025-11-07 17:55:18.454423,-89,2025-11-07 17:55:21.697846308
2025-11-07 17:55:18.454423,-18433,2025-11-07 17:55:21.705538615
2025-11-07 17:55:18.454423,-1,2025-11-07 17:55:21.713230923
2025-11-07 17:55:18.454423,-59,2025-11-07 17:55:21.720923231
2025-11-07 17:55:18.454423,-10497,2025-11-07 17:55:21.728615538
2025-11-07 17:55:18.454423,-1,2025-11-07 17:55:21.736307846
2025-11-07 17:55:18.454423,-30,2025-11-07 17:55:21.744000154
2025-11-07 17:55:18.454423,-6401,2025-11-07 17:55:21.751692462
2025-11-07 17:55:18.454423,-1,2025-11-07 17:55:21.759384769
2025-11-07 17:55:18.454423,-33,2025-11-07 17:55:21.767077077
2025-11-07 17:55:18.454423,-17153,2025-11-07 17:55:21.774769385
2025-11-07 17:55:18.454423,-1,2025-11-07 17:55:21.782461692
2025-11-07 17:55:18.454423,-115,2025-11-07 17:55:21.790154000
2025-11-07 17:55:18.454423,26623,2025-11-07 17:55:21.797846308
2025-11-07 17:55:18.454423,-1,2025-11-07 17:55:21.805538615
2025-11-07 17:55:18.454423,-174,2025-11-07 17:55:21.813230923
2025-11-07 17:55:18.454423,16895,2025-11-07 17:55:21.820923230
2025-11-07 17:55:18.454423,-1,2025-11-07 17:55:21.828615538
2025-11-07 17:55:18.454423,-198,2025-11-07 17:55:21.836307846
2025-11-07 17:55:18.454423,14591,2025-11-07 17:55:21.844000154
2025-11-07 17:55:18.454423,-1,2025-11-07 17:55:21.851692462
2025-11-07 17:55:18.454423,-200,2025-11-07 17:55:21.859384769
2025-11-07 17:55:18.454423,14591,2025-11-07 17:55:21.867077077
2025-11-07 17:55:18.454423,-1,2025-11-07 17:55:21.874769385
2025-11-07 17:55:18.454423,-196,2025-11-07 17:55:21.882461692
2025-11-07 17:55:18.454423,16383,2025-11-07 17:55:21.890154000
2025-11-07 17:55:18.454423,-1,2025-11-07 17:55:21.897846308
2025-11-07 17:55:18.454423,-193,2025-11-07 17:55:21.905538615
2025-11-07 17:55:18.454423,18175,2025-11-07 17:55:21.913230923
2025-11-07 17:55:18.454423,-1,2025-11-07 17:55:21.920923231
2025-11-07 17:55:18.454423,-182,2025-11-07 17:55:21.928615538
2025-11-07 17:55:18.454423,19967,2025-11-07 17:55:21.936307846
2025-11-07 17:55:18.454423,-1,2025-11-07 17:55:21.944000154
2025-11-07 17:55:18.454423,-179,2025-11-07 17:55:21.951692462
2025-11-07 17:55:18.454423,21759,2025-11-07 17:55:21.959384769
2025-11-07 17:55:18.454423,-1,2025-11-07 17:55:21.967077077
2025-11-07 17:55:18.454423,-170,2025-11-07 17:55:21.974769385
2025-11-07 17:55:18.454423,23039,2025-11-07 17:55:21.982461692
2025-11-07 17:55:18.454423,-1,2025-11-07 17:55:21.990154000
2025-11-07 17:55:18.454423,-160,2025-11-07 17:55:21.997846308
2025-11-07 17:55:18.454423,25855,2025-11-07 17:55:22.005538615
2025-11-07 17:55:18.454423,-1,2025-11-07 17:55:22.013230923
2025-11-07 17:55:18.454423,-153,2025-11-07 17:55:22.020923231
2025-11-07 17:55:18.454423,27903,2025-11-07 17:55:22.028615538
2025-11-07 17:55:18.454423,-1,2025-11-07 17:55:22.036307846
2025-11-07 17:55:18.454423,-148,2025-11-07 17:55:22.044000154
2025-11-07 17:55:18.454423,28415,2025-11-07 17:55:22.051692462
2025-11-07 17:55:18.454423,-1,2025-11-07 17:55:22.059384769
2025-11-07 17:55:18.454423,-144,2025-11-07 17:55:22.067077077
2025-11-07 17:55:18.454423,28927,2025-11-07 17:55:22.074769385
2025-11-07 17:55:18.454423,-1,2025-11-07 17:55:22.082461692
2025-11-07 17:55:18.454423,-144,2025-11-07 17:55:22.090154000
2025-11-07 17:55:18.454423,28927,2025-11-07 17:55:22.097846308
2025-11-07 17:55:18.454423,-1,2025-11-07 17:55:22.105538615
2025-11-07 17:55:18.454423,-141,2025-11-07 17:55:22.113230923
2025-11-07 17:55:18.454423,28927,2025-11-07 17:55:22.120923231
2025-11-07 17:55:18.454423,-1,2025-11-07 17:55:22.128615538
2025-11-07 17:55:18.454423,-146,2025-11-07 17:55:22.136307846
2025-11-07 17:55:18.454423,28415,2025-11-07 17:55:22.144000154
2025-11-07 17:55:18.454423,-1,2025-11-07 17:55:22.151692462
2025-11-07 17:55:18.454423,-148,2025-11-07 17:55:22.159384769
2025-11-07 17:55:18.454423,27135,2025-11-07 17:55:22.167077077
2025-11-07 17:55:18.454423,-1,2025-11-07 17:55:22.174769385
2025-11-07 17:55:18.454423,-151,2025-11-07 17:55:22.182461692
2025-11-07 17:55:18.454423,28415,2025-11-07 17:55:22.190154000
2025-11-07 17:55:18.454423,-1,2025-11-07 17:55:22.197846308
2025-11-07 17:55:18.454423,-146,2025-11-07 17:55:22.205538615
2025-11-07 17:55:18.454423,28415,2025-11-07 17:55:22.213230923
2025-11-07 17:55:18.454423,-1,2025-11-07 17:55:22.220923231
2025-11-07 17:55:18.454423,-146,2025-11-07 17:55:22.228615538
2025-11-07 17:55:18.454423,28927,2025-11-07 17:55:22.236307846
2025-11-07 17:55:18.454423,-1,2025-11-07 17:55:22.244000154
2025-11-07 17:55:18.454423,-141,2025-11-07 17:55:22.251692462
2025-11-07 17:55:18.454423,29695,2025-11-07 17:55:22.259384769
2025-11-07 17:55:18.454423,-1,2025-11-07 17:55:22.267077077
2025-11-07 17:55:18.454423,-144,2025-11-07 17:55:22.274769385
2025-11-07 17:55:18.454423,28927,2025-11-07 17:55:22.282461692
2025-11-07 17:55:18.454423,-1,2025-11-07 17:55:22.290154000
2025-11-07 17:55:18.454423,-139,2025-11-07 17:55:22.297846308
2025-11-07 17:55:18.454423,30207,2025-11-07 17:55:22.305538615
2025-11-07 17:55:18.454423,-1,2025-11-07 17:55:22.313230923
2025-11-07 17:55:18.454423,-139,2025-11-07 17:55:22.320923231
2025-11-07 17:55:18.454423,31487,2025-11-07 17:55:22.328615538
2025-11-07 17:55:18.454423,-1,2025-11-07 17:55:22.336307846
2025-11-07 17:55:18.454423,-132,2025-11-07 17:55:22.344000154
2025-11-07 17:55:19.039665,-134,2025-11-07 17:55:22.351692462
2025-11-07 17:55:19.039665,31487,2025-11-07 17:55:22.359384769
2025-11-07 17:55:19.039665,-1,2025-11-07 17:55:22.367077077
2025-11-07 17:55:19.039665,-130,2025-11-07 17:55:22.374769385
2025-11-07 17:55:19.039665,-32257,2025-11-07 17:55:22.382461692
2025-11-07 17:55:19.039665,-1,2025-11-07 17:55:22.390154000
2025-11-07 17:55:19.039665,-125,2025-11-07 17:55:22.397846308
2025-11-07 17:55:19.039665,-30977,2025-11-07 17:55:22.405538615
2025-11-07 17:55:19.039665,-1,2025-11-07 17:55:22.413230923
2025-11-07 17:55:19.039665,-115,2025-11-07 17:55:22.420923231
2025-11-07 17:55:19.039665,-27393,2025-11-07 17:55:22.428615538
2025-11-07 17:55:19.039665,-1,2025-11-07 17:55:22.436307846
2025-11-07 17:55:19.039665,-108,2025-11-07 17:55:22.444000154
2025-11-07 17:55:19.039665,-30977,2025-11-07 17:55:22.451692462
2025-11-07 17:55:19.039665,-1,2025-11-07 17:55:22.459384769
2025-11-07 17:55:19.039665,-144,2025-11-07 17:55:22.467077077
2025-11-07 17:55:19.039665,27135,2025-11-07 17:55:22.474769385
2025-11-07 17:55:19.039665,-1,2025-11-07 17:55:22.482461692
2025-11-07 17:55:19.039665,-144,2025-11-07 17:55:22.490154000
2025-11-07 17:55:19.039665,31999,2025-11-07 17:55:22.497846308
2025-11-07 17:55:19.039665,-1,2025-11-07 17:55:22.505538615
2025-11-07 17:55:19.039665,-99,2025-11-07 17:55:22.513230923
2025-11-07 17:55:19.039665,-16641,2025-11-07 17:55:22.520923231
2025-11-07 17:55:19.039665,-1,2025-11-07 17:55:22.528615538
2025-11-07 17:55:19.039665,-68,2025-11-07 17:55:22.536307846
2025-11-07 17:55:19.039665,-24321,2025-11-07 17:55:22.544000154
2025-11-07 17:55:19.039665,-1,2025-11-07 17:55:22.551692462
2025-11-07 17:55:19.039665,-106,2025-11-07 17:55:22.559384769
2025-11-07 17:55:19.039665,-23297,2025-11-07 17:55:22.567077077
2025-11-07 17:55:19.039665,-1,2025-11-07 17:55:22.574769385
2025-11-07 17:55:19.039665,-85,2025-11-07 17:55:22.582461692
2025-11-07 17:55:19.039665,-21505,2025-11-07 17:55:22.590154000
2025-11-07 17:55:19.039665,-1,2025-11-07 17:55:22.597846308
2025-11-07 17:55:19.039665,-85,2025-11-07 17:55:22.605538615
2025-11-07 17:55:19.039665,-24321,2025-11-07 17:55:22.613230923
2025-11-07 17:55:19.039665,-1,2025-11-07 17:55:22.620923231
2025-11-07 17:55:19.039665,-160,2025-11-07 17:55:22.628615538
2025-11-07 17:55:19.039665,-28161,2025-11-07 17:55:22.636307846
2025-11-07 17:55:19.039665,-1,2025-11-07 17:55:22.644000154
2025-11-07 17:55:19.039665,470,2025-11-07 17:55:22.651692462
2025-11-07 17:55:19.039665,-28416,2025-11-07 17:55:22.659384769
2025-11-07 17:55:19.039665,5,2025-11-07 17:55:22.667077077
2025-11-07 17:55:19.039665,1378,2025-11-07 17:55:22.674769385
2025-11-07 17:55:19.039665,-5888,2025-11-07 17:55:22.682461692
2025-11-07 17:55:19.039665,-1,2025-11-07 17:55:22.690154000
2025-11-07 17:55:19.039665,-709,2025-11-07 17:55:22.697846308
2025-11-07 17:55:19.039665,-18433,2025-11-07 17:55:22.705538615
2025-11-07 17:55:19.039665,-1,2025-11-07 17:55:22.713230923
2025-11-07 17:55:19.039665,104,2025-11-07 17:55:22.720923231
2025-11-07 17:55:19.039665,1024,2025-11-07 17:55:22.728615538
2025-11-07 17:55:19.039665,-1,2025-11-07 17:55:22.736307846
2025-11-07 17:55:19.039665,-210,2025-11-07 17:55:22.744000154
2025-11-07 17:55:19.039665,-22529,2025-11-07 17:55:22.751692462
2025-11-07 17:55:19.039665,-1,2025-11-07 17:55:22.759384769
2025-11-07 17:55:19.039665,-182,2025-11-07 17:55:22.767077077
2025-11-07 17:55:19.039665,16895,2025-11-07 17:55:22.774769385
2025-11-07 17:55:19.039665,-1,2025-11-07 17:55:22.782461692
2025-11-07 17:55:19.039665,-132,2025-11-07 17:55:22.790154000
2025-11-07 17:55:19.039665,28415,2025-11-07 17:55:22.797846308
2025-11-07 17:55:19.039665,-1,2025-11-07 17:55:22.805538615
2025-11-07 17:55:19.039665,-160,2025-11-07 17:55:22.813230923
2025-11-07 17:55:19.039665,30719,2025-11-07 17:55:22.820923230
2025-11-07 17:55:19.039665,-1,2025-11-07 17:55:22.828615538
2025-11-07 17:55:19.039665,-132,2025-11-07 17:55:22.836307846
2025-11-07 17:55:19.039665,30719,2025-11-07 17:55:22.844000154
2025-11-07 17:55:19.039665,-1,2025-11-07 17:55:22.851692462
2025-11-07 17:55:19.039665,-130,2025-11-07 17:55:22.859384769
2025-11-07 17:55:19.039665,-30465,2025-11-07 17:55:22.867077077
2025-11-07 17:55:19.039665,-1,2025-11-07 17:55:22.874769385
2025-11-07 17:55:19.039665,-118,2025-11-07 17:55:22.882461692
2025-11-07 17:55:19.039665,-29185,2025-11-07 17:55:22.890154000
2025-11-07 17:55:19.039665,-1,2025-11-07 17:55:22.897846308
2025-11-07 17:55:19.039665,-106,2025-11-07 17:55:22.905538615
2025-11-07 17:55:19.039665,-25089,2025-11-07 17:55:22.913230923
2025-11-07 17:55:19.039665,-1,2025-11-07 17:55:22.920923231
2025-11-07 17:55:19.039665,-89,2025-11-07 17:55:22.928615538
2025-11-07 17:55:19.039665,-20225,2025-11-07 17:55:22.936307846
2025-11-07 17:55:19.039665,-1,2025-11-07 17:55:22.944000154
2025-11-07 17:55:19.039665,-73,2025-11-07 17:55:22.951692462
2025-11-07 17:55:19.039665,-14849,2025-11-07 17:55:22.959384769
2025-11-07 17:55:19.039665,-1,2025-11-07 17:55:22.967077077
2025-11-07 17:55:19.039665,-42,2025-11-07 17:55:22.974769385
2025-11-07 17:55:19.039665,-5121,2025-11-07 17:55:22.982461692
2025-11-07 17:55:19.039665,-1,2025-11-07 17:55:22.990154000
2025-11-07 17:55:19.039665,-7,2025-11-07 17:55:22.997846308
2025-11-07 17:55:19.039665,1279,2025-11-07 17:55:23.005538615
2025-11-07 17:55:19.039665,0,2025-11-07 17:55:23.013230923
2025-11-07 17:55:19.039665,11,2025-11-07 17:55:23.020923231
2025-11-07 17:55:19.039665,3584,2025-11-07 17:55:23.028615538
2025-11-07 17:55:19.039665,0,2025-11-07 17:55:23.036307846
2025-11-07 17:55:19.039665,0,2025-11-07 17:55:23.044000154
2025-11-07 17:55:19.039665,-9472,2025-11-07 17:55:23.051692462
2025-11-07 17:55:19.039665,-1,2025-11-07 17:55:23.059384769
2025-11-07 17:55:19.039665,-85,2025-11-07 17:55:23.067077077
2025-11-07 17:55:19.039665,-31745,2025-11-07 17:55:23.074769385
2025-11-07 17:55:19.039665,-1,2025-11-07 17:55:23.082461692
2025-11-07 17:55:19.039665,-146,2025-11-07 17:55:23.090154000
2025-11-07 17:55:19.039665,25343,2025-11-07 17:55:23.097846308
2025-11-07 17:55:19.039665,-1,2025-11-07 17:55:23.105538615
2025-11-07 17:55:19.039665,-172,2025-11-07 17:55:23.113230923
2025-11-07 17:55:19.039665,20479,2025-11-07 17:55:23.120923231
2025-11-07 17:55:19.039665,-1,2025-11-07 17:55:23.128615538
2025-11-07 17:55:19.039665,-174,2025-11-07 17:55:23.136307846
2025-11-07 17:55:19.039665,21759,2025-11-07 17:55:23.144000154
2025-11-07 17:55:19.039665,-1,2025-11-07 17:55:23.151692462
2025-11-07 17:55:19.039665,-172,2025-11-07 17:55:23.159384769
2025-11-07 17:55:19.039665,23039,2025-11-07 17:55:23.167077077
2025-11-07 17:55:19.039665,-1,2025-11-07 17:55:23.174769385
2025-11-07 17:55:19.039665,-165,2025-11-07 17:55:23.182461692
2025-11-07 17:55:19.579403,-163,2025-11-07 17:55:23.190154000
2025-11-07 17:55:19.579403,25343,2025-11-07 17:55:23.197846308
2025-11-07 17:55:19.579403,-1,2025-11-07 17:55:23.205538615
2025-11-07 17:55:19.579403,-156,2025-11-07 17:55:23.213230923
2025-11-07 17:55:19.579403,26623,2025-11-07 17:55:23.220923231
2025-11-07 17:55:19.579403,-1,2025-11-07 17:55:23.228615538
2025-11-07 17:55:19.579403,-146,2025-11-07 17:55:23.236307846
2025-11-07 17:55:19.579403,30719,2025-11-07 17:55:23.244000154
2025-11-07 17:55:19.579403,-1,2025-11-07 17:55:23.251692462
2025-11-07 17:55:19.579403,-132,2025-11-07 17:55:23.259384769
2025-11-07 17:55:19.579403,32511,2025-11-07 17:55:23.267077077
2025-11-07 17:55:19.579403,-1,2025-11-07 17:55:23.274769385
2025-11-07 17:55:19.579403,-127,2025-11-07 17:55:23.282461692
2025-11-07 17:55:19.579403,-31745,2025-11-07 17:55:23.290154000
2025-11-07 17:55:19.579403,-1,2025-11-07 17:55:23.297846308
2025-11-07 17:55:19.579403,-115,2025-11-07 17:55:23.305538615
2025-11-07 17:55:19.579403,-25601,2025-11-07 17:55:23.313230923
2025-11-07 17:55:19.579403,-1,2025-11-07 17:55:23.320923231
2025-11-07 17:55:19.579403,-96,2025-11-07 17:55:23.328615538
2025-11-07 17:55:19.579403,-25601,2025-11-07 17:55:23.336307846
2025-11-07 17:55:19.579403,-1,2025-11-07 17:55:23.344000154
2025-11-07 17:55:19.579403,-104,2025-11-07 17:55:23.351692462
2025-11-07 17:55:19.579403,-26369,2025-11-07 17:55:23.359384769
2025-11-07 17:55:19.579403,-1,2025-11-07 17:55:23.367077077
2025-11-07 17:55:19.579403,-101,2025-11-07 17:55:23.374769385
2025-11-07 17:55:19.579403,-24321,2025-11-07 17:55:23.382461692
2025-11-07 17:55:19.579403,-1,2025-11-07 17:55:23.390154000
2025-11-07 17:55:19.579403,-96,2025-11-07 17:55:23.397846308
2025-11-07 17:55:19.579403,-25601,2025-11-07 17:55:23.405538615
2025-11-07 17:55:19.579403,-1,2025-11-07 17:55:23.413230923
2025-11-07 17:55:19.579403,-99,2025-11-07 17:55:23.420923231
2025-11-07 17:55:19.579403,-24321,2025-11-07 17:55:23.428615538
2025-11-07 17:55:19.579403,-1,2025-11-07 17:55:23.436307846
2025-11-07 17:55:19.579403,-99,2025-11-07 17:55:23.444000154
2025-11-07 17:55:19.579403,-25601,2025-11-07 17:55:23.451692462
2025-11-07 17:55:19.579403,-1,2025-11-07 17:55:23.459384769
2025-11-07 17:55:19.579403,-101,2025-11-07 17:55:23.467077077
2025-11-07 17:55:19.579403,-25089,2025-11-07 17:55:23.474769385
2025-11-07 17:55:19.579403,-1,2025-11-07 17:55:23.482461692
2025-11-07 17:55:19.579403,-96,2025-11-07 17:55:23.490154000
2025-11-07 17:55:19.579403,-25089,2025-11-07 17:55:23.497846308
2025-11-07 17:55:19.579403,-1,2025-11-07 17:55:23.505538615
2025-11-07 17:55:19.579403,-101,2025-11-07 17:55:23.513230923
2025-11-07 17:55:19.579403,-25089,2025-11-07 17:55:23.520923231
2025-11-07 17:55:19.579403,-1,2025-11-07 17:55:23.528615538
2025-11-07 17:55:19.579403,-96,2025-11-07 17:55:23.536307846
2025-11-07 17:55:19.579403,-25089,2025-11-07 17:55:23.544000154
2025-11-07 17:55:19.579403,-1,2025-11-07 17:55:23.551692462
2025-11-07 17:55:19.579403,-99,2025-11-07 17:55:23.559384769
2025-11-07 17:55:19.579403,-23297,2025-11-07 17:55:23.567077077
2025-11-07 17:55:19.579403,-1,2025-11-07 17:55:23.574769385
2025-11-07 17:55:19.579403,-92,2025-11-07 17:55:23.582461692
2025-11-07 17:55:19.579403,-26369,2025-11-07 17:55:23.590154000
2025-11-07 17:55:19.579403,-1,2025-11-07 17:55:23.597846308
2025-11-07 17:55:19.579403,-120,2025-11-07 17:55:23.605538615
2025-11-07 17:55:19.579403,31487,2025-11-07 17:55:23.613230923
2025-11-07 17:55:19.579403,-1,2025-11-07 17:55:23.620923231
2025-11-07 17:55:19.579403,-139,2025-11-07 17:55:23.628615538
2025-11-07 17:55:19.579403,30207,2025-11-07 17:55:23.636307846
2025-11-07 17:55:19.579403,-1,2025-11-07 17:55:23.644000154
2025-11-07 17:55:19.579403,-125,2025-11-07 17:55:23.651692462
2025-11-07 17:55:19.579403,-22017,2025-11-07 17:55:23.659384769
2025-11-07 17:55:19.579403,-1,2025-11-07 17:55:23.667077077
2025-11-07 17:55:19.579403,-63,2025-11-07 17:55:23.674769385
2025-11-07 17:55:19.579403,-18433,2025-11-07 17:55:23.682461692
2025-11-07 17:55:19.579403,-1,2025-11-07 17:55:23.690154000
2025-11-07 17:55:19.579403,-87,2025-11-07 17:55:23.697846308
2025-11-07 17:55:19.579403,-22017,2025-11-07 17:55:23.705538615
2025-11-07 17:55:19.579403,-1,2025-11-07 17:55:23.713230923
2025-11-07 17:55:19.579403,-80,2025-11-07 17:55:23.720923231
2025-11-07 17:55:19.579403,-18945,2025-11-07 17:55:23.728615538
2025-11-07 17:55:19.579403,-1,2025-11-07 17:55:23.736307846
2025-11-07 17:55:19.579403,-73,2025-11-07 17:55:23.744000154
2025-11-07 17:55:19.579403,-17665,2025-11-07 17:55:23.751692462
2025-11-07 17:55:19.579403,-1,2025-11-07 17:55:23.759384769
2025-11-07 17:55:19.579403,-96,2025-11-07 17:55:23.767077077
2025-11-07 17:55:19.579403,23551,2025-11-07 17:55:23.774769385
2025-11-07 17:55:19.579403,-1,2025-11-07 17:55:23.782461692
2025-11-07 17:55:19.579403,33,2025-11-07 17:55:23.790154000
2025-11-07 17:55:19.579403,25344,2025-11-07 17:55:23.797846308
2025-11-07 17:55:19.579403,3,2025-11-07 17:55:23.805538615
2025-11-07 17:55:19.579403,1654,2025-11-07 17:55:23.813230923
2025-11-07 17:55:19.579403,-12800,2025-11-07 17:55:23.820923230
2025-11-07 17:55:19.579403,3,2025-11-07 17:55:23.828615538
2025-11-07 17:55:19.579403,-484,2025-11-07 17:55:23.836307846
2025-11-07 17:55:19.579403,-9473,2025-11-07 17:55:23.844000154
2025-11-07 17:55:19.579403,-3,2025-11-07 17:55:23.851692462
2025-11-07 17:55:19.579403,115,2025-11-07 17:55:23.859384769
2025-11-07 17:55:19.579403,-7168,2025-11-07 17:55:23.867077077
2025-11-07 17:55:19.579403,-1,2025-11-07 17:55:23.874769385
2025-11-07 17:55:19.579403,-278,2025-11-07 17:55:23.882461692
2025-11-07 17:55:19.579403,-29953,2025-11-07 17:55:23.890154000
2025-11-07 17:55:19.579403,-1,2025-11-07 17:55:23.897846308
2025-11-07 17:55:19.579403,-82,2025-11-07 17:55:23.905538615
2025-11-07 17:55:19.579403,23039,2025-11-07 17:55:23.913230923
2025-11-07 17:55:19.579403,-1,2025-11-07 17:55:23.920923231
2025-11-07 17:55:19.579403,-139,2025-11-07 17:55:23.928615538
2025-11-07 17:55:19.579403,-28673,2025-11-07 17:55:23.936307846
2025-11-07 17:55:19.579403,-1,2025-11-07 17:55:23.944000154
2025-11-07 17:55:19.579403,-130,2025-11-07 17:55:23.951692462
2025-11-07 17:55:19.579403,-29953,2025-11-07 17:55:23.959384769
2025-11-07 17:55:19.579403,-1,2025-11-07 17:55:23.967077077
2025-11-07 17:55:19.579403,-104,2025-11-07 17:55:23.974769385
2025-11-07 17:55:19.579403,-26881,2025-11-07 17:55:23.982461692
2025-11-07 17:55:19.579403,-1,2025-11-07 17:55:23.990154000
2025-11-07 17:55:19.579403,-104,2025-11-07 17:55:23.997846308
2025-11-07 17:55:19.579403,-23809,2025-11-07 17:55:24.005538615
2025-11-07 17:55:19.579403,-1,2025-11-07 17:55:24.013230923
2025-11-07 17:55:19.579403,-89,2025-11-07 17:55:24.020923231
2025-11-07 17:55:20.209654,-85,2025-11-07 17:55:24.028615538
2025-11-07 17:55:20.209654,-19713,2025-11-07 17:55:24.036307846
2025-11-07 17:55:20.209654,-1,2025-11-07 17:55:24.044000154
2025-11-07 17:55:20.209654,-73,2025-11-07 17:55:24.051692462
2025-11-07 17:55:20.209654,-17153,2025-11-07 17:55:24.059384769
2025-11-07 17:55:20.209654,-1,2025-11-07 17:55:24.067077077
2025-11-07 17:55:20.209654,-61,2025-11-07 17:55:24.074769385
2025-11-07 17:55:20.209654,-12289,2025-11-07 17:55:24.082461692
2025-11-07 17:55:20.209654,-1,2025-11-07 17:55:24.090154000
2025-11-07 17:55:20.209654,-37,2025-11-07 17:55:24.097846308
2025-11-07 17:55:20.209654,-3841,2025-11-07 17:55:24.105538615
2025-11-07 17:55:20.209654,-1,2025-11-07 17:55:24.113230923
2025-11-07 17:55:20.209654,14,2025-11-07 17:55:24.120923231
2025-11-07 17:55:20.209654,8960,2025-11-07 17:55:24.128615538
2025-11-07 17:55:20.209654,0,2025-11-07 17:55:24.136307846
2025-11-07 17:55:20.209654,42,2025-11-07 17:55:24.144000154
2025-11-07 17:55:20.209654,12032,2025-11-07 17:55:24.151692462
2025-11-07 17:55:20.209654,0,2025-11-07 17:55:24.159384769
2025-11-07 17:55:20.209654,49,2025-11-07 17:55:24.167077077
2025-11-07 17:55:20.209654,10240,2025-11-07 17:55:24.174769385
2025-11-07 17:55:20.209654,0,2025-11-07 17:55:24.182461692
2025-11-07 17:55:20.209654,4,2025-11-07 17:55:24.190154000
2025-11-07 17:55:20.209654,-11264,2025-11-07 17:55:24.197846308
2025-11-07 17:55:20.209654,-1,2025-11-07 17:55:24.205538615
2025-11-07 17:55:20.209654,-89,2025-11-07 17:55:24.213230923
2025-11-07 17:55:20.209654,-30977,2025-11-07 17:55:24.220923231
2025-11-07 17:55:20.209654,-1,2025-11-07 17:55:24.228615538
2025-11-07 17:55:20.209654,-141,2025-11-07 17:55:24.236307846
2025-11-07 17:55:20.209654,26623,2025-11-07 17:55:24.244000154
2025-11-07 17:55:20.209654,-1,2025-11-07 17:55:24.251692462
2025-11-07 17:55:20.209654,-156,2025-11-07 17:55:24.259384769
2025-11-07 17:55:20.209654,25343,2025-11-07 17:55:24.267077077
2025-11-07 17:55:20.209654,-1,2025-11-07 17:55:24.274769385
2025-11-07 17:55:20.209654,-160,2025-11-07 17:55:24.282461692
2025-11-07 17:55:20.209654,25343,2025-11-07 17:55:24.290154000
2025-11-07 17:55:20.209654,-1,2025-11-07 17:55:24.297846308
2025-11-07 17:55:20.209654,-153,2025-11-07 17:55:24.305538615
2025-11-07 17:55:20.209654,27135,2025-11-07 17:55:24.313230923
2025-11-07 17:55:20.209654,-1,2025-11-07 17:55:24.320923231
2025-11-07 17:55:20.209654,-146,2025-11-07 17:55:24.328615538
2025-11-07 17:55:20.209654,29695,2025-11-07 17:55:24.336307846
2025-11-07 17:55:20.209654,-1,2025-11-07 17:55:24.344000154
2025-11-07 17:55:20.209654,-137,2025-11-07 17:55:24.351692462
2025-11-07 17:55:20.209654,31487,2025-11-07 17:55:24.359384769
2025-11-07 17:55:20.209654,-1,2025-11-07 17:55:24.367077077
2025-11-07 17:55:20.209654,-122,2025-11-07 17:55:24.374769385
2025-11-07 17:55:20.209654,-29185,2025-11-07 17:55:24.382461692
2025-11-07 17:55:20.209654,-1,2025-11-07 17:55:24.390154000
2025-11-07 17:55:20.209654,-115,2025-11-07 17:55:24.397846308
2025-11-07 17:55:20.209654,-28673,2025-11-07 17:55:24.405538615
2025-11-07 17:55:20.209654,-1,2025-11-07 17:55:24.413230923
2025-11-07 17:55:20.209654,-106,2025-11-07 17:55:24.420923231
2025-11-07 17:55:20.209654,-25089,2025-11-07 17:55:24.428615538
2025-11-07 17:55:20.209654,-1,2025-11-07 17:55:24.436307846
2025-11-07 17:55:20.209654,-94,2025-11-07 17:55:24.444000154
2025-11-07 17:55:20.209654,-22529,2025-11-07 17:55:24.451692462
2025-11-07 17:55:20.209654,-1,2025-11-07 17:55:24.459384769
2025-11-07 17:55:20.209654,-87,2025-11-07 17:55:24.467077077
2025-11-07 17:55:20.209654,-21505,2025-11-07 17:55:24.474769385
2025-11-07 17:55:20.209654,-1,2025-11-07 17:55:24.482461692
2025-11-07 17:55:20.209654,-85,2025-11-07 17:55:24.490154000
2025-11-07 17:55:20.209654,-21505,2025-11-07 17:55:24.497846308
2025-11-07 17:55:20.209654,-1,2025-11-07 17:55:24.505538615
2025-11-07 17:55:20.209654,-85,2025-11-07 17:55:24.513230923
2025-11-07 17:55:20.209654,-20737,2025-11-07 17:55:24.520923231
2025-11-07 17:55:20.209654,-1,2025-11-07 17:55:24.528615538
2025-11-07 17:55:20.209654,-80,2025-11-07 17:55:24.536307846
2025-11-07 17:55:20.209654,-20225,2025-11-07 17:55:24.544000154
2025-11-07 17:55:20.209654,-1,2025-11-07 17:55:24.551692462
2025-11-07 17:55:20.209654,-82,2025-11-07 17:55:24.559384769
2025-11-07 17:55:20.209654,-20737,2025-11-07 17:55:24.567077077
2025-11-07 17:55:20.209654,-1,2025-11-07 17:55:24.574769385
2025-11-07 17:55:20.209654,-80,2025-11-07 17:55:24.582461692
2025-11-07 17:55:20.209654,-19713,2025-11-07 17:55:24.590154000
2025-11-07 17:55:20.209654,-1,2025-11-07 17:55:24.597846308
2025-11-07 17:55:20.209654,-73,2025-11-07 17:55:24.605538615
2025-11-07 17:55:20.209654,-17665,2025-11-07 17:55:24.613230923
2025-11-07 17:55:20.209654,-1,2025-11-07 17:55:24.620923231
2025-11-07 17:55:20.209654,-68,2025-11-07 17:55:24.628615538
2025-11-07 17:55:20.209654,-16641,2025-11-07 17:55:24.636307846
2025-11-07 17:55:20.209654,-1,2025-11-07 17:55:24.644000154
2025-11-07 17:55:20.209654,-63,2025-11-07 17:55:24.651692462
2025-11-07 17:55:20.209654,-14081,2025-11-07 17:55:24.659384769
2025-11-07 17:55:20.209654,-1,2025-11-07 17:55:24.667077077
2025-11-07 17:55:20.209654,-54,2025-11-07 17:55:24.674769385
2025-11-07 17:55:20.209654,-15361,2025-11-07 17:55:24.682461692
2025-11-07 17:55:20.209654,-1,2025-11-07 17:55:24.690154000
2025-11-07 17:55:20.209654,-78,2025-11-07 17:55:24.697846308
2025-11-07 17:55:20.209654,-23809,2025-11-07 17:55:24.705538615
2025-11-07 17:55:20.209654,-1,2025-11-07 17:55:24.713230923
2025-11-07 17:55:20.209654,-99,2025-11-07 17:55:24.720923231
2025-11-07 17:55:20.209654,-22529,2025-11-07 17:55:24.728615538
2025-11-07 17:55:20.209654,-1,2025-11-07 17:55:24.736307846
2025-11-07 17:55:20.209654,-82,2025-11-07 17:55:24.744000154
2025-11-07 17:55:20.209654,-14849,2025-11-07 17:55:24.751692462
2025-11-07 17:55:20.209654,-1,2025-11-07 17:55:24.759384769
2025-11-07 17:55:20.209654,-21,2025-11-07 17:55:24.767077077
2025-11-07 17:55:20.209654,-3329,2025-11-07 17:55:24.774769385
2025-11-07 17:55:20.209654,-1,2025-11-07 17:55:24.782461692
2025-11-07 17:55:20.209654,-33,2025-11-07 17:55:24.790154000
2025-11-07 17:55:20.209654,-9217,2025-11-07 17:55:24.797846308
2025-11-07 17:55:20.209654,-1,2025-11-07 17:55:24.805538615
2025-11-07 17:55:20.209654,-23,2025-11-07 17:55:24.813230923
2025-11-07 17:55:20.209654,-5121,2025-11-07 17:55:24.820923230
2025-11-07 17:55:20.209654,-1,2025-11-07 17:55:24.828615538
2025-11-07 17:55:20.209654,-21,2025-11-07 17:55:24.836307846
2025-11-07 17:55:20.209654,-3329,2025-11-07 17:55:24.844000154
2025-11-07 17:55:20.209654,-1,2025-11-07 17:55:24.851692462
2025-11-07 17:55:20.209654,-18,2025-11-07 17:55:24.859384769
2025-11-07 17:55:20.704668,-82,2025-11-07 17:55:24.867077077
2025-11-07 17:55:20.704668,-17153,2025-11-07 17:55:24.874769385
2025-11-07 17:55:20.704668,-1,2025-11-07 17:55:24.882461692
2025-11-07 17:55:20.704668,470,2025-11-07 17:55:24.890154000
2025-11-07 17:55:20.704668,-13824,2025-11-07 17:55:24.897846308
2025-11-07 17:55:20.704668,5,2025-11-07 17:55:24.905538615
2025-11-07 17:55:20.704668,1593,2025-11-07 17:55:24.913230923
2025-11-07 17:55:20.704668,-13056,2025-11-07 17:55:24.920923231
2025-11-07 17:55:20.704668,0,2025-11-07 17:55:24.928615538
2025-11-07 17:55:20.704668,-671,2025-11-07 17:55:24.936307846
2025-11-07 17:55:20.704668,-20225,2025-11-07 17:55:24.944000154
2025-11-07 17:55:20.704668,-1,2025-11-07 17:55:24.951692462
2025-11-07 17:55:20.704668,208,2025-11-07 17:55:24.959384769
2025-11-07 17:55:20.704668,26368,2025-11-07 17:55:24.967077077
2025-11-07 17:55:20.704668,-1,2025-11-07 17:55:24.974769385
2025-11-07 17:55:20.704668,-146,2025-11-07 17:55:24.982461692
2025-11-07 17:55:20.704668,1279,2025-11-07 17:55:24.990154000
2025-11-07 17:55:20.704668,0,2025-11-07 17:55:24.997846308
2025-11-07 17:55:20.704668,-75,2025-11-07 17:55:25.005538615
2025-11-07 17:55:20.704668,-26369,2025-11-07 17:55:25.013230923
2025-11-07 17:55:20.704668,-1,2025-11-07 17:55:25.020923231
2025-11-07 17:55:20.704668,-42,2025-11-07 17:55:25.028615538
2025-11-07 17:55:20.704668,-11777,2025-11-07 17:55:25.036307846
2025-11-07 17:55:20.704668,-1,2025-11-07 17:55:25.044000154
2025-11-07 17:55:20.704668,-59,2025-11-07 17:55:25.051692462
2025-11-07 17:55:20.704668,-8193,2025-11-07 17:55:25.059384769
2025-11-07 17:55:20.704668,-1,2025-11-07 17:55:25.067077077
2025-11-07 17:55:20.704668,-21,2025-11-07 17:55:25.074769385
2025-11-07 17:55:20.704668,-6913,2025-11-07 17:55:25.082461692
2025-11-07 17:55:20.704668,-1,2025-11-07 17:55:25.090154000
2025-11-07 17:55:20.704668,-23,2025-11-07 17:55:25.097846308
2025-11-07 17:55:20.704668,-3329,2025-11-07 17:55:25.105538615
2025-11-07 17:55:20.704668,-1,2025-11-07 17:55:25.113230923
2025-11-07 17:55:20.704668,-14,2025-11-07 17:55:25.120923231
2025-11-07 17:55:20.704668,-1537,2025-11-07 17:55:25.128615538
2025-11-07 17:55:20.704668,-1,2025-11-07 17:55:25.136307846
2025-11-07 17:55:20.704668,0,2025-11-07 17:55:25.144000154
2025-11-07 17:55:20.704668,512,2025-11-07 17:55:25.151692462
2025-11-07 17:55:20.704668,0,2025-11-07 17:55:25.159384769
2025-11-07 17:55:20.704668,9,2025-11-07 17:55:25.167077077
2025-11-07 17:55:20.704668,4608,2025-11-07 17:55:25.174769385
2025-11-07 17:55:20.704668,0,2025-11-07 17:55:25.182461692
2025-11-07 17:55:20.704668,30,2025-11-07 17:55:25.190154000
2025-11-07 17:55:20.704668,13312,2025-11-07 17:55:25.197846308
2025-11-07 17:55:20.704668,0,2025-11-07 17:55:25.205538615
2025-11-07 17:55:20.704668,70,2025-11-07 17:55:25.213230923
2025-11-07 17:55:20.704668,21760,2025-11-07 17:55:25.220923231
2025-11-07 17:55:20.704668,0,2025-11-07 17:55:25.228615538
2025-11-07 17:55:20.704668,99,2025-11-07 17:55:25.236307846
2025-11-07 17:55:20.704668,27648,2025-11-07 17:55:25.244000154
2025-11-07 17:55:20.704668,0,2025-11-07 17:55:25.251692462
2025-11-07 17:55:20.704668,113,2025-11-07 17:55:25.259384769
2025-11-07 17:55:20.704668,27648,2025-11-07 17:55:25.267077077
2025-11-07 17:55:20.704668,0,2025-11-07 17:55:25.274769385
2025-11-07 17:55:20.704668,80,2025-11-07 17:55:25.282461692
2025-11-07 17:55:20.704668,7680,2025-11-07 17:55:25.290154000
2025-11-07 17:55:20.704668,0,2025-11-07 17:55:25.297846308
2025-11-07 17:55:20.704668,-23,2025-11-07 17:55:25.305538615
2025-11-07 17:55:20.704668,-14081,2025-11-07 17:55:25.313230923
2025-11-07 17:55:20.704668,-1,2025-11-07 17:55:25.320923231
2025-11-07 17:55:20.704668,-80,2025-11-07 17:55:25.328615538
2025-11-07 17:55:20.704668,-25089,2025-11-07 17:55:25.336307846
2025-11-07 17:55:20.704668,-1,2025-11-07 17:55:25.344000154
2025-11-07 17:55:20.704668,-108,2025-11-07 17:55:25.351692462
2025-11-07 17:55:20.704668,-27393,2025-11-07 17:55:25.359384769
2025-11-07 17:55:20.704668,-1,2025-11-07 17:55:25.367077077
2025-11-07 17:55:20.704668,-108,2025-11-07 17:55:25.374769385
2025-11-07 17:55:20.704668,-28161,2025-11-07 17:55:25.382461692
2025-11-07 17:55:20.704668,-1,2025-11-07 17:55:25.390154000
2025-11-07 17:55:20.704668,-111,2025-11-07 17:55:25.397846308
2025-11-07 17:55:20.704668,-27393,2025-11-07 17:55:25.405538615
2025-11-07 17:55:20.704668,-1,2025-11-07 17:55:25.413230923
2025-11-07 17:55:20.704668,-104,2025-11-07 17:55:25.420923231
2025-11-07 17:55:20.704668,-26369,2025-11-07 17:55:25.428615538
2025-11-07 17:55:20.704668,-1,2025-11-07 17:55:25.436307846
2025-11-07 17:55:20.704668,-101,2025-11-07 17:55:25.444000154
2025-11-07 17:55:20.704668,-25089,2025-11-07 17:55:25.451692462
2025-11-07 17:55:20.704668,-1,2025-11-07 17:55:25.459384769
2025-11-07 17:55:20.704668,-94,2025-11-07 17:55:25.467077077
2025-11-07 17:55:20.704668,-22529,2025-11-07 17:55:25.474769385
2025-11-07 17:55:20.704668,-1,2025-11-07 17:55:25.482461692
2025-11-07 17:55:20.704668,-87,2025-11-07 17:55:25.490154000
2025-11-07 17:55:20.704668,-21505,2025-11-07 17:55:25.497846308
2025-11-07 17:55:20.704668,-1,2025-11-07 17:55:25.505538615
2025-11-07 17:55:20.704668,-80,2025-11-07 17:55:25.513230923
2025-11-07 17:55:20.704668,-17665,2025-11-07 17:55:25.520923231
2025-11-07 17:55:20.704668,-1,2025-11-07 17:55:25.528615538
2025-11-07 17:55:20.704668,-70,2025-11-07 17:55:25.536307846
2025-11-07 17:55:20.704668,-18433,2025-11-07 17:55:25.544000154
2025-11-07 17:55:20.704668,-1,2025-11-07 17:55:25.551692462
2025-11-07 17:55:20.704668,-68,2025-11-07 17:55:25.559384769
2025-11-07 17:55:20.704668,-16641,2025-11-07 17:55:25.567077077
2025-11-07 17:55:20.704668,-1,2025-11-07 17:55:25.574769385
2025-11-07 17:55:20.704668,-68,2025-11-07 17:55:25.582461692
2025-11-07 17:55:20.704668,-17153,2025-11-07 17:55:25.590154000
2025-11-07 17:55:20.704668,-1,2025-11-07 17:55:25.597846308
2025-11-07 17:55:20.704668,-68,2025-11-07 17:55:25.605538615
2025-11-07 17:55:20.704668,-17153,2025-11-07 17:55:25.613230923
2025-11-07 17:55:20.704668,-1,2025-11-07 17:55:25.620923231
2025-11-07 17:55:20.704668,-70,2025-11-07 17:55:25.628615538
2025-11-07 17:55:20.704668,-17153,2025-11-07 17:55:25.636307846
2025-11-07 17:55:20.704668,-1,2025-11-07 17:55:25.644000154
2025-11-07 17:55:20.704668,-68,2025-11-07 17:55:25.651692462
2025-11-07 17:55:20.704668,-16641,2025-11-07 17:55:25.659384769
2025-11-07 17:55:20.704668,-1,2025-11-07 17:55:25.667077077
2025-11-07 17:55:20.704668,-66,2025-11-07 17:55:25.674769385
2025-11-07 17:55:20.704668,-17153,2025-11-07 17:55:25.682461692
2025-11-07 17:55:20.704668,-1,2025-11-07 17:55:25.690154000
2025-11-07 17:55:20.704668,-68,2025-11-07 17:55:25.697846308
2025-11-07 17:55:21.245083,-68,2025-11-07 17:55:25.705538615
2025-11-07 17:55:21.245083,-17153,2025-11-07 17:55:25.713230923
2025-11-07 17:55:21.245083,-1,2025-11-07 17:55:25.720923231
2025-11-07 17:55:21.245083,-68,2025-11-07 17:55:25.728615538
2025-11-07 17:55:21.245083,-16641,2025-11-07 17:55:25.736307846
2025-11-07 17:55:21.245083,-1,2025-11-07 17:55:25.744000154
2025-11-07 17:55:21.245083,-63,2025-11-07 17:55:25.751692462
2025-11-07 17:55:21.245083,-15873,2025-11-07 17:55:25.759384769
2025-11-07 17:55:21.245083,-1,2025-11-07 17:55:25.767077077
2025-11-07 17:55:21.245083,-66,2025-11-07 17:55:25.774769385
2025-11-07 17:55:21.245083,-16641,2025-11-07 17:55:25.782461692
2025-11-07 17:55:21.245083,-1,2025-11-07 17:55:25.790154000
2025-11-07 17:55:21.245083,-56,2025-11-07 17:55:25.797846308
2025-11-07 17:55:21.245083,-11009,2025-11-07 17:55:25.805538615
2025-11-07 17:55:21.245083,-1,2025-11-07 17:55:25.813230923
2025-11-07 17:55:21.245083,-42,2025-11-07 17:55:25.820923230
2025-11-07 17:55:21.245083,-13569,2025-11-07 17:55:25.828615538
2025-11-07 17:55:21.245083,-1,2025-11-07 17:55:25.836307846
2025-11-07 17:55:21.245083,-75,2025-11-07 17:55:25.844000154
2025-11-07 17:55:21.245083,-23297,2025-11-07 17:55:25.851692462
2025-11-07 17:55:21.245083,-1,2025-11-07 17:55:25.859384769
2025-11-07 17:55:21.245083,-94,2025-11-07 17:55:25.867077077
2025-11-07 17:55:21.245083,-23297,2025-11-07 17:55:25.874769385
2025-11-07 17:55:21.245083,-1,2025-11-07 17:55:25.882461692
2025-11-07 17:55:21.245083,-85,2025-11-07 17:55:25.890154000
2025-11-07 17:55:21.245083,-16641,2025-11-07 17:55:25.897846308
2025-11-07 17:55:21.245083,-1,2025-11-07 17:55:25.905538615
2025-11-07 17:55:21.245083,-40,2025-11-07 17:55:25.913230923
2025-11-07 17:55:21.245083,-8193,2025-11-07 17:55:25.920923231
2025-11-07 17:55:21.245083,-1,2025-11-07 17:55:25.928615538
2025-11-07 17:55:21.245083,-52,2025-11-07 17:55:25.936307846
2025-11-07 17:55:21.245083,-14849,2025-11-07 17:55:25.944000154
2025-11-07 17:55:21.245083,-1,2025-11-07 17:55:25.951692462
2025-11-07 17:55:21.245083,-52,2025-11-07 17:55:25.959384769
2025-11-07 17:55:21.245083,-12289,2025-11-07 17:55:25.967077077
2025-11-07 17:55:21.245083,-1,2025-11-07 17:55:25.974769385
2025-11-07 17:55:21.245083,-49,2025-11-07 17:55:25.982461692
2025-11-07 17:55:21.245083,-11009,2025-11-07 17:55:25.990154000
2025-11-07 17:55:21.245083,-1,2025-11-07 17:55:25.997846308
2025-11-07 17:55:21.245083,-54,2025-11-07 17:55:26.005538615
2025-11-07 17:55:21.245083,-29953,2025-11-07 17:55:26.013230923
2025-11-07 17:55:21.245083,-1,2025-11-07 17:55:26.020923231
2025-11-07 17:55:21.245083,-113,2025-11-07 17:55:26.028615538
2025-11-07 17:55:21.245083,-30977,2025-11-07 17:55:26.036307846
2025-11-07 17:55:21.245083,1,2025-11-07 17:55:26.044000154
2025-11-07 17:55:21.245083,1382,2025-11-07 17:55:26.051692462
2025-11-07 17:55:21.245083,9728,2025-11-07 17:55:26.059384769
2025-11-07 17:55:21.245083,6,2025-11-07 17:55:26.067077077
2025-11-07 17:55:21.245083,248,2025-11-07 17:55:26.074769385
2025-11-07 17:55:21.245083,18688,2025-11-07 17:55:26.082461692
2025-11-07 17:55:21.245083,-3,2025-11-07 17:55:26.090154000
2025-11-07 17:55:21.245083,-153,2025-11-07 17:55:26.097846308
2025-11-07 17:55:21.245083,-23041,2025-11-07 17:55:26.105538615
2025-11-07 17:55:21.245083,0,2025-11-07 17:55:26.113230923
2025-11-07 17:55:21.245083,-203,2025-11-07 17:55:26.120923231
2025-11-07 17:55:21.245083,10751,2025-11-07 17:55:26.128615538
2025-11-07 17:55:21.245083,-1,2025-11-07 17:55:26.136307846
2025-11-07 17:55:21.245083,-59,2025-11-07 17:55:26.144000154
2025-11-07 17:55:21.245083,30207,2025-11-07 17:55:26.151692462
2025-11-07 17:55:21.245083,-1,2025-11-07 17:55:26.159384769
2025-11-07 17:55:21.245083,-177,2025-11-07 17:55:26.167077077
2025-11-07 17:55:21.245083,-28161,2025-11-07 17:55:26.174769385
2025-11-07 17:55:21.245083,-1,2025-11-07 17:55:26.182461692
2025-11-07 17:55:21.245083,-115,2025-11-07 17:55:26.190154000
2025-11-07 17:55:21.245083,30719,2025-11-07 17:55:26.197846308
2025-11-07 17:55:21.245083,-1,2025-11-07 17:55:26.205538615
2025-11-07 17:55:21.245083,-113,2025-11-07 17:55:26.213230923
2025-11-07 17:55:21.245083,-26369,2025-11-07 17:55:26.220923231
2025-11-07 17:55:21.245083,-1,2025-11-07 17:55:26.228615538
2025-11-07 17:55:21.245083,-111,2025-11-07 17:55:26.236307846
2025-11-07 17:55:21.245083,-25601,2025-11-07 17:55:26.244000154
2025-11-07 17:55:21.245083,-1,2025-11-07 17:55:26.251692462
2025-11-07 17:55:21.245083,-94,2025-11-07 17:55:26.259384769
2025-11-07 17:55:21.245083,-24321,2025-11-07 17:55:26.267077077
2025-11-07 17:55:21.245083,-1,2025-11-07 17:55:26.274769385
2025-11-07 17:55:21.245083,-89,2025-11-07 17:55:26.282461692
2025-11-07 17:55:21.245083,-20737,2025-11-07 17:55:26.290154000
2025-11-07 17:55:21.245083,-1,2025-11-07 17:55:26.297846308
2025-11-07 17:55:21.245083,-80,2025-11-07 17:55:26.305538615
2025-11-07 17:55:21.245083,-18433,2025-11-07 17:55:26.313230923
2025-11-07 17:55:21.245083,-1,2025-11-07 17:55:26.320923231
2025-11-07 17:55:21.245083,-63,2025-11-07 17:55:26.328615538
2025-11-07 17:55:21.245083,-13057,2025-11-07 17:55:26.336307846
2025-11-07 17:55:21.245083,-1,2025-11-07 17:55:26.344000154
2025-11-07 17:55:21.245083,-35,2025-11-07 17:55:26.351692462
2025-11-07 17:55:21.245083,-4353,2025-11-07 17:55:26.359384769
2025-11-07 17:55:21.245083,-1,2025-11-07 17:55:26.367077077
2025-11-07 17:55:21.245083,0,2025-11-07 17:55:26.374769385
2025-11-07 17:55:21.245083,3584,2025-11-07 17:55:26.382461692
2025-11-07 17:55:21.245083,0,2025-11-07 17:55:26.390154000
2025-11-07 17:55:21.245083,21,2025-11-07 17:55:26.397846308
2025-11-07 17:55:21.245083,7168,2025-11-07 17:55:26.405538615
2025-11-07 17:55:21.245083,0,2025-11-07 17:55:26.413230923
2025-11-07 17:55:21.245083,30,2025-11-07 17:55:26.420923231
2025-11-07 17:55:21.245083,4096,2025-11-07 17:55:26.428615538
2025-11-07 17:55:21.245083,0,2025-11-07 17:55:26.436307846
2025-11-07 17:55:21.245083,-23,2025-11-07 17:55:26.444000154
2025-11-07 17:55:21.245083,-17665,2025-11-07 17:55:26.451692462
2025-11-07 17:55:21.245083,-1,2025-11-07 17:55:26.459384769
2025-11-07 17:55:21.245083,-106,2025-11-07 17:55:26.467077077
2025-11-07 17:55:21.245083,31999,2025-11-07 17:55:26.474769385
2025-11-07 17:55:21.245083,-1,2025-11-07 17:55:26.482461692
2025-11-07 17:55:21.245083,-146,2025-11-07 17:55:26.490154000
2025-11-07 17:55:21.245083,25855,2025-11-07 17:55:26.497846308
2025-11-07 17:55:21.245083,-1,2025-11-07 17:55:26.505538615
2025-11-07 17:55:21.245083,-163,2025-11-07 17:55:26.513230923
2025-11-07 17:55:21.245083,24063,2025-11-07 17:55:26.520923231
2025-11-07 17:55:21.245083,-1,2025-11-07 17:55:26.528615538
2025-11-07 17:55:21.245083,-160,2025-11-07 17:55:26.536307846
2025-11-07 17:55:21.784683,-158,2025-11-07 17:55:26.544000154
2025-11-07 17:55:21.784683,26623,2025-11-07 17:55:26.551692462
2025-11-07 17:55:21.784683,-1,2025-11-07 17:55:26.559384769
2025-11-07 17:55:21.784683,-148,2025-11-07 17:55:26.567077077
2025-11-07 17:55:21.784683,28415,2025-11-07 17:55:26.574769385
2025-11-07 17:55:21.784683,-1,2025-11-07 17:55:26.582461692
2025-11-07 17:55:21.784683,-141,2025-11-07 17:55:26.590154000
2025-11-07 17:55:21.784683,31487,2025-11-07 17:55:26.597846308
2025-11-07 17:55:21.784683,-1,2025-11-07 17:55:26.605538615
2025-11-07 17:55:21.784683,-120,2025-11-07 17:55:26.613230923
2025-11-07 17:55:21.784683,-28673,2025-11-07 17:55:26.620923231
2025-11-07 17:55:21.784683,-1,2025-11-07 17:55:26.628615538
2025-11-07 17:55:21.784683,-113,2025-11-07 17:55:26.636307846
2025-11-07 17:55:21.784683,-28161,2025-11-07 17:55:26.644000154
2025-11-07 17:55:21.784683,-1,2025-11-07 17:55:26.651692462
2025-11-07 17:55:21.784683,-108,2025-11-07 17:55:26.659384769
2025-11-07 17:55:21.784683,-26881,2025-11-07 17:55:26.667077077
2025-11-07 17:55:21.784683,-1,2025-11-07 17:55:26.674769385
2025-11-07 17:55:21.784683,-104,2025-11-07 17:55:26.682461692
2025-11-07 17:55:21.784683,-26369,2025-11-07 17:55:26.690154000
2025-11-07 17:55:21.784683,-1,2025-11-07 17:55:26.697846308
2025-11-07 17:55:21.784683,-104,2025-11-07 17:55:26.705538615
2025-11-07 17:55:21.784683,-25089,2025-11-07 17:55:26.713230923
2025-11-07 17:55:21.784683,-1,2025-11-07 17:55:26.720923231
2025-11-07 17:55:21.784683,-96,2025-11-07 17:55:26.728615538
2025-11-07 17:55:21.784683,-25089,2025-11-07 17:55:26.736307846
2025-11-07 17:55:21.784683,-1,2025-11-07 17:55:26.744000154
2025-11-07 17:55:21.784683,-96,2025-11-07 17:55:26.751692462
2025-11-07 17:55:21.784683,-24321,2025-11-07 17:55:26.759384769
2025-11-07 17:55:21.784683,-1,2025-11-07 17:55:26.767077077
2025-11-07 17:55:21.784683,-99,2025-11-07 17:55:26.774769385
2025-11-07 17:55:21.784683,-25089,2025-11-07 17:55:26.782461692
2025-11-07 17:55:21.784683,-1,2025-11-07 17:55:26.790154000
2025-11-07 17:55:21.784683,-96,2025-11-07 17:55:26.797846308
2025-11-07 17:55:21.784683,-24321,2025-11-07 17:55:26.805538615
2025-11-07 17:55:21.784683,-1,2025-11-07 17:55:26.813230923
2025-11-07 17:55:21.784683,-96,2025-11-07 17:55:26.820923230
2025-11-07 17:55:21.784683,-23809,2025-11-07 17:55:26.828615538
2025-11-07 17:55:21.784683,-1,2025-11-07 17:55:26.836307846
2025-11-07 17:55:21.784683,-92,2025-11-07 17:55:26.844000154
2025-11-07 17:55:21.784683,-23297,2025-11-07 17:55:26.851692462
2025-11-07 17:55:21.784683,-1,2025-11-07 17:55:26.859384769
2025-11-07 17:55:21.784683,-92,2025-11-07 17:55:26.867077077
2025-11-07 17:55:21.784683,-22529,2025-11-07 17:55:26.874769385
2025-11-07 17:55:21.784683,-1,2025-11-07 17:55:26.882461692
2025-11-07 17:55:21.784683,-89,2025-11-07 17:55:26.890154000
2025-11-07 17:55:21.784683,-23809,2025-11-07 17:55:26.897846308
2025-11-07 17:55:21.784683,-1,2025-11-07 17:55:26.905538615
2025-11-07 17:55:21.784683,-92,2025-11-07 17:55:26.913230923
2025-11-07 17:55:21.784683,-23297,2025-11-07 17:55:26.920923231
2025-11-07 17:55:21.784683,-1,2025-11-07 17:55:26.928615538
2025-11-07 17:55:21.784683,-89,2025-11-07 17:55:26.936307846
2025-11-07 17:55:21.784683,-22017,2025-11-07 17:55:26.944000154
2025-11-07 17:55:21.784683,-1,2025-11-07 17:55:26.951692462
2025-11-07 17:55:21.784683,-89,2025-11-07 17:55:26.959384769
2025-11-07 17:55:21.784683,-22529,2025-11-07 17:55:26.967077077
2025-11-07 17:55:21.784683,-1,2025-11-07 17:55:26.974769385
2025-11-07 17:55:21.784683,-89,2025-11-07 17:55:26.982461692
2025-11-07 17:55:21.784683,-22017,2025-11-07 17:55:26.990154000
2025-11-07 17:55:21.784683,-1,2025-11-07 17:55:26.997846308
2025-11-07 17:55:21.784683,-82,2025-11-07 17:55:27.005538615
2025-11-07 17:55:21.784683,-21505,2025-11-07 17:55:27.013230923
2025-11-07 17:55:21.784683,-1,2025-11-07 17:55:27.020923231
2025-11-07 17:55:21.784683,-85,2025-11-07 17:55:27.028615538
2025-11-07 17:55:21.784683,-20737,2025-11-07 17:55:27.036307846
2025-11-07 17:55:21.784683,-1,2025-11-07 17:55:27.044000154
2025-11-07 17:55:21.784683,-85,2025-11-07 17:55:27.051692462
2025-11-07 17:55:21.784683,-22017,2025-11-07 17:55:27.059384769
2025-11-07 17:55:21.784683,-1,2025-11-07 17:55:27.067077077
2025-11-07 17:55:21.784683,-85,2025-11-07 17:55:27.074769385
2025-11-07 17:55:21.784683,-20737,2025-11-07 17:55:27.082461692
2025-11-07 17:55:21.784683,-1,2025-11-07 17:55:27.090154000
2025-11-07 17:55:21.784683,-80,2025-11-07 17:55:27.097846308
2025-11-07 17:55:21.784683,-19713,2025-11-07 17:55:27.105538615
2025-11-07 17:55:21.784683,-1,2025-11-07 17:55:27.113230923
2025-11-07 17:55:21.784683,-78,2025-11-07 17:55:27.120923231
2025-11-07 17:55:21.784683,-22529,2025-11-07 17:55:27.128615538
2025-11-07 17:55:21.784683,-1,2025-11-07 17:55:27.136307846
2025-11-07 17:55:21.784683,-106,2025-11-07 17:55:27.144000154
2025-11-07 17:55:21.784683,-29953,2025-11-07 17:55:27.151692462
2025-11-07 17:55:21.784683,-1,2025-11-07 17:55:27.159384769
2025-11-07 17:55:21.784683,-122,2025-11-07 17:55:27.167077077
2025-11-07 17:55:21.784683,-29185,2025-11-07 17:55:27.174769385
2025-11-07 17:55:21.784683,-1,2025-11-07 17:55:27.182461692
2025-11-07 17:55:21.784683,-101,2025-11-07 17:55:27.190154000
2025-11-07 17:55:21.784683,-18945,2025-11-07 17:55:27.197846308
2025-11-07 17:55:21.784683,-1,2025-11-07 17:55:27.205538615
2025-11-07 17:55:21.784683,-44,2025-11-07 17:55:27.213230923
2025-11-07 17:55:21.784683,-13057,2025-11-07 17:55:27.220923231
2025-11-07 17:55:21.784683,-1,2025-11-07 17:55:27.228615538
2025-11-07 17:55:21.784683,-80,2025-11-07 17:55:27.236307846
2025-11-07 17:55:21.784683,-20225,2025-11-07 17:55:27.244000154
2025-11-07 17:55:21.784683,-1,2025-11-07 17:55:27.251692462
