timestamp,ecg
15:30:33.812424,88
15:30:33.812424,15872
15:30:33.812424,0
15:30:33.812424,86
15:30:33.812424,27392
15:30:33.812424,0
15:30:33.812424,107
15:30:33.812424,31232
15:30:33.812424,0
15:30:33.812424,150
15:30:33.812424,-24576
15:30:33.812424,0
15:30:33.812424,162
15:30:33.812424,-19712
15:30:33.812424,0
15:30:33.812424,208
15:30:33.812424,-6144
15:30:33.812424,0
15:30:33.812424,251
15:30:33.812424,4352
15:30:33.812424,1
15:30:33.812424,299
15:30:33.812424,16640
15:30:33.812424,1
15:30:33.812424,328
15:30:33.812424,18944
15:30:33.812424,1
15:30:33.812424,330
15:30:33.812424,15872
15:30:33.812424,1
15:30:33.812424,292
15:30:33.812424,-3584
15:30:33.812424,0
15:30:33.812424,167
15:30:33.812424,23808
15:30:33.812424,0
15:30:33.812424,31
15:30:33.812424,-4096
15:30:33.812424,-1
15:30:33.812424,-47
15:30:33.812424,-17409
15:30:33.812424,-1
15:30:33.812424,-86
15:30:33.812424,-21761
15:30:33.812424,-1
15:30:33.812424,-79
15:30:33.812424,-19201
15:30:33.812424,-1
15:30:33.812424,-71
15:30:33.812424,-16897
15:30:33.812424,-1
15:30:33.812424,-57
15:30:33.812424,-11265
15:30:33.812424,-1
15:30:33.812424,-40
15:30:33.812424,-8705
15:30:33.812424,-1
15:30:33.812424,-23
15:30:33.812424,-4609
15:30:33.812424,-1
15:30:33.812424,-26
15:30:33.812424,-6913
15:30:33.812424,-1
15:30:33.812424,-16
15:30:33.812424,-2561
15:30:33.812424,-1
15:30:33.812424,-26
15:30:33.812424,-7681
15:30:33.812424,-1
15:30:33.812424,-19
15:30:33.812424,-1537
15:30:33.812424,-1
15:30:33.812424,-11
15:30:33.812424,-5121
15:30:33.812424,-1
15:30:33.812424,-21
15:30:33.812424,-4609
15:30:33.812424,-1
15:30:33.812424,-19
15:30:33.812424,-2561
15:30:33.812424,-1
15:30:33.812424,-2
15:30:33.812424,767
15:30:33.812424,0
15:30:33.812424,9
15:30:33.812424,4864
15:30:33.812424,0
15:30:33.812424,33
15:30:33.812424,12032
15:30:33.812424,0
15:30:33.812424,43
15:30:33.812424,7168
15:30:33.812424,0
15:30:33.812424,7
15:30:33.812424,-4864
15:30:33.812424,-1
15:30:33.812424,-21
15:30:33.812424,-769
15:30:33.812424,-1
15:30:33.812424,0
15:30:33.812424,-1792
15:30:33.812424,-1
15:30:33.812424,-4
15:30:33.812424,-257
15:30:33.812424,-1
15:30:33.812424,23
15:30:33.812424,26880
15:30:33.812424,0
15:30:33.812424,273
15:30:34.397062,515
15:30:34.397062,-16384
15:30:34.397062,2
15:30:34.397062,625
15:30:34.397062,16384
15:30:34.397062,0
15:30:34.397062,-615
15:30:34.397062,-26113
15:30:34.397062,-3
15:30:34.397062,-127
15:30:34.397062,10495
15:30:34.397062,0
15:30:34.397062,-7
15:30:34.397062,18431
15:30:34.397062,0
15:30:34.397062,107
15:30:34.397062,17152
15:30:34.397062,0
15:30:34.397062,79
15:30:34.397062,26880
15:30:34.397062,0
15:30:34.397062,105
15:30:34.397062,31744
15:30:34.397062,0
15:30:34.397062,146
15:30:34.397062,-26368
15:30:34.397062,0
15:30:34.397062,162
15:30:34.397062,-17920
15:30:34.397062,0
15:30:34.397062,213
15:30:34.397062,-4864
15:30:34.397062,0
15:30:34.397062,261
15:30:34.397062,7936
15:30:34.397062,1
15:30:34.397062,311
15:30:34.397062,17152
15:30:34.397062,1
15:30:34.397062,335
15:30:34.397062,22016
15:30:34.397062,1
15:30:34.397062,342
15:30:34.397062,17152
15:30:34.397062,1
15:30:34.397062,280
15:30:34.397062,-10496
15:30:34.397062,0
15:30:34.397062,143
15:30:34.397062,18176
15:30:34.397062,0
15:30:34.397062,7
15:30:34.397062,-9728
15:30:34.397062,-1
15:30:34.397062,-64
15:30:34.397062,-21761
15:30:34.397062,-1
15:30:34.397062,-95
15:30:34.397062,-24065
15:30:34.397062,-1
15:30:34.397062,-91
15:30:34.397062,-22273
15:30:34.397062,-1
15:30:34.397062,-81
15:30:34.397062,-18689
15:30:34.397062,-1
15:30:34.397062,-67
15:30:34.397062,-15617
15:30:34.397062,-1
15:30:34.397062,-57
15:30:34.397062,-11777
15:30:34.397062,-1
15:30:34.397062,-38
15:30:34.397062,-9473
15:30:34.397062,-1
15:30:34.397062,-35
15:30:34.397062,-7681
15:30:34.397062,-1
15:30:34.397062,-33
15:30:34.397062,-7681
15:30:34.397062,-1
15:30:34.397062,-31
15:30:34.397062,-8705
15:30:34.397062,-1
15:30:34.397062,-31
15:30:34.397062,-5121
15:30:34.397062,-1
15:30:34.397062,-23
15:30:34.397062,-7681
15:30:34.397062,-1
15:30:34.397062,-33
15:30:34.397062,-6913
15:30:34.397062,-1
15:30:34.397062,-21
15:30:34.397062,-4609
15:30:34.397062,-1
15:30:34.397062,-21
15:30:34.397062,-5633
15:30:34.397062,-1
15:30:34.397062,-16
15:30:34.397062,-2561
15:30:34.397062,-1
15:30:34.397062,-9
15:30:34.397062,-257
15:30:34.397062,-1
15:30:34.397062,7
15:30:34.397062,5376
15:30:34.397062,0
15:30:34.397062,43
15:30:35.027671,52
15:30:35.027671,8960
15:30:35.027671,0
15:30:35.027671,11
15:30:35.027671,512
15:30:35.027671,0
15:30:35.027671,-4
15:30:35.027671,-2561
15:30:35.027671,-1
15:30:35.027671,-9
15:30:35.027671,-769
15:30:35.027671,-1
15:30:35.027671,-7
15:30:35.027671,-2049
15:30:35.027671,-1
15:30:35.027671,-2
15:30:35.027671,7423
15:30:35.027671,0
15:30:35.027671,124
15:30:35.027671,13568
15:30:35.027671,1
15:30:35.027671,536
15:30:35.027671,-18176
15:30:35.027671,2
15:30:35.027671,529
15:30:35.027671,-31232
15:30:35.027671,-1
15:30:35.027671,-668
15:30:35.027671,14335
15:30:35.027671,-2
15:30:35.027671,-7
15:30:35.027671,14847
15:30:35.027671,0
15:30:35.027671,14
15:30:35.027671,20224
15:30:35.027671,0
15:30:35.027671,83
15:30:35.027671,15872
15:30:35.027671,0
15:30:35.027671,88
15:30:35.027671,26368
15:30:35.027671,0
15:30:35.027671,100
15:30:35.027671,29952
15:30:35.027671,0
15:30:35.027671,136
15:30:35.027671,-28160
15:30:35.027671,0
15:30:35.027671,162
15:30:35.027671,-18432
15:30:35.027671,0
15:30:35.027671,201
15:30:35.027671,-7424
15:30:35.027671,0
15:30:35.027671,258
15:30:35.027671,6656
15:30:35.027671,1
15:30:35.027671,301
15:30:35.027671,16640
15:30:35.027671,1
15:30:35.027671,333
15:30:35.027671,18944
15:30:35.027671,1
15:30:35.027671,323
15:30:35.027671,12288
15:30:35.027671,1
15:30:35.027671,263
15:30:35.027671,-14848
15:30:35.027671,0
15:30:35.027671,124
15:30:35.027671,13312
15:30:35.027671,0
15:30:35.027671,-2
15:30:35.027671,-11265
15:30:35.027671,-1
15:30:35.027671,-79
15:30:35.027671,-23553
15:30:35.027671,-1
15:30:35.027671,-95
15:30:35.027671,-24065
15:30:35.027671,-1
15:30:35.027671,-95
15:30:35.027671,-23041
15:30:35.027671,-1
15:30:35.027671,-83
15:30:35.027671,-19201
15:30:35.027671,-1
15:30:35.027671,-71
15:30:35.027671,-16129
15:30:35.027671,-1
15:30:35.027671,-57
15:30:35.027671,-12545
15:30:35.027671,-1
15:30:35.027671,-43
15:30:35.027671,-9473
15:30:35.027671,-1
15:30:35.027671,-40
15:30:35.027671,-9473
15:30:35.027671,-1
15:30:35.027671,-35
15:30:35.027671,-8705
15:30:35.027671,-1
15:30:35.027671,-38
15:30:35.027671,-8705
15:30:35.027671,-1
15:30:35.027671,-33
15:30:35.027671,-8193
15:30:35.027671,-1
15:30:35.027671,-33
15:30:35.477392,-35
15:30:35.477392,-8193
15:30:35.477392,-1
15:30:35.477392,-33
15:30:35.477392,-8193
15:30:35.477392,-1
15:30:35.477392,-31
15:30:35.477392,-6401
15:30:35.477392,-1
15:30:35.477392,-19
15:30:35.477392,-3329
15:30:35.477392,-1
15:30:35.477392,-11
15:30:35.477392,-1537
15:30:35.477392,-1
15:30:35.477392,4
15:30:35.477392,5888
15:30:35.477392,0
15:30:35.477392,43
15:30:35.477392,11008
15:30:35.477392,0
15:30:35.477392,26
15:30:35.477392,1792
15:30:35.477392,0
15:30:35.477392,-2
15:30:35.477392,-2049
15:30:35.477392,-1
15:30:35.477392,-16
15:30:35.477392,-4609
15:30:35.477392,-1
15:30:35.477392,-16
15:30:35.477392,-2049
15:30:35.477392,-1
15:30:35.477392,0
15:30:35.477392,512
15:30:35.477392,0
15:30:35.477392,31
15:30:35.477392,32512
15:30:35.477392,0
15:30:35.477392,313
15:30:35.477392,9984
15:30:35.477392,2
15:30:35.477392,707
15:30:35.477392,-2304
15:30:35.477392,1
15:30:35.477392,-174
15:30:35.477392,22015
15:30:35.477392,-3
15:30:35.477392,-433
15:30:35.477392,-257
15:30:35.477392,-1
15:30:35.477392,40
15:30:35.477392,512
15:30:35.477392,0
15:30:35.477392,67
15:30:35.477392,18176
15:30:35.477392,0
15:30:35.477392,55
15:30:35.477392,20736
15:30:35.477392,0
15:30:35.477392,95
15:30:35.477392,24320
15:30:35.477392,0
15:30:35.477392,112
15:30:35.477392,-32000
15:30:35.477392,0
15:30:35.477392,143
15:30:35.477392,-24576
15:30:35.477392,0
15:30:35.477392,182
15:30:35.477392,-14080
15:30:35.477392,0
15:30:35.477392,227
15:30:35.477392,-512
15:30:35.477392,0
15:30:35.477392,282
15:30:35.477392,12288
15:30:35.477392,1
15:30:35.477392,318
15:30:35.477392,18432
15:30:35.477392,1
15:30:35.477392,328
15:30:35.477392,16640
15:30:35.477392,1
15:30:35.477392,297
15:30:35.477392,-512
15:30:35.477392,0
15:30:35.477392,189
15:30:35.477392,28672
15:30:35.477392,0
15:30:35.477392,43
15:30:35.477392,-2816
15:30:35.477392,-1
15:30:35.477392,-47
15:30:35.477392,-19201
15:30:35.477392,-1
15:30:35.477392,-91
15:30:35.477392,-24833
15:30:35.477392,-1
15:30:35.477392,-98
15:30:35.477392,-24065
15:30:35.477392,-1
15:30:35.477392,-91
15:30:35.477392,-20993
15:30:35.477392,-1
15:30:35.477392,-71
15:30:35.477392,-16897
15:30:35.477392,-1
15:30:35.477392,-59
15:30:36.017054,-50
15:30:36.017054,-10753
15:30:36.017054,-1
15:30:36.017054,-38
15:30:36.017054,-7681
15:30:36.017054,-1
15:30:36.017054,-31
15:30:36.017054,-7681
15:30:36.017054,-1
15:30:36.017054,-23
15:30:36.017054,-4609
15:30:36.017054,-1
15:30:36.017054,-19
15:30:36.017054,-5121
15:30:36.017054,-1
15:30:36.017054,-19
15:30:36.017054,-4609
15:30:36.017054,-1
15:30:36.017054,-21
15:30:36.017054,-5121
15:30:36.017054,-1
15:30:36.017054,-19
15:30:36.017054,-4609
15:30:36.017054,-1
15:30:36.017054,-19
15:30:36.017054,-4609
15:30:36.017054,-1
15:30:36.017054,-19
15:30:36.017054,-3329
15:30:36.017054,-1
15:30:36.017054,-7
15:30:36.017054,-769
15:30:36.017054,-1
15:30:36.017054,-2
15:30:36.017054,767
15:30:36.017054,0
15:30:36.017054,11
15:30:36.017054,5888
15:30:36.017054,0
15:30:36.017054,43
15:30:36.017054,14080
15:30:36.017054,0
15:30:36.017054,40
15:30:36.017054,4864
15:30:36.017054,0
15:30:36.017054,9
15:30:36.017054,0
15:30:36.017054,0
15:30:36.017054,-9
15:30:36.017054,-2049
15:30:36.017054,-1
15:30:36.017054,-7
15:30:36.017054,-1537
15:30:36.017054,-1
15:30:36.017054,-4
15:30:36.017054,255
15:30:36.017054,0
15:30:36.017054,19
15:30:36.017054,23296
15:30:36.017054,0
15:30:36.017054,254
15:30:36.017054,-7936
15:30:36.017054,1
15:30:36.017054,678
15:30:36.017054,28416
15:30:36.017054,2
15:30:36.017054,76
15:30:36.017054,-19712
15:30:36.017054,-3
15:30:36.017054,-582
15:30:36.017054,-26113
15:30:36.017054,-1
15:30:36.017054,64
15:30:36.017054,0
15:30:36.017054,0
15:30:36.017054,50
15:30:36.017054,21248
15:30:36.017054,0
15:30:36.017054,55
15:30:36.017054,17664
15:30:36.017054,0
15:30:36.017054,100
15:30:36.017054,25088
15:30:36.017054,0
15:30:36.017054,105
15:30:36.017054,31744
15:30:36.017054,0
15:30:36.017054,136
15:30:36.017054,-27136
15:30:36.017054,0
15:30:36.017054,172
15:30:36.017054,-16640
15:30:36.017054,0
15:30:36.017054,213
15:30:36.017054,-4352
15:30:36.017054,0
15:30:36.017054,268
15:30:36.017054,10496
15:30:36.017054,1
15:30:36.017054,318
15:30:36.017054,17664
15:30:36.017054,1
15:30:36.017054,328
15:30:36.017054,18432
15:30:36.017054,1
15:30:36.017054,316
15:30:36.017054,6656
15:30:36.017054,1
15:30:36.017054,222
15:30:36.602694,148
15:30:36.602694,19456
15:30:36.602694,0
15:30:36.602694,19
15:30:36.602694,-7168
15:30:36.602694,-1
15:30:36.602694,-55
15:30:36.602694,-17409
15:30:36.602694,-1
15:30:36.602694,-81
15:30:36.602694,-20993
15:30:36.602694,-1
15:30:36.602694,-79
15:30:36.602694,-19969
15:30:36.602694,-1
15:30:36.602694,-71
15:30:36.602694,-15617
15:30:36.602694,-1
15:30:36.602694,-55
15:30:36.602694,-12545
15:30:36.602694,-1
15:30:36.602694,-45
15:30:36.602694,-8705
15:30:36.602694,-1
15:30:36.602694,-31
15:30:36.602694,-6913
15:30:36.602694,-1
15:30:36.602694,-26
15:30:36.602694,-5633
15:30:36.602694,-1
15:30:36.602694,-23
15:30:36.602694,-4609
15:30:36.602694,-1
15:30:36.602694,-16
15:30:36.602694,-4609
15:30:36.602694,-1
15:30:36.602694,-21
15:30:36.602694,-4609
15:30:36.602694,-1
15:30:36.602694,-14
15:30:36.602694,-3841
15:30:36.602694,-1
15:30:36.602694,-16
15:30:36.602694,-3329
15:30:36.602694,-1
15:30:36.602694,-14
15:30:36.602694,-3329
15:30:36.602694,-1
15:30:36.602694,-14
15:30:36.602694,-2561
15:30:36.602694,-1
15:30:36.602694,-9
15:30:36.602694,-2049
15:30:36.602694,-1
15:30:36.602694,-4
15:30:36.602694,255
15:30:36.602694,0
15:30:36.602694,7
15:30:36.602694,3584
15:30:36.602694,0
15:30:36.602694,21
15:30:36.602694,9728
15:30:36.602694,0
15:30:36.602694,57
15:30:36.602694,14592
15:30:36.602694,0
15:30:36.602694,35
15:30:36.602694,4096
15:30:36.602694,0
15:30:36.602694,9
15:30:36.602694,1024
15:30:36.602694,0
15:30:36.602694,0
15:30:36.602694,-1792
15:30:36.602694,-1
15:30:36.602694,-7
15:30:36.602694,767
15:30:36.602694,0
15:30:36.602694,7
15:30:36.602694,512
15:30:36.602694,0
15:30:36.602694,23
15:30:36.602694,26880
15:30:36.602694,0
15:30:36.602694,278
15:30:36.602694,-512
15:30:36.602694,1
15:30:36.602694,692
15:30:36.602694,11776
15:30:36.602694,2
15:30:36.602694,-79
15:30:36.602694,27135
15:30:36.602694,-3
15:30:36.602694,-503
15:30:36.602694,-10753
15:30:36.602694,-1
15:30:36.602694,55
15:30:36.602694,4096
15:30:36.602694,0
15:30:36.602694,76
15:30:36.602694,20736
15:30:36.602694,0
15:30:36.602694,59
15:30:36.602694,23808
15:30:36.602694,0
15:30:36.602694,115
15:30:36.602694,26368
15:30:36.602694,0
15:30:36.602694,115
15:30:37.187370,139
15:30:37.187370,-26368
15:30:37.187370,0
15:30:37.187370,170
15:30:37.187370,-17152
15:30:37.187370,0
15:30:37.187370,206
15:30:37.187370,-7424
15:30:37.187370,0
15:30:37.187370,254
15:30:37.187370,6656
15:30:37.187370,1
15:30:37.187370,306
15:30:37.187370,17152
15:30:37.187370,1
15:30:37.187370,335
15:30:37.187370,22016
15:30:37.187370,1
15:30:37.187370,337
15:30:37.187370,16640
15:30:37.187370,1
15:30:37.187370,289
15:30:37.187370,-4864
15:30:37.187370,0
15:30:37.187370,162
15:30:37.187370,22016
15:30:37.187370,0
15:30:37.187370,26
15:30:37.187370,-3584
15:30:37.187370,-1
15:30:37.187370,-45
15:30:37.187370,-16897
15:30:37.187370,-1
15:30:37.187370,-76
15:30:37.187370,-19201
15:30:37.187370,-1
15:30:37.187370,-71
15:30:37.187370,-17921
15:30:37.187370,-1
15:30:37.187370,-69
15:30:37.187370,-15617
15:30:37.187370,-1
15:30:37.187370,-55
15:30:37.187370,-11777
15:30:37.187370,-1
15:30:37.187370,-31
15:30:37.187370,-5633
15:30:37.187370,-1
15:30:37.187370,-31
15:30:37.187370,-6401
15:30:37.187370,-1
15:30:37.187370,-11
15:30:37.187370,-3329
15:30:37.187370,-1
15:30:37.187370,-21
15:30:37.187370,-5121
15:30:37.187370,-1
15:30:37.187370,-19
15:30:37.187370,-3841
15:30:37.187370,-1
15:30:37.187370,-11
15:30:37.187370,-3329
15:30:37.187370,-1
15:30:37.187370,-14
15:30:37.187370,-3841
15:30:37.187370,-1
15:30:37.187370,-19
15:30:37.187370,-3841
15:30:37.187370,-1
15:30:37.187370,-7
15:30:37.187370,-2049
15:30:37.187370,-1
15:30:37.187370,-11
15:30:37.187370,-257
15:30:37.187370,-1
15:30:37.187370,4
15:30:37.187370,1024
15:30:37.187370,0
15:30:37.187370,4
15:30:37.187370,2816
15:30:37.187370,0
15:30:37.187370,19
15:30:37.187370,7168
15:30:37.187370,0
15:30:37.187370,45
15:30:37.187370,16384
15:30:37.187370,0
15:30:37.187370,62
15:30:37.187370,10240
15:30:37.187370,0
15:30:37.187370,23
15:30:37.187370,4096
15:30:37.187370,0
15:30:37.187370,9
15:30:37.187370,512
15:30:37.187370,0
15:30:37.187370,0
15:30:37.187370,-512
15:30:37.187370,-1
15:30:37.187370,4
15:30:37.187370,2304
15:30:37.187370,0
15:30:37.187370,11
15:30:37.187370,12032
15:30:37.187370,0
15:30:37.187370,150
15:30:37.187370,24576
15:30:37.187370,1
15:30:37.187370,596
15:30:37.727036,738
15:30:37.727036,-1792
15:30:37.727036,1
15:30:37.727036,-206
15:30:37.727036,13567
15:30:37.727036,-3
15:30:37.727036,-445
15:30:37.727036,-3841
15:30:37.727036,-1
15:30:37.727036,28
15:30:37.727036,4864
15:30:37.727036,0
15:30:37.727036,93
15:30:37.727036,23296
15:30:37.727036,0
15:30:37.727036,74
15:30:37.727036,29440
15:30:37.727036,0
15:30:37.727036,134
15:30:37.727036,31744
15:30:37.727036,0
15:30:37.727036,131
15:30:37.727036,-27136
15:30:37.727036,0
15:30:37.727036,170
15:30:37.727036,-17152
15:30:37.727036,0
15:30:37.727036,206
15:30:37.727036,-8704
15:30:37.727036,0
15:30:37.727036,242
15:30:37.727036,1792
15:30:37.727036,1
15:30:37.727036,289
15:30:37.727036,15360
15:30:37.727036,1
15:30:37.727036,330
15:30:37.727036,18944
15:30:37.727036,1
15:30:37.727036,330
15:30:37.727036,18944
15:30:37.727036,1
15:30:37.727036,311
15:30:37.727036,2560
15:30:37.727036,1
15:30:37.727036,206
15:30:37.727036,-30720
15:30:37.727036,0
15:30:37.727036,62
15:30:37.727036,512
15:30:37.727036,0
15:30:37.727036,-33
15:30:37.727036,-15617
15:30:37.727036,-1
15:30:37.727036,-81
15:30:37.727036,-20993
15:30:37.727036,-1
15:30:37.727036,-81
15:30:37.727036,-20481
15:30:37.727036,-1
15:30:37.727036,-81
15:30:37.727036,-18689
15:30:37.727036,-1
15:30:37.727036,-62
15:30:37.727036,-13825
15:30:37.727036,-1
15:30:37.727036,-45
15:30:37.727036,-8705
15:30:37.727036,-1
15:30:37.727036,-31
15:30:37.727036,-7681
15:30:37.727036,-1
15:30:37.727036,-28
15:30:37.727036,-5633
15:30:37.727036,-1
15:30:37.727036,-21
15:30:37.727036,-5633
15:30:37.727036,-1
15:30:37.727036,-21
15:30:37.727036,-5121
15:30:37.727036,-1
15:30:37.727036,-21
15:30:37.727036,-5633
15:30:37.727036,-1
15:30:37.727036,-28
15:30:37.727036,-6913
15:30:37.727036,-1
15:30:37.727036,-23
15:30:37.727036,-5633
15:30:37.727036,-1
15:30:37.727036,-23
15:30:37.727036,-6401
15:30:37.727036,-1
15:30:37.727036,-26
15:30:37.727036,-5121
15:30:37.727036,-1
15:30:37.727036,-19
15:30:37.727036,-5121
15:30:37.727036,-1
15:30:37.727036,-16
15:30:37.727036,-2049
15:30:37.727036,-1
15:30:37.727036,-4
15:30:37.727036,-257
15:30:37.727036,-1
15:30:37.727036,7
15:30:37.727036,6656
15:30:37.727036,0
15:30:37.727036,47
15:30:38.312673,52
15:30:38.312673,8960
15:30:38.312673,0
15:30:38.312673,14
15:30:38.312673,512
15:30:38.312673,0
15:30:38.312673,-7
15:30:38.312673,-3329
15:30:38.312673,-1
15:30:38.312673,-16
15:30:38.312673,-2049
15:30:38.312673,-1
15:30:38.312673,0
15:30:38.312673,512
15:30:38.312673,0
15:30:38.312673,2
15:30:38.312673,7168
15:30:38.312673,0
15:30:38.312673,112
15:30:38.312673,6656
15:30:38.312673,1
15:30:38.312673,517
15:30:38.312673,-19456
15:30:38.312673,2
15:30:38.312673,558
15:30:38.312673,-18176
15:30:38.312673,-1
15:30:38.312673,-678
15:30:38.312673,-7169
15:30:38.312673,-3
15:30:38.312673,-69
15:30:38.312673,11263
15:30:38.312673,0
15:30:38.312673,2
15:30:38.312673,16384
15:30:38.312673,0
15:30:38.312673,83
15:30:38.312673,14592
15:30:38.312673,0
15:30:38.312673,79
15:30:38.312673,25088
15:30:38.312673,0
15:30:38.312673,95
15:30:38.312673,28160
15:30:38.312673,0
15:30:38.312673,134
15:30:38.312673,-27648
15:30:38.312673,0
15:30:38.312673,160
15:30:38.312673,-20224
15:30:38.312673,0
15:30:38.312673,201
15:30:38.312673,-7936
15:30:38.312673,0
15:30:38.312673,251
15:30:38.312673,5632
15:30:38.312673,1
15:30:38.312673,299
15:30:38.312673,15360
15:30:38.312673,1
15:30:38.312673,321
15:30:38.312673,16640
15:30:38.312673,1
15:30:38.312673,318
15:30:38.312673,12288
15:30:38.312673,1
15:30:38.312673,263
15:30:38.312673,-13568
15:30:38.312673,0
15:30:38.312673,134
15:30:38.312673,16384
15:30:38.312673,0
15:30:38.312673,7
15:30:38.312673,-9728
15:30:38.312673,-1
15:30:38.312673,-69
15:30:38.312673,-21761
15:30:38.312673,-1
15:30:38.312673,-95
15:30:38.312673,-24833
15:30:38.312673,-1
15:30:38.312673,-93
15:30:38.312673,-21761
15:30:38.312673,-1
15:30:38.312673,-79
15:30:38.312673,-19201
15:30:38.312673,-1
15:30:38.312673,-71
15:30:38.312673,-15617
15:30:38.312673,-1
15:30:38.312673,-47
15:30:38.312673,-11265
15:30:38.312673,-1
15:30:38.312673,-43
15:30:38.312673,-9985
15:30:38.312673,-1
15:30:38.312673,-35
15:30:38.312673,-8705
15:30:38.312673,-1
15:30:38.312673,-33
15:30:38.312673,-7681
15:30:38.312673,-1
15:30:38.312673,-31
15:30:38.312673,-7681
15:30:38.312673,-1
15:30:38.312673,-31
15:30:38.312673,-7681
15:30:38.312673,-1
15:30:38.312673,-28
15:30:38.852338,-28
15:30:38.852338,-6913
15:30:38.852338,-1
15:30:38.852338,-28
15:30:38.852338,-6913
15:30:38.852338,-1
15:30:38.852338,-26
15:30:38.852338,-6401
15:30:38.852338,-1
15:30:38.852338,-23
15:30:38.852338,-5633
15:30:38.852338,-1
15:30:38.852338,-19
15:30:38.852338,-3329
15:30:38.852338,-1
15:30:38.852338,-7
15:30:38.852338,255
15:30:38.852338,0
15:30:38.852338,9
15:30:38.852338,5376
15:30:38.852338,0
15:30:38.852338,35
15:30:38.852338,14080
15:30:38.852338,0
15:30:38.852338,57
15:30:38.852338,8448
15:30:38.852338,0
15:30:38.852338,14
15:30:38.852338,2304
15:30:38.852338,0
15:30:38.852338,0
15:30:38.852338,-2304
15:30:38.852338,-1
15:30:38.852338,-9
15:30:38.852338,-257
15:30:38.852338,-1
15:30:38.852338,0
15:30:38.852338,0
15:30:38.852338,0
15:30:38.852338,7
15:30:38.852338,10240
15:30:38.852338,0
15:30:38.852338,146
15:30:38.852338,22784
15:30:38.852338,1
15:30:38.852338,577
15:30:38.852338,-16384
15:30:38.852338,2
15:30:38.852338,455
15:30:38.852338,3072
15:30:38.852338,-1
15:30:38.852338,-685
15:30:38.852338,-30977
15:30:38.852338,-2
15:30:38.852338,19
15:30:38.852338,9728
15:30:38.852338,0
15:30:38.852338,16
15:30:38.852338,20224
15:30:38.852338,0
15:30:38.852338,76
15:30:38.852338,15872
15:30:38.852338,0
15:30:38.852338,86
15:30:38.852338,25600
15:30:38.852338,0
15:30:38.852338,103
15:30:38.852338,30464
15:30:38.852338,0
15:30:38.852338,136
15:30:38.852338,-27648
15:30:38.852338,0
15:30:38.852338,162
15:30:38.852338,-18432
15:30:38.852338,0
15:30:38.852338,206
15:30:38.852338,-7424
15:30:38.852338,0
15:30:38.852338,254
15:30:38.852338,6144
15:30:38.852338,1
15:30:38.852338,301
15:30:38.852338,15360
15:30:38.852338,1
15:30:38.852338,323
15:30:38.852338,17664
15:30:38.852338,1
15:30:38.852338,321
15:30:38.852338,11008
15:30:38.852338,1
15:30:38.852338,258
15:30:38.852338,-15872
15:30:38.852338,0
15:30:38.852338,119
15:30:38.852338,13312
15:30:38.852338,0
15:30:38.852338,-2
15:30:38.852338,-10753
15:30:38.852338,-1
15:30:38.852338,-71
15:30:38.852338,-22273
15:30:38.852338,-1
15:30:38.852338,-95
15:30:38.852338,-24065
15:30:38.852338,-1
15:30:38.852338,-95
15:30:38.852338,-22273
15:30:38.852338,-1
15:30:38.852338,-81
15:30:39.392004,-74
15:30:39.392004,-16129
15:30:39.392004,-1
15:30:39.392004,-57
15:30:39.392004,-13057
15:30:39.392004,-1
15:30:39.392004,-45
15:30:39.392004,-9985
15:30:39.392004,-1
15:30:39.392004,-38
15:30:39.392004,-8705
15:30:39.392004,-1
15:30:39.392004,-31
15:30:39.392004,-5633
15:30:39.392004,-1
15:30:39.392004,-23
15:30:39.392004,-5633
15:30:39.392004,-1
15:30:39.392004,-23
15:30:39.392004,-5633
15:30:39.392004,-1
15:30:39.392004,-23
15:30:39.392004,-5633
15:30:39.392004,-1
15:30:39.392004,-26
15:30:39.392004,-5633
15:30:39.392004,-1
15:30:39.392004,-23
15:30:39.392004,-5633
15:30:39.392004,-1
15:30:39.392004,-19
15:30:39.392004,-4609
15:30:39.392004,-1
15:30:39.392004,-16
15:30:39.392004,-2561
15:30:39.392004,-1
15:30:39.392004,-11
15:30:39.392004,-2561
15:30:39.392004,-1
15:30:39.392004,-2
15:30:39.392004,767
15:30:39.392004,0
15:30:39.392004,2
15:30:39.392004,1792
15:30:39.392004,0
15:30:39.392004,19
15:30:39.392004,8448
15:30:39.392004,0
15:30:39.392004,52
15:30:39.392004,15104
15:30:39.392004,0
15:30:39.392004,43
15:30:39.392004,5888
15:30:39.392004,0
15:30:39.392004,11
15:30:39.392004,512
15:30:39.392004,0
15:30:39.392004,-4
15:30:39.392004,-2049
15:30:39.392004,-1
15:30:39.392004,-7
15:30:39.392004,-769
15:30:39.392004,-1
15:30:39.392004,-4
15:30:39.392004,-257
15:30:39.392004,-1
15:30:39.392004,19
15:30:39.392004,23808
15:30:39.392004,0
15:30:39.392004,254
15:30:39.392004,-8448
15:30:39.392004,1
15:30:39.392004,675
15:30:39.392004,27136
15:30:39.392004,2
15:30:39.392004,62
15:30:39.392004,-20224
15:30:39.392004,-3
15:30:39.392004,-568
15:30:39.392004,-24833
15:30:39.392004,-1
15:30:39.392004,57
15:30:39.392004,1024
15:30:39.392004,0
15:30:39.392004,55
15:30:39.392004,21248
15:30:39.392004,0
15:30:39.392004,57
15:30:39.392004,18944
15:30:39.392004,0
15:30:39.392004,98
15:30:39.392004,25600
15:30:39.392004,0
15:30:39.392004,107
15:30:39.392004,32512
15:30:39.392004,0
15:30:39.392004,139
15:30:39.392004,-27136
15:30:39.392004,0
15:30:39.392004,170
15:30:39.392004,-15872
15:30:39.392004,0
15:30:39.392004,213
15:30:39.392004,-4864
15:30:39.392004,0
15:30:39.392004,263
15:30:39.392004,7936
15:30:39.392004,1
15:30:39.392004,304
15:30:39.932665,316
15:30:39.932665,16640
15:30:39.932665,1
15:30:39.932665,318
15:30:39.932665,12800
15:30:39.932665,1
15:30:39.932665,278
15:30:39.932665,-7424
15:30:39.932665,0
15:30:39.932665,162
15:30:39.932665,24320
15:30:39.932665,0
15:30:39.932665,31
15:30:39.932665,-4864
15:30:39.932665,-1
15:30:39.932665,-47
15:30:39.932665,-16897
15:30:39.932665,-1
15:30:39.932665,-81
15:30:39.932665,-20993
15:30:39.932665,-1
15:30:39.932665,-81
15:30:39.932665,-19201
15:30:39.932665,-1
15:30:39.932665,-69
15:30:39.932665,-15617
15:30:39.932665,-1
15:30:39.932665,-55
15:30:39.932665,-12545
15:30:39.932665,-1
15:30:39.932665,-43
15:30:39.932665,-8705
15:30:39.932665,-1
15:30:39.932665,-31
15:30:39.932665,-7681
15:30:39.932665,-1
15:30:39.932665,-28
15:30:39.932665,-6401
15:30:39.932665,-1
15:30:39.932665,-23
15:30:39.932665,-5633
15:30:39.932665,-1
15:30:39.932665,-21
15:30:39.932665,-4609
15:30:39.932665,-1
15:30:39.932665,-21
15:30:39.932665,-5633
15:30:39.932665,-1
15:30:39.932665,-23
15:30:39.932665,-5121
15:30:39.932665,-1
15:30:39.932665,-23
15:30:39.932665,-6401
15:30:39.932665,-1
15:30:39.932665,-19
15:30:39.932665,-2561
15:30:39.932665,-1
15:30:39.932665,-11
15:30:39.932665,-3329
15:30:39.932665,-1
15:30:39.932665,-14
15:30:39.932665,-2561
15:30:39.932665,-1
15:30:39.932665,-4
15:30:39.932665,1279
15:30:39.932665,0
15:30:39.932665,4
15:30:39.932665,1792
15:30:39.932665,0
15:30:39.932665,19
15:30:39.932665,8960
15:30:39.932665,0
15:30:39.932665,52
15:30:39.932665,15104
15:30:39.932665,0
15:30:39.932665,50
15:30:39.932665,6656
15:30:39.932665,0
15:30:39.932665,14
15:30:39.932665,4096
15:30:39.932665,0
15:30:39.932665,4
15:30:39.932665,-2304
15:30:39.932665,-1
15:30:39.932665,-4
15:30:39.932665,767
15:30:39.932665,0
15:30:39.932665,2
15:30:39.932665,1024
15:30:39.932665,0
15:30:39.932665,23
15:30:39.932665,22016
15:30:39.932665,0
15:30:39.932665,234
15:30:39.932665,-14592
15:30:39.932665,1
15:30:39.932665,663
15:30:39.932665,-32256
15:30:39.932665,2
15:30:39.932665,115
15:30:39.932665,-19200
15:30:39.932665,-3
15:30:39.932665,-632
15:30:39.932665,28415
15:30:39.932665,-1
15:30:39.932665,59
15:30:39.932665,3584
15:30:39.932665,0
15:30:39.932665,59
15:30:40.562278,100
15:30:40.562278,22016
15:30:40.562278,0
15:30:40.562278,98
15:30:40.562278,31232
15:30:40.562278,0
15:30:40.562278,122
15:30:40.562278,-31232
15:30:40.562278,0
15:30:40.562278,150
15:30:40.562278,-24576
15:30:40.562278,0
15:30:40.562278,177
15:30:40.562278,-13568
15:30:40.562278,0
15:30:40.562278,220
15:30:40.562278,-4864
15:30:40.562278,0
15:30:40.562278,261
15:30:40.562278,7936
15:30:40.562278,1
15:30:40.562278,309
15:30:40.562278,18432
15:30:40.562278,1
15:30:40.562278,342
15:30:40.562278,23296
15:30:40.562278,1
15:30:40.562278,347
15:30:40.562278,21504
15:30:40.562278,1
15:30:40.562278,316
15:30:40.562278,1792
15:30:40.562278,1
15:30:40.562278,189
15:30:40.562278,29440
15:30:40.562278,0
15:30:40.562278,52
15:30:40.562278,512
15:30:40.562278,0
15:30:40.562278,-40
15:30:40.562278,-15617
15:30:40.562278,-1
15:30:40.562278,-67
15:30:40.562278,-17921
15:30:40.562278,-1
15:30:40.562278,-69
15:30:40.562278,-17409
15:30:40.562278,-1
15:30:40.562278,-69
15:30:40.562278,-15617
15:30:40.562278,-1
15:30:40.562278,-50
15:30:40.562278,-11777
15:30:40.562278,-1
15:30:40.562278,-43
15:30:40.562278,-7681
15:30:40.562278,-1
15:30:40.562278,-21
15:30:40.562278,-3841
15:30:40.562278,-1
15:30:40.562278,-19
15:30:40.562278,-4609
15:30:40.562278,-1
15:30:40.562278,-16
15:30:40.562278,-4609
15:30:40.562278,-1
15:30:40.562278,-19
15:30:40.562278,-3329
15:30:40.562278,-1
15:30:40.562278,-14
15:30:40.562278,-4609
15:30:40.562278,-1
15:30:40.562278,-19
15:30:40.562278,-2561
15:30:40.562278,-1
15:30:40.562278,-7
15:30:40.562278,-3329
15:30:40.562278,-1
15:30:40.562278,-14
15:30:40.562278,-2049
15:30:40.562278,-1
15:30:40.562278,-9
15:30:40.562278,767
15:30:40.562278,0
15:30:40.562278,11
15:30:40.562278,3584
15:30:40.562278,0
15:30:40.562278,31
15:30:40.562278,14080
15:30:40.562278,0
15:30:40.562278,59
15:30:40.562278,13312
15:30:40.562278,0
15:30:40.562278,35
15:30:40.562278,1792
15:30:40.562278,0
15:30:40.562278,-9
15:30:40.562278,-257
15:30:40.562278,-1
15:30:40.562278,2
15:30:40.562278,-1792
15:30:40.562278,-1
15:30:40.562278,-7
15:30:40.562278,255
15:30:40.562278,0
15:30:40.562278,4
15:30:40.562278,7168
15:30:40.562278,0
15:30:40.562278,122
15:30:41.146916,313
15:30:41.146916,13056
15:30:41.146916,2
15:30:41.146916,735
15:30:41.146916,22784
15:30:41.146916,2
15:30:41.146916,-28
15:30:41.146916,25855
15:30:41.146916,-3
15:30:41.146916,-563
15:30:41.146916,-20481
15:30:41.146916,-1
15:30:41.146916,35
15:30:41.146916,512
15:30:41.146916,0
15:30:41.146916,76
15:30:41.146916,24320
15:30:41.146916,0
15:30:41.146916,76
15:30:41.146916,25600
15:30:41.146916,0
15:30:41.146916,117
15:30:41.146916,29952
15:30:41.146916,0
15:30:41.146916,134
15:30:41.146916,-26368
15:30:41.146916,0
15:30:41.146916,165
15:30:41.146916,-18944
15:30:41.146916,0
15:30:41.146916,201
15:30:41.146916,-9216
15:30:41.146916,0
15:30:41.146916,244
15:30:41.146916,2560
15:30:41.146916,1
15:30:41.146916,289
15:30:41.146916,14080
15:30:41.146916,1
15:30:41.146916,325
15:30:41.146916,21504
15:30:41.146916,1
15:30:41.146916,340
15:30:41.146916,18944
15:30:41.146916,1
15:30:41.146916,311
15:30:41.146916,5632
15:30:41.146916,1
15:30:41.146916,218
15:30:41.146916,-27648
15:30:41.146916,0
15:30:41.146916,83
15:30:41.146916,4864
15:30:41.146916,0
15:30:41.146916,-33
15:30:41.146916,-16129
15:30:41.146916,-1
15:30:41.146916,-76
15:30:41.146916,-19969
15:30:41.146916,-1
15:30:41.146916,-88
15:30:41.146916,-22273
15:30:41.146916,-1
15:30:41.146916,-76
15:30:41.146916,-17409
15:30:41.146916,-1
15:30:41.146916,-64
15:30:41.146916,-13825
15:30:41.146916,-1
15:30:41.146916,-50
15:30:41.146916,-10753
15:30:41.146916,-1
15:30:41.146916,-33
15:30:41.146916,-6913
15:30:41.146916,-1
15:30:41.146916,-31
15:30:41.146916,-8193
15:30:41.146916,-1
15:30:41.146916,-28
15:30:41.146916,-4609
15:30:41.146916,-1
15:30:41.146916,-21
15:30:41.146916,-6913
15:30:41.146916,-1
15:30:41.146916,-26
15:30:41.146916,-5121
15:30:41.146916,-1
15:30:41.146916,-21
15:30:41.146916,-5121
15:30:41.146916,-1
15:30:41.146916,-26
15:30:41.146916,-6401
15:30:41.146916,-1
15:30:41.146916,-23
15:30:41.146916,-5121
15:30:41.146916,-1
15:30:41.146916,-21
15:30:41.146916,-3841
15:30:41.146916,-1
15:30:41.146916,-11
15:30:41.146916,-1537
15:30:41.146916,-1
15:30:41.146916,-4
15:30:41.146916,-257
15:30:41.146916,-1
15:30:41.146916,2
15:30:41.146916,2304
15:30:41.146916,0
15:30:41.146916,21
15:30:41.687577,40
15:30:41.687577,15104
15:30:41.687577,0
15:30:41.687577,52
15:30:41.687577,7936
15:30:41.687577,0
15:30:41.687577,14
15:30:41.687577,1792
15:30:41.687577,0
15:30:41.687577,0
15:30:41.687577,-1792
15:30:41.687577,-1
15:30:41.687577,-9
15:30:41.687577,-769
15:30:41.687577,-1
15:30:41.687577,0
15:30:41.687577,0
15:30:41.687577,0
15:30:41.687577,7
15:30:41.687577,12800
15:30:41.687577,0
15:30:41.687577,167
15:30:41.687577,31232
15:30:41.687577,1
15:30:41.687577,608
15:30:41.687577,-18176
15:30:41.687577,2
15:30:41.687577,373
15:30:41.687577,-25088
15:30:41.687577,-2
15:30:41.687577,-707
15:30:41.687577,-16385
15:30:41.687577,-2
15:30:41.687577,35
15:30:41.687577,5888
15:30:41.687577,0
15:30:41.687577,28
15:30:41.687577,23296
15:30:41.687577,0
15:30:41.687577,76
15:30:41.687577,17664
15:30:41.687577,0
15:30:41.687577,100
15:30:41.687577,27392
15:30:41.687577,0
15:30:41.687577,107
15:30:41.687577,32512
15:30:41.687577,0
15:30:41.687577,141
15:30:41.687577,-27136
15:30:41.687577,0
15:30:41.687577,170
15:30:41.687577,-15872
15:30:41.687577,0
15:30:41.687577,215
15:30:41.687577,-4864
15:30:41.687577,0
15:30:41.687577,261
15:30:41.687577,7424
15:30:41.687577,1
15:30:41.687577,306
15:30:41.687577,17152
15:30:41.687577,1
15:30:41.687577,330
15:30:41.687577,18432
15:30:41.687577,1
15:30:41.687577,318
15:30:41.687577,11520
15:30:41.687577,1
15:30:41.687577,258
15:30:41.687577,-16640
15:30:41.687577,0
15:30:41.687577,117
15:30:41.687577,12800
15:30:41.687577,0
15:30:41.687577,-2
15:30:41.687577,-9985
15:30:41.687577,-1
15:30:41.687577,-71
15:30:41.687577,-21761
15:30:41.687577,-1
15:30:41.687577,-91
15:30:41.687577,-23041
15:30:41.687577,-1
15:30:41.687577,-88
15:30:41.687577,-20993
15:30:41.687577,-1
15:30:41.687577,-79
15:30:41.687577,-16897
15:30:41.687577,-1
15:30:41.687577,-57
15:30:41.687577,-11777
15:30:41.687577,-1
15:30:41.687577,-43
15:30:41.687577,-9985
15:30:41.687577,-1
15:30:41.687577,-38
15:30:41.687577,-8705
15:30:41.687577,-1
15:30:41.687577,-31
15:30:41.687577,-6913
15:30:41.687577,-1
15:30:41.687577,-28
15:30:41.687577,-7681
15:30:41.687577,-1
15:30:41.687577,-33
15:30:41.687577,-7681
15:30:41.687577,-1
15:30:41.687577,-31
15:30:42.227243,-31
15:30:42.227243,-6401
15:30:42.227243,-1
15:30:42.227243,-26
15:30:42.227243,-7681
15:30:42.227243,-1
15:30:42.227243,-31
15:30:42.227243,-6913
15:30:42.227243,-1
15:30:42.227243,-23
15:30:42.227243,-4609
15:30:42.227243,-1
15:30:42.227243,-14
15:30:42.227243,-2049
15:30:42.227243,-1
15:30:42.227243,-4
15:30:42.227243,2559
15:30:42.227243,0
15:30:42.227243,31
15:30:42.227243,12032
15:30:42.227243,0
15:30:42.227243,45
15:30:42.227243,6656
15:30:42.227243,0
15:30:42.227243,0
15:30:42.227243,-4864
15:30:42.227243,-1
15:30:42.227243,-16
15:30:42.227243,-3329
15:30:42.227243,-1
15:30:42.227243,-19
15:30:42.227243,-3841
15:30:42.227243,-1
15:30:42.227243,-11
15:30:42.227243,-2561
15:30:42.227243,-1
15:30:42.227243,7
15:30:42.227243,18176
15:30:42.227243,0
15:30:42.227243,215
15:30:42.227243,-19456
15:30:42.227243,1
15:30:42.227243,647
15:30:42.227243,30720
15:30:42.227243,2
15:30:42.227243,141
15:30:42.227243,-8192
15:30:42.227243,-3
15:30:42.227243,-618
15:30:42.227243,27391
15:30:42.227243,-1
15:30:42.227243,59
15:30:42.227243,0
15:30:42.227243,0
15:30:42.227243,38
15:30:42.227243,19456
15:30:42.227243,0
15:30:42.227243,50
15:30:42.227243,15104
15:30:42.227243,0
15:30:42.227243,88
15:30:42.227243,23296
15:30:42.227243,0
15:30:42.227243,98
15:30:42.227243,29952
15:30:42.227243,0
15:30:42.227243,129
15:30:42.227243,-28160
15:30:42.227243,0
15:30:42.227243,167
15:30:42.227243,-17920
15:30:42.227243,0
15:30:42.227243,208
15:30:42.227243,-6144
15:30:42.227243,0
15:30:42.227243,258
15:30:42.227243,6656
15:30:42.227243,1
15:30:42.227243,301
15:30:42.227243,15360
15:30:42.227243,1
15:30:42.227243,318
15:30:42.227243,14080
15:30:42.227243,1
15:30:42.227243,297
15:30:42.227243,2560
15:30:42.227243,1
15:30:42.227243,213
15:30:42.227243,-28160
15:30:42.227243,0
15:30:42.227243,76
15:30:42.227243,4864
15:30:42.227243,0
15:30:42.227243,-23
15:30:42.227243,-14337
15:30:42.227243,-1
15:30:42.227243,-76
15:30:42.227243,-20993
15:30:42.227243,-1
15:30:42.227243,-86
15:30:42.227243,-21761
15:30:42.227243,-1
15:30:42.227243,-83
15:30:42.227243,-19201
15:30:42.227243,-1
15:30:42.227243,-69
15:30:42.227243,-15617
15:30:42.227243,-1
15:30:42.227243,-55
15:30:42.766912,-47
15:30:42.766912,-10753
15:30:42.766912,-1
15:30:42.766912,-38
15:30:42.766912,-8193
15:30:42.766912,-1
15:30:42.766912,-28
15:30:42.766912,-6913
15:30:42.766912,-1
15:30:42.766912,-28
15:30:42.766912,-6401
15:30:42.766912,-1
15:30:42.766912,-26
15:30:42.766912,-5121
15:30:42.766912,-1
15:30:42.766912,-16
15:30:42.766912,-3329
15:30:42.766912,-1
15:30:42.766912,-16
15:30:42.766912,-3841
15:30:42.766912,-1
15:30:42.766912,-16
15:30:42.766912,-3841
15:30:42.766912,-1
15:30:42.766912,-14
15:30:42.766912,-3329
15:30:42.766912,-1
15:30:42.766912,-14
15:30:42.766912,-2561
15:30:42.766912,-1
15:30:42.766912,-11
15:30:42.766912,-2049
15:30:42.766912,-1
15:30:42.766912,0
15:30:42.766912,1792
15:30:42.766912,0
15:30:42.766912,9
15:30:42.766912,4096
15:30:42.766912,0
15:30:42.766912,28
15:30:42.766912,12032
15:30:42.766912,0
15:30:42.766912,62
15:30:42.766912,14080
15:30:42.766912,0
15:30:42.766912,33
15:30:42.766912,4864
15:30:42.766912,0
15:30:42.766912,9
15:30:42.766912,0
15:30:42.766912,0
15:30:42.766912,-4
15:30:42.766912,-769
15:30:42.766912,-1
15:30:42.766912,-2
15:30:42.766912,-257
15:30:42.766912,-1
15:30:42.766912,0
15:30:42.766912,2304
15:30:42.766912,0
15:30:42.766912,59
15:30:42.766912,-18944
15:30:42.766912,0
15:30:42.766912,383
15:30:42.766912,24576
15:30:42.766912,2
15:30:42.766912,697
15:30:42.766912,23808
15:30:42.766912,1
15:30:42.766912,-378
15:30:42.766912,25855
15:30:42.766912,-3
15:30:42.766912,-266
15:30:42.766912,12287
15:30:42.766912,0
15:30:42.766912,21
15:30:42.766912,8448
15:30:42.766912,0
15:30:42.766912,83
15:30:42.766912,16384
15:30:42.766912,0
15:30:42.766912,62
15:30:42.766912,23808
15:30:42.766912,0
15:30:42.766912,103
15:30:42.766912,27392
15:30:42.766912,0
15:30:42.766912,124
15:30:42.766912,-29952
15:30:42.766912,0
15:30:42.766912,148
15:30:42.766912,-24064
15:30:42.766912,0
15:30:42.766912,186
15:30:42.766912,-12800
15:30:42.766912,0
15:30:42.766912,230
15:30:42.766912,512
15:30:42.766912,1
15:30:42.766912,280
15:30:42.766912,10496
15:30:42.766912,1
15:30:42.766912,311
15:30:42.766912,15872
15:30:42.766912,1
15:30:42.766912,318
15:30:42.766912,15360
15:30:42.766912,1
15:30:42.766912,299
15:30:43.306577,251
15:30:43.306577,-19712
15:30:43.306577,0
15:30:43.306577,112
15:30:43.306577,14080
15:30:43.306577,0
15:30:43.306577,4
15:30:43.306577,-8448
15:30:43.306577,-1
15:30:43.306577,-55
15:30:43.306577,-16129
15:30:43.306577,-1
15:30:43.306577,-71
15:30:43.306577,-17921
15:30:43.306577,-1
15:30:43.306577,-69
15:30:43.306577,-17409
15:30:43.306577,-1
15:30:43.306577,-62
15:30:43.306577,-12545
15:30:43.306577,-1
15:30:43.306577,-38
15:30:43.306577,-6913
15:30:43.306577,-1
15:30:43.306577,-26
15:30:43.306577,-6401
15:30:43.306577,-1
15:30:43.306577,-19
15:30:43.306577,-2049
15:30:43.306577,-1
15:30:43.306577,-14
15:30:43.306577,-4609
15:30:43.306577,-1
15:30:43.306577,-14
15:30:43.306577,-2049
15:30:43.306577,-1
15:30:43.306577,-11
15:30:43.306577,-2049
15:30:43.306577,-1
15:30:43.306577,-9
15:30:43.306577,-2561
15:30:43.306577,-1
15:30:43.306577,-16
15:30:43.306577,-3329
15:30:43.306577,-1
15:30:43.306577,-9
15:30:43.306577,-2561
15:30:43.306577,-1
15:30:43.306577,-16
15:30:43.306577,-3329
15:30:43.306577,-1
15:30:43.306577,-9
15:30:43.306577,-769
15:30:43.306577,-1
15:30:43.306577,0
15:30:43.306577,2816
15:30:43.306577,0
15:30:43.306577,21
15:30:43.306577,6656
15:30:43.306577,0
15:30:43.306577,40
15:30:43.306577,15872
15:30:43.306577,0
15:30:43.306577,69
15:30:43.306577,12800
15:30:43.306577,0
15:30:43.306577,23
15:30:43.306577,2816
15:30:43.306577,0
15:30:43.306577,9
15:30:43.306577,512
15:30:43.306577,0
15:30:43.306577,-4
15:30:43.306577,255
15:30:43.306577,0
15:30:43.306577,7
15:30:43.306577,512
15:30:43.306577,0
15:30:43.306577,2
15:30:43.306577,6656
15:30:43.306577,0
15:30:43.306577,103
15:30:43.306577,0
15:30:43.306577,1
15:30:43.306577,481
15:30:43.306577,-21248
15:30:43.306577,2
15:30:43.306577,654
15:30:43.306577,28160
15:30:43.306577,0
15:30:43.306577,-608
15:30:43.306577,31999
15:30:43.306577,-3
15:30:43.306577,-155
15:30:43.306577,11263
15:30:43.306577,0
15:30:43.306577,7
15:30:43.306577,16384
15:30:43.306577,0
15:30:43.306577,100
15:30:43.306577,19456
15:30:43.306577,0
15:30:43.306577,88
15:30:43.306577,28160
15:30:43.306577,0
15:30:43.306577,112
15:30:43.306577,31232
15:30:43.306577,0
15:30:43.306577,143
15:30:43.937186,155
15:30:43.937186,-23296
15:30:43.937186,0
15:30:43.937186,184
15:30:43.937186,-12288
15:30:43.937186,0
15:30:43.937186,234
15:30:43.937186,512
15:30:43.937186,1
15:30:43.937186,280
15:30:43.937186,13568
15:30:43.937186,1
15:30:43.937186,330
15:30:43.937186,20224
15:30:43.937186,1
15:30:43.937186,333
15:30:43.937186,20224
15:30:43.937186,1
15:30:43.937186,323
15:30:43.937186,9216
15:30:43.937186,1
15:30:43.937186,244
15:30:43.937186,-20992
15:30:43.937186,0
15:30:43.937186,93
15:30:43.937186,7936
15:30:43.937186,0
15:30:43.937186,-4
15:30:43.937186,-9473
15:30:43.937186,-1
15:30:43.937186,-64
15:30:43.937186,-18689
15:30:43.937186,-1
15:30:43.937186,-76
15:30:43.937186,-18689
15:30:43.937186,-1
15:30:43.937186,-71
15:30:43.937186,-16897
15:30:43.937186,-1
15:30:43.937186,-59
15:30:43.937186,-12545
15:30:43.937186,-1
15:30:43.937186,-43
15:30:43.937186,-8705
15:30:43.937186,-1
15:30:43.937186,-28
15:30:43.937186,-5121
15:30:43.937186,-1
15:30:43.937186,-19
15:30:43.937186,-3329
15:30:43.937186,-1
15:30:43.937186,-9
15:30:43.937186,-2561
15:30:43.937186,-1
15:30:43.937186,-11
15:30:43.937186,-2561
15:30:43.937186,-1
15:30:43.937186,-19
15:30:43.937186,-2561
15:30:43.937186,-1
15:30:43.937186,-4
15:30:43.937186,-2561
15:30:43.937186,-1
15:30:43.937186,-11
15:30:43.937186,-769
15:30:43.937186,-1
15:30:43.937186,-14
15:30:43.937186,-5633
15:30:43.937186,-1
15:30:43.937186,-14
15:30:43.937186,-769
15:30:43.937186,-1
15:30:43.937186,-2
15:30:43.937186,767
15:30:43.937186,0
15:30:43.937186,7
15:30:43.937186,1792
15:30:43.937186,0
15:30:43.937186,21
15:30:43.937186,12800
15:30:43.937186,0
15:30:43.937186,67
15:30:43.937186,15104
15:30:43.937186,0
15:30:43.937186,40
15:30:43.937186,4096
15:30:43.937186,0
15:30:43.937186,-2
15:30:43.937186,-769
15:30:43.937186,-1
15:30:43.937186,-2
15:30:43.937186,-2561
15:30:43.937186,-1
15:30:43.937186,-14
15:30:43.937186,-257
15:30:43.937186,-1
15:30:43.937186,-2
15:30:43.937186,255
15:30:43.937186,0
15:30:43.937186,35
15:30:43.937186,-32000
15:30:43.937186,0
15:30:43.937186,323
15:30:43.937186,17152
15:30:43.937186,2
15:30:43.937186,747
15:30:43.937186,8704
15:30:43.937186,2
15:30:43.937186,-150
15:30:44.476851,-721
15:30:44.476851,1279
15:30:44.476851,-2
15:30:44.476851,-52
15:30:44.476851,6911
15:30:44.476851,0
15:30:44.476851,7
15:30:44.476851,19456
15:30:44.476851,0
15:30:44.476851,79
15:30:44.476851,17152
15:30:44.476851,0
15:30:44.476851,98
15:30:44.476851,27392
15:30:44.476851,0
15:30:44.476851,100
15:30:44.476851,30464
15:30:44.476851,0
15:30:44.476851,143
15:30:44.476851,-25856
15:30:44.476851,0
15:30:44.476851,172
15:30:44.476851,-15872
15:30:44.476851,0
15:30:44.476851,213
15:30:44.476851,-3584
15:30:44.476851,0
15:30:44.476851,270
15:30:44.476851,8448
15:30:44.476851,1
15:30:44.476851,306
15:30:44.476851,17152
15:30:44.476851,1
15:30:44.476851,330
15:30:44.476851,20224
15:30:44.476851,1
15:30:44.476851,330
15:30:44.476851,13568
15:30:44.476851,1
15:30:44.476851,266
15:30:44.476851,-14080
15:30:44.476851,0
15:30:44.476851,129
15:30:44.476851,15104
15:30:44.476851,0
15:30:44.476851,4
15:30:44.476851,-9728
15:30:44.476851,-1
15:30:44.476851,-64
15:30:44.476851,-19969
15:30:44.476851,-1
15:30:44.476851,-88
15:30:44.476851,-23041
15:30:44.476851,-1
15:30:44.476851,-88
15:30:44.476851,-20993
15:30:44.476851,-1
15:30:44.476851,-74
15:30:44.476851,-16129
15:30:44.476851,-1
15:30:44.476851,-64
15:30:44.476851,-14337
15:30:44.476851,-1
15:30:44.476851,-45
15:30:44.476851,-9473
15:30:44.476851,-1
15:30:44.476851,-33
15:30:44.476851,-6913
15:30:44.476851,-1
15:30:44.476851,-28
15:30:44.476851,-6913
15:30:44.476851,-1
15:30:44.476851,-23
15:30:44.476851,-5121
15:30:44.476851,-1
15:30:44.476851,-21
15:30:44.476851,-5633
15:30:44.476851,-1
15:30:44.476851,-26
15:30:44.476851,-6401
15:30:44.476851,-1
15:30:44.476851,-26
15:30:44.476851,-6401
15:30:44.476851,-1
15:30:44.476851,-28
15:30:44.476851,-6913
15:30:44.476851,-1
15:30:44.476851,-28
15:30:44.476851,-5633
15:30:44.476851,-1
15:30:44.476851,-19
15:30:44.476851,-3329
15:30:44.476851,-1
15:30:44.476851,-11
15:30:44.476851,-1537
15:30:44.476851,-1
15:30:44.476851,2
15:30:44.476851,4096
15:30:44.476851,0
15:30:44.476851,38
15:30:44.476851,12800
15:30:44.476851,0
15:30:44.476851,33
15:30:44.476851,2304
15:30:44.476851,0
15:30:44.476851,-4
15:30:44.476851,-2049
15:30:44.476851,-1
15:30:44.476851,-16
15:30:45.017514,-21
15:30:45.017514,-5121
15:30:45.017514,-1
15:30:45.017514,-16
15:30:45.017514,-2561
15:30:45.017514,-1
15:30:45.017514,-11
15:30:45.017514,2047
15:30:45.017514,0
15:30:45.017514,79
15:30:45.017514,-6144
15:30:45.017514,0
15:30:45.017514,455
15:30:45.017514,-28672
15:30:45.017514,2
15:30:45.017514,623
15:30:45.017514,24320
15:30:45.017514,0
15:30:45.017514,-599
15:30:45.017514,-29953
15:30:45.017514,-3
15:30:45.017514,-139
15:30:45.017514,15359
15:30:45.017514,0
15:30:45.017514,4
15:30:45.017514,13312
15:30:45.017514,0
15:30:45.017514,91
15:30:45.017514,15872
15:30:45.017514,0
15:30:45.017514,76
15:30:45.017514,26368
15:30:45.017514,0
15:30:45.017514,105
15:30:45.017514,28672
15:30:45.017514,0
15:30:45.017514,131
15:30:45.017514,-28928
15:30:45.017514,0
15:30:45.017514,158
15:30:45.017514,-20224
15:30:45.017514,0
15:30:45.017514,198
15:30:45.017514,-8704
15:30:45.017514,0
15:30:45.017514,249
15:30:45.017514,4352
15:30:45.017514,1
15:30:45.017514,297
15:30:45.017514,15360
15:30:45.017514,1
15:30:45.017514,328
15:30:45.017514,18944
15:30:45.017514,1
15:30:45.017514,328
15:30:45.017514,13568
15:30:45.017514,1
15:30:45.017514,270
15:30:45.017514,-11776
15:30:45.017514,0
15:30:45.017514,134
15:30:45.017514,15872
15:30:45.017514,0
15:30:45.017514,2
15:30:45.017514,-11520
15:30:45.017514,-1
15:30:45.017514,-76
15:30:45.017514,-23041
15:30:45.017514,-1
15:30:45.017514,-95
15:30:45.017514,-24833
15:30:45.017514,-1
15:30:45.017514,-98
15:30:45.017514,-24065
15:30:45.017514,-1
15:30:45.017514,-88
15:30:45.017514,-20481
15:30:45.017514,-1
15:30:45.017514,-74
15:30:45.017514,-16129
15:30:45.017514,-1
15:30:45.017514,-57
15:30:45.017514,-13057
15:30:45.017514,-1
15:30:45.017514,-45
15:30:45.017514,-9985
15:30:45.017514,-1
15:30:45.017514,-38
15:30:45.017514,-8705
15:30:45.017514,-1
15:30:45.017514,-33
15:30:45.017514,-8193
15:30:45.017514,-1
15:30:45.017514,-33
15:30:45.017514,-8193
15:30:45.017514,-1
15:30:45.017514,-33
15:30:45.017514,-7681
15:30:45.017514,-1
15:30:45.017514,-31
15:30:45.017514,-8193
15:30:45.017514,-1
15:30:45.017514,-31
15:30:45.017514,-6401
15:30:45.017514,-1
15:30:45.017514,-28
15:30:45.017514,-6913
15:30:45.017514,-1
15:30:45.017514,-26
15:30:45.557182,-26
15:30:45.557182,-4609
15:30:45.557182,-1
15:30:45.557182,-11
15:30:45.557182,-2049
15:30:45.557182,-1
15:30:45.557182,-4
15:30:45.557182,2047
15:30:45.557182,0
15:30:45.557182,28
15:30:45.557182,13312
15:30:45.557182,0
15:30:45.557182,55
15:30:45.557182,7936
15:30:45.557182,0
15:30:45.557182,9
15:30:45.557182,1792
15:30:45.557182,0
15:30:45.557182,2
15:30:45.557182,-1792
15:30:45.557182,-1
15:30:45.557182,-9
15:30:45.557182,-769
15:30:45.557182,-1
15:30:45.557182,-4
15:30:45.557182,-769
15:30:45.557182,-1
15:30:45.557182,2
15:30:45.557182,12032
15:30:45.557182,0
15:30:45.557182,160
15:30:45.557182,26880
15:30:45.557182,1
15:30:45.557182,591
15:30:45.557182,-16896
15:30:45.557182,2
15:30:45.557182,409
15:30:45.557182,-12288
15:30:45.557182,-2
15:30:45.557182,-683
15:30:45.557182,-19969
15:30:45.557182,-2
15:30:45.557182,33
15:30:45.557182,7936
15:30:45.557182,0
15:30:45.557182,19
15:30:45.557182,20736
15:30:45.557182,0
15:30:45.557182,71
15:30:45.557182,14592
15:30:45.557182,0
15:30:45.557182,86
15:30:45.557182,25600
15:30:45.557182,0
15:30:45.557182,100
15:30:45.557182,29440
15:30:45.557182,0
15:30:45.557182,131
15:30:45.557182,-28928
15:30:45.557182,0
15:30:45.557182,160
15:30:45.557182,-19712
15:30:45.557182,0
15:30:45.557182,206
15:30:45.557182,-6144
15:30:45.557182,0
15:30:45.557182,258
15:30:45.557182,7424
15:30:45.557182,1
15:30:45.557182,304
15:30:45.557182,15872
15:30:45.557182,1
15:30:45.557182,330
15:30:45.557182,19712
15:30:45.557182,1
15:30:45.557182,321
15:30:45.557182,9728
15:30:45.557182,1
15:30:45.557182,249
15:30:45.557182,-19712
15:30:45.557182,0
15:30:45.557182,107
15:30:45.557182,11008
15:30:45.557182,0
15:30:45.557182,-11
15:30:45.557182,-12545
15:30:45.557182,-1
15:30:45.557182,-76
15:30:45.557182,-21761
15:30:45.557182,-1
15:30:45.557182,-88
15:30:45.557182,-22273
15:30:45.557182,-1
15:30:45.557182,-86
15:30:45.557182,-20481
15:30:45.557182,-1
15:30:45.557182,-76
15:30:45.557182,-17409
15:30:45.557182,-1
15:30:45.557182,-62
15:30:45.557182,-13057
15:30:45.557182,-1
15:30:45.557182,-47
15:30:45.557182,-10753
15:30:45.557182,-1
15:30:45.557182,-35
15:30:45.557182,-7681
15:30:45.557182,-1
15:30:45.557182,-28
15:30:46.142819,-26
15:30:46.142819,-5121
15:30:46.142819,-1
15:30:46.142819,-19
15:30:46.142819,-4609
15:30:46.142819,-1
15:30:46.142819,-14
15:30:46.142819,-1537
15:30:46.142819,-1
15:30:46.142819,-9
15:30:46.142819,-3329
15:30:46.142819,-1
15:30:46.142819,-14
15:30:46.142819,-2561
15:30:46.142819,-1
15:30:46.142819,-14
15:30:46.142819,-3329
15:30:46.142819,-1
15:30:46.142819,-11
15:30:46.142819,-2049
15:30:46.142819,-1
15:30:46.142819,-9
15:30:46.142819,-2049
15:30:46.142819,-1
15:30:46.142819,-4
15:30:46.142819,767
15:30:46.142819,0
15:30:46.142819,4
15:30:46.142819,2304
15:30:46.142819,0
15:30:46.142819,19
15:30:46.142819,8448
15:30:46.142819,0
15:30:46.142819,55
15:30:46.142819,15872
15:30:46.142819,0
15:30:46.142819,38
15:30:46.142819,4096
15:30:46.142819,0
15:30:46.142819,9
15:30:46.142819,0
15:30:46.142819,0
15:30:46.142819,-9
15:30:46.142819,-2049
15:30:46.142819,-1
15:30:46.142819,-7
15:30:46.142819,-769
15:30:46.142819,-1
15:30:46.142819,-4
15:30:46.142819,-257
15:30:46.142819,-1
15:30:46.142819,26
15:30:46.142819,28672
15:30:46.142819,0
15:30:46.142819,280
15:30:46.142819,-3072
15:30:46.142819,1
15:30:46.142819,683
15:30:46.142819,16128
15:30:46.142819,2
15:30:46.142819,-43
15:30:46.142819,-31745
15:30:46.142819,-3
15:30:46.142819,-503
15:30:46.142819,-11777
15:30:46.142819,-1
15:30:46.142819,50
15:30:46.142819,512
15:30:46.142819,0
15:30:46.142819,62
15:30:46.142819,20736
15:30:46.142819,0
15:30:46.142819,55
15:30:46.142819,18944
15:30:46.142819,0
15:30:46.142819,98
15:30:46.142819,25088
15:30:46.142819,0
15:30:46.142819,107
15:30:46.142819,31744
15:30:46.142819,0
15:30:46.142819,134
15:30:46.142819,-28160
15:30:46.142819,0
15:30:46.142819,165
15:30:46.142819,-17920
15:30:46.142819,0
15:30:46.142819,215
15:30:46.142819,-3072
15:30:46.142819,0
15:30:46.142819,266
15:30:46.142819,8448
15:30:46.142819,1
15:30:46.142819,306
15:30:46.142819,14592
15:30:46.142819,1
15:30:46.142819,323
15:30:46.142819,18432
15:30:46.142819,1
15:30:46.142819,313
15:30:46.142819,6144
15:30:46.142819,1
15:30:46.142819,222
15:30:46.142819,-27136
15:30:46.142819,0
15:30:46.142819,81
15:30:46.142819,5376
15:30:46.142819,0
15:30:46.142819,-23
15:30:46.727457,-47
15:30:46.727457,-16129
15:30:46.727457,-1
15:30:46.727457,-81
15:30:46.727457,-20993
15:30:46.727457,-1
15:30:46.727457,-74
15:30:46.727457,-17409
15:30:46.727457,-1
15:30:46.727457,-69
15:30:46.727457,-15617
15:30:46.727457,-1
15:30:46.727457,-47
15:30:46.727457,-10753
15:30:46.727457,-1
15:30:46.727457,-38
15:30:46.727457,-6401
15:30:46.727457,-1
15:30:46.727457,-23
15:30:46.727457,-5633
15:30:46.727457,-1
15:30:46.727457,-16
15:30:46.727457,-3329
15:30:46.727457,-1
15:30:46.727457,-14
15:30:46.727457,-2561
15:30:46.727457,-1
15:30:46.727457,-14
15:30:46.727457,-3329
15:30:46.727457,-1
15:30:46.727457,-11
15:30:46.727457,-2049
15:30:46.727457,-1
15:30:46.727457,-14
15:30:46.727457,-3841
15:30:46.727457,-1
15:30:46.727457,-11
15:30:46.727457,-2049
15:30:46.727457,-1
15:30:46.727457,-7
15:30:46.727457,-769
15:30:46.727457,-1
15:30:46.727457,-4
15:30:46.727457,-1537
15:30:46.727457,-1
15:30:46.727457,0
15:30:46.727457,1792
15:30:46.727457,0
15:30:46.727457,2
15:30:46.727457,2304
15:30:46.727457,0
15:30:46.727457,28
15:30:46.727457,8960
15:30:46.727457,0
15:30:46.727457,40
15:30:46.727457,15872
15:30:46.727457,0
15:30:46.727457,64
15:30:46.727457,11008
15:30:46.727457,0
15:30:46.727457,26
15:30:46.727457,4864
15:30:46.727457,0
15:30:46.727457,9
15:30:46.727457,512
15:30:46.727457,0
15:30:46.727457,0
15:30:46.727457,512
15:30:46.727457,0
15:30:46.727457,9
15:30:46.727457,1792
15:30:46.727457,0
15:30:46.727457,-2
15:30:46.727457,7423
15:30:46.727457,0
15:30:46.727457,127
15:30:46.727457,11008
15:30:46.727457,1
15:30:46.727457,524
15:30:46.727457,-15616
15:30:46.727457,2
15:30:46.727457,589
15:30:46.727457,-12032
15:30:46.727457,-1
15:30:46.727457,-680
15:30:46.727457,-10241
15:30:46.727457,-3
15:30:46.727457,-69
15:30:46.727457,13567
15:30:46.727457,0
15:30:46.727457,21
15:30:46.727457,23296
15:30:46.727457,0
15:30:46.727457,110
15:30:46.727457,20736
15:30:46.727457,0
15:30:46.727457,98
15:30:46.727457,29952
15:30:46.727457,0
15:30:46.727457,122
15:30:46.727457,-29952
15:30:46.727457,0
15:30:46.727457,158
15:30:46.727457,-22784
15:30:46.727457,0
15:30:46.727457,179
15:30:46.727457,-15872
15:30:46.727457,0
15:30:46.727457,215
15:30:47.267118,244
15:30:47.267118,3584
15:30:47.267118,1
15:30:47.267118,292
15:30:47.267118,15360
15:30:47.267118,1
15:30:47.267118,335
15:30:47.267118,23296
15:30:47.267118,1
15:30:47.267118,357
15:30:47.267118,25088
15:30:47.267118,1
15:30:47.267118,337
15:30:47.267118,10496
15:30:47.267118,1
15:30:47.267118,239
15:30:47.267118,-21504
15:30:47.267118,0
15:30:47.267118,103
15:30:47.267118,9728
15:30:47.267118,0
15:30:47.267118,-11
15:30:47.267118,-9985
15:30:47.267118,-1
15:30:47.267118,-57
15:30:47.267118,-16129
15:30:47.267118,-1
15:30:47.267118,-67
15:30:47.267118,-15617
15:30:47.267118,-1
15:30:47.267118,-55
15:30:47.267118,-13825
15:30:47.267118,-1
15:30:47.267118,-50
15:30:47.267118,-9985
15:30:47.267118,-1
15:30:47.267118,-33
15:30:47.267118,-8193
15:30:47.267118,-1
15:30:47.267118,-31
15:30:47.267118,-3841
15:30:47.267118,-1
15:30:47.267118,-9
15:30:47.267118,-2561
15:30:47.267118,-1
15:30:47.267118,-7
15:30:47.267118,-1537
15:30:47.267118,-1
15:30:47.267118,-16
15:30:47.267118,-3841
15:30:47.267118,-1
15:30:47.267118,-7
15:30:47.267118,-769
15:30:47.267118,-1
15:30:47.267118,-9
15:30:47.267118,-3329
15:30:47.267118,-1
15:30:47.267118,-14
15:30:47.267118,-1537
15:30:47.267118,-1
15:30:47.267118,-4
15:30:47.267118,-2049
15:30:47.267118,-1
15:30:47.267118,-14
15:30:47.267118,-2561
15:30:47.267118,-1
15:30:47.267118,-4
15:30:47.267118,767
15:30:47.267118,0
15:30:47.267118,9
15:30:47.267118,2304
15:30:47.267118,0
15:30:47.267118,21
15:30:47.267118,11520
15:30:47.267118,0
15:30:47.267118,62
15:30:47.267118,16384
15:30:47.267118,0
15:30:47.267118,55
15:30:47.267118,6656
15:30:47.267118,0
15:30:47.267118,2
15:30:47.267118,0
15:30:47.267118,0
15:30:47.267118,4
15:30:47.267118,-512
15:30:47.267118,-1
15:30:47.267118,-2
15:30:47.267118,2559
15:30:47.267118,0
15:30:47.267118,9
15:30:47.267118,1792
15:30:47.267118,0
15:30:47.267118,43
15:30:47.267118,-27136
15:30:47.267118,0
15:30:47.267118,349
15:30:47.267118,19200
15:30:47.267118,2
15:30:47.267118,730
15:30:47.267118,-3072
15:30:47.267118,1
15:30:47.267118,-210
15:30:47.267118,11775
15:30:47.267118,-3
15:30:47.267118,-450
15:30:47.267118,-3329
15:30:47.267118,-1
15:30:47.267118,28
15:30:47.852759,9
15:30:47.852759,22016
15:30:47.852759,0
15:30:47.852759,91
15:30:47.852759,17664
15:30:47.852759,0
15:30:47.852759,93
15:30:47.852759,27392
15:30:47.852759,0
15:30:47.852759,110
15:30:47.852759,32512
15:30:47.852759,0
15:30:47.852759,150
15:30:47.852759,-22784
15:30:47.852759,0
15:30:47.852759,179
15:30:47.852759,-14848
15:30:47.852759,0
15:30:47.852759,227
15:30:47.852759,-1280
15:30:47.852759,0
15:30:47.852759,270
15:30:47.852759,11008
15:30:47.852759,1
15:30:47.852759,330
15:30:47.852759,21504
15:30:47.852759,1
15:30:47.852759,342
15:30:47.852759,22784
15:30:47.852759,1
15:30:47.852759,340
15:30:47.852759,13568
15:30:47.852759,1
15:30:47.852759,261
15:30:47.852759,-14080
15:30:47.852759,0
15:30:47.852759,127
15:30:47.852759,13312
15:30:47.852759,0
15:30:47.852759,0
15:30:47.852759,-9728
15:30:47.852759,-1
15:30:47.852759,-67
15:30:47.852759,-19969
15:30:47.852759,-1
15:30:47.852759,-83
15:30:47.852759,-23041
15:30:47.852759,-1
15:30:47.852759,-93
15:30:47.852759,-20993
15:30:47.852759,-1
15:30:47.852759,-71
15:30:47.852759,-16897
15:30:47.852759,-1
15:30:47.852759,-64
15:30:47.852759,-13825
15:30:47.852759,-1
15:30:47.852759,-43
15:30:47.852759,-8705
15:30:47.852759,-1
15:30:47.852759,-31
15:30:47.852759,-6401
15:30:47.852759,-1
15:30:47.852759,-21
15:30:47.852759,-5633
15:30:47.852759,-1
15:30:47.852759,-21
15:30:47.852759,-3841
15:30:47.852759,-1
15:30:47.852759,-16
15:30:47.852759,-3841
15:30:47.852759,-1
15:30:47.852759,-16
15:30:47.852759,-4609
15:30:47.852759,-1
15:30:47.852759,-16
15:30:47.852759,-3841
15:30:47.852759,-1
15:30:47.852759,-19
15:30:47.852759,-3841
15:30:47.852759,-1
15:30:47.852759,-16
15:30:47.852759,-3841
15:30:47.852759,-1
15:30:47.852759,-14
15:30:47.852759,-2561
15:30:47.852759,-1
15:30:47.852759,-9
15:30:47.852759,-769
15:30:47.852759,-1
15:30:47.852759,0
15:30:47.852759,512
15:30:47.852759,0
15:30:47.852759,14
15:30:47.852759,7936
15:30:47.852759,0
15:30:47.852759,50
15:30:47.852759,15104
15:30:47.852759,0
15:30:47.852759,45
15:30:47.852759,5376
15:30:47.852759,0
15:30:47.852759,7
15:30:47.852759,1792
15:30:47.852759,0
15:30:47.852759,0
15:30:47.852759,-2304
15:30:47.852759,-1
15:30:47.852759,-7
15:30:48.392422,0
15:30:48.392422,512
15:30:48.392422,0
15:30:48.392422,2
15:30:48.392422,4096
15:30:48.392422,0
15:30:48.392422,76
15:30:48.392422,-10496
15:30:48.392422,0
15:30:48.392422,438
15:30:48.392422,-29184
15:30:48.392422,2
15:30:48.392422,663
15:30:48.392422,-14080
15:30:48.392422,0
15:30:48.392422,-522
15:30:48.392422,25087
15:30:48.392422,-3
15:30:48.392422,-196
15:30:48.392422,16639
15:30:48.392422,0
15:30:48.392422,19
15:30:48.392422,13312
15:30:48.392422,0
15:30:48.392422,100
15:30:48.392422,19456
15:30:48.392422,0
15:30:48.392422,81
15:30:48.392422,28672
15:30:48.392422,0
15:30:48.392422,115
15:30:48.392422,29952
15:30:48.392422,0
15:30:48.392422,136
15:30:48.392422,-27136
15:30:48.392422,0
15:30:48.392422,162
15:30:48.392422,-18432
15:30:48.392422,0
15:30:48.392422,206
15:30:48.392422,-7424
15:30:48.392422,0
15:30:48.392422,254
15:30:48.392422,6144
15:30:48.392422,1
15:30:48.392422,309
15:30:48.392422,18944
15:30:48.392422,1
15:30:48.392422,342
15:30:48.392422,22784
15:30:48.392422,1
15:30:48.392422,345
15:30:48.392422,18944
15:30:48.392422,1
15:30:48.392422,301
15:30:48.392422,-1792
15:30:48.392422,0
15:30:48.392422,177
15:30:48.392422,25088
15:30:48.392422,0
15:30:48.392422,33
15:30:48.392422,-3584
15:30:48.392422,-1
15:30:48.392422,-50
15:30:48.392422,-18689
15:30:48.392422,-1
15:30:48.392422,-83
15:30:48.392422,-21761
15:30:48.392422,-1
15:30:48.392422,-88
15:30:48.392422,-21761
15:30:48.392422,-1
15:30:48.392422,-79
15:30:48.392422,-18689
15:30:48.392422,-1
15:30:48.392422,-67
15:30:48.392422,-14849
15:30:48.392422,-1
15:30:48.392422,-52
15:30:48.392422,-11777
15:30:48.392422,-1
15:30:48.392422,-38
15:30:48.392422,-8193
15:30:48.392422,-1
15:30:48.392422,-31
15:30:48.392422,-8193
15:30:48.392422,-1
15:30:48.392422,-28
15:30:48.392422,-5633
15:30:48.392422,-1
15:30:48.392422,-26
15:30:48.392422,-6401
15:30:48.392422,-1
15:30:48.392422,-23
15:30:48.392422,-5633
15:30:48.392422,-1
15:30:48.392422,-23
15:30:48.392422,-5633
15:30:48.392422,-1
15:30:48.392422,-23
15:30:48.392422,-6401
15:30:48.392422,-1
15:30:48.392422,-26
15:30:48.392422,-5633
15:30:48.392422,-1
15:30:48.392422,-19
15:30:48.392422,-3841
15:30:48.392422,-1
15:30:48.392422,-19
15:30:48.933088,-16
15:30:48.933088,-3329
15:30:48.933088,-1
15:30:48.933088,-9
15:30:48.933088,-769
15:30:48.933088,-1
15:30:48.933088,-2
15:30:48.933088,2047
15:30:48.933088,0
15:30:48.933088,19
15:30:48.933088,8960
15:30:48.933088,0
15:30:48.933088,52
15:30:48.933088,13312
15:30:48.933088,0
15:30:48.933088,33
15:30:48.933088,3584
15:30:48.933088,0
15:30:48.933088,9
15:30:48.933088,0
15:30:48.933088,0
15:30:48.933088,-7
15:30:48.933088,-769
15:30:48.933088,-1
15:30:48.933088,0
15:30:48.933088,0
15:30:48.933088,0
15:30:48.933088,0
15:30:48.933088,1792
15:30:48.933088,0
15:30:48.933088,47
15:30:48.933088,-23296
15:30:48.933088,0
15:30:48.933088,369
15:30:48.933088,22272
15:30:48.933088,2
15:30:48.933088,707
15:30:48.933088,-27392
15:30:48.933088,1
15:30:48.933088,-311
15:30:48.933088,21503
15:30:48.933088,-3
15:30:48.933088,-328
15:30:48.933088,10495
15:30:48.933088,0
15:30:48.933088,35
15:30:48.933088,6656
15:30:48.933088,0
15:30:48.933088,86
15:30:48.933088,19456
15:30:48.933088,0
15:30:48.933088,67
15:30:48.933088,23808
15:30:48.933088,0
15:30:48.933088,105
15:30:48.933088,27392
15:30:48.933088,0
15:30:48.933088,122
15:30:48.933088,-29440
15:30:48.933088,0
15:30:48.933088,153
15:30:48.933088,-22784
15:30:48.933088,0
15:30:48.933088,186
15:30:48.933088,-11776
15:30:48.933088,0
15:30:48.933088,237
15:30:48.933088,2560
15:30:48.933088,1
15:30:48.933088,292
15:30:48.933088,14080
15:30:48.933088,1
15:30:48.933088,325
15:30:48.933088,20224
15:30:48.933088,1
15:30:48.933088,340
15:30:48.933088,19712
15:30:48.933088,1
15:30:48.933088,306
15:30:48.933088,1792
15:30:48.933088,1
15:30:48.933088,198
15:30:48.933088,30464
15:30:48.933088,0
15:30:48.933088,52
15:30:48.933088,-512
15:30:48.933088,-1
15:30:48.933088,-43
15:30:48.933088,-16897
15:30:48.933088,-1
15:30:48.933088,-81
15:30:48.933088,-23041
15:30:48.933088,-1
15:30:48.933088,-91
15:30:48.933088,-21761
15:30:48.933088,-1
15:30:48.933088,-83
15:30:48.933088,-19201
15:30:48.933088,-1
15:30:48.933088,-67
15:30:48.933088,-15617
15:30:48.933088,-1
15:30:48.933088,-57
15:30:48.933088,-11777
15:30:48.933088,-1
15:30:48.933088,-45
15:30:48.933088,-9985
15:30:48.933088,-1
15:30:48.933088,-35
15:30:49.517727,-33
15:30:49.517727,-7681
15:30:49.517727,-1
15:30:49.517727,-28
15:30:49.517727,-6913
15:30:49.517727,-1
15:30:49.517727,-28
15:30:49.517727,-6401
15:30:49.517727,-1
15:30:49.517727,-21
15:30:49.517727,-4609
15:30:49.517727,-1
15:30:49.517727,-21
15:30:49.517727,-5121
15:30:49.517727,-1
15:30:49.517727,-19
15:30:49.517727,-4609
15:30:49.517727,-1
15:30:49.517727,-21
15:30:49.517727,-4609
15:30:49.517727,-1
15:30:49.517727,-14
15:30:49.517727,-3329
15:30:49.517727,-1
15:30:49.517727,-11
15:30:49.517727,-2561
15:30:49.517727,-1
15:30:49.517727,-9
15:30:49.517727,-1537
15:30:49.517727,-1
15:30:49.517727,-2
15:30:49.517727,767
15:30:49.517727,0
15:30:49.517727,11
15:30:49.517727,5376
15:30:49.517727,0
15:30:49.517727,33
15:30:49.517727,13312
15:30:49.517727,0
15:30:49.517727,64
15:30:49.517727,12800
15:30:49.517727,0
15:30:49.517727,26
15:30:49.517727,3584
15:30:49.517727,0
15:30:49.517727,11
15:30:49.517727,512
15:30:49.517727,0
15:30:49.517727,-4
15:30:49.517727,-769
15:30:49.517727,-1
15:30:49.517727,0
15:30:49.517727,512
15:30:49.517727,0
15:30:49.517727,2
15:30:49.517727,3584
15:30:49.517727,0
15:30:49.517727,67
15:30:49.517727,-14080
15:30:49.517727,0
15:30:49.517727,417
15:30:49.517727,31488
15:30:49.517727,2
15:30:49.517727,678
15:30:49.517727,2560
15:30:49.517727,1
15:30:49.517727,-455
15:30:49.517727,28927
15:30:49.517727,-3
15:30:49.517727,-213
15:30:49.517727,16127
15:30:49.517727,0
15:30:49.517727,19
15:30:49.517727,10240
15:30:49.517727,0
15:30:49.517727,88
15:30:49.517727,17152
15:30:49.517727,0
15:30:49.517727,69
15:30:49.517727,25600
15:30:49.517727,0
15:30:49.517727,105
15:30:49.517727,28160
15:30:49.517727,0
15:30:49.517727,129
15:30:49.517727,-29440
15:30:49.517727,0
15:30:49.517727,153
15:30:49.517727,-21504
15:30:49.517727,0
15:30:49.517727,194
15:30:49.517727,-11008
15:30:49.517727,0
15:30:49.517727,237
15:30:49.517727,1792
15:30:49.517727,1
15:30:49.517727,287
15:30:49.517727,14080
15:30:49.517727,1
15:30:49.517727,330
15:30:49.517727,20736
15:30:49.517727,1
15:30:49.517727,335
15:30:49.517727,18432
15:30:49.517727,1
15:30:49.517727,306
15:30:49.517727,1280
15:30:49.517727,1
15:30:49.517727,186
15:30:50.102362,110
15:30:50.102362,12032
15:30:50.102362,0
15:30:50.102362,-7
15:30:50.102362,-11777
15:30:50.102362,-1
15:30:50.102362,-69
15:30:50.102362,-19201
15:30:50.102362,-1
15:30:50.102362,-79
15:30:50.102362,-20993
15:30:50.102362,-1
15:30:50.102362,-83
15:30:50.102362,-18689
15:30:50.102362,-1
15:30:50.102362,-57
15:30:50.102362,-13057
15:30:50.102362,-1
15:30:50.102362,-50
15:30:50.102362,-10753
15:30:50.102362,-1
15:30:50.102362,-33
15:30:50.102362,-6401
15:30:50.102362,-1
15:30:50.102362,-23
15:30:50.102362,-4609
15:30:50.102362,-1
15:30:50.102362,-14
15:30:50.102362,-2561
15:30:50.102362,-1
15:30:50.102362,-14
15:30:50.102362,-2561
15:30:50.102362,-1
15:30:50.102362,-11
15:30:50.102362,-3329
15:30:50.102362,-1
15:30:50.102362,-14
15:30:50.102362,-3329
15:30:50.102362,-1
15:30:50.102362,-14
15:30:50.102362,-3841
15:30:50.102362,-1
15:30:50.102362,-19
15:30:50.102362,-3841
15:30:50.102362,-1
15:30:50.102362,-16
15:30:50.102362,-4609
15:30:50.102362,-1
15:30:50.102362,-16
15:30:50.102362,-2561
15:30:50.102362,-1
15:30:50.102362,-7
15:30:50.102362,-769
15:30:50.102362,-1
15:30:50.102362,-9
15:30:50.102362,-257
15:30:50.102362,-1
15:30:50.102362,11
15:30:50.102362,3584
15:30:50.102362,0
15:30:50.102362,16
15:30:50.102362,6656
15:30:50.102362,0
15:30:50.102362,45
15:30:50.102362,16384
15:30:50.102362,0
15:30:50.102362,57
15:30:50.102362,7168
15:30:50.102362,0
15:30:50.102362,14
15:30:50.102362,1792
15:30:50.102362,0
15:30:50.102362,-2
15:30:50.102362,-1537
15:30:50.102362,-1
15:30:50.102362,-7
15:30:50.102362,-769
15:30:50.102362,-1
15:30:50.102362,-2
15:30:50.102362,255
15:30:50.102362,0
15:30:50.102362,2
15:30:50.102362,10240
15:30:50.102362,0
15:30:50.102362,153
15:30:50.102362,25088
15:30:50.102362,1
15:30:50.102362,584
15:30:50.102362,-18176
15:30:50.102362,2
15:30:50.102362,409
15:30:50.102362,-15872
15:30:50.102362,-2
15:30:50.102362,-730
15:30:50.102362,31999
15:30:50.102362,-2
15:30:50.102362,0
15:30:50.102362,4864
15:30:50.102362,0
15:30:50.102362,19
15:30:50.102362,21248
15:30:50.102362,0
15:30:50.102362,76
15:30:50.102362,17152
15:30:50.102362,0
15:30:50.102362,98
15:30:50.102362,27392
15:30:50.102362,0
15:30:50.102362,103
15:30:50.642027,122
15:30:50.642027,-27648
15:30:50.642027,0
15:30:50.642027,158
15:30:50.642027,-22784
15:30:50.642027,0
15:30:50.642027,189
15:30:50.642027,-11776
15:30:50.642027,0
15:30:50.642027,234
15:30:50.642027,1280
15:30:50.642027,1
15:30:50.642027,287
15:30:50.642027,14592
15:30:50.642027,1
15:30:50.642027,335
15:30:50.642027,21504
15:30:50.642027,1
15:30:50.642027,340
15:30:50.642027,21504
15:30:50.642027,1
15:30:50.642027,318
15:30:50.642027,5632
15:30:50.642027,1
15:30:50.642027,210
15:30:50.642027,-30720
15:30:50.642027,0
15:30:50.642027,74
15:30:50.642027,4864
15:30:50.642027,0
15:30:50.642027,-31
15:30:50.642027,-15617
15:30:50.642027,-1
15:30:50.642027,-74
15:30:50.642027,-21761
15:30:50.642027,-1
15:30:50.642027,-91
15:30:50.642027,-21761
15:30:50.642027,-1
15:30:50.642027,-76
15:30:50.642027,-17409
15:30:50.642027,-1
15:30:50.642027,-64
15:30:50.642027,-13825
15:30:50.642027,-1
15:30:50.642027,-47
15:30:50.642027,-10753
15:30:50.642027,-1
15:30:50.642027,-38
15:30:50.642027,-6913
15:30:50.642027,-1
15:30:50.642027,-26
15:30:50.642027,-6913
15:30:50.642027,-1
15:30:50.642027,-28
15:30:50.642027,-6401
15:30:50.642027,-1
15:30:50.642027,-23
15:30:50.642027,-4609
15:30:50.642027,-1
15:30:50.642027,-16
15:30:50.642027,-5121
15:30:50.642027,-1
15:30:50.642027,-23
15:30:50.642027,-5121
15:30:50.642027,-1
15:30:50.642027,-26
15:30:50.642027,-7681
15:30:50.642027,-1
15:30:50.642027,-23
15:30:50.642027,-5121
15:30:50.642027,-1
15:30:50.642027,-23
15:30:50.642027,-5121
15:30:50.642027,-1
15:30:50.642027,-16
15:30:50.642027,-3841
15:30:50.642027,-1
15:30:50.642027,-14
15:30:50.642027,-2049
15:30:50.642027,-1
15:30:50.642027,-2
15:30:50.642027,2559
15:30:50.642027,0
15:30:50.642027,16
15:30:50.642027,7936
15:30:50.642027,0
15:30:50.642027,47
15:30:50.642027,10240
15:30:50.642027,0
15:30:50.642027,21
15:30:50.642027,2816
15:30:50.642027,0
15:30:50.642027,4
15:30:50.642027,-1792
15:30:50.642027,-1
15:30:50.642027,-14
15:30:50.642027,-2561
15:30:50.642027,-1
15:30:50.642027,-11
15:30:50.642027,-1537
15:30:50.642027,-1
15:30:50.642027,-4
15:30:50.642027,-257
15:30:50.642027,-1
15:30:50.642027,45
15:30:50.642027,-21504
15:30:50.642027,0
15:30:50.642027,385
15:30:51.182693,615
15:30:51.182693,-13312
15:30:51.182693,2
15:30:51.182693,412
15:30:51.182693,-18944
15:30:51.182693,-2
15:30:51.182693,-738
15:30:51.182693,-32257
15:30:51.182693,-2
15:30:51.182693,-2
15:30:51.182693,3071
15:30:51.182693,0
15:30:51.182693,19
15:30:51.182693,22528
15:30:51.182693,0
15:30:51.182693,88
15:30:51.182693,21248
15:30:51.182693,0
15:30:51.182693,103
15:30:51.182693,26880
15:30:51.182693,0
15:30:51.182693,112
15:30:51.182693,-31232
15:30:51.182693,0
15:30:51.182693,148
15:30:51.182693,-25856
15:30:51.182693,0
15:30:51.182693,174
15:30:51.182693,-13568
15:30:51.182693,0
15:30:51.182693,225
15:30:51.182693,-3072
15:30:51.182693,0
15:30:51.182693,270
15:30:51.182693,10496
15:30:51.182693,1
15:30:51.182693,318
15:30:51.182693,18944
15:30:51.182693,1
15:30:51.182693,337
15:30:51.182693,21504
15:30:51.182693,1
15:30:51.182693,330
15:30:51.182693,12800
15:30:51.182693,1
15:30:51.182693,258
15:30:51.182693,-16640
15:30:51.182693,0
15:30:51.182693,115
15:30:51.182693,11520
15:30:51.182693,0
15:30:51.182693,-11
15:30:51.182693,-13825
15:30:51.182693,-1
15:30:51.182693,-79
15:30:51.182693,-22273
15:30:51.182693,-1
15:30:51.182693,-98
15:30:51.182693,-26113
15:30:51.182693,-1
15:30:51.182693,-98
15:30:51.182693,-23041
15:30:51.182693,-1
15:30:51.182693,-86
15:30:51.182693,-19969
15:30:51.182693,-1
15:30:51.182693,-71
15:30:51.182693,-15617
15:30:51.182693,-1
15:30:51.182693,-55
15:30:51.182693,-13057
15:30:51.182693,-1
15:30:51.182693,-47
15:30:51.182693,-9985
15:30:51.182693,-1
15:30:51.182693,-38
15:30:51.182693,-8705
15:30:51.182693,-1
15:30:51.182693,-33
15:30:51.182693,-8705
15:30:51.182693,-1
15:30:51.182693,-38
15:30:51.182693,-8705
15:30:51.182693,-1
15:30:51.182693,-35
15:30:51.182693,-9473
15:30:51.182693,-1
15:30:51.182693,-40
15:30:51.182693,-9473
15:30:51.182693,-1
15:30:51.182693,-38
15:30:51.182693,-9473
15:30:51.182693,-1
15:30:51.182693,-33
15:30:51.182693,-8193
15:30:51.182693,-1
15:30:51.182693,-31
15:30:51.182693,-6401
15:30:51.182693,-1
15:30:51.182693,-26
15:30:51.182693,-5633
15:30:51.182693,-1
15:30:51.182693,-16
15:30:51.182693,-3329
15:30:51.182693,-1
15:30:51.182693,-11
15:30:51.182693,-257
15:30:51.182693,-1
15:30:51.182693,11
15:30:51.767330,31
15:30:51.767330,11520
15:30:51.767330,0
15:30:51.767330,33
15:30:51.767330,2816
15:30:51.767330,0
15:30:51.767330,-2
15:30:51.767330,-1537
15:30:51.767330,-1
15:30:51.767330,-14
15:30:51.767330,-3841
15:30:51.767330,-1
15:30:51.767330,-14
15:30:51.767330,-2561
15:30:51.767330,-1
15:30:51.767330,-7
15:30:51.767330,-769
15:30:51.767330,-1
15:30:51.767330,4
15:30:51.767330,14592
15:30:51.767330,0
15:30:51.767330,189
15:30:51.767330,-28160
15:30:51.767330,1
15:30:51.767330,623
15:30:51.767330,-22528
15:30:51.767330,2
15:30:51.767330,285
15:30:51.767330,18432
15:30:51.767330,-2
15:30:51.767330,-687
15:30:51.767330,767
15:30:51.767330,-1
15:30:51.767330,52
15:30:51.767330,3584
15:30:51.767330,0
15:30:51.767330,31
15:30:51.767330,22528
15:30:51.767330,0
15:30:51.767330,64
15:30:51.767330,15872
15:30:51.767330,0
15:30:51.767330,91
15:30:51.767330,24320
15:30:51.767330,0
15:30:51.767330,98
15:30:51.767330,31232
15:30:51.767330,0
15:30:51.767330,136
15:30:51.767330,-28928
15:30:51.767330,0
15:30:51.767330,162
15:30:51.767330,-17152
15:30:51.767330,0
15:30:51.767330,210
15:30:51.767330,-5632
15:30:51.767330,0
15:30:51.767330,261
15:30:51.767330,7424
15:30:51.767330,1
15:30:51.767330,306
15:30:51.767330,17152
15:30:51.767330,1
15:30:51.767330,335
15:30:51.767330,20736
15:30:51.767330,1
15:30:51.767330,325
15:30:51.767330,10496
15:30:51.767330,1
15:30:51.767330,244
15:30:51.767330,-20992
15:30:51.767330,0
15:30:51.767330,100
15:30:51.767330,7936
15:30:51.767330,0
15:30:51.767330,-21
15:30:51.767330,-14849
15:30:51.767330,-1
15:30:51.767330,-86
15:30:51.767330,-24833
15:30:51.767330,-1
15:30:51.767330,-100
15:30:51.767330,-24833
15:30:51.767330,-1
15:30:51.767330,-93
15:30:51.767330,-21761
15:30:51.767330,-1
15:30:51.767330,-76
15:30:51.767330,-17921
15:30:51.767330,-1
15:30:51.767330,-67
15:30:51.767330,-14337
15:30:51.767330,-1
15:30:51.767330,-50
15:30:51.767330,-11777
15:30:51.767330,-1
15:30:51.767330,-43
15:30:51.767330,-9473
15:30:51.767330,-1
15:30:51.767330,-35
15:30:51.767330,-8193
15:30:51.767330,-1
15:30:51.767330,-31
15:30:51.767330,-7681
15:30:51.767330,-1
15:30:51.767330,-31
15:30:51.767330,-7681
15:30:51.767330,-1
15:30:51.767330,-31
15:30:52.306996,-28
15:30:52.306996,-7681
15:30:52.306996,-1
15:30:52.306996,-31
15:30:52.306996,-6913
15:30:52.306996,-1
15:30:52.306996,-28
15:30:52.306996,-6913
15:30:52.306996,-1
15:30:52.306996,-28
15:30:52.306996,-6401
15:30:52.306996,-1
15:30:52.306996,-21
15:30:52.306996,-5121
15:30:52.306996,-1
15:30:52.306996,-16
15:30:52.306996,-2049
15:30:52.306996,-1
15:30:52.306996,-2
15:30:52.306996,255
15:30:52.306996,0
15:30:52.306996,2
15:30:52.306996,1792
15:30:52.306996,0
15:30:52.306996,14
15:30:52.306996,6656
15:30:52.306996,0
15:30:52.306996,45
15:30:52.306996,14080
15:30:52.306996,0
15:30:52.306996,40
15:30:52.306996,4864
15:30:52.306996,0
15:30:52.306996,9
15:30:52.306996,512
15:30:52.306996,0
15:30:52.306996,-9
15:30:52.306996,-2561
15:30:52.306996,-1
15:30:52.306996,-9
15:30:52.306996,-769
15:30:52.306996,-1
15:30:52.306996,-4
15:30:52.306996,-257
15:30:52.306996,-1
15:30:52.306996,11
15:30:52.306996,18944
15:30:52.306996,0
15:30:52.306996,222
15:30:52.306996,-17664
15:30:52.306996,1
15:30:52.306996,649
15:30:52.306996,-31744
15:30:52.306996,2
15:30:52.306996,165
15:30:52.306996,-4352
15:30:52.306996,-3
15:30:52.306996,-625
15:30:52.306996,25343
15:30:52.306996,-1
15:30:52.306996,64
15:30:52.306996,2304
15:30:52.306996,0
15:30:52.306996,43
15:30:52.306996,22016
15:30:52.306996,0
15:30:52.306996,59
15:30:52.306996,17152
15:30:52.306996,0
15:30:52.306996,95
15:30:52.306996,25600
15:30:52.306996,0
15:30:52.306996,107
15:30:52.306996,31744
15:30:52.306996,0
15:30:52.306996,141
15:30:52.306996,-25088
15:30:52.306996,0
15:30:52.306996,174
15:30:52.306996,-15360
15:30:52.306996,0
15:30:52.306996,220
15:30:52.306996,-3584
15:30:52.306996,0
15:30:52.306996,266
15:30:52.306996,9216
15:30:52.306996,1
15:30:52.306996,311
15:30:52.306996,17152
15:30:52.306996,1
15:30:52.306996,330
15:30:52.306996,17664
15:30:52.306996,1
15:30:52.306996,316
15:30:52.306996,9216
15:30:52.306996,1
15:30:52.306996,242
15:30:52.306996,-20992
15:30:52.306996,0
15:30:52.306996,103
15:30:52.306996,8960
15:30:52.306996,0
15:30:52.306996,-14
15:30:52.306996,-11777
15:30:52.306996,-1
15:30:52.306996,-71
15:30:52.306996,-21761
15:30:52.306996,-1
15:30:52.306996,-91
15:30:52.846660,-91
15:30:52.846660,-22273
15:30:52.846660,-1
15:30:52.846660,-83
15:30:52.846660,-18689
15:30:52.846660,-1
15:30:52.846660,-71
15:30:52.846660,-15617
15:30:52.846660,-1
15:30:52.846660,-52
15:30:52.846660,-11265
15:30:52.846660,-1
15:30:52.846660,-38
15:30:52.846660,-7681
15:30:52.846660,-1
15:30:52.846660,-28
15:30:52.846660,-6913
15:30:52.846660,-1
15:30:52.846660,-28
15:30:52.846660,-6401
15:30:52.846660,-1
15:30:52.846660,-23
15:30:52.846660,-6401
15:30:52.846660,-1
15:30:52.846660,-26
15:30:52.846660,-6401
15:30:52.846660,-1
15:30:52.846660,-26
15:30:52.846660,-6401
15:30:52.846660,-1
15:30:52.846660,-26
15:30:52.846660,-6401
15:30:52.846660,-1
15:30:52.846660,-26
15:30:52.846660,-5633
15:30:52.846660,-1
15:30:52.846660,-21
15:30:52.846660,-4609
15:30:52.846660,-1
15:30:52.846660,-19
15:30:52.846660,-3841
15:30:52.846660,-1
15:30:52.846660,-14
15:30:52.846660,-2561
15:30:52.846660,-1
15:30:52.846660,-9
15:30:52.846660,-257
15:30:52.846660,-1
15:30:52.846660,2
15:30:52.846660,1024
15:30:52.846660,0
15:30:52.846660,11
15:30:52.846660,7168
15:30:52.846660,0
15:30:52.846660,47
15:30:52.846660,14080
15:30:52.846660,0
15:30:52.846660,40
15:30:52.846660,4864
15:30:52.846660,0
15:30:52.846660,4
15:30:52.846660,0
15:30:52.846660,0
15:30:52.846660,-2
15:30:52.846660,-1537
15:30:52.846660,-1
15:30:52.846660,-7
15:30:52.846660,-769
15:30:52.846660,-1
15:30:52.846660,-2
15:30:52.846660,255
15:30:52.846660,0
15:30:52.846660,16
15:30:52.846660,22528
15:30:52.846660,0
15:30:52.846660,242
15:30:52.846660,-12800
15:30:52.846660,1
15:30:52.846660,661
15:30:52.846660,27648
15:30:52.846660,2
15:30:52.846660,91
15:30:52.846660,-17920
15:30:52.846660,-3
15:30:52.846660,-596
15:30:52.846660,-31489
15:30:52.846660,-1
15:30:52.846660,57
15:30:52.846660,1792
15:30:52.846660,0
15:30:52.846660,55
15:30:52.846660,22016
15:30:52.846660,0
15:30:52.846660,57
15:30:52.846660,18176
15:30:52.846660,0
15:30:52.846660,98
15:30:52.846660,25088
15:30:52.846660,0
15:30:52.846660,103
15:30:52.846660,31232
15:30:52.846660,0
15:30:52.846660,134
15:30:52.846660,-27648
15:30:52.846660,0
15:30:52.846660,170
15:30:52.846660,-17152
15:30:52.846660,0
15:30:52.846660,213
15:30:53.477272,237
15:30:53.477272,512
15:30:53.477272,1
15:30:53.477272,280
15:30:53.477272,11008
15:30:53.477272,1
15:30:53.477272,313
15:30:53.477272,17664
15:30:53.477272,1
15:30:53.477272,323
15:30:53.477272,13568
15:30:53.477272,1
15:30:53.477272,278
15:30:53.477272,-6656
15:30:53.477272,0
15:30:53.477272,162
15:30:53.477272,23808
15:30:53.477272,0
15:30:53.477272,31
15:30:53.477272,-4864
15:30:53.477272,-1
15:30:53.477272,-52
15:30:53.477272,-17921
15:30:53.477272,-1
15:30:53.477272,-81
15:30:53.477272,-20993
15:30:53.477272,-1
15:30:53.477272,-81
15:30:53.477272,-20481
15:30:53.477272,-1
15:30:53.477272,-81
15:30:53.477272,-17921
15:30:53.477272,-1
15:30:53.477272,-59
15:30:53.477272,-13825
15:30:53.477272,-1
15:30:53.477272,-50
15:30:53.477272,-11265
15:30:53.477272,-1
15:30:53.477272,-40
15:30:53.477272,-9473
15:30:53.477272,-1
15:30:53.477272,-35
15:30:53.477272,-7681
15:30:53.477272,-1
15:30:53.477272,-28
15:30:53.477272,-6913
15:30:53.477272,-1
15:30:53.477272,-28
15:30:53.477272,-7681
15:30:53.477272,-1
15:30:53.477272,-26
15:30:53.477272,-5121
15:30:53.477272,-1
15:30:53.477272,-23
15:30:53.477272,-6913
15:30:53.477272,-1
15:30:53.477272,-28
15:30:53.477272,-6401
15:30:53.477272,-1
15:30:53.477272,-23
15:30:53.477272,-5121
15:30:53.477272,-1
15:30:53.477272,-21
15:30:53.477272,-5121
15:30:53.477272,-1
15:30:53.477272,-23
15:30:53.477272,-4609
15:30:53.477272,-1
15:30:53.477272,-11
15:30:53.477272,-1537
15:30:53.477272,-1
15:30:53.477272,-2
15:30:53.477272,-257
15:30:53.477272,-1
15:30:53.477272,-2
15:30:53.477272,2047
15:30:53.477272,0
15:30:53.477272,23
15:30:53.477272,12032
15:30:53.477272,0
15:30:53.477272,59
15:30:53.477272,12800
15:30:53.477272,0
15:30:53.477272,31
15:30:53.477272,4864
15:30:53.477272,0
15:30:53.477272,9
15:30:53.477272,0
15:30:53.477272,0
15:30:53.477272,-4
15:30:53.477272,-1537
15:30:53.477272,-1
15:30:53.477272,-9
15:30:53.477272,-257
15:30:53.477272,-1
15:30:53.477272,2
15:30:53.477272,512
15:30:53.477272,0
15:30:53.477272,31
15:30:53.477272,-32000
15:30:53.477272,0
15:30:53.477272,318
15:30:53.477272,8192
15:30:53.477272,2
15:30:53.477272,692
15:30:53.477272,-7936
15:30:53.477272,1
15:30:53.477272,-220
15:30:54.061907,-718
15:30:54.061907,18687
15:30:54.061907,-2
15:30:54.061907,-14
15:30:54.061907,8703
15:30:54.061907,0
15:30:54.061907,16
15:30:54.061907,20224
15:30:54.061907,0
15:30:54.061907,81
15:30:54.061907,17664
15:30:54.061907,0
15:30:54.061907,98
15:30:54.061907,29440
15:30:54.061907,0
15:30:54.061907,115
15:30:54.061907,-31232
15:30:54.061907,0
15:30:54.061907,150
15:30:54.061907,-25856
15:30:54.061907,0
15:30:54.061907,177
15:30:54.061907,-12800
15:30:54.061907,0
15:30:54.061907,222
15:30:54.061907,-4864
15:30:54.061907,0
15:30:54.061907,263
15:30:54.061907,7936
15:30:54.061907,1
15:30:54.061907,306
15:30:54.061907,17664
15:30:54.061907,1
15:30:54.061907,337
15:30:54.061907,20224
15:30:54.061907,1
15:30:54.061907,330
15:30:54.061907,15872
15:30:54.061907,1
15:30:54.061907,287
15:30:54.061907,-6656
15:30:54.061907,0
15:30:54.061907,158
15:30:54.061907,22016
15:30:54.061907,0
15:30:54.061907,23
15:30:54.061907,-4096
15:30:54.061907,-1
15:30:54.061907,-43
15:30:54.061907,-16897
15:30:54.061907,-1
15:30:54.061907,-79
15:30:54.061907,-19969
15:30:54.061907,-1
15:30:54.061907,-83
15:30:54.061907,-21761
15:30:54.061907,-1
15:30:54.061907,-74
15:30:54.061907,-14337
15:30:54.061907,-1
15:30:54.061907,-50
15:30:54.061907,-12545
15:30:54.061907,-1
15:30:54.061907,-43
15:30:54.061907,-7681
15:30:54.061907,-1
15:30:54.061907,-31
15:30:54.061907,-8193
15:30:54.061907,-1
15:30:54.061907,-28
15:30:54.061907,-6401
15:30:54.061907,-1
15:30:54.061907,-26
15:30:54.061907,-6401
15:30:54.061907,-1
15:30:54.061907,-28
15:30:54.061907,-6913
15:30:54.061907,-1
15:30:54.061907,-23
15:30:54.061907,-4609
15:30:54.061907,-1
15:30:54.061907,-28
15:30:54.061907,-8193
15:30:54.061907,-1
15:30:54.061907,-26
15:30:54.061907,-5633
15:30:54.061907,-1
15:30:54.061907,-23
15:30:54.061907,-5633
15:30:54.061907,-1
15:30:54.061907,-28
15:30:54.061907,-6401
15:30:54.061907,-1
15:30:54.061907,-14
15:30:54.061907,-1537
15:30:54.061907,-1
15:30:54.061907,-7
15:30:54.061907,-257
15:30:54.061907,-1
15:30:54.061907,7
15:30:54.061907,6656
15:30:54.061907,0
15:30:54.061907,45
15:30:54.061907,12800
15:30:54.061907,0
15:30:54.061907,45
15:30:54.061907,7168
15:30:54.061907,0
15:30:54.061907,2
15:30:54.557601,-11
15:30:54.557601,-2561
15:30:54.557601,-1
15:30:54.557601,-19
15:30:54.557601,-3841
15:30:54.557601,-1
15:30:54.557601,-7
15:30:54.557601,-1537
15:30:54.557601,-1
15:30:54.557601,-9
15:30:54.557601,3071
15:30:54.557601,0
15:30:54.557601,95
15:30:54.557601,1792
15:30:54.557601,1
15:30:54.557601,496
15:30:54.557601,-17664
15:30:54.557601,2
15:30:54.557601,642
15:30:54.557601,18176
15:30:54.557601,0
15:30:54.557601,-627
15:30:54.557601,-29953
15:30:54.557601,-3
15:30:54.557601,-143
15:30:54.557601,8191
15:30:54.557601,0
15:30:54.557601,-4
15:30:54.557601,16639
15:30:54.557601,0
15:30:54.557601,103
15:30:54.557601,18944
15:30:54.557601,0
15:30:54.557601,86
15:30:54.557601,28672
15:30:54.557601,0
15:30:54.557601,110
15:30:54.557601,30464
15:30:54.557601,0
15:30:54.557601,143
15:30:54.557601,-25088
15:30:54.557601,0
15:30:54.557601,170
15:30:54.557601,-15872
15:30:54.557601,0
15:30:54.557601,215
15:30:54.557601,-5632
15:30:54.557601,0
15:30:54.557601,258
15:30:54.557601,7424
15:30:54.557601,1
15:30:54.557601,306
15:30:54.557601,17152
15:30:54.557601,1
15:30:54.557601,337
15:30:54.557601,22784
15:30:54.557601,1
15:30:54.557601,337
15:30:54.557601,17152
15:30:54.557601,1
15:30:54.557601,289
15:30:54.557601,-6144
15:30:54.557601,0
15:30:54.557601,160
15:30:54.557601,21248
15:30:54.557601,0
15:30:54.557601,19
15:30:54.557601,-7936
15:30:54.557601,-1
15:30:54.557601,-62
15:30:54.557601,-20481
15:30:54.557601,-1
15:30:54.557601,-93
15:30:54.557601,-24833
15:30:54.557601,-1
15:30:54.557601,-98
15:30:54.557601,-22273
15:30:54.557601,-1
15:30:54.557601,-76
15:30:54.557601,-18689
15:30:54.557601,-1
15:30:54.557601,-74
15:30:54.557601,-14849
15:30:54.557601,-1
15:30:54.557601,-50
15:30:54.557601,-12545
15:30:54.557601,-1
15:30:54.557601,-45
15:30:54.557601,-9473
15:30:54.557601,-1
15:30:54.557601,-35
15:30:54.557601,-7681
15:30:54.557601,-1
15:30:54.557601,-26
15:30:54.557601,-6913
15:30:54.557601,-1
15:30:54.557601,-33
15:30:54.557601,-6401
15:30:54.557601,-1
15:30:54.557601,-21
15:30:54.557601,-6913
15:30:54.557601,-1
15:30:54.557601,-35
15:30:54.557601,-7681
15:30:54.557601,-1
15:30:54.557601,-21
15:30:54.557601,-6401
15:30:54.557601,-1
15:30:54.557601,-33
15:30:55.187212,-28
15:30:55.187212,-5633
15:30:55.187212,-1
15:30:55.187212,-26
15:30:55.187212,-5633
15:30:55.187212,-1
15:30:55.187212,-23
15:30:55.187212,-5121
15:30:55.187212,-1
15:30:55.187212,-11
15:30:55.187212,-2049
15:30:55.187212,-1
15:30:55.187212,-2
15:30:55.187212,3071
15:30:55.187212,0
15:30:55.187212,26
15:30:55.187212,10240
15:30:55.187212,0
15:30:55.187212,57
15:30:55.187212,14080
15:30:55.187212,0
15:30:55.187212,35
15:30:55.187212,4096
15:30:55.187212,0
15:30:55.187212,7
15:30:55.187212,512
15:30:55.187212,0
15:30:55.187212,-4
15:30:55.187212,-1537
15:30:55.187212,-1
15:30:55.187212,-7
15:30:55.187212,-257
15:30:55.187212,-1
15:30:55.187212,2
15:30:55.187212,3584
15:30:55.187212,0
15:30:55.187212,59
15:30:55.187212,-15872
15:30:55.187212,0
15:30:55.187212,421
15:30:55.187212,-31744
15:30:55.187212,2
15:30:55.187212,687
15:30:55.187212,11008
15:30:55.187212,1
15:30:55.187212,-438
15:30:55.187212,14079
15:30:55.187212,-3
15:30:55.187212,-285
15:30:55.187212,11263
15:30:55.187212,0
15:30:55.187212,14
15:30:55.187212,7936
15:30:55.187212,0
15:30:55.187212,88
15:30:55.187212,17152
15:30:55.187212,0
15:30:55.187212,67
15:30:55.187212,25088
15:30:55.187212,0
15:30:55.187212,103
15:30:55.187212,26880
15:30:55.187212,0
15:30:55.187212,127
15:30:55.187212,-29440
15:30:55.187212,0
15:30:55.187212,150
15:30:55.187212,-21504
15:30:55.187212,0
15:30:55.187212,196
15:30:55.187212,-10496
15:30:55.187212,0
15:30:55.187212,242
15:30:55.187212,3584
15:30:55.187212,1
15:30:55.187212,294
15:30:55.187212,14080
15:30:55.187212,1
15:30:55.187212,325
15:30:55.187212,20224
15:30:55.187212,1
15:30:55.187212,333
15:30:55.187212,17664
15:30:55.187212,1
15:30:55.187212,299
15:30:55.187212,-3072
15:30:55.187212,0
15:30:55.187212,172
15:30:55.187212,25088
15:30:55.187212,0
15:30:55.187212,31
15:30:55.187212,-5888
15:30:55.187212,-1
15:30:55.187212,-64
15:30:55.187212,-22273
15:30:55.187212,-1
15:30:55.187212,-103
15:30:55.187212,-27137
15:30:55.187212,-1
15:30:55.187212,-107
15:30:55.187212,-26113
15:30:55.187212,-1
15:30:55.187212,-98
15:30:55.187212,-23041
15:30:55.187212,-1
15:30:55.187212,-86
15:30:55.187212,-19969
15:30:55.187212,-1
15:30:55.187212,-69
15:30:55.681903,-62
15:30:55.681903,-13825
15:30:55.681903,-1
15:30:55.681903,-50
15:30:55.681903,-11777
15:30:55.681903,-1
15:30:55.681903,-47
15:30:55.681903,-10753
15:30:55.681903,-1
15:30:55.681903,-38
15:30:55.681903,-8705
15:30:55.681903,-1
15:30:55.681903,-38
15:30:55.681903,-8705
15:30:55.681903,-1
15:30:55.681903,-33
15:30:55.681903,-8705
15:30:55.681903,-1
15:30:55.681903,-33
15:30:55.681903,-8193
15:30:55.681903,-1
15:30:55.681903,-38
15:30:55.681903,-9985
15:30:55.681903,-1
15:30:55.681903,-38
15:30:55.681903,-7681
15:30:55.681903,-1
15:30:55.681903,-26
15:30:55.681903,-5633
15:30:55.681903,-1
15:30:55.681903,-26
15:30:55.681903,-5633
15:30:55.681903,-1
15:30:55.681903,-16
15:30:55.681903,-2561
15:30:55.681903,-1
15:30:55.681903,-7
15:30:55.681903,-257
15:30:55.681903,-1
15:30:55.681903,4
15:30:55.681903,5376
15:30:55.681903,0
15:30:55.681903,40
15:30:55.681903,12032
15:30:55.681903,0
15:30:55.681903,31
15:30:55.681903,1792
15:30:55.681903,0
15:30:55.681903,-4
15:30:55.681903,-2049
15:30:55.681903,-1
15:30:55.681903,-16
15:30:55.681903,-4609
15:30:55.681903,-1
15:30:55.681903,-14
15:30:55.681903,-2561
15:30:55.681903,-1
15:30:55.681903,-11
15:30:55.681903,-2561
15:30:55.681903,-1
15:30:55.681903,11
15:30:55.681903,24320
15:30:55.681903,0
15:30:55.681903,268
15:30:55.681903,-3584
15:30:55.681903,1
15:30:55.681903,685
15:30:55.681903,17920
15:30:55.681903,2
15:30:55.681903,-19
15:30:55.681903,32511
15:30:55.681903,-3
15:30:55.681903,-548
15:30:55.681903,-18689
15:30:55.681903,-1
15:30:55.681903,52
15:30:55.681903,0
15:30:55.681903,0
15:30:55.681903,55
15:30:55.681903,20736
15:30:55.681903,0
15:30:55.681903,55
15:30:55.681903,18944
15:30:55.681903,0
15:30:55.681903,95
15:30:55.681903,23808
15:30:55.681903,0
15:30:55.681903,105
15:30:55.681903,32512
15:30:55.681903,0
15:30:55.681903,139
15:30:55.681903,-27136
15:30:55.681903,0
15:30:55.681903,172
15:30:55.681903,-15360
15:30:55.681903,0
15:30:55.681903,220
15:30:55.681903,-2560
15:30:55.681903,0
15:30:55.681903,273
15:30:55.681903,10496
15:30:55.681903,1
15:30:55.681903,313
15:30:55.681903,17664
15:30:55.681903,1
15:30:55.681903,333
15:30:55.681903,19712
15:30:55.681903,1
15:30:55.681903,316
15:30:56.267540,278
15:30:56.267540,-9216
15:30:56.267540,0
15:30:56.267540,148
15:30:56.267540,19456
15:30:56.267540,0
15:30:56.267540,11
15:30:56.267540,-8960
15:30:56.267540,-1
15:30:56.267540,-67
15:30:56.267540,-20993
15:30:56.267540,-1
15:30:56.267540,-93
15:30:56.267540,-23041
15:30:56.267540,-1
15:30:56.267540,-88
15:30:56.267540,-22273
15:30:56.267540,-1
15:30:56.267540,-83
15:30:56.267540,-19201
15:30:56.267540,-1
15:30:56.267540,-67
15:30:56.267540,-15617
15:30:56.267540,-1
15:30:56.267540,-55
15:30:56.267540,-11777
15:30:56.267540,-1
15:30:56.267540,-43
15:30:56.267540,-9473
15:30:56.267540,-1
15:30:56.267540,-35
15:30:56.267540,-7681
15:30:56.267540,-1
15:30:56.267540,-31
15:30:56.267540,-7681
15:30:56.267540,-1
15:30:56.267540,-31
15:30:56.267540,-7681
15:30:56.267540,-1
15:30:56.267540,-31
15:30:56.267540,-6913
15:30:56.267540,-1
15:30:56.267540,-31
15:30:56.267540,-8193
15:30:56.267540,-1
15:30:56.267540,-28
15:30:56.267540,-6913
15:30:56.267540,-1
15:30:56.267540,-31
15:30:56.267540,-6913
15:30:56.267540,-1
15:30:56.267540,-23
15:30:56.267540,-4609
15:30:56.267540,-1
15:30:56.267540,-19
15:30:56.267540,-4609
15:30:56.267540,-1
15:30:56.267540,-16
15:30:56.267540,-2561
15:30:56.267540,-1
15:30:56.267540,-4
15:30:56.267540,255
15:30:56.267540,0
15:30:56.267540,2
15:30:56.267540,2816
15:30:56.267540,0
15:30:56.267540,31
15:30:56.267540,12800
15:30:56.267540,0
15:30:56.267540,50
15:30:56.267540,7168
15:30:56.267540,0
15:30:56.267540,9
15:30:56.267540,512
15:30:56.267540,0
15:30:56.267540,-4
15:30:56.267540,-2561
15:30:56.267540,-1
15:30:56.267540,-16
15:30:56.267540,-2561
15:30:56.267540,-1
15:30:56.267540,-9
15:30:56.267540,-2049
15:30:56.267540,-1
15:30:56.267540,-7
15:30:56.267540,5119
15:30:56.267540,0
15:30:56.267540,103
15:30:56.267540,4352
15:30:56.267540,1
15:30:56.267540,503
15:30:56.267540,-21248
15:30:56.267540,2
15:30:56.267540,575
15:30:56.267540,-9728
15:30:56.267540,-1
15:30:56.267540,-642
15:30:56.267540,-2305
15:30:56.267540,-3
15:30:56.267540,-59
15:30:56.267540,14335
15:30:56.267540,0
15:30:56.267540,9
15:30:56.267540,16384
15:30:56.267540,0
15:30:56.267540,83
15:30:56.267540,15104
15:30:56.267540,0
15:30:56.267540,79
15:30:56.762233,103
15:30:56.762233,25600
15:30:56.762233,0
15:30:56.762233,110
15:30:56.762233,-32512
15:30:56.762233,0
15:30:56.762233,143
15:30:56.762233,-25856
15:30:56.762233,0
15:30:56.762233,179
15:30:56.762233,-12288
15:30:56.762233,0
15:30:56.762233,227
15:30:56.762233,-1792
15:30:56.762233,0
15:30:56.762233,278
15:30:56.762233,11520
15:30:56.762233,1
15:30:56.762233,323
15:30:56.762233,21504
15:30:56.762233,1
15:30:56.762233,340
15:30:56.762233,20224
15:30:56.762233,1
15:30:56.762233,321
15:30:56.762233,7936
15:30:56.762233,1
15:30:56.762233,227
15:30:56.762233,-25856
15:30:56.762233,0
15:30:56.762233,83
15:30:56.762233,5888
15:30:56.762233,0
15:30:56.762233,-23
15:30:56.762233,-13825
15:30:56.762233,-1
15:30:56.762233,-74
15:30:56.762233,-20993
15:30:56.762233,-1
15:30:56.762233,-86
15:30:56.762233,-21761
15:30:56.762233,-1
15:30:56.762233,-83
15:30:56.762233,-19969
15:30:56.762233,-1
15:30:56.762233,-69
15:30:56.762233,-15617
15:30:56.762233,-1
15:30:56.762233,-57
15:30:56.762233,-13057
15:30:56.762233,-1
15:30:56.762233,-45
15:30:56.762233,-8705
15:30:56.762233,-1
15:30:56.762233,-33
15:30:56.762233,-7681
15:30:56.762233,-1
15:30:56.762233,-31
15:30:56.762233,-6913
15:30:56.762233,-1
15:30:56.762233,-26
15:30:56.762233,-6401
15:30:56.762233,-1
15:30:56.762233,-23
15:30:56.762233,-5633
15:30:56.762233,-1
15:30:56.762233,-23
15:30:56.762233,-5633
15:30:56.762233,-1
15:30:56.762233,-26
15:30:56.762233,-6913
15:30:56.762233,-1
15:30:56.762233,-28
15:30:56.762233,-6401
15:30:56.762233,-1
15:30:56.762233,-26
15:30:56.762233,-5633
15:30:56.762233,-1
15:30:56.762233,-21
15:30:56.762233,-5121
15:30:56.762233,-1
15:30:56.762233,-19
15:30:56.762233,-3329
15:30:56.762233,-1
15:30:56.762233,-9
15:30:56.762233,255
15:30:56.762233,0
15:30:56.762233,7
15:30:56.762233,2816
15:30:56.762233,0
15:30:56.762233,16
15:30:56.762233,7936
15:30:56.762233,0
15:30:56.762233,52
15:30:56.762233,15872
15:30:56.762233,0
15:30:56.762233,47
15:30:56.762233,5888
15:30:56.762233,0
15:30:56.762233,11
15:30:56.762233,1024
15:30:56.762233,0
15:30:56.762233,-4
15:30:56.762233,-769
15:30:56.762233,-1
15:30:56.762233,0
15:30:56.762233,0
15:30:56.762233,0
15:30:56.762233,-2
15:30:57.391843,0
15:30:57.391843,4096
15:30:57.391843,0
15:30:57.391843,79
15:30:57.391843,-7936
15:30:57.391843,0
15:30:57.391843,450
15:30:57.391843,-26880
15:30:57.391843,2
15:30:57.391843,663
15:30:57.391843,-20992
15:30:57.391843,0
15:30:57.391843,-536
15:30:57.391843,-31233
15:30:57.391843,-3
15:30:57.391843,-160
15:30:57.391843,16127
15:30:57.391843,0
15:30:57.391843,14
15:30:57.391843,14080
15:30:57.391843,0
15:30:57.391843,95
15:30:57.391843,17152
15:30:57.391843,0
15:30:57.391843,81
15:30:57.391843,28672
15:30:57.391843,0
15:30:57.391843,110
15:30:57.391843,29440
15:30:57.391843,0
15:30:57.391843,136
15:30:57.391843,-27136
15:30:57.391843,0
15:30:57.391843,162
15:30:57.391843,-18944
15:30:57.391843,0
15:30:57.391843,201
15:30:57.391843,-7936
15:30:57.391843,0
15:30:57.391843,254
15:30:57.391843,5632
15:30:57.391843,1
15:30:57.391843,297
15:30:57.391843,15872
15:30:57.391843,1
15:30:57.391843,333
15:30:57.391843,20736
15:30:57.391843,1
15:30:57.391843,340
15:30:57.391843,18944
15:30:57.391843,1
15:30:57.391843,304
15:30:57.391843,512
15:30:57.391843,1
15:30:57.391843,184
15:30:57.391843,27392
15:30:57.391843,0
15:30:57.391843,50
15:30:57.391843,1024
15:30:57.391843,0
15:30:57.391843,-35
15:30:57.391843,-15617
15:30:57.391843,-1
15:30:57.391843,-76
15:30:57.391843,-20481
15:30:57.391843,-1
15:30:57.391843,-79
15:30:57.391843,-17921
15:30:57.391843,-1
15:30:57.391843,-71
15:30:57.391843,-16897
15:30:57.391843,-1
15:30:57.391843,-57
15:30:57.391843,-11265
15:30:57.391843,-1
15:30:57.391843,-38
15:30:57.391843,-7681
15:30:57.391843,-1
15:30:57.391843,-26
15:30:57.391843,-6401
15:30:57.391843,-1
15:30:57.391843,-23
15:30:57.391843,-4609
15:30:57.391843,-1
15:30:57.391843,-14
15:30:57.391843,-2049
15:30:57.391843,-1
15:30:57.391843,-11
15:30:57.391843,-3329
15:30:57.391843,-1
15:30:57.391843,-16
15:30:57.391843,-3329
15:30:57.391843,-1
15:30:57.391843,-9
15:30:57.391843,-2561
15:30:57.391843,-1
15:30:57.391843,-14
15:30:57.391843,-2561
15:30:57.391843,-1
15:30:57.391843,-11
15:30:57.391843,-2049
15:30:57.391843,-1
15:30:57.391843,-7
15:30:57.391843,-769
15:30:57.391843,-1
15:30:57.391843,-4
15:30:57.391843,767
15:30:57.391843,0
15:30:57.391843,11
15:30:57.932508,11
15:30:57.932508,4096
15:30:57.932508,0
15:30:57.932508,28
15:30:57.932508,12800
15:30:57.932508,0
15:30:57.932508,69
15:30:57.932508,17152
15:30:57.932508,0
15:30:57.932508,45
15:30:57.932508,5376
15:30:57.932508,0
15:30:57.932508,7
15:30:57.932508,1024
15:30:57.932508,0
15:30:57.932508,4
15:30:57.932508,0
15:30:57.932508,0
15:30:57.932508,2
15:30:57.932508,2816
15:30:57.932508,0
15:30:57.932508,11
15:30:57.932508,2816
15:30:57.932508,0
15:30:57.932508,45
15:30:57.932508,-26368
15:30:57.932508,0
15:30:57.932508,349
15:30:57.932508,18432
15:30:57.932508,2
15:30:57.932508,738
15:30:57.932508,4352
15:30:57.932508,2
15:30:57.932508,-179
15:30:57.932508,13055
15:30:57.932508,-3
15:30:57.932508,-469
15:30:57.932508,-6913
15:30:57.932508,-1
15:30:57.932508,38
15:30:57.932508,5888
15:30:57.932508,0
15:30:57.932508,91
15:30:57.932508,23296
15:30:57.932508,0
15:30:57.932508,79
15:30:57.932508,28160
15:30:57.932508,0
15:30:57.932508,119
15:30:57.932508,29952
15:30:57.932508,0
15:30:57.932508,139
15:30:57.932508,-26368
15:30:57.932508,0
15:30:57.932508,160
15:30:57.932508,-18432
15:30:57.932508,0
15:30:57.932508,206
15:30:57.932508,-10496
15:30:57.932508,0
15:30:57.932508,242
15:30:57.932508,6144
15:30:57.932508,1
15:30:57.932508,306
15:30:57.932508,17664
15:30:57.932508,1
15:30:57.932508,342
15:30:57.932508,23296
15:30:57.932508,1
15:30:57.932508,345
15:30:57.932508,22784
15:30:57.932508,1
15:30:57.932508,333
15:30:57.932508,9216
15:30:57.932508,1
15:30:57.932508,222
15:30:57.932508,-27648
15:30:57.932508,0
15:30:57.932508,79
15:30:57.932508,4096
15:30:57.932508,0
15:30:57.932508,-28
15:30:57.932508,-13057
15:30:57.932508,-1
15:30:57.932508,-71
15:30:57.932508,-23041
15:30:57.932508,-1
15:30:57.932508,-93
15:30:57.932508,-20993
15:30:57.932508,-1
15:30:57.932508,-74
15:30:57.932508,-17409
15:30:57.932508,-1
15:30:57.932508,-67
15:30:57.932508,-14849
15:30:57.932508,-1
15:30:57.932508,-47
15:30:57.932508,-9985
15:30:57.932508,-1
15:30:57.932508,-40
15:30:57.932508,-8705
15:30:57.932508,-1
15:30:57.932508,-28
15:30:57.932508,-6913
15:30:57.932508,-1
15:30:57.932508,-23
15:30:57.932508,-3841
15:30:57.932508,-1
15:30:57.932508,-19
15:30:58.472173,-23
15:30:58.472173,-5633
15:30:58.472173,-1
15:30:58.472173,-21
15:30:58.472173,-6401
15:30:58.472173,-1
15:30:58.472173,-23
15:30:58.472173,-5633
15:30:58.472173,-1
15:30:58.472173,-23
15:30:58.472173,-5121
15:30:58.472173,-1
15:30:58.472173,-19
15:30:58.472173,-3329
15:30:58.472173,-1
15:30:58.472173,-7
15:30:58.472173,-769
15:30:58.472173,-1
15:30:58.472173,-4
15:30:58.472173,-769
15:30:58.472173,-1
15:30:58.472173,0
15:30:58.472173,1792
15:30:58.472173,0
15:30:58.472173,16
15:30:58.472173,7936
15:30:58.472173,0
15:30:58.472173,50
15:30:58.472173,15104
15:30:58.472173,0
15:30:58.472173,47
15:30:58.472173,7168
15:30:58.472173,0
15:30:58.472173,21
15:30:58.472173,2816
15:30:58.472173,0
15:30:58.472173,-4
15:30:58.472173,-1537
15:30:58.472173,-1
15:30:58.472173,-2
15:30:58.472173,255
15:30:58.472173,0
15:30:58.472173,2
15:30:58.472173,512
15:30:58.472173,0
15:30:58.472173,16
15:30:58.472173,19456
15:30:58.472173,0
15:30:58.472173,215
15:30:58.472173,-17152
15:30:58.472173,1
15:30:58.472173,678
15:30:58.472173,-13824
15:30:58.472173,2
15:30:58.472173,282
15:30:58.472173,10240
15:30:58.472173,-2
15:30:58.472173,-709
15:30:58.472173,-1537
15:30:58.472173,-2
15:30:58.472173,38
15:30:58.472173,3584
15:30:58.472173,0
15:30:58.472173,43
15:30:58.472173,25600
15:30:58.472173,0
15:30:58.472173,81
15:30:58.472173,21248
15:30:58.472173,0
15:30:58.472173,112
15:30:58.472173,28672
15:30:58.472173,0
15:30:58.472173,117
15:30:58.472173,-30720
15:30:58.472173,0
15:30:58.472173,150
15:30:58.472173,-24064
15:30:58.472173,0
15:30:58.472173,179
15:30:58.472173,-14848
15:30:58.472173,0
15:30:58.472173,225
15:30:58.472173,0
15:30:58.472173,1
15:30:58.472173,282
15:30:58.472173,12288
15:30:58.472173,1
15:30:58.472173,325
15:30:58.472173,20736
15:30:58.472173,1
15:30:58.472173,340
15:30:58.472173,20736
15:30:58.472173,1
15:30:58.472173,330
15:30:58.472173,11520
15:30:58.472173,1
15:30:58.472173,244
15:30:58.472173,-20992
15:30:58.472173,0
15:30:58.472173,103
15:30:58.472173,8960
15:30:58.472173,0
15:30:58.472173,-16
15:30:58.472173,-13057
15:30:58.472173,-1
15:30:58.472173,-79
15:30:58.472173,-22273
15:30:58.472173,-1
15:30:58.472173,-93
15:30:59.056811,-98
15:30:59.056811,-24065
15:30:59.056811,-1
15:30:59.056811,-88
15:30:59.056811,-20993
15:30:59.056811,-1
15:30:59.056811,-81
15:30:59.056811,-17921
15:30:59.056811,-1
15:30:59.056811,-59
15:30:59.056811,-11777
15:30:59.056811,-1
15:30:59.056811,-38
15:30:59.056811,-8705
15:30:59.056811,-1
15:30:59.056811,-35
15:30:59.056811,-7681
15:30:59.056811,-1
15:30:59.056811,-28
15:30:59.056811,-6913
15:30:59.056811,-1
15:30:59.056811,-28
15:30:59.056811,-6913
15:30:59.056811,-1
15:30:59.056811,-28
15:30:59.056811,-7681
15:30:59.056811,-1
15:30:59.056811,-28
15:30:59.056811,-6401
15:30:59.056811,-1
15:30:59.056811,-28
15:30:59.056811,-8193
15:30:59.056811,-1
15:30:59.056811,-28
15:30:59.056811,-5633
15:30:59.056811,-1
15:30:59.056811,-23
15:30:59.056811,-5121
15:30:59.056811,-1
15:30:59.056811,-14
15:30:59.056811,-769
15:30:59.056811,-1
15:30:59.056811,-2
15:30:59.056811,255
15:30:59.056811,0
15:30:59.056811,14
15:30:59.056811,8448
15:30:59.056811,0
15:30:59.056811,47
15:30:59.056811,12800
15:30:59.056811,0
15:30:59.056811,35
15:30:59.056811,1792
15:30:59.056811,0
15:30:59.056811,-14
15:30:59.056811,-4609
15:30:59.056811,-1
15:30:59.056811,-16
15:30:59.056811,-4609
15:30:59.056811,-1
15:30:59.056811,-16
15:30:59.056811,-2561
15:30:59.056811,-1
15:30:59.056811,-11
15:30:59.056811,-257
15:30:59.056811,-1
15:30:59.056811,47
15:30:59.056811,-22784
15:30:59.056811,0
15:30:59.056811,376
15:30:59.056811,24064
15:30:59.056811,2
15:30:59.056811,683
15:30:59.056811,15872
15:30:59.056811,1
15:30:59.056811,-409
15:30:59.056811,18431
15:30:59.056811,-3
15:30:59.056811,-285
15:30:59.056811,10495
15:30:59.056811,0
15:30:59.056811,11
15:30:59.056811,4864
15:30:59.056811,0
15:30:59.056811,71
15:30:59.056811,14080
15:30:59.056811,0
15:30:59.056811,52
15:30:59.056811,21248
15:30:59.056811,0
15:30:59.056811,93
15:30:59.056811,25088
15:30:59.056811,0
15:30:59.056811,115
15:30:59.056811,-32000
15:30:59.056811,0
15:30:59.056811,143
15:30:59.056811,-24064
15:30:59.056811,0
15:30:59.056811,186
15:30:59.056811,-12288
15:30:59.056811,0
15:30:59.056811,232
15:30:59.056811,512
15:30:59.056811,1
15:30:59.056811,287
15:30:59.056811,14080
15:30:59.056811,1
15:30:59.056811,328
15:30:59.597476,333
15:30:59.597476,19712
15:30:59.597476,1
15:30:59.597476,323
15:30:59.597476,9728
15:30:59.597476,1
15:30:59.597476,239
15:30:59.597476,-22784
15:30:59.597476,0
15:30:59.597476,95
15:30:59.597476,6656
15:30:59.597476,0
15:30:59.597476,-28
15:30:59.597476,-16129
15:30:59.597476,-1
15:30:59.597476,-81
15:30:59.597476,-23041
15:30:59.597476,-1
15:30:59.597476,-95
15:30:59.597476,-23553
15:30:59.597476,-1
15:30:59.597476,-91
15:30:59.597476,-21761
15:30:59.597476,-1
15:30:59.597476,-76
15:30:59.597476,-16897
15:30:59.597476,-1
15:30:59.597476,-59
15:30:59.597476,-13057
15:30:59.597476,-1
15:30:59.597476,-50
15:30:59.597476,-10753
15:30:59.597476,-1
15:30:59.597476,-35
15:30:59.597476,-6913
15:30:59.597476,-1
15:30:59.597476,-28
15:30:59.597476,-6913
15:30:59.597476,-1
15:30:59.597476,-28
15:30:59.597476,-6401
15:30:59.597476,-1
15:30:59.597476,-23
15:30:59.597476,-5633
15:30:59.597476,-1
15:30:59.597476,-23
15:30:59.597476,-5633
15:30:59.597476,-1
15:30:59.597476,-26
15:30:59.597476,-6401
15:30:59.597476,-1
15:30:59.597476,-26
15:30:59.597476,-6401
15:30:59.597476,-1
15:30:59.597476,-23
15:30:59.597476,-5633
15:30:59.597476,-1
15:30:59.597476,-23
15:30:59.597476,-5633
15:30:59.597476,-1
15:30:59.597476,-19
15:30:59.597476,-3841
15:30:59.597476,-1
15:30:59.597476,-16
15:30:59.597476,-3329
15:30:59.597476,-1
15:30:59.597476,-7
15:30:59.597476,-769
15:30:59.597476,-1
15:30:59.597476,2
15:30:59.597476,3584
15:30:59.597476,0
15:30:59.597476,28
15:30:59.597476,11520
15:30:59.597476,0
15:30:59.597476,50
15:30:59.597476,7936
15:30:59.597476,0
15:30:59.597476,9
15:30:59.597476,512
15:30:59.597476,0
15:30:59.597476,-4
15:30:59.597476,-3329
15:30:59.597476,-1
15:30:59.597476,-16
15:30:59.597476,-2561
15:30:59.597476,-1
15:30:59.597476,-9
15:30:59.597476,-2049
15:30:59.597476,-1
15:30:59.597476,-7
15:30:59.597476,4351
15:30:59.597476,0
15:30:59.597476,95
15:30:59.597476,2560
15:30:59.597476,1
15:30:59.597476,496
15:30:59.597476,-20736
15:30:59.597476,2
15:30:59.597476,603
15:30:59.597476,4864
15:30:59.597476,0
15:30:59.597476,-620
15:30:59.597476,-11009
15:30:59.597476,-3
15:30:59.597476,-86
15:30:59.597476,13055
15:30:59.597476,0
15:30:59.597476,-2
15:31:00.137141,50
15:31:00.137141,18944
15:31:00.137141,0
15:31:00.137141,50
15:31:00.137141,17664
15:31:00.137141,0
15:31:00.137141,95
15:31:00.137141,25088
15:31:00.137141,0
15:31:00.137141,107
15:31:00.137141,32512
15:31:00.137141,0
15:31:00.137141,146
15:31:00.137141,-24576
15:31:00.137141,0
15:31:00.137141,179
15:31:00.137141,-13568
15:31:00.137141,0
15:31:00.137141,227
15:31:00.137141,-1792
15:31:00.137141,0
15:31:00.137141,275
15:31:00.137141,11520
15:31:00.137141,1
15:31:00.137141,321
15:31:00.137141,19712
15:31:00.137141,1
15:31:00.137141,340
15:31:00.137141,20736
15:31:00.137141,1
15:31:00.137141,325
15:31:00.137141,9216
15:31:00.137141,1
15:31:00.137141,234
15:31:00.137141,-24064
15:31:00.137141,0
15:31:00.137141,91
15:31:00.137141,6656
15:31:00.137141,0
15:31:00.137141,-23
15:31:00.137141,-14337
15:31:00.137141,-1
15:31:00.137141,-74
15:31:00.137141,-20993
15:31:00.137141,-1
15:31:00.137141,-88
15:31:00.137141,-22273
15:31:00.137141,-1
15:31:00.137141,-86
15:31:00.137141,-20481
15:31:00.137141,-1
15:31:00.137141,-76
15:31:00.137141,-16897
15:31:00.137141,-1
15:31:00.137141,-59
15:31:00.137141,-13825
15:31:00.137141,-1
15:31:00.137141,-47
15:31:00.137141,-9985
15:31:00.137141,-1
15:31:00.137141,-35
15:31:00.137141,-8193
15:31:00.137141,-1
15:31:00.137141,-31
15:31:00.137141,-6401
15:31:00.137141,-1
15:31:00.137141,-26
15:31:00.137141,-6401
15:31:00.137141,-1
15:31:00.137141,-23
15:31:00.137141,-5633
15:31:00.137141,-1
15:31:00.137141,-26
15:31:00.137141,-5633
15:31:00.137141,-1
15:31:00.137141,-23
15:31:00.137141,-5633
15:31:00.137141,-1
15:31:00.137141,-23
15:31:00.137141,-5633
15:31:00.137141,-1
15:31:00.137141,-21
15:31:00.137141,-4609
15:31:00.137141,-1
15:31:00.137141,-19
15:31:00.137141,-3841
15:31:00.137141,-1
15:31:00.137141,-14
15:31:00.137141,-2561
15:31:00.137141,-1
15:31:00.137141,-7
15:31:00.137141,-257
15:31:00.137141,-1
15:31:00.137141,2
15:31:00.137141,2816
15:31:00.137141,0
15:31:00.137141,23
15:31:00.137141,10240
15:31:00.137141,0
15:31:00.137141,57
15:31:00.137141,13312
15:31:00.137141,0
15:31:00.137141,26
15:31:00.137141,2816
15:31:00.137141,0
15:31:00.137141,7
15:31:00.137141,0
15:31:00.137141,0
15:31:00.137141,-7
15:31:00.721778,-7
15:31:00.721778,-257
15:31:00.721778,-1
15:31:00.721778,-2
15:31:00.721778,255
15:31:00.721778,0
15:31:00.721778,14
15:31:00.721778,15872
15:31:00.721778,0
15:31:00.721778,177
15:31:00.721778,30720
15:31:00.721778,1
15:31:00.721778,603
15:31:00.721778,-13824
15:31:00.721778,2
15:31:00.721778,409
15:31:00.721778,-16640
15:31:00.721778,-2
15:31:00.721778,-690
15:31:00.721778,-16385
15:31:00.721778,-2
15:31:00.721778,38
15:31:00.721778,7936
15:31:00.721778,0
15:31:00.721778,28
15:31:00.721778,22528
15:31:00.721778,0
15:31:00.721778,74
15:31:00.721778,16384
15:31:00.721778,0
15:31:00.721778,95
15:31:00.721778,28160
15:31:00.721778,0
15:31:00.721778,115
15:31:00.721778,-32000
15:31:00.721778,0
15:31:00.721778,143
15:31:00.721778,-27136
15:31:00.721778,0
15:31:00.721778,170
15:31:00.721778,-15872
15:31:00.721778,0
15:31:00.721778,215
15:31:00.721778,-5632
15:31:00.721778,0
15:31:00.721778,258
15:31:00.721778,8448
15:31:00.721778,1
15:31:00.721778,316
15:31:00.721778,18944
15:31:00.721778,1
15:31:00.721778,335
15:31:00.721778,20736
15:31:00.721778,1
15:31:00.721778,333
15:31:00.721778,15360
15:31:00.721778,1
15:31:00.721778,275
15:31:00.721778,-11008
15:31:00.721778,0
15:31:00.721778,143
15:31:00.721778,18176
15:31:00.721778,0
15:31:00.721778,7
15:31:00.721778,-8448
15:31:00.721778,-1
15:31:00.721778,-55
15:31:00.721778,-16897
15:31:00.721778,-1
15:31:00.721778,-76
15:31:00.721778,-20993
15:31:00.721778,-1
15:31:00.721778,-81
15:31:00.721778,-18689
15:31:00.721778,-1
15:31:00.721778,-62
15:31:00.721778,-13825
15:31:00.721778,-1
15:31:00.721778,-55
15:31:00.721778,-13825
15:31:00.721778,-1
15:31:00.721778,-40
15:31:00.721778,-8193
15:31:00.721778,-1
15:31:00.721778,-33
15:31:00.721778,-6913
15:31:00.721778,-1
15:31:00.721778,-21
15:31:00.721778,-3841
15:31:00.721778,-1
15:31:00.721778,-14
15:31:00.721778,-2561
15:31:00.721778,-1
15:31:00.721778,-11
15:31:00.721778,-2049
15:31:00.721778,-1
15:31:00.721778,-11
15:31:00.721778,-3841
15:31:00.721778,-1
15:31:00.721778,-16
15:31:00.721778,-3329
15:31:00.721778,-1
15:31:00.721778,-14
15:31:00.721778,-2049
15:31:00.721778,-1
15:31:00.721778,-2
15:31:00.721778,-257
15:31:00.721778,-1
15:31:00.721778,-4
15:31:01.307415,-4
15:31:01.307415,255
15:31:01.307415,0
15:31:01.307415,7
15:31:01.307415,2816
15:31:01.307415,0
15:31:01.307415,14
15:31:01.307415,4864
15:31:01.307415,0
15:31:01.307415,28
15:31:01.307415,12800
15:31:01.307415,0
15:31:01.307415,76
15:31:01.307415,19456
15:31:01.307415,0
15:31:01.307415,47
15:31:01.307415,6656
15:31:01.307415,0
15:31:01.307415,21
15:31:01.307415,3584
15:31:01.307415,0
15:31:01.307415,4
15:31:01.307415,1792
15:31:01.307415,0
15:31:01.307415,14
15:31:01.307415,3584
15:31:01.307415,0
15:31:01.307415,14
15:31:01.307415,5376
15:31:01.307415,0
15:31:01.307415,47
15:31:01.307415,-29952
15:31:01.307415,0
15:31:01.307415,325
15:31:01.307415,13056
15:31:01.307415,2
15:31:01.307415,733
15:31:01.307415,20992
15:31:01.307415,2
15:31:01.307415,-62
15:31:01.307415,22015
15:31:01.307415,-3
15:31:01.307415,-539
15:31:01.307415,-18689
15:31:01.307415,-1
15:31:01.307415,35
15:31:01.307415,4096
15:31:01.307415,0
15:31:01.307415,88
15:31:01.307415,25088
15:31:01.307415,0
15:31:01.307415,76
15:31:01.307415,26368
15:31:01.307415,0
15:31:01.307415,115
15:31:01.307415,29440
15:31:01.307415,0
15:31:01.307415,136
15:31:01.307415,-26368
15:31:01.307415,0
15:31:01.307415,162
15:31:01.307415,-19712
15:31:01.307415,0
15:31:01.307415,194
15:31:01.307415,-11008
15:31:01.307415,0
15:31:01.307415,244
15:31:01.307415,3072
15:31:01.307415,1
15:31:01.307415,285
15:31:01.307415,14592
15:31:01.307415,1
15:31:01.307415,337
15:31:01.307415,22784
15:31:01.307415,1
15:31:01.307415,349
15:31:01.307415,24576
15:31:01.307415,1
15:31:01.307415,340
15:31:01.307415,11008
15:31:01.307415,1
15:31:01.307415,239
15:31:01.307415,-22016
15:31:01.307415,0
15:31:01.307415,98
15:31:01.307415,10240
15:31:01.307415,0
15:31:01.307415,-7
15:31:01.307415,-11777
15:31:01.307415,-1
15:31:01.307415,-69
15:31:01.307415,-17921
15:31:01.307415,-1
15:31:01.307415,-71
15:31:01.307415,-17921
15:31:01.307415,-1
15:31:01.307415,-69
15:31:01.307415,-17409
15:31:01.307415,-1
15:31:01.307415,-64
15:31:01.307415,-13825
15:31:01.307415,-1
15:31:01.307415,-38
15:31:01.307415,-6913
15:31:01.307415,-1
15:31:01.307415,-31
15:31:01.307415,-7681
15:31:01.307415,-1
15:31:01.307415,-16
15:31:01.847081,-14
15:31:01.847081,-4609
15:31:01.847081,-1
15:31:01.847081,-19
15:31:01.847081,-3329
15:31:01.847081,-1
15:31:01.847081,-11
15:31:01.847081,-2561
15:31:01.847081,-1
15:31:01.847081,-11
15:31:01.847081,-2561
15:31:01.847081,-1
15:31:01.847081,-11
15:31:01.847081,-3841
15:31:01.847081,-1
15:31:01.847081,-19
15:31:01.847081,-2561
15:31:01.847081,-1
15:31:01.847081,-4
15:31:01.847081,-769
15:31:01.847081,-1
15:31:01.847081,-2
15:31:01.847081,767
15:31:01.847081,0
15:31:01.847081,4
15:31:01.847081,4096
15:31:01.847081,0
15:31:01.847081,23
15:31:01.847081,5888
15:31:01.847081,0
15:31:01.847081,38
15:31:01.847081,15104
15:31:01.847081,0
15:31:01.847081,67
15:31:01.847081,11520
15:31:01.847081,0
15:31:01.847081,19
15:31:01.847081,512
15:31:01.847081,0
15:31:01.847081,-4
15:31:01.847081,-1537
15:31:01.847081,-1
15:31:01.847081,-9
15:31:01.847081,255
15:31:01.847081,0
15:31:01.847081,4
15:31:01.847081,0
15:31:01.847081,0
15:31:01.847081,9
15:31:01.847081,15104
15:31:01.847081,0
15:31:01.847081,179
15:31:01.847081,-29952
15:31:01.847081,1
15:31:01.847081,630
15:31:01.847081,-12800
15:31:01.847081,2
15:31:01.847081,400
15:31:01.847081,-22784
15:31:01.847081,-2
15:31:01.847081,-740
15:31:01.847081,-28673
15:31:01.847081,-2
15:31:01.847081,16
15:31:01.847081,5376
15:31:01.847081,0
15:31:01.847081,23
15:31:01.847081,23296
15:31:01.847081,0
15:31:01.847081,76
15:31:01.847081,17152
15:31:01.847081,0
15:31:01.847081,100
15:31:01.847081,27392
15:31:01.847081,0
15:31:01.847081,110
15:31:01.847081,-32000
15:31:01.847081,0
15:31:01.847081,150
15:31:01.847081,-24576
15:31:01.847081,0
15:31:01.847081,177
15:31:01.847081,-14848
15:31:01.847081,0
15:31:01.847081,220
15:31:01.847081,-3072
15:31:01.847081,0
15:31:01.847081,273
15:31:01.847081,11008
15:31:01.847081,1
15:31:01.847081,318
15:31:01.847081,18944
15:31:01.847081,1
15:31:01.847081,340
15:31:01.847081,22784
15:31:01.847081,1
15:31:01.847081,337
15:31:01.847081,14592
15:31:01.847081,1
15:31:01.847081,258
15:31:01.847081,-18432
15:31:01.847081,0
15:31:01.847081,110
15:31:01.847081,11520
15:31:01.847081,0
15:31:01.847081,-11
15:31:01.847081,-13825
15:31:01.847081,-1
15:31:01.847081,-79
15:31:02.386749,-91
15:31:02.386749,-23553
15:31:02.386749,-1
15:31:02.386749,-95
15:31:02.386749,-24065
15:31:02.386749,-1
15:31:02.386749,-91
15:31:02.386749,-20993
15:31:02.386749,-1
15:31:02.386749,-74
15:31:02.386749,-16129
15:31:02.386749,-1
15:31:02.386749,-55
15:31:02.386749,-11265
15:31:02.386749,-1
15:31:02.386749,-40
15:31:02.386749,-9473
15:31:02.386749,-1
15:31:02.386749,-35
15:31:02.386749,-8705
15:31:02.386749,-1
15:31:02.386749,-33
15:31:02.386749,-6913
15:31:02.386749,-1
15:31:02.386749,-28
15:31:02.386749,-6913
15:31:02.386749,-1
15:31:02.386749,-28
15:31:02.386749,-6913
15:31:02.386749,-1
15:31:02.386749,-31
15:31:02.386749,-7681
15:31:02.386749,-1
15:31:02.386749,-31
15:31:02.386749,-8193
15:31:02.386749,-1
15:31:02.386749,-33
15:31:02.386749,-7681
15:31:02.386749,-1
15:31:02.386749,-31
15:31:02.386749,-6913
15:31:02.386749,-1
15:31:02.386749,-28
15:31:02.386749,-6401
15:31:02.386749,-1
15:31:02.386749,-23
15:31:02.386749,-5633
15:31:02.386749,-1
15:31:02.386749,-16
15:31:02.386749,-2049
15:31:02.386749,-1
15:31:02.386749,-4
15:31:02.386749,1279
15:31:02.386749,0
15:31:02.386749,21
15:31:02.386749,10240
15:31:02.386749,0
15:31:02.386749,47
15:31:02.386749,7936
15:31:02.386749,0
15:31:02.386749,7
15:31:02.386749,-512
15:31:02.386749,-1
15:31:02.386749,-7
15:31:02.386749,-4609
15:31:02.386749,-1
15:31:02.386749,-23
15:31:02.386749,-4609
15:31:02.386749,-1
15:31:02.386749,-14
15:31:02.386749,-2561
15:31:02.386749,-1
15:31:02.386749,-7
15:31:02.386749,2559
15:31:02.386749,0
15:31:02.386749,83
15:31:02.386749,-1792
15:31:02.386749,0
15:31:02.386749,479
15:31:02.386749,-24832
15:31:02.386749,2
15:31:02.386749,606
15:31:02.386749,14592
15:31:02.386749,0
15:31:02.386749,-606
15:31:02.386749,-24321
15:31:02.386749,-3
15:31:02.386749,-127
15:31:02.386749,13567
15:31:02.386749,0
15:31:02.386749,-2
15:31:02.386749,11263
15:31:02.386749,0
15:31:02.386749,76
15:31:02.386749,12800
15:31:02.386749,0
15:31:02.386749,64
15:31:02.386749,23808
15:31:02.386749,0
15:31:02.386749,98
15:31:02.386749,26880
15:31:02.386749,0
15:31:02.386749,122
15:31:02.386749,-30720
15:31:02.386749,0
15:31:02.386749,148
15:31:02.386749,-22784
15:31:02.386749,0
15:31:02.386749,191
15:31:02.972384,215
15:31:02.972384,-4352
15:31:02.972384,0
15:31:02.972384,268
15:31:02.972384,9728
15:31:02.972384,1
15:31:02.972384,316
15:31:02.972384,18944
15:31:02.972384,1
15:31:02.972384,345
15:31:02.972384,22784
15:31:02.972384,1
15:31:02.972384,330
15:31:02.972384,9728
15:31:02.972384,1
15:31:02.972384,239
15:31:02.972384,-22784
15:31:02.972384,0
15:31:02.972384,95
15:31:02.972384,7168
15:31:02.972384,0
15:31:02.972384,-21
15:31:02.972384,-14337
15:31:02.972384,-1
15:31:02.972384,-76
15:31:02.972384,-20993
15:31:02.972384,-1
15:31:02.972384,-86
15:31:02.972384,-22273
15:31:02.972384,-1
15:31:02.972384,-86
15:31:02.972384,-20481
15:31:02.972384,-1
15:31:02.972384,-74
15:31:02.972384,-16897
15:31:02.972384,-1
15:31:02.972384,-55
15:31:02.972384,-12545
15:31:02.972384,-1
15:31:02.972384,-45
15:31:02.972384,-9985
15:31:02.972384,-1
15:31:02.972384,-35
15:31:02.972384,-6913
15:31:02.972384,-1
15:31:02.972384,-26
15:31:02.972384,-5633
15:31:02.972384,-1
15:31:02.972384,-23
15:31:02.972384,-5633
15:31:02.972384,-1
15:31:02.972384,-23
15:31:02.972384,-5121
15:31:02.972384,-1
15:31:02.972384,-21
15:31:02.972384,-5633
15:31:02.972384,-1
15:31:02.972384,-21
15:31:02.972384,-3329
15:31:02.972384,-1
15:31:02.972384,-14
15:31:02.972384,-3841
15:31:02.972384,-1
15:31:02.972384,-14
15:31:02.972384,-2561
15:31:02.972384,-1
15:31:02.972384,-11
15:31:02.972384,-2561
15:31:02.972384,-1
15:31:02.972384,-7
15:31:02.972384,767
15:31:02.972384,0
15:31:02.972384,4
15:31:02.972384,1792
15:31:02.972384,0
15:31:02.972384,14
15:31:02.972384,5888
15:31:02.972384,0
15:31:02.972384,43
15:31:02.972384,15104
15:31:02.972384,0
15:31:02.972384,55
15:31:02.972384,7936
15:31:02.972384,0
15:31:02.972384,16
15:31:02.972384,2816
15:31:02.972384,0
15:31:02.972384,4
15:31:02.972384,-1024
15:31:02.972384,-1
15:31:02.972384,-4
15:31:02.972384,-257
15:31:02.972384,-1
15:31:02.972384,-2
15:31:02.972384,-257
15:31:02.972384,-1
15:31:02.972384,4
15:31:02.972384,11520
15:31:02.972384,0
15:31:02.972384,150
15:31:02.972384,22784
15:31:02.972384,1
15:31:02.972384,572
15:31:02.972384,-17664
15:31:02.972384,2
15:31:02.972384,450
15:31:02.972384,1280
15:31:02.972384,-1
15:31:02.972384,-690
15:31:03.691938,-376
15:31:03.691938,5119
15:31:03.691938,0
15:31:03.691938,33
15:31:03.691938,3584
15:31:03.691938,0
15:31:03.691938,76
15:31:03.691938,18176
15:31:03.691938,0
15:31:03.691938,55
15:31:03.691938,21248
15:31:03.691938,0
15:31:03.691938,100
15:31:03.691938,28160
15:31:03.691938,0
15:31:03.691938,129
15:31:03.691938,-29440
15:31:03.691938,0
15:31:03.691938,150
15:31:03.691938,-22784
15:31:03.691938,0
15:31:03.691938,189
15:31:03.691938,-12288
15:31:03.691938,0
15:31:03.691938,234
15:31:03.691938,512
15:31:03.691938,1
15:31:03.691938,280
15:31:03.691938,12288
15:31:03.691938,1
15:31:03.691938,325
15:31:03.691938,20736
15:31:03.691938,1
15:31:03.691938,340
15:31:03.691938,20224
15:31:03.691938,1
15:31:03.691938,316
15:31:03.691938,4352
15:31:03.691938,1
15:31:03.691938,208
15:31:03.691938,-30720
15:31:03.691938,0
15:31:03.691938,67
15:31:03.691938,1792
15:31:03.691938,0
15:31:03.691938,-35
15:31:03.691938,-15617
15:31:03.691938,-1
15:31:03.691938,-74
15:31:03.691938,-19969
15:31:03.691938,-1
15:31:03.691938,-81
15:31:03.691938,-20481
15:31:03.691938,-1
15:31:03.691938,-76
15:31:03.691938,-17921
15:31:03.691938,-1
15:31:03.691938,-67
15:31:03.691938,-14337
15:31:03.691938,-1
15:31:03.691938,-47
15:31:03.691938,-11265
15:31:03.691938,-1
15:31:03.691938,-40
15:31:03.691938,-7681
15:31:03.691938,-1
15:31:03.691938,-28
15:31:03.691938,-6401
15:31:03.691938,-1
15:31:03.691938,-23
15:31:03.691938,-5121
15:31:03.691938,-1
15:31:03.691938,-19
15:31:03.691938,-3841
15:31:03.691938,-1
15:31:03.691938,-14
15:31:03.691938,-3329
15:31:03.691938,-1
15:31:03.691938,-16
15:31:03.691938,-3841
15:31:03.691938,-1
15:31:03.691938,-16
15:31:03.691938,-4609
15:31:03.691938,-1
15:31:03.691938,-19
15:31:03.691938,-3841
15:31:03.691938,-1
15:31:03.691938,-14
15:31:03.691938,-3329
15:31:03.691938,-1
15:31:03.691938,-14
15:31:03.691938,-3329
15:31:03.691938,-1
15:31:03.691938,-9
15:31:03.691938,-257
15:31:03.691938,-1
15:31:03.691938,2
15:31:03.691938,1792
15:31:03.691938,0
15:31:03.691938,14
15:31:03.691938,7168
15:31:03.691938,0
15:31:03.691938,47
15:31:03.691938,14592
15:31:03.691938,0
15:31:03.691938,40
15:31:03.691938,4096
15:31:03.691938,0
15:31:03.691938,9
15:31:04.097685,2
15:31:04.097685,-1792
15:31:04.097685,-1
15:31:04.097685,-11
15:31:04.097685,-2049
15:31:04.097685,-1
15:31:04.097685,-4
15:31:04.097685,-769
15:31:04.097685,-1
15:31:04.097685,-2
15:31:04.097685,4351
15:31:04.097685,0
15:31:04.097685,86
15:31:04.097685,-4352
15:31:04.097685,0
15:31:04.097685,455
15:31:04.097685,-27392
15:31:04.097685,2
15:31:04.097685,635
15:31:04.097685,26880
15:31:04.097685,0
15:31:04.097685,-577
15:31:04.097685,-21249
15:31:04.097685,-3
15:31:04.097685,-122
15:31:04.097685,15359
15:31:04.097685,0
15:31:04.097685,11
15:31:04.097685,15872
15:31:04.097685,0
15:31:04.097685,93
15:31:04.097685,16384
15:31:04.097685,0
15:31:04.097685,79
15:31:04.097685,26368
15:31:04.097685,0
15:31:04.097685,105
15:31:04.097685,29440
15:31:04.097685,0
15:31:04.097685,131
15:31:04.097685,-29952
15:31:04.097685,0
15:31:04.097685,153
15:31:04.097685,-20992
15:31:04.097685,0
15:31:04.097685,201
15:31:04.097685,-9728
15:31:04.097685,0
15:31:04.097685,239
15:31:04.097685,2560
15:31:04.097685,1
15:31:04.097685,287
15:31:04.097685,12288
15:31:04.097685,1
15:31:04.097685,321
15:31:04.097685,18432
15:31:04.097685,1
15:31:04.097685,330
15:31:04.097685,17152
15:31:04.097685,1
15:31:04.097685,297
15:31:04.097685,-3072
15:31:04.097685,0
15:31:04.097685,179
15:31:04.097685,27392
15:31:04.097685,0
15:31:04.097685,40
15:31:04.097685,-2304
15:31:04.097685,-1
15:31:04.097685,-43
15:31:04.097685,-15617
15:31:04.097685,-1
15:31:04.097685,-74
15:31:04.097685,-19969
15:31:04.097685,-1
15:31:04.097685,-76
15:31:04.097685,-17921
15:31:04.097685,-1
15:31:04.097685,-71
15:31:04.097685,-16129
15:31:04.097685,-1
15:31:04.097685,-50
15:31:04.097685,-11777
15:31:04.097685,-1
15:31:04.097685,-45
15:31:04.097685,-9473
15:31:04.097685,-1
15:31:04.097685,-31
15:31:04.097685,-6913
15:31:04.097685,-1
15:31:04.097685,-23
15:31:04.097685,-4609
15:31:04.097685,-1
15:31:04.097685,-19
15:31:04.097685,-6401
15:31:04.097685,-1
15:31:04.097685,-23
15:31:04.097685,-4609
15:31:04.097685,-1
15:31:04.097685,-21
15:31:04.097685,-6401
15:31:04.097685,-1
