timestamp,ecg
25:16.4,71
25:16.4,16896
25:16.4,0
25:16.4,81
25:16.4,19968
25:16.4,0
25:16.4,64
25:16.4,17664
25:16.4,0
25:16.4,81
25:16.4,18176
25:16.4,0
25:16.4,50
25:16.4,14592
25:16.4,0
25:16.4,64
25:16.4,12800
25:16.4,0
25:16.4,50
25:16.4,20736
25:16.4,0
25:16.4,95
25:16.4,23040
25:16.4,0
25:16.4,100
25:16.4,27392
25:16.4,0
25:16.4,88
25:16.4,13312
25:16.4,0
25:16.4,42
25:16.4,15104
25:16.4,0
25:16.4,50
25:16.4,7168
25:16.4,0
25:16.4,28
25:16.4,4864
25:16.4,0
25:16.4,21
25:16.4,31488
25:16.4,0
25:16.4,383
25:16.4,-5376
25:16.4,1
25:16.4,-92
25:16.4,17407
25:16.4,-5
25:16.4,-1864
25:16.4,-18689
25:16.4,-6
25:16.4,-376
25:16.4,9983
25:16.4,0
25:16.4,88
25:16.4,-8960
25:16.4,0
25:16.4,267
25:16.4,-13824
25:16.4,0
25:16.4,212
25:16.4,-4096
25:16.4,0
25:16.4,226
25:16.4,-11264
25:16.4,0
25:16.4,207
25:16.4,-13824
25:16.4,0
25:16.4,212
25:16.4,-10752
25:16.4,0
25:16.4,205
25:16.4,-12544
25:16.4,0
25:16.4,219
25:16.4,-12032
25:16.4,0
25:16.4,183
25:16.4,-23552
25:16.4,0
25:16.4,162
25:16.4,-27904
25:16.4,0
25:16.4,112
25:16.4,23552
25:16.4,0
25:16.4,97
25:16.4,26112
25:16.4,0
25:16.4,92
25:16.4,18688
25:16.4,0
25:16.4,66
25:16.4,18176
25:16.4,0
25:16.4,66
25:16.4,16384
25:16.4,0
25:16.4,78
25:16.4,19456
25:16.4,0
25:16.4,64
25:16.4,20736
25:16.4,0
25:16.4,85
25:16.4,17664
25:16.4,0
25:16.4,57
25:16.9,69
25:16.9,21248
25:16.9,0
25:16.9,83
25:16.9,21760
25:16.9,0
25:16.9,92
25:16.9,22528
25:16.9,0
25:16.9,78
25:16.9,16896
25:16.9,0
25:16.9,57
25:16.9,13824
25:16.9,0
25:16.9,54
25:16.9,9728
25:16.9,0
25:16.9,16
25:16.9,7168
25:16.9,0
25:16.9,54
25:16.9,19968
25:16.9,0
25:16.9,190
25:16.9,-17664
25:16.9,1
25:16.9,464
25:16.9,8192
25:16.9,-1
25:16.9,-1320
25:16.9,5631
25:16.9,-7
25:16.9,-1118
25:16.9,5375
25:16.9,-1
25:16.9,76
25:16.9,-30976
25:16.9,0
25:16.9,247
25:16.9,2048
25:16.9,1
25:16.9,231
25:16.9,-2816
25:16.9,0
25:16.9,247
25:16.9,-8192
25:16.9,0
25:16.9,228
25:16.9,-5120
25:16.9,0
25:16.9,221
25:16.9,-8960
25:16.9,0
25:16.9,231
25:16.9,-9472
25:16.9,0
25:16.9,212
25:16.9,-10240
25:16.9,0
25:16.9,209
25:16.9,-19200
25:16.9,0
25:16.9,154
25:16.9,-29696
25:16.9,0
25:16.9,131
25:16.9,29696
25:16.9,0
25:16.9,97
25:16.9,24320
25:16.9,0
25:16.9,107
25:16.9,26112
25:16.9,0
25:16.9,90
25:16.9,21760
25:16.9,0
25:16.9,90
25:16.9,23552
25:16.9,0
25:16.9,95
25:16.9,24320
25:16.9,0
25:16.9,95
25:16.9,23552
25:16.9,0
25:16.9,88
25:16.9,24320
25:16.9,0
25:16.9,92
25:16.9,21248
25:16.9,0
25:16.9,85
25:16.9,26112
25:16.9,0
25:16.9,116
25:16.9,28672
25:16.9,0
25:16.9,104
25:16.9,27392
25:16.9,0
25:16.9,88
25:16.9,15616
25:16.9,0
25:16.9,61
25:16.9,15104
25:16.9,0
25:16.9,52
25:17.5,47
25:17.5,9728
25:17.5,0
25:17.5,33
25:17.5,8960
25:17.5,0
25:17.5,78
25:17.5,-256
25:17.5,0
25:17.5,495
25:17.5,19200
25:17.5,1
25:17.5,-569
25:17.5,-9217
25:17.5,-7
25:17.5,-1614
25:17.5,7679
25:17.5,-3
25:17.5,-45
25:17.5,27647
25:17.5,0
25:17.5,205
25:17.5,13568
25:17.5,1
25:17.5,259
25:17.5,-13056
25:17.5,0
25:17.5,247
25:17.5,1536
25:17.5,1
25:17.5,228
25:17.5,-8192
25:17.5,0
25:17.5,233
25:17.5,-8192
25:17.5,0
25:17.5,228
25:17.5,-7680
25:17.5,0
25:17.5,219
25:17.5,-6400
25:17.5,0
25:17.5,214
25:17.5,-23040
25:17.5,0
25:17.5,147
25:17.5,-24832
25:17.5,0
25:17.5,157
25:17.5,30976
25:17.5,0
25:17.5,104
25:17.5,30464
25:17.5,0
25:17.5,119
25:17.5,29696
25:17.5,0
25:17.5,131
25:17.5,-30208
25:17.5,0
25:17.5,128
25:17.5,31488
25:17.5,0
25:17.5,123
25:17.5,32256
25:17.5,0
25:17.5,128
25:17.5,32256
25:17.5,0
25:17.5,121
25:17.5,30464
25:17.5,0
25:17.5,114
25:17.5,28672
25:17.5,0
25:17.5,109
25:17.5,28672
25:17.5,0
25:17.5,123
25:17.5,-32000
25:17.5,0
25:17.5,133
25:17.5,-31488
25:17.5,0
25:17.5,126
25:17.5,27904
25:17.5,0
25:17.5,95
25:17.5,24320
25:17.5,0
25:17.5,92
25:17.5,19968
25:17.5,0
25:17.5,69
25:17.5,16896
25:17.5,0
25:17.5,66
25:17.5,21248
25:17.5,0
25:17.5,207
25:17.5,-11520
25:17.5,1
25:17.5,491
25:17.5,15616
25:17.5,-1
25:17.5,-1266
25:17.5,29439
25:17.5,-7
25:17.5,-1037
25:18.0,-214
25:18.0,20991
25:18.0,0
25:18.0,162
25:18.0,5120
25:18.0,1
25:18.0,281
25:18.0,-2816
25:18.0,0
25:18.0,262
25:18.0,2816
25:18.0,1
25:18.0,245
25:18.0,-4096
25:18.0,0
25:18.0,243
25:18.0,-1536
25:18.0,0
25:18.0,259
25:18.0,256
25:18.0,1
25:18.0,250
25:18.0,-1024
25:18.0,0
25:18.0,250
25:18.0,-4096
25:18.0,0
25:18.0,224
25:18.0,-13824
25:18.0,0
25:18.0,178
25:18.0,-24064
25:18.0,0
25:18.0,152
25:18.0,-28416
25:18.0,0
25:18.0,143
25:18.0,-26112
25:18.0,0
25:18.0,164
25:18.0,-23040
25:18.0,0
25:18.0,162
25:18.0,-25344
25:18.0,0
25:18.0,159
25:18.0,-24832
25:18.0,0
25:18.0,154
25:18.0,-26112
25:18.0,0
25:18.0,150
25:18.0,-28416
25:18.0,0
25:18.0,143
25:18.0,-30208
25:18.0,0
25:18.0,135
25:18.0,-32768
25:18.0,0
25:18.0,126
25:18.0,-31488
25:18.0,0
25:18.0,147
25:18.0,-27136
25:18.0,0
25:18.0,150
25:18.0,-28416
25:18.0,0
25:18.0,135
25:18.0,32256
25:18.0,0
25:18.0,119
25:18.0,29184
25:18.0,0
25:18.0,109
25:18.0,26624
25:18.0,0
25:18.0,97
25:18.0,24832
25:18.0,0
25:18.0,102
25:18.0,-24832
25:18.0,0
25:18.0,376
25:18.0,17152
25:18.0,2
25:18.0,214
25:18.0,-8448
25:18.0,-4
25:18.0,-1609
25:18.0,-22273
25:18.0,-6
25:18.0,-503
25:18.0,3071
25:18.0,0
25:18.0,140
25:18.0,1536
25:18.0,1
25:18.0,307
25:18.0,1536
25:18.0,1
25:18.0,264
25:18.0,6400
25:18.0,1
25:18.0,262
25:18.0,-1536
25:18.0,0
25:18.0,255
25:18.6,247
25:18.6,-4608
25:18.6,0
25:18.6,236
25:18.6,-5120
25:18.6,0
25:18.6,236
25:18.6,-5120
25:18.6,0
25:18.6,228
25:18.6,-9472
25:18.6,0
25:18.6,207
25:18.6,-13824
25:18.6,0
25:18.6,205
25:18.6,-15104
25:18.6,0
25:18.6,178
25:18.6,-22272
25:18.6,0
25:18.6,176
25:18.6,-19200
25:18.6,0
25:18.6,181
25:18.6,-19200
25:18.6,0
25:18.6,174
25:18.6,-23040
25:18.6,0
25:18.6,164
25:18.6,-24832
25:18.6,0
25:18.6,159
25:18.6,-25344
25:18.6,0
25:18.6,145
25:18.6,-32000
25:18.6,0
25:18.6,123
25:18.6,30464
25:18.6,0
25:18.6,119
25:18.6,29696
25:18.6,0
25:18.6,112
25:18.6,31488
25:18.6,0
25:18.6,143
25:18.6,-29696
25:18.6,0
25:18.6,133
25:18.6,-30208
25:18.6,0
25:18.6,131
25:18.6,29696
25:18.6,0
25:18.6,116
25:18.6,29184
25:18.6,0
25:18.6,109
25:18.6,26112
25:18.6,0
25:18.6,90
25:18.6,20736
25:18.6,0
25:18.6,88
25:18.6,-27904
25:18.6,0
25:18.6,355
25:18.6,14080
25:18.6,2
25:18.6,271
25:18.6,19712
25:18.6,-3
25:18.6,-1545
25:18.6,-26625
25:18.6,-6
25:18.6,-543
25:18.6,-5121
25:18.6,-1
25:18.6,107
25:18.6,-4096
25:18.6,0
25:18.6,305
25:18.6,256
25:18.6,1
25:18.6,247
25:18.6,2048
25:18.6,1
25:18.6,245
25:18.6,-7168
25:18.6,0
25:18.6,231
25:18.6,-7680
25:18.6,0
25:18.6,219
25:18.6,-10240
25:18.6,0
25:18.6,212
25:18.6,-13056
25:18.6,0
25:18.6,202
25:18.6,-14336
25:18.6,0
25:18.6,193
25:18.6,-20480
25:18.6,0
25:18.6,159
25:19.1,145
25:19.1,-30976
25:19.1,0
25:19.1,123
25:19.1,30464
25:19.1,0
25:19.1,126
25:19.1,-31488
25:19.1,0
25:19.1,140
25:19.1,-28416
25:19.1,0
25:19.1,154
25:19.1,-24064
25:19.1,0
25:19.1,157
25:19.1,-28416
25:19.1,0
25:19.1,143
25:19.1,-30208
25:19.1,0
25:19.1,131
25:19.1,-31488
25:19.1,0
25:19.1,131
25:19.1,30464
25:19.1,0
25:19.1,107
25:19.1,25600
25:19.1,0
25:19.1,95
25:19.1,26624
25:19.1,0
25:19.1,119
25:19.1,30464
25:19.1,0
25:19.1,116
25:19.1,30464
25:19.1,0
25:19.1,109
25:19.1,23040
25:19.1,0
25:19.1,83
25:19.1,23040
25:19.1,0
25:19.1,92
25:19.1,19968
25:19.1,0
25:19.1,64
25:19.1,15616
25:19.1,0
25:19.1,69
25:19.1,27904
25:19.1,0
25:19.1,283
25:19.1,3072
25:19.1,2
25:19.1,369
25:19.1,5376
25:19.1,-2
25:19.1,-1456
25:19.1,5375
25:19.1,-6
25:19.1,-708
25:19.1,-20993
25:19.1,-1
25:19.1,59
25:19.1,-18688
25:19.1,0
25:19.1,283
25:19.1,-4608
25:19.1,0
25:19.1,216
25:19.1,-5120
25:19.1,0
25:19.1,224
25:19.1,-11264
25:19.1,0
25:19.1,212
25:19.1,-13056
25:19.1,0
25:19.1,195
25:19.1,-15616
25:19.1,0
25:19.1,190
25:19.1,-18688
25:19.1,0
25:19.1,178
25:19.1,-20480
25:19.1,0
25:19.1,169
25:19.1,-25344
25:19.1,0
25:19.1,140
25:19.1,31488
25:19.1,0
25:19.1,114
25:19.1,26112
25:19.1,0
25:19.1,95
25:19.1,26112
25:19.1,0
25:19.1,116
25:19.1,-32768
25:19.1,0
25:19.1,133
25:19.1,-32000
25:19.1,0
25:19.1,128
25:19.7,131
25:19.7,-32000
25:19.7,0
25:19.7,121
25:19.7,29696
25:19.7,0
25:19.7,114
25:19.7,26112
25:19.7,0
25:19.7,95
25:19.7,29184
25:19.7,0
25:19.7,121
25:19.7,26112
25:19.7,0
25:19.7,95
25:19.7,30464
25:19.7,0
25:19.7,128
25:19.7,29696
25:19.7,0
25:19.7,116
25:19.7,31488
25:19.7,0
25:19.7,97
25:19.7,13824
25:19.7,0
25:19.7,57
25:19.7,20736
25:19.7,0
25:19.7,71
25:19.7,15104
25:19.7,0
25:19.7,61
25:19.7,16384
25:19.7,0
25:19.7,71
25:19.7,-23040
25:19.7,0
25:19.7,414
25:19.7,7424
25:19.7,2
25:19.7,28
25:19.7,5376
25:19.7,-4
25:19.7,-1607
25:19.7,31999
25:19.7,-5
25:19.7,-336
25:19.7,2559
25:19.7,0
25:19.7,107
25:19.7,-3328
25:19.7,0
25:19.7,252
25:19.7,-14336
25:19.7,0
25:19.7,224
25:19.7,-6400
25:19.7,0
25:19.7,202
25:19.7,-14336
25:19.7,0
25:19.7,202
25:19.7,-18176
25:19.7,0
25:19.7,176
25:19.7,-19968
25:19.7,0
25:19.7,183
25:19.7,-20480
25:19.7,0
25:19.7,162
25:19.7,-26624
25:19.7,0
25:19.7,145
25:19.7,-30208
25:19.7,0
25:19.7,121
25:19.7,26624
25:19.7,0
25:19.7,92
25:19.7,22528
25:19.7,0
25:19.7,92
25:19.7,25600
25:19.7,0
25:19.7,112
25:19.7,30976
25:19.7,0
25:19.7,126
25:19.7,32256
25:19.7,0
25:19.7,128
25:19.7,-32768
25:19.7,0
25:19.7,123
25:19.7,31488
25:19.7,0
25:19.7,123
25:19.7,27904
25:19.7,0
25:19.7,102
25:19.7,27392
25:19.7,0
25:19.7,97
25:19.7,21760
25:19.7,0
25:19.7,88
25:20.3,100
25:20.3,26624
25:20.3,0
25:20.3,100
25:20.3,24320
25:20.3,0
25:20.3,92
25:20.3,19456
25:20.3,0
25:20.3,61
25:20.3,15104
25:20.3,0
25:20.3,64
25:20.3,15104
25:20.3,0
25:20.3,52
25:20.3,13824
25:20.3,0
25:20.3,66
25:20.3,21248
25:20.3,0
25:20.3,185
25:20.3,-17664
25:20.3,1
25:20.3,531
25:20.3,-11520
25:20.3,-1
25:20.3,-1080
25:20.3,-9217
25:20.3,-7
25:20.3,-1032
25:20.3,-1281
25:20.3,-2
25:20.3,21
25:20.3,30464
25:20.3,0
25:20.3,250
25:20.3,-1024
25:20.3,0
25:20.3,209
25:20.3,-7168
25:20.3,0
25:20.3,226
25:20.3,-16128
25:20.3,0
25:20.3,188
25:20.3,-16896
25:20.3,0
25:20.3,181
25:20.3,-22272
25:20.3,0
25:20.3,166
25:20.3,-23040
25:20.3,0
25:20.3,162
25:20.3,-26624
25:20.3,0
25:20.3,143
25:20.3,-32000
25:20.3,0
25:20.3,114
25:20.3,24320
25:20.3,0
25:20.3,81
25:20.3,18688
25:20.3,0
25:20.3,69
25:20.3,19456
25:20.3,0
25:20.3,88
25:20.3,26112
25:20.3,0
25:20.3,109
25:20.3,30464
25:20.3,0
25:20.3,131
25:20.3,-31488
25:20.3,0
25:20.3,126
25:20.3,29696
25:20.3,0
25:20.3,114
25:20.3,28672
25:20.3,0
25:20.3,104
25:20.3,24832
25:20.3,0
25:20.3,95
25:20.3,23040
25:20.3,0
25:20.3,90
25:20.3,25600
25:20.3,0
25:20.3,100
25:20.3,24832
25:20.3,0
25:20.3,95
25:20.3,21760
25:20.3,0
25:20.3,69
25:20.3,15616
25:20.3,0
25:20.3,66
25:20.3,16896
25:20.3,0
25:20.3,57
25:20.3,12032
25:20.3,0
25:20.3,47
25:20.9,47
25:20.9,16384
25:20.9,0
25:20.9,197
25:20.9,-12800
25:20.9,1
25:20.9,491
25:20.9,27904
25:20.9,-1
25:20.9,-1139
25:20.9,10239
25:20.9,-6
25:20.9,-894
25:20.9,13311
25:20.9,-1
25:20.9,21
25:20.9,-30976
25:20.9,0
25:20.9,247
25:20.9,-6400
25:20.9,0
25:20.9,200
25:20.9,-10240
25:20.9,0
25:20.9,216
25:20.9,-14336
25:20.9,0
25:20.9,197
25:20.9,-17408
25:20.9,0
25:20.9,169
25:20.9,-22272
25:20.9,0
25:20.9,174
25:20.9,-25344
25:20.9,0
25:20.9,147
25:20.9,-28416
25:20.9,0
25:20.9,128
25:20.9,27904
25:20.9,0
25:20.9,92
25:20.9,18688
25:20.9,0
25:20.9,57
25:20.9,10752
25:20.9,0
25:20.9,42
25:20.9,12800
25:20.9,0
25:20.9,71
25:20.9,25600
25:20.9,0
25:20.9,123
25:20.9,-30208
25:20.9,0
25:20.9,135
25:20.9,-32000
25:20.9,0
25:20.9,126
25:20.9,30464
25:20.9,0
25:20.9,119
25:20.9,30976
25:20.9,0
25:20.9,116
25:20.9,25600
25:20.9,0
25:20.9,90
25:20.9,24320
25:20.9,0
25:20.9,100
25:20.9,25600
25:20.9,0
25:20.9,100
25:20.9,25600
25:20.9,0
25:20.9,95
25:20.9,23040
25:20.9,0
25:20.9,71
25:20.9,15104
25:20.9,0
25:20.9,69
25:20.9,17664
25:20.9,0
25:20.9,57
25:20.9,13312
25:20.9,0
25:20.9,47
25:20.9,10240
25:20.9,0
25:20.9,57
25:20.9,-18176
25:20.9,0
25:20.9,438
25:20.9,-7936
25:20.9,1
25:20.9,-119
25:20.9,-19969
25:20.9,-5
25:20.9,-1533
25:20.9,3583
25:20.9,-4
25:20.9,-290
25:20.9,255
25:20.9,0
25:20.9,119
25:21.4,233
25:21.4,-8192
25:21.4,0
25:21.4,188
25:21.4,-13056
25:21.4,0
25:21.4,202
25:21.4,-18176
25:21.4,0
25:21.4,181
25:21.4,-19968
25:21.4,0
25:21.4,169
25:21.4,-24064
25:21.4,0
25:21.4,157
25:21.4,-26112
25:21.4,0
25:21.4,150
25:21.4,-29696
25:21.4,0
25:21.4,131
25:21.4,32256
25:21.4,0
25:21.4,126
25:21.4,29184
25:21.4,0
25:21.4,88
25:21.4,20736
25:21.4,0
25:21.4,78
25:21.4,18688
25:21.4,0
25:21.4,88
25:21.4,29184
25:21.4,0
25:21.4,128
25:21.4,-32000
25:21.4,0
25:21.4,135
25:21.4,-30976
25:21.4,0
25:21.4,128
25:21.4,-32000
25:21.4,0
25:21.4,128
25:21.4,31488
25:21.4,0
25:21.4,119
25:21.4,27904
25:21.4,0
25:21.4,107
25:21.4,26112
25:21.4,0
25:21.4,100
25:21.4,27904
25:21.4,0
25:21.4,114
25:21.4,27392
25:21.4,0
25:21.4,104
25:21.4,26112
25:21.4,0
25:21.4,90
25:21.4,18688
25:21.4,0
25:21.4,71
25:21.4,18688
25:21.4,0
25:21.4,66
25:21.4,15104
25:21.4,0
25:21.4,57
25:21.4,13824
25:21.4,0
25:21.4,57
25:21.4,-26112
25:21.4,0
25:21.4,407
25:21.4,-1280
25:21.4,1
25:21.4,-30
25:21.4,-3585
25:21.4,-5
25:21.4,-1580
25:21.4,-26113
25:21.4,-5
25:21.4,-355
25:21.4,-2561
25:21.4,-1
25:21.4,102
25:21.4,-8192
25:21.4,0
25:21.4,231
25:21.4,-17408
25:21.4,0
25:21.4,205
25:21.4,-11264
25:21.4,0
25:21.4,193
25:21.4,-18688
25:21.4,0
25:21.4,181
25:21.4,-21760
25:21.4,0
25:21.4,162
25:21.4,-24064
25:21.4,0
25:21.4,159
25:22.0,152
25:22.0,-28928
25:22.0,0
25:22.0,133
25:22.0,32256
25:22.0,0
25:22.0,116
25:22.0,25600
25:22.0,0
25:22.0,83
25:22.0,20736
25:22.0,0
25:22.0,85
25:22.0,23040
25:22.0,0
25:22.0,97
25:22.0,29696
25:22.0,0
25:22.0,126
25:22.0,-32000
25:22.0,0
25:22.0,135
25:22.0,-30976
25:22.0,0
25:22.0,135
25:22.0,-30208
25:22.0,0
25:22.0,131
25:22.0,30976
25:22.0,0
25:22.0,116
25:22.0,29184
25:22.0,0
25:22.0,102
25:22.0,23040
25:22.0,0
25:22.0,88
25:22.0,21760
25:22.0,0
25:22.0,83
25:22.0,24832
25:22.0,0
25:22.0,104
25:22.0,24832
25:22.0,0
25:22.0,95
25:22.0,23552
25:22.0,0
25:22.0,76
25:22.0,15616
25:22.0,0
25:22.0,66
25:22.0,18176
25:22.0,0
25:22.0,59
25:22.0,12800
25:22.0,0
25:22.0,42
25:22.0,9728
25:22.0,0
25:22.0,61
25:22.0,-11264
25:22.0,0
25:22.0,479
25:22.0,-11520
25:22.0,1
25:22.0,-240
25:22.0,2815
25:22.0,-5
25:22.0,-1611
25:22.0,15359
25:22.0,-4
25:22.0,-233
25:22.0,1279
25:22.0,0
25:22.0,119
25:22.0,-2816
25:22.0,0
25:22.0,221
25:22.0,-19200
25:22.0,0
25:22.0,205
25:22.0,-13824
25:22.0,0
25:22.0,176
25:22.0,-21760
25:22.0,0
25:22.0,176
25:22.0,-21760
25:22.0,0
25:22.0,171
25:22.0,-21760
25:22.0,0
25:22.0,159
25:22.0,-27136
25:22.0,0
25:22.0,150
25:22.0,-30208
25:22.0,0
25:22.0,121
25:22.0,29184
25:22.0,0
25:22.0,109
25:22.0,23040
25:22.0,0
25:22.0,73
25:22.0,18176
25:22.0,0
25:22.0,78
25:22.5,88
25:22.5,26112
25:22.5,0
25:22.5,112
25:22.5,29184
25:22.5,0
25:22.5,109
25:22.5,25600
25:22.5,0
25:22.5,95
25:22.5,24320
25:22.5,0
25:22.5,97
25:22.5,24320
25:22.5,0
25:22.5,97
25:22.5,23552
25:22.5,0
25:22.5,83
25:22.5,21760
25:22.5,0
25:22.5,95
25:22.5,23040
25:22.5,0
25:22.5,90
25:22.5,24832
25:22.5,0
25:22.5,102
25:22.5,26112
25:22.5,0
25:22.5,102
25:22.5,26624
25:22.5,0
25:22.5,95
25:22.5,19456
25:22.5,0
25:22.5,73
25:22.5,19456
25:22.5,0
25:22.5,69
25:22.5,13824
25:22.5,0
25:22.5,47
25:22.5,12032
25:22.5,0
25:22.5,54
25:22.5,-23040
25:22.5,0
25:22.5,443
25:22.5,6144
25:22.5,2
25:22.5,-33
25:22.5,-6657
25:22.5,-5
25:22.5,-1557
25:22.5,-6657
25:22.5,-5
25:22.5,-295
25:22.5,-2561
25:22.5,-1
25:22.5,76
25:22.5,-13056
25:22.5,0
25:22.5,226
25:22.5,-19200
25:22.5,0
25:22.5,183
25:22.5,-15616
25:22.5,0
25:22.5,188
25:22.5,-22272
25:22.5,0
25:22.5,152
25:22.5,-26624
25:22.5,0
25:22.5,159
25:22.5,-24064
25:22.5,0
25:22.5,152
25:22.5,-30208
25:22.5,0
25:22.5,133
25:22.5,31488
25:22.5,0
25:22.5,109
25:22.5,24320
25:22.5,0
25:22.5,78
25:22.5,15104
25:22.5,0
25:22.5,52
25:22.5,12800
25:22.5,0
25:22.5,50
25:22.5,17664
25:22.5,0
25:22.5,95
25:22.5,29184
25:22.5,0
25:22.5,126
25:22.5,31488
25:22.5,0
25:22.5,116
25:22.5,29184
25:22.5,0
25:22.5,114
25:22.5,29184
25:22.5,0
25:22.5,109
25:23.1,100
25:23.1,23552
25:23.1,0
25:23.1,85
25:23.1,19968
25:23.1,0
25:23.1,71
25:23.1,21248
25:23.1,0
25:23.1,109
25:23.1,29696
25:23.1,0
25:23.1,107
25:23.1,26624
25:23.1,0
25:23.1,107
25:23.1,24832
25:23.1,0
25:23.1,83
25:23.1,18176
25:23.1,0
25:23.1,71
25:23.1,18688
25:23.1,0
25:23.1,61
25:23.1,13312
25:23.1,0
25:23.1,47
25:23.1,11520
25:23.1,0
25:23.1,59
25:23.1,-15616
25:23.1,0
25:23.1,469
25:23.1,-5376
25:23.1,1
25:23.1,-176
25:23.1,16639
25:23.1,-5
25:23.1,-1623
25:23.1,4351
25:23.1,-4
25:23.1,-255
25:23.1,-769
25:23.1,-1
25:23.1,107
25:23.1,-4096
25:23.1,0
25:23.1,224
25:23.1,-20480
25:23.1,0
25:23.1,205
25:23.1,-12032
25:23.1,0
25:23.1,183
25:23.1,-18688
25:23.1,0
25:23.1,183
25:23.1,-22272
25:23.1,0
25:23.1,164
25:23.1,-25344
25:23.1,0
25:23.1,152
25:23.1,-26112
25:23.1,0
25:23.1,154
25:23.1,-28416
25:23.1,0
25:23.1,131
25:23.1,30976
25:23.1,0
25:23.1,107
25:23.1,23552
25:23.1,0
25:23.1,90
25:23.1,23040
25:23.1,0
25:23.1,88
25:23.1,24320
25:23.1,0
25:23.1,109
25:23.1,31488
25:23.1,0
25:23.1,128
25:23.1,31488
25:23.1,0
25:23.1,123
25:23.1,30976
25:23.1,0
25:23.1,116
25:23.1,29696
25:23.1,0
25:23.1,121
25:23.1,29696
25:23.1,0
25:23.1,95
25:23.1,20736
25:23.1,0
25:23.1,85
25:23.1,22528
25:23.1,0
25:23.1,81
25:23.1,21760
25:23.1,0
25:23.1,100
25:23.1,27904
25:23.1,0
25:23.1,107
25:23.6,104
25:23.6,26112
25:23.6,0
25:23.6,90
25:23.6,16896
25:23.6,0
25:23.6,69
25:23.6,23040
25:23.6,0
25:23.6,64
25:23.6,7680
25:23.6,0
25:23.6,38
25:23.6,10240
25:23.6,0
25:23.6,45
25:23.6,-26624
25:23.6,0
25:23.6,410
25:23.6,15872
25:23.6,2
25:23.6,143
25:23.6,-25344
25:23.6,-4
25:23.6,-1568
25:23.6,11263
25:23.6,-5
25:23.6,-438
25:23.6,-8705
25:23.6,-1
25:23.6,88
25:23.6,-7168
25:23.6,0
25:23.6,255
25:23.6,-13056
25:23.6,0
25:23.6,224
25:23.6,-6400
25:23.6,0
25:23.6,202
25:23.6,-13824
25:23.6,0
25:23.6,205
25:23.6,-17408
25:23.6,0
25:23.6,183
25:23.6,-18688
25:23.6,0
25:23.6,178
25:23.6,-20480
25:23.6,0
25:23.6,166
25:23.6,-26112
25:23.6,0
25:23.6,150
25:23.6,-28416
25:23.6,0
25:23.6,133
25:23.6,30464
25:23.6,0
25:23.6,109
25:23.6,25600
25:23.6,0
25:23.6,100
25:23.6,29184
25:23.6,0
25:23.6,126
25:23.6,-31488
25:23.6,0
25:23.6,138
25:23.6,-32000
25:23.6,0
25:23.6,128
25:23.6,-32768
25:23.6,0
25:23.6,128
25:23.6,32256
25:23.6,0
25:23.6,121
25:23.6,30464
25:23.6,0
25:23.6,116
25:23.6,27904
25:23.6,0
25:23.6,104
25:23.6,23552
25:23.6,0
25:23.6,83
25:23.6,20736
25:23.6,0
25:23.6,90
25:23.6,27392
25:23.6,0
25:23.6,107
25:23.6,25600
25:23.6,0
25:23.6,104
25:23.6,25600
25:23.6,0
25:23.6,81
25:23.6,18176
25:23.6,0
25:23.6,76
25:23.6,19968
25:23.6,0
25:23.6,64
25:23.6,13824
25:23.6,0
25:23.6,52
25:24.2,50
25:24.2,19456
25:24.2,0
25:24.2,231
25:24.2,-1792
25:24.2,1
25:24.2,474
25:24.2,3328
25:24.2,-1
25:24.2,-1242
25:24.2,-1
25:24.2,-7
25:24.2,-891
25:24.2,15871
25:24.2,-1
25:24.2,30
25:24.2,-27904
25:24.2,0
25:24.2,264
25:24.2,-3328
25:24.2,0
25:24.2,209
25:24.2,-7680
25:24.2,0
25:24.2,219
25:24.2,-13824
25:24.2,0
25:24.2,197
25:24.2,-16128
25:24.2,0
25:24.2,181
25:24.2,-20480
25:24.2,0
25:24.2,174
25:24.2,-23552
25:24.2,0
25:24.2,159
25:24.2,-26112
25:24.2,0
25:24.2,140
25:24.2,32256
25:24.2,0
25:24.2,109
25:24.2,24832
25:24.2,0
25:24.2,97
25:24.2,23040
25:24.2,0
25:24.2,83
25:24.2,22528
25:24.2,0
25:24.2,100
25:24.2,30976
25:24.2,0
25:24.2,133
25:24.2,-30976
25:24.2,0
25:24.2,131
25:24.2,-32000
25:24.2,0
25:24.2,133
25:24.2,-32000
25:24.2,0
25:24.2,126
25:24.2,30976
25:24.2,0
25:24.2,112
25:24.2,28672
25:24.2,0
25:24.2,107
25:24.2,23552
25:24.2,0
25:24.2,88
25:24.2,21760
25:24.2,0
25:24.2,81
25:24.2,20736
25:24.2,0
25:24.2,92
25:24.2,27392
25:24.2,0
25:24.2,102
25:24.2,25600
25:24.2,0
25:24.2,102
25:24.2,21248
25:24.2,0
25:24.2,69
25:24.2,16896
25:24.2,0
25:24.2,71
25:24.2,18176
25:24.2,0
25:24.2,57
25:24.2,12032
25:24.2,0
25:24.2,45
25:24.2,12032
25:24.2,0
25:24.2,107
25:24.2,17920
25:24.2,1
25:24.2,555
25:24.2,5120
25:24.2,1
25:24.2,-665
25:24.2,6655
25:24.2,-6
25:24.2,-1413
25:24.8,-631
25:24.8,-25857
25:24.8,-1
25:24.8,47
25:24.8,-18176
25:24.8,0
25:24.8,247
25:24.8,-15104
25:24.8,0
25:24.8,200
25:24.8,-5888
25:24.8,0
25:24.8,221
25:24.8,-13056
25:24.8,0
25:24.8,200
25:24.8,-16128
25:24.8,0
25:24.8,183
25:24.8,-19968
25:24.8,0
25:24.8,178
25:24.8,-21760
25:24.8,0
25:24.8,164
25:24.8,-24832
25:24.8,0
25:24.8,143
25:24.8,-31488
25:24.8,0
25:24.8,123
25:24.8,28672
25:24.8,0
25:24.8,109
25:24.8,27392
25:24.8,0
25:24.8,102
25:24.8,26112
25:24.8,0
25:24.8,114
25:24.8,-32000
25:24.8,0
25:24.8,128
25:24.8,32256
25:24.8,0
25:24.8,123
25:24.8,30976
25:24.8,0
25:24.8,123
25:24.8,30464
25:24.8,0
25:24.8,107
25:24.8,27392
25:24.8,0
25:24.8,104
25:24.8,25600
25:24.8,0
25:24.8,92
25:24.8,22528
25:24.8,0
25:24.8,85
25:24.8,19968
25:24.8,0
25:24.8,76
25:24.8,19456
25:24.8,0
25:24.8,73
25:24.8,19968
25:24.8,0
25:24.8,88
25:24.8,24320
25:24.8,0
25:24.8,92
25:24.8,22528
25:24.8,0
25:24.8,83
25:24.8,17664
25:24.8,0
25:24.8,59
25:24.8,15616
25:24.8,0
25:24.8,59
25:24.8,12800
25:24.8,0
25:24.8,42
25:24.8,9728
25:24.8,0
25:24.8,38
25:24.8,18688
25:24.8,0
25:24.8,255
25:24.8,3072
25:24.8,2
25:24.8,414
25:24.8,29952
25:24.8,-2
25:24.8,-1380
25:24.8,-3841
25:24.8,-7
25:24.8,-846
25:24.8,12799
25:24.8,-1
25:24.8,7
25:24.8,-27136
25:24.8,0
25:24.8,243
25:24.8,-13824
25:24.8,0
25:24.8,183
25:25.3,209
25:25.3,-14336
25:25.3,0
25:25.3,178
25:25.3,-19968
25:25.3,0
25:25.3,176
25:25.3,-22272
25:25.3,0
25:25.3,171
25:25.3,-23040
25:25.3,0
25:25.3,154
25:25.3,-26112
25:25.3,0
25:25.3,147
25:25.3,-29696
25:25.3,0
25:25.3,143
25:25.3,-29696
25:25.3,0
25:25.3,128
25:25.3,29696
25:25.3,0
25:25.3,114
25:25.3,27904
25:25.3,0
25:25.3,109
25:25.3,29696
25:25.3,0
25:25.3,121
25:25.3,-32768
25:25.3,0
25:25.3,135
25:25.3,-32768
25:25.3,0
25:25.3,123
25:25.3,30976
25:25.3,0
25:25.3,119
25:25.3,30976
25:25.3,0
25:25.3,121
25:25.3,29696
25:25.3,0
25:25.3,107
25:25.3,24832
25:25.3,0
25:25.3,100
25:25.3,24320
25:25.3,0
25:25.3,83
25:25.3,20736
25:25.3,0
25:25.3,76
25:25.3,16384
25:25.3,0
25:25.3,73
25:25.3,24832
25:25.3,0
25:25.3,92
25:25.3,21248
25:25.3,0
25:25.3,90
25:25.3,23040
25:25.3,0
25:25.3,71
25:25.3,14592
25:25.3,0
25:25.3,59
25:25.3,13824
25:25.3,0
25:25.3,33
25:25.3,5888
25:25.3,0
25:25.3,35
25:25.3,10752
25:25.3,0
25:25.3,66
25:25.3,-23040
25:25.3,0
25:25.3,410
25:25.3,1792
25:25.3,2
25:25.3,-33
25:25.3,-14081
25:25.3,-5
25:25.3,-1630
25:25.3,32511
25:25.3,-5
25:25.3,-369
25:25.3,-9473
25:25.3,-1
25:25.3,78
25:25.3,-9472
25:25.3,0
25:25.3,221
25:25.3,-20480
25:25.3,0
25:25.3,200
25:25.3,-16896
25:25.3,0
25:25.3,171
25:25.3,-19200
25:25.3,0
25:25.3,159
25:25.3,-27136
25:25.3,0
25:25.3,162
25:25.8,162
25:25.8,-26624
25:25.8,0
25:25.8,147
25:25.8,-27904
25:25.8,0
25:25.8,147
25:25.8,-27904
25:25.8,0
25:25.8,123
25:25.8,20736
25:25.8,0
25:25.8,78
25:25.8,25600
25:25.8,0
25:25.8,102
25:25.8,27904
25:25.8,0
25:25.8,123
25:25.8,32256
25:25.8,0
25:25.8,135
25:25.8,-27904
25:25.8,0
25:25.8,128
25:25.8,27904
25:25.8,0
25:25.8,123
25:25.8,-30208
25:25.8,0
25:25.8,112
25:25.8,27904
25:25.8,0
25:25.8,131
25:25.8,29184
25:25.8,0
25:25.8,100
25:25.8,25600
25:25.8,0
25:25.8,90
25:25.8,21248
25:25.8,0
25:25.8,73
25:25.8,15616
25:25.8,0
25:25.8,69
25:25.8,19456
25:25.8,0
25:25.8,88
25:25.8,24832
25:25.8,0
25:25.8,92
25:25.8,21248
25:25.8,0
25:25.8,78
25:25.8,18688
25:25.8,0
25:25.8,69
25:25.8,14592
25:25.8,0
25:25.8,52
25:25.8,15104
25:25.8,0
25:25.8,50
25:25.8,7168
25:25.8,0
25:25.8,26
25:25.8,8960
25:25.8,0
25:25.8,114
25:25.8,25856
25:25.8,1
25:25.8,557
25:25.8,-9472
25:25.8,0
25:25.8,-739
25:25.8,3583
25:25.8,-6
25:25.8,-1280
25:25.8,13055
25:25.8,-2
25:25.8,-59
25:25.8,-257
25:25.8,-1
25:25.8,145
25:25.8,-8192
25:25.8,0
25:25.8,159
25:25.8,-27904
25:25.8,0
25:25.8,176
25:25.8,-24832
25:25.8,0
25:25.8,147
25:25.8,-26624
25:25.8,0
25:25.8,145
25:25.8,-28416
25:25.8,0
25:25.8,140
25:25.8,27392
25:25.8,0
25:25.8,97
25:25.8,31488
25:25.8,0
25:25.8,121
25:25.8,24320
25:25.8,0
25:25.8,81
25:26.4,71
25:26.4,14592
25:26.4,0
25:26.4,59
25:26.4,17664
25:26.4,0
25:26.4,66
25:26.4,21248
25:26.4,0
25:26.4,107
25:26.4,29696
25:26.4,0
25:26.4,133
25:26.4,-26624
25:26.4,0
25:26.4,150
25:26.4,-28928
25:26.4,0
25:26.4,135
25:26.4,28672
25:26.4,0
25:26.4,104
25:26.4,32256
25:26.4,0
25:26.4,114
25:26.4,23040
25:26.4,0
25:26.4,97
25:26.4,22528
25:26.4,0
25:26.4,73
25:26.4,21760
25:26.4,0
25:26.4,83
25:26.4,23040
25:26.4,0
25:26.4,104
25:26.4,24832
25:26.4,0
25:26.4,100
25:26.4,24320
25:26.4,0
25:26.4,61
25:26.4,14592
25:26.4,0
25:26.4,64
25:26.4,15104
25:26.4,0
25:26.4,52
25:26.4,8960
25:26.4,0
25:26.4,30
25:26.4,8960
25:26.4,0
25:26.4,33
25:26.4,32256
25:26.4,0
25:26.4,398
25:26.4,8704
25:26.4,2
25:26.4,69
25:26.4,24832
25:26.4,-4
25:26.4,-1549
25:26.4,26623
25:26.4,-5
25:26.4,-398
25:26.4,-9985
25:26.4,-1
25:26.4,40
25:26.4,-19968
25:26.4,0
25:26.4,219
25:26.4,-22272
25:26.4,0
25:26.4,178
25:26.4,-15104
25:26.4,0
25:26.4,185
25:26.4,-25344
25:26.4,0
25:26.4,138
25:26.4,-26624
25:26.4,0
25:26.4,150
25:26.4,-32000
25:26.4,0
25:26.4,138
25:26.4,-28928
25:26.4,0
25:26.4,116
25:26.4,26112
25:26.4,0
25:26.4,97
25:26.4,21248
25:26.4,0
25:26.4,64
25:26.4,13312
25:26.4,0
25:26.4,40
25:26.4,10752
25:26.4,0
25:26.4,57
25:26.4,16896
25:26.4,0
25:26.4,83
25:26.4,25600
25:26.4,0
25:26.4,107
25:27.0,114
25:27.0,-32768
25:27.0,0
25:27.0,121
25:27.0,27904
25:27.0,0
25:27.0,109
25:27.0,27392
25:27.0,0
25:27.0,97
25:27.0,24320
25:27.0,0
25:27.0,95
25:27.0,22528
25:27.0,0
25:27.0,83
25:27.0,19968
25:27.0,0
25:27.0,78
25:27.0,23040
25:27.0,0
25:27.0,97
25:27.0,25600
25:27.0,0
25:27.0,97
25:27.0,19968
25:27.0,0
25:27.0,57
25:27.0,13312
25:27.0,0
25:27.0,59
25:27.0,15104
25:27.0,0
25:27.0,47
25:27.0,10240
25:27.0,0
25:27.0,33
25:27.0,6656
25:27.0,0
25:27.0,47
25:27.0,-21760
25:27.0,0
25:27.0,429
25:27.0,-5376
25:27.0,1
25:27.0,-109
25:27.0,-26881
25:27.0,-5
25:27.0,-1597
25:27.0,-9729
25:27.0,-5
25:27.0,-307
25:27.0,-3329
25:27.0,-1
25:27.0,95
25:27.0,-10240
25:27.0,0
25:27.0,209
25:27.0,-21760
25:27.0,0
25:27.0,190
25:27.0,-16128
25:27.0,0
25:27.0,169
25:27.0,-24064
25:27.0,0
25:27.0,157
25:27.0,-27904
25:27.0,0
25:27.0,143
25:27.0,-28416
25:27.0,0
25:27.0,143
25:27.0,-31488
25:27.0,0
25:27.0,128
25:27.0,30464
25:27.0,0
25:27.0,104
25:27.0,23552
25:27.0,0
25:27.0,88
25:27.0,21248
25:27.0,0
25:27.0,73
25:27.0,16896
25:27.0,0
25:27.0,69
25:27.0,21248
25:27.0,0
25:27.0,100
25:27.0,27904
25:27.0,0
25:27.0,112
25:27.0,29184
25:27.0,0
25:27.0,114
25:27.0,29696
25:27.0,0
25:27.0,116
25:27.0,29696
25:27.0,0
25:27.0,112
25:27.0,27904
25:27.0,0
25:27.0,100
25:27.0,20736
25:27.0,0
25:27.0,73
25:27.6,83
25:27.6,20736
25:27.6,0
25:27.6,81
25:27.6,22528
25:27.6,0
25:27.6,83
25:27.6,19968
25:27.6,0
25:27.6,73
25:27.6,15104
25:27.6,0
25:27.6,52
25:27.6,13312
25:27.6,0
25:27.6,50
25:27.6,10752
25:27.6,0
25:27.6,40
25:27.6,12032
25:27.6,0
25:27.6,61
25:27.6,17664
25:27.6,0
25:27.6,171
25:27.6,-19456
25:27.6,1
25:27.6,503
25:27.6,-21760
25:27.6,-1
25:27.6,-1068
25:27.6,-1
25:27.6,-7
25:27.6,-1046
25:27.6,-9217
25:27.6,-2
25:27.6,4
25:27.6,26112
25:27.6,0
25:27.6,224
25:27.6,-8960
25:27.6,0
25:27.6,178
25:27.6,-15104
25:27.6,0
25:27.6,200
25:27.6,-20480
25:27.6,0
25:27.6,171
25:27.6,-22272
25:27.6,0
25:27.6,152
25:27.6,-28416
25:27.6,0
25:27.6,150
25:27.6,-28416
25:27.6,0
25:27.6,133
25:27.6,32256
25:27.6,0
25:27.6,121
25:27.6,26624
25:27.6,0
25:27.6,90
25:27.6,20736
25:27.6,0
25:27.6,71
25:27.6,16384
25:27.6,0
25:27.6,64
25:27.6,18688
25:27.6,0
25:27.6,83
25:27.6,24320
25:27.6,0
25:27.6,104
25:27.6,27904
25:27.6,0
25:27.6,116
25:27.6,30464
25:27.6,0
25:27.6,119
25:27.6,30976
25:27.6,0
25:27.6,126
25:27.6,30464
25:27.6,0
25:27.6,107
25:27.6,24832
25:27.6,0
25:27.6,95
25:27.6,23552
25:27.6,0
25:27.6,85
25:27.6,21760
25:27.6,0
25:27.6,90
25:27.6,25600
25:27.6,0
25:27.6,97
25:27.6,22528
25:27.6,0
25:27.6,76
25:27.6,15616
25:27.6,0
25:27.6,54
25:27.6,14592
25:27.6,0
25:27.6,59
25:28.2,45
25:28.2,8960
25:28.2,0
25:28.2,33
25:28.2,7680
25:28.2,0
25:28.2,38
25:28.2,-32768
25:28.2,0
25:28.2,381
25:28.2,2560
25:28.2,2
25:28.2,38
25:28.2,12032
25:28.2,-4
25:28.2,-1623
25:28.2,11263
25:28.2,-5
25:28.2,-400
25:28.2,255
25:28.2,0
25:28.2,90
25:28.2,-10752
25:28.2,0
25:28.2,247
25:28.2,-15104
25:28.2,0
25:28.2,207
25:28.2,-9472
25:28.2,0
25:28.2,193
25:28.2,-18688
25:28.2,0
25:28.2,185
25:28.2,-20480
25:28.2,0
25:28.2,162
25:28.2,-24832
25:28.2,0
25:28.2,164
25:28.2,-24064
25:28.2,0
25:28.2,147
25:28.2,-32768
25:28.2,0
25:28.2,119
25:28.2,30464
25:28.2,0
25:28.2,107
25:28.2,23552
25:28.2,0
25:28.2,92
25:28.2,24320
25:28.2,0
25:28.2,95
25:28.2,26112
25:28.2,0
25:28.2,114
25:28.2,30976
25:28.2,0
25:28.2,119
25:28.2,29696
25:28.2,0
25:28.2,116
25:28.2,29184
25:28.2,0
25:28.2,114
25:28.2,30464
25:28.2,0
25:28.2,119
25:28.2,29184
25:28.2,0
25:28.2,107
25:28.2,26112
25:28.2,0
25:28.2,97
25:28.2,21760
25:28.2,0
25:28.2,83
25:28.2,24320
25:28.2,0
25:28.2,104
25:28.2,26112
25:28.2,0
25:28.2,100
25:28.2,26624
25:28.2,0
25:28.2,95
25:28.2,17664
25:28.2,0
25:28.2,59
25:28.2,16896
25:28.2,0
25:28.2,61
25:28.2,12800
25:28.2,0
25:28.2,42
25:28.2,9728
25:28.2,0
25:28.2,40
25:28.2,22528
25:28.2,0
25:28.2,286
25:28.2,7936
25:28.2,2
25:28.2,371
25:28.2,5376
25:28.2,-2
25:28.2,-1416
25:28.7,-1430
25:28.7,32767
25:28.7,-3
25:28.7,-88
25:28.7,1279
25:28.7,0
25:28.7,128
25:28.7,-4096
25:28.7,0
25:28.7,200
25:28.7,-20480
25:28.7,0
25:28.7,197
25:28.7,-18176
25:28.7,0
25:28.7,174
25:28.7,-19968
25:28.7,0
25:28.7,174
25:28.7,-24064
25:28.7,0
25:28.7,159
25:28.7,-24832
25:28.7,0
25:28.7,150
25:28.7,-30208
25:28.7,0
25:28.7,133
25:28.7,30976
25:28.7,0
25:28.7,104
25:28.7,23040
25:28.7,0
25:28.7,83
25:28.7,19968
25:28.7,0
25:28.7,78
25:28.7,21248
25:28.7,0
25:28.7,95
25:28.7,27392
25:28.7,0
25:28.7,121
25:28.7,-31488
25:28.7,0
25:28.7,138
25:28.7,-28928
25:28.7,0
25:28.7,138
25:28.7,-32000
25:28.7,0
25:28.7,123
25:28.7,30464
25:28.7,0
25:28.7,116
25:28.7,29696
25:28.7,0
25:28.7,109
25:28.7,26112
25:28.7,0
25:28.7,95
25:28.7,22528
25:28.7,0
25:28.7,85
25:28.7,25600
25:28.7,0
25:28.7,112
25:28.7,28672
25:28.7,0
25:28.7,107
25:28.7,24832
25:28.7,0
25:28.7,83
25:28.7,18688
25:28.7,0
25:28.7,71
25:28.7,17664
25:28.7,0
25:28.7,61
25:28.7,12800
25:28.7,0
25:28.7,42
25:28.7,10752
25:28.7,0
25:28.7,52
25:28.7,-32000
25:28.7,0
25:28.7,381
25:28.7,12800
25:28.7,2
25:28.7,140
25:28.7,-23552
25:28.7,-4
25:28.7,-1554
25:28.7,17919
25:28.7,-5
25:28.7,-405
25:28.7,-9985
25:28.7,-1
25:28.7,40
25:28.7,-18176
25:28.7,0
25:28.7,226
25:28.7,-20992
25:28.7,0
25:28.7,188
25:28.7,-12544
25:28.7,0
25:28.7,188
25:29.2,183
25:29.2,-19200
25:29.2,0
25:29.2,169
25:29.2,-24064
25:29.2,0
25:29.2,157
25:29.2,-25344
25:29.2,0
25:29.2,152
25:29.2,-28416
25:29.2,0
25:29.2,140
25:29.2,-28928
25:29.2,0
25:29.2,138
25:29.2,29696
25:29.2,0
25:29.2,95
25:29.2,23040
25:29.2,0
25:29.2,88
25:29.2,22528
25:29.2,0
25:29.2,97
25:29.2,29696
25:29.2,0
25:29.2,135
25:29.2,-29696
25:29.2,0
25:29.2,140
25:29.2,-28928
25:29.2,0
25:29.2,138
25:29.2,-30976
25:29.2,0
25:29.2,133
25:29.2,32256
25:29.2,0
25:29.2,119
25:29.2,28672
25:29.2,0
25:29.2,102
25:29.2,25600
25:29.2,0
25:29.2,104
25:29.2,26624
25:29.2,0
25:29.2,104
25:29.2,29184
25:29.2,0
25:29.2,119
25:29.2,29184
25:29.2,0
25:29.2,104
25:29.2,21248
25:29.2,0
25:29.2,69
25:29.2,18176
25:29.2,0
25:29.2,71
25:29.2,16896
25:29.2,0
25:29.2,54
25:29.2,11520
25:29.2,0
25:29.2,45
25:29.2,13312
25:29.2,0
25:29.2,131
25:29.2,32000
25:29.2,1
25:29.2,553
25:29.2,27904
25:29.2,0
25:29.2,-920
25:29.2,-23809
25:29.2,-7
25:29.2,-1294
25:29.2,11775
25:29.2,-2
25:29.2,-42
25:29.2,20223
25:29.2,0
25:29.2,216
25:29.2,-3328
25:29.2,0
25:29.2,193
25:29.2,-12032
25:29.2,0
25:29.2,224
25:29.2,-16128
25:29.2,0
25:29.2,183
25:29.2,-17408
25:29.2,0
25:29.2,181
25:29.2,-20992
25:29.2,0
25:29.2,171
25:29.2,-22272
25:29.2,0
25:29.2,166
25:29.2,-24832
25:29.2,0
25:29.2,150
25:29.2,-29696
25:29.2,0
25:29.2,133
25:29.8,123
25:29.8,29184
25:29.8,0
25:29.8,109
25:29.8,26112
25:29.8,0
25:29.8,95
25:29.8,26112
25:29.8,0
25:29.8,114
25:29.8,32256
25:29.8,0
25:29.8,140
25:29.8,-28928
25:29.8,0
25:29.8,138
25:29.8,-30976
25:29.8,0
25:29.8,133
25:29.8,-32000
25:29.8,0
25:29.8,131
25:29.8,31488
25:29.8,0
25:29.8,112
25:29.8,26624
25:29.8,0
25:29.8,100
25:29.8,23552
25:29.8,0
25:29.8,90
25:29.8,23040
25:29.8,0
25:29.8,92
25:29.8,26624
25:29.8,0
25:29.8,114
25:29.8,27904
25:29.8,0
25:29.8,104
25:29.8,25600
25:29.8,0
25:29.8,83
25:29.8,17664
25:29.8,0
25:29.8,69
25:29.8,18176
25:29.8,0
25:29.8,59
25:29.8,11520
25:29.8,0
25:29.8,45
25:29.8,12032
25:29.8,0
25:29.8,50
25:29.8,-27904
25:29.8,0
25:29.8,414
25:29.8,11520
25:29.8,2
25:29.8,59
25:29.8,15104
25:29.8,-4
25:29.8,-1604
25:29.8,11775
25:29.8,-5
25:29.8,-441
25:29.8,-11777
25:29.8,-1
25:29.8,78
25:29.8,-11264
25:29.8,0
25:29.8,226
25:29.8,-18688
25:29.8,0
25:29.8,205
25:29.8,-12032
25:29.8,0
25:29.8,181
25:29.8,-19968
25:29.8,0
25:29.8,183
25:29.8,-23040
25:29.8,0
25:29.8,157
25:29.8,-23552
25:29.8,0
25:29.8,159
25:29.8,-26624
25:29.8,0
25:29.8,150
25:29.8,-28928
25:29.8,0
25:29.8,131
25:29.8,30976
25:29.8,0
25:29.8,112
25:29.8,25600
25:29.8,0
25:29.8,90
25:29.8,22528
25:29.8,0
25:29.8,90
25:29.8,25600
25:29.8,0
25:29.8,112
25:29.8,29184
25:29.8,0
25:29.8,112
25:30.4,116
25:30.4,29696
25:30.4,0
25:30.4,114
25:30.4,29184
25:30.4,0
25:30.4,112
25:30.4,27904
25:30.4,0
25:30.4,102
25:30.4,25600
25:30.4,0
25:30.4,97
25:30.4,23552
25:30.4,0
25:30.4,83
25:30.4,19456
25:30.4,0
25:30.4,78
25:30.4,23040
25:30.4,0
25:30.4,97
25:30.4,24320
25:30.4,0
25:30.4,97
25:30.4,27392
25:30.4,0
25:30.4,107
25:30.4,26112
25:30.4,0
25:30.4,102
25:30.4,22528
25:30.4,0
25:30.4,66
25:30.4,16896
25:30.4,0
25:30.4,73
25:30.4,16384
25:30.4,0
25:30.4,54
25:30.4,13312
25:30.4,0
25:30.4,45
25:30.4,11520
25:30.4,0
25:30.4,112
25:30.4,23552
25:30.4,1
25:30.4,574
25:30.4,2816
25:30.4,1
25:30.4,-681
25:30.4,7935
25:30.4,-6
25:30.4,-1382
25:30.4,-24833
25:30.4,-3
25:30.4,-107
25:30.4,10495
25:30.4,0
25:30.4,176
25:30.4,-6400
25:30.4,0
25:30.4,185
25:30.4,-16896
25:30.4,0
25:30.4,207
25:30.4,-17408
25:30.4,0
25:30.4,178
25:30.4,-20992
25:30.4,0
25:30.4,162
25:30.4,-24832
25:30.4,0
25:30.4,157
25:30.4,-26112
25:30.4,0
25:30.4,154
25:30.4,-28416
25:30.4,0
25:30.4,133
25:30.4,30976
25:30.4,0
25:30.4,112
25:30.4,26112
25:30.4,0
25:30.4,92
25:30.4,21248
25:30.4,0
25:30.4,81
25:30.4,21248
25:30.4,0
25:30.4,88
25:30.4,24832
25:30.4,0
25:30.4,107
25:30.4,29696
25:30.4,0
25:30.4,116
25:30.4,28672
25:30.4,0
25:30.4,114
25:30.4,30464
25:30.4,0
25:30.4,114
25:30.4,28672
25:30.4,0
25:30.4,114
25:30.9,109
25:30.9,26112
25:30.9,0
25:30.9,100
25:30.9,24320
25:30.9,0
25:30.9,83
25:30.9,19456
25:30.9,0
25:30.9,73
25:30.9,19968
25:30.9,0
25:30.9,85
25:30.9,23552
25:30.9,0
25:30.9,95
25:30.9,27392
25:30.9,0
25:30.9,119
25:30.9,27904
25:30.9,0
25:30.9,83
25:30.9,18688
25:30.9,0
25:30.9,78
25:30.9,19456
25:30.9,0
25:30.9,66
25:30.9,14592
25:30.9,0
25:30.9,50
25:30.9,11520
25:30.9,0
25:30.9,59
25:30.9,-16896
25:30.9,0
25:30.9,476
25:30.9,12288
25:30.9,2
25:30.9,-50
25:30.9,-18945
25:30.9,-5
25:30.9,-1611
25:30.9,-22529
25:30.9,-5
25:30.9,-345
25:30.9,-8193
25:30.9,-1
25:30.9,88
25:30.9,-7680
25:30.9,0
25:30.9,226
25:30.9,-18688
25:30.9,0
25:30.9,207
25:30.9,-13056
25:30.9,0
25:30.9,178
25:30.9,-19968
25:30.9,0
25:30.9,181
25:30.9,-22272
25:30.9,0
25:30.9,159
25:30.9,-26112
25:30.9,0
25:30.9,152
25:30.9,-27136
25:30.9,0
25:30.9,147
25:30.9,-31488
25:30.9,0
25:30.9,114
25:30.9,27392
25:30.9,0
25:30.9,100
25:30.9,22528
25:30.9,0
25:30.9,81
25:30.9,20736
25:30.9,0
25:30.9,88
25:30.9,23552
25:30.9,0
25:30.9,97
25:30.9,27392
25:30.9,0
25:30.9,107
25:30.9,27904
25:30.9,0
25:30.9,116
25:30.9,29184
25:30.9,0
25:30.9,112
25:30.9,28672
25:30.9,0
25:30.9,109
25:30.9,26112
25:30.9,0
25:30.9,95
25:30.9,24320
25:30.9,0
25:30.9,95
25:30.9,23552
25:30.9,0
25:30.9,83
25:30.9,18688
25:30.9,0
25:30.9,73
25:31.5,78
25:31.5,18176
25:31.5,0
25:31.5,64
25:31.5,16896
25:31.5,0
25:31.5,81
25:31.5,24320
25:31.5,0
25:31.5,95
25:31.5,23552
25:31.5,0
25:31.5,88
25:31.5,19456
25:31.5,0
25:31.5,78
25:31.5,20736
25:31.5,0
25:31.5,78
25:31.5,18176
25:31.5,0
25:31.5,59
25:31.5,13824
25:31.5,0
25:31.5,52
25:31.5,13824
25:31.5,0
25:31.5,150
25:31.5,-19456
25:31.5,1
25:31.5,634
25:31.5,-10752
25:31.5,0
25:31.5,-808
25:31.5,-4353
25:31.5,-7
25:31.5,-1258
25:31.5,17407
25:31.5,-2
25:31.5,-61
25:31.5,6143
25:31.5,0
25:31.5,185
25:31.5,-2816
25:31.5,0
25:31.5,183
25:31.5,-18688
25:31.5,0
25:31.5,205
25:31.5,-18688
25:31.5,0
25:31.5,171
25:31.5,-20992
25:31.5,0
25:31.5,171
25:31.5,-23040
25:31.5,0
25:31.5,164
25:31.5,-25344
25:31.5,0
25:31.5,145
25:31.5,-29696
25:31.5,0
25:31.5,135
25:31.5,30976
25:31.5,0
25:31.5,102
25:31.5,23040
25:31.5,0
25:31.5,81
25:31.5,18176
25:31.5,0
25:31.5,66
25:31.5,16896
25:31.5,0
25:31.5,73
25:31.5,23552
25:31.5,0
25:31.5,104
25:31.5,27904
25:31.5,0
25:31.5,119
25:31.5,31488
25:31.5,0
25:31.5,119
25:31.5,29696
25:31.5,0
25:31.5,119
25:31.5,29184
25:31.5,0
25:31.5,107
25:31.5,26624
25:31.5,0
25:31.5,104
25:31.5,24320
25:31.5,0
25:31.5,85
25:31.5,22528
25:31.5,0
25:31.5,83
25:31.5,20736
25:31.5,0
25:31.5,95
25:31.5,26112
25:31.5,0
25:31.5,97
25:31.5,26112
25:31.5,0
25:31.5,100
25:32.1,76
25:32.1,15104
25:32.1,0
25:32.1,64
25:32.1,16896
25:32.1,0
25:32.1,59
25:32.1,12032
25:32.1,0
25:32.1,42
25:32.1,11520
25:32.1,0
25:32.1,57
25:32.1,-24064
25:32.1,0
25:32.1,436
25:32.1,23808
25:32.1,2
25:32.1,164
25:32.1,-21248
25:32.1,-4
25:32.1,-1552
25:32.1,17407
25:32.1,-5
25:32.1,-398
25:32.1,-3841
25:32.1,-1
25:32.1,64
25:32.1,-14336
25:32.1,0
25:32.1,243
25:32.1,-16896
25:32.1,0
25:32.1,200
25:32.1,-10240
25:32.1,0
25:32.1,197
25:32.1,-16128
25:32.1,0
25:32.1,193
25:32.1,-19968
25:32.1,0
25:32.1,171
25:32.1,-21760
25:32.1,0
25:32.1,166
25:32.1,-25344
25:32.1,0
25:32.1,152
25:32.1,-28928
25:32.1,0
25:32.1,131
25:32.1,30464
25:32.1,0
25:32.1,100
25:32.1,21248
25:32.1,0
25:32.1,73
25:32.1,17664
25:32.1,0
25:32.1,76
25:32.1,24320
25:32.1,0
25:32.1,107
25:32.1,30464
25:32.1,0
25:32.1,128
25:32.1,-31488
25:32.1,0
25:32.1,138
25:32.1,-30208
25:32.1,0
25:32.1,128
25:32.1,31488
25:32.1,0
25:32.1,119
25:32.1,29696
25:32.1,0
25:32.1,114
25:32.1,26624
25:32.1,0
25:32.1,95
25:32.1,23040
25:32.1,0
25:32.1,88
25:32.1,21248
25:32.1,0
25:32.1,90
25:32.1,26624
25:32.1,0
25:32.1,109
25:32.1,26624
25:32.1,0
25:32.1,100
25:32.1,22528
25:32.1,0
25:32.1,73
25:32.1,16384
25:32.1,0
25:32.1,66
25:32.1,17664
25:32.1,0
25:32.1,61
25:32.1,12800
25:32.1,0
25:32.1,38
25:32.1,9728
25:32.1,0
25:32.1,52
25:32.6,147
25:32.6,-25600
25:32.6,1
25:32.6,584
25:32.6,31488
25:32.6,0
25:32.6,-920
25:32.6,-27649
25:32.6,-7
25:32.6,-1316
25:32.6,9471
25:32.6,-2
25:32.6,-45
25:32.6,16639
25:32.6,0
25:32.6,202
25:32.6,-4096
25:32.6,0
25:32.6,188
25:32.6,-12032
25:32.6,0
25:32.6,240
25:32.6,-10240
25:32.6,0
25:32.6,200
25:32.6,-11264
25:32.6,0
25:32.6,207
25:32.6,-17408
25:32.6,0
25:32.6,185
25:32.6,-19200
25:32.6,0
25:32.6,174
25:32.6,-20992
25:32.6,0
25:32.6,162
25:32.6,-29696
25:32.6,0
25:32.6,126
25:32.6,30976
25:32.6,0
25:32.6,112
25:32.6,27392
25:32.6,0
25:32.6,104
25:32.6,26624
25:32.6,0
25:32.6,112
25:32.6,-32768
25:32.6,0
25:32.6,133
25:32.6,-32000
25:32.6,0
25:32.6,131
25:32.6,-31488
25:32.6,0
25:32.6,121
25:32.6,28672
25:32.6,0
25:32.6,121
25:32.6,31488
25:32.6,0
25:32.6,112
25:32.6,27392
25:32.6,0
25:32.6,107
25:32.6,24832
25:32.6,0
25:32.6,90
25:32.6,21248
25:32.6,0
25:32.6,76
25:32.6,19968
25:32.6,0
25:32.6,90
25:32.6,27392
25:32.6,0
25:32.6,107
25:32.6,23552
25:32.6,0
25:32.6,83
25:32.6,18688
25:32.6,0
25:32.6,66
25:32.6,16384
25:32.6,0
25:32.6,61
25:32.6,15104
25:32.6,0
25:32.6,50
25:32.6,10240
25:32.6,0
25:32.6,38
25:32.6,11520
25:32.6,0
25:32.6,123
25:32.6,30720
25:32.6,1
25:32.6,577
25:32.6,-16128
25:32.6,0
25:32.6,-801
25:32.6,-10497
25:32.6,-7
25:32.6,-1363
25:32.6,-12033
25:32.6,-3
25:32.6,-81
25:33.2,59
25:33.2,-14336
25:33.2,0
25:33.2,240
25:33.2,-18176
25:33.2,0
25:33.2,195
25:33.2,-10240
25:33.2,0
25:33.2,197
25:33.2,-19200
25:33.2,0
25:33.2,181
25:33.2,-19968
25:33.2,0
25:33.2,169
25:33.2,-24832
25:33.2,0
25:33.2,171
25:33.2,-18176
25:33.2,0
25:33.2,171
25:33.2,-26112
25:33.2,0
25:33.2,152
25:33.2,-28928
25:33.2,0
25:33.2,121
25:33.2,27904
25:33.2,0
25:33.2,112
25:33.2,28672
25:33.2,0
25:33.2,109
25:33.2,29696
25:33.2,0
25:33.2,128
25:33.2,-31488
25:33.2,0
25:33.2,131
25:33.2,-32000
25:33.2,0
25:33.2,131
25:33.2,32256
25:33.2,0
25:33.2,123
25:33.2,32256
25:33.2,0
25:33.2,138
25:33.2,-30208
25:33.2,0
25:33.2,107
25:33.2,26624
25:33.2,0
25:33.2,119
25:33.2,22528
25:33.2,0
25:33.2,76
25:33.2,27392
25:33.2,0
25:33.2,95
25:33.2,16896
25:33.2,0
25:33.2,85
25:33.2,23040
25:33.2,0
25:33.2,81
25:33.2,25600
25:33.2,0
25:33.2,100
25:33.2,21248
25:33.2,0
25:33.2,90
25:33.2,26112
25:33.2,0
25:33.2,78
25:33.2,9728
25:33.2,0
25:33.2,35
25:33.2,10240
25:33.2,0
25:33.2,35
25:33.2,10240
25:33.2,0
25:33.2,59
25:33.2,-18688
25:33.2,0
25:33.2,467
25:33.2,8704
25:33.2,2
25:33.2,-50
25:33.2,-9217
25:33.2,-5
25:33.2,-1580
25:33.2,-26881
25:33.2,-5
25:33.2,-364
25:33.2,-4609
25:33.2,-1
25:33.2,104
25:33.2,-8192
25:33.2,0
25:33.2,209
25:33.2,-20480
25:33.2,0
25:33.2,205
25:33.2,-13824
25:33.2,0
25:33.2,181
25:33.7,174
25:33.7,-19968
25:33.7,0
25:33.7,178
25:33.7,-24064
25:33.7,0
25:33.7,147
25:33.7,-28416
25:33.7,0
25:33.7,145
25:33.7,-30976
25:33.7,0
25:33.7,121
25:33.7,29696
25:33.7,0
25:33.7,112
25:33.7,26624
25:33.7,0
25:33.7,109
25:33.7,27904
25:33.7,0
25:33.7,104
25:33.7,23040
25:33.7,0
25:33.7,97
25:33.7,30976
25:33.7,0
25:33.7,128
25:33.7,30976
25:33.7,0
25:33.7,126
25:33.7,31488
25:33.7,0
25:33.7,114
25:33.7,-32000
25:33.7,0
25:33.7,133
25:33.7,25600
25:33.7,0
25:33.7,97
25:33.7,30464
25:33.7,0
25:33.7,104
25:33.7,22528
25:33.7,0
25:33.7,95
25:33.7,21760
25:33.7,0
25:33.7,71
25:33.7,19968
25:33.7,0
25:33.7,66
25:33.7,13824
25:33.7,0
25:33.7,90
25:33.7,27392
25:33.7,0
25:33.7,92
25:33.7,24832
25:33.7,0
25:33.7,104
25:33.7,18176
25:33.7,0
25:33.7,42
25:33.7,15104
25:33.7,0
25:33.7,57
25:33.7,8960
25:33.7,0
25:33.7,35
25:33.7,7680
25:33.7,0
25:33.7,28
25:33.7,15616
25:33.7,0
25:33.7,205
25:33.7,-6144
25:33.7,1
25:33.7,536
25:33.7,-27392
25:33.7,-1
25:33.7,-1130
25:33.7,-7425
25:33.7,-7
25:33.7,-1018
25:33.7,-9729
25:33.7,-2
25:33.7,-33
25:33.7,20223
25:33.7,0
25:33.7,209
25:33.7,-12032
25:33.7,0
25:33.7,185
25:33.7,-12032
25:33.7,0
25:33.7,183
25:33.7,-24832
25:33.7,0
25:33.7,169
25:33.7,-24832
25:33.7,0
25:33.7,145
25:33.7,-24064
25:33.7,0
25:33.7,162
25:33.7,-30976
25:33.7,0
25:33.7,128
25:34.3,143
25:34.3,-31488
25:34.3,0
25:34.3,102
25:34.3,26112
25:34.3,0
25:34.3,92
25:34.3,14592
25:34.3,0
25:34.3,66
25:34.3,23040
25:34.3,0
25:34.3,83
25:34.3,25600
25:34.3,0
25:34.3,131
25:34.3,-27904
25:34.3,0
25:34.3,150
25:34.3,-30976
25:34.3,0
25:34.3,133
25:34.3,-28928
25:34.3,0
25:34.3,135
25:34.3,-30976
25:34.3,0
25:34.3,143
25:34.3,-30976
25:34.3,0
25:34.3,109
25:34.3,25600
25:34.3,0
25:34.3,112
25:34.3,29184
25:34.3,0
25:34.3,88
25:34.3,17664
25:34.3,0
25:34.3,76
25:34.3,23040
25:34.3,0
25:34.3,97
25:34.3,26112
25:34.3,0
25:34.3,107
25:34.3,27392
25:34.3,0
25:34.3,85
25:34.3,16384
25:34.3,0
25:34.3,54
25:34.3,16384
25:34.3,0
25:34.3,71
25:34.3,13312
25:34.3,0
25:34.3,30
25:34.3,9728
25:34.3,0
25:34.3,45
25:34.3,11520
25:34.3,0
25:34.3,174
25:34.3,-13312
25:34.3,1
25:34.3,529
25:34.3,-9728
25:34.3,-1
25:34.3,-1034
25:34.3,-13569
25:34.3,-7
25:34.3,-1156
25:34.3,-31233
25:34.3,-2
25:34.3,-30
25:34.3,23807
25:34.3,0
25:34.3,224
25:34.3,-8192
25:34.3,0
25:34.3,178
25:34.3,-14336
25:34.3,0
25:34.3,205
25:34.3,-19968
25:34.3,0
25:34.3,176
25:34.3,-19968
25:34.3,0
25:34.3,171
25:34.3,-20992
25:34.3,0
25:34.3,171
25:34.3,-24064
25:34.3,0
25:34.3,159
25:34.3,-27136
25:34.3,0
25:34.3,138
25:34.3,32256
25:34.3,0
25:34.3,112
25:34.3,26624
25:34.3,0
25:34.3,100
25:34.3,24320
25:34.3,0
25:34.3,97
25:34.8,100
25:34.8,26112
25:34.8,0
25:34.8,114
25:34.8,-32768
25:34.8,0
25:34.8,128
25:34.8,31488
25:34.8,0
25:34.8,123
25:34.8,-32768
25:34.8,0
25:34.8,140
25:34.8,-27136
25:34.8,0
25:34.8,138
25:34.8,-32000
25:34.8,0
25:34.8,131
25:34.8,30976
25:34.8,0
25:34.8,112
25:34.8,28672
25:34.8,0
25:34.8,100
25:34.8,21248
25:34.8,0
25:34.8,83
25:34.8,21760
25:34.8,0
25:34.8,88
25:34.8,24832
25:34.8,0
25:34.8,107
25:34.8,26112
25:34.8,0
25:34.8,92
25:34.8,20736
25:34.8,0
25:34.8,66
25:34.8,15616
25:34.8,0
25:34.8,64
25:34.8,15616
25:34.8,0
25:34.8,52
25:34.8,10752
25:34.8,0
25:34.8,40
25:34.8,11520
25:34.8,0
25:34.8,102
25:34.8,16640
25:34.8,1
25:34.8,557
25:34.8,9984
25:34.8,1
25:34.8,-586
25:34.8,26623
25:34.8,-6
25:34.8,-1425
25:34.8,19967
25:34.8,-3
25:34.8,-121
25:34.8,14847
25:34.8,0
25:34.8,181
25:34.8,-4608
25:34.8,0
25:34.8,193
25:34.8,-18176
25:34.8,0
25:34.8,202
25:34.8,-18688
25:34.8,0
25:34.8,174
25:34.8,-19968
25:34.8,0
25:34.8,169
25:34.8,-23552
25:34.8,0
25:34.8,166
25:34.8,-26112
25:34.8,0
25:34.8,150
25:34.8,-26624
25:34.8,0
25:34.8,140
25:34.8,-32000
25:34.8,0
25:34.8,123
25:34.8,27904
25:34.8,0
25:34.8,100
25:34.8,24320
25:34.8,0
25:34.8,92
25:34.8,24320
25:34.8,0
25:34.8,102
25:34.8,27392
25:34.8,0
25:34.8,112
25:34.8,30464
25:34.8,0
25:34.8,116
25:34.8,29184
25:34.8,0
25:34.8,116
25:35.4,116
25:35.4,29696
25:35.4,0
25:35.4,119
25:35.4,29696
25:35.4,0
25:35.4,104
25:35.4,25600
25:35.4,0
25:35.4,107
25:35.4,27392
25:35.4,0
25:35.4,95
25:35.4,23040
25:35.4,0
25:35.4,92
25:35.4,23552
25:35.4,0
25:35.4,100
25:35.4,27904
25:35.4,0
25:35.4,107
25:35.4,25600
25:35.4,0
25:35.4,97
25:35.4,21760
25:35.4,0
25:35.4,66
25:35.4,17664
25:35.4,0
25:35.4,78
25:35.4,15616
25:35.4,0
25:35.4,50
25:35.4,13824
25:35.4,0
25:35.4,52
25:35.4,10752
25:35.4,0
25:35.4,95
25:35.4,17408
25:35.4,1
25:35.4,550
25:35.4,3328
25:35.4,1
25:35.4,-591
25:35.4,-23041
25:35.4,-6
25:35.4,-1330
25:35.4,-27137
25:35.4,-3
25:35.4,-92
25:35.4,13055
25:35.4,0
25:35.4,162
25:35.4,-8192
25:35.4,0
25:35.4,183
25:35.4,-20992
25:35.4,0
25:35.4,188
25:35.4,-20480
25:35.4,0
25:35.4,166
25:35.4,-23040
25:35.4,0
25:35.4,157
25:35.4,-27136
25:35.4,0
25:35.4,143
25:35.4,-29696
25:35.4,0
25:35.4,140
25:35.4,-30208
25:35.4,0
25:35.4,123
25:35.4,29184
25:35.4,0
25:35.4,112
25:35.4,24832
25:35.4,0
25:35.4,85
25:35.4,21248
25:35.4,0
25:35.4,76
25:35.4,18176
25:35.4,0
25:35.4,78
25:35.4,24320
25:35.4,0
25:35.4,112
25:35.4,29184
25:35.4,0
25:35.4,112
25:35.4,30464
25:35.4,0
25:35.4,123
25:35.4,29696
25:35.4,0
25:35.4,109
25:35.4,29184
25:35.4,0
25:35.4,107
25:35.4,24320
25:35.4,0
25:35.4,92
25:35.4,23040
25:35.4,0
25:35.4,83
25:35.9,78
25:35.9,18176
25:35.9,0
25:35.9,61
25:35.9,16384
25:35.9,0
25:35.9,81
25:35.9,25600
25:35.9,0
25:35.9,102
25:35.9,23552
25:35.9,0
25:35.9,85
25:35.9,18176
25:35.9,0
25:35.9,61
25:35.9,19456
25:35.9,0
25:35.9,90
25:35.9,19456
25:35.9,0
25:35.9,54
25:35.9,14592
25:35.9,0
25:35.9,61
25:35.9,15104
25:35.9,0
25:35.9,138
25:35.9,32000
25:35.9,1
25:35.9,541
25:35.9,-26624
25:35.9,0
25:35.9,-732
25:35.9,-26625
25:35.9,-6
25:35.9,-1175
25:35.9,15359
25:35.9,-2
25:35.9,-38
25:35.9,17919
25:35.9,0
25:35.9,181
25:35.9,-11264
25:35.9,0
25:35.9,166
25:35.9,-19968
25:35.9,0
25:35.9,190
25:35.9,-23552
25:35.9,0
25:35.9,152
25:35.9,-26112
25:35.9,0
25:35.9,150
25:35.9,-27904
25:35.9,0
25:35.9,145
25:35.9,-30208
25:35.9,0
25:35.9,135
25:35.9,-32000
25:35.9,0
25:35.9,116
25:35.9,27392
25:35.9,0
25:35.9,100
25:35.9,23040
25:35.9,0
25:35.9,81
25:35.9,19456
25:35.9,0
25:35.9,71
25:35.9,18688
25:35.9,0
25:35.9,85
25:35.9,26624
25:35.9,0
25:35.9,109
25:35.9,27392
25:35.9,0
25:35.9,107
25:35.9,27904
25:35.9,0
25:35.9,119
25:35.9,31488
25:35.9,0
25:35.9,112
25:35.9,26112
25:35.9,0
25:35.9,102
25:35.9,24832
25:35.9,0
25:35.9,83
25:35.9,20736
25:35.9,0
25:35.9,83
25:35.9,18176
25:35.9,0
25:35.9,59
25:35.9,16384
25:35.9,0
25:35.9,73
25:35.9,20736
25:35.9,0
25:35.9,85
25:35.9,21760
25:35.9,0
25:35.9,71
25:36.6,59
25:36.6,15104
25:36.6,0
25:36.6,57
25:36.6,14592
25:36.6,0
25:36.6,66
25:36.6,15616
25:36.6,0
25:36.6,45
25:36.6,9728
25:36.6,0
25:36.6,40
25:36.6,27392
25:36.6,0
25:36.6,340
25:36.6,14080
25:36.6,2
25:36.6,281
25:36.6,-29440
25:36.6,-3
25:36.6,-1442
25:36.6,-13057
25:36.6,-6
25:36.6,-546
25:36.6,-16641
25:36.6,-1
25:36.6,19
25:36.6,-27904
25:36.6,0
25:36.6,228
25:36.6,-20480
25:36.6,0
25:36.6,164
25:36.6,-18176
25:36.6,0
25:36.6,166
25:36.6,-27904
25:36.6,0
25:36.6,152
25:36.6,-27136
25:36.6,0
25:36.6,135
25:36.6,32256
25:36.6,0
25:36.6,126
25:36.6,30976
25:36.6,0
25:36.6,119
25:36.6,29184
25:36.6,0
25:36.6,104
25:36.6,22528
25:36.6,0
25:36.6,71
25:36.6,17664
25:36.6,0
25:36.6,69
25:36.6,15616
25:36.6,0
25:36.6,61
25:36.6,18176
25:36.6,0
25:36.6,95
25:36.6,29184
25:36.6,0
25:36.6,109
25:36.6,27392
25:36.6,0
25:36.6,121
25:36.6,31488
25:36.6,0
25:36.6,107
25:36.6,24832
25:36.6,0
25:36.6,95
25:36.6,21760
25:36.6,0
25:36.6,78
25:36.6,19968
25:36.6,0
25:36.6,69
25:36.6,15104
25:36.6,0
25:36.6,61
25:36.6,18176
25:36.6,0
25:36.6,81
25:36.6,21760
25:36.6,0
25:36.6,81
25:36.6,19968
25:36.6,0
25:36.6,73
25:36.6,15104
25:36.6,0
25:36.6,47
25:36.6,11520
25:36.6,0
25:36.6,50
25:36.6,10752
25:36.6,0
25:36.6,33
25:36.6,7680
25:36.6,0
25:36.6,28
25:36.6,13312
25:36.6,0
25:36.6,212
25:37.1,495
25:37.1,1280
25:37.1,2
25:37.1,-114
25:37.1,-12801
25:37.1,-5
25:37.1,-1418
25:37.1,-12289
25:37.1,-4
25:37.1,-157
25:37.1,-4609
25:37.1,-1
25:37.1,47
25:37.1,-12544
25:37.1,0
25:37.1,205
25:37.1,-26624
25:37.1,0
25:37.1,178
25:37.1,-18688
25:37.1,0
25:37.1,154
25:37.1,-24064
25:37.1,0
25:37.1,171
25:37.1,-26624
25:37.1,0
25:37.1,140
25:37.1,-27904
25:37.1,0
25:37.1,140
25:37.1,31488
25:37.1,0
25:37.1,119
25:37.1,28672
25:37.1,0
25:37.1,92
25:37.1,17664
25:37.1,0
25:37.1,54
25:37.1,11520
25:37.1,0
25:37.1,33
25:37.1,7680
25:37.1,0
25:37.1,47
25:37.1,19456
25:37.1,0
25:37.1,109
25:37.1,-30976
25:37.1,0
25:37.1,147
25:37.1,-26624
25:37.1,0
25:37.1,150
25:37.1,-30976
25:37.1,0
25:37.1,131
25:37.1,32256
25:37.1,0
25:37.1,119
25:37.1,27904
25:37.1,0
25:37.1,100
25:37.1,23552
25:37.1,0
25:37.1,90
25:37.1,23552
25:37.1,0
25:37.1,97
25:37.1,26112
25:37.1,0
25:37.1,107
25:37.1,26624
25:37.1,0
25:37.1,95
25:37.1,19968
25:37.1,0
25:37.1,66
25:37.1,16384
25:37.1,0
25:37.1,66
25:37.1,16896
25:37.1,0
25:37.1,54
25:37.1,10240
25:37.1,0
25:37.1,40
25:37.1,12800
25:37.1,0
25:37.1,133
25:37.1,-30976
25:37.1,1
25:37.1,581
25:37.1,-14336
25:37.1,0
25:37.1,-748
25:37.1,18687
25:37.1,-6
25:37.1,-1204
25:37.1,22783
25:37.1,-2
25:37.1,-42
25:37.1,9215
25:37.1,0
25:37.1,178
25:37.1,-6400
25:37.1,0
25:37.1,176
25:37.7,183
25:37.7,-13824
25:37.7,0
25:37.7,174
25:37.7,-24832
25:37.7,0
25:37.7,166
25:37.7,-25344
25:37.7,0
25:37.7,143
25:37.7,-27136
25:37.7,0
25:37.7,154
25:37.7,-26624
25:37.7,0
25:37.7,154
25:37.7,-26112
25:37.7,0
25:37.7,128
25:37.7,26112
25:37.7,0
25:37.7,97
25:37.7,26112
25:37.7,0
25:37.7,92
25:37.7,17664
25:37.7,0
25:37.7,73
25:37.7,25600
25:37.7,0
25:37.7,109
25:37.7,30464
25:37.7,0
25:37.7,135
25:37.7,-28416
25:37.7,0
25:37.7,135
25:37.7,-30976
25:37.7,0
25:37.7,135
25:37.7,30464
25:37.7,0
25:37.7,109
25:37.7,29184
25:37.7,0
25:37.7,107
25:37.7,23040
25:37.7,0
25:37.7,90
25:37.7,24320
25:37.7,0
25:37.7,95
25:37.7,26112
25:37.7,0
25:37.7,109
25:37.7,27392
25:37.7,0
25:37.7,88
25:37.7,14592
25:37.7,0
25:37.7,47
25:37.7,15104
25:37.7,0
25:37.7,61
25:37.7,12032
25:37.7,0
25:37.7,40
25:37.7,10240
25:37.7,0
25:37.7,42
25:37.7,16384
25:37.7,0
25:37.7,202
25:37.7,-9216
25:37.7,1
25:37.7,498
25:37.7,28928
25:37.7,-1
25:37.7,-1123
25:37.7,15871
25:37.7,-6
25:37.7,-877
25:37.7,14079
25:37.7,-1
25:37.7,-19
25:37.7,21503
25:37.7,0
25:37.7,224
25:37.7,-13824
25:37.7,0
25:37.7,157
25:37.7,-17408
25:37.7,0
25:37.7,193
25:37.7,-23040
25:37.7,0
25:37.7,164
25:37.7,-24832
25:37.7,0
25:37.7,150
25:37.7,-27136
25:37.7,0
25:37.7,147
25:37.7,-31488
25:37.7,0
25:37.7,123
25:37.7,30976
25:37.7,0
25:37.7,109
25:38.2,95
25:38.2,21248
25:38.2,0
25:38.2,69
25:38.2,12800
25:38.2,0
25:38.2,42
25:38.2,13824
25:38.2,0
25:38.2,73
25:38.2,24832
25:38.2,0
25:38.2,119
25:38.2,-32000
25:38.2,0
25:38.2,135
25:38.2,-30208
25:38.2,0
25:38.2,143
25:38.2,-28416
25:38.2,0
25:38.2,145
25:38.2,30976
25:38.2,0
25:38.2,100
25:38.2,26112
25:38.2,0
25:38.2,109
25:38.2,27904
25:38.2,0
25:38.2,100
25:38.2,26624
25:38.2,0
25:38.2,116
25:38.2,28672
25:38.2,0
25:38.2,95
25:38.2,18688
25:38.2,0
25:38.2,64
25:38.2,17664
25:38.2,0
25:38.2,59
25:38.2,12032
25:38.2,0
25:38.2,45
25:38.2,12800
25:38.2,0
25:38.2,45
25:38.2,10240
25:38.2,0
25:38.2,71
25:38.2,-5888
25:38.2,0
25:38.2,491
25:38.2,-20224
25:38.2,1
25:38.2,-317
25:38.2,-13825
25:38.2,-6
25:38.2,-1597
25:38.2,31743
25:38.2,-4
25:38.2,-193
25:38.2,5631
25:38.2,0
25:38.2,131
25:38.2,-3328
25:38.2,0
25:38.2,219
25:38.2,-16896
25:38.2,0
25:38.2,214
25:38.2,-17408
25:38.2,0
25:38.2,159
25:38.2,-19968
25:38.2,0
25:38.2,178
25:38.2,-24832
25:38.2,0
25:38.2,166
25:38.2,-22272
25:38.2,0
25:38.2,164
25:38.2,-21760
25:38.2,0
25:38.2,147
25:38.2,29184
25:38.2,0
25:38.2,121
25:38.2,-32768
25:38.2,0
25:38.2,107
25:38.2,24320
25:38.2,0
25:38.2,114
25:38.2,30464
25:38.2,0
25:38.2,102
25:38.2,26624
25:38.2,0
25:38.2,114
25:38.2,26112
25:38.2,0
25:38.2,100
25:38.2,28672
25:38.2,0
25:38.2,107
25:38.9,109
25:38.9,28672
25:38.9,0
25:38.9,83
25:38.9,19968
25:38.9,0
25:38.9,97
25:38.9,25600
25:38.9,0
25:38.9,92
25:38.9,23040
25:38.9,0
25:38.9,95
25:38.9,23040
25:38.9,0
25:38.9,85
25:38.9,25600
25:38.9,0
25:38.9,100
25:38.9,16384
25:38.9,0
25:38.9,59
25:38.9,23552
25:38.9,0
25:38.9,92
25:38.9,11520
25:38.9,0
25:38.9,21
25:38.9,8960
25:38.9,0
25:38.9,45
25:38.9,20736
25:38.9,0
25:38.9,274
25:38.9,768
25:38.9,2
25:38.9,312
25:38.9,-14080
25:38.9,-3
25:38.9,-1473
25:38.9,16383
25:38.9,-6
25:38.9,-672
25:38.9,-22273
25:38.9,-1
25:38.9,42
25:38.9,-23552
25:38.9,0
25:38.9,233
25:38.9,-20480
25:38.9,0
25:38.9,166
25:38.9,-15616
25:38.9,0
25:38.9,185
25:38.9,-23040
25:38.9,0
25:38.9,157
25:38.9,-25344
25:38.9,0
25:38.9,154
25:38.9,-27136
25:38.9,0
25:38.9,150
25:38.9,-27136
25:38.9,0
25:38.9,145
25:38.9,-31488
25:38.9,0
25:38.9,114
25:38.9,26112
25:38.9,0
25:38.9,109
25:38.9,27392
25:38.9,0
25:38.9,90
25:38.9,22528
25:38.9,0
25:38.9,88
25:38.9,22528
25:38.9,0
25:38.9,109
25:38.9,31488
25:38.9,0
25:38.9,107
25:38.9,27392
25:38.9,0
25:38.9,121
25:38.9,29184
25:38.9,0
25:38.9,102
25:38.9,23552
25:38.9,0
25:38.9,88
25:38.9,23552
25:38.9,0
25:38.9,92
25:38.9,23552
25:38.9,0
25:38.9,100
25:38.9,23552
25:38.9,0
25:38.9,90
25:38.9,27392
25:38.9,0
25:38.9,112
25:38.9,25600
25:38.9,0
25:38.9,76
25:39.3,57
25:39.3,13824
25:39.3,0
25:39.3,61
25:39.3,16896
25:39.3,0
25:39.3,69
25:39.3,15616
25:39.3,0
25:39.3,42
25:39.3,10752
25:39.3,0
25:39.3,112
25:39.3,20992
25:39.3,1
25:39.3,543
25:39.3,-18688
25:39.3,0
25:39.3,-779
25:39.3,4863
25:39.3,-6
25:39.3,-1282
25:39.3,13567
25:39.3,-2
25:39.3,-4
25:39.3,18431
25:39.3,0
25:39.3,185
25:39.3,-5888
25:39.3,0
25:39.3,178
25:39.3,-18176
25:39.3,0
25:39.3,219
25:39.3,-13056
25:39.3,0
25:39.3,188
25:39.3,-16896
25:39.3,0
25:39.3,185
25:39.3,-20992
25:39.3,0
25:39.3,176
25:39.3,-20992
25:39.3,0
25:39.3,150
25:39.3,-27136
25:39.3,0
25:39.3,164
25:39.3,-28928
25:39.3,0
25:39.3,123
25:39.3,-31488
25:39.3,0
25:39.3,107
25:39.3,16384
25:39.3,0
25:39.3,61
25:39.3,23040
25:39.3,0
25:39.3,109
25:39.3,28672
25:39.3,0
25:39.3,119
25:39.3,32256
25:39.3,0
25:39.3,133
25:39.3,-30976
25:39.3,0
25:39.3,128
25:39.3,31488
25:39.3,0
25:39.3,119
25:39.3,26624
25:39.3,0
25:39.3,107
25:39.3,29696
25:39.3,0
25:39.3,112
25:39.3,25600
25:39.3,0
25:39.3,104
25:39.3,28672
25:39.3,0
25:39.3,104
25:39.3,23552
25:39.3,0
25:39.3,88
25:39.3,19968
25:39.3,0
25:39.3,76
25:39.3,21760
25:39.3,0
25:39.3,83
25:39.3,18176
25:39.3,0
25:39.3,64
25:39.3,15104
25:39.3,0
25:39.3,54
25:39.3,18176
25:39.3,0
25:39.3,171
25:39.3,-26880
25:39.3,1
25:39.3,493
25:39.3,-2304
25:39.3,-1
25:39.3,-918
25:40.0,-1411
25:40.0,-3585
25:40.0,-5
25:40.0,-340
25:40.0,1279
25:40.0,0
25:40.0,104
25:40.0,-15104
25:40.0,0
25:40.0,207
25:40.0,-20480
25:40.0,0
25:40.0,200
25:40.0,-10240
25:40.0,0
25:40.0,193
25:40.0,-18688
25:40.0,0
25:40.0,181
25:40.0,-22272
25:40.0,0
25:40.0,166
25:40.0,-24064
25:40.0,0
25:40.0,147
25:40.0,-28928
25:40.0,0
25:40.0,138
25:40.0,32256
25:40.0,0
25:40.0,114
25:40.0,27904
25:40.0,0
25:40.0,100
25:40.0,22528
25:40.0,0
25:40.0,85
25:40.0,22528
25:40.0,0
25:40.0,92
25:40.0,27904
25:40.0,0
25:40.0,126
25:40.0,-32768
25:40.0,0
25:40.0,126
25:40.0,-31488
25:40.0,0
25:40.0,135
25:40.0,-32768
25:40.0,0
25:40.0,131
25:40.0,-32768
25:40.0,0
25:40.0,116
25:40.0,27392
25:40.0,0
25:40.0,104
25:40.0,26624
25:40.0,0
25:40.0,97
25:40.0,23552
25:40.0,0
25:40.0,102
25:40.0,27392
25:40.0,0
25:40.0,100
25:40.0,22528
25:40.0,0
25:40.0,66
25:40.0,15104
25:40.0,0
25:40.0,71
25:40.0,19456
25:40.0,0
25:40.0,61
25:40.0,13312
25:40.0,0
25:40.0,59
25:40.0,16384
25:40.0,0
25:40.0,66
25:40.0,-27904
25:40.0,0
25:40.0,388
25:40.0,7424
25:40.0,2
25:40.0,171
25:40.0,28928
25:40.0,-3
25:40.0,-1232
25:40.0,11007
25:40.0,-4
25:40.0,-324
25:40.0,-6401
25:40.0,-1
25:40.0,26
25:40.0,-27136
25:40.0,0
25:40.0,200
25:40.0,-27136
25:40.0,0
25:40.0,147
25:40.0,-23552
25:40.0,0
25:40.0,150
25:40.0,-29696
25:40.0,0
25:40.0,135
25:40.5,126
25:40.5,30976
25:40.5,0
25:40.5,119
25:40.5,27904
25:40.5,0
25:40.5,95
25:40.5,22528
25:40.5,0
25:40.5,78
25:40.5,16384
25:40.5,0
25:40.5,50
25:40.5,8448
25:40.5,0
25:40.5,21
25:40.5,2816
25:40.5,0
25:40.5,7
25:40.5,6656
25:40.5,0
25:40.5,59
25:40.5,23040
25:40.5,0
25:40.5,114
25:40.5,-32000
25:40.5,0
25:40.5,138
25:40.5,-29696
25:40.5,0
25:40.5,150
25:40.5,-25344
25:40.5,0
25:40.5,145
25:40.5,-31488
25:40.5,0
25:40.5,131
25:40.5,32256
25:40.5,0
25:40.5,123
25:40.5,29696
25:40.5,0
25:40.5,114
25:40.5,31488
25:40.5,0
25:40.5,121
25:40.5,27904
25:40.5,0
25:40.5,95
25:40.5,23040
25:40.5,0
25:40.5,83
25:40.5,19968
25:40.5,0
25:40.5,78
25:40.5,16896
25:40.5,0
25:40.5,52
25:40.5,13312
25:40.5,0
25:40.5,57
25:40.5,15616
25:40.5,0
25:40.5,183
25:40.5,-11008
25:40.5,1
25:40.5,569
25:40.5,18688
25:40.5,0
25:40.5,-863
25:40.5,30463
25:40.5,-6
25:40.5,-996
25:40.5,-1281
25:40.5,-2
25:40.5,-11
25:40.5,13055
25:40.5,0
25:40.5,193
25:40.5,-14336
25:40.5,0
25:40.5,147
25:40.5,-20480
25:40.5,0
25:40.5,193
25:40.5,-23040
25:40.5,0
25:40.5,157
25:40.5,-23040
25:40.5,0
25:40.5,150
25:40.5,30976
25:40.5,0
25:40.5,123
25:40.5,-31488
25:40.5,0
25:40.5,126
25:40.5,28672
25:40.5,0
25:40.5,92
25:40.5,18688
25:40.5,0
25:40.5,76
25:40.5,16384
25:40.5,0
25:40.5,28
25:40.5,5888
25:40.5,0
25:40.5,30
25:41.1,35
25:41.1,15104
25:41.1,0
25:41.1,97
25:41.1,29696
25:41.1,0
25:41.1,121
25:41.1,-32000
25:41.1,0
25:41.1,126
25:41.1,27904
25:41.1,0
25:41.1,109
25:41.1,29696
25:41.1,0
25:41.1,104
25:41.1,23040
25:41.1,0
25:41.1,102
25:41.1,30976
25:41.1,0
25:41.1,114
25:41.1,27392
25:41.1,0
25:41.1,112
25:41.1,29184
25:41.1,0
25:41.1,114
25:41.1,24832
25:41.1,0
25:41.1,69
25:41.1,16384
25:41.1,0
25:41.1,66
25:41.1,14592
25:41.1,0
25:41.1,50
25:41.1,11520
25:41.1,0
25:41.1,42
25:41.1,11520
25:41.1,0
25:41.1,92
25:41.1,11776
25:41.1,1
25:41.1,567
25:41.1,-26880
25:41.1,1
25:41.1,-412
25:41.1,-7681
25:41.1,-6
25:41.1,-1354
25:41.1,-23553
25:41.1,-3
25:41.1,-78
25:41.1,255
25:41.1,0
25:41.1,112
25:41.1,-8192
25:41.1,0
25:41.1,188
25:41.1,-23040
25:41.1,0
25:41.1,197
25:41.1,-18176
25:41.1,0
25:41.1,159
25:41.1,-23040
25:41.1,0
25:41.1,166
25:41.1,-28416
25:41.1,0
25:41.1,138
25:41.1,-30208
25:41.1,0
25:41.1,138
25:41.1,-31488
25:41.1,0
25:41.1,119
25:41.1,26112
25:41.1,0
25:41.1,90
25:41.1,21760
25:41.1,0
25:41.1,69
25:41.1,8448
25:41.1,0
25:41.1,28
25:41.1,13824
25:41.1,0
25:41.1,54
25:41.1,16384
25:41.1,0
25:41.1,104
25:41.1,31488
25:41.1,0
25:41.1,116
25:41.1,30976
25:41.1,0
25:41.1,128
25:41.1,31488
25:41.1,0
25:41.1,112
25:41.1,29696
25:41.1,0
25:41.1,109
25:41.1,18176
25:41.1,0
25:41.1,76
25:41.6,104
25:41.6,26112
25:41.6,0
25:41.6,100
25:41.6,29696
25:41.6,0
25:41.6,112
25:41.6,18688
25:41.6,0
25:41.6,54
25:41.6,16384
25:41.6,0
25:41.6,66
25:41.6,14592
25:41.6,0
25:41.6,54
25:41.6,13312
25:41.6,0
25:41.6,42
25:41.6,9728
25:41.6,0
25:41.6,73
25:41.6,4608
25:41.6,1
25:41.6,553
25:41.6,-18176
25:41.6,1
25:41.6,-340
25:41.6,-8193
25:41.6,-6
25:41.6,-1502
25:41.6,2303
25:41.6,-3
25:41.6,-116
25:41.6,5119
25:41.6,0
25:41.6,135
25:41.6,1536
25:41.6,1
25:41.6,216
25:41.6,-20992
25:41.6,0
25:41.6,221
25:41.6,-8960
25:41.6,0
25:41.6,174
25:41.6,-19968
25:41.6,0
25:41.6,195
25:41.6,-20992
25:41.6,0
25:41.6,162
25:41.6,-24064
25:41.6,0
25:41.6,157
25:41.6,-26112
25:41.6,0
25:41.6,152
25:41.6,-30976
25:41.6,0
25:41.6,112
25:41.6,24320
25:41.6,0
25:41.6,88
25:41.6,19968
25:41.6,0
25:41.6,76
25:41.6,21248
25:41.6,0
25:41.6,85
25:41.6,25600
25:41.6,0
25:41.6,116
25:41.6,29696
25:41.6,0
25:41.6,114
25:41.6,30976
25:41.6,0
25:41.6,119
25:41.6,23040
25:41.6,0
25:41.6,97
25:41.6,-32768
25:41.6,0
25:41.6,95
25:41.6,15616
25:41.6,0
25:41.6,90
25:41.6,27392
25:41.6,0
25:41.6,104
25:41.6,27904
25:41.6,0
25:41.6,102
25:41.6,20736
25:41.6,0
25:41.6,64
25:41.6,15104
25:41.6,0
25:41.6,54
25:41.6,15616
25:41.6,0
25:41.6,64
25:41.6,12032
25:41.6,0
25:41.6,45
25:41.6,12800
25:41.6,0
25:41.6,42
25:42.2,61
25:42.2,-4608
25:42.2,0
25:42.2,515
25:42.2,-17152
25:42.2,1
25:42.2,-314
25:42.2,-5889
25:42.2,-6
25:42.2,-1552
25:42.2,-27137
25:42.2,-4
25:42.2,-193
25:42.2,2559
25:42.2,0
25:42.2,128
25:42.2,-1024
25:42.2,0
25:42.2,224
25:42.2,-18176
25:42.2,0
25:42.2,214
25:42.2,-10752
25:42.2,0
25:42.2,195
25:42.2,-15616
25:42.2,0
25:42.2,188
25:42.2,-19968
25:42.2,0
25:42.2,178
25:42.2,-21760
25:42.2,0
25:42.2,166
25:42.2,-24064
25:42.2,0
25:42.2,152
25:42.2,-30208
25:42.2,0
25:42.2,123
25:42.2,27904
25:42.2,0
25:42.2,102
25:42.2,24832
25:42.2,0
25:42.2,88
25:42.2,23040
25:42.2,0
25:42.2,102
25:42.2,27904
25:42.2,0
25:42.2,114
25:42.2,30976
25:42.2,0
25:42.2,121
25:42.2,29184
25:42.2,0
25:42.2,114
25:42.2,28672
25:42.2,0
25:42.2,102
25:42.2,24832
25:42.2,0
25:42.2,100
25:42.2,24832
25:42.2,0
25:42.2,92
25:42.2,23552
25:42.2,0
25:42.2,97
25:42.2,26112
25:42.2,0
25:42.2,100
25:42.2,23040
25:42.2,0
25:42.2,71
25:42.2,14592
25:42.2,0
25:42.2,47
25:42.2,12032
25:42.2,0
25:42.2,50
25:42.2,12032
25:42.2,0
25:42.2,35
25:42.2,7680
25:42.2,0
25:42.2,35
25:42.2,11520
25:42.2,0
25:42.2,150
25:42.2,-22016
25:42.2,1
25:42.2,546
25:42.2,4096
25:42.2,0
25:42.2,-989
25:42.2,-7937
25:42.2,-7
25:42.2,-1156
25:42.2,-29953
25:42.2,-2
25:42.2,-26
25:42.2,17919
25:42.2,0
25:42.2,197
25:42.2,-9472
25:42.2,0
25:42.2,174
25:42.7,190
25:42.7,-13824
25:42.7,0
25:42.7,188
25:42.7,-19200
25:42.7,0
25:42.7,178
25:42.7,-23040
25:42.7,0
25:42.7,162
25:42.7,-23552
25:42.7,0
25:42.7,159
25:42.7,-26624
25:42.7,0
25:42.7,145
25:42.7,-32000
25:42.7,0
25:42.7,119
25:42.7,28672
25:42.7,0
25:42.7,112
25:42.7,28672
25:42.7,0
25:42.7,107
25:42.7,26624
25:42.7,0
25:42.7,112
25:42.7,31488
25:42.7,0
25:42.7,135
25:42.7,-28416
25:42.7,0
25:42.7,147
25:42.7,-28416
25:42.7,0
25:42.7,138
25:42.7,-30976
25:42.7,0
25:42.7,131
25:42.7,32256
25:42.7,0
25:42.7,123
25:42.7,29696
25:42.7,0
25:42.7,107
25:42.7,29184
25:42.7,0
25:42.7,131
25:42.7,-32000
25:42.7,0
25:42.7,114
25:42.7,24320
25:42.7,0
25:42.7,88
25:42.7,19456
25:42.7,0
25:42.7,59
25:42.7,16384
25:42.7,0
25:42.7,78
25:42.7,18688
25:42.7,0
25:42.7,57
25:42.7,13312
25:42.7,0
25:42.7,61
25:42.7,15104
25:42.7,0
25:42.7,97
25:42.7,13568
25:42.7,1
25:42.7,546
25:42.7,10752
25:42.7,1
25:42.7,-574
25:42.7,-28929
25:42.7,-6
25:42.7,-1356
25:42.7,-31489
25:42.7,-3
25:42.7,-95
25:42.7,16639
25:42.7,0
25:42.7,181
25:42.7,-4096
25:42.7,0
25:42.7,190
25:42.7,-18688
25:42.7,0
25:42.7,212
25:42.7,-14336
25:42.7,0
25:42.7,174
25:42.7,-20992
25:42.7,0
25:42.7,181
25:42.7,-22272
25:42.7,0
25:42.7,159
25:42.7,-21760
25:42.7,0
25:42.7,169
25:42.7,-30976
25:42.7,0
25:42.7,121
25:42.7,30976
25:42.7,0
25:42.7,112
25:43.3,107
25:43.3,26624
25:43.3,0
25:43.3,95
25:43.3,23552
25:43.3,0
25:43.3,100
25:43.3,27392
25:43.3,0
25:43.3,128
25:43.3,-27136
25:43.3,0
25:43.3,147
25:43.3,-27136
25:43.3,0
25:43.3,143
25:43.3,29696
25:43.3,0
25:43.3,123
25:43.3,-28928
25:43.3,0
25:43.3,131
25:43.3,29696
25:43.3,0
25:43.3,112
25:43.3,27392
25:43.3,0
25:43.3,109
25:43.3,30976
25:43.3,0
25:43.3,116
25:43.3,26624
25:43.3,0
25:43.3,100
25:43.3,22528
25:43.3,0
25:43.3,59
25:43.3,13312
25:43.3,0
25:43.3,64
25:43.3,16384
25:43.3,0
25:43.3,52
25:43.3,10752
25:43.3,0
25:43.3,35
25:43.3,8960
25:43.3,0
25:43.3,52
25:43.3,-21760
25:43.3,0
25:43.3,443
25:43.3,3584
25:43.3,2
25:43.3,-59
25:43.3,-16385
25:43.3,-5
25:43.3,-1616
25:43.3,-26881
25:43.3,-5
25:43.3,-343
25:43.3,-3841
25:43.3,-1
25:43.3,83
25:43.3,-12544
25:43.3,0
25:43.3,221
25:43.3,-18688
25:43.3,0
25:43.3,197
25:43.3,-13824
25:43.3,0
25:43.3,181
25:43.3,-21760
25:43.3,0
25:43.3,176
25:43.3,-21760
25:43.3,0
25:43.3,166
25:43.3,-22272
25:43.3,0
25:43.3,159
25:43.3,-29696
25:43.3,0
25:43.3,126
25:43.3,31488
25:43.3,0
25:43.3,119
25:43.3,26112
25:43.3,0
25:43.3,97
25:43.3,25600
25:43.3,0
25:43.3,95
25:43.3,24320
25:43.3,0
25:43.3,112
25:43.3,29184
25:43.3,0
25:43.3,102
25:43.3,29696
25:43.3,0
25:43.3,123
25:43.3,27392
25:43.3,0
25:43.3,100
25:43.3,26624
25:43.3,0
25:43.3,107
25:43.8,100
25:43.8,25600
25:43.8,0
25:43.8,95
25:43.8,21248
25:43.8,0
25:43.8,92
25:43.8,24832
25:43.8,0
25:43.8,71
25:43.8,18688
25:43.8,0
25:43.8,92
25:43.8,19968
25:43.8,0
25:43.8,59
25:43.8,15616
25:43.8,0
25:43.8,71
25:43.8,18688
25:43.8,0
25:43.8,57
25:43.8,12800
25:43.8,0
25:43.8,50
25:43.8,9728
25:43.8,0
25:43.8,38
25:43.8,30464
25:43.8,0
25:43.8,369
25:43.8,17152
25:43.8,2
25:43.8,245
25:43.8,16128
25:43.8,-3
25:43.8,-1487
25:43.8,3327
25:43.8,-5
25:43.8,-457
25:43.8,-12545
25:43.8,-1
25:43.8,14
25:43.8,-26112
25:43.8,0
25:43.8,224
25:43.8,-22272
25:43.8,0
25:43.8,162
25:43.8,-18688
25:43.8,0
25:43.8,171
25:43.8,-23552
25:43.8,0
25:43.8,169
25:43.8,-26112
25:43.8,0
25:43.8,152
25:43.8,-23040
25:43.8,0
25:43.8,154
25:43.8,31488
25:43.8,0
25:43.8,126
25:43.8,-32000
25:43.8,0
25:43.8,104
25:43.8,21248
25:43.8,0
25:43.8,78
25:43.8,16896
25:43.8,0
25:43.8,57
25:43.8,17664
25:43.8,0
25:43.8,73
25:43.8,19968
25:43.8,0
25:43.8,100
25:43.8,29696
25:43.8,0
25:43.8,116
25:43.8,29696
25:43.8,0
25:43.8,116
25:43.8,28672
25:43.8,0
25:43.8,100
25:43.8,25600
25:43.8,0
25:43.8,102
25:43.8,22528
25:43.8,0
25:43.8,83
25:43.8,24320
25:43.8,0
25:43.8,97
25:43.8,23040
25:43.8,0
25:43.8,95
25:43.8,24320
25:43.8,0
25:43.8,76
25:43.8,15104
25:43.8,0
25:43.8,54
25:43.8,13824
25:43.8,0
25:43.8,54
25:44.4,45
25:44.4,8448
25:44.4,0
25:44.4,38
25:44.4,8448
25:44.4,0
25:44.4,40
25:44.4,-15104
25:44.4,0
25:44.4,493
25:44.4,0
25:44.4,2
25:44.4,-150
25:44.4,28927
25:44.4,-5
25:44.4,-1566
25:44.4,16639
25:44.4,-4
25:44.4,-224
25:44.4,767
25:44.4,0
25:44.4,92
25:44.4,-6400
25:44.4,0
25:44.4,224
25:44.4,-20480
25:44.4,0
25:44.4,202
25:44.4,-12032
25:44.4,0
25:44.4,188
25:44.4,-19968
25:44.4,0
25:44.4,169
25:44.4,-23552
25:44.4,0
25:44.4,171
25:44.4,-20992
25:44.4,0
25:44.4,162
25:44.4,-26624
25:44.4,0
25:44.4,150
25:44.4,-30208
25:44.4,0
25:44.4,114
25:44.4,26112
25:44.4,0
25:44.4,92
25:44.4,21760
25:44.4,0
25:44.4,85
25:44.4,18688
25:44.4,0
25:44.4,73
25:44.4,28672
25:44.4,0
25:44.4,135
25:44.4,30976
25:44.4,0
25:44.4,116
25:44.4,32256
25:44.4,0
25:44.4,123
25:44.4,29184
25:44.4,0
25:44.4,114
25:44.4,29696
25:44.4,0
25:44.4,112
25:44.4,24832
25:44.4,0
25:44.4,92
25:44.4,26624
25:44.4,0
25:44.4,109
25:44.4,27392
25:44.4,0
25:44.4,112
25:44.4,21760
25:44.4,0
25:44.4,47
25:44.4,12800
25:44.4,0
25:44.4,64
25:44.4,14592
25:44.4,0
25:44.4,52
25:44.4,12800
25:44.4,0
25:44.4,42
25:44.4,6656
25:44.4,0
25:44.4,9
25:44.4,19968
25:44.4,0
25:44.4,309
25:44.4,10496
25:44.4,2
25:44.4,314
25:44.4,-22016
25:44.4,-3
25:44.4,-1509
25:44.4,15871
25:44.4,-6
25:44.4,-670
25:44.4,-27649
25:44.4,-1
25:44.4,19
25:44.9,135
25:44.9,-7680
25:44.9,0
25:44.9,188
25:44.9,-23040
25:44.9,0
25:44.9,193
25:44.9,-17408
25:44.9,0
25:44.9,169
25:44.9,-20992
25:44.9,0
25:44.9,176
25:44.9,-19968
25:44.9,0
25:44.9,190
25:44.9,-19200
25:44.9,0
25:44.9,157
25:44.9,-27136
25:44.9,0
25:44.9,143
25:44.9,-32000
25:44.9,0
25:44.9,123
25:44.9,30464
25:44.9,0
25:44.9,107
25:44.9,26624
25:44.9,0
25:44.9,104
25:44.9,25600
25:44.9,0
25:44.9,100
25:44.9,29696
25:44.9,0
25:44.9,131
25:44.9,-32000
25:44.9,0
25:44.9,126
25:44.9,31488
25:44.9,0
25:44.9,126
25:44.9,30976
25:44.9,0
25:44.9,114
25:44.9,30464
25:44.9,0
25:44.9,116
25:44.9,24832
25:44.9,0
25:44.9,102
25:44.9,29696
25:44.9,0
25:44.9,119
25:44.9,30464
25:44.9,0
25:44.9,104
25:44.9,21760
25:44.9,0
25:44.9,73
25:44.9,15616
25:44.9,0
25:44.9,61
25:44.9,16896
25:44.9,0
25:44.9,52
25:44.9,11520
25:44.9,0
25:44.9,50
25:44.9,9728
25:44.9,0
25:44.9,38
25:44.9,-24832
25:44.9,0
25:44.9,436
25:44.9,1280
25:44.9,2
25:44.9,-50
25:44.9,-4353
25:44.9,-5
25:44.9,-1557
25:44.9,-17665
25:44.9,-5
25:44.9,-331
25:44.9,-5121
25:44.9,-1
25:44.9,78
25:44.9,-12032
25:44.9,0
25:44.9,214
25:44.9,-23552
25:44.9,0
25:44.9,190
25:44.9,-16896
25:44.9,0
25:44.9,150
25:44.9,-26112
25:44.9,0
25:44.9,174
25:44.9,-25344
25:44.9,0
25:44.9,145
25:44.9,-27136
25:44.9,0
25:44.9,143
25:44.9,-31488
25:44.9,0
25:44.9,128
25:45.5,116
25:45.5,27904
25:45.5,0
25:45.5,95
25:45.5,15616
25:45.5,0
25:45.5,61
25:45.5,23040
25:45.5,0
25:45.5,92
25:45.5,24320
25:45.5,0
25:45.5,121
25:45.5,-30976
25:45.5,0
25:45.5,133
25:45.5,-31488
25:45.5,0
25:45.5,131
25:45.5,-32768
25:45.5,0
25:45.5,119
25:45.5,29184
25:45.5,0
25:45.5,119
25:45.5,29184
25:45.5,0
25:45.5,119
25:45.5,-32768
25:45.5,0
25:45.5,121
25:45.5,30976
25:45.5,0
25:45.5,131
25:45.5,27904
25:45.5,0
25:45.5,85
25:45.5,20736
25:45.5,0
25:45.5,66
25:45.5,15104
25:45.5,0
25:45.5,69
25:45.5,16384
25:45.5,0
25:45.5,50
25:45.5,13312
25:45.5,0
25:45.5,45
25:45.5,10240
25:45.5,0
25:45.5,83
25:45.5,5120
25:45.5,1
25:45.5,517
25:45.5,19200
25:45.5,1
25:45.5,-500
25:45.5,-25345
25:45.5,-6
25:45.5,-1437
25:45.5,16383
25:45.5,-3
25:45.5,-119
25:45.5,6143
25:45.5,0
25:45.5,133
25:45.5,-7680
25:45.5,0
25:45.5,190
25:45.5,-20992
25:45.5,0
25:45.5,195
25:45.5,-18176
25:45.5,0
25:45.5,166
25:45.5,-24064
25:45.5,0
25:45.5,157
25:45.5,-26624
25:45.5,0
25:45.5,147
25:45.5,-30976
25:45.5,0
25:45.5,126
25:45.5,30976
25:45.5,0
25:45.5,114
25:45.5,26624
25:45.5,0
25:45.5,92
25:45.5,19968
25:45.5,0
25:45.5,78
25:45.5,16384
25:45.5,0
25:45.5,54
25:45.5,23040
25:45.5,0
25:45.5,114
25:45.5,27392
25:45.5,0
25:45.5,112
25:45.5,28672
25:45.5,0
25:45.5,109
25:45.5,29696
25:45.5,0
25:45.5,112
25:46.1,112
25:46.1,29696
25:46.1,0
25:46.1,107
25:46.1,24832
25:46.1,0
25:46.1,97
25:46.1,24832
25:46.1,0
25:46.1,112
25:46.1,-32000
25:46.1,0
25:46.1,128
25:46.1,29696
25:46.1,0
25:46.1,97
25:46.1,21248
25:46.1,0
25:46.1,78
25:46.1,16896
25:46.1,0
25:46.1,66
25:46.1,16896
25:46.1,0
25:46.1,57
25:46.1,12032
25:46.1,0
25:46.1,42
25:46.1,10752
25:46.1,0
25:46.1,73
25:46.1,-2816
25:46.1,0
25:46.1,522
25:46.1,-20736
25:46.1,1
25:46.1,-362
25:46.1,-17409
25:46.1,-6
25:46.1,-1573
25:46.1,-26369
25:46.1,-4
25:46.1,-178
25:46.1,4351
25:46.1,0
25:46.1,121
25:46.1,-5888
25:46.1,0
25:46.1,202
25:46.1,-23040
25:46.1,0
25:46.1,190
25:46.1,-17408
25:46.1,0
25:46.1,166
25:46.1,-23552
25:46.1,0
25:46.1,169
25:46.1,-24832
25:46.1,0
25:46.1,143
25:46.1,-28928
25:46.1,0
25:46.1,143
25:46.1,32256
25:46.1,0
25:46.1,116
25:46.1,27392
25:46.1,0
25:46.1,90
25:46.1,19968
25:46.1,0
25:46.1,76
25:46.1,19456
25:46.1,0
25:46.1,78
25:46.1,24320
25:46.1,0
25:46.1,114
25:46.1,27904
25:46.1,0
25:46.1,107
25:46.1,29184
25:46.1,0
25:46.1,109
25:46.1,26112
25:46.1,0
25:46.1,100
25:46.1,27392
25:46.1,0
25:46.1,114
25:46.1,27392
25:46.1,0
25:46.1,90
25:46.1,20736
25:46.1,0
25:46.1,88
25:46.1,24832
25:46.1,0
25:46.1,83
25:46.1,21760
25:46.1,0
25:46.1,104
25:46.1,26112
25:46.1,0
25:46.1,83
25:46.1,16896
25:46.1,0
25:46.1,54
25:46.6,52
25:46.6,12800
25:46.6,0
25:46.6,47
25:46.6,11520
25:46.6,0
25:46.6,45
25:46.6,11520
25:46.6,0
25:46.6,42
25:46.6,26624
25:46.6,0
25:46.6,343
25:46.6,21504
25:46.6,2
25:46.6,340
25:46.6,-17664
25:46.6,-3
25:46.6,-1452
25:46.6,-20481
25:46.6,-6
25:46.6,-557
25:46.6,-16129
25:46.6,-1
25:46.6,19
25:46.6,-27136
25:46.6,0
25:46.6,245
25:46.6,-12544
25:46.6,0
25:46.6,190
25:46.6,-16896
25:46.6,0
25:46.6,193
25:46.6,-16128
25:46.6,0
25:46.6,159
25:46.6,-27136
25:46.6,0
25:46.6,166
25:46.6,-23040
25:46.6,0
25:46.6,157
25:46.6,-27904
25:46.6,0
25:46.6,135
25:46.6,-32768
25:46.6,0
25:46.6,116
25:46.6,24320
25:46.6,0
25:46.6,85
25:46.6,24320
25:46.6,0
25:46.6,76
25:46.6,13312
25:46.6,0
25:46.6,81
25:46.6,27904
25:46.6,0
25:46.6,102
25:46.6,29696
25:46.6,0
25:46.6,140
25:46.6,-30208
25:46.6,0
25:46.6,123
25:46.6,-32768
25:46.6,0
25:46.6,135
25:46.6,29184
25:46.6,0
25:46.6,100
25:46.6,29184
25:46.6,0
25:46.6,109
25:46.6,24832
25:46.6,0
25:46.6,102
25:46.6,27392
25:46.6,0
25:46.6,107
25:46.6,27392
25:46.6,0
25:46.6,97
25:46.6,20736
25:46.6,0
25:46.6,64
25:46.6,14592
25:46.6,0
25:46.6,61
25:46.6,16896
25:46.6,0
25:46.6,45
25:46.6,6656
25:46.6,0
25:46.6,33
25:46.6,7680
25:46.6,0
25:46.6,50
25:46.6,-2304
25:46.6,0
25:46.6,555
25:46.6,-15104
25:46.6,1
25:46.6,-383
25:46.6,-29697
25:46.6,-6
25:46.6,-1568
25:47.2,-817
25:47.2,23295
25:47.2,-1
25:47.2,0
25:47.2,-30976
25:47.2,0
25:47.2,255
25:47.2,-10752
25:47.2,0
25:47.2,181
25:47.2,-13824
25:47.2,0
25:47.2,205
25:47.2,-13056
25:47.2,0
25:47.2,212
25:47.2,-15616
25:47.2,0
25:47.2,176
25:47.2,-19200
25:47.2,0
25:47.2,183
25:47.2,-20992
25:47.2,0
25:47.2,164
25:47.2,-24832
25:47.2,0
25:47.2,147
25:47.2,-32768
25:47.2,0
25:47.2,109
25:47.2,25600
25:47.2,0
25:47.2,92
25:47.2,23040
25:47.2,0
25:47.2,97
25:47.2,30464
25:47.2,0
25:47.2,131
25:47.2,32256
25:47.2,0
25:47.2,123
25:47.2,-32768
25:47.2,0
25:47.2,126
25:47.2,31488
25:47.2,0
25:47.2,123
25:47.2,30464
25:47.2,0
25:47.2,114
25:47.2,30976
25:47.2,0
25:47.2,116
25:47.2,26112
25:47.2,0
25:47.2,104
25:47.2,29696
25:47.2,0
25:47.2,114
25:47.2,28672
25:47.2,0
25:47.2,107
25:47.2,23040
25:47.2,0
25:47.2,71
25:47.2,14592
25:47.2,0
25:47.2,52
25:47.2,13824
25:47.2,0
25:47.2,52
25:47.2,10752
25:47.2,0
25:47.2,40
25:47.2,9728
25:47.2,0
25:47.2,30
25:47.2,24320
25:47.2,0
25:47.2,333
25:47.2,12800
25:47.2,2
25:47.2,255
25:47.2,16128
25:47.2,-3
25:47.2,-1571
25:47.2,14591
25:47.2,-6
25:47.2,-670
25:47.2,-25345
25:47.2,-1
25:47.2,64
25:47.2,-16128
25:47.2,0
25:47.2,257
25:47.2,-12032
25:47.2,0
25:47.2,205
25:47.2,-7168
25:47.2,0
25:47.2,214
25:47.2,-15616
25:47.2,0
25:47.2,193
25:47.2,-17408
25:47.2,0
25:47.2,178
25:47.7,176
25:47.7,-20992
25:47.7,0
25:47.7,171
25:47.7,-23552
25:47.7,0
25:47.7,154
25:47.7,-30208
25:47.7,0
25:47.7,121
25:47.7,29696
25:47.7,0
25:47.7,119
25:47.7,32256
25:47.7,0
25:47.7,131
25:47.7,-32000
25:47.7,0
25:47.7,138
25:47.7,-27904
25:47.7,0
25:47.7,150
25:47.7,-28416
25:47.7,0
25:47.7,138
25:47.7,-32000
25:47.7,0
25:47.7,126
25:47.7,-32768
25:47.7,0
25:47.7,131
25:47.7,-32768
25:47.7,0
25:47.7,126
25:47.7,30976
25:47.7,0
25:47.7,121
25:47.7,30976
25:47.7,0
25:47.7,112
25:47.7,29696
25:47.7,0
25:47.7,123
25:47.7,29184
25:47.7,0
25:47.7,95
25:47.7,20736
25:47.7,0
25:47.7,69
25:47.7,15616
25:47.7,0
25:47.7,61
25:47.7,16896
25:47.7,0
25:47.7,61
25:47.7,12800
25:47.7,0
25:47.7,42
25:47.7,9728
25:47.7,0
25:47.7,61
25:47.7,-11264
25:47.7,0
25:47.7,488
25:47.7,-9728
25:47.7,1
25:47.7,-228
25:47.7,13055
25:47.7,-5
25:47.7,-1599
25:47.7,767
25:47.7,-4
25:47.7,-286
25:47.7,2047
25:47.7,0
25:47.7,128
25:47.7,-4608
25:47.7,0
25:47.7,219
25:47.7,-17408
25:47.7,0
25:47.7,212
25:47.7,-12032
25:47.7,0
25:47.7,193
25:47.7,-14336
25:47.7,0
25:47.7,195
25:47.7,-21760
25:47.7,0
25:47.7,164
25:47.7,-19200
25:47.7,0
25:47.7,169
25:47.7,-30208
25:47.7,0
25:47.7,138
25:47.7,-30976
25:47.7,0
25:47.7,116
25:47.7,26112
25:47.7,0
25:47.7,92
25:47.7,21248
25:47.7,0
25:47.7,88
25:47.7,26112
25:47.7,0
25:47.7,121
25:48.3,128
25:48.3,30464
25:48.3,0
25:48.3,126
25:48.3,-31488
25:48.3,0
25:48.3,119
25:48.3,29184
25:48.3,0
25:48.3,133
25:48.3,-27904
25:48.3,0
25:48.3,140
25:48.3,-32000
25:48.3,0
25:48.3,135
25:48.3,-32000
25:48.3,0
25:48.3,126
25:48.3,31488
25:48.3,0
25:48.3,119
25:48.3,29696
25:48.3,0
25:48.3,121
25:48.3,30976
25:48.3,0
25:48.3,107
25:48.3,23040
25:48.3,0
25:48.3,73
25:48.3,15616
25:48.3,0
25:48.3,64
25:48.3,17664
25:48.3,0
25:48.3,61
25:48.3,12032
25:48.3,0
25:48.3,33
25:48.3,8448
25:48.3,0
25:48.3,57
25:48.3,-16896
25:48.3,0
25:48.3,474
25:48.3,4352
25:48.3,2
25:48.3,-121
25:48.3,30207
25:48.3,-5
25:48.3,-1642
25:48.3,-26113
25:48.3,-5
25:48.3,-360
25:48.3,-6913
25:48.3,-1
25:48.3,100
25:48.3,-7168
25:48.3,0
25:48.3,224
25:48.3,-20480
25:48.3,0
25:48.3,197
25:48.3,-13056
25:48.3,0
25:48.3,176
25:48.3,-20480
25:48.3,0
25:48.3,185
25:48.3,-20992
25:48.3,0
25:48.3,169
25:48.3,-22272
25:48.3,0
25:48.3,150
25:48.3,-29696
25:48.3,0
25:48.3,147
25:48.3,-32768
25:48.3,0
25:48.3,100
25:48.3,23552
25:48.3,0
25:48.3,95
25:48.3,23040
25:48.3,0
25:48.3,83
25:48.3,23040
25:48.3,0
25:48.3,107
25:48.3,29184
25:48.3,0
25:48.3,121
25:48.3,30976
25:48.3,0
25:48.3,109
25:48.3,26624
25:48.3,0
25:48.3,109
25:48.3,26112
25:48.3,0
25:48.3,95
25:48.3,26624
25:48.3,0
25:48.3,97
25:48.3,23040
25:48.3,0
25:48.3,97
25:48.8,88
25:48.8,19968
25:48.8,0
25:48.8,83
25:48.8,21248
25:48.8,0
25:48.8,78
25:48.8,20736
25:48.8,0
25:48.8,81
25:48.8,20736
25:48.8,0
25:48.8,71
25:48.8,13824
25:48.8,0
25:48.8,42
25:48.8,11520
25:48.8,0
25:48.8,66
25:48.8,18688
25:48.8,0
25:48.8,54
25:48.8,10752
25:48.8,0
25:48.8,40
25:48.8,8960
25:48.8,0
25:48.8,114
25:48.8,32512
25:48.8,1
25:48.8,619
25:48.8,8704
25:48.8,1
25:48.8,-672
25:48.8,9727
25:48.8,-6
25:48.8,-1361
25:48.8,-16897
25:48.8,-3
25:48.8,-109
25:48.8,255
25:48.8,0
25:48.8,147
25:48.8,-7168
25:48.8,0
25:48.8,188
25:48.8,-18688
25:48.8,0
25:48.8,190
25:48.8,-20992
25:48.8,0
25:48.8,171
25:48.8,-20480
25:48.8,0
25:48.8,169
25:48.8,-26112
25:48.8,0
25:48.8,150
25:48.8,-24832
25:48.8,0
25:48.8,152
25:48.8,-32000
25:48.8,0
25:48.8,119
25:48.8,27904
25:48.8,0
25:48.8,90
25:48.8,20736
25:48.8,0
25:48.8,69
25:48.8,14592
25:48.8,0
25:48.8,69
25:48.8,22528
25:48.8,0
25:48.8,92
25:48.8,25600
25:48.8,0
25:48.8,114
25:48.8,31488
25:48.8,0
25:48.8,123
25:48.8,27904
25:48.8,0
25:48.8,102
25:48.8,29696
25:48.8,0
25:48.8,123
25:48.8,27392
25:48.8,0
25:48.8,92
25:48.8,24832
25:48.8,0
25:48.8,92
25:48.8,22528
25:48.8,0
25:48.8,90
25:48.8,18688
25:48.8,0
25:48.8,78
25:48.8,27392
25:48.8,0
25:48.8,92
25:48.8,15616
25:48.8,0
25:48.8,66
25:48.8,16896
25:48.8,0
25:48.8,52
25:49.4,45
25:49.4,13312
25:49.4,0
25:49.4,50
25:49.4,8448
25:49.4,0
25:49.4,52
25:49.4,17664
25:49.4,0
25:49.4,61
25:49.4,-10240
25:49.4,0
25:49.4,538
25:49.4,14592
25:49.4,2
25:49.4,-107
25:49.4,-30465
25:49.4,-5
25:49.4,-1580
25:49.4,767
25:49.4,-4
25:49.4,-269
25:49.4,-257
25:49.4,-1
25:49.4,81
25:49.4,-12032
25:49.4,0
25:49.4,231
25:49.4,-16128
25:49.4,0
25:49.4,197
25:49.4,-12544
25:49.4,0
25:49.4,197
25:49.4,-16128
25:49.4,0
25:49.4,190
25:49.4,-20992
25:49.4,0
25:49.4,169
25:49.4,-23040
25:49.4,0
25:49.4,147
25:49.4,-28928
25:49.4,0
25:49.4,150
25:49.4,-29696
25:49.4,0
25:49.4,123
25:49.4,26112
25:49.4,0
25:49.4,88
25:49.4,23040
25:49.4,0
25:49.4,78
25:49.4,17664
25:49.4,0
25:49.4,90
25:49.4,29696
25:49.4,0
25:49.4,126
25:49.4,31488
25:49.4,0
25:49.4,123
25:49.4,-30976
25:49.4,0
25:49.4,128
25:49.4,29696
25:49.4,0
25:49.4,119
25:49.4,27904
25:49.4,0
25:49.4,107
25:49.4,29696
25:49.4,0
25:49.4,102
25:49.4,21760
25:49.4,0
25:49.4,90
25:49.4,24320
25:49.4,0
25:49.4,92
25:49.4,24832
25:49.4,0
25:49.4,107
25:49.4,23552
25:49.4,0
25:49.4,61
25:49.4,13824
25:49.4,0
25:49.4,50
25:49.4,12800
25:49.4,0
25:49.4,64
25:49.4,12800
25:49.4,0
25:49.4,28
25:49.4,8448
25:49.4,0
25:49.4,40
25:49.4,15104
25:49.4,0
25:49.4,202
25:49.4,-3072
25:49.4,1
25:49.4,529
25:49.4,15616
25:49.4,-1
25:49.4,-1292
25:50.0,-1695
25:50.0,-11521
25:50.0,-5
25:50.0,-300
25:50.0,-1537
25:50.0,-1
25:50.0,100
25:50.0,-11264
25:50.0,0
25:50.0,231
25:50.0,-13824
25:50.0,0
25:50.0,207
25:50.0,-8192
25:50.0,0
25:50.0,228
25:50.0,-10240
25:50.0,0
25:50.0,197
25:50.0,-15616
25:50.0,0
25:50.0,193
25:50.0,-19200
25:50.0,0
25:50.0,171
25:50.0,-20480
25:50.0,0
25:50.0,169
25:50.0,-29696
25:50.0,0
25:50.0,123
25:50.0,29184
25:50.0,0
25:50.0,104
25:50.0,27904
25:50.0,0
25:50.0,119
25:50.0,30976
25:50.0,0
25:50.0,121
25:50.0,32256
25:50.0,0
25:50.0,140
25:50.0,-30208
25:50.0,0
25:50.0,126
25:50.0,32256
25:50.0,0
25:50.0,123
25:50.0,30976
25:50.0,0
25:50.0,116
25:50.0,30464
25:50.0,0
25:50.0,116
25:50.0,24832
25:50.0,0
25:50.0,100
25:50.0,26624
25:50.0,0
25:50.0,83
25:50.0,20736
25:50.0,0
25:50.0,100
25:50.0,26112
25:50.0,0
25:50.0,92
25:50.0,23552
25:50.0,0
25:50.0,90
25:50.0,18176
25:50.0,0
25:50.0,54
25:50.0,11520
25:50.0,0
25:50.0,40
25:50.0,10752
25:50.0,0
25:50.0,42
25:50.0,10752
25:50.0,0
25:50.0,38
25:50.0,15616
25:50.0,0
25:50.0,224
25:50.0,-512
25:50.0,1
25:50.0,484
25:50.0,5888
25:50.0,-1
25:50.0,-1251
25:50.0,-23297
25:50.0,-7
25:50.0,-1044
25:50.0,-9729
25:50.0,-2
25:50.0,9
25:50.0,-30208
25:50.0,0
25:50.0,240
25:50.0,-8960
25:50.0,0
25:50.0,195
25:50.0,-10240
25:50.0,0
25:50.0,209
25:50.0,-16128
25:50.0,0
25:50.0,193
25:50.6,185
25:50.6,-19200
25:50.6,0
25:50.6,178
25:50.6,-22272
25:50.6,0
25:50.6,169
25:50.6,-24832
25:50.6,0
25:50.6,140
25:50.6,-32000
25:50.6,0
25:50.6,116
25:50.6,25600
25:50.6,0
25:50.6,92
25:50.6,23552
25:50.6,0
25:50.6,102
25:50.6,29184
25:50.6,0
25:50.6,135
25:50.6,-24832
25:50.6,0
25:50.6,162
25:50.6,-26112
25:50.6,0
25:50.6,154
25:50.6,-28416
25:50.6,0
25:50.6,133
25:50.6,-30976
25:50.6,0
25:50.6,143
25:50.6,-30208
25:50.6,0
25:50.6,128
25:50.6,-30976
25:50.6,0
25:50.6,133
25:50.6,27392
25:50.6,0
25:50.6,97
25:50.6,24320
25:50.6,0
25:50.6,90
25:50.6,27904
25:50.6,0
25:50.6,119
25:50.6,26624
25:50.6,0
25:50.6,97
25:50.6,24832
25:50.6,0
25:50.6,76
25:50.6,13824
25:50.6,0
25:50.6,52
25:50.6,13312
25:50.6,0
25:50.6,57
25:50.6,13312
25:50.6,0
25:50.6,42
25:50.6,12800
25:50.6,0
25:50.6,61
25:50.6,-21760
25:50.6,0
25:50.6,453
25:50.6,12800
25:50.6,2
25:50.6,0
25:50.6,-2048
25:50.6,-5
25:50.6,-1609
25:50.6,24575
25:50.6,-5
25:50.6,-395
25:50.6,-6401
25:50.6,-1
25:50.6,90
25:50.6,-9472
25:50.6,0
25:50.6,238
25:50.6,-14336
25:50.6,0
25:50.6,207
25:50.6,-12032
25:50.6,0
25:50.6,185
25:50.6,-20480
25:50.6,0
25:50.6,183
25:50.6,-20480
25:50.6,0
25:50.6,166
25:50.6,-24064
25:50.6,0
25:50.6,159
25:50.6,-26624
25:50.6,0
25:50.6,131
25:50.6,30464
25:50.6,0
25:50.6,116
25:50.6,25600
25:50.6,0
25:50.6,85
25:51.1,83
25:51.1,22528
25:51.1,0
25:51.1,100
25:51.1,27904
25:51.1,0
25:51.1,116
25:51.1,-32768
25:51.1,0
25:51.1,128
25:51.1,29696
25:51.1,0
25:51.1,116
25:51.1,31488
25:51.1,0
25:51.1,119
25:51.1,30464
25:51.1,0
25:51.1,128
25:51.1,-31488
25:51.1,0
25:51.1,135
25:51.1,31488
25:51.1,0
25:51.1,104
25:51.1,27904
25:51.1,0
25:51.1,116
25:51.1,29184
25:51.1,0
25:51.1,114
25:51.1,28672
25:51.1,0
25:51.1,102
25:51.1,20736
25:51.1,0
25:51.1,66
25:51.1,15616
25:51.1,0
25:51.1,57
25:51.1,14592
25:51.1,0
25:51.1,59
25:51.1,12800
25:51.1,0
25:51.1,30
25:51.1,5376
25:51.1,0
25:51.1,38
25:51.1,-32768
25:51.1,0
25:51.1,383
25:51.1,14592
25:51.1,2
25:51.1,135
25:51.1,32256
25:51.1,-4
25:51.1,-1647
25:51.1,-20993
25:51.1,-6
25:51.1,-522
25:51.1,-15361
25:51.1,-1
25:51.1,59
25:51.1,-14336
25:51.1,0
25:51.1,243
25:51.1,-16128
25:51.1,0
25:51.1,202
25:51.1,-10752
25:51.1,0
25:51.1,185
25:51.1,-19968
25:51.1,0
25:51.1,183
25:51.1,-21760
25:51.1,0
25:51.1,166
25:51.1,-24064
25:51.1,0
25:51.1,152
25:51.1,-27136
25:51.1,0
25:51.1,145
25:51.1,31488
25:51.1,0
25:51.1,114
25:51.1,27392
25:51.1,0
25:51.1,88
25:51.1,20736
25:51.1,0
25:51.1,88
25:51.1,23552
25:51.1,0
25:51.1,102
25:51.1,27392
25:51.1,0
25:51.1,100
25:51.1,27392
25:51.1,0
25:51.1,119
25:51.1,26112
25:51.1,0
25:51.1,83
25:51.1,23552
25:51.1,0
25:51.1,102
25:51.9,97
25:51.9,24832
25:51.9,0
25:51.9,100
25:51.9,25600
25:51.9,0
25:51.9,90
25:51.9,21248
25:51.9,0
25:51.9,83
25:51.9,23552
25:51.9,0
25:51.9,97
25:51.9,24320
25:51.9,0
25:51.9,92
25:51.9,24320
25:51.9,0
25:51.9,90
25:51.9,16896
25:51.9,0
25:51.9,59
25:51.9,16384
25:51.9,0
25:51.9,61
25:51.9,14592
25:51.9,0
25:51.9,52
25:51.9,10752
25:51.9,0
25:51.9,54
25:51.9,-16896
25:51.9,0
25:51.9,488
25:51.9,19456
25:51.9,2
25:51.9,-4
25:51.9,-12033
25:51.9,-5
25:51.9,-1609
25:51.9,-17665
25:51.9,-5
25:51.9,-314
25:51.9,-6401
25:51.9,-1
25:51.9,69
25:51.9,-10240
25:51.9,0
25:51.9,238
25:51.9,-16896
25:51.9,0
25:51.9,200
25:51.9,-11264
25:51.9,0
25:51.9,195
25:51.9,-18688
25:51.9,0
25:51.9,178
25:51.9,-20480
25:51.9,0
25:51.9,169
25:51.9,-24832
25:51.9,0
25:51.9,154
25:51.9,-26624
25:51.9,0
25:51.9,140
25:51.9,32256
25:51.9,0
25:51.9,116
25:51.9,27904
25:51.9,0
25:51.9,102
25:51.9,23552
25:51.9,0
25:51.9,83
25:51.9,21248
25:51.9,0
25:51.9,92
25:51.9,27904
25:51.9,0
25:51.9,119
25:51.9,29696
25:51.9,0
25:51.9,114
25:51.9,30464
25:51.9,0
25:51.9,121
25:51.9,29184
25:51.9,0
25:51.9,107
25:51.9,27392
25:51.9,0
25:51.9,102
25:51.9,23552
25:51.9,0
25:51.9,90
25:51.9,23040
25:51.9,0
25:51.9,97
25:51.9,27392
25:51.9,0
25:51.9,107
25:51.9,26624
25:51.9,0
25:51.9,97
25:51.9,21760
25:51.9,0
25:51.9,71
25:52.3,57
25:52.3,14592
25:52.3,0
25:52.3,61
25:52.3,13312
25:52.3,0
25:52.3,30
25:52.3,7168
25:52.3,0
25:52.3,35
25:52.3,13312
25:52.3,0
25:52.3,197
25:52.3,-3072
25:52.3,1
25:52.3,557
25:52.3,-29184
25:52.3,-1
25:52.3,-1199
25:52.3,-30721
25:52.3,-7
25:52.3,-1070
25:52.3,-9217
25:52.3,-2
25:52.3,-16
25:52.3,26367
25:52.3,0
25:52.3,233
25:52.3,-8960
25:52.3,0
25:52.3,190
25:52.3,-9472
25:52.3,0
25:52.3,216
25:52.3,-16128
25:52.3,0
25:52.3,200
25:52.3,-13824
25:52.3,0
25:52.3,185
25:52.3,-19968
25:52.3,0
25:52.3,181
25:52.3,-19968
25:52.3,0
25:52.3,169
25:52.3,-24064
25:52.3,0
25:52.3,152
25:52.3,32256
25:52.3,0
25:52.3,109
25:52.3,28672
25:52.3,0
25:52.3,109
25:52.3,25600
25:52.3,0
25:52.3,100
25:52.3,27904
25:52.3,0
25:52.3,121
25:52.3,-32768
25:52.3,0
25:52.3,133
25:52.3,-30976
25:52.3,0
25:52.3,128
25:52.3,30976
25:52.3,0
25:52.3,126
25:52.3,30464
25:52.3,0
25:52.3,109
25:52.3,27904
25:52.3,0
25:52.3,107
25:52.3,26112
25:52.3,0
25:52.3,102
25:52.3,27904
25:52.3,0
25:52.3,112
25:52.3,27904
25:52.3,0
25:52.3,104
25:52.3,22528
25:52.3,0
25:52.3,73
25:52.3,16384
25:52.3,0
25:52.3,57
25:52.3,15104
25:52.3,0
25:52.3,59
25:52.3,12032
25:52.3,0
25:52.3,42
25:52.3,11520
25:52.3,0
25:52.3,42
25:52.3,21760
25:52.3,0
25:52.3,314
25:52.3,17664
25:52.3,2
25:52.3,338
25:52.3,-25088
25:52.3,-3
25:52.3,-1542
25:52.8,-1528
25:52.8,9471
25:52.8,-3
25:52.8,-140
25:52.8,10495
25:52.8,0
25:52.8,181
25:52.8,256
25:52.8,1
25:52.8,207
25:52.8,-18176
25:52.8,0
25:52.8,219
25:52.8,-9472
25:52.8,0
25:52.8,188
25:52.8,-18688
25:52.8,0
25:52.8,188
25:52.8,-19968
25:52.8,0
25:52.8,183
25:52.8,-14336
25:52.8,0
25:52.8,195
25:52.8,-23040
25:52.8,0
25:52.8,157
25:52.8,-24064
25:52.8,0
25:52.8,147
25:52.8,-30976
25:52.8,0
25:52.8,135
25:52.8,31488
25:52.8,0
25:52.8,112
25:52.8,29696
25:52.8,0
25:52.8,123
25:52.8,-32768
25:52.8,0
25:52.8,131
25:52.8,32256
25:52.8,0
25:52.8,121
25:52.8,30464
25:52.8,0
25:52.8,116
25:52.8,28672
25:52.8,0
25:52.8,112
25:52.8,29696
25:52.8,0
25:52.8,114
25:52.8,24832
25:52.8,0
25:52.8,88
25:52.8,25600
25:52.8,0
25:52.8,112
25:52.8,27392
25:52.8,0
25:52.8,100
25:52.8,24320
25:52.8,0
25:52.8,81
25:52.8,16384
25:52.8,0
25:52.8,54
25:52.8,13824
25:52.8,0
25:52.8,54
25:52.8,12032
25:52.8,0
25:52.8,40
25:52.8,9728
25:52.8,0
25:52.8,40
25:52.8,13312
25:52.8,0
25:52.8,166
25:52.8,-18944
25:52.8,1
25:52.8,541
25:52.8,-2816
25:52.8,-1
25:52.8,-1039
25:52.8,-20225
25:52.8,-7
25:52.8,-1185
25:52.8,31231
25:52.8,-2
25:52.8,-21
25:52.8,25087
25:52.8,0
25:52.8,231
25:52.8,-4096
25:52.8,0
25:52.8,193
25:52.8,-12032
25:52.8,0
25:52.8,219
25:52.8,-17408
25:52.8,0
25:52.8,178
25:52.8,-18176
25:52.8,0
25:52.8,178
25:53.4,169
25:53.4,-20480
25:53.4,0
25:53.4,176
25:53.4,-25344
25:53.4,0
25:53.4,150
25:53.4,-28416
25:53.4,0
25:53.4,116
25:53.4,29696
25:53.4,0
25:53.4,133
25:53.4,29184
25:53.4,0
25:53.4,104
25:53.4,30464
25:53.4,0
25:53.4,128
25:53.4,-30976
25:53.4,0
25:53.4,143
25:53.4,-29696
25:53.4,0
25:53.4,133
25:53.4,-31488
25:53.4,0
25:53.4,135
25:53.4,-32768
25:53.4,0
25:53.4,119
25:53.4,30464
25:53.4,0
25:53.4,119
25:53.4,26624
25:53.4,0
25:53.4,97
25:53.4,25600
25:53.4,0
25:53.4,104
25:53.4,29184
25:53.4,0
25:53.4,114
25:53.4,26624
25:53.4,0
25:53.4,90
25:53.4,18688
25:53.4,0
25:53.4,64
25:53.4,15104
25:53.4,0
25:53.4,64
25:53.4,17664
25:53.4,0
25:53.4,54
25:53.4,9728
25:53.4,0
25:53.4,40
25:53.4,10752
25:53.4,0
25:53.4,54
25:53.4,-14336
25:53.4,0
25:53.4,493
25:53.4,-5376
25:53.4,1
25:53.4,-209
25:53.4,17407
25:53.4,-5
25:53.4,-1576
25:53.4,7423
25:53.4,-4
25:53.4,-267
25:53.4,3839
25:53.4,0
25:53.4,128
25:53.4,-5888
25:53.4,0
25:53.4,221
25:53.4,-16896
25:53.4,0
25:53.4,209
25:53.4,-13056
25:53.4,0
25:53.4,183
25:53.4,-18176
25:53.4,0
25:53.4,185
25:53.4,-20992
25:53.4,0
25:53.4,164
25:53.4,-24064
25:53.4,0
25:53.4,157
25:53.4,-27136
25:53.4,0
25:53.4,143
25:53.4,-31488
25:53.4,0
25:53.4,116
25:53.4,24832
25:53.4,0
25:53.4,90
25:53.4,24320
25:53.4,0
25:53.4,100
25:53.4,26112
25:53.4,0
25:53.4,107
25:53.9,114
25:53.9,30976
25:53.9,0
25:53.9,116
25:53.9,29184
25:53.9,0
25:53.9,114
25:53.9,26624
25:53.9,0
25:53.9,92
25:53.9,23040
25:53.9,0
25:53.9,97
25:53.9,24832
25:53.9,0
25:53.9,90
25:53.9,22528
25:53.9,0
25:53.9,92
25:53.9,26624
25:53.9,0
25:53.9,116
25:53.9,27904
25:53.9,0
25:53.9,97
25:53.9,23040
25:53.9,0
25:53.9,78
25:53.9,15616
25:53.9,0
25:53.9,57
25:53.9,17664
25:53.9,0
25:53.9,69
25:53.9,14592
25:53.9,0
25:53.9,47
25:53.9,7168
25:53.9,0
25:53.9,30
25:53.9,26112
25:53.9,0
25:53.9,321
25:53.9,13568
25:53.9,2
25:53.9,321
25:53.9,-23296
25:53.9,-3
25:53.9,-1495
25:53.9,24319
25:53.9,-6
25:53.9,-643
25:53.9,-25345
25:53.9,-1
25:53.9,21
25:53.9,-24064
25:53.9,0
25:53.9,255
25:53.9,-13824
25:53.9,0
25:53.9,188
25:53.9,-12032
25:53.9,0
25:53.9,195
25:53.9,-19968
25:53.9,0
25:53.9,185
25:53.9,-19200
25:53.9,0
25:53.9,159
25:53.9,-24832
25:53.9,0
25:53.9,171
25:53.9,-25344
25:53.9,0
25:53.9,138
25:53.9,32256
25:53.9,0
25:53.9,112
25:53.9,26112
25:53.9,0
25:53.9,97
25:53.9,21248
25:53.9,0
25:53.9,92
25:53.9,27392
25:53.9,0
25:53.9,102
25:53.9,26112
25:53.9,0
25:53.9,116
25:53.9,-32000
25:53.9,0
25:53.9,128
25:53.9,28672
25:53.9,0
25:53.9,109
25:53.9,30976
25:53.9,0
25:53.9,114
25:53.9,24832
25:53.9,0
25:53.9,104
25:53.9,27392
25:53.9,0
25:53.9,81
25:53.9,20736
25:53.9,0
25:53.9,95
25:54.5,95
25:54.5,25600
25:54.5,0
25:54.5,97
25:54.5,20736
25:54.5,0
25:54.5,71
25:54.5,15104
25:54.5,0
25:54.5,52
25:54.5,13312
25:54.5,0
25:54.5,54
25:54.5,11520
25:54.5,0
25:54.5,40
25:54.5,13312
25:54.5,0
25:54.5,54
25:54.5,18688
25:54.5,0
25:54.5,252
25:54.5,12288
25:54.5,2
25:54.5,538
25:54.5,12032
25:54.5,-1
25:54.5,-1251
25:54.5,-9217
25:54.5,-7
25:54.5,-903
25:54.5,17151
25:54.5,-1
25:54.5,0
25:54.5,24320
25:54.5,0
25:54.5,238
25:54.5,-10240
25:54.5,0
25:54.5,176
25:54.5,-13056
25:54.5,0
25:54.5,202
25:54.5,-16896
25:54.5,0
25:54.5,197
25:54.5,-15104
25:54.5,0
25:54.5,183
25:54.5,-22272
25:54.5,0
25:54.5,174
25:54.5,-20992
25:54.5,0
25:54.5,164
25:54.5,-23552
25:54.5,0
25:54.5,147
25:54.5,30976
25:54.5,0
25:54.5,107
25:54.5,24320
25:54.5,0
25:54.5,92
25:54.5,24832
25:54.5,0
25:54.5,97
25:54.5,27392
25:54.5,0
25:54.5,126
25:54.5,-30976
25:54.5,0
25:54.5,133
25:54.5,-28928
25:54.5,0
25:54.5,145
25:54.5,32256
25:54.5,0
25:54.5,114
25:54.5,31488
25:54.5,0
25:54.5,114
25:54.5,24320
25:54.5,0
25:54.5,95
25:54.5,24320
25:54.5,0
25:54.5,95
25:54.5,28672
25:54.5,0
25:54.5,109
25:54.5,24832
25:54.5,0
25:54.5,95
25:54.5,19968
25:54.5,0
25:54.5,57
25:54.5,14592
25:54.5,0
25:54.5,54
25:54.5,10752
25:54.5,0
25:54.5,57
25:54.5,15616
25:54.5,0
25:54.5,30
25:54.5,4864
25:54.5,0
25:54.5,47
25:55.1,169
25:55.1,-16384
25:55.1,1
25:55.1,550
25:55.1,-11520
25:55.1,-1
25:55.1,-1130
25:55.1,31231
25:55.1,-7
25:55.1,-1156
25:55.1,-25089
25:55.1,-2
25:55.1,-23
25:55.1,26879
25:55.1,0
25:55.1,257
25:55.1,1536
25:55.1,1
25:55.1,216
25:55.1,-5120
25:55.1,0
25:55.1,231
25:55.1,-12032
25:55.1,0
25:55.1,219
25:55.1,-10752
25:55.1,0
25:55.1,190
25:55.1,-18688
25:55.1,0
25:55.1,195
25:55.1,-15616
25:55.1,0
25:55.1,178
25:55.1,-21760
25:55.1,0
25:55.1,174
25:55.1,-24064
25:55.1,0
25:55.1,138
25:55.1,32256
25:55.1,0
25:55.1,123
25:55.1,30976
25:55.1,0
25:55.1,123
25:55.1,-30976
25:55.1,0
25:55.1,138
25:55.1,-32768
25:55.1,0
25:55.1,131
25:55.1,-30976
25:55.1,0
25:55.1,131
25:55.1,-32768
25:55.1,0
25:55.1,123
25:55.1,29696
25:55.1,0
25:55.1,116
25:55.1,30464
25:55.1,0
25:55.1,114
25:55.1,27392
25:55.1,0
25:55.1,112
25:55.1,30464
25:55.1,0
25:55.1,112
25:55.1,26112
25:55.1,0
25:55.1,95
25:55.1,18688
25:55.1,0
25:55.1,52
25:55.1,12800
25:55.1,0
25:55.1,52
25:55.1,13312
25:55.1,0
25:55.1,54
25:55.1,12032
25:55.1,0
25:55.1,42
25:55.1,10752
25:55.1,0
25:55.1,83
25:55.1,9472
25:55.1,1
25:55.1,550
25:55.1,17920
25:55.1,1
25:55.1,-581
25:55.1,8959
25:55.1,-6
25:55.1,-1530
25:55.1,3583
25:55.1,-3
25:55.1,-135
25:55.1,11775
25:55.1,0
25:55.1,166
25:55.1,-2816
25:55.1,0
25:55.1,212
25:55.1,-13824
25:55.1,0
25:55.1,226
25:55.6,212
25:55.6,-15616
25:55.6,0
25:55.6,195
25:55.6,-16896
25:55.6,0
25:55.6,181
25:55.6,-19200
25:55.6,0
25:55.6,176
25:55.6,-22272
25:55.6,0
25:55.6,162
25:55.6,-26624
25:55.6,0
25:55.6,140
25:55.6,-31488
25:55.6,0
25:55.6,121
25:55.6,29696
25:55.6,0
25:55.6,126
25:55.6,-28928
25:55.6,0
25:55.6,152
25:55.6,-26112
25:55.6,0
25:55.6,159
25:55.6,-24832
25:55.6,0
25:55.6,150
25:55.6,-28928
25:55.6,0
25:55.6,143
25:55.6,-30208
25:55.6,0
25:55.6,138
25:55.6,-30208
25:55.6,0
25:55.6,131
25:55.6,31488
25:55.6,0
25:55.6,123
25:55.6,-32000
25:55.6,0
25:55.6,135
25:55.6,-32768
25:55.6,0
25:55.6,121
25:55.6,27904
25:55.6,0
25:55.6,97
25:55.6,21760
25:55.6,0
25:55.6,69
25:55.6,16384
25:55.6,0
25:55.6,66
25:55.6,17664
25:55.6,0
25:55.6,59
25:55.6,13312
25:55.6,0
25:55.6,47
25:55.6,13312
25:55.6,0
25:55.6,145
25:55.6,-28160
25:55.6,1
25:55.6,548
25:55.6,19456
25:55.6,0
25:55.6,-927
25:55.6,-13569
25:55.6,-7
25:55.6,-1261
25:55.6,16127
25:55.6,-2
25:55.6,-30
25:55.6,18943
25:55.6,0
25:55.6,197
25:55.6,-4096
25:55.6,0
25:55.6,200
25:55.6,-14336
25:55.6,0
25:55.6,205
25:55.6,-15104
25:55.6,0
25:55.6,197
25:55.6,-16896
25:55.6,0
25:55.6,181
25:55.6,-20480
25:55.6,0
25:55.6,174
25:55.6,-22272
25:55.6,0
25:55.6,166
25:55.6,-24832
25:55.6,0
25:55.6,145
25:55.6,-32768
25:55.6,0
25:55.6,119
25:55.6,29184
25:55.6,0
25:55.6,107
25:56.2,104
25:56.2,27904
25:56.2,0
25:56.2,119
25:56.2,-31488
25:56.2,0
25:56.2,128
25:56.2,28672
25:56.2,0
25:56.2,121
25:56.2,-30208
25:56.2,0
25:56.2,135
25:56.2,-31488
25:56.2,0
25:56.2,138
25:56.2,-30208
25:56.2,0
25:56.2,116
25:56.2,23552
25:56.2,0
25:56.2,97
25:56.2,28672
25:56.2,0
25:56.2,116
25:56.2,27904
25:56.2,0
25:56.2,102
25:56.2,26624
25:56.2,0
25:56.2,100
25:56.2,18688
25:56.2,0
25:56.2,47
25:56.2,11520
25:56.2,0
25:56.2,47
25:56.2,12032
25:56.2,0
25:56.2,40
25:56.2,8448
25:56.2,0
25:56.2,30
25:56.2,8960
25:56.2,0
25:56.2,131
25:56.2,-28160
25:56.2,1
25:56.2,555
25:56.2,12800
25:56.2,0
25:56.2,-1001
25:56.2,-30721
25:56.2,-7
25:56.2,-1256
25:56.2,20991
25:56.2,-2
25:56.2,-45
25:56.2,17919
25:56.2,0
25:56.2,202
25:56.2,-10752
25:56.2,0
25:56.2,162
25:56.2,-17408
25:56.2,0
25:56.2,214
25:56.2,-23040
25:56.2,0
25:56.2,145
25:56.2,-19200
25:56.2,0
25:56.2,171
25:56.2,-26112
25:56.2,0
25:56.2,174
25:56.2,-20992
25:56.2,0
25:56.2,147
25:56.2,-30208
25:56.2,0
25:56.2,143
25:56.2,-30976
25:56.2,0
25:56.2,114
25:56.2,26624
25:56.2,0
25:56.2,107
25:56.2,27904
25:56.2,0
25:56.2,107
25:56.2,27904
25:56.2,0
25:56.2,112
25:56.2,27904
25:56.2,0
25:56.2,102
25:56.2,26112
25:56.2,0
25:56.2,112
25:56.2,25600
25:56.2,0
25:56.2,88
25:56.2,26112
25:56.2,0
25:56.2,109
25:56.2,22528
25:56.2,0
25:56.2,78
25:56.7,78
25:56.7,19456
25:56.7,0
25:56.7,83
25:56.7,24832
25:56.7,0
25:56.7,100
25:56.7,23040
25:56.7,0
25:56.7,71
25:56.7,13312
25:56.7,0
25:56.7,42
25:56.7,12032
25:56.7,0
25:56.7,54
25:56.7,12032
25:56.7,0
25:56.7,42
25:56.7,10752
25:56.7,0
25:56.7,42
25:56.7,17664
25:56.7,0
25:56.7,233
25:56.7,2560
25:56.7,2
25:56.7,534
25:56.7,26112
25:56.7,-1
25:56.7,-1189
25:56.7,-3073
25:56.7,-7
25:56.7,-918
25:56.7,9215
25:56.7,-1
25:56.7,-35
25:56.7,16639
25:56.7,0
25:56.7,219
25:56.7,-11264
25:56.7,0
25:56.7,159
25:56.7,-18176
25:56.7,0
25:56.7,193
25:56.7,-23040
25:56.7,0
25:56.7,164
25:56.7,-23040
25:56.7,0
25:56.7,162
25:56.7,-23552
25:56.7,0
25:56.7,159
25:56.7,-26112
25:56.7,0
25:56.7,154
25:56.7,-28928
25:56.7,0
25:56.7,123
25:56.7,29184
25:56.7,0
25:56.7,104
25:56.7,23552
25:56.7,0
25:56.7,88
25:56.7,24320
25:56.7,0
25:56.7,97
25:56.7,24832
25:56.7,0
25:56.7,109
25:56.7,-32768
25:56.7,0
25:56.7,138
25:56.7,-32768
25:56.7,0
25:56.7,119
25:56.7,31488
25:56.7,0
25:56.7,112
25:56.7,25600
25:56.7,0
25:56.7,107
25:56.7,27392
25:56.7,0
25:56.7,102
25:56.7,25600
25:56.7,0
25:56.7,92
25:56.7,22528
25:56.7,0
25:56.7,100
25:56.7,25600
25:56.7,0
25:56.7,76
25:56.7,14592
25:56.7,0
25:56.7,57
25:56.7,13824
25:56.7,0
25:56.7,38
25:56.7,9728
25:56.7,0
25:56.7,50
25:56.7,10752
25:56.7,0
25:56.7,33
25:57.3,40
25:57.3,-32000
25:57.3,0
25:57.3,400
25:57.3,19456
25:57.3,2
25:57.3,159
25:57.3,-24832
25:57.3,-4
25:57.3,-1619
25:57.3,-12033
25:57.3,-6
25:57.3,-484
25:57.3,-11265
25:57.3,-1
25:57.3,64
25:57.3,-10240
25:57.3,0
25:57.3,264
25:57.3,-12544
25:57.3,0
25:57.3,205
25:57.3,-8960
25:57.3,0
25:57.3,216
25:57.3,-12032
25:57.3,0
25:57.3,185
25:57.3,-20992
25:57.3,0
25:57.3,188
25:57.3,-16896
25:57.3,0
25:57.3,178
25:57.3,-21760
25:57.3,0
25:57.3,171
25:57.3,-25344
25:57.3,0
25:57.3,138
25:57.3,-31488
25:57.3,0
25:57.3,128
25:57.3,29184
25:57.3,0
25:57.3,112
25:57.3,29184
25:57.3,0
25:57.3,121
25:57.3,-32000
25:57.3,0
25:57.3,138
25:57.3,-30208
25:57.3,0
25:57.3,133
25:57.3,-32768
25:57.3,0
25:57.3,126
25:57.3,32256
25:57.3,0
25:57.3,121
25:57.3,30464
25:57.3,0
25:57.3,114
25:57.3,27392
25:57.3,0
25:57.3,107
25:57.3,27392
25:57.3,0
25:57.3,95
25:57.3,24832
25:57.3,0
25:57.3,104
25:57.3,24832
25:57.3,0
25:57.3,85
25:57.3,17664
25:57.3,0
25:57.3,50
25:57.3,12032
25:57.3,0
25:57.3,57
25:57.3,13312
25:57.3,0
25:57.3,35
25:57.3,7680
25:57.3,0
25:57.3,30
25:57.3,8960
25:57.3,0
25:57.3,131
25:57.3,-27392
25:57.3,1
25:57.3,577
25:57.3,28672
25:57.3,0
25:57.3,-922
25:57.3,-26881
25:57.3,-7
25:57.3,-1340
25:57.3,767
25:57.3,-2
25:57.3,-54
25:57.3,19711
25:57.3,0
25:57.3,216
25:57.3,-1536
25:57.3,0
25:57.3,195
25:57.8,197
25:57.8,-10752
25:57.8,0
25:57.8,202
25:57.8,-18176
25:57.8,0
25:57.8,181
25:57.8,-18176
25:57.8,0
25:57.8,171
25:57.8,-22272
25:57.8,0
25:57.8,193
25:57.8,-14336
25:57.8,0
25:57.8,185
25:57.8,-20480
25:57.8,0
25:57.8,164
25:57.8,-26624
25:57.8,0
25:57.8,140
25:57.8,-30208
25:57.8,0
25:57.8,135
25:57.8,-30976
25:57.8,0
25:57.8,140
25:57.8,-27904
25:57.8,0
25:57.8,147
25:57.8,-28928
25:57.8,0
25:57.8,140
25:57.8,-31488
25:57.8,0
25:57.8,126
25:57.8,-32768
25:57.8,0
25:57.8,133
25:57.8,30976
25:57.8,0
25:57.8,119
25:57.8,32256
25:57.8,0
25:57.8,107
25:57.8,26112
25:57.8,0
25:57.8,119
25:57.8,29696
25:57.8,0
25:57.8,112
25:57.8,27904
25:57.8,0
25:57.8,95
25:57.8,17664
25:57.8,0
25:57.8,57
25:57.8,13824
25:57.8,0
25:57.8,54
25:57.8,15104
25:57.8,0
25:57.8,54
25:57.8,10240
25:57.8,0
25:57.8,38
25:57.8,10752
25:57.8,0
25:57.8,131
25:57.8,-29184
25:57.8,1
25:57.8,560
25:57.8,23040
25:57.8,0
25:57.8,-922
25:57.8,-16641
25:57.8,-7
25:57.8,-1294
25:57.8,5119
25:57.8,-2
25:57.8,-42
25:57.8,26367
25:57.8,0
25:57.8,224
25:57.8,-4096
25:57.8,0
25:57.8,202
25:57.8,-10752
25:57.8,0
25:57.8,219
25:57.8,-13824
25:57.8,0
25:57.8,197
25:57.8,-16128
25:57.8,0
25:57.8,183
25:57.8,-19200
25:57.8,0
25:57.8,181
25:57.8,-20480
25:57.8,0
25:57.8,171
25:57.8,-23552
25:57.8,0
25:57.8,152
25:57.8,-28928
25:57.8,0
25:57.8,135
25:58.4,126
25:58.4,30464
25:58.4,0
25:58.4,119
25:58.4,30976
25:58.4,0
25:58.4,128
25:58.4,-30976
25:58.4,0
25:58.4,138
25:58.4,-27904
25:58.4,0
25:58.4,154
25:58.4,-27904
25:58.4,0
25:58.4,138
25:58.4,-30976
25:58.4,0
25:58.4,140
25:58.4,-29696
25:58.4,0
25:58.4,138
25:58.4,-31488
25:58.4,0
25:58.4,128
25:58.4,-30976
25:58.4,0
25:58.4,133
25:58.4,29696
25:58.4,0
25:58.4,114
25:58.4,29696
25:58.4,0
25:58.4,97
25:58.4,19456
25:58.4,0
25:58.4,61
25:58.4,15616
25:58.4,0
25:58.4,66
25:58.4,15104
25:58.4,0
25:58.4,47
25:58.4,10752
25:58.4,0
25:58.4,35
25:58.4,9728
25:58.4,0
25:58.4,138
25:58.4,-26112
25:58.4,1
25:58.4,557
25:58.4,15104
25:58.4,0
25:58.4,-982
25:58.4,29951
25:58.4,-7
25:58.4,-1332
25:58.4,8191
25:58.4,-2
25:58.4,-40
25:58.4,17919
25:58.4,0
25:58.4,202
25:58.4,-4608
25:58.4,0
25:58.4,185
25:58.4,-16128
25:58.4,0
25:58.4,209
25:58.4,-15104
25:58.4,0
25:58.4,195
25:58.4,-15616
25:58.4,0
25:58.4,181
25:58.4,-19968
25:58.4,0
25:58.4,181
25:58.4,-22272
25:58.4,0
25:58.4,157
25:58.4,-25344
25:58.4,0
25:58.4,150
25:58.4,-30208
25:58.4,0
25:58.4,133
25:58.4,-32768
25:58.4,0
25:58.4,123
25:58.4,30464
25:58.4,0
25:58.4,121
25:58.4,-32768
25:58.4,0
25:58.4,128
25:58.4,30976
25:58.4,0
25:58.4,119
25:58.4,29696
25:58.4,0
25:58.4,112
25:58.4,26112
25:58.4,0
25:58.4,100
25:58.4,25600
25:58.4,0
25:58.4,100
25:59.0,100
25:59.0,23552
25:59.0,0
25:59.0,85
25:59.0,22528
25:59.0,0
25:59.0,97
25:59.0,24320
25:59.0,0
25:59.0,85
25:59.0,21760
25:59.0,0
25:59.0,83
25:59.0,15104
25:59.0,0
25:59.0,38
25:59.0,10752
25:59.0,0
25:59.0,57
25:59.0,15616
25:59.0,0
25:59.0,50
25:59.0,11520
25:59.0,0
25:59.0,50
25:59.0,15104
25:59.0,0
25:59.0,157
25:59.0,-21248
25:59.0,1
25:59.0,591
25:59.0,27392
25:59.0,0
25:59.0,-934
25:59.0,-16641
25:59.0,-7
25:59.0,-1206
25:59.0,-32257
25:59.0,-2
25:59.0,-33
25:59.0,13567
25:59.0,0
25:59.0,200
25:59.0,-7168
25:59.0,0
25:59.0,174
25:59.0,-17408
25:59.0,0
25:59.0,209
25:59.0,-17408
25:59.0,0
25:59.0,178
25:59.0,-18688
25:59.0,0
25:59.0,176
25:59.0,-23552
25:59.0,0
25:59.0,159
25:59.0,-24064
25:59.0,0
25:59.0,166
25:59.0,-26112
25:59.0,0
25:59.0,133
25:59.0,31488
25:59.0,0
25:59.0,123
25:59.0,30464
25:59.0,0
25:59.0,112
25:59.0,26624
25:59.0,0
25:59.0,107
25:59.0,29696
25:59.0,0
25:59.0,123
25:59.0,-32000
25:59.0,0
25:59.0,143
25:59.0,-30976
25:59.0,0
25:59.0,128
25:59.0,-32768
25:59.0,0
25:59.0,131
25:59.0,-32768
25:59.0,0
25:59.0,104
25:59.0,22528
25:59.0,0
25:59.0,100
25:59.0,25600
25:59.0,0
25:59.0,95
25:59.0,27904
25:59.0,0
25:59.0,123
25:59.0,27392
25:59.0,0
25:59.0,85
25:59.0,21248
25:59.0,0
25:59.0,69
25:59.0,13824
25:59.0,0
25:59.0,66
25:59.0,15616
25:59.0,0
25:59.0,42
25:59.5,40
25:59.5,11520
25:59.5,0
25:59.5,38
25:59.5,17664
25:59.5,0
25:59.5,271
25:59.5,15360
25:59.5,2
25:59.5,464
25:59.5,-28928
25:59.5,-2
25:59.5,-1375
25:59.5,-5633
25:59.5,-7
25:59.5,-822
25:59.5,28159
25:59.5,-1
25:59.5,40
25:59.5,-27136
25:59.5,0
25:59.5,255
25:59.5,-7680
25:59.5,0
25:59.5,197
25:59.5,-7680
25:59.5,0
25:59.5,226
25:59.5,-15104
25:59.5,0
25:59.5,188
25:59.5,-15616
25:59.5,0
25:59.5,195
25:59.5,-17408
25:59.5,0
25:59.5,181
25:59.5,-20480
25:59.5,0
25:59.5,174
25:59.5,-21760
25:59.5,0
25:59.5,150
25:59.5,-32000
25:59.5,0
25:59.5,126
25:59.5,29184
25:59.5,0
25:59.5,112
25:59.5,32256
25:59.5,0
25:59.5,138
25:59.5,-32768
25:59.5,0
25:59.5,128
25:59.5,-28928
25:59.5,0
25:59.5,147
25:59.5,-29696
25:59.5,0
25:59.5,133
25:59.5,-31488
25:59.5,0
25:59.5,133
25:59.5,32256
25:59.5,0
25:59.5,116
25:59.5,29696
25:59.5,0
25:59.5,109
25:59.5,24832
25:59.5,0
25:59.5,102
25:59.5,29696
25:59.5,0
25:59.5,112
25:59.5,26112
25:59.5,0
25:59.5,90
25:59.5,18688
25:59.5,0
25:59.5,54
25:59.5,12032
25:59.5,0
25:59.5,57
25:59.5,15616
25:59.5,0
25:59.5,47
25:59.5,8960
25:59.5,0
25:59.5,33
25:59.5,10240
25:59.5,0
25:59.5,114
25:59.5,29440
25:59.5,1
25:59.5,584
25:59.5,-13056
25:59.5,0
25:59.5,-813
25:59.5,-22785
25:59.5,-7
25:59.5,-1411
25:59.5,-15617
25:59.5,-3
25:59.5,-78
25:59.5,15359
25:59.5,0
25:59.5,200
26:00.1,240
26:00.1,-18688
26:00.1,0
26:00.1,200
26:00.1,-5888
26:00.1,0
26:00.1,219
26:00.1,-12032
26:00.1,0
26:00.1,209
26:00.1,-15104
26:00.1,0
26:00.1,188
26:00.1,-17408
26:00.1,0
26:00.1,183
26:00.1,-20480
26:00.1,0
26:00.1,169
26:00.1,-20992
26:00.1,0
26:00.1,157
26:00.1,32256
26:00.1,0
26:00.1,133
26:00.1,-28928
26:00.1,0
26:00.1,123
26:00.1,30976
26:00.1,0
26:00.1,135
26:00.1,-29696
26:00.1,0
26:00.1,138
26:00.1,-32000
26:00.1,0
26:00.1,131
26:00.1,-32000
26:00.1,0
26:00.1,140
26:00.1,-30208
26:00.1,0
26:00.1,119
26:00.1,29696
26:00.1,0
26:00.1,128
26:00.1,30464
26:00.1,0
26:00.1,100
26:00.1,26624
26:00.1,0
26:00.1,119
26:00.1,30464
26:00.1,0
26:00.1,107
26:00.1,23552
26:00.1,0
26:00.1,90
26:00.1,20736
26:00.1,0
26:00.1,54
26:00.1,13824
26:00.1,0
26:00.1,66
26:00.1,12800
26:00.1,0
26:00.1,38
26:00.1,11520
26:00.1,0
26:00.1,40
26:00.1,5888
26:00.1,0
26:00.1,90
26:00.1,20992
26:00.1,1
26:00.1,555
26:00.1,-1024
26:00.1,0
26:00.1,-672
26:00.1,2815
26:00.1,-6
26:00.1,-1454
26:00.1,29183
26:00.1,-3
26:00.1,-97
26:00.1,13567
26:00.1,0
26:00.1,178
26:00.1,-4608
26:00.1,0
26:00.1,188
26:00.1,-17408
26:00.1,0
26:00.1,214
26:00.1,-16896
26:00.1,0
26:00.1,171
26:00.1,-20480
26:00.1,0
26:00.1,169
26:00.1,-24832
26:00.1,0
26:00.1,166
26:00.1,-24064
26:00.1,0
26:00.1,154
26:00.1,-27136
26:00.1,0
26:00.1,145
26:00.7,128
26:00.7,27904
26:00.7,0
26:00.7,112
26:00.7,28672
26:00.7,0
26:00.7,112
26:00.7,30464
26:00.7,0
26:00.7,116
26:00.7,30976
26:00.7,0
26:00.7,145
26:00.7,-26624
26:00.7,0
26:00.7,140
26:00.7,-32768
26:00.7,0
26:00.7,128
26:00.7,-31488
26:00.7,0
26:00.7,138
26:00.7,-31488
26:00.7,0
26:00.7,126
26:00.7,31488
26:00.7,0
26:00.7,114
26:00.7,27392
26:00.7,0
26:00.7,114
26:00.7,28672
26:00.7,0
26:00.7,109
26:00.7,28672
26:00.7,0
26:00.7,102
26:00.7,22528
26:00.7,0
26:00.7,73
26:00.7,15616
26:00.7,0
26:00.7,61
26:00.7,15104
26:00.7,0
26:00.7,54
26:00.7,14592
26:00.7,0
26:00.7,42
26:00.7,5376
26:00.7,0
26:00.7,35
26:00.7,27392
26:00.7,0
26:00.7,326
26:00.7,9728
26:00.7,2
26:00.7,262
26:00.7,25088
26:00.7,-3
26:00.7,-1528
26:00.7,19967
26:00.7,-6
26:00.7,-672
26:00.7,-27649
26:00.7,-1
26:00.7,54
26:00.7,-18176
26:00.7,0
26:00.7,240
26:00.7,-15104
26:00.7,0
26:00.7,202
26:00.7,-10752
26:00.7,0
26:00.7,183
26:00.7,-20992
26:00.7,0
26:00.7,176
26:00.7,-22272
26:00.7,0
26:00.7,164
26:00.7,-21760
26:00.7,0
26:00.7,171
26:00.7,-26624
26:00.7,0
26:00.7,140
26:00.7,-29696
26:00.7,0
26:00.7,133
26:00.7,31488
26:00.7,0
26:00.7,123
26:00.7,29696
26:00.7,0
26:00.7,116
26:00.7,30464
26:00.7,0
26:00.7,107
26:00.7,27392
26:00.7,0
26:00.7,112
26:00.7,28672
26:00.7,0
26:00.7,112
26:00.7,26624
26:00.7,0
26:00.7,90
26:01.2,92
26:01.2,25600
26:01.2,0
26:01.2,92
26:01.2,22528
26:01.2,0
26:01.2,100
26:01.2,24320
26:01.2,0
26:01.2,66
26:01.2,15616
26:01.2,0
26:01.2,76
26:01.2,22528
26:01.2,0
26:01.2,90
26:01.2,23040
26:01.2,0
26:01.2,83
26:01.2,19456
26:01.2,0
26:01.2,69
26:01.2,15616
26:01.2,0
26:01.2,59
26:01.2,14592
26:01.2,0
26:01.2,47
26:01.2,10240
26:01.2,0
26:01.2,40
26:01.2,10752
26:01.2,0
26:01.2,107
26:01.2,23552
26:01.2,1
26:01.2,581
26:01.2,3840
26:01.2,1
26:01.2,-689
26:01.2,-2049
26:01.2,-7
26:01.2,-1425
26:01.2,-23553
26:01.2,-3
26:01.2,-85
26:01.2,6911
26:01.2,0
26:01.2,162
26:01.2,-4608
26:01.2,0
26:01.2,185
26:01.2,-17408
26:01.2,0
26:01.2,216
26:01.2,-18688
26:01.2,0
26:01.2,169
26:01.2,-18176
26:01.2,0
26:01.2,174
26:01.2,-26112
26:01.2,0
26:01.2,157
26:01.2,-23552
26:01.2,0
26:01.2,159
26:01.2,-27136
26:01.2,0
26:01.2,143
26:01.2,-30976
26:01.2,0
26:01.2,119
26:01.2,28672
26:01.2,0
26:01.2,112
26:01.2,25600
26:01.2,0
26:01.2,92
26:01.2,27392
26:01.2,0
26:01.2,126
26:01.2,31488
26:01.2,0
26:01.2,116
26:01.2,30464
26:01.2,0
26:01.2,112
26:01.2,27392
26:01.2,0
26:01.2,109
26:01.2,26624
26:01.2,0
26:01.2,92
26:01.2,22528
26:01.2,0
26:01.2,88
26:01.2,21248
26:01.2,0
26:01.2,76
26:01.2,22528
26:01.2,0
26:01.2,102
26:01.2,23552
26:01.2,0
26:01.2,76
26:01.2,18176
26:01.2,0
26:01.2,66
26:01.8,50
26:01.8,10752
26:01.8,0
26:01.8,45
26:01.8,11520
26:01.8,0
26:01.8,40
26:01.8,8960
26:01.8,0
26:01.8,38
26:01.8,12800
26:01.8,0
26:01.8,154
26:01.8,-21248
26:01.8,1
26:01.8,572
26:01.8,17664
26:01.8,0
26:01.8,-970
26:01.8,-17921
26:01.8,-7
26:01.8,-1177
26:01.8,-23809
26:01.8,-2
26:01.8,-14
26:01.8,15359
26:01.8,0
26:01.8,207
26:01.8,-2304
26:01.8,0
26:01.8,197
26:01.8,-14336
26:01.8,0
26:01.8,207
26:01.8,-16896
26:01.8,0
26:01.8,185
26:01.8,-18176
26:01.8,0
26:01.8,176
26:01.8,-19968
26:01.8,0
26:01.8,178
26:01.8,-20992
26:01.8,0
26:01.8,174
26:01.8,-21760
26:01.8,0
26:01.8,162
26:01.8,-28416
26:01.8,0
26:01.8,128
26:01.8,30464
26:01.8,0
26:01.8,116
26:01.8,26624
26:01.8,0
26:01.8,100
26:01.8,27392
26:01.8,0
26:01.8,121
26:01.8,-30976
26:01.8,0
26:01.8,138
26:01.8,-32000
26:01.8,0
26:01.8,121
26:01.8,29184
26:01.8,0
26:01.8,114
26:01.8,29696
26:01.8,0
26:01.8,104
26:01.8,23040
26:01.8,0
26:01.8,92
26:01.8,24832
26:01.8,0
26:01.8,85
26:01.8,21760
26:01.8,0
26:01.8,95
26:01.8,22528
26:01.8,0
26:01.8,81
26:01.8,19968
26:01.8,0
26:01.8,45
26:01.8,5888
26:01.8,0
26:01.8,47
26:01.8,14592
26:01.8,0
26:01.8,33
26:01.8,5376
26:01.8,0
26:01.8,28
26:01.8,8960
26:01.8,0
26:01.8,95
26:01.8,19712
26:01.8,1
26:01.8,574
26:01.8,-1024
26:01.8,0
26:01.8,-741
26:01.8,-15361
26:01.8,-7
26:01.8,-1444
26:02.3,-615
26:02.3,-24577
26:02.3,-1
26:02.3,33
26:02.3,-19968
26:02.3,0
26:02.3,247
26:02.3,-15616
26:02.3,0
26:02.3,193
26:02.3,-10240
26:02.3,0
26:02.3,197
26:02.3,-19968
26:02.3,0
26:02.3,190
26:02.3,-13824
26:02.3,0
26:02.3,195
26:02.3,-17408
26:02.3,0
26:02.3,183
26:02.3,-18688
26:02.3,0
26:02.3,183
26:02.3,-20480
26:02.3,0
26:02.3,164
26:02.3,-26112
26:02.3,0
26:02.3,145
26:02.3,-30208
26:02.3,0
26:02.3,138
26:02.3,-29696
26:02.3,0
26:02.3,140
26:02.3,-30208
26:02.3,0
26:02.3,133
26:02.3,-31488
26:02.3,0
26:02.3,133
26:02.3,32256
26:02.3,0
26:02.3,116
26:02.3,30464
26:02.3,0
26:02.3,131
26:02.3,31488
26:02.3,0
26:02.3,107
26:02.3,26624
26:02.3,0
26:02.3,100
26:02.3,26624
26:02.3,0
26:02.3,112
26:02.3,24320
26:02.3,0
26:02.3,76
26:02.3,19968
26:02.3,0
26:02.3,73
26:02.3,15104
26:02.3,0
26:02.3,54
26:02.3,15616
26:02.3,0
26:02.3,54
26:02.3,9728
26:02.3,0
26:02.3,38
26:02.3,10752
26:02.3,0
26:02.3,38
26:02.3,18688
26:02.3,0
26:02.3,274
26:02.3,8704
26:02.3,2
26:02.3,364
26:02.3,512
26:02.3,-2
26:02.3,-1435
26:02.3,7935
26:02.3,-6
26:02.3,-772
26:02.3,24319
26:02.3,-1
26:02.3,30
26:02.3,-23040
26:02.3,0
26:02.3,226
26:02.3,-18688
26:02.3,0
26:02.3,195
26:02.3,-9472
26:02.3,0
26:02.3,197
26:02.3,-18688
26:02.3,0
26:02.3,183
26:02.3,-20992
26:02.3,0
26:02.3,169
26:02.3,-21760
26:02.3,0
26:02.3,171
26:02.9,164
26:02.9,-24832
26:02.9,0
26:02.9,154
26:02.9,-28416
26:02.9,0
26:02.9,135
26:02.9,31488
26:02.9,0
26:02.9,121
26:02.9,30464
26:02.9,0
26:02.9,119
26:02.9,-28928
26:02.9,0
26:02.9,164
26:02.9,-26624
26:02.9,0
26:02.9,145
26:02.9,-27904
26:02.9,0
26:02.9,140
26:02.9,-30976
26:02.9,0
26:02.9,135
26:02.9,-31488
26:02.9,0
26:02.9,126
26:02.9,32256
26:02.9,0
26:02.9,121
26:02.9,29184
26:02.9,0
26:02.9,119
26:02.9,30464
26:02.9,0
26:02.9,109
26:02.9,28672
26:02.9,0
26:02.9,95
26:02.9,15104
26:02.9,0
26:02.9,52
26:02.9,17664
26:02.9,0
26:02.9,69
26:02.9,13824
26:02.9,0
26:02.9,52
26:02.9,13312
26:02.9,0
26:02.9,40
26:02.9,9728
26:02.9,0
26:02.9,102
26:02.9,13568
26:02.9,1
26:02.9,524
26:02.9,4608
26:02.9,1
26:02.9,-608
26:02.9,22527
26:02.9,-6
26:02.9,-1409
26:02.9,30463
26:02.9,-3
26:02.9,-100
26:02.9,14079
26:02.9,0
26:02.9,176
26:02.9,-3328
26:02.9,0
26:02.9,200
26:02.9,-18176
26:02.9,0
26:02.9,200
26:02.9,-16896
26:02.9,0
26:02.9,181
26:02.9,-19200
26:02.9,0
26:02.9,169
26:02.9,-23552
26:02.9,0
26:02.9,181
26:02.9,-20992
26:02.9,0
26:02.9,147
26:02.9,-28416
26:02.9,0
26:02.9,150
26:02.9,-29696
26:02.9,0
26:02.9,123
26:02.9,29696
26:02.9,0
26:02.9,121
26:02.9,30464
26:02.9,0
26:02.9,109
26:02.9,27904
26:02.9,0
26:02.9,123
26:02.9,-30976
26:02.9,0
26:02.9,128
26:02.9,29184
26:02.9,0
26:02.9,119
26:03.5,126
26:03.5,30464
26:03.5,0
26:03.5,114
26:03.5,29184
26:03.5,0
26:03.5,107
26:03.5,26624
26:03.5,0
26:03.5,112
26:03.5,28672
26:03.5,0
26:03.5,116
26:03.5,-32768
26:03.5,0
26:03.5,116
26:03.5,22528
26:03.5,0
26:03.5,66
26:03.5,13312
26:03.5,0
26:03.5,59
26:03.5,17664
26:03.5,0
26:03.5,59
26:03.5,11520
26:03.5,0
26:03.5,30
26:03.5,6656
26:03.5,0
26:03.5,50
26:03.5,-21760
26:03.5,0
26:03.5,443
26:03.5,-1280
26:03.5,1
26:03.5,-133
26:03.5,25343
26:03.5,-5
26:03.5,-1630
26:03.5,-7169
26:03.5,-5
26:03.5,-283
26:03.5,-3841
26:03.5,-1
26:03.5,81
26:03.5,-10752
26:03.5,0
26:03.5,212
26:03.5,-22272
26:03.5,0
26:03.5,195
26:03.5,-15104
26:03.5,0
26:03.5,169
26:03.5,-21760
26:03.5,0
26:03.5,174
26:03.5,-23040
26:03.5,0
26:03.5,164
26:03.5,-26112
26:03.5,0
26:03.5,150
26:03.5,-28416
26:03.5,0
26:03.5,133
26:03.5,-32000
26:03.5,0
26:03.5,119
26:03.5,26112
26:03.5,0
26:03.5,109
26:03.5,30464
26:03.5,0
26:03.5,116
26:03.5,27904
26:03.5,0
26:03.5,109
26:03.5,30464
26:03.5,0
26:03.5,128
26:03.5,31488
26:03.5,0
26:03.5,109
26:03.5,28672
26:03.5,0
26:03.5,112
26:03.5,22528
26:03.5,0
26:03.5,85
26:03.5,24832
26:03.5,0
26:03.5,85
26:03.5,21248
26:03.5,0
26:03.5,100
26:03.5,24832
26:03.5,0
26:03.5,90
26:03.5,23552
26:03.5,0
26:03.5,83
26:03.5,15104
26:03.5,0
26:03.5,38
26:03.5,9728
26:03.5,0
26:03.5,47
26:04.0,40
26:04.0,7680
26:04.0,0
26:04.0,26
26:04.0,4096
26:04.0,0
26:04.0,26
26:04.0,-31488
26:04.0,0
26:04.0,398
26:04.0,12800
26:04.0,2
26:04.0,107
26:04.0,27136
26:04.0,-4
26:04.0,-1585
26:04.0,23551
26:04.0,-5
26:04.0,-381
26:04.0,-14337
26:04.0,-1
26:04.0,16
26:04.0,-19200
26:04.0,0
26:04.0,224
26:04.0,-25344
26:04.0,0
26:04.0,166
26:04.0,-14336
26:04.0,0
26:04.0,188
26:04.0,-20480
26:04.0,0
26:04.0,188
26:04.0,-19200
26:04.0,0
26:04.0,162
26:04.0,-22272
26:04.0,0
26:04.0,176
26:04.0,-23040
26:04.0,0
26:04.0,157
26:04.0,-27904
26:04.0,0
26:04.0,119
26:04.0,25600
26:04.0,0
26:04.0,123
26:04.0,32256
26:04.0,0
26:04.0,90
26:04.0,23552
26:04.0,0
26:04.0,121
26:04.0,-32768
26:04.0,0
26:04.0,128
26:04.0,-31488
26:04.0,0
26:04.0,138
26:04.0,-29696
26:04.0,0
26:04.0,133
26:04.0,-31488
26:04.0,0
26:04.0,123
26:04.0,24832
26:04.0,0
26:04.0,88
26:04.0,27392
26:04.0,0
26:04.0,112
26:04.0,23552
26:04.0,0
26:04.0,92
26:04.0,27904
26:04.0,0
26:04.0,100
26:04.0,17664
26:04.0,0
26:04.0,54
26:04.0,18176
26:04.0,0
26:04.0,78
26:04.0,10240
26:04.0,0
26:04.0,19
26:04.0,10240
26:04.0,0
26:04.0,42
26:04.0,9728
26:04.0,0
26:04.0,135
26:04.0,-25600
26:04.0,1
26:04.0,574
26:04.0,26112
26:04.0,0
26:04.0,-932
26:04.0,-20993
26:04.0,-7
26:04.0,-1244
26:04.0,27647
26:04.0,-2
26:04.0,-35
26:04.0,10495
26:04.0,0
26:04.0,190
26:04.6,236
26:04.6,-19968
26:04.6,0
26:04.6,188
26:04.6,-11264
26:04.6,0
26:04.6,188
26:04.6,-24064
26:04.6,0
26:04.6,166
26:04.6,-20480
26:04.6,0
26:04.6,169
26:04.6,-24832
26:04.6,0
26:04.6,157
26:04.6,-23040
26:04.6,0
26:04.6,171
26:04.6,-23552
26:04.6,0
26:04.6,152
26:04.6,-27904
26:04.6,0
26:04.6,135
26:04.6,30976
26:04.6,0
26:04.6,112
26:04.6,29696
26:04.6,0
26:04.6,123
26:04.6,-32000
26:04.6,0
26:04.6,143
26:04.6,-27904
26:04.6,0
26:04.6,138
26:04.6,-31488
26:04.6,0
26:04.6,131
26:04.6,31488
26:04.6,0
26:04.6,119
26:04.6,29696
26:04.6,0
26:04.6,114
26:04.6,27904
26:04.6,0
26:04.6,107
26:04.6,26112
26:04.6,0
26:04.6,107
26:04.6,29184
26:04.6,0
26:04.6,102
26:04.6,21248
26:04.6,0
26:04.6,69
26:04.6,13312
26:04.6,0
26:04.6,54
26:04.6,17664
26:04.6,0
26:04.6,59
26:04.6,9728
26:04.6,0
26:04.6,28
26:04.6,10240
26:04.6,0
26:04.6,102
26:04.6,16640
26:04.6,1
26:04.6,569
26:04.6,16640
26:04.6,1
26:04.6,-612
26:04.6,2815
26:04.6,-6
26:04.6,-1485
26:04.6,25343
26:04.6,-3
26:04.6,-100
26:04.6,7423
26:04.6,0
26:04.6,150
26:04.6,-5888
26:04.6,0
26:04.6,193
26:04.6,-15616
26:04.6,0
26:04.6,216
26:04.6,-18688
26:04.6,0
26:04.6,178
26:04.6,-15616
26:04.6,0
26:04.6,178
26:04.6,-23552
26:04.6,0
26:04.6,178
26:04.6,-20480
26:04.6,0
26:04.6,162
26:04.6,-24064
26:04.6,0
26:04.6,164
26:04.6,-28928
26:04.6,0
26:04.6,116
26:05.1,119
26:05.1,29696
26:05.1,0
26:05.1,104
26:05.1,28672
26:05.1,0
26:05.1,119
26:05.1,32256
26:05.1,0
26:05.1,138
26:05.1,-30976
26:05.1,0
26:05.1,126
26:05.1,-32768
26:05.1,0
26:05.1,123
26:05.1,31488
26:05.1,0
26:05.1,126
26:05.1,26112
26:05.1,0
26:05.1,88
26:05.1,26624
26:05.1,0
26:05.1,121
26:05.1,-31488
26:05.1,0
26:05.1,131
26:05.1,29184
26:05.1,0
26:05.1,102
26:05.1,22528
26:05.1,0
26:05.1,73
26:05.1,16896
26:05.1,0
26:05.1,71
26:05.1,18176
26:05.1,0
26:05.1,61
26:05.1,14592
26:05.1,0
26:05.1,57
26:05.1,14592
26:05.1,0
26:05.1,126
26:05.1,29440
26:05.1,1
26:05.1,567
26:05.1,-18176
26:05.1,0
26:05.1,-794
26:05.1,-4353
26:05.1,-7
26:05.1,-1335
26:05.1,-2817
26:05.1,-3
26:05.1,-50
26:05.1,17151
26:05.1,0
26:05.1,193
26:05.1,-3328
26:05.1,0
26:05.1,197
26:05.1,-14336
26:05.1,0
26:05.1,216
26:05.1,-15104
26:05.1,0
26:05.1,183
26:05.1,-19200
26:05.1,0
26:05.1,178
26:05.1,-20992
26:05.1,0
26:05.1,169
26:05.1,-23552
26:05.1,0
26:05.1,159
26:05.1,-24832
26:05.1,0
26:05.1,150
26:05.1,-30976
26:05.1,0
26:05.1,126
26:05.1,30976
26:05.1,0
26:05.1,116
26:05.1,27904
26:05.1,0
26:05.1,109
26:05.1,30976
26:05.1,0
26:05.1,131
26:05.1,-32768
26:05.1,0
26:05.1,133
26:05.1,-30976
26:05.1,0
26:05.1,123
26:05.1,30976
26:05.1,0
26:05.1,126
26:05.1,32256
26:05.1,0
26:05.1,121
26:05.1,29696
26:05.1,0
26:05.1,119
26:05.7,121
26:05.7,29696
26:05.7,0
26:05.7,112
26:05.7,27392
26:05.7,0
26:05.7,92
26:05.7,18688
26:05.7,0
26:05.7,61
26:05.7,15104
26:05.7,0
26:05.7,71
26:05.7,21760
26:05.7,0
26:05.7,78
26:05.7,15616
26:05.7,0
26:05.7,61
26:05.7,17664
26:05.7,0
26:05.7,154
26:05.7,-25600
26:05.7,1
26:05.7,555
26:05.7,13824
26:05.7,0
26:05.7,-953
26:05.7,-6145
26:05.7,-7
26:05.7,-1175
26:05.7,32511
26:05.7,-2
26:05.7,-4
26:05.7,25855
26:05.7,0
26:05.7,224
26:05.7,-3328
26:05.7,0
26:05.7,193
26:05.7,-14336
26:05.7,0
26:05.7,216
26:05.7,-14336
26:05.7,0
26:05.7,185
26:05.7,-19200
26:05.7,0
26:05.7,176
26:05.7,-20480
26:05.7,0
26:05.7,176
26:05.7,-22272
26:05.7,0
26:05.7,159
26:05.7,-26624
26:05.7,0
26:05.7,140
26:05.7,32256
26:05.7,0
26:05.7,119
26:05.7,28672
26:05.7,0
26:05.7,114
26:05.7,30464
26:05.7,0
26:05.7,109
26:05.7,27392
26:05.7,0
26:05.7,116
26:05.7,32256
26:05.7,0
26:05.7,126
26:05.7,27904
26:05.7,0
26:05.7,97
26:05.7,27904
26:05.7,0
26:05.7,116
26:05.7,27904
26:05.7,0
26:05.7,107
26:05.7,26624
26:05.7,0
26:05.7,102
26:05.7,27904
26:05.7,0
26:05.7,109
26:05.7,24320
26:05.7,0
26:05.7,81
26:05.7,18176
26:05.7,0
26:05.7,57
26:05.7,12800
26:05.7,0
26:05.7,50
26:05.7,12032
26:05.7,0
26:05.7,45
26:05.7,8960
26:05.7,0
26:05.7,26
26:05.7,8448
26:05.7,0
26:05.7,78
26:05.7,2816
26:05.7,1
26:05.7,524
26:06.2,364
26:06.2,6656
26:06.2,-2
26:06.2,-1428
26:06.2,11519
26:06.2,-6
26:06.2,-717
26:06.2,-30209
26:06.2,-1
26:06.2,-2
26:06.2,26367
26:06.2,0
26:06.2,219
26:06.2,-18688
26:06.2,0
26:06.2,154
26:06.2,-16128
26:06.2,0
26:06.2,193
26:06.2,-21760
26:06.2,0
26:06.2,188
26:06.2,-15104
26:06.2,0
26:06.2,171
26:06.2,-24064
26:06.2,0
26:06.2,174
26:06.2,-21760
26:06.2,0
26:06.2,150
26:06.2,-30208
26:06.2,0
26:06.2,133
26:06.2,30976
26:06.2,0
26:06.2,109
26:06.2,26624
26:06.2,0
26:06.2,102
26:06.2,26112
26:06.2,0
26:06.2,102
26:06.2,27904
26:06.2,0
26:06.2,126
26:06.2,-32000
26:06.2,0
26:06.2,121
26:06.2,30976
26:06.2,0
26:06.2,116
26:06.2,26624
26:06.2,0
26:06.2,95
26:06.2,26112
26:06.2,0
26:06.2,107
26:06.2,26112
26:06.2,0
26:06.2,107
26:06.2,27904
26:06.2,0
26:06.2,104
26:06.2,24320
26:06.2,0
26:06.2,78
26:06.2,20736
26:06.2,0
26:06.2,71
26:06.2,8960
26:06.2,0
26:06.2,40
26:06.2,14592
26:06.2,0
26:06.2,47
26:06.2,10752
26:06.2,0
26:06.2,38
26:06.2,11520
26:06.2,0
26:06.2,183
26:06.2,-7168
26:06.2,1
26:06.2,557
26:06.2,-15616
26:06.2,-1
26:06.2,-1092
26:06.2,-2561
26:06.2,-7
26:06.2,-984
26:06.2,4863
26:06.2,-1
26:06.2,-26
26:06.2,9983
26:06.2,0
26:06.2,193
26:06.2,-12544
26:06.2,0
26:06.2,157
26:06.2,-19200
26:06.2,0
26:06.2,190
26:06.2,-23040
26:06.2,0
26:06.2,157
26:06.2,-25344
26:06.2,0
26:06.2,150
26:06.8,150
26:06.8,-26624
26:06.8,0
26:06.8,150
26:06.8,-30976
26:06.8,0
26:06.8,121
26:06.8,-32768
26:06.8,0
26:06.8,140
26:06.8,30464
26:06.8,0
26:06.8,109
26:06.8,30976
26:06.8,0
26:06.8,92
26:06.8,18176
26:06.8,0
26:06.8,102
26:06.8,-30976
26:06.8,0
26:06.8,145
26:06.8,-28416
26:06.8,0
26:06.8,143
26:06.8,-30208
26:06.8,0
26:06.8,131
26:06.8,-32000
26:06.8,0
26:06.8,121
26:06.8,26624
26:06.8,0
26:06.8,109
26:06.8,30976
26:06.8,0
26:06.8,123
26:06.8,29696
26:06.8,0
26:06.8,107
26:06.8,27392
26:06.8,0
26:06.8,81
26:06.8,11520
26:06.8,0
26:06.8,54
26:06.8,18688
26:06.8,0
26:06.8,64
26:06.8,12800
26:06.8,0
26:06.8,52
26:06.8,12800
26:06.8,0
26:06.8,52
26:06.8,-13056
26:06.8,0
26:06.8,507
26:06.8,-3584
26:06.8,1
26:06.8,-236
26:06.8,767
26:06.8,-5
26:06.8,-1583
26:06.8,-32513
26:06.8,-4
26:06.8,-185
26:06.8,-257
26:06.8,-1
26:06.8,102
26:06.8,-4608
26:06.8,0
26:06.8,212
26:06.8,-23552
26:06.8,0
26:06.8,197
26:06.8,-13056
26:06.8,0
26:06.8,178
26:06.8,-19200
26:06.8,0
26:06.8,183
26:06.8,-20992
26:06.8,0
26:06.8,176
26:06.8,-20992
26:06.8,0
26:06.8,154
26:06.8,-29696
26:06.8,0
26:06.8,140
26:06.8,-32000
26:06.8,0
26:06.8,116
26:06.8,27392
26:06.8,0
26:06.8,104
26:06.8,24832
26:06.8,0
26:06.8,90
26:06.8,23040
26:06.8,0
26:06.8,104
26:06.8,30976
26:06.8,0
26:06.8,131
26:06.8,-32000
26:06.8,0
26:06.8,123
26:07.4,119
26:07.4,29184
26:07.4,0
26:07.4,104
26:07.4,26624
26:07.4,0
26:07.4,109
26:07.4,27904
26:07.4,0
26:07.4,116
26:07.4,30464
26:07.4,0
26:07.4,107
26:07.4,24320
26:07.4,0
26:07.4,92
26:07.4,23552
26:07.4,0
26:07.4,83
26:07.4,17664
26:07.4,0
26:07.4,66
26:07.4,17664
26:07.4,0
26:07.4,64
26:07.4,14592
26:07.4,0
26:07.4,57
26:07.4,25600
26:07.4,0
26:07.4,305
26:07.4,14080
26:07.4,2
26:07.4,371
26:07.4,-3072
26:07.4,-3
26:07.4,-1449
