timestamp,ecg,reconstructed_time
2025-11-07 11:39:38.668922,7,2025-11-07 11:39:38.668922000
2025-11-07 11:39:38.668922,3072,2025-11-07 11:39:38.676614308
2025-11-07 11:39:38.668922,0,2025-11-07 11:39:38.684306615
2025-11-07 11:39:38.668922,16,2025-11-07 11:39:38.691998923
2025-11-07 11:39:38.668922,5376,2025-11-07 11:39:38.699691231
2025-11-07 11:39:38.668922,0,2025-11-07 11:39:38.707383538
2025-11-07 11:39:38.668922,14,2025-11-07 11:39:38.715075846
2025-11-07 11:39:38.668922,4096,2025-11-07 11:39:38.722768154
2025-11-07 11:39:38.668922,0,2025-11-07 11:39:38.730460462
2025-11-07 11:39:38.668922,21,2025-11-07 11:39:38.738152769
2025-11-07 11:39:38.668922,3584,2025-11-07 11:39:38.745845077
2025-11-07 11:39:38.668922,0,2025-11-07 11:39:38.753537385
2025-11-07 11:39:38.668922,16,2025-11-07 11:39:38.761229692
2025-11-07 11:39:38.668922,3584,2025-11-07 11:39:38.768922000
2025-11-07 11:39:38.668922,0,2025-11-07 11:39:38.776614308
2025-11-07 11:39:38.668922,14,2025-11-07 11:39:38.784306615
2025-11-07 11:39:38.668922,9216,2025-11-07 11:39:38.791998923
2025-11-07 11:39:38.668922,0,2025-11-07 11:39:38.799691231
2025-11-07 11:39:38.668922,50,2025-11-07 11:39:38.807383538
2025-11-07 11:39:38.668922,10240,2025-11-07 11:39:38.815075846
2025-11-07 11:39:38.668922,0,2025-11-07 11:39:38.822768154
2025-11-07 11:39:38.668922,28,2025-11-07 11:39:38.830460462
2025-11-07 11:39:38.668922,8448,2025-11-07 11:39:38.838152769
2025-11-07 11:39:38.668922,0,2025-11-07 11:39:38.845845077
2025-11-07 11:39:38.668922,40,2025-11-07 11:39:38.853537385
2025-11-07 11:39:38.668922,9216,2025-11-07 11:39:38.861229692
2025-11-07 11:39:38.668922,0,2025-11-07 11:39:38.868922000
2025-11-07 11:39:38.668922,40,2025-11-07 11:39:38.876614308
2025-11-07 11:39:38.668922,11520,2025-11-07 11:39:38.884306615
2025-11-07 11:39:38.668922,0,2025-11-07 11:39:38.891998923
2025-11-07 11:39:38.668922,38,2025-11-07 11:39:38.899691231
2025-11-07 11:39:38.668922,8448,2025-11-07 11:39:38.907383538
2025-11-07 11:39:38.668922,0,2025-11-07 11:39:38.915075846
2025-11-07 11:39:38.668922,26,2025-11-07 11:39:38.922768154
2025-11-07 11:39:38.668922,4864,2025-11-07 11:39:38.930460462
2025-11-07 11:39:38.668922,0,2025-11-07 11:39:38.938152769
2025-11-07 11:39:38.668922,16,2025-11-07 11:39:38.945845077
2025-11-07 11:39:38.668922,1792,2025-11-07 11:39:38.953537385
2025-11-07 11:39:38.668922,0,2025-11-07 11:39:38.961229692
2025-11-07 11:39:38.668922,9,2025-11-07 11:39:38.968922000
2025-11-07 11:39:38.668922,2304,2025-11-07 11:39:38.976614308
2025-11-07 11:39:38.668922,0,2025-11-07 11:39:38.984306615
2025-11-07 11:39:38.668922,7,2025-11-07 11:39:38.991998923
2025-11-07 11:39:38.668922,4864,2025-11-07 11:39:38.999691231
2025-11-07 11:39:38.668922,0,2025-11-07 11:39:39.007383538
2025-11-07 11:39:38.668922,19,2025-11-07 11:39:39.015075846
2025-11-07 11:39:38.668922,6144,2025-11-07 11:39:39.022768154
2025-11-07 11:39:38.668922,0,2025-11-07 11:39:39.030460462
2025-11-07 11:39:38.668922,33,2025-11-07 11:39:39.038152769
2025-11-07 11:39:38.668922,7168,2025-11-07 11:39:39.045845077
2025-11-07 11:39:38.668922,0,2025-11-07 11:39:39.053537385
2025-11-07 11:39:38.668922,33,2025-11-07 11:39:39.061229692
2025-11-07 11:39:38.668922,7936,2025-11-07 11:39:39.068922000
2025-11-07 11:39:38.668922,0,2025-11-07 11:39:39.076614308
2025-11-07 11:39:38.668922,21,2025-11-07 11:39:39.084306615
2025-11-07 11:39:38.668922,6656,2025-11-07 11:39:39.091998923
2025-11-07 11:39:38.668922,0,2025-11-07 11:39:39.099691231
2025-11-07 11:39:38.668922,33,2025-11-07 11:39:39.107383538
2025-11-07 11:39:38.668922,9728,2025-11-07 11:39:39.115075846
2025-11-07 11:39:38.668922,0,2025-11-07 11:39:39.122768154
2025-11-07 11:39:38.668922,45,2025-11-07 11:39:39.130460462
2025-11-07 11:39:38.668922,9728,2025-11-07 11:39:39.138152769
2025-11-07 11:39:38.668922,0,2025-11-07 11:39:39.145845077
2025-11-07 11:39:38.668922,33,2025-11-07 11:39:39.153537385
2025-11-07 11:39:38.668922,7168,2025-11-07 11:39:39.161229692
2025-11-07 11:39:38.668922,0,2025-11-07 11:39:39.168922000
2025-11-07 11:39:38.668922,21,2025-11-07 11:39:39.176614308
2025-11-07 11:39:38.668922,3584,2025-11-07 11:39:39.184306615
2025-11-07 11:39:38.668922,0,2025-11-07 11:39:39.191998923
2025-11-07 11:39:38.668922,14,2025-11-07 11:39:39.199691230
2025-11-07 11:39:38.668922,6144,2025-11-07 11:39:39.207383538
2025-11-07 11:39:38.668922,0,2025-11-07 11:39:39.215075846
2025-11-07 11:39:38.668922,26,2025-11-07 11:39:39.222768154
2025-11-07 11:39:38.668922,6656,2025-11-07 11:39:39.230460462
2025-11-07 11:39:38.668922,0,2025-11-07 11:39:39.238152769
2025-11-07 11:39:38.668922,26,2025-11-07 11:39:39.245845077
2025-11-07 11:39:38.668922,-512,2025-11-07 11:39:39.253537385
2025-11-07 11:39:38.668922,-1,2025-11-07 11:39:39.261229692
2025-11-07 11:39:38.668922,-64,2025-11-07 11:39:39.268922000
2025-11-07 11:39:38.668922,-31745,2025-11-07 11:39:39.276614308
2025-11-07 11:39:38.668922,-1,2025-11-07 11:39:39.284306615
2025-11-07 11:39:38.668922,-72,2025-11-07 11:39:39.291998923
2025-11-07 11:39:38.668922,-14337,2025-11-07 11:39:39.299691231
2025-11-07 11:39:38.668922,0,2025-11-07 11:39:39.307383538
2025-11-07 11:39:38.668922,533,2025-11-07 11:39:39.315075846
2025-11-07 11:39:38.668922,11008,2025-11-07 11:39:39.322768154
2025-11-07 11:39:38.668922,2,2025-11-07 11:39:39.330460462
2025-11-07 11:39:38.668922,295,2025-11-07 11:39:39.338152769
2025-11-07 11:39:38.668922,32000,2025-11-07 11:39:39.345845077
2025-11-07 11:39:38.668922,0,2025-11-07 11:39:39.353537385
2025-11-07 11:39:38.668922,43,2025-11-07 11:39:39.361229692
2025-11-07 11:39:38.668922,-12800,2025-11-07 11:39:39.368922000
2025-11-07 11:39:38.668922,-1,2025-11-07 11:39:39.376614308
2025-11-07 11:39:38.668922,-72,2025-11-07 11:39:39.384306615
2025-11-07 11:39:38.668922,-11265,2025-11-07 11:39:39.391998923
2025-11-07 11:39:38.668922,-1,2025-11-07 11:39:39.399691231
2025-11-07 11:39:38.668922,-52,2025-11-07 11:39:39.407383538
2025-11-07 11:39:38.668922,-13825,2025-11-07 11:39:39.415075846
2025-11-07 11:39:38.668922,-1,2025-11-07 11:39:39.422768154
2025-11-07 11:39:38.668922,-43,2025-11-07 11:39:39.430460462
2025-11-07 11:39:38.668922,-9985,2025-11-07 11:39:39.438152769
2025-11-07 11:39:38.668922,-1,2025-11-07 11:39:39.445845077
2025-11-07 11:39:38.668922,-45,2025-11-07 11:39:39.453537385
2025-11-07 11:39:38.668922,-12033,2025-11-07 11:39:39.461229692
2025-11-07 11:39:38.668922,-1,2025-11-07 11:39:39.468922000
2025-11-07 11:39:38.668922,-40,2025-11-07 11:39:39.476614308
2025-11-07 11:39:38.668922,-8961,2025-11-07 11:39:39.484306615
2025-11-07 11:39:38.668922,-1,2025-11-07 11:39:39.491998923
2025-11-07 11:39:38.668922,-38,2025-11-07 11:39:39.499691231
2025-11-07 11:39:39.208604,-28,2025-11-07 11:39:39.507383538
2025-11-07 11:39:39.208604,-5889,2025-11-07 11:39:39.515075846
2025-11-07 11:39:39.208604,-1,2025-11-07 11:39:39.522768154
2025-11-07 11:39:39.208604,-24,2025-11-07 11:39:39.530460462
2025-11-07 11:39:39.208604,-5121,2025-11-07 11:39:39.538152769
2025-11-07 11:39:39.208604,-1,2025-11-07 11:39:39.545845077
2025-11-07 11:39:39.208604,-24,2025-11-07 11:39:39.553537385
2025-11-07 11:39:39.208604,-5889,2025-11-07 11:39:39.561229692
2025-11-07 11:39:39.208604,-1,2025-11-07 11:39:39.568922000
2025-11-07 11:39:39.208604,-16,2025-11-07 11:39:39.576614308
2025-11-07 11:39:39.208604,-2049,2025-11-07 11:39:39.584306615
2025-11-07 11:39:39.208604,-1,2025-11-07 11:39:39.591998923
2025-11-07 11:39:39.208604,14,2025-11-07 11:39:39.599691231
2025-11-07 11:39:39.208604,10240,2025-11-07 11:39:39.607383538
2025-11-07 11:39:39.208604,0,2025-11-07 11:39:39.615075846
2025-11-07 11:39:39.208604,45,2025-11-07 11:39:39.622768154
2025-11-07 11:39:39.208604,9728,2025-11-07 11:39:39.630460462
2025-11-07 11:39:39.208604,0,2025-11-07 11:39:39.638152769
2025-11-07 11:39:39.208604,43,2025-11-07 11:39:39.645845077
2025-11-07 11:39:39.208604,14080,2025-11-07 11:39:39.653537385
2025-11-07 11:39:39.208604,0,2025-11-07 11:39:39.661229692
2025-11-07 11:39:39.208604,43,2025-11-07 11:39:39.668922000
2025-11-07 11:39:39.208604,7168,2025-11-07 11:39:39.676614308
2025-11-07 11:39:39.208604,0,2025-11-07 11:39:39.684306615
2025-11-07 11:39:39.208604,24,2025-11-07 11:39:39.691998923
2025-11-07 11:39:39.208604,2304,2025-11-07 11:39:39.699691231
2025-11-07 11:39:39.208604,0,2025-11-07 11:39:39.707383538
2025-11-07 11:39:39.208604,4,2025-11-07 11:39:39.715075846
2025-11-07 11:39:39.208604,0,2025-11-07 11:39:39.722768154
2025-11-07 11:39:39.208604,0,2025-11-07 11:39:39.730460462
2025-11-07 11:39:39.208604,-9,2025-11-07 11:39:39.738152769
2025-11-07 11:39:39.208604,-1537,2025-11-07 11:39:39.745845077
2025-11-07 11:39:39.208604,-1,2025-11-07 11:39:39.753537385
2025-11-07 11:39:39.208604,-12,2025-11-07 11:39:39.761229692
2025-11-07 11:39:39.208604,-3329,2025-11-07 11:39:39.768922000
2025-11-07 11:39:39.208604,-1,2025-11-07 11:39:39.776614308
2025-11-07 11:39:39.208604,-7,2025-11-07 11:39:39.784306615
2025-11-07 11:39:39.208604,767,2025-11-07 11:39:39.791998923
2025-11-07 11:39:39.208604,0,2025-11-07 11:39:39.799691231
2025-11-07 11:39:39.208604,9,2025-11-07 11:39:39.807383538
2025-11-07 11:39:39.208604,2304,2025-11-07 11:39:39.815075846
2025-11-07 11:39:39.208604,0,2025-11-07 11:39:39.822768154
2025-11-07 11:39:39.208604,12,2025-11-07 11:39:39.830460462
2025-11-07 11:39:39.208604,6656,2025-11-07 11:39:39.838152769
2025-11-07 11:39:39.208604,0,2025-11-07 11:39:39.845845077
2025-11-07 11:39:39.208604,31,2025-11-07 11:39:39.853537385
2025-11-07 11:39:39.208604,9728,2025-11-07 11:39:39.861229692
2025-11-07 11:39:39.208604,0,2025-11-07 11:39:39.868922000
2025-11-07 11:39:39.208604,43,2025-11-07 11:39:39.876614308
2025-11-07 11:39:39.208604,10240,2025-11-07 11:39:39.884306615
2025-11-07 11:39:39.208604,0,2025-11-07 11:39:39.891998923
2025-11-07 11:39:39.208604,45,2025-11-07 11:39:39.899691231
2025-11-07 11:39:39.208604,10240,2025-11-07 11:39:39.907383538
2025-11-07 11:39:39.208604,0,2025-11-07 11:39:39.915075846
2025-11-07 11:39:39.208604,36,2025-11-07 11:39:39.922768154
2025-11-07 11:39:39.208604,11008,2025-11-07 11:39:39.930460462
2025-11-07 11:39:39.208604,0,2025-11-07 11:39:39.938152769
2025-11-07 11:39:39.208604,38,2025-11-07 11:39:39.945845077
2025-11-07 11:39:39.208604,8448,2025-11-07 11:39:39.953537385
2025-11-07 11:39:39.208604,0,2025-11-07 11:39:39.961229692
2025-11-07 11:39:39.208604,33,2025-11-07 11:39:39.968922000
2025-11-07 11:39:39.208604,9216,2025-11-07 11:39:39.976614308
2025-11-07 11:39:39.208604,0,2025-11-07 11:39:39.984306615
2025-11-07 11:39:39.208604,31,2025-11-07 11:39:39.991998923
2025-11-07 11:39:39.208604,4096,2025-11-07 11:39:39.999691231
2025-11-07 11:39:39.208604,0,2025-11-07 11:39:40.007383538
2025-11-07 11:39:39.208604,14,2025-11-07 11:39:40.015075846
2025-11-07 11:39:39.208604,3072,2025-11-07 11:39:40.022768154
2025-11-07 11:39:39.208604,0,2025-11-07 11:39:40.030460462
2025-11-07 11:39:39.208604,4,2025-11-07 11:39:40.038152769
2025-11-07 11:39:39.208604,1792,2025-11-07 11:39:40.045845077
2025-11-07 11:39:39.208604,0,2025-11-07 11:39:40.053537385
2025-11-07 11:39:39.208604,7,2025-11-07 11:39:40.061229692
2025-11-07 11:39:39.208604,1024,2025-11-07 11:39:40.068922000
2025-11-07 11:39:39.208604,0,2025-11-07 11:39:40.076614308
2025-11-07 11:39:39.208604,0,2025-11-07 11:39:40.084306615
2025-11-07 11:39:39.208604,-1792,2025-11-07 11:39:40.091998923
2025-11-07 11:39:39.208604,-1,2025-11-07 11:39:40.099691231
2025-11-07 11:39:39.208604,-2,2025-11-07 11:39:40.107383538
2025-11-07 11:39:39.208604,-257,2025-11-07 11:39:40.115075846
2025-11-07 11:39:39.208604,-1,2025-11-07 11:39:40.122768154
2025-11-07 11:39:39.208604,-9,2025-11-07 11:39:40.130460462
2025-11-07 11:39:39.208604,-769,2025-11-07 11:39:40.138152769
2025-11-07 11:39:39.208604,-1,2025-11-07 11:39:40.145845077
2025-11-07 11:39:39.208604,-2,2025-11-07 11:39:40.153537385
2025-11-07 11:39:39.208604,-769,2025-11-07 11:39:40.161229692
2025-11-07 11:39:39.208604,-1,2025-11-07 11:39:40.168922000
2025-11-07 11:39:39.208604,-4,2025-11-07 11:39:40.176614308
2025-11-07 11:39:39.208604,-3329,2025-11-07 11:39:40.184306615
2025-11-07 11:39:39.208604,-1,2025-11-07 11:39:40.191998923
2025-11-07 11:39:39.208604,-19,2025-11-07 11:39:40.199691230
2025-11-07 11:39:39.208604,-5121,2025-11-07 11:39:40.207383538
2025-11-07 11:39:39.208604,-1,2025-11-07 11:39:40.215075846
2025-11-07 11:39:39.208604,-16,2025-11-07 11:39:40.222768154
2025-11-07 11:39:39.208604,-1537,2025-11-07 11:39:40.230460462
2025-11-07 11:39:39.208604,-1,2025-11-07 11:39:40.238152769
2025-11-07 11:39:39.208604,-7,2025-11-07 11:39:40.245845077
2025-11-07 11:39:39.208604,3327,2025-11-07 11:39:40.253537385
2025-11-07 11:39:39.208604,0,2025-11-07 11:39:40.261229692
2025-11-07 11:39:39.208604,21,2025-11-07 11:39:40.268922000
2025-11-07 11:39:39.208604,3072,2025-11-07 11:39:40.276614308
2025-11-07 11:39:39.208604,0,2025-11-07 11:39:40.284306615
2025-11-07 11:39:39.208604,33,2025-11-07 11:39:40.291998923
2025-11-07 11:39:39.208604,14080,2025-11-07 11:39:40.299691231
2025-11-07 11:39:39.208604,0,2025-11-07 11:39:40.307383538
2025-11-07 11:39:39.208604,36,2025-11-07 11:39:40.315075846
2025-11-07 11:39:39.208604,5376,2025-11-07 11:39:40.322768154
2025-11-07 11:39:39.208604,0,2025-11-07 11:39:40.330460462
2025-11-07 11:39:39.208604,33,2025-11-07 11:39:40.338152769
2025-11-07 11:39:39.793694,48,2025-11-07 11:39:40.345845077
2025-11-07 11:39:39.793694,9216,2025-11-07 11:39:40.353537385
2025-11-07 11:39:39.793694,0,2025-11-07 11:39:40.361229692
2025-11-07 11:39:39.793694,36,2025-11-07 11:39:40.368922000
2025-11-07 11:39:39.793694,16384,2025-11-07 11:39:40.376614308
2025-11-07 11:39:39.793694,0,2025-11-07 11:39:40.384306615
2025-11-07 11:39:39.793694,52,2025-11-07 11:39:40.391998923
2025-11-07 11:39:39.793694,-3072,2025-11-07 11:39:40.399691231
2025-11-07 11:39:39.793694,-1,2025-11-07 11:39:40.407383538
2025-11-07 11:39:39.793694,-31,2025-11-07 11:39:40.415075846
2025-11-07 11:39:39.793694,18687,2025-11-07 11:39:40.422768154
2025-11-07 11:39:39.793694,0,2025-11-07 11:39:40.430460462
2025-11-07 11:39:39.793694,322,2025-11-07 11:39:40.438152769
2025-11-07 11:39:39.793694,11008,2025-11-07 11:39:40.445845077
2025-11-07 11:39:39.793694,2,2025-11-07 11:39:40.453537385
2025-11-07 11:39:39.793694,497,2025-11-07 11:39:40.461229692
2025-11-07 11:39:39.793694,7680,2025-11-07 11:39:40.468922000
2025-11-07 11:39:39.793694,1,2025-11-07 11:39:40.476614308
2025-11-07 11:39:39.793694,182,2025-11-07 11:39:40.484306615
2025-11-07 11:39:39.793694,25088,2025-11-07 11:39:40.491998923
2025-11-07 11:39:39.793694,0,2025-11-07 11:39:40.499691231
2025-11-07 11:39:39.793694,2,2025-11-07 11:39:40.507383538
2025-11-07 11:39:39.793694,-2304,2025-11-07 11:39:40.515075846
2025-11-07 11:39:39.793694,-1,2025-11-07 11:39:40.522768154
2025-11-07 11:39:39.793694,14,2025-11-07 11:39:40.530460462
2025-11-07 11:39:39.793694,1024,2025-11-07 11:39:40.538152769
2025-11-07 11:39:39.793694,0,2025-11-07 11:39:40.545845077
2025-11-07 11:39:39.793694,0,2025-11-07 11:39:40.553537385
2025-11-07 11:39:39.793694,-512,2025-11-07 11:39:40.561229692
2025-11-07 11:39:39.793694,-1,2025-11-07 11:39:40.568922000
2025-11-07 11:39:39.793694,-16,2025-11-07 11:39:40.576614308
2025-11-07 11:39:39.793694,-5121,2025-11-07 11:39:40.584306615
2025-11-07 11:39:39.793694,-1,2025-11-07 11:39:40.591998923
2025-11-07 11:39:39.793694,-24,2025-11-07 11:39:40.599691231
2025-11-07 11:39:39.793694,-5889,2025-11-07 11:39:40.607383538
2025-11-07 11:39:39.793694,-1,2025-11-07 11:39:40.615075846
2025-11-07 11:39:39.793694,-19,2025-11-07 11:39:40.622768154
2025-11-07 11:39:39.793694,-5121,2025-11-07 11:39:40.630460462
2025-11-07 11:39:39.793694,-1,2025-11-07 11:39:40.638152769
2025-11-07 11:39:39.793694,-24,2025-11-07 11:39:40.645845077
2025-11-07 11:39:39.793694,-6401,2025-11-07 11:39:40.653537385
2025-11-07 11:39:39.793694,-1,2025-11-07 11:39:40.661229692
2025-11-07 11:39:39.793694,-28,2025-11-07 11:39:40.668922000
2025-11-07 11:39:39.793694,-5121,2025-11-07 11:39:40.676614308
2025-11-07 11:39:39.793694,-1,2025-11-07 11:39:40.684306615
2025-11-07 11:39:39.793694,-16,2025-11-07 11:39:40.691998923
2025-11-07 11:39:39.793694,-3329,2025-11-07 11:39:40.699691231
2025-11-07 11:39:39.793694,-1,2025-11-07 11:39:40.707383538
2025-11-07 11:39:39.793694,-14,2025-11-07 11:39:40.715075846
2025-11-07 11:39:39.793694,255,2025-11-07 11:39:40.722768154
2025-11-07 11:39:39.793694,0,2025-11-07 11:39:40.730460462
2025-11-07 11:39:39.793694,21,2025-11-07 11:39:40.738152769
2025-11-07 11:39:39.793694,6656,2025-11-07 11:39:40.745845077
2025-11-07 11:39:39.793694,0,2025-11-07 11:39:40.753537385
2025-11-07 11:39:39.793694,31,2025-11-07 11:39:40.761229692
2025-11-07 11:39:39.793694,9728,2025-11-07 11:39:40.768922000
2025-11-07 11:39:39.793694,0,2025-11-07 11:39:40.776614308
2025-11-07 11:39:39.793694,26,2025-11-07 11:39:40.784306615
2025-11-07 11:39:39.793694,3584,2025-11-07 11:39:40.791998923
2025-11-07 11:39:39.793694,0,2025-11-07 11:39:40.799691231
2025-11-07 11:39:39.793694,4,2025-11-07 11:39:40.807383538
2025-11-07 11:39:39.793694,-1792,2025-11-07 11:39:40.815075846
2025-11-07 11:39:39.793694,-1,2025-11-07 11:39:40.822768154
2025-11-07 11:39:39.793694,-14,2025-11-07 11:39:40.830460462
2025-11-07 11:39:39.793694,-4609,2025-11-07 11:39:40.838152769
2025-11-07 11:39:39.793694,-1,2025-11-07 11:39:40.845845077
2025-11-07 11:39:39.793694,-12,2025-11-07 11:39:40.853537385
2025-11-07 11:39:39.793694,255,2025-11-07 11:39:40.861229692
2025-11-07 11:39:39.793694,0,2025-11-07 11:39:40.868922000
2025-11-07 11:39:39.793694,7,2025-11-07 11:39:40.876614308
2025-11-07 11:39:39.793694,3072,2025-11-07 11:39:40.884306615
2025-11-07 11:39:39.793694,0,2025-11-07 11:39:40.891998923
2025-11-07 11:39:39.793694,19,2025-11-07 11:39:40.899691231
2025-11-07 11:39:39.793694,6656,2025-11-07 11:39:40.907383538
2025-11-07 11:39:39.793694,0,2025-11-07 11:39:40.915075846
2025-11-07 11:39:39.793694,28,2025-11-07 11:39:40.922768154
2025-11-07 11:39:39.793694,6656,2025-11-07 11:39:40.930460462
2025-11-07 11:39:39.793694,0,2025-11-07 11:39:40.938152769
2025-11-07 11:39:39.793694,28,2025-11-07 11:39:40.945845077
2025-11-07 11:39:39.793694,9216,2025-11-07 11:39:40.953537385
2025-11-07 11:39:39.793694,0,2025-11-07 11:39:40.961229692
2025-11-07 11:39:39.793694,45,2025-11-07 11:39:40.968922000
2025-11-07 11:39:39.793694,14080,2025-11-07 11:39:40.976614308
2025-11-07 11:39:39.793694,0,2025-11-07 11:39:40.984306615
2025-11-07 11:39:39.793694,57,2025-11-07 11:39:40.991998923
2025-11-07 11:39:39.793694,14592,2025-11-07 11:39:40.999691231
2025-11-07 11:39:39.793694,0,2025-11-07 11:39:41.007383538
2025-11-07 11:39:39.793694,64,2025-11-07 11:39:41.015075846
2025-11-07 11:39:39.793694,19456,2025-11-07 11:39:41.022768154
2025-11-07 11:39:39.793694,0,2025-11-07 11:39:41.030460462
2025-11-07 11:39:39.793694,88,2025-11-07 11:39:41.038152769
2025-11-07 11:39:39.793694,22528,2025-11-07 11:39:41.045845077
2025-11-07 11:39:39.793694,0,2025-11-07 11:39:41.053537385
2025-11-07 11:39:39.793694,96,2025-11-07 11:39:41.061229692
2025-11-07 11:39:39.793694,31232,2025-11-07 11:39:41.068922000
2025-11-07 11:39:39.793694,0,2025-11-07 11:39:41.076614308
2025-11-07 11:39:39.793694,137,2025-11-07 11:39:41.084306615
2025-11-07 11:39:39.793694,-27392,2025-11-07 11:39:41.091998923
2025-11-07 11:39:39.793694,0,2025-11-07 11:39:41.099691231
2025-11-07 11:39:39.793694,158,2025-11-07 11:39:41.107383538
2025-11-07 11:39:39.793694,-22528,2025-11-07 11:39:41.115075846
2025-11-07 11:39:39.793694,0,2025-11-07 11:39:41.122768154
2025-11-07 11:39:39.793694,175,2025-11-07 11:39:41.130460462
2025-11-07 11:39:39.793694,-22528,2025-11-07 11:39:41.138152769
2025-11-07 11:39:39.793694,0,2025-11-07 11:39:41.145845077
2025-11-07 11:39:39.793694,151,2025-11-07 11:39:41.153537385
2025-11-07 11:39:39.793694,-31232,2025-11-07 11:39:41.161229692
2025-11-07 11:39:39.793694,0,2025-11-07 11:39:41.168922000
2025-11-07 11:39:39.793694,117,2025-11-07 11:39:41.176614308
2025-11-07 11:39:40.333756,103,2025-11-07 11:39:41.184306615
2025-11-07 11:39:40.333756,20736,2025-11-07 11:39:41.191998923
2025-11-07 11:39:40.333756,0,2025-11-07 11:39:41.199691230
2025-11-07 11:39:40.333756,67,2025-11-07 11:39:41.207383538
2025-11-07 11:39:40.333756,17152,2025-11-07 11:39:41.215075846
2025-11-07 11:39:40.333756,0,2025-11-07 11:39:41.222768154
2025-11-07 11:39:40.333756,64,2025-11-07 11:39:41.230460462
2025-11-07 11:39:40.333756,16384,2025-11-07 11:39:41.238152769
2025-11-07 11:39:40.333756,0,2025-11-07 11:39:41.245845077
2025-11-07 11:39:40.333756,76,2025-11-07 11:39:41.253537385
2025-11-07 11:39:40.333756,22016,2025-11-07 11:39:41.261229692
2025-11-07 11:39:40.333756,0,2025-11-07 11:39:41.268922000
2025-11-07 11:39:40.333756,86,2025-11-07 11:39:41.276614308
2025-11-07 11:39:40.333756,23808,2025-11-07 11:39:41.284306615
2025-11-07 11:39:40.333756,0,2025-11-07 11:39:41.291998923
2025-11-07 11:39:40.333756,76,2025-11-07 11:39:41.299691231
2025-11-07 11:39:40.333756,7936,2025-11-07 11:39:41.307383538
2025-11-07 11:39:40.333756,0,2025-11-07 11:39:41.315075846
2025-11-07 11:39:40.333756,12,2025-11-07 11:39:41.322768154
2025-11-07 11:39:40.333756,4096,2025-11-07 11:39:41.330460462
2025-11-07 11:39:40.333756,0,2025-11-07 11:39:41.338152769
2025-11-07 11:39:40.333756,9,2025-11-07 11:39:41.345845077
2025-11-07 11:39:40.333756,-1024,2025-11-07 11:39:41.353537385
2025-11-07 11:39:40.333756,-1,2025-11-07 11:39:41.361229692
2025-11-07 11:39:40.333756,-19,2025-11-07 11:39:41.368922000
2025-11-07 11:39:40.333756,-13057,2025-11-07 11:39:41.376614308
2025-11-07 11:39:40.333756,-1,2025-11-07 11:39:41.384306615
2025-11-07 11:39:40.333756,-129,2025-11-07 11:39:41.391998923
2025-11-07 11:39:40.333756,4863,2025-11-07 11:39:41.399691231
2025-11-07 11:39:40.333756,-1,2025-11-07 11:39:41.407383538
2025-11-07 11:39:40.333756,-288,2025-11-07 11:39:41.415075846
2025-11-07 11:39:40.333756,22271,2025-11-07 11:39:41.422768154
2025-11-07 11:39:40.333756,-1,2025-11-07 11:39:41.430460462
2025-11-07 11:39:40.333756,144,2025-11-07 11:39:41.438152769
2025-11-07 11:39:40.333756,29184,2025-11-07 11:39:41.445845077
2025-11-07 11:39:40.333756,1,2025-11-07 11:39:41.453537385
2025-11-07 11:39:40.333756,262,2025-11-07 11:39:41.461229692
2025-11-07 11:39:40.333756,17152,2025-11-07 11:39:41.468922000
2025-11-07 11:39:40.333756,0,2025-11-07 11:39:41.476614308
2025-11-07 11:39:40.333756,-24,2025-11-07 11:39:41.484306615
2025-11-07 11:39:40.333756,-19201,2025-11-07 11:39:41.491998923
2025-11-07 11:39:40.333756,-1,2025-11-07 11:39:41.499691231
2025-11-07 11:39:40.333756,-91,2025-11-07 11:39:41.507383538
2025-11-07 11:39:40.333756,-13825,2025-11-07 11:39:41.515075846
2025-11-07 11:39:40.333756,-1,2025-11-07 11:39:41.522768154
2025-11-07 11:39:40.333756,-12,2025-11-07 11:39:41.530460462
2025-11-07 11:39:40.333756,8703,2025-11-07 11:39:41.538152769
2025-11-07 11:39:40.333756,0,2025-11-07 11:39:41.545845077
2025-11-07 11:39:40.333756,84,2025-11-07 11:39:41.553537385
2025-11-07 11:39:40.333756,28160,2025-11-07 11:39:41.561229692
2025-11-07 11:39:40.333756,0,2025-11-07 11:39:41.568922000
2025-11-07 11:39:40.333756,129,2025-11-07 11:39:41.576614308
2025-11-07 11:39:40.333756,-17152,2025-11-07 11:39:41.584306615
2025-11-07 11:39:40.333756,0,2025-11-07 11:39:41.591998923
2025-11-07 11:39:40.333756,252,2025-11-07 11:39:41.599691231
2025-11-07 11:39:40.333756,-1536,2025-11-07 11:39:41.607383538
2025-11-07 11:39:40.333756,0,2025-11-07 11:39:41.615075846
2025-11-07 11:39:40.333756,218,2025-11-07 11:39:41.622768154
2025-11-07 11:39:40.333756,-8448,2025-11-07 11:39:41.630460462
2025-11-07 11:39:40.333756,0,2025-11-07 11:39:41.638152769
2025-11-07 11:39:40.333756,245,2025-11-07 11:39:41.645845077
2025-11-07 11:39:40.333756,5632,2025-11-07 11:39:41.653537385
2025-11-07 11:39:40.333756,1,2025-11-07 11:39:41.661229692
2025-11-07 11:39:40.333756,327,2025-11-07 11:39:41.668922000
2025-11-07 11:39:40.333756,18176,2025-11-07 11:39:41.676614308
2025-11-07 11:39:40.333756,1,2025-11-07 11:39:41.684306615
2025-11-07 11:39:40.333756,257,2025-11-07 11:39:41.691998923
2025-11-07 11:39:40.333756,-11520,2025-11-07 11:39:41.699691231
2025-11-07 11:39:40.333756,0,2025-11-07 11:39:41.707383538
2025-11-07 11:39:40.333756,230,2025-11-07 11:39:41.715075846
2025-11-07 11:39:40.333756,-1536,2025-11-07 11:39:41.722768154
2025-11-07 11:39:40.333756,0,2025-11-07 11:39:41.730460462
2025-11-07 11:39:40.333756,228,2025-11-07 11:39:41.738152769
2025-11-07 11:39:40.333756,-12800,2025-11-07 11:39:41.745845077
2025-11-07 11:39:40.333756,0,2025-11-07 11:39:41.753537385
2025-11-07 11:39:40.333756,192,2025-11-07 11:39:41.761229692
2025-11-07 11:39:40.333756,-26368,2025-11-07 11:39:41.768922000
2025-11-07 11:39:40.333756,0,2025-11-07 11:39:41.776614308
2025-11-07 11:39:40.333756,96,2025-11-07 11:39:41.784306615
2025-11-07 11:39:40.333756,7168,2025-11-07 11:39:41.791998923
2025-11-07 11:39:40.333756,0,2025-11-07 11:39:41.799691231
2025-11-07 11:39:40.333756,-52,2025-11-07 11:39:41.807383538
2025-11-07 11:39:40.333756,-28673,2025-11-07 11:39:41.815075846
2025-11-07 11:39:40.333756,-1,2025-11-07 11:39:41.822768154
2025-11-07 11:39:40.333756,-149,2025-11-07 11:39:41.830460462
2025-11-07 11:39:40.333756,16639,2025-11-07 11:39:41.838152769
2025-11-07 11:39:40.333756,-1,2025-11-07 11:39:41.845845077
2025-11-07 11:39:40.333756,-226,2025-11-07 11:39:41.853537385
2025-11-07 11:39:40.333756,3839,2025-11-07 11:39:41.861229692
2025-11-07 11:39:40.333756,-1,2025-11-07 11:39:41.868922000
2025-11-07 11:39:40.333756,-257,2025-11-07 11:39:41.876614308
2025-11-07 11:39:40.333756,-2305,2025-11-07 11:39:41.884306615
2025-11-07 11:39:40.333756,-2,2025-11-07 11:39:41.891998923
2025-11-07 11:39:40.333756,-271,2025-11-07 11:39:41.899691231
2025-11-07 11:39:40.333756,-4353,2025-11-07 11:39:41.907383538
2025-11-07 11:39:40.333756,-2,2025-11-07 11:39:41.915075846
2025-11-07 11:39:40.333756,-266,2025-11-07 11:39:41.922768154
2025-11-07 11:39:40.333756,1279,2025-11-07 11:39:41.930460462
2025-11-07 11:39:40.333756,-1,2025-11-07 11:39:41.938152769
2025-11-07 11:39:40.333756,-245,2025-11-07 11:39:41.945845077
2025-11-07 11:39:40.333756,6143,2025-11-07 11:39:41.953537385
2025-11-07 11:39:40.333756,-1,2025-11-07 11:39:41.961229692
2025-11-07 11:39:40.333756,-211,2025-11-07 11:39:41.968922000
2025-11-07 11:39:40.333756,13567,2025-11-07 11:39:41.976614308
2025-11-07 11:39:40.333756,-1,2025-11-07 11:39:41.984306615
2025-11-07 11:39:40.333756,-202,2025-11-07 11:39:41.991998923
2025-11-07 11:39:40.333756,16639,2025-11-07 11:39:41.999691231
2025-11-07 11:39:40.333756,-1,2025-11-07 11:39:42.007383538
2025-11-07 11:39:40.333756,-187,2025-11-07 11:39:42.015075846
2025-11-07 11:39:40.873414,-192,2025-11-07 11:39:42.022768154
2025-11-07 11:39:40.873414,14079,2025-11-07 11:39:42.030460462
2025-11-07 11:39:40.873414,-1,2025-11-07 11:39:42.038152769
2025-11-07 11:39:40.873414,-216,2025-11-07 11:39:42.045845077
2025-11-07 11:39:40.873414,6143,2025-11-07 11:39:42.053537385
2025-11-07 11:39:40.873414,-1,2025-11-07 11:39:42.061229692
2025-11-07 11:39:40.873414,-247,2025-11-07 11:39:42.068922000
2025-11-07 11:39:40.873414,767,2025-11-07 11:39:42.076614308
2025-11-07 11:39:40.873414,-1,2025-11-07 11:39:42.084306615
2025-11-07 11:39:40.873414,-242,2025-11-07 11:39:42.091998923
2025-11-07 11:39:40.873414,9215,2025-11-07 11:39:42.099691231
2025-11-07 11:39:40.873414,-1,2025-11-07 11:39:42.107383538
2025-11-07 11:39:40.873414,-226,2025-11-07 11:39:42.115075846
2025-11-07 11:39:40.873414,6911,2025-11-07 11:39:42.122768154
2025-11-07 11:39:40.873414,-1,2025-11-07 11:39:42.130460462
2025-11-07 11:39:40.873414,-211,2025-11-07 11:39:42.138152769
2025-11-07 11:39:40.873414,15359,2025-11-07 11:39:42.145845077
2025-11-07 11:39:40.873414,-1,2025-11-07 11:39:42.153537385
2025-11-07 11:39:40.873414,-187,2025-11-07 11:39:42.161229692
2025-11-07 11:39:40.873414,21503,2025-11-07 11:39:42.168922000
2025-11-07 11:39:40.873414,-1,2025-11-07 11:39:42.176614308
2025-11-07 11:39:40.873414,-149,2025-11-07 11:39:42.184306615
2025-11-07 11:39:40.873414,-29185,2025-11-07 11:39:42.191998923
2025-11-07 11:39:40.873414,-1,2025-11-07 11:39:42.199691230
2025-11-07 11:39:40.873414,-103,2025-11-07 11:39:42.207383538
2025-11-07 11:39:40.873414,-29185,2025-11-07 11:39:42.215075846
2025-11-07 11:39:40.873414,-1,2025-11-07 11:39:42.222768154
2025-11-07 11:39:40.873414,-108,2025-11-07 11:39:42.230460462
2025-11-07 11:39:40.873414,-24321,2025-11-07 11:39:42.238152769
2025-11-07 11:39:40.873414,-1,2025-11-07 11:39:42.245845077
2025-11-07 11:39:40.873414,-125,2025-11-07 11:39:42.253537385
2025-11-07 11:39:40.873414,26623,2025-11-07 11:39:42.261229692
2025-11-07 11:39:40.873414,-1,2025-11-07 11:39:42.268922000
2025-11-07 11:39:40.873414,-158,2025-11-07 11:39:42.276614308
2025-11-07 11:39:40.873414,19711,2025-11-07 11:39:42.284306615
2025-11-07 11:39:40.873414,-1,2025-11-07 11:39:42.291998923
2025-11-07 11:39:40.873414,-216,2025-11-07 11:39:42.299691231
2025-11-07 11:39:40.873414,7423,2025-11-07 11:39:42.307383538
2025-11-07 11:39:40.873414,-1,2025-11-07 11:39:42.315075846
2025-11-07 11:39:40.873414,-226,2025-11-07 11:39:42.322768154
2025-11-07 11:39:40.873414,7423,2025-11-07 11:39:42.330460462
2025-11-07 11:39:40.873414,-1,2025-11-07 11:39:42.338152769
2025-11-07 11:39:40.873414,-264,2025-11-07 11:39:42.345845077
2025-11-07 11:39:40.873414,-20225,2025-11-07 11:39:42.353537385
2025-11-07 11:39:40.873414,-2,2025-11-07 11:39:42.361229692
2025-11-07 11:39:40.873414,-310,2025-11-07 11:39:42.368922000
2025-11-07 11:39:40.873414,-15105,2025-11-07 11:39:42.376614308
2025-11-07 11:39:40.873414,-1,2025-11-07 11:39:42.384306615
2025-11-07 11:39:40.873414,334,2025-11-07 11:39:42.391998923
2025-11-07 11:39:40.873414,-3072,2025-11-07 11:39:42.399691231
2025-11-07 11:39:40.873414,1,2025-11-07 11:39:42.407383538
2025-11-07 11:39:40.873414,303,2025-11-07 11:39:42.415075846
2025-11-07 11:39:40.873414,17152,2025-11-07 11:39:42.422768154
2025-11-07 11:39:40.873414,0,2025-11-07 11:39:42.430460462
2025-11-07 11:39:40.873414,-86,2025-11-07 11:39:42.438152769
2025-11-07 11:39:40.873414,13055,2025-11-07 11:39:42.445845077
2025-11-07 11:39:40.873414,-1,2025-11-07 11:39:42.453537385
2025-11-07 11:39:40.873414,-250,2025-11-07 11:39:42.461229692
2025-11-07 11:39:40.873414,1279,2025-11-07 11:39:42.468922000
2025-11-07 11:39:40.873414,-1,2025-11-07 11:39:42.476614308
2025-11-07 11:39:40.873414,-254,2025-11-07 11:39:42.484306615
2025-11-07 11:39:40.873414,3071,2025-11-07 11:39:42.491998923
2025-11-07 11:39:40.873414,-1,2025-11-07 11:39:42.499691231
2025-11-07 11:39:40.873414,-235,2025-11-07 11:39:42.507383538
2025-11-07 11:39:40.873414,9983,2025-11-07 11:39:42.515075846
2025-11-07 11:39:40.873414,-1,2025-11-07 11:39:42.522768154
2025-11-07 11:39:40.873414,-173,2025-11-07 11:39:42.530460462
2025-11-07 11:39:40.873414,-29697,2025-11-07 11:39:42.538152769
2025-11-07 11:39:40.873414,-1,2025-11-07 11:39:42.545845077
2025-11-07 11:39:40.873414,-76,2025-11-07 11:39:42.553537385
2025-11-07 11:39:40.873414,-13825,2025-11-07 11:39:42.561229692
2025-11-07 11:39:40.873414,-1,2025-11-07 11:39:42.568922000
2025-11-07 11:39:40.873414,-33,2025-11-07 11:39:42.576614308
2025-11-07 11:39:40.873414,2047,2025-11-07 11:39:42.584306615
2025-11-07 11:39:40.873414,0,2025-11-07 11:39:42.591998923
2025-11-07 11:39:40.873414,33,2025-11-07 11:39:42.599691231
2025-11-07 11:39:40.873414,7168,2025-11-07 11:39:42.607383538
2025-11-07 11:39:40.873414,0,2025-11-07 11:39:42.615075846
2025-11-07 11:39:40.873414,26,2025-11-07 11:39:42.622768154
2025-11-07 11:39:40.873414,3584,2025-11-07 11:39:42.630460462
2025-11-07 11:39:40.873414,0,2025-11-07 11:39:42.638152769
2025-11-07 11:39:40.873414,-14,2025-11-07 11:39:42.645845077
2025-11-07 11:39:40.873414,-8193,2025-11-07 11:39:42.653537385
2025-11-07 11:39:40.873414,-1,2025-11-07 11:39:42.661229692
2025-11-07 11:39:40.873414,-38,2025-11-07 11:39:42.668922000
2025-11-07 11:39:40.873414,-7681,2025-11-07 11:39:42.676614308
2025-11-07 11:39:40.873414,-1,2025-11-07 11:39:42.684306615
2025-11-07 11:39:40.873414,-12,2025-11-07 11:39:42.691998923
2025-11-07 11:39:40.873414,1279,2025-11-07 11:39:42.699691231
2025-11-07 11:39:40.873414,0,2025-11-07 11:39:42.707383538
2025-11-07 11:39:40.873414,0,2025-11-07 11:39:42.715075846
2025-11-07 11:39:40.873414,-9216,2025-11-07 11:39:42.722768154
2025-11-07 11:39:40.873414,-1,2025-11-07 11:39:42.730460462
2025-11-07 11:39:40.873414,-101,2025-11-07 11:39:42.738152769
2025-11-07 11:39:40.873414,23551,2025-11-07 11:39:42.745845077
2025-11-07 11:39:40.873414,-1,2025-11-07 11:39:42.753537385
2025-11-07 11:39:40.873414,-221,2025-11-07 11:39:42.761229692
2025-11-07 11:39:40.873414,-8449,2025-11-07 11:39:42.768922000
2025-11-07 11:39:40.873414,-2,2025-11-07 11:39:42.776614308
2025-11-07 11:39:40.873414,-351,2025-11-07 11:39:42.784306615
2025-11-07 11:39:40.873414,-23297,2025-11-07 11:39:42.791998923
2025-11-07 11:39:40.873414,-2,2025-11-07 11:39:42.799691231
2025-11-07 11:39:40.873414,-334,2025-11-07 11:39:42.807383538
2025-11-07 11:39:40.873414,-28929,2025-11-07 11:39:42.815075846
2025-11-07 11:39:40.873414,-2,2025-11-07 11:39:42.822768154
2025-11-07 11:39:40.873414,-396,2025-11-07 11:39:42.830460462
2025-11-07 11:39:40.873414,32255,2025-11-07 11:39:42.838152769
2025-11-07 11:39:40.873414,-2,2025-11-07 11:39:42.845845077
2025-11-07 11:39:40.873414,-384,2025-11-07 11:39:42.853537385
2025-11-07 11:39:41.548792,-382,2025-11-07 11:39:42.861229692
2025-11-07 11:39:41.548792,-30209,2025-11-07 11:39:42.868922000
2025-11-07 11:39:41.548792,-2,2025-11-07 11:39:42.876614308
2025-11-07 11:39:41.548792,-375,2025-11-07 11:39:42.884306615
2025-11-07 11:39:41.548792,-27649,2025-11-07 11:39:42.891998923
2025-11-07 11:39:41.548792,-2,2025-11-07 11:39:42.899691231
2025-11-07 11:39:41.548792,-343,2025-11-07 11:39:42.907383538
2025-11-07 11:39:41.548792,-23297,2025-11-07 11:39:42.915075846
2025-11-07 11:39:41.548792,-2,2025-11-07 11:39:42.922768154
2025-11-07 11:39:41.548792,-370,2025-11-07 11:39:42.930460462
2025-11-07 11:39:41.548792,-28929,2025-11-07 11:39:42.938152769
2025-11-07 11:39:41.548792,-2,2025-11-07 11:39:42.945845077
2025-11-07 11:39:41.548792,-336,2025-11-07 11:39:42.953537385
2025-11-07 11:39:41.548792,-14081,2025-11-07 11:39:42.961229692
2025-11-07 11:39:41.548792,-2,2025-11-07 11:39:42.968922000
2025-11-07 11:39:41.548792,-336,2025-11-07 11:39:42.976614308
2025-11-07 11:39:41.548792,-30721,2025-11-07 11:39:42.984306615
2025-11-07 11:39:41.548792,-2,2025-11-07 11:39:42.991998923
2025-11-07 11:39:41.548792,-377,2025-11-07 11:39:42.999691231
2025-11-07 11:39:41.548792,-27649,2025-11-07 11:39:43.007383538
2025-11-07 11:39:41.548792,-2,2025-11-07 11:39:43.015075846
2025-11-07 11:39:41.548792,-379,2025-11-07 11:39:43.022768154
2025-11-07 11:39:41.548792,29951,2025-11-07 11:39:43.030460462
2025-11-07 11:39:41.548792,-2,2025-11-07 11:39:43.038152769
2025-11-07 11:39:41.548792,-387,2025-11-07 11:39:43.045845077
2025-11-07 11:39:41.548792,-32513,2025-11-07 11:39:43.053537385
2025-11-07 11:39:41.548792,-2,2025-11-07 11:39:43.061229692
2025-11-07 11:39:41.548792,-408,2025-11-07 11:39:43.068922000
2025-11-07 11:39:41.548792,21759,2025-11-07 11:39:43.076614308
2025-11-07 11:39:41.548792,-2,2025-11-07 11:39:43.084306615
2025-11-07 11:39:41.548792,-432,2025-11-07 11:39:43.091998923
2025-11-07 11:39:41.548792,19967,2025-11-07 11:39:43.099691231
2025-11-07 11:39:41.548792,-2,2025-11-07 11:39:43.107383538
2025-11-07 11:39:41.548792,-437,2025-11-07 11:39:43.115075846
2025-11-07 11:39:41.548792,18175,2025-11-07 11:39:43.122768154
2025-11-07 11:39:41.548792,-2,2025-11-07 11:39:43.130460462
2025-11-07 11:39:41.548792,-432,2025-11-07 11:39:43.138152769
2025-11-07 11:39:41.548792,24319,2025-11-07 11:39:43.145845077
2025-11-07 11:39:41.548792,-2,2025-11-07 11:39:43.153537385
2025-11-07 11:39:41.548792,-406,2025-11-07 11:39:43.161229692
2025-11-07 11:39:41.548792,29951,2025-11-07 11:39:43.168922000
2025-11-07 11:39:41.548792,-2,2025-11-07 11:39:43.176614308
2025-11-07 11:39:41.548792,-387,2025-11-07 11:39:43.184306615
2025-11-07 11:39:41.548792,-29441,2025-11-07 11:39:43.191998923
2025-11-07 11:39:41.548792,-2,2025-11-07 11:39:43.199691230
2025-11-07 11:39:41.548792,-372,2025-11-07 11:39:43.207383538
2025-11-07 11:39:41.548792,-31233,2025-11-07 11:39:43.215075846
2025-11-07 11:39:41.548792,-2,2025-11-07 11:39:43.222768154
2025-11-07 11:39:41.548792,-382,2025-11-07 11:39:43.230460462
2025-11-07 11:39:41.548792,-32001,2025-11-07 11:39:43.238152769
2025-11-07 11:39:41.548792,-2,2025-11-07 11:39:43.245845077
2025-11-07 11:39:41.548792,-382,2025-11-07 11:39:43.253537385
2025-11-07 11:39:41.548792,-28929,2025-11-07 11:39:43.261229692
2025-11-07 11:39:41.548792,-2,2025-11-07 11:39:43.268922000
2025-11-07 11:39:41.548792,-358,2025-11-07 11:39:43.276614308
2025-11-07 11:39:41.548792,-27137,2025-11-07 11:39:43.284306615
2025-11-07 11:39:41.548792,-2,2025-11-07 11:39:43.291998923
2025-11-07 11:39:41.548792,-343,2025-11-07 11:39:43.299691231
2025-11-07 11:39:41.548792,-13569,2025-11-07 11:39:43.307383538
2025-11-07 11:39:41.548792,-2,2025-11-07 11:39:43.315075846
2025-11-07 11:39:41.548792,-341,2025-11-07 11:39:43.322768154
2025-11-07 11:39:41.548792,19455,2025-11-07 11:39:43.330460462
2025-11-07 11:39:41.548792,-2,2025-11-07 11:39:43.338152769
2025-11-07 11:39:41.548792,-478,2025-11-07 11:39:43.345845077
2025-11-07 11:39:41.548792,-16641,2025-11-07 11:39:43.353537385
2025-11-07 11:39:41.548792,-2,2025-11-07 11:39:43.361229692
2025-11-07 11:39:41.548792,62,2025-11-07 11:39:43.368922000
2025-11-07 11:39:41.548792,24320,2025-11-07 11:39:43.376614308
2025-11-07 11:39:41.548792,1,2025-11-07 11:39:43.384306615
2025-11-07 11:39:41.548792,254,2025-11-07 11:39:43.391998923
2025-11-07 11:39:41.548792,4864,2025-11-07 11:39:43.399691231
2025-11-07 11:39:41.548792,0,2025-11-07 11:39:43.407383538
2025-11-07 11:39:41.548792,-125,2025-11-07 11:39:43.415075846
2025-11-07 11:39:41.548792,11007,2025-11-07 11:39:43.422768154
2025-11-07 11:39:41.548792,-1,2025-11-07 11:39:43.430460462
2025-11-07 11:39:41.548792,-269,2025-11-07 11:39:43.438152769
2025-11-07 11:39:41.548792,-4353,2025-11-07 11:39:43.445845077
2025-11-07 11:39:41.548792,-2,2025-11-07 11:39:43.453537385
2025-11-07 11:39:41.548792,-238,2025-11-07 11:39:43.461229692
2025-11-07 11:39:41.548792,9983,2025-11-07 11:39:43.468922000
2025-11-07 11:39:41.548792,-1,2025-11-07 11:39:43.476614308
2025-11-07 11:39:41.548792,-206,2025-11-07 11:39:43.484306615
2025-11-07 11:39:41.548792,15359,2025-11-07 11:39:43.491998923
2025-11-07 11:39:41.548792,-1,2025-11-07 11:39:43.499691231
2025-11-07 11:39:41.548792,-204,2025-11-07 11:39:43.507383538
2025-11-07 11:39:41.548792,19199,2025-11-07 11:39:43.515075846
2025-11-07 11:39:41.548792,-1,2025-11-07 11:39:43.522768154
2025-11-07 11:39:41.548792,-161,2025-11-07 11:39:43.530460462
2025-11-07 11:39:41.548792,16639,2025-11-07 11:39:43.538152769
2025-11-07 11:39:41.548792,-1,2025-11-07 11:39:43.545845077
2025-11-07 11:39:41.548792,-226,2025-11-07 11:39:43.553537385
2025-11-07 11:39:41.548792,8703,2025-11-07 11:39:43.561229692
2025-11-07 11:39:41.548792,-1,2025-11-07 11:39:43.568922000
2025-11-07 11:39:41.548792,-218,2025-11-07 11:39:43.576614308
2025-11-07 11:39:41.548792,6911,2025-11-07 11:39:43.584306615
2025-11-07 11:39:41.548792,-1,2025-11-07 11:39:43.591998923
2025-11-07 11:39:41.548792,-250,2025-11-07 11:39:43.599691231
2025-11-07 11:39:41.548792,-2305,2025-11-07 11:39:43.607383538
2025-11-07 11:39:41.548792,-2,2025-11-07 11:39:43.615075846
2025-11-07 11:39:41.548792,-254,2025-11-07 11:39:43.622768154
2025-11-07 11:39:41.548792,2559,2025-11-07 11:39:43.630460462
2025-11-07 11:39:41.548792,-1,2025-11-07 11:39:43.638152769
2025-11-07 11:39:41.548792,-269,2025-11-07 11:39:43.645845077
2025-11-07 11:39:41.548792,-1793,2025-11-07 11:39:43.653537385
2025-11-07 11:39:41.548792,-2,2025-11-07 11:39:43.661229692
2025-11-07 11:39:41.548792,-250,2025-11-07 11:39:43.668922000
2025-11-07 11:39:41.548792,-1281,2025-11-07 11:39:43.676614308
2025-11-07 11:39:41.548792,-2,2025-11-07 11:39:43.684306615
2025-11-07 11:39:41.548792,-262,2025-11-07 11:39:43.691998923
2025-11-07 11:39:42.088784,-262,2025-11-07 11:39:43.699691231
2025-11-07 11:39:42.088784,-4353,2025-11-07 11:39:43.707383538
2025-11-07 11:39:42.088784,-2,2025-11-07 11:39:43.715075846
2025-11-07 11:39:42.088784,-257,2025-11-07 11:39:43.722768154
2025-11-07 11:39:42.088784,4863,2025-11-07 11:39:43.730460462
2025-11-07 11:39:42.088784,-1,2025-11-07 11:39:43.738152769
2025-11-07 11:39:42.088784,-257,2025-11-07 11:39:43.745845077
2025-11-07 11:39:42.088784,-2305,2025-11-07 11:39:43.753537385
2025-11-07 11:39:42.088784,-2,2025-11-07 11:39:43.761229692
2025-11-07 11:39:42.088784,-245,2025-11-07 11:39:43.768922000
2025-11-07 11:39:42.088784,4863,2025-11-07 11:39:43.776614308
2025-11-07 11:39:42.088784,-1,2025-11-07 11:39:43.784306615
2025-11-07 11:39:42.088784,-245,2025-11-07 11:39:43.791998923
2025-11-07 11:39:42.088784,4351,2025-11-07 11:39:43.799691231
2025-11-07 11:39:42.088784,-1,2025-11-07 11:39:43.807383538
2025-11-07 11:39:42.088784,-238,2025-11-07 11:39:43.815075846
2025-11-07 11:39:42.088784,3839,2025-11-07 11:39:43.822768154
2025-11-07 11:39:42.088784,-1,2025-11-07 11:39:43.830460462
2025-11-07 11:39:42.088784,-238,2025-11-07 11:39:43.838152769
2025-11-07 11:39:42.088784,7423,2025-11-07 11:39:43.845845077
2025-11-07 11:39:42.088784,-1,2025-11-07 11:39:43.853537385
2025-11-07 11:39:42.088784,-228,2025-11-07 11:39:43.861229692
2025-11-07 11:39:42.088784,10495,2025-11-07 11:39:43.868922000
2025-11-07 11:39:42.088784,-1,2025-11-07 11:39:43.876614308
2025-11-07 11:39:42.088784,-206,2025-11-07 11:39:43.884306615
2025-11-07 11:39:42.088784,9215,2025-11-07 11:39:43.891998923
2025-11-07 11:39:42.088784,-1,2025-11-07 11:39:43.899691231
2025-11-07 11:39:42.088784,-206,2025-11-07 11:39:43.907383538
2025-11-07 11:39:42.088784,24575,2025-11-07 11:39:43.915075846
2025-11-07 11:39:42.088784,-1,2025-11-07 11:39:43.922768154
2025-11-07 11:39:42.088784,-163,2025-11-07 11:39:43.930460462
2025-11-07 11:39:42.088784,12287,2025-11-07 11:39:43.938152769
2025-11-07 11:39:42.088784,-1,2025-11-07 11:39:43.945845077
2025-11-07 11:39:42.088784,-211,2025-11-07 11:39:43.953537385
2025-11-07 11:39:42.088784,14847,2025-11-07 11:39:43.961229692
2025-11-07 11:39:42.088784,-1,2025-11-07 11:39:43.968922000
2025-11-07 11:39:42.088784,-226,2025-11-07 11:39:43.976614308
2025-11-07 11:39:42.088784,3839,2025-11-07 11:39:43.984306615
2025-11-07 11:39:42.088784,-1,2025-11-07 11:39:43.991998923
2025-11-07 11:39:42.088784,-238,2025-11-07 11:39:43.999691231
2025-11-07 11:39:42.088784,3839,2025-11-07 11:39:44.007383538
2025-11-07 11:39:42.088784,-1,2025-11-07 11:39:44.015075846
2025-11-07 11:39:42.088784,-240,2025-11-07 11:39:44.022768154
2025-11-07 11:39:42.088784,3839,2025-11-07 11:39:44.030460462
2025-11-07 11:39:42.088784,-1,2025-11-07 11:39:44.038152769
2025-11-07 11:39:42.088784,-254,2025-11-07 11:39:44.045845077
2025-11-07 11:39:42.088784,-513,2025-11-07 11:39:44.053537385
2025-11-07 11:39:42.088784,-2,2025-11-07 11:39:44.061229692
2025-11-07 11:39:42.088784,-274,2025-11-07 11:39:44.068922000
2025-11-07 11:39:42.088784,-7425,2025-11-07 11:39:44.076614308
2025-11-07 11:39:42.088784,-2,2025-11-07 11:39:44.084306615
2025-11-07 11:39:42.088784,-290,2025-11-07 11:39:44.091998923
2025-11-07 11:39:42.088784,-12289,2025-11-07 11:39:44.099691231
2025-11-07 11:39:42.088784,-2,2025-11-07 11:39:44.107383538
2025-11-07 11:39:42.088784,-307,2025-11-07 11:39:44.115075846
2025-11-07 11:39:42.088784,-7937,2025-11-07 11:39:44.122768154
2025-11-07 11:39:42.088784,-2,2025-11-07 11:39:44.130460462
2025-11-07 11:39:42.088784,-295,2025-11-07 11:39:44.138152769
2025-11-07 11:39:42.088784,-18945,2025-11-07 11:39:44.145845077
2025-11-07 11:39:42.088784,-2,2025-11-07 11:39:44.153537385
2025-11-07 11:39:42.088784,-351,2025-11-07 11:39:44.161229692
2025-11-07 11:39:42.088784,-17921,2025-11-07 11:39:44.168922000
2025-11-07 11:39:42.088784,-2,2025-11-07 11:39:44.176614308
2025-11-07 11:39:42.088784,-307,2025-11-07 11:39:44.184306615
2025-11-07 11:39:42.088784,-11777,2025-11-07 11:39:44.191998923
2025-11-07 11:39:42.088784,-2,2025-11-07 11:39:44.199691230
2025-11-07 11:39:42.088784,-276,2025-11-07 11:39:44.207383538
2025-11-07 11:39:42.088784,3839,2025-11-07 11:39:44.215075846
2025-11-07 11:39:42.088784,-1,2025-11-07 11:39:44.222768154
2025-11-07 11:39:42.088784,-238,2025-11-07 11:39:44.230460462
2025-11-07 11:39:42.088784,3839,2025-11-07 11:39:44.238152769
2025-11-07 11:39:42.088784,-1,2025-11-07 11:39:44.245845077
2025-11-07 11:39:42.088784,-221,2025-11-07 11:39:44.253537385
2025-11-07 11:39:42.088784,16639,2025-11-07 11:39:44.261229692
2025-11-07 11:39:42.088784,-1,2025-11-07 11:39:44.268922000
2025-11-07 11:39:42.088784,-185,2025-11-07 11:39:44.276614308
2025-11-07 11:39:42.088784,23551,2025-11-07 11:39:44.284306615
2025-11-07 11:39:42.088784,-1,2025-11-07 11:39:44.291998923
2025-11-07 11:39:42.088784,-129,2025-11-07 11:39:44.299691231
2025-11-07 11:39:42.088784,-30977,2025-11-07 11:39:44.307383538
2025-11-07 11:39:42.088784,-1,2025-11-07 11:39:44.315075846
2025-11-07 11:39:42.088784,-115,2025-11-07 11:39:44.322768154
2025-11-07 11:39:42.088784,-24833,2025-11-07 11:39:44.330460462
2025-11-07 11:39:42.088784,-1,2025-11-07 11:39:44.338152769
2025-11-07 11:39:42.088784,-62,2025-11-07 11:39:44.345845077
2025-11-07 11:39:42.088784,-10753,2025-11-07 11:39:44.353537385
2025-11-07 11:39:42.088784,-1,2025-11-07 11:39:44.361229692
2025-11-07 11:39:42.088784,-40,2025-11-07 11:39:44.368922000
2025-11-07 11:39:42.088784,24063,2025-11-07 11:39:44.376614308
2025-11-07 11:39:42.088784,0,2025-11-07 11:39:44.384306615
2025-11-07 11:39:42.088784,468,2025-11-07 11:39:44.391998923
2025-11-07 11:39:42.088784,18176,2025-11-07 11:39:44.399691231
2025-11-07 11:39:42.088784,3,2025-11-07 11:39:44.407383538
2025-11-07 11:39:42.088784,776,2025-11-07 11:39:44.415075846
2025-11-07 11:39:42.088784,29696,2025-11-07 11:39:44.422768154
2025-11-07 11:39:42.088784,1,2025-11-07 11:39:44.430460462
2025-11-07 11:39:42.088784,101,2025-11-07 11:39:44.438152769
2025-11-07 11:39:42.088784,3584,2025-11-07 11:39:44.445845077
2025-11-07 11:39:42.088784,0,2025-11-07 11:39:44.453537385
2025-11-07 11:39:42.088784,-50,2025-11-07 11:39:44.461229692
2025-11-07 11:39:42.088784,-24321,2025-11-07 11:39:44.468922000
2025-11-07 11:39:42.088784,-1,2025-11-07 11:39:44.476614308
2025-11-07 11:39:42.088784,-122,2025-11-07 11:39:44.484306615
2025-11-07 11:39:42.088784,-32257,2025-11-07 11:39:44.491998923
2025-11-07 11:39:42.088784,-1,2025-11-07 11:39:44.499691231
2025-11-07 11:39:42.088784,-113,2025-11-07 11:39:44.507383538
2025-11-07 11:39:42.088784,31999,2025-11-07 11:39:44.515075846
2025-11-07 11:39:42.088784,-1,2025-11-07 11:39:44.522768154
2025-11-07 11:39:42.088784,-153,2025-11-07 11:39:44.530460462
2025-11-07 11:39:42.583098,-163,2025-11-07 11:39:44.538152769
2025-11-07 11:39:42.583098,23551,2025-11-07 11:39:44.545845077
2025-11-07 11:39:42.583098,-1,2025-11-07 11:39:44.553537385
2025-11-07 11:39:42.583098,-117,2025-11-07 11:39:44.561229692
2025-11-07 11:39:42.583098,-16897,2025-11-07 11:39:44.568922000
2025-11-07 11:39:42.583098,-1,2025-11-07 11:39:44.576614308
2025-11-07 11:39:42.583098,-36,2025-11-07 11:39:44.584306615
2025-11-07 11:39:42.583098,-4609,2025-11-07 11:39:44.591998923
2025-11-07 11:39:42.583098,-1,2025-11-07 11:39:44.599691231
2025-11-07 11:39:42.583098,-33,2025-11-07 11:39:44.607383538
2025-11-07 11:39:42.583098,-5121,2025-11-07 11:39:44.615075846
2025-11-07 11:39:42.583098,-1,2025-11-07 11:39:44.622768154
2025-11-07 11:39:42.583098,-31,2025-11-07 11:39:44.630460462
2025-11-07 11:39:42.583098,-15105,2025-11-07 11:39:44.638152769
2025-11-07 11:39:42.583098,-1,2025-11-07 11:39:44.645845077
2025-11-07 11:39:42.583098,-57,2025-11-07 11:39:44.653537385
2025-11-07 11:39:42.583098,-30465,2025-11-07 11:39:44.661229692
2025-11-07 11:39:42.583098,-1,2025-11-07 11:39:44.668922000
2025-11-07 11:39:42.583098,-189,2025-11-07 11:39:44.676614308
2025-11-07 11:39:42.583098,2559,2025-11-07 11:39:44.684306615
2025-11-07 11:39:42.583098,-1,2025-11-07 11:39:44.691998923
2025-11-07 11:39:42.583098,-358,2025-11-07 11:39:44.699691231
2025-11-07 11:39:42.583098,13823,2025-11-07 11:39:44.707383538
2025-11-07 11:39:42.583098,-2,2025-11-07 11:39:44.715075846
2025-11-07 11:39:42.583098,-550,2025-11-07 11:39:44.722768154
2025-11-07 11:39:42.583098,-21761,2025-11-07 11:39:44.730460462
2025-11-07 11:39:42.583098,-3,2025-11-07 11:39:44.738152769
2025-11-07 11:39:42.583098,-579,2025-11-07 11:39:44.745845077
2025-11-07 11:39:42.583098,-5889,2025-11-07 11:39:44.753537385
2025-11-07 11:39:42.583098,-3,2025-11-07 11:39:44.761229692
2025-11-07 11:39:42.583098,-447,2025-11-07 11:39:44.768922000
2025-11-07 11:39:42.583098,-30721,2025-11-07 11:39:44.776614308
2025-11-07 11:39:42.583098,-2,2025-11-07 11:39:44.784306615
2025-11-07 11:39:42.583098,-327,2025-11-07 11:39:44.791998923
2025-11-07 11:39:42.583098,4863,2025-11-07 11:39:44.799691231
2025-11-07 11:39:42.583098,-1,2025-11-07 11:39:44.807383538
2025-11-07 11:39:42.583098,-199,2025-11-07 11:39:44.815075846
2025-11-07 11:39:42.583098,25343,2025-11-07 11:39:44.822768154
2025-11-07 11:39:42.583098,-1,2025-11-07 11:39:44.830460462
2025-11-07 11:39:42.583098,-101,2025-11-07 11:39:44.838152769
2025-11-07 11:39:42.583098,-17409,2025-11-07 11:39:44.845845077
2025-11-07 11:39:42.583098,-1,2025-11-07 11:39:44.853537385
2025-11-07 11:39:42.583098,-12,2025-11-07 11:39:44.861229692
2025-11-07 11:39:42.583098,7423,2025-11-07 11:39:44.868922000
2025-11-07 11:39:42.583098,0,2025-11-07 11:39:44.876614308
2025-11-07 11:39:42.583098,96,2025-11-07 11:39:44.884306615
2025-11-07 11:39:42.583098,-12032,2025-11-07 11:39:44.891998923
2025-11-07 11:39:42.583098,0,2025-11-07 11:39:44.899691231
2025-11-07 11:39:42.583098,240,2025-11-07 11:39:44.907383538
2025-11-07 11:39:42.583098,-2816,2025-11-07 11:39:44.915075846
2025-11-07 11:39:42.583098,0,2025-11-07 11:39:44.922768154
2025-11-07 11:39:42.583098,242,2025-11-07 11:39:44.930460462
2025-11-07 11:39:42.583098,-7168,2025-11-07 11:39:44.938152769
2025-11-07 11:39:42.583098,0,2025-11-07 11:39:44.945845077
2025-11-07 11:39:42.583098,283,2025-11-07 11:39:44.953537385
2025-11-07 11:39:42.583098,16128,2025-11-07 11:39:44.961229692
2025-11-07 11:39:42.583098,1,2025-11-07 11:39:44.968922000
2025-11-07 11:39:42.583098,315,2025-11-07 11:39:44.976614308
2025-11-07 11:39:42.583098,12544,2025-11-07 11:39:44.984306615
2025-11-07 11:39:42.583098,1,2025-11-07 11:39:44.991998923
2025-11-07 11:39:42.583098,262,2025-11-07 11:39:44.999691231
2025-11-07 11:39:42.583098,-7680,2025-11-07 11:39:45.007383538
2025-11-07 11:39:42.583098,0,2025-11-07 11:39:45.015075846
2025-11-07 11:39:42.583098,192,2025-11-07 11:39:45.022768154
2025-11-07 11:39:42.583098,-21248,2025-11-07 11:39:45.030460462
2025-11-07 11:39:42.583098,0,2025-11-07 11:39:45.038152769
2025-11-07 11:39:42.583098,182,2025-11-07 11:39:45.045845077
2025-11-07 11:39:42.583098,-22528,2025-11-07 11:39:45.053537385
2025-11-07 11:39:42.583098,0,2025-11-07 11:39:45.061229692
2025-11-07 11:39:42.583098,163,2025-11-07 11:39:45.068922000
2025-11-07 11:39:42.583098,-18944,2025-11-07 11:39:45.076614308
2025-11-07 11:39:42.583098,0,2025-11-07 11:39:45.084306615
2025-11-07 11:39:42.583098,192,2025-11-07 11:39:45.091998923
2025-11-07 11:39:42.583098,-10240,2025-11-07 11:39:45.099691231
2025-11-07 11:39:42.583098,0,2025-11-07 11:39:45.107383538
2025-11-07 11:39:42.583098,259,2025-11-07 11:39:45.115075846
2025-11-07 11:39:42.583098,12544,2025-11-07 11:39:45.122768154
2025-11-07 11:39:42.583098,1,2025-11-07 11:39:45.130460462
2025-11-07 11:39:42.583098,341,2025-11-07 11:39:45.138152769
2025-11-07 11:39:42.583098,26112,2025-11-07 11:39:45.145845077
2025-11-07 11:39:42.583098,1,2025-11-07 11:39:45.153537385
2025-11-07 11:39:42.583098,370,2025-11-07 11:39:45.161229692
2025-11-07 11:39:42.583098,26112,2025-11-07 11:39:45.168922000
2025-11-07 11:39:42.583098,1,2025-11-07 11:39:45.176614308
2025-11-07 11:39:42.583098,339,2025-11-07 11:39:45.184306615
2025-11-07 11:39:42.583098,18176,2025-11-07 11:39:45.191998923
2025-11-07 11:39:42.583098,1,2025-11-07 11:39:45.199691230
2025-11-07 11:39:42.583098,307,2025-11-07 11:39:45.207383538
2025-11-07 11:39:42.583098,5632,2025-11-07 11:39:45.215075846
2025-11-07 11:39:42.583098,1,2025-11-07 11:39:45.222768154
2025-11-07 11:39:42.583098,245,2025-11-07 11:39:45.230460462
2025-11-07 11:39:42.583098,-16384,2025-11-07 11:39:45.238152769
2025-11-07 11:39:42.583098,0,2025-11-07 11:39:45.245845077
2025-11-07 11:39:42.583098,165,2025-11-07 11:39:45.253537385
2025-11-07 11:39:42.583098,-26368,2025-11-07 11:39:45.261229692
2025-11-07 11:39:42.583098,0,2025-11-07 11:39:45.268922000
2025-11-07 11:39:42.583098,132,2025-11-07 11:39:45.276614308
2025-11-07 11:39:42.583098,31232,2025-11-07 11:39:45.284306615
2025-11-07 11:39:42.583098,0,2025-11-07 11:39:45.291998923
2025-11-07 11:39:42.583098,127,2025-11-07 11:39:45.299691231
2025-11-07 11:39:42.583098,-32512,2025-11-07 11:39:45.307383538
2025-11-07 11:39:42.583098,0,2025-11-07 11:39:45.315075846
2025-11-07 11:39:42.583098,120,2025-11-07 11:39:45.322768154
2025-11-07 11:39:42.583098,25088,2025-11-07 11:39:45.330460462
2025-11-07 11:39:42.583098,0,2025-11-07 11:39:45.338152769
2025-11-07 11:39:42.583098,72,2025-11-07 11:39:45.345845077
2025-11-07 11:39:42.583098,1792,2025-11-07 11:39:45.353537385
2025-11-07 11:39:42.583098,0,2025-11-07 11:39:45.361229692
2025-11-07 11:39:42.583098,-81,2025-11-07 11:39:45.368922000
2025-11-07 11:39:43.168800,-93,2025-11-07 11:39:45.376614308
2025-11-07 11:39:43.168800,20479,2025-11-07 11:39:45.384306615
2025-11-07 11:39:43.168800,0,2025-11-07 11:39:45.391998923
2025-11-07 11:39:43.168800,425,2025-11-07 11:39:45.399691231
2025-11-07 11:39:43.168800,15360,2025-11-07 11:39:45.407383538
2025-11-07 11:39:43.168800,2,2025-11-07 11:39:45.415075846
2025-11-07 11:39:43.168800,343,2025-11-07 11:39:45.422768154
2025-11-07 11:39:43.168800,25088,2025-11-07 11:39:45.430460462
2025-11-07 11:39:43.168800,0,2025-11-07 11:39:45.438152769
2025-11-07 11:39:43.168800,-43,2025-11-07 11:39:45.445845077
2025-11-07 11:39:43.168800,27135,2025-11-07 11:39:45.453537385
2025-11-07 11:39:43.168800,-1,2025-11-07 11:39:45.461229692
2025-11-07 11:39:43.168800,-187,2025-11-07 11:39:45.468922000
2025-11-07 11:39:43.168800,16127,2025-11-07 11:39:45.476614308
2025-11-07 11:39:43.168800,-1,2025-11-07 11:39:45.484306615
2025-11-07 11:39:43.168800,-199,2025-11-07 11:39:45.491998923
2025-11-07 11:39:43.168800,16127,2025-11-07 11:39:45.499691231
2025-11-07 11:39:43.168800,-1,2025-11-07 11:39:45.507383538
2025-11-07 11:39:43.168800,-182,2025-11-07 11:39:45.515075846
2025-11-07 11:39:43.168800,21503,2025-11-07 11:39:45.522768154
2025-11-07 11:39:43.168800,-1,2025-11-07 11:39:45.530460462
2025-11-07 11:39:43.168800,-177,2025-11-07 11:39:45.538152769
2025-11-07 11:39:43.168800,20991,2025-11-07 11:39:45.545845077
2025-11-07 11:39:43.168800,-1,2025-11-07 11:39:45.553537385
2025-11-07 11:39:43.168800,-182,2025-11-07 11:39:45.561229692
2025-11-07 11:39:43.168800,17919,2025-11-07 11:39:45.568922000
2025-11-07 11:39:43.168800,-1,2025-11-07 11:39:45.576614308
2025-11-07 11:39:43.168800,-180,2025-11-07 11:39:45.584306615
2025-11-07 11:39:43.168800,19199,2025-11-07 11:39:45.591998923
2025-11-07 11:39:43.168800,-1,2025-11-07 11:39:45.599691231
2025-11-07 11:39:43.168800,-187,2025-11-07 11:39:45.607383538
2025-11-07 11:39:43.168800,18431,2025-11-07 11:39:45.615075846
2025-11-07 11:39:43.168800,-1,2025-11-07 11:39:45.622768154
2025-11-07 11:39:43.168800,-187,2025-11-07 11:39:45.630460462
2025-11-07 11:39:43.168800,19711,2025-11-07 11:39:45.638152769
2025-11-07 11:39:43.168800,-1,2025-11-07 11:39:45.645845077
2025-11-07 11:39:43.168800,-177,2025-11-07 11:39:45.653537385
2025-11-07 11:39:43.168800,22271,2025-11-07 11:39:45.661229692
2025-11-07 11:39:43.168800,-1,2025-11-07 11:39:45.668922000
2025-11-07 11:39:43.168800,-161,2025-11-07 11:39:45.676614308
2025-11-07 11:39:43.168800,23551,2025-11-07 11:39:45.684306615
2025-11-07 11:39:43.168800,-1,2025-11-07 11:39:45.691998923
2025-11-07 11:39:43.168800,-144,2025-11-07 11:39:45.699691231
2025-11-07 11:39:43.168800,-31745,2025-11-07 11:39:45.707383538
2025-11-07 11:39:43.168800,-1,2025-11-07 11:39:45.715075846
2025-11-07 11:39:43.168800,-115,2025-11-07 11:39:45.722768154
2025-11-07 11:39:43.168800,-24833,2025-11-07 11:39:45.730460462
2025-11-07 11:39:43.168800,-1,2025-11-07 11:39:45.738152769
2025-11-07 11:39:43.168800,-101,2025-11-07 11:39:45.745845077
2025-11-07 11:39:43.168800,-28673,2025-11-07 11:39:45.753537385
2025-11-07 11:39:43.168800,-1,2025-11-07 11:39:45.761229692
2025-11-07 11:39:43.168800,-129,2025-11-07 11:39:45.768922000
2025-11-07 11:39:43.168800,27135,2025-11-07 11:39:45.776614308
2025-11-07 11:39:43.168800,-1,2025-11-07 11:39:45.784306615
2025-11-07 11:39:43.168800,-149,2025-11-07 11:39:45.791998923
2025-11-07 11:39:43.168800,27647,2025-11-07 11:39:45.799691231
2025-11-07 11:39:43.168800,-1,2025-11-07 11:39:45.807383538
2025-11-07 11:39:43.168800,-153,2025-11-07 11:39:45.815075846
2025-11-07 11:39:43.168800,28415,2025-11-07 11:39:45.822768154
2025-11-07 11:39:43.168800,-1,2025-11-07 11:39:45.830460462
2025-11-07 11:39:43.168800,-149,2025-11-07 11:39:45.838152769
2025-11-07 11:39:43.168800,28415,2025-11-07 11:39:45.845845077
2025-11-07 11:39:43.168800,-1,2025-11-07 11:39:45.853537385
2025-11-07 11:39:43.168800,-144,2025-11-07 11:39:45.861229692
2025-11-07 11:39:43.168800,30207,2025-11-07 11:39:45.868922000
2025-11-07 11:39:43.168800,-1,2025-11-07 11:39:45.876614308
2025-11-07 11:39:43.168800,-120,2025-11-07 11:39:45.884306615
2025-11-07 11:39:43.168800,-29185,2025-11-07 11:39:45.891998923
2025-11-07 11:39:43.168800,-1,2025-11-07 11:39:45.899691231
2025-11-07 11:39:43.168800,-103,2025-11-07 11:39:45.907383538
2025-11-07 11:39:43.168800,-22273,2025-11-07 11:39:45.915075846
2025-11-07 11:39:43.168800,-1,2025-11-07 11:39:45.922768154
2025-11-07 11:39:43.168800,-96,2025-11-07 11:39:45.930460462
2025-11-07 11:39:43.168800,-24833,2025-11-07 11:39:45.938152769
2025-11-07 11:39:43.168800,-1,2025-11-07 11:39:45.945845077
2025-11-07 11:39:43.168800,-105,2025-11-07 11:39:45.953537385
2025-11-07 11:39:43.168800,-29185,2025-11-07 11:39:45.961229692
2025-11-07 11:39:43.168800,-1,2025-11-07 11:39:45.968922000
2025-11-07 11:39:43.168800,-120,2025-11-07 11:39:45.976614308
2025-11-07 11:39:43.168800,31999,2025-11-07 11:39:45.984306615
2025-11-07 11:39:43.168800,-1,2025-11-07 11:39:45.991998923
2025-11-07 11:39:43.168800,-125,2025-11-07 11:39:45.999691231
2025-11-07 11:39:43.168800,-29697,2025-11-07 11:39:46.007383538
2025-11-07 11:39:43.168800,-1,2025-11-07 11:39:46.015075846
2025-11-07 11:39:43.168800,-122,2025-11-07 11:39:46.022768154
2025-11-07 11:39:43.168800,-27905,2025-11-07 11:39:46.030460462
2025-11-07 11:39:43.168800,-1,2025-11-07 11:39:46.038152769
2025-11-07 11:39:43.168800,-105,2025-11-07 11:39:46.045845077
2025-11-07 11:39:43.168800,-23553,2025-11-07 11:39:46.053537385
2025-11-07 11:39:43.168800,-1,2025-11-07 11:39:46.061229692
2025-11-07 11:39:43.168800,-84,2025-11-07 11:39:46.068922000
2025-11-07 11:39:43.168800,-24833,2025-11-07 11:39:46.076614308
2025-11-07 11:39:43.168800,-1,2025-11-07 11:39:46.084306615
2025-11-07 11:39:43.168800,-101,2025-11-07 11:39:46.091998923
2025-11-07 11:39:43.168800,-26625,2025-11-07 11:39:46.099691231
2025-11-07 11:39:43.168800,-1,2025-11-07 11:39:46.107383538
2025-11-07 11:39:43.168800,-115,2025-11-07 11:39:46.115075846
2025-11-07 11:39:43.168800,-27393,2025-11-07 11:39:46.122768154
2025-11-07 11:39:43.168800,-1,2025-11-07 11:39:46.130460462
2025-11-07 11:39:43.168800,-108,2025-11-07 11:39:46.138152769
2025-11-07 11:39:43.168800,-25601,2025-11-07 11:39:46.145845077
2025-11-07 11:39:43.168800,-1,2025-11-07 11:39:46.153537385
2025-11-07 11:39:43.168800,-88,2025-11-07 11:39:46.161229692
2025-11-07 11:39:43.168800,-24321,2025-11-07 11:39:46.168922000
2025-11-07 11:39:43.168800,-1,2025-11-07 11:39:46.176614308
2025-11-07 11:39:43.168800,-98,2025-11-07 11:39:46.184306615
2025-11-07 11:39:43.168800,-24833,2025-11-07 11:39:46.191998923
2025-11-07 11:39:43.168800,-1,2025-11-07 11:39:46.199691230
2025-11-07 11:39:43.168800,-88,2025-11-07 11:39:46.207383538
2025-11-07 11:39:43.708791,-101,2025-11-07 11:39:46.215075846
2025-11-07 11:39:43.708791,-30977,2025-11-07 11:39:46.222768154
2025-11-07 11:39:43.708791,-1,2025-11-07 11:39:46.230460462
2025-11-07 11:39:43.708791,-105,2025-11-07 11:39:46.238152769
2025-11-07 11:39:43.708791,-23553,2025-11-07 11:39:46.245845077
2025-11-07 11:39:43.708791,-1,2025-11-07 11:39:46.253537385
2025-11-07 11:39:43.708791,-93,2025-11-07 11:39:46.261229692
2025-11-07 11:39:43.708791,-19201,2025-11-07 11:39:46.268922000
2025-11-07 11:39:43.708791,-1,2025-11-07 11:39:46.276614308
2025-11-07 11:39:43.708791,-84,2025-11-07 11:39:46.284306615
2025-11-07 11:39:43.708791,-26113,2025-11-07 11:39:46.291998923
2025-11-07 11:39:43.708791,-1,2025-11-07 11:39:46.299691231
2025-11-07 11:39:43.708791,-158,2025-11-07 11:39:46.307383538
2025-11-07 11:39:43.708791,6143,2025-11-07 11:39:46.315075846
2025-11-07 11:39:43.708791,-1,2025-11-07 11:39:46.322768154
2025-11-07 11:39:43.708791,-209,2025-11-07 11:39:46.330460462
2025-11-07 11:39:43.708791,767,2025-11-07 11:39:46.338152769
2025-11-07 11:39:43.708791,0,2025-11-07 11:39:46.345845077
2025-11-07 11:39:43.708791,322,2025-11-07 11:39:46.353537385
2025-11-07 11:39:43.708791,-20992,2025-11-07 11:39:46.361229692
2025-11-07 11:39:43.708791,1,2025-11-07 11:39:46.368922000
2025-11-07 11:39:43.708791,278,2025-11-07 11:39:46.376614308
2025-11-07 11:39:43.708791,-28672,2025-11-07 11:39:46.384306615
2025-11-07 11:39:43.708791,0,2025-11-07 11:39:46.391998923
2025-11-07 11:39:43.708791,0,2025-11-07 11:39:46.399691231
2025-11-07 11:39:43.708791,30464,2025-11-07 11:39:46.407383538
2025-11-07 11:39:43.708791,-1,2025-11-07 11:39:46.415075846
2025-11-07 11:39:43.708791,-161,2025-11-07 11:39:46.422768154
2025-11-07 11:39:43.708791,24575,2025-11-07 11:39:46.430460462
2025-11-07 11:39:43.708791,-1,2025-11-07 11:39:46.438152769
2025-11-07 11:39:43.708791,-165,2025-11-07 11:39:46.445845077
2025-11-07 11:39:43.708791,23551,2025-11-07 11:39:46.453537385
2025-11-07 11:39:43.708791,-1,2025-11-07 11:39:46.461229692
2025-11-07 11:39:43.708791,-158,2025-11-07 11:39:46.468922000
2025-11-07 11:39:43.708791,28415,2025-11-07 11:39:46.476614308
2025-11-07 11:39:43.708791,-1,2025-11-07 11:39:46.484306615
2025-11-07 11:39:43.708791,-161,2025-11-07 11:39:46.491998923
2025-11-07 11:39:43.708791,26623,2025-11-07 11:39:46.499691231
2025-11-07 11:39:43.708791,-1,2025-11-07 11:39:46.507383538
2025-11-07 11:39:43.708791,-144,2025-11-07 11:39:46.515075846
2025-11-07 11:39:43.708791,27135,2025-11-07 11:39:46.522768154
2025-11-07 11:39:43.708791,-1,2025-11-07 11:39:46.530460462
2025-11-07 11:39:43.708791,-122,2025-11-07 11:39:46.538152769
2025-11-07 11:39:43.708791,32767,2025-11-07 11:39:46.545845077
2025-11-07 11:39:43.708791,-1,2025-11-07 11:39:46.553537385
2025-11-07 11:39:43.708791,-146,2025-11-07 11:39:46.561229692
2025-11-07 11:39:43.708791,-31745,2025-11-07 11:39:46.568922000
2025-11-07 11:39:43.708791,-1,2025-11-07 11:39:46.576614308
2025-11-07 11:39:43.708791,-122,2025-11-07 11:39:46.584306615
2025-11-07 11:39:43.708791,-31745,2025-11-07 11:39:46.591998923
2025-11-07 11:39:43.708791,-1,2025-11-07 11:39:46.599691231
2025-11-07 11:39:43.708791,-122,2025-11-07 11:39:46.607383538
2025-11-07 11:39:43.708791,-29697,2025-11-07 11:39:46.615075846
2025-11-07 11:39:43.708791,-1,2025-11-07 11:39:46.622768154
2025-11-07 11:39:43.708791,-93,2025-11-07 11:39:46.630460462
2025-11-07 11:39:43.708791,-22273,2025-11-07 11:39:46.638152769
2025-11-07 11:39:43.708791,-1,2025-11-07 11:39:46.645845077
2025-11-07 11:39:43.708791,-74,2025-11-07 11:39:46.653537385
2025-11-07 11:39:43.708791,-13825,2025-11-07 11:39:46.661229692
2025-11-07 11:39:43.708791,-1,2025-11-07 11:39:46.668922000
2025-11-07 11:39:43.708791,-57,2025-11-07 11:39:46.676614308
2025-11-07 11:39:43.708791,-12545,2025-11-07 11:39:46.684306615
2025-11-07 11:39:43.708791,-1,2025-11-07 11:39:46.691998923
2025-11-07 11:39:43.708791,-67,2025-11-07 11:39:46.699691231
2025-11-07 11:39:43.708791,-22273,2025-11-07 11:39:46.707383538
2025-11-07 11:39:43.708791,-1,2025-11-07 11:39:46.715075846
2025-11-07 11:39:43.708791,-86,2025-11-07 11:39:46.722768154
2025-11-07 11:39:43.708791,-23041,2025-11-07 11:39:46.730460462
2025-11-07 11:39:43.708791,-1,2025-11-07 11:39:46.738152769
2025-11-07 11:39:43.708791,-84,2025-11-07 11:39:46.745845077
2025-11-07 11:39:43.708791,-18689,2025-11-07 11:39:46.753537385
2025-11-07 11:39:43.708791,-1,2025-11-07 11:39:46.761229692
2025-11-07 11:39:43.708791,-72,2025-11-07 11:39:46.768922000
2025-11-07 11:39:43.708791,-15617,2025-11-07 11:39:46.776614308
2025-11-07 11:39:43.708791,-1,2025-11-07 11:39:46.784306615
2025-11-07 11:39:43.708791,-72,2025-11-07 11:39:46.791998923
2025-11-07 11:39:43.708791,-16897,2025-11-07 11:39:46.799691231
2025-11-07 11:39:43.708791,-1,2025-11-07 11:39:46.807383538
2025-11-07 11:39:43.708791,-64,2025-11-07 11:39:46.815075846
2025-11-07 11:39:43.708791,-21761,2025-11-07 11:39:46.822768154
2025-11-07 11:39:43.708791,-1,2025-11-07 11:39:46.830460462
2025-11-07 11:39:43.708791,-86,2025-11-07 11:39:46.838152769
2025-11-07 11:39:43.708791,-23553,2025-11-07 11:39:46.845845077
2025-11-07 11:39:43.708791,-1,2025-11-07 11:39:46.853537385
2025-11-07 11:39:43.708791,-101,2025-11-07 11:39:46.861229692
2025-11-07 11:39:43.708791,-23041,2025-11-07 11:39:46.868922000
2025-11-07 11:39:43.708791,-1,2025-11-07 11:39:46.876614308
2025-11-07 11:39:43.708791,-101,2025-11-07 11:39:46.884306615
2025-11-07 11:39:43.708791,-26113,2025-11-07 11:39:46.891998923
2025-11-07 11:39:43.708791,-1,2025-11-07 11:39:46.899691231
2025-11-07 11:39:43.708791,-101,2025-11-07 11:39:46.907383538
2025-11-07 11:39:43.708791,-28673,2025-11-07 11:39:46.915075846
2025-11-07 11:39:43.708791,-1,2025-11-07 11:39:46.922768154
2025-11-07 11:39:43.708791,-101,2025-11-07 11:39:46.930460462
2025-11-07 11:39:43.708791,-24321,2025-11-07 11:39:46.938152769
2025-11-07 11:39:43.708791,-1,2025-11-07 11:39:46.945845077
2025-11-07 11:39:43.708791,-91,2025-11-07 11:39:46.953537385
2025-11-07 11:39:43.708791,-22273,2025-11-07 11:39:46.961229692
2025-11-07 11:39:43.708791,-1,2025-11-07 11:39:46.968922000
2025-11-07 11:39:43.708791,-98,2025-11-07 11:39:46.976614308
2025-11-07 11:39:43.708791,-24833,2025-11-07 11:39:46.984306615
2025-11-07 11:39:43.708791,-1,2025-11-07 11:39:46.991998923
2025-11-07 11:39:43.708791,-115,2025-11-07 11:39:46.999691231
2025-11-07 11:39:43.708791,-27905,2025-11-07 11:39:47.007383538
2025-11-07 11:39:43.708791,-1,2025-11-07 11:39:47.015075846
2025-11-07 11:39:43.708791,-105,2025-11-07 11:39:47.022768154
2025-11-07 11:39:43.708791,31999,2025-11-07 11:39:47.030460462
2025-11-07 11:39:43.708791,-1,2025-11-07 11:39:47.038152769
2025-11-07 11:39:43.708791,-101,2025-11-07 11:39:47.045845077
2025-11-07 11:39:44.249767,-91,2025-11-07 11:39:47.053537385
2025-11-07 11:39:44.249767,-23041,2025-11-07 11:39:47.061229692
2025-11-07 11:39:44.249767,-1,2025-11-07 11:39:47.068922000
2025-11-07 11:39:44.249767,-62,2025-11-07 11:39:47.076614308
2025-11-07 11:39:44.249767,-22273,2025-11-07 11:39:47.084306615
2025-11-07 11:39:44.249767,-1,2025-11-07 11:39:47.091998923
2025-11-07 11:39:44.249767,-72,2025-11-07 11:39:47.099691231
2025-11-07 11:39:44.249767,-17409,2025-11-07 11:39:47.107383538
2025-11-07 11:39:44.249767,-1,2025-11-07 11:39:47.115075846
2025-11-07 11:39:44.249767,-117,2025-11-07 11:39:47.122768154
2025-11-07 11:39:44.249767,-21761,2025-11-07 11:39:47.130460462
2025-11-07 11:39:44.249767,-1,2025-11-07 11:39:47.138152769
2025-11-07 11:39:44.249767,-72,2025-11-07 11:39:47.145845077
2025-11-07 11:39:44.249767,-18689,2025-11-07 11:39:47.153537385
2025-11-07 11:39:44.249767,-1,2025-11-07 11:39:47.161229692
2025-11-07 11:39:44.249767,-72,2025-11-07 11:39:47.168922000
2025-11-07 11:39:44.249767,-26113,2025-11-07 11:39:47.176614308
2025-11-07 11:39:44.249767,-1,2025-11-07 11:39:47.184306615
2025-11-07 11:39:44.249767,-91,2025-11-07 11:39:47.191998923
2025-11-07 11:39:44.249767,28415,2025-11-07 11:39:47.199691230
2025-11-07 11:39:44.249767,-1,2025-11-07 11:39:47.207383538
2025-11-07 11:39:44.249767,-250,2025-11-07 11:39:47.215075846
2025-11-07 11:39:44.249767,2559,2025-11-07 11:39:47.222768154
2025-11-07 11:39:44.249767,-1,2025-11-07 11:39:47.230460462
2025-11-07 11:39:44.249767,-101,2025-11-07 11:39:47.238152769
2025-11-07 11:39:44.249767,8959,2025-11-07 11:39:47.245845077
2025-11-07 11:39:44.249767,1,2025-11-07 11:39:47.253537385
2025-11-07 11:39:44.249767,531,2025-11-07 11:39:47.261229692
2025-11-07 11:39:44.249767,31488,2025-11-07 11:39:47.268922000
2025-11-07 11:39:44.249767,1,2025-11-07 11:39:47.276614308
2025-11-07 11:39:44.249767,204,2025-11-07 11:39:47.284306615
2025-11-07 11:39:44.249767,0,2025-11-07 11:39:47.291998923
2025-11-07 11:39:44.249767,0,2025-11-07 11:39:47.299691231
2025-11-07 11:39:44.249767,-168,2025-11-07 11:39:47.307383538
2025-11-07 11:39:44.249767,19711,2025-11-07 11:39:47.315075846
2025-11-07 11:39:44.249767,-1,2025-11-07 11:39:47.322768154
2025-11-07 11:39:44.249767,-192,2025-11-07 11:39:47.330460462
2025-11-07 11:39:44.249767,20479,2025-11-07 11:39:47.338152769
2025-11-07 11:39:44.249767,-1,2025-11-07 11:39:47.345845077
2025-11-07 11:39:44.249767,-177,2025-11-07 11:39:47.353537385
2025-11-07 11:39:44.249767,17919,2025-11-07 11:39:47.361229692
2025-11-07 11:39:44.249767,-1,2025-11-07 11:39:47.368922000
2025-11-07 11:39:44.249767,-158,2025-11-07 11:39:47.376614308
2025-11-07 11:39:44.249767,17919,2025-11-07 11:39:47.384306615
2025-11-07 11:39:44.249767,-1,2025-11-07 11:39:47.391998923
2025-11-07 11:39:44.249767,-182,2025-11-07 11:39:47.399691231
2025-11-07 11:39:44.249767,22783,2025-11-07 11:39:47.407383538
2025-11-07 11:39:44.249767,-1,2025-11-07 11:39:47.415075846
2025-11-07 11:39:44.249767,-189,2025-11-07 11:39:47.422768154
2025-11-07 11:39:44.249767,23551,2025-11-07 11:39:47.430460462
2025-11-07 11:39:44.249767,-1,2025-11-07 11:39:47.438152769
2025-11-07 11:39:44.249767,-180,2025-11-07 11:39:47.445845077
2025-11-07 11:39:44.249767,17407,2025-11-07 11:39:47.453537385
2025-11-07 11:39:44.249767,-1,2025-11-07 11:39:47.461229692
2025-11-07 11:39:44.249767,-170,2025-11-07 11:39:47.468922000
2025-11-07 11:39:44.249767,14079,2025-11-07 11:39:47.476614308
2025-11-07 11:39:44.249767,-1,2025-11-07 11:39:47.484306615
2025-11-07 11:39:44.249767,-192,2025-11-07 11:39:47.491998923
2025-11-07 11:39:44.249767,17407,2025-11-07 11:39:47.499691231
2025-11-07 11:39:44.249767,-1,2025-11-07 11:39:47.507383538
2025-11-07 11:39:44.249767,-197,2025-11-07 11:39:47.515075846
2025-11-07 11:39:44.249767,23551,2025-11-07 11:39:47.522768154
2025-11-07 11:39:44.249767,-1,2025-11-07 11:39:47.530460462
2025-11-07 11:39:44.249767,-192,2025-11-07 11:39:47.538152769
2025-11-07 11:39:44.249767,19199,2025-11-07 11:39:47.545845077
2025-11-07 11:39:44.249767,-1,2025-11-07 11:39:47.553537385
2025-11-07 11:39:44.249767,-158,2025-11-07 11:39:47.561229692
2025-11-07 11:39:44.249767,22271,2025-11-07 11:39:47.568922000
2025-11-07 11:39:44.249767,-1,2025-11-07 11:39:47.576614308
2025-11-07 11:39:44.249767,-129,2025-11-07 11:39:47.584306615
2025-11-07 11:39:44.249767,31999,2025-11-07 11:39:47.591998923
2025-11-07 11:39:44.249767,-1,2025-11-07 11:39:47.599691231
2025-11-07 11:39:44.249767,-127,2025-11-07 11:39:47.607383538
2025-11-07 11:39:44.249767,-21761,2025-11-07 11:39:47.615075846
2025-11-07 11:39:44.249767,-1,2025-11-07 11:39:47.622768154
2025-11-07 11:39:44.249767,-103,2025-11-07 11:39:47.630460462
2025-11-07 11:39:44.249767,-20481,2025-11-07 11:39:47.638152769
2025-11-07 11:39:44.249767,-1,2025-11-07 11:39:47.645845077
2025-11-07 11:39:44.249767,-72,2025-11-07 11:39:47.653537385
2025-11-07 11:39:44.249767,-22273,2025-11-07 11:39:47.661229692
2025-11-07 11:39:44.249767,-1,2025-11-07 11:39:47.668922000
2025-11-07 11:39:44.249767,-55,2025-11-07 11:39:47.676614308
2025-11-07 11:39:44.249767,-17409,2025-11-07 11:39:47.684306615
2025-11-07 11:39:44.249767,-1,2025-11-07 11:39:47.691998923
2025-11-07 11:39:44.249767,-64,2025-11-07 11:39:47.699691231
2025-11-07 11:39:44.249767,-12033,2025-11-07 11:39:47.707383538
2025-11-07 11:39:44.249767,-1,2025-11-07 11:39:47.715075846
2025-11-07 11:39:44.249767,-72,2025-11-07 11:39:47.722768154
2025-11-07 11:39:44.249767,-12545,2025-11-07 11:39:47.730460462
2025-11-07 11:39:44.249767,-1,2025-11-07 11:39:47.738152769
2025-11-07 11:39:44.249767,-60,2025-11-07 11:39:47.745845077
2025-11-07 11:39:44.249767,-16129,2025-11-07 11:39:47.753537385
2025-11-07 11:39:44.249767,-1,2025-11-07 11:39:47.761229692
2025-11-07 11:39:44.249767,-43,2025-11-07 11:39:47.768922000
2025-11-07 11:39:44.249767,-18177,2025-11-07 11:39:47.776614308
2025-11-07 11:39:44.249767,-1,2025-11-07 11:39:47.784306615
2025-11-07 11:39:44.249767,-52,2025-11-07 11:39:47.791998923
2025-11-07 11:39:44.249767,-12545,2025-11-07 11:39:47.799691231
2025-11-07 11:39:44.249767,-1,2025-11-07 11:39:47.807383538
2025-11-07 11:39:44.249767,-72,2025-11-07 11:39:47.815075846
2025-11-07 11:39:44.249767,-10753,2025-11-07 11:39:47.822768154
2025-11-07 11:39:44.249767,-1,2025-11-07 11:39:47.830460462
2025-11-07 11:39:44.249767,-67,2025-11-07 11:39:47.838152769
2025-11-07 11:39:44.249767,-16129,2025-11-07 11:39:47.845845077
2025-11-07 11:39:44.249767,-1,2025-11-07 11:39:47.853537385
2025-11-07 11:39:44.249767,-43,2025-11-07 11:39:47.861229692
2025-11-07 11:39:44.249767,-17409,2025-11-07 11:39:47.868922000
2025-11-07 11:39:44.249767,-1,2025-11-07 11:39:47.876614308
2025-11-07 11:39:44.249767,-48,2025-11-07 11:39:47.884306615
2025-11-07 11:39:44.834544,-52,2025-11-07 11:39:47.891998923
2025-11-07 11:39:44.834544,-14337,2025-11-07 11:39:47.899691231
2025-11-07 11:39:44.834544,-1,2025-11-07 11:39:47.907383538
2025-11-07 11:39:44.834544,-33,2025-11-07 11:39:47.915075846
2025-11-07 11:39:44.834544,-17409,2025-11-07 11:39:47.922768154
2025-11-07 11:39:44.834544,-1,2025-11-07 11:39:47.930460462
2025-11-07 11:39:44.834544,-55,2025-11-07 11:39:47.938152769
2025-11-07 11:39:44.834544,-8961,2025-11-07 11:39:47.945845077
2025-11-07 11:39:44.834544,-1,2025-11-07 11:39:47.953537385
2025-11-07 11:39:44.834544,-40,2025-11-07 11:39:47.961229692
2025-11-07 11:39:44.834544,-3841,2025-11-07 11:39:47.968922000
2025-11-07 11:39:44.834544,-1,2025-11-07 11:39:47.976614308
2025-11-07 11:39:44.834544,-24,2025-11-07 11:39:47.984306615
2025-11-07 11:39:44.834544,-2049,2025-11-07 11:39:47.991998923
2025-11-07 11:39:44.834544,-1,2025-11-07 11:39:47.999691231
2025-11-07 11:39:44.834544,-4,2025-11-07 11:39:48.007383538
2025-11-07 11:39:44.834544,-7681,2025-11-07 11:39:48.015075846
2025-11-07 11:39:44.834544,-1,2025-11-07 11:39:48.022768154
2025-11-07 11:39:44.834544,9,2025-11-07 11:39:48.030460462
2025-11-07 11:39:44.834544,-3072,2025-11-07 11:39:48.038152769
2025-11-07 11:39:44.834544,-1,2025-11-07 11:39:48.045845077
2025-11-07 11:39:44.834544,-36,2025-11-07 11:39:48.053537385
2025-11-07 11:39:44.834544,255,2025-11-07 11:39:48.061229692
2025-11-07 11:39:44.834544,0,2025-11-07 11:39:48.068922000
2025-11-07 11:39:44.834544,-24,2025-11-07 11:39:48.076614308
2025-11-07 11:39:44.834544,-4609,2025-11-07 11:39:48.084306615
2025-11-07 11:39:44.834544,-1,2025-11-07 11:39:48.091998923
2025-11-07 11:39:44.834544,-16,2025-11-07 11:39:48.099691231
2025-11-07 11:39:44.834544,-10753,2025-11-07 11:39:48.107383538
2025-11-07 11:39:44.834544,-1,2025-11-07 11:39:48.115075846
2025-11-07 11:39:44.834544,-43,2025-11-07 11:39:48.122768154
2025-11-07 11:39:44.834544,29695,2025-11-07 11:39:48.130460462
2025-11-07 11:39:44.834544,-1,2025-11-07 11:39:48.138152769
2025-11-07 11:39:44.834544,-209,2025-11-07 11:39:48.145845077
2025-11-07 11:39:44.834544,-22273,2025-11-07 11:39:48.153537385
2025-11-07 11:39:44.834544,-1,2025-11-07 11:39:48.161229692
2025-11-07 11:39:44.834544,269,2025-11-07 11:39:48.168922000
2025-11-07 11:39:44.834544,-25088,2025-11-07 11:39:48.176614308
2025-11-07 11:39:44.834544,2,2025-11-07 11:39:48.184306615
2025-11-07 11:39:44.834544,632,2025-11-07 11:39:48.191998923
2025-11-07 11:39:44.834544,26112,2025-11-07 11:39:48.199691230
2025-11-07 11:39:44.834544,1,2025-11-07 11:39:48.207383538
2025-11-07 11:39:44.834544,149,2025-11-07 11:39:48.215075846
2025-11-07 11:39:44.834544,-18432,2025-11-07 11:39:48.222768154
2025-11-07 11:39:44.834544,-1,2025-11-07 11:39:48.230460462
2025-11-07 11:39:44.834544,-139,2025-11-07 11:39:48.238152769
2025-11-07 11:39:44.834544,-29697,2025-11-07 11:39:48.245845077
2025-11-07 11:39:44.834544,-1,2025-11-07 11:39:48.253537385
2025-11-07 11:39:44.834544,-134,2025-11-07 11:39:48.261229692
2025-11-07 11:39:44.834544,-27905,2025-11-07 11:39:48.268922000
2025-11-07 11:39:44.834544,-1,2025-11-07 11:39:48.276614308
2025-11-07 11:39:44.834544,-122,2025-11-07 11:39:48.284306615
2025-11-07 11:39:44.834544,-30465,2025-11-07 11:39:48.291998923
2025-11-07 11:39:44.834544,-1,2025-11-07 11:39:48.299691231
2025-11-07 11:39:44.834544,-101,2025-11-07 11:39:48.307383538
2025-11-07 11:39:44.834544,32767,2025-11-07 11:39:48.315075846
2025-11-07 11:39:44.834544,-1,2025-11-07 11:39:48.322768154
2025-11-07 11:39:44.834544,-110,2025-11-07 11:39:48.330460462
2025-11-07 11:39:44.834544,-29185,2025-11-07 11:39:48.338152769
2025-11-07 11:39:44.834544,-1,2025-11-07 11:39:48.345845077
2025-11-07 11:39:44.834544,-132,2025-11-07 11:39:48.353537385
2025-11-07 11:39:44.834544,-26625,2025-11-07 11:39:48.361229692
2025-11-07 11:39:44.834544,-1,2025-11-07 11:39:48.368922000
2025-11-07 11:39:44.834544,-137,2025-11-07 11:39:48.376614308
2025-11-07 11:39:44.834544,-32257,2025-11-07 11:39:48.384306615
2025-11-07 11:39:44.834544,-1,2025-11-07 11:39:48.391998923
2025-11-07 11:39:44.834544,-120,2025-11-07 11:39:48.399691231
2025-11-07 11:39:44.834544,28415,2025-11-07 11:39:48.407383538
2025-11-07 11:39:44.834544,-1,2025-11-07 11:39:48.415075846
2025-11-07 11:39:44.834544,-129,2025-11-07 11:39:48.422768154
2025-11-07 11:39:44.834544,26623,2025-11-07 11:39:48.430460462
2025-11-07 11:39:44.834544,-1,2025-11-07 11:39:48.438152769
2025-11-07 11:39:44.834544,-156,2025-11-07 11:39:48.445845077
2025-11-07 11:39:44.834544,31487,2025-11-07 11:39:48.453537385
2025-11-07 11:39:44.834544,-1,2025-11-07 11:39:48.461229692
2025-11-07 11:39:44.834544,-161,2025-11-07 11:39:48.468922000
2025-11-07 11:39:44.834544,31999,2025-11-07 11:39:48.476614308
2025-11-07 11:39:44.834544,-1,2025-11-07 11:39:48.484306615
2025-11-07 11:39:44.834544,-129,2025-11-07 11:39:48.491998923
2025-11-07 11:39:44.834544,30719,2025-11-07 11:39:48.499691231
2025-11-07 11:39:44.834544,-1,2025-11-07 11:39:48.507383538
2025-11-07 11:39:44.834544,-93,2025-11-07 11:39:48.515075846
2025-11-07 11:39:44.834544,-24833,2025-11-07 11:39:48.522768154
2025-11-07 11:39:44.834544,-1,2025-11-07 11:39:48.530460462
2025-11-07 11:39:44.834544,-67,2025-11-07 11:39:48.538152769
2025-11-07 11:39:44.834544,-9473,2025-11-07 11:39:48.545845077
2025-11-07 11:39:44.834544,-1,2025-11-07 11:39:48.553537385
2025-11-07 11:39:44.834544,-48,2025-11-07 11:39:48.561229692
2025-11-07 11:39:44.834544,-2817,2025-11-07 11:39:48.568922000
2025-11-07 11:39:44.834544,-1,2025-11-07 11:39:48.576614308
2025-11-07 11:39:44.834544,-28,2025-11-07 11:39:48.584306615
2025-11-07 11:39:44.834544,-7681,2025-11-07 11:39:48.591998923
2025-11-07 11:39:44.834544,-1,2025-11-07 11:39:48.599691231
2025-11-07 11:39:44.834544,-9,2025-11-07 11:39:48.607383538
2025-11-07 11:39:44.834544,-8961,2025-11-07 11:39:48.615075846
2025-11-07 11:39:44.834544,-1,2025-11-07 11:39:48.622768154
2025-11-07 11:39:44.834544,-9,2025-11-07 11:39:48.630460462
2025-11-07 11:39:44.834544,-1537,2025-11-07 11:39:48.638152769
2025-11-07 11:39:44.834544,-1,2025-11-07 11:39:48.645845077
2025-11-07 11:39:44.834544,-24,2025-11-07 11:39:48.653537385
2025-11-07 11:39:44.834544,767,2025-11-07 11:39:48.661229692
2025-11-07 11:39:44.834544,0,2025-11-07 11:39:48.668922000
2025-11-07 11:39:44.834544,-21,2025-11-07 11:39:48.676614308
2025-11-07 11:39:44.834544,-2817,2025-11-07 11:39:48.684306615
2025-11-07 11:39:44.834544,-1,2025-11-07 11:39:48.691998923
2025-11-07 11:39:44.834544,-4,2025-11-07 11:39:48.699691231
2025-11-07 11:39:44.834544,-8193,2025-11-07 11:39:48.707383538
2025-11-07 11:39:44.834544,-1,2025-11-07 11:39:48.715075846
2025-11-07 11:39:44.834544,-9,2025-11-07 11:39:48.722768154
2025-11-07 11:39:45.418835,-19,2025-11-07 11:39:48.730460462
2025-11-07 11:39:45.418835,-5121,2025-11-07 11:39:48.738152769
2025-11-07 11:39:45.418835,-1,2025-11-07 11:39:48.745845077
2025-11-07 11:39:45.418835,4,2025-11-07 11:39:48.753537385
2025-11-07 11:39:45.418835,-6656,2025-11-07 11:39:48.761229692
2025-11-07 11:39:45.418835,-1,2025-11-07 11:39:48.768922000
2025-11-07 11:39:45.418835,-12,2025-11-07 11:39:48.776614308
2025-11-07 11:39:45.418835,-4609,2025-11-07 11:39:48.784306615
2025-11-07 11:39:45.418835,-1,2025-11-07 11:39:48.791998923
2025-11-07 11:39:45.418835,-40,2025-11-07 11:39:48.799691231
2025-11-07 11:39:45.418835,-2049,2025-11-07 11:39:48.807383538
2025-11-07 11:39:45.418835,-1,2025-11-07 11:39:48.815075846
2025-11-07 11:39:45.418835,-9,2025-11-07 11:39:48.822768154
2025-11-07 11:39:45.418835,3839,2025-11-07 11:39:48.830460462
2025-11-07 11:39:45.418835,0,2025-11-07 11:39:48.838152769
2025-11-07 11:39:45.418835,12,2025-11-07 11:39:48.845845077
2025-11-07 11:39:45.418835,-6656,2025-11-07 11:39:48.853537385
2025-11-07 11:39:45.418835,-1,2025-11-07 11:39:48.861229692
2025-11-07 11:39:45.418835,9,2025-11-07 11:39:48.868922000
2025-11-07 11:39:45.418835,-512,2025-11-07 11:39:48.876614308
2025-11-07 11:39:45.418835,-1,2025-11-07 11:39:48.884306615
2025-11-07 11:39:45.418835,-19,2025-11-07 11:39:48.891998923
2025-11-07 11:39:45.418835,-2049,2025-11-07 11:39:48.899691231
2025-11-07 11:39:45.418835,-1,2025-11-07 11:39:48.907383538
2025-11-07 11:39:45.418835,-45,2025-11-07 11:39:48.915075846
2025-11-07 11:39:45.418835,-6401,2025-11-07 11:39:48.922768154
2025-11-07 11:39:45.418835,-1,2025-11-07 11:39:48.930460462
2025-11-07 11:39:45.418835,-14,2025-11-07 11:39:48.938152769
2025-11-07 11:39:45.418835,-2817,2025-11-07 11:39:48.945845077
2025-11-07 11:39:45.418835,-1,2025-11-07 11:39:48.953537385
2025-11-07 11:39:45.418835,21,2025-11-07 11:39:48.961229692
2025-11-07 11:39:45.418835,-3072,2025-11-07 11:39:48.968922000
2025-11-07 11:39:45.418835,-1,2025-11-07 11:39:48.976614308
2025-11-07 11:39:45.418835,-2,2025-11-07 11:39:48.984306615
2025-11-07 11:39:45.418835,6399,2025-11-07 11:39:48.991998923
2025-11-07 11:39:45.418835,0,2025-11-07 11:39:48.999691231
2025-11-07 11:39:45.418835,-9,2025-11-07 11:39:49.007383538
2025-11-07 11:39:45.418835,3327,2025-11-07 11:39:49.015075846
2025-11-07 11:39:45.418835,0,2025-11-07 11:39:49.022768154
2025-11-07 11:39:45.418835,12,2025-11-07 11:39:49.030460462
2025-11-07 11:39:45.418835,512,2025-11-07 11:39:49.038152769
2025-11-07 11:39:45.418835,0,2025-11-07 11:39:49.045845077
2025-11-07 11:39:45.418835,14,2025-11-07 11:39:49.053537385
2025-11-07 11:39:45.418835,-3584,2025-11-07 11:39:49.061229692
2025-11-07 11:39:45.418835,-1,2025-11-07 11:39:49.068922000
2025-11-07 11:39:45.418835,2,2025-11-07 11:39:49.076614308
2025-11-07 11:39:45.418835,-7168,2025-11-07 11:39:49.084306615
2025-11-07 11:39:45.418835,-1,2025-11-07 11:39:49.091998923
2025-11-07 11:39:45.418835,-122,2025-11-07 11:39:49.099691231
2025-11-07 11:39:45.418835,25855,2025-11-07 11:39:49.107383538
2025-11-07 11:39:45.418835,-1,2025-11-07 11:39:49.115075846
2025-11-07 11:39:45.418835,-67,2025-11-07 11:39:49.122768154
2025-11-07 11:39:45.418835,21503,2025-11-07 11:39:49.130460462
2025-11-07 11:39:45.418835,1,2025-11-07 11:39:49.138152769
2025-11-07 11:39:45.418835,711,2025-11-07 11:39:49.145845077
2025-11-07 11:39:45.418835,27136,2025-11-07 11:39:49.153537385
2025-11-07 11:39:45.418835,2,2025-11-07 11:39:49.161229692
2025-11-07 11:39:45.418835,372,2025-11-07 11:39:49.168922000
2025-11-07 11:39:45.418835,32000,2025-11-07 11:39:49.176614308
2025-11-07 11:39:45.418835,0,2025-11-07 11:39:49.184306615
2025-11-07 11:39:45.418835,-74,2025-11-07 11:39:49.191998923
2025-11-07 11:39:45.418835,-29185,2025-11-07 11:39:49.199691230
2025-11-07 11:39:45.418835,-1,2025-11-07 11:39:49.207383538
2025-11-07 11:39:45.418835,-125,2025-11-07 11:39:49.215075846
2025-11-07 11:39:45.418835,-26113,2025-11-07 11:39:49.222768154
2025-11-07 11:39:45.418835,-1,2025-11-07 11:39:49.230460462
2025-11-07 11:39:45.418835,-105,2025-11-07 11:39:49.238152769
2025-11-07 11:39:45.418835,-29697,2025-11-07 11:39:49.245845077
2025-11-07 11:39:45.418835,-1,2025-11-07 11:39:49.253537385
2025-11-07 11:39:45.418835,-86,2025-11-07 11:39:49.261229692
2025-11-07 11:39:45.418835,-26625,2025-11-07 11:39:49.268922000
2025-11-07 11:39:45.418835,-1,2025-11-07 11:39:49.276614308
2025-11-07 11:39:45.418835,-98,2025-11-07 11:39:49.284306615
2025-11-07 11:39:45.418835,-20481,2025-11-07 11:39:49.291998923
2025-11-07 11:39:45.418835,-1,2025-11-07 11:39:49.299691231
2025-11-07 11:39:45.418835,-110,2025-11-07 11:39:49.307383538
2025-11-07 11:39:45.418835,-22273,2025-11-07 11:39:49.315075846
2025-11-07 11:39:45.418835,-1,2025-11-07 11:39:49.322768154
2025-11-07 11:39:45.418835,-101,2025-11-07 11:39:49.330460462
2025-11-07 11:39:45.418835,-29185,2025-11-07 11:39:49.338152769
2025-11-07 11:39:45.418835,-1,2025-11-07 11:39:49.345845077
2025-11-07 11:39:45.418835,-98,2025-11-07 11:39:49.353537385
2025-11-07 11:39:45.418835,-30977,2025-11-07 11:39:49.361229692
2025-11-07 11:39:45.418835,-1,2025-11-07 11:39:49.368922000
2025-11-07 11:39:45.418835,-103,2025-11-07 11:39:49.376614308
2025-11-07 11:39:45.418835,-27393,2025-11-07 11:39:49.384306615
2025-11-07 11:39:45.418835,-1,2025-11-07 11:39:49.391998923
2025-11-07 11:39:45.418835,-137,2025-11-07 11:39:49.399691231
2025-11-07 11:39:45.418835,-27393,2025-11-07 11:39:49.407383538
2025-11-07 11:39:45.418835,-1,2025-11-07 11:39:49.415075846
2025-11-07 11:39:45.418835,-125,2025-11-07 11:39:49.422768154
2025-11-07 11:39:45.418835,-28673,2025-11-07 11:39:49.430460462
2025-11-07 11:39:45.418835,-1,2025-11-07 11:39:49.438152769
2025-11-07 11:39:45.418835,-91,2025-11-07 11:39:49.445845077
2025-11-07 11:39:45.418835,-30465,2025-11-07 11:39:49.453537385
2025-11-07 11:39:45.418835,-1,2025-11-07 11:39:49.461229692
2025-11-07 11:39:45.418835,-84,2025-11-07 11:39:49.468922000
2025-11-07 11:39:45.418835,-19969,2025-11-07 11:39:49.476614308
2025-11-07 11:39:45.418835,-1,2025-11-07 11:39:49.484306615
2025-11-07 11:39:45.418835,-74,2025-11-07 11:39:49.491998923
2025-11-07 11:39:45.418835,-7681,2025-11-07 11:39:49.499691231
2025-11-07 11:39:45.418835,-1,2025-11-07 11:39:49.507383538
2025-11-07 11:39:45.418835,-38,2025-11-07 11:39:49.515075846
2025-11-07 11:39:45.418835,-2049,2025-11-07 11:39:49.522768154
2025-11-07 11:39:45.418835,-1,2025-11-07 11:39:49.530460462
2025-11-07 11:39:45.418835,2,2025-11-07 11:39:49.538152769
2025-11-07 11:39:45.418835,-2304,2025-11-07 11:39:49.545845077
2025-11-07 11:39:45.418835,-1,2025-11-07 11:39:49.553537385
2025-11-07 11:39:45.418835,24,2025-11-07 11:39:49.561229692
2025-11-07 11:39:45.958832,7,2025-11-07 11:39:49.568922000
2025-11-07 11:39:45.958832,3072,2025-11-07 11:39:49.576614308
2025-11-07 11:39:45.958832,0,2025-11-07 11:39:49.584306615
2025-11-07 11:39:45.958832,26,2025-11-07 11:39:49.591998923
2025-11-07 11:39:45.958832,0,2025-11-07 11:39:49.599691231
2025-11-07 11:39:45.958832,0,2025-11-07 11:39:49.607383538
2025-11-07 11:39:45.958832,24,2025-11-07 11:39:49.615075846
2025-11-07 11:39:45.958832,3584,2025-11-07 11:39:49.622768154
2025-11-07 11:39:45.958832,0,2025-11-07 11:39:49.630460462
2025-11-07 11:39:45.958832,0,2025-11-07 11:39:49.638152769
2025-11-07 11:39:45.958832,6144,2025-11-07 11:39:49.645845077
2025-11-07 11:39:45.958832,0,2025-11-07 11:39:49.653537385
2025-11-07 11:39:45.958832,-7,2025-11-07 11:39:49.661229692
2025-11-07 11:39:45.958832,767,2025-11-07 11:39:49.668922000
2025-11-07 11:39:45.958832,0,2025-11-07 11:39:49.676614308
2025-11-07 11:39:45.958832,9,2025-11-07 11:39:49.684306615
2025-11-07 11:39:45.958832,512,2025-11-07 11:39:49.691998923
2025-11-07 11:39:45.958832,0,2025-11-07 11:39:49.699691231
2025-11-07 11:39:45.958832,50,2025-11-07 11:39:49.707383538
2025-11-07 11:39:45.958832,5376,2025-11-07 11:39:49.715075846
2025-11-07 11:39:45.958832,0,2025-11-07 11:39:49.722768154
2025-11-07 11:39:45.958832,12,2025-11-07 11:39:49.730460462
2025-11-07 11:39:45.958832,11008,2025-11-07 11:39:49.738152769
2025-11-07 11:39:45.958832,0,2025-11-07 11:39:49.745845077
2025-11-07 11:39:45.958832,16,2025-11-07 11:39:49.753537385
2025-11-07 11:39:45.958832,9216,2025-11-07 11:39:49.761229692
2025-11-07 11:39:45.958832,0,2025-11-07 11:39:49.768922000
2025-11-07 11:39:45.958832,36,2025-11-07 11:39:49.776614308
2025-11-07 11:39:45.958832,8448,2025-11-07 11:39:49.784306615
2025-11-07 11:39:45.958832,0,2025-11-07 11:39:49.791998923
2025-11-07 11:39:45.958832,55,2025-11-07 11:39:49.799691231
2025-11-07 11:39:45.958832,6144,2025-11-07 11:39:49.807383538
2025-11-07 11:39:45.958832,0,2025-11-07 11:39:49.815075846
2025-11-07 11:39:45.958832,38,2025-11-07 11:39:49.822768154
2025-11-07 11:39:45.958832,11520,2025-11-07 11:39:49.830460462
2025-11-07 11:39:45.958832,0,2025-11-07 11:39:49.838152769
2025-11-07 11:39:45.958832,19,2025-11-07 11:39:49.845845077
2025-11-07 11:39:45.958832,10240,2025-11-07 11:39:49.853537385
2025-11-07 11:39:45.958832,0,2025-11-07 11:39:49.861229692
2025-11-07 11:39:45.958832,16,2025-11-07 11:39:49.868922000
2025-11-07 11:39:45.958832,1792,2025-11-07 11:39:49.876614308
2025-11-07 11:39:45.958832,0,2025-11-07 11:39:49.884306615
2025-11-07 11:39:45.958832,19,2025-11-07 11:39:49.891998923
2025-11-07 11:39:45.958832,-3584,2025-11-07 11:39:49.899691231
2025-11-07 11:39:45.958832,-1,2025-11-07 11:39:49.907383538
2025-11-07 11:39:45.958832,12,2025-11-07 11:39:49.915075846
2025-11-07 11:39:45.958832,4096,2025-11-07 11:39:49.922768154
2025-11-07 11:39:45.958832,0,2025-11-07 11:39:49.930460462
2025-11-07 11:39:45.958832,14,2025-11-07 11:39:49.938152769
2025-11-07 11:39:45.958832,13312,2025-11-07 11:39:49.945845077
2025-11-07 11:39:45.958832,0,2025-11-07 11:39:49.953537385
2025-11-07 11:39:45.958832,26,2025-11-07 11:39:49.961229692
2025-11-07 11:39:45.958832,8448,2025-11-07 11:39:49.968922000
2025-11-07 11:39:45.958832,0,2025-11-07 11:39:49.976614308
2025-11-07 11:39:45.958832,48,2025-11-07 11:39:49.984306615
2025-11-07 11:39:45.958832,4864,2025-11-07 11:39:49.991998923
2025-11-07 11:39:45.958832,0,2025-11-07 11:39:49.999691231
2025-11-07 11:39:45.958832,26,2025-11-07 11:39:50.007383538
2025-11-07 11:39:45.958832,2304,2025-11-07 11:39:50.015075846
2025-11-07 11:39:45.958832,0,2025-11-07 11:39:50.022768154
2025-11-07 11:39:45.958832,19,2025-11-07 11:39:50.030460462
2025-11-07 11:39:45.958832,9728,2025-11-07 11:39:50.038152769
2025-11-07 11:39:45.958832,0,2025-11-07 11:39:50.045845077
2025-11-07 11:39:45.958832,9,2025-11-07 11:39:50.053537385
2025-11-07 11:39:45.958832,7936,2025-11-07 11:39:50.061229692
2025-11-07 11:39:45.958832,0,2025-11-07 11:39:50.068922000
2025-11-07 11:39:45.958832,7,2025-11-07 11:39:50.076614308
2025-11-07 11:39:45.958832,-18944,2025-11-07 11:39:50.084306615
2025-11-07 11:39:45.958832,-1,2025-11-07 11:39:50.091998923
2025-11-07 11:39:45.958832,-125,2025-11-07 11:39:50.099691231
2025-11-07 11:39:45.958832,-30977,2025-11-07 11:39:50.107383538
2025-11-07 11:39:45.958832,-1,2025-11-07 11:39:50.115075846
2025-11-07 11:39:45.958832,165,2025-11-07 11:39:50.122768154
2025-11-07 11:39:45.958832,22784,2025-11-07 11:39:50.130460462
2025-11-07 11:39:45.958832,2,2025-11-07 11:39:50.138152769
2025-11-07 11:39:45.958832,692,2025-11-07 11:39:50.145845077
2025-11-07 11:39:45.958832,-6144,2025-11-07 11:39:50.153537385
2025-11-07 11:39:45.958832,1,2025-11-07 11:39:50.161229692
2025-11-07 11:39:45.958832,238,2025-11-07 11:39:50.168922000
2025-11-07 11:39:45.958832,9216,2025-11-07 11:39:50.176614308
2025-11-07 11:39:45.958832,0,2025-11-07 11:39:50.184306615
2025-11-07 11:39:45.958832,-81,2025-11-07 11:39:50.191998923
2025-11-07 11:39:45.958832,-29185,2025-11-07 11:39:50.199691230
2025-11-07 11:39:45.958832,-1,2025-11-07 11:39:50.207383538
2025-11-07 11:39:45.958832,-79,2025-11-07 11:39:50.215075846
2025-11-07 11:39:45.958832,-24321,2025-11-07 11:39:50.222768154
2025-11-07 11:39:45.958832,-1,2025-11-07 11:39:50.230460462
2025-11-07 11:39:45.958832,-105,2025-11-07 11:39:50.238152769
2025-11-07 11:39:45.958832,-15617,2025-11-07 11:39:50.245845077
2025-11-07 11:39:45.958832,-1,2025-11-07 11:39:50.253537385
2025-11-07 11:39:45.958832,-88,2025-11-07 11:39:50.261229692
2025-11-07 11:39:45.958832,-19969,2025-11-07 11:39:50.268922000
2025-11-07 11:39:45.958832,-1,2025-11-07 11:39:50.276614308
2025-11-07 11:39:45.958832,-62,2025-11-07 11:39:50.284306615
2025-11-07 11:39:45.958832,-23041,2025-11-07 11:39:50.291998923
2025-11-07 11:39:45.958832,-1,2025-11-07 11:39:50.299691231
2025-11-07 11:39:45.958832,-62,2025-11-07 11:39:50.307383538
2025-11-07 11:39:45.958832,-19201,2025-11-07 11:39:50.315075846
2025-11-07 11:39:45.958832,-1,2025-11-07 11:39:50.322768154
2025-11-07 11:39:45.958832,-84,2025-11-07 11:39:50.330460462
2025-11-07 11:39:45.958832,-15105,2025-11-07 11:39:50.338152769
2025-11-07 11:39:45.958832,-1,2025-11-07 11:39:50.345845077
2025-11-07 11:39:45.958832,-93,2025-11-07 11:39:50.353537385
2025-11-07 11:39:45.958832,-19201,2025-11-07 11:39:50.361229692
2025-11-07 11:39:45.958832,-1,2025-11-07 11:39:50.368922000
2025-11-07 11:39:45.958832,-84,2025-11-07 11:39:50.376614308
2025-11-07 11:39:45.958832,-26113,2025-11-07 11:39:50.384306615
2025-11-07 11:39:45.958832,-1,2025-11-07 11:39:50.391998923
2025-11-07 11:39:45.958832,-79,2025-11-07 11:39:50.399691231
2025-11-07 11:39:46.498807,-105,2025-11-07 11:39:50.407383538
2025-11-07 11:39:46.498807,-23553,2025-11-07 11:39:50.415075846
2025-11-07 11:39:46.498807,-1,2025-11-07 11:39:50.422768154
2025-11-07 11:39:46.498807,-74,2025-11-07 11:39:50.430460462
2025-11-07 11:39:46.498807,-23553,2025-11-07 11:39:50.438152769
2025-11-07 11:39:46.498807,-1,2025-11-07 11:39:50.445845077
2025-11-07 11:39:46.498807,-64,2025-11-07 11:39:50.453537385
2025-11-07 11:39:46.498807,-19201,2025-11-07 11:39:50.461229692
2025-11-07 11:39:46.498807,-1,2025-11-07 11:39:50.468922000
2025-11-07 11:39:46.498807,-67,2025-11-07 11:39:50.476614308
2025-11-07 11:39:46.498807,-8193,2025-11-07 11:39:50.484306615
2025-11-07 11:39:46.498807,-1,2025-11-07 11:39:50.491998923
2025-11-07 11:39:46.498807,-40,2025-11-07 11:39:50.499691231
2025-11-07 11:39:46.498807,5631,2025-11-07 11:39:50.507383538
2025-11-07 11:39:46.498807,0,2025-11-07 11:39:50.515075846
2025-11-07 11:39:46.498807,40,2025-11-07 11:39:50.522768154
2025-11-07 11:39:46.498807,6144,2025-11-07 11:39:50.530460462
2025-11-07 11:39:46.498807,0,2025-11-07 11:39:50.538152769
2025-11-07 11:39:46.498807,69,2025-11-07 11:39:50.545845077
2025-11-07 11:39:46.498807,11520,2025-11-07 11:39:50.553537385
2025-11-07 11:39:46.498807,0,2025-11-07 11:39:50.561229692
2025-11-07 11:39:46.498807,40,2025-11-07 11:39:50.568922000
2025-11-07 11:39:46.498807,13312,2025-11-07 11:39:50.576614308
2025-11-07 11:39:46.498807,0,2025-11-07 11:39:50.584306615
2025-11-07 11:39:46.498807,24,2025-11-07 11:39:50.591998923
2025-11-07 11:39:46.498807,12288,2025-11-07 11:39:50.599691231
2025-11-07 11:39:46.498807,0,2025-11-07 11:39:50.607383538
2025-11-07 11:39:46.498807,31,2025-11-07 11:39:50.615075846
2025-11-07 11:39:46.498807,6656,2025-11-07 11:39:50.622768154
2025-11-07 11:39:46.498807,0,2025-11-07 11:39:50.630460462
2025-11-07 11:39:46.498807,52,2025-11-07 11:39:50.638152769
2025-11-07 11:39:46.498807,5376,2025-11-07 11:39:50.645845077
2025-11-07 11:39:46.498807,0,2025-11-07 11:39:50.653537385
2025-11-07 11:39:46.498807,36,2025-11-07 11:39:50.661229692
2025-11-07 11:39:46.498807,7936,2025-11-07 11:39:50.668922000
2025-11-07 11:39:46.498807,0,2025-11-07 11:39:50.676614308
2025-11-07 11:39:46.498807,9,2025-11-07 11:39:50.684306615
2025-11-07 11:39:46.498807,10240,2025-11-07 11:39:50.691998923
2025-11-07 11:39:46.498807,0,2025-11-07 11:39:50.699691231
2025-11-07 11:39:46.498807,21,2025-11-07 11:39:50.707383538
2025-11-07 11:39:46.498807,7168,2025-11-07 11:39:50.715075846
2025-11-07 11:39:46.498807,0,2025-11-07 11:39:50.722768154
2025-11-07 11:39:46.498807,40,2025-11-07 11:39:50.730460462
2025-11-07 11:39:46.498807,3072,2025-11-07 11:39:50.738152769
2025-11-07 11:39:46.498807,0,2025-11-07 11:39:50.745845077
2025-11-07 11:39:46.498807,43,2025-11-07 11:39:50.753537385
2025-11-07 11:39:46.498807,7168,2025-11-07 11:39:50.761229692
2025-11-07 11:39:46.498807,0,2025-11-07 11:39:50.768922000
2025-11-07 11:39:46.498807,21,2025-11-07 11:39:50.776614308
2025-11-07 11:39:46.498807,12288,2025-11-07 11:39:50.784306615
2025-11-07 11:39:46.498807,0,2025-11-07 11:39:50.791998923
2025-11-07 11:39:46.498807,16,2025-11-07 11:39:50.799691231
2025-11-07 11:39:46.498807,7936,2025-11-07 11:39:50.807383538
2025-11-07 11:39:46.498807,0,2025-11-07 11:39:50.815075846
2025-11-07 11:39:46.498807,31,2025-11-07 11:39:50.822768154
2025-11-07 11:39:46.498807,1024,2025-11-07 11:39:50.830460462
2025-11-07 11:39:46.498807,0,2025-11-07 11:39:50.838152769
2025-11-07 11:39:46.498807,31,2025-11-07 11:39:50.845845077
2025-11-07 11:39:46.498807,1792,2025-11-07 11:39:50.853537385
2025-11-07 11:39:46.498807,0,2025-11-07 11:39:50.861229692
2025-11-07 11:39:46.498807,9,2025-11-07 11:39:50.868922000
2025-11-07 11:39:46.498807,7168,2025-11-07 11:39:50.876614308
2025-11-07 11:39:46.498807,0,2025-11-07 11:39:50.884306615
2025-11-07 11:39:46.498807,0,2025-11-07 11:39:50.891998923
2025-11-07 11:39:46.498807,4096,2025-11-07 11:39:50.899691231
2025-11-07 11:39:46.498807,0,2025-11-07 11:39:50.907383538
2025-11-07 11:39:46.498807,2,2025-11-07 11:39:50.915075846
2025-11-07 11:39:46.498807,-512,2025-11-07 11:39:50.922768154
2025-11-07 11:39:46.498807,-1,2025-11-07 11:39:50.930460462
2025-11-07 11:39:46.498807,36,2025-11-07 11:39:50.938152769
2025-11-07 11:39:46.498807,5376,2025-11-07 11:39:50.945845077
2025-11-07 11:39:46.498807,0,2025-11-07 11:39:50.953537385
2025-11-07 11:39:46.498807,48,2025-11-07 11:39:50.961229692
2025-11-07 11:39:46.498807,11520,2025-11-07 11:39:50.968922000
2025-11-07 11:39:46.498807,0,2025-11-07 11:39:50.976614308
2025-11-07 11:39:46.498807,24,2025-11-07 11:39:50.984306615
2025-11-07 11:39:46.498807,14080,2025-11-07 11:39:50.991998923
2025-11-07 11:39:46.498807,0,2025-11-07 11:39:50.999691231
2025-11-07 11:39:46.498807,19,2025-11-07 11:39:51.007383538
2025-11-07 11:39:46.498807,2304,2025-11-07 11:39:51.015075846
2025-11-07 11:39:46.498807,0,2025-11-07 11:39:51.022768154
2025-11-07 11:39:46.498807,28,2025-11-07 11:39:51.030460462
2025-11-07 11:39:46.498807,0,2025-11-07 11:39:51.038152769
2025-11-07 11:39:46.498807,0,2025-11-07 11:39:51.045845077
2025-11-07 11:39:46.498807,16,2025-11-07 11:39:51.053537385
2025-11-07 11:39:46.498807,0,2025-11-07 11:39:51.061229692
2025-11-07 11:39:46.498807,0,2025-11-07 11:39:51.068922000
2025-11-07 11:39:46.498807,-14,2025-11-07 11:39:51.076614308
2025-11-07 11:39:46.498807,-4609,2025-11-07 11:39:51.084306615
2025-11-07 11:39:46.498807,-1,2025-11-07 11:39:51.091998923
2025-11-07 11:39:46.498807,-117,2025-11-07 11:39:51.099691231
2025-11-07 11:39:46.498807,27647,2025-11-07 11:39:51.107383538
2025-11-07 11:39:46.498807,-1,2025-11-07 11:39:51.115075846
2025-11-07 11:39:46.498807,-19,2025-11-07 11:39:51.122768154
2025-11-07 11:39:46.498807,24575,2025-11-07 11:39:51.130460462
2025-11-07 11:39:46.498807,1,2025-11-07 11:39:51.138152769
2025-11-07 11:39:46.498807,704,2025-11-07 11:39:51.145845077
2025-11-07 11:39:46.498807,21504,2025-11-07 11:39:51.153537385
2025-11-07 11:39:46.498807,2,2025-11-07 11:39:51.161229692
2025-11-07 11:39:46.498807,341,2025-11-07 11:39:51.168922000
2025-11-07 11:39:46.498807,-28160,2025-11-07 11:39:51.176614308
2025-11-07 11:39:46.498807,0,2025-11-07 11:39:51.184306615
2025-11-07 11:39:46.498807,-62,2025-11-07 11:39:51.191998923
2025-11-07 11:39:46.498807,-25601,2025-11-07 11:39:51.199691230
2025-11-07 11:39:46.498807,-1,2025-11-07 11:39:51.207383538
2025-11-07 11:39:46.498807,-86,2025-11-07 11:39:51.215075846
2025-11-07 11:39:46.498807,-23041,2025-11-07 11:39:51.222768154
2025-11-07 11:39:46.498807,-1,2025-11-07 11:39:51.230460462
2025-11-07 11:39:46.498807,-69,2025-11-07 11:39:51.238152769
2025-11-07 11:39:47.083940,-79,2025-11-07 11:39:51.245845077
2025-11-07 11:39:47.083940,-13825,2025-11-07 11:39:51.253537385
2025-11-07 11:39:47.083940,-1,2025-11-07 11:39:51.261229692
2025-11-07 11:39:47.083940,-48,2025-11-07 11:39:51.268922000
2025-11-07 11:39:47.083940,-15617,2025-11-07 11:39:51.276614308
2025-11-07 11:39:47.083940,-1,2025-11-07 11:39:51.284306615
2025-11-07 11:39:47.083940,-21,2025-11-07 11:39:51.291998923
2025-11-07 11:39:47.083940,-10753,2025-11-07 11:39:51.299691231
2025-11-07 11:39:47.083940,-1,2025-11-07 11:39:51.307383538
2025-11-07 11:39:47.083940,-38,2025-11-07 11:39:51.315075846
2025-11-07 11:39:47.083940,-2817,2025-11-07 11:39:51.322768154
2025-11-07 11:39:47.083940,-1,2025-11-07 11:39:51.330460462
2025-11-07 11:39:47.083940,-55,2025-11-07 11:39:51.338152769
2025-11-07 11:39:47.083940,-10753,2025-11-07 11:39:51.345845077
2025-11-07 11:39:47.083940,-1,2025-11-07 11:39:51.353537385
2025-11-07 11:39:47.083940,-40,2025-11-07 11:39:51.361229692
2025-11-07 11:39:47.083940,-13825,2025-11-07 11:39:51.368922000
2025-11-07 11:39:47.083940,-1,2025-11-07 11:39:51.376614308
2025-11-07 11:39:47.083940,-36,2025-11-07 11:39:51.384306615
2025-11-07 11:39:47.083940,-16129,2025-11-07 11:39:51.391998923
2025-11-07 11:39:47.083940,-1,2025-11-07 11:39:51.399691231
2025-11-07 11:39:47.083940,-52,2025-11-07 11:39:51.407383538
2025-11-07 11:39:47.083940,-11265,2025-11-07 11:39:51.415075846
2025-11-07 11:39:47.083940,-1,2025-11-07 11:39:51.422768154
2025-11-07 11:39:47.083940,-69,2025-11-07 11:39:51.430460462
2025-11-07 11:39:47.083940,-9473,2025-11-07 11:39:51.438152769
2025-11-07 11:39:47.083940,-1,2025-11-07 11:39:51.445845077
2025-11-07 11:39:47.083940,-52,2025-11-07 11:39:51.453537385
2025-11-07 11:39:47.083940,-12033,2025-11-07 11:39:51.461229692
2025-11-07 11:39:47.083940,-1,2025-11-07 11:39:51.468922000
2025-11-07 11:39:47.083940,-19,2025-11-07 11:39:51.476614308
2025-11-07 11:39:47.083940,-7681,2025-11-07 11:39:51.484306615
2025-11-07 11:39:47.083940,-1,2025-11-07 11:39:51.491998923
2025-11-07 11:39:47.083940,12,2025-11-07 11:39:51.499691231
2025-11-07 11:39:47.083940,6144,2025-11-07 11:39:51.507383538
2025-11-07 11:39:47.083940,0,2025-11-07 11:39:51.515075846
2025-11-07 11:39:47.083940,21,2025-11-07 11:39:51.522768154
2025-11-07 11:39:47.083940,14592,2025-11-07 11:39:51.530460462
2025-11-07 11:39:47.083940,0,2025-11-07 11:39:51.538152769
2025-11-07 11:39:47.083940,33,2025-11-07 11:39:51.545845077
2025-11-07 11:39:47.083940,11520,2025-11-07 11:39:51.553537385
2025-11-07 11:39:47.083940,0,2025-11-07 11:39:51.561229692
2025-11-07 11:39:47.083940,52,2025-11-07 11:39:51.568922000
2025-11-07 11:39:47.083940,8448,2025-11-07 11:39:51.576614308
2025-11-07 11:39:47.083940,0,2025-11-07 11:39:51.584306615
2025-11-07 11:39:47.083940,64,2025-11-07 11:39:51.591998923
2025-11-07 11:39:47.083940,9728,2025-11-07 11:39:51.599691231
2025-11-07 11:39:47.083940,0,2025-11-07 11:39:51.607383538
2025-11-07 11:39:47.083940,33,2025-11-07 11:39:51.615075846
2025-11-07 11:39:47.083940,13312,2025-11-07 11:39:51.622768154
2025-11-07 11:39:47.083940,0,2025-11-07 11:39:51.630460462
2025-11-07 11:39:47.083940,24,2025-11-07 11:39:51.638152769
2025-11-07 11:39:47.083940,11520,2025-11-07 11:39:51.645845077
2025-11-07 11:39:47.083940,0,2025-11-07 11:39:51.653537385
2025-11-07 11:39:47.083940,38,2025-11-07 11:39:51.661229692
2025-11-07 11:39:47.083940,3584,2025-11-07 11:39:51.668922000
2025-11-07 11:39:47.083940,0,2025-11-07 11:39:51.676614308
2025-11-07 11:39:47.083940,38,2025-11-07 11:39:51.684306615
2025-11-07 11:39:47.083940,3072,2025-11-07 11:39:51.691998923
2025-11-07 11:39:47.083940,0,2025-11-07 11:39:51.699691231
2025-11-07 11:39:47.083940,28,2025-11-07 11:39:51.707383538
2025-11-07 11:39:47.083940,11520,2025-11-07 11:39:51.715075846
2025-11-07 11:39:47.083940,0,2025-11-07 11:39:51.722768154
2025-11-07 11:39:47.083940,19,2025-11-07 11:39:51.730460462
2025-11-07 11:39:47.083940,12288,2025-11-07 11:39:51.738152769
2025-11-07 11:39:47.083940,0,2025-11-07 11:39:51.745845077
2025-11-07 11:39:47.083940,31,2025-11-07 11:39:51.753537385
2025-11-07 11:39:47.083940,7936,2025-11-07 11:39:51.761229692
2025-11-07 11:39:47.083940,0,2025-11-07 11:39:51.768922000
2025-11-07 11:39:47.083940,60,2025-11-07 11:39:51.776614308
2025-11-07 11:39:47.083940,7936,2025-11-07 11:39:51.784306615
2025-11-07 11:39:47.083940,0,2025-11-07 11:39:51.791998923
2025-11-07 11:39:47.083940,48,2025-11-07 11:39:51.799691231
2025-11-07 11:39:47.083940,10240,2025-11-07 11:39:51.807383538
2025-11-07 11:39:47.083940,0,2025-11-07 11:39:51.815075846
2025-11-07 11:39:47.083940,26,2025-11-07 11:39:51.822768154
2025-11-07 11:39:47.083940,14080,2025-11-07 11:39:51.830460462
2025-11-07 11:39:47.083940,0,2025-11-07 11:39:51.838152769
2025-11-07 11:39:47.083940,28,2025-11-07 11:39:51.845845077
2025-11-07 11:39:47.083940,10240,2025-11-07 11:39:51.853537385
2025-11-07 11:39:47.083940,0,2025-11-07 11:39:51.861229692
2025-11-07 11:39:47.083940,50,2025-11-07 11:39:51.868922000
2025-11-07 11:39:47.083940,6144,2025-11-07 11:39:51.876614308
2025-11-07 11:39:47.083940,0,2025-11-07 11:39:51.884306615
2025-11-07 11:39:47.083940,52,2025-11-07 11:39:51.891998923
2025-11-07 11:39:47.083940,7168,2025-11-07 11:39:51.899691231
2025-11-07 11:39:47.083940,0,2025-11-07 11:39:51.907383538
2025-11-07 11:39:47.083940,16,2025-11-07 11:39:51.915075846
2025-11-07 11:39:47.083940,11008,2025-11-07 11:39:51.922768154
2025-11-07 11:39:47.083940,0,2025-11-07 11:39:51.930460462
2025-11-07 11:39:47.083940,19,2025-11-07 11:39:51.938152769
2025-11-07 11:39:47.083940,13312,2025-11-07 11:39:51.945845077
2025-11-07 11:39:47.083940,0,2025-11-07 11:39:51.953537385
2025-11-07 11:39:47.083940,62,2025-11-07 11:39:51.961229692
2025-11-07 11:39:47.083940,9216,2025-11-07 11:39:51.968922000
2025-11-07 11:39:47.083940,0,2025-11-07 11:39:51.976614308
2025-11-07 11:39:47.083940,67,2025-11-07 11:39:51.984306615
2025-11-07 11:39:47.083940,14080,2025-11-07 11:39:51.991998923
2025-11-07 11:39:47.083940,0,2025-11-07 11:39:51.999691231
2025-11-07 11:39:47.083940,52,2025-11-07 11:39:52.007383538
2025-11-07 11:39:47.083940,11520,2025-11-07 11:39:52.015075846
2025-11-07 11:39:47.083940,0,2025-11-07 11:39:52.022768154
2025-11-07 11:39:47.083940,26,2025-11-07 11:39:52.030460462
2025-11-07 11:39:47.083940,17152,2025-11-07 11:39:52.038152769
2025-11-07 11:39:47.083940,0,2025-11-07 11:39:52.045845077
2025-11-07 11:39:47.083940,48,2025-11-07 11:39:52.053537385
2025-11-07 11:39:47.083940,8448,2025-11-07 11:39:52.061229692
2025-11-07 11:39:47.083940,0,2025-11-07 11:39:52.068922000
2025-11-07 11:39:47.083940,52,2025-11-07 11:39:52.076614308
2025-11-07 11:39:47.624122,-9,2025-11-07 11:39:52.084306615
2025-11-07 11:39:47.624122,-16129,2025-11-07 11:39:52.091998923
2025-11-07 11:39:47.624122,-1,2025-11-07 11:39:52.099691231
2025-11-07 11:39:47.624122,-117,2025-11-07 11:39:52.107383538
2025-11-07 11:39:47.624122,-6913,2025-11-07 11:39:52.115075846
2025-11-07 11:39:47.624122,-1,2025-11-07 11:39:52.122768154
2025-11-07 11:39:47.624122,360,2025-11-07 11:39:52.130460462
2025-11-07 11:39:47.624122,-28160,2025-11-07 11:39:52.138152769
2025-11-07 11:39:47.624122,2,2025-11-07 11:39:52.145845077
2025-11-07 11:39:47.624122,596,2025-11-07 11:39:52.153537385
2025-11-07 11:39:47.624122,27392,2025-11-07 11:39:52.161229692
2025-11-07 11:39:47.624122,1,2025-11-07 11:39:52.168922000
2025-11-07 11:39:47.624122,141,2025-11-07 11:39:52.176614308
2025-11-07 11:39:47.624122,7936,2025-11-07 11:39:52.184306615
2025-11-07 11:39:47.624122,0,2025-11-07 11:39:52.191998923
2025-11-07 11:39:47.624122,-31,2025-11-07 11:39:52.199691230
2025-11-07 11:39:47.624122,-10753,2025-11-07 11:39:52.207383538
2025-11-07 11:39:47.624122,-1,2025-11-07 11:39:52.215075846
2025-11-07 11:39:47.624122,-36,2025-11-07 11:39:52.222768154
2025-11-07 11:39:47.624122,-17409,2025-11-07 11:39:52.230460462
2025-11-07 11:39:47.624122,-1,2025-11-07 11:39:52.238152769
2025-11-07 11:39:47.624122,-38,2025-11-07 11:39:52.245845077
2025-11-07 11:39:47.624122,-8961,2025-11-07 11:39:52.253537385
2025-11-07 11:39:47.624122,-1,2025-11-07 11:39:52.261229692
2025-11-07 11:39:47.624122,-55,2025-11-07 11:39:52.268922000
2025-11-07 11:39:47.624122,-4609,2025-11-07 11:39:52.276614308
2025-11-07 11:39:47.624122,-1,2025-11-07 11:39:52.284306615
2025-11-07 11:39:47.624122,-43,2025-11-07 11:39:52.291998923
2025-11-07 11:39:47.624122,-9473,2025-11-07 11:39:52.299691231
2025-11-07 11:39:47.624122,-1,2025-11-07 11:39:52.307383538
2025-11-07 11:39:47.624122,-24,2025-11-07 11:39:52.315075846
2025-11-07 11:39:47.624122,-12545,2025-11-07 11:39:52.322768154
2025-11-07 11:39:47.624122,-1,2025-11-07 11:39:52.330460462
2025-11-07 11:39:47.624122,-28,2025-11-07 11:39:52.338152769
2025-11-07 11:39:47.624122,-12033,2025-11-07 11:39:52.345845077
2025-11-07 11:39:47.624122,-1,2025-11-07 11:39:52.353537385
2025-11-07 11:39:47.624122,-55,2025-11-07 11:39:52.361229692
2025-11-07 11:39:47.624122,-7681,2025-11-07 11:39:52.368922000
2025-11-07 11:39:47.624122,-1,2025-11-07 11:39:52.376614308
2025-11-07 11:39:47.624122,-64,2025-11-07 11:39:52.384306615
2025-11-07 11:39:47.624122,-12033,2025-11-07 11:39:52.391998923
2025-11-07 11:39:47.624122,-1,2025-11-07 11:39:52.399691231
2025-11-07 11:39:47.624122,-48,2025-11-07 11:39:52.407383538
2025-11-07 11:39:47.624122,-17409,2025-11-07 11:39:52.415075846
2025-11-07 11:39:47.624122,-1,2025-11-07 11:39:52.422768154
2025-11-07 11:39:47.624122,-36,2025-11-07 11:39:52.430460462
2025-11-07 11:39:47.624122,-13057,2025-11-07 11:39:52.438152769
2025-11-07 11:39:47.624122,-1,2025-11-07 11:39:52.445845077
2025-11-07 11:39:47.624122,-40,2025-11-07 11:39:52.453537385
2025-11-07 11:39:47.624122,-4609,2025-11-07 11:39:52.461229692
2025-11-07 11:39:47.624122,-1,2025-11-07 11:39:52.468922000
2025-11-07 11:39:47.624122,-43,2025-11-07 11:39:52.476614308
2025-11-07 11:39:47.624122,-1537,2025-11-07 11:39:52.484306615
2025-11-07 11:39:47.624122,-1,2025-11-07 11:39:52.491998923
2025-11-07 11:39:47.624122,-9,2025-11-07 11:39:52.499691231
2025-11-07 11:39:47.624122,-2049,2025-11-07 11:39:52.507383538
2025-11-07 11:39:47.624122,-1,2025-11-07 11:39:52.515075846
2025-11-07 11:39:47.624122,24,2025-11-07 11:39:52.522768154
2025-11-07 11:39:47.624122,1024,2025-11-07 11:39:52.530460462
2025-11-07 11:39:47.624122,0,2025-11-07 11:39:52.538152769
2025-11-07 11:39:47.624122,28,2025-11-07 11:39:52.545845077
2025-11-07 11:39:47.624122,7936,2025-11-07 11:39:52.553537385
2025-11-07 11:39:47.624122,0,2025-11-07 11:39:52.561229692
2025-11-07 11:39:47.624122,7,2025-11-07 11:39:52.568922000
2025-11-07 11:39:47.624122,9216,2025-11-07 11:39:52.576614308
2025-11-07 11:39:47.624122,0,2025-11-07 11:39:52.584306615
2025-11-07 11:39:47.624122,12,2025-11-07 11:39:52.591998923
2025-11-07 11:39:47.624122,3072,2025-11-07 11:39:52.599691231
2025-11-07 11:39:47.624122,0,2025-11-07 11:39:52.607383538
2025-11-07 11:39:47.624122,24,2025-11-07 11:39:52.615075846
2025-11-07 11:39:47.624122,-1024,2025-11-07 11:39:52.622768154
2025-11-07 11:39:47.624122,-1,2025-11-07 11:39:52.630460462
2025-11-07 11:39:47.624122,24,2025-11-07 11:39:52.638152769
2025-11-07 11:39:47.624122,4096,2025-11-07 11:39:52.645845077
2025-11-07 11:39:47.624122,0,2025-11-07 11:39:52.653537385
2025-11-07 11:39:47.624122,9,2025-11-07 11:39:52.661229692
2025-11-07 11:39:47.624122,10240,2025-11-07 11:39:52.668922000
2025-11-07 11:39:47.624122,0,2025-11-07 11:39:52.676614308
2025-11-07 11:39:47.624122,14,2025-11-07 11:39:52.684306615
2025-11-07 11:39:47.624122,7168,2025-11-07 11:39:52.691998923
2025-11-07 11:39:47.624122,0,2025-11-07 11:39:52.699691231
2025-11-07 11:39:47.624122,26,2025-11-07 11:39:52.707383538
2025-11-07 11:39:47.624122,512,2025-11-07 11:39:52.715075846
2025-11-07 11:39:47.624122,0,2025-11-07 11:39:52.722768154
2025-11-07 11:39:47.624122,38,2025-11-07 11:39:52.730460462
2025-11-07 11:39:47.624122,3584,2025-11-07 11:39:52.738152769
2025-11-07 11:39:47.624122,0,2025-11-07 11:39:52.745845077
2025-11-07 11:39:47.624122,16,2025-11-07 11:39:52.753537385
2025-11-07 11:39:47.624122,9728,2025-11-07 11:39:52.761229692
2025-11-07 11:39:47.624122,0,2025-11-07 11:39:52.768922000
2025-11-07 11:39:47.624122,7,2025-11-07 11:39:52.776614308
2025-11-07 11:39:47.624122,9728,2025-11-07 11:39:52.784306615
2025-11-07 11:39:47.624122,0,2025-11-07 11:39:52.791998923
2025-11-07 11:39:47.624122,38,2025-11-07 11:39:52.799691231
2025-11-07 11:39:47.624122,5376,2025-11-07 11:39:52.807383538
2025-11-07 11:39:47.624122,0,2025-11-07 11:39:52.815075846
2025-11-07 11:39:47.624122,43,2025-11-07 11:39:52.822768154
2025-11-07 11:39:47.624122,5376,2025-11-07 11:39:52.830460462
2025-11-07 11:39:47.624122,0,2025-11-07 11:39:52.838152769
2025-11-07 11:39:47.624122,40,2025-11-07 11:39:52.845845077
2025-11-07 11:39:47.624122,11520,2025-11-07 11:39:52.853537385
2025-11-07 11:39:47.624122,0,2025-11-07 11:39:52.861229692
2025-11-07 11:39:47.624122,19,2025-11-07 11:39:52.868922000
2025-11-07 11:39:47.624122,11520,2025-11-07 11:39:52.876614308
2025-11-07 11:39:47.624122,0,2025-11-07 11:39:52.884306615
2025-11-07 11:39:47.624122,16,2025-11-07 11:39:52.891998923
2025-11-07 11:39:47.624122,1792,2025-11-07 11:39:52.899691231
2025-11-07 11:39:47.624122,0,2025-11-07 11:39:52.907383538
2025-11-07 11:39:47.624122,9,2025-11-07 11:39:52.915075846
2025-11-07 11:39:48.208836,-21,2025-11-07 11:39:52.922768154
2025-11-07 11:39:48.208836,3839,2025-11-07 11:39:52.930460462
2025-11-07 11:39:48.208836,0,2025-11-07 11:39:52.938152769
2025-11-07 11:39:48.208836,19,2025-11-07 11:39:52.945845077
2025-11-07 11:39:48.208836,4864,2025-11-07 11:39:52.953537385
2025-11-07 11:39:48.208836,0,2025-11-07 11:39:52.961229692
2025-11-07 11:39:48.208836,55,2025-11-07 11:39:52.968922000
2025-11-07 11:39:48.208836,4096,2025-11-07 11:39:52.976614308
2025-11-07 11:39:48.208836,0,2025-11-07 11:39:52.984306615
2025-11-07 11:39:48.208836,48,2025-11-07 11:39:52.991998923
2025-11-07 11:39:48.208836,20736,2025-11-07 11:39:52.999691231
2025-11-07 11:39:48.208836,0,2025-11-07 11:39:53.007383538
2025-11-07 11:39:48.208836,36,2025-11-07 11:39:53.015075846
2025-11-07 11:39:48.208836,10240,2025-11-07 11:39:53.022768154
2025-11-07 11:39:48.208836,0,2025-11-07 11:39:53.030460462
2025-11-07 11:39:48.208836,36,2025-11-07 11:39:53.038152769
2025-11-07 11:39:48.208836,11520,2025-11-07 11:39:53.045845077
2025-11-07 11:39:48.208836,0,2025-11-07 11:39:53.053537385
2025-11-07 11:39:48.208836,60,2025-11-07 11:39:53.061229692
2025-11-07 11:39:48.208836,7936,2025-11-07 11:39:53.068922000
2025-11-07 11:39:48.208836,0,2025-11-07 11:39:53.076614308
2025-11-07 11:39:48.208836,48,2025-11-07 11:39:53.084306615
2025-11-07 11:39:48.208836,-3584,2025-11-07 11:39:53.091998923
2025-11-07 11:39:48.208836,-1,2025-11-07 11:39:53.099691231
2025-11-07 11:39:48.208836,-108,2025-11-07 11:39:53.107383538
2025-11-07 11:39:48.208836,-23041,2025-11-07 11:39:53.115075846
2025-11-07 11:39:48.208836,-1,2025-11-07 11:39:53.122768154
2025-11-07 11:39:48.208836,74,2025-11-07 11:39:53.130460462
2025-11-07 11:39:48.208836,-10496,2025-11-07 11:39:53.138152769
2025-11-07 11:39:48.208836,1,2025-11-07 11:39:53.145845077
2025-11-07 11:39:48.208836,668,2025-11-07 11:39:53.153537385
2025-11-07 11:39:48.208836,-14336,2025-11-07 11:39:53.161229692
2025-11-07 11:39:48.208836,1,2025-11-07 11:39:53.168922000
2025-11-07 11:39:48.208836,252,2025-11-07 11:39:53.176614308
2025-11-07 11:39:48.208836,18432,2025-11-07 11:39:53.184306615
2025-11-07 11:39:48.208836,0,2025-11-07 11:39:53.191998923
2025-11-07 11:39:48.208836,-52,2025-11-07 11:39:53.199691230
2025-11-07 11:39:48.208836,-13825,2025-11-07 11:39:53.207383538
2025-11-07 11:39:48.208836,-1,2025-11-07 11:39:53.215075846
2025-11-07 11:39:48.208836,-67,2025-11-07 11:39:53.222768154
2025-11-07 11:39:48.208836,-12033,2025-11-07 11:39:53.230460462
2025-11-07 11:39:48.208836,-1,2025-11-07 11:39:53.238152769
2025-11-07 11:39:48.208836,-57,2025-11-07 11:39:53.245845077
2025-11-07 11:39:48.208836,-15617,2025-11-07 11:39:53.253537385
2025-11-07 11:39:48.208836,-1,2025-11-07 11:39:53.261229692
2025-11-07 11:39:48.208836,-28,2025-11-07 11:39:53.268922000
2025-11-07 11:39:48.208836,-15105,2025-11-07 11:39:53.276614308
2025-11-07 11:39:48.208836,-1,2025-11-07 11:39:53.284306615
2025-11-07 11:39:48.208836,-48,2025-11-07 11:39:53.291998923
2025-11-07 11:39:48.208836,-9473,2025-11-07 11:39:53.299691231
2025-11-07 11:39:48.208836,-1,2025-11-07 11:39:53.307383538
2025-11-07 11:39:48.208836,-67,2025-11-07 11:39:53.315075846
2025-11-07 11:39:48.208836,-9473,2025-11-07 11:39:53.322768154
2025-11-07 11:39:48.208836,-1,2025-11-07 11:39:53.330460462
2025-11-07 11:39:48.208836,-52,2025-11-07 11:39:53.338152769
2025-11-07 11:39:48.208836,-14337,2025-11-07 11:39:53.345845077
2025-11-07 11:39:48.208836,-1,2025-11-07 11:39:53.353537385
2025-11-07 11:39:48.208836,-38,2025-11-07 11:39:53.361229692
2025-11-07 11:39:48.208836,-17409,2025-11-07 11:39:53.368922000
2025-11-07 11:39:48.208836,-1,2025-11-07 11:39:53.376614308
2025-11-07 11:39:48.208836,-52,2025-11-07 11:39:53.384306615
2025-11-07 11:39:48.208836,-15617,2025-11-07 11:39:53.391998923
2025-11-07 11:39:48.208836,-1,2025-11-07 11:39:53.399691231
2025-11-07 11:39:48.208836,-79,2025-11-07 11:39:53.407383538
2025-11-07 11:39:48.208836,-10753,2025-11-07 11:39:53.415075846
2025-11-07 11:39:48.208836,-1,2025-11-07 11:39:53.422768154
2025-11-07 11:39:48.208836,-64,2025-11-07 11:39:53.430460462
2025-11-07 11:39:48.208836,-12033,2025-11-07 11:39:53.438152769
2025-11-07 11:39:48.208836,-1,2025-11-07 11:39:53.445845077
2025-11-07 11:39:48.208836,-36,2025-11-07 11:39:53.453537385
2025-11-07 11:39:48.208836,-12545,2025-11-07 11:39:53.461229692
2025-11-07 11:39:48.208836,-1,2025-11-07 11:39:53.468922000
2025-11-07 11:39:48.208836,-9,2025-11-07 11:39:53.476614308
2025-11-07 11:39:48.208836,-5121,2025-11-07 11:39:53.484306615
2025-11-07 11:39:48.208836,-1,2025-11-07 11:39:53.491998923
2025-11-07 11:39:48.208836,-16,2025-11-07 11:39:53.499691231
2025-11-07 11:39:48.208836,3839,2025-11-07 11:39:53.507383538
2025-11-07 11:39:48.208836,0,2025-11-07 11:39:53.515075846
2025-11-07 11:39:48.208836,-9,2025-11-07 11:39:53.522768154
2025-11-07 11:39:48.208836,6399,2025-11-07 11:39:53.530460462
2025-11-07 11:39:48.208836,0,2025-11-07 11:39:53.538152769
2025-11-07 11:39:48.208836,36,2025-11-07 11:39:53.545845077
2025-11-07 11:39:48.208836,4096,2025-11-07 11:39:53.553537385
2025-11-07 11:39:48.208836,0,2025-11-07 11:39:53.561229692
2025-11-07 11:39:48.208836,48,2025-11-07 11:39:53.568922000
2025-11-07 11:39:48.208836,6144,2025-11-07 11:39:53.576614308
2025-11-07 11:39:48.208836,0,2025-11-07 11:39:53.584306615
2025-11-07 11:39:48.208836,31,2025-11-07 11:39:53.591998923
2025-11-07 11:39:48.208836,9728,2025-11-07 11:39:53.599691231
2025-11-07 11:39:48.208836,0,2025-11-07 11:39:53.607383538
2025-11-07 11:39:48.208836,9,2025-11-07 11:39:53.615075846
2025-11-07 11:39:48.208836,8448,2025-11-07 11:39:53.622768154
2025-11-07 11:39:48.208836,0,2025-11-07 11:39:53.630460462
2025-11-07 11:39:48.208836,16,2025-11-07 11:39:53.638152769
2025-11-07 11:39:48.208836,4096,2025-11-07 11:39:53.645845077
2025-11-07 11:39:48.208836,0,2025-11-07 11:39:53.653537385
2025-11-07 11:39:48.208836,40,2025-11-07 11:39:53.661229692
2025-11-07 11:39:48.208836,2304,2025-11-07 11:39:53.668922000
2025-11-07 11:39:48.208836,0,2025-11-07 11:39:53.676614308
2025-11-07 11:39:48.208836,31,2025-11-07 11:39:53.684306615
2025-11-07 11:39:48.208836,7168,2025-11-07 11:39:53.691998923
2025-11-07 11:39:48.208836,0,2025-11-07 11:39:53.699691231
2025-11-07 11:39:48.208836,12,2025-11-07 11:39:53.707383538
2025-11-07 11:39:48.208836,11008,2025-11-07 11:39:53.715075846
2025-11-07 11:39:48.208836,0,2025-11-07 11:39:53.722768154
2025-11-07 11:39:48.208836,16,2025-11-07 11:39:53.730460462
2025-11-07 11:39:48.208836,6656,2025-11-07 11:39:53.738152769
2025-11-07 11:39:48.208836,0,2025-11-07 11:39:53.745845077
