timestamp,ecg
15:26:15.229077,89
15:26:15.229077,17152
15:26:15.229077,0
15:26:15.229077,45
15:26:15.229077,8448
15:26:15.229077,0
15:26:15.229077,31
15:26:15.229077,4096
15:26:15.229077,0
15:26:15.229077,-7
15:26:15.229077,-6401
15:26:15.229077,-1
15:26:15.229077,-38
15:26:15.229077,-13825
15:26:15.229077,-1
15:26:15.229077,-74
15:26:15.229077,-19969
15:26:15.229077,-1
15:26:15.229077,-82
15:26:15.229077,-21761
15:26:15.229077,-1
15:26:15.229077,-89
15:26:15.229077,-22529
15:26:15.229077,-1
15:26:15.229077,-82
15:26:15.229077,-16897
15:26:15.229077,-1
15:26:15.229077,-43
15:26:15.229077,767
15:26:15.229077,0
15:26:15.229077,43
15:26:15.229077,16640
15:26:15.229077,0
15:26:15.229077,86
15:26:15.229077,25856
15:26:15.229077,0
15:26:15.229077,103
15:26:15.229077,25088
15:26:15.229077,0
15:26:15.229077,96
15:26:15.229077,24064
15:26:15.229077,0
15:26:15.229077,84
15:26:15.229077,19712
15:26:15.229077,0
15:26:15.229077,79
15:26:15.229077,19712
15:26:15.229077,0
15:26:15.229077,79
15:26:15.229077,20992
15:26:15.229077,0
15:26:15.229077,79
15:26:15.229077,19712
15:26:15.229077,0
15:26:15.229077,69
15:26:15.229077,18432
15:26:15.229077,0
15:26:15.229077,79
15:26:15.229077,19712
15:26:15.229077,0
15:26:15.229077,72
15:26:15.229077,19712
15:26:15.229077,0
15:26:15.229077,82
15:26:15.229077,19712
15:26:15.229077,0
15:26:15.229077,69
15:26:15.229077,17664
15:26:15.229077,0
15:26:15.229077,67
15:26:15.229077,14080
15:26:15.229077,0
15:26:15.229077,41
15:26:15.229077,7168
15:26:15.229077,0
15:26:15.229077,28
15:26:15.229077,8448
15:26:15.229077,0
15:26:15.229077,41
15:26:15.229077,13568
15:26:15.229077,0
15:26:15.229077,55
15:26:15.229077,13568
15:26:15.229077,0
15:26:15.229077,48
15:26:15.229077,11520
15:26:15.229077,0
15:26:15.229077,50
15:26:15.229077,14080
15:26:15.229077,0
15:26:15.229077,57
15:26:15.229077,21504
15:26:15.229077,0
15:26:15.229077,149
15:26:15.229077,-29952
15:26:15.229077,0
15:26:15.229077,-176
15:26:15.229077,-16641
15:26:15.229077,-4
15:26:15.229077,-1505
15:26:15.229077,32255
15:26:15.229077,-7
15:26:15.229077,-996
15:26:15.229077,-14337
15:26:15.229077,-1
15:26:15.229077,236
15:26:15.229077,21504
15:26:15.229077,0
15:26:15.229077,135
15:26:15.810686,246
15:26:15.810686,-15104
15:26:15.810686,0
15:26:15.810686,176
15:26:15.810686,-13056
15:26:15.810686,0
15:26:15.810686,185
15:26:15.810686,-28672
15:26:15.810686,0
15:26:15.810686,142
15:26:15.810686,-29184
15:26:15.810686,0
15:26:15.810686,130
15:26:15.810686,30208
15:26:15.810686,0
15:26:15.810686,108
15:26:15.810686,23296
15:26:15.810686,0
15:26:15.810686,62
15:26:15.810686,11008
15:26:15.810686,0
15:26:15.810686,31
15:26:15.810686,2304
15:26:15.810686,0
15:26:15.810686,-9
15:26:15.810686,-5121
15:26:15.810686,-1
15:26:15.810686,-43
15:26:15.810686,-15617
15:26:15.810686,-1
15:26:15.810686,-72
15:26:15.810686,-19457
15:26:15.810686,-1
15:26:15.810686,-91
15:26:15.810686,-25601
15:26:15.810686,-1
15:26:15.810686,-94
15:26:15.810686,-19969
15:26:15.810686,-1
15:26:15.810686,-62
15:26:15.810686,-6913
15:26:15.810686,-1
15:26:15.810686,19
15:26:15.810686,14080
15:26:15.810686,0
15:26:15.810686,79
15:26:15.810686,25856
15:26:15.810686,0
15:26:15.810686,108
15:26:15.810686,26368
15:26:15.810686,0
15:26:15.810686,106
15:26:15.810686,28160
15:26:15.810686,0
15:26:15.810686,103
15:26:15.810686,22784
15:26:15.810686,0
15:26:15.810686,79
15:26:15.810686,20992
15:26:15.810686,0
15:26:15.810686,84
15:26:15.810686,20224
15:26:15.810686,0
15:26:15.810686,82
15:26:15.810686,22784
15:26:15.810686,0
15:26:15.810686,89
15:26:15.810686,20224
15:26:15.810686,0
15:26:15.810686,74
15:26:15.810686,21504
15:26:15.810686,0
15:26:15.810686,82
15:26:15.810686,18944
15:26:15.810686,0
15:26:15.810686,77
15:26:15.810686,22016
15:26:15.810686,0
15:26:15.810686,86
15:26:15.810686,20992
15:26:15.810686,0
15:26:15.810686,84
15:26:15.810686,20224
15:26:15.810686,0
15:26:15.810686,53
15:26:15.810686,6656
15:26:15.810686,0
15:26:15.810686,26
15:26:15.810686,9216
15:26:15.810686,0
15:26:15.810686,45
15:26:15.810686,15360
15:26:15.810686,0
15:26:15.810686,62
15:26:15.810686,15360
15:26:15.810686,0
15:26:15.810686,62
15:26:15.810686,15360
15:26:15.810686,0
15:26:15.810686,60
15:26:15.810686,16640
15:26:15.810686,0
15:26:15.810686,60
15:26:15.810686,17664
15:26:15.810686,0
15:26:15.810686,130
15:26:15.810686,-21248
15:26:15.810686,0
15:26:15.810686,-16
15:26:16.351088,-593
15:26:16.351088,-12801
15:26:16.351088,-6
15:26:16.351088,-1727
15:26:16.351088,-4865
15:26:16.351088,-6
15:26:16.351088,-301
15:26:16.351088,-4353
15:26:16.351088,0
15:26:16.351088,137
15:26:16.351088,27648
15:26:16.351088,0
15:26:16.351088,250
15:26:16.351088,-3328
15:26:16.351088,0
15:26:16.351088,185
15:26:16.351088,-11264
15:26:16.351088,0
15:26:16.351088,219
15:26:16.351088,-17408
15:26:16.351088,0
15:26:16.351088,173
15:26:16.351088,-21248
15:26:16.351088,0
15:26:16.351088,154
15:26:16.351088,-30464
15:26:16.351088,0
15:26:16.351088,130
15:26:16.351088,28160
15:26:16.351088,0
15:26:16.351088,86
15:26:16.351088,17152
15:26:16.351088,0
15:26:16.351088,50
15:26:16.351088,8448
15:26:16.351088,0
15:26:16.351088,14
15:26:16.351088,-2304
15:26:16.351088,-1
15:26:16.351088,-33
15:26:16.351088,-11265
15:26:16.351088,-1
15:26:16.351088,-60
15:26:16.351088,-16897
15:26:16.351088,-1
15:26:16.351088,-72
15:26:16.351088,-19969
15:26:16.351088,-1
15:26:16.351088,-82
15:26:16.351088,-16897
15:26:16.351088,-1
15:26:16.351088,-50
15:26:16.351088,-5889
15:26:16.351088,-1
15:26:16.351088,16
15:26:16.351088,14592
15:26:16.351088,0
15:26:16.351088,86
15:26:16.351088,26368
15:26:16.351088,0
15:26:16.351088,125
15:26:16.351088,-31744
15:26:16.351088,0
15:26:16.351088,120
15:26:16.351088,28928
15:26:16.351088,0
15:26:16.351088,110
15:26:16.351088,25856
15:26:16.351088,0
15:26:16.351088,98
15:26:16.351088,25856
15:26:16.351088,0
15:26:16.351088,98
15:26:16.351088,24576
15:26:16.351088,0
15:26:16.351088,94
15:26:16.351088,23296
15:26:16.351088,0
15:26:16.351088,89
15:26:16.351088,22016
15:26:16.351088,0
15:26:16.351088,89
15:26:16.351088,22784
15:26:16.351088,0
15:26:16.351088,91
15:26:16.351088,24064
15:26:16.351088,0
15:26:16.351088,89
15:26:16.351088,22784
15:26:16.351088,0
15:26:16.351088,91
15:26:16.351088,23296
15:26:16.351088,0
15:26:16.351088,91
15:26:16.351088,24064
15:26:16.351088,0
15:26:16.351088,86
15:26:16.351088,18432
15:26:16.351088,0
15:26:16.351088,53
15:26:16.351088,10496
15:26:16.351088,0
15:26:16.351088,45
15:26:16.351088,14080
15:26:16.351088,0
15:26:16.351088,60
15:26:16.351088,14592
15:26:16.351088,0
15:26:16.351088,60
15:26:16.890445,69
15:26:16.890445,18432
15:26:16.890445,0
15:26:16.890445,65
15:26:16.890445,15872
15:26:16.890445,0
15:26:16.890445,62
15:26:16.890445,18432
15:26:16.890445,0
15:26:16.890445,115
15:26:16.890445,-21248
15:26:16.890445,0
15:26:16.890445,60
15:26:16.890445,21248
15:26:16.890445,-2
15:26:16.890445,-1170
15:26:16.890445,25599
15:26:16.890445,-7
15:26:16.890445,-1450
15:26:16.890445,6143
15:26:16.890445,-2
15:26:16.890445,207
15:26:16.890445,-17408
15:26:16.890445,0
15:26:16.890445,106
15:26:16.890445,-3840
15:26:16.890445,0
15:26:16.890445,270
15:26:16.890445,-13056
15:26:16.890445,0
15:26:16.890445,219
15:26:16.890445,-6912
15:26:16.890445,0
15:26:16.890445,195
15:26:16.890445,-18688
15:26:16.890445,0
15:26:16.890445,178
15:26:16.890445,-24832
15:26:16.890445,0
15:26:16.890445,144
15:26:16.890445,-30976
15:26:16.890445,0
15:26:16.890445,118
15:26:16.890445,26368
15:26:16.890445,0
15:26:16.890445,89
15:26:16.890445,18944
15:26:16.890445,0
15:26:16.890445,57
15:26:16.890445,10496
15:26:16.890445,0
15:26:16.890445,21
15:26:16.890445,1024
15:26:16.890445,0
15:26:16.890445,-7
15:26:16.890445,-4609
15:26:16.890445,-1
15:26:16.890445,-28
15:26:16.890445,-7681
15:26:16.890445,-1
15:26:16.890445,-31
15:26:16.890445,-7681
15:26:16.890445,-1
15:26:16.890445,-33
15:26:16.890445,-5121
15:26:16.890445,-1
15:26:16.890445,9
15:26:16.890445,10496
15:26:16.890445,0
15:26:16.890445,72
15:26:16.890445,25856
15:26:16.890445,0
15:26:16.890445,123
15:26:16.890445,-30464
15:26:16.890445,0
15:26:16.890445,139
15:26:16.890445,-31744
15:26:16.890445,0
15:26:16.890445,130
15:26:16.890445,32000
15:26:16.890445,0
15:26:16.890445,118
15:26:16.890445,30208
15:26:16.890445,0
15:26:16.890445,115
15:26:16.890445,27648
15:26:16.890445,0
15:26:16.890445,106
15:26:16.890445,27648
15:26:16.890445,0
15:26:16.890445,108
15:26:16.890445,27136
15:26:16.890445,0
15:26:16.890445,108
15:26:16.890445,28160
15:26:16.890445,0
15:26:16.890445,110
15:26:16.890445,28160
15:26:16.890445,0
15:26:16.890445,106
15:26:16.890445,27136
15:26:16.890445,0
15:26:16.890445,106
15:26:16.890445,26368
15:26:16.890445,0
15:26:16.890445,101
15:26:16.890445,25856
15:26:16.890445,0
15:26:16.890445,98
15:26:17.431006,96
15:26:17.431006,25088
15:26:17.431006,0
15:26:17.431006,96
15:26:17.431006,25088
15:26:17.431006,0
15:26:17.431006,106
15:26:17.431006,27136
15:26:17.431006,0
15:26:17.431006,101
15:26:17.431006,23296
15:26:17.431006,0
15:26:17.431006,67
15:26:17.431006,15360
15:26:17.431006,0
15:26:17.431006,69
15:26:17.431006,18944
15:26:17.431006,0
15:26:17.431006,74
15:26:17.431006,18944
15:26:17.431006,0
15:26:17.431006,77
15:26:17.431006,20992
15:26:17.431006,0
15:26:17.431006,82
15:26:17.431006,19712
15:26:17.431006,0
15:26:17.431006,74
15:26:17.431006,18432
15:26:17.431006,0
15:26:17.431006,86
15:26:17.431006,-28672
15:26:17.431006,0
15:26:17.431006,193
15:26:17.431006,0
15:26:17.431006,0
15:26:17.431006,-591
15:26:17.431006,-12289
15:26:17.431006,-6
15:26:17.431006,-1703
15:26:17.431006,9983
15:26:17.431006,-5
15:26:17.431006,-258
15:26:17.431006,-3073
15:26:17.431006,0
15:26:17.431006,135
15:26:17.431006,30720
15:26:17.431006,0
15:26:17.431006,253
15:26:17.431006,-5120
15:26:17.431006,0
15:26:17.431006,193
15:26:17.431006,-9984
15:26:17.431006,0
15:26:17.431006,207
15:26:17.431006,-21248
15:26:17.431006,0
15:26:17.431006,173
15:26:17.431006,-22528
15:26:17.431006,0
15:26:17.431006,149
15:26:17.431006,-29952
15:26:17.431006,0
15:26:17.431006,130
15:26:17.431006,28160
15:26:17.431006,0
15:26:17.431006,94
15:26:17.431006,20224
15:26:17.431006,0
15:26:17.431006,62
15:26:17.431006,12288
15:26:17.431006,0
15:26:17.431006,33
15:26:17.431006,3072
15:26:17.431006,0
15:26:17.431006,-7
15:26:17.431006,-5121
15:26:17.431006,-1
15:26:17.431006,-31
15:26:17.431006,-9473
15:26:17.431006,-1
15:26:17.431006,-43
15:26:17.431006,-11265
15:26:17.431006,-1
15:26:17.431006,-43
15:26:17.431006,-10241
15:26:17.431006,-1
15:26:17.431006,-28
15:26:17.431006,-257
15:26:17.431006,-1
15:26:17.431006,33
15:26:17.431006,16640
15:26:17.431006,0
15:26:17.431006,91
15:26:17.431006,28160
15:26:17.431006,0
15:26:17.431006,127
15:26:17.431006,-31744
15:26:17.431006,0
15:26:17.431006,127
15:26:17.431006,30720
15:26:17.431006,0
15:26:17.431006,115
15:26:17.431006,28928
15:26:17.431006,0
15:26:17.431006,113
15:26:17.431006,27648
15:26:17.431006,0
15:26:17.431006,101
15:26:18.060754,98
15:26:18.060754,25856
15:26:18.060754,0
15:26:18.060754,101
15:26:18.060754,27648
15:26:18.060754,0
15:26:18.060754,115
15:26:18.060754,27648
15:26:18.060754,0
15:26:18.060754,98
15:26:18.060754,25856
15:26:18.060754,0
15:26:18.060754,106
15:26:18.060754,25856
15:26:18.060754,0
15:26:18.060754,98
15:26:18.060754,25088
15:26:18.060754,0
15:26:18.060754,96
15:26:18.060754,24064
15:26:18.060754,0
15:26:18.060754,94
15:26:18.060754,24064
15:26:18.060754,0
15:26:18.060754,89
15:26:18.060754,20992
15:26:18.060754,0
15:26:18.060754,84
15:26:18.060754,21504
15:26:18.060754,0
15:26:18.060754,84
15:26:18.060754,20992
15:26:18.060754,0
15:26:18.060754,77
15:26:18.060754,18944
15:26:18.060754,0
15:26:18.060754,72
15:26:18.060754,18944
15:26:18.060754,0
15:26:18.060754,77
15:26:18.060754,20992
15:26:18.060754,0
15:26:18.060754,84
15:26:18.060754,19712
15:26:18.060754,0
15:26:18.060754,60
15:26:18.060754,10496
15:26:18.060754,0
15:26:18.060754,31
15:26:18.060754,8448
15:26:18.060754,0
15:26:18.060754,36
15:26:18.060754,11520
15:26:18.060754,0
15:26:18.060754,53
15:26:18.060754,13568
15:26:18.060754,0
15:26:18.060754,55
15:26:18.060754,15360
15:26:18.060754,0
15:26:18.060754,55
15:26:18.060754,12800
15:26:18.060754,0
15:26:18.060754,48
15:26:18.060754,14080
15:26:18.060754,0
15:26:18.060754,103
15:26:18.060754,-19968
15:26:18.060754,0
15:26:18.060754,77
15:26:18.060754,26112
15:26:18.060754,-2
15:26:18.060754,-1141
15:26:18.060754,-32513
15:26:18.060754,-7
15:26:18.060754,-1476
15:26:18.060754,-12545
15:26:18.060754,-3
15:26:18.060754,164
15:26:18.060754,-21248
15:26:18.060754,0
15:26:18.060754,77
15:26:18.060754,-12544
15:26:18.060754,0
15:26:18.060754,246
15:26:18.060754,-19456
15:26:18.060754,0
15:26:18.060754,188
15:26:18.060754,-13824
15:26:18.060754,0
15:26:18.060754,171
15:26:18.060754,-24832
15:26:18.060754,0
15:26:18.060754,161
15:26:18.060754,-28672
15:26:18.060754,0
15:26:18.060754,125
15:26:18.060754,29440
15:26:18.060754,0
15:26:18.060754,98
15:26:18.060754,22016
15:26:18.060754,0
15:26:18.060754,74
15:26:18.060754,14080
15:26:18.060754,0
15:26:18.060754,36
15:26:18.060754,4864
15:26:18.060754,0
15:26:18.060754,9
15:26:18.601334,-7
15:26:18.601334,-7681
15:26:18.601334,-1
15:26:18.601334,-43
15:26:18.601334,-12033
15:26:18.601334,-1
15:26:18.601334,-60
15:26:18.601334,-15617
15:26:18.601334,-1
15:26:18.601334,-55
15:26:18.601334,-15105
15:26:18.601334,-1
15:26:18.601334,-57
15:26:18.601334,-8961
15:26:18.601334,-1
15:26:18.601334,-4
15:26:18.601334,8191
15:26:18.601334,0
15:26:18.601334,74
15:26:18.601334,27648
15:26:18.601334,0
15:26:18.601334,115
15:26:18.601334,30720
15:26:18.601334,0
15:26:18.601334,125
15:26:18.601334,29440
15:26:18.601334,0
15:26:18.601334,108
15:26:18.601334,29440
15:26:18.601334,0
15:26:18.601334,118
15:26:18.601334,26368
15:26:18.601334,0
15:26:18.601334,94
15:26:18.601334,24576
15:26:18.601334,0
15:26:18.601334,94
15:26:18.601334,22016
15:26:18.601334,0
15:26:18.601334,91
15:26:18.601334,25088
15:26:18.601334,0
15:26:18.601334,94
15:26:18.601334,24064
15:26:18.601334,0
15:26:18.601334,96
15:26:18.601334,24064
15:26:18.601334,0
15:26:18.601334,91
15:26:18.601334,23296
15:26:18.601334,0
15:26:18.601334,84
15:26:18.601334,20992
15:26:18.601334,0
15:26:18.601334,86
15:26:18.601334,22784
15:26:18.601334,0
15:26:18.601334,86
15:26:18.601334,20992
15:26:18.601334,0
15:26:18.601334,77
15:26:18.601334,19712
15:26:18.601334,0
15:26:18.601334,82
15:26:18.601334,19712
15:26:18.601334,0
15:26:18.601334,67
15:26:18.601334,17152
15:26:18.601334,0
15:26:18.601334,74
15:26:18.601334,18432
15:26:18.601334,0
15:26:18.601334,65
15:26:18.601334,15872
15:26:18.601334,0
15:26:18.601334,60
15:26:18.601334,14592
15:26:18.601334,0
15:26:18.601334,67
15:26:18.601334,18944
15:26:18.601334,0
15:26:18.601334,72
15:26:18.601334,17152
15:26:18.601334,0
15:26:18.601334,65
15:26:18.601334,13568
15:26:18.601334,0
15:26:18.601334,36
15:26:18.601334,6144
15:26:18.601334,0
15:26:18.601334,16
15:26:18.601334,4864
15:26:18.601334,0
15:26:18.601334,28
15:26:18.601334,9728
15:26:18.601334,0
15:26:18.601334,36
15:26:18.601334,9728
15:26:18.601334,0
15:26:18.601334,45
15:26:18.601334,11008
15:26:18.601334,0
15:26:18.601334,41
15:26:18.601334,11008
15:26:18.601334,0
15:26:18.601334,48
15:26:18.601334,21504
15:26:18.601334,0
15:26:18.601334,154
15:26:19.142012,115
15:26:19.142012,-4096
15:26:19.142012,-2
15:26:19.142012,-979
15:26:19.142012,-20225
15:26:19.142012,-7
15:26:19.142012,-1669
15:26:19.142012,-30209
15:26:19.142012,-4
15:26:19.142012,33
15:26:19.142012,-5120
15:26:19.142012,0
15:26:19.142012,74
15:26:19.142012,-21248
15:26:19.142012,0
15:26:19.142012,289
15:26:19.142012,-8960
15:26:19.142012,0
15:26:19.142012,197
15:26:19.142012,-5632
15:26:19.142012,0
15:26:19.142012,212
15:26:19.142012,-20480
15:26:19.142012,0
15:26:19.142012,173
15:26:19.142012,-23040
15:26:19.142012,0
15:26:19.142012,144
15:26:19.142012,-29184
15:26:19.142012,0
15:26:19.142012,144
15:26:19.142012,30208
15:26:19.142012,0
15:26:19.142012,89
15:26:19.142012,22784
15:26:19.142012,0
15:26:19.142012,79
15:26:19.142012,11520
15:26:19.142012,0
15:26:19.142012,24
15:26:19.142012,5376
15:26:19.142012,0
15:26:19.142012,2
15:26:19.142012,-6656
15:26:19.142012,-1
15:26:19.142012,-16
15:26:19.142012,-2817
15:26:19.142012,-1
15:26:19.142012,-55
15:26:19.142012,-17409
15:26:19.142012,-1
15:26:19.142012,-28
15:26:19.142012,-4609
15:26:19.142012,-1
15:26:19.142012,-43
15:26:19.142012,-1537
15:26:19.142012,-1
15:26:19.142012,65
15:26:19.142012,23296
15:26:19.142012,0
15:26:19.142012,118
15:26:19.142012,-24832
15:26:19.142012,0
15:26:19.142012,164
15:26:19.142012,-24320
15:26:19.142012,0
15:26:19.142012,171
15:26:19.142012,-23040
15:26:19.142012,0
15:26:19.142012,161
15:26:19.142012,-26112
15:26:19.142012,0
15:26:19.142012,142
15:26:19.142012,-27904
15:26:19.142012,0
15:26:19.142012,144
15:26:19.142012,-30976
15:26:19.142012,0
15:26:19.142012,139
15:26:19.142012,-27904
15:26:19.142012,0
15:26:19.142012,139
15:26:19.142012,-30976
15:26:19.142012,0
15:26:19.142012,135
15:26:19.142012,-30976
15:26:19.142012,0
15:26:19.142012,137
15:26:19.142012,-29952
15:26:19.142012,0
15:26:19.142012,135
15:26:19.142012,32000
15:26:19.142012,0
15:26:19.142012,130
15:26:19.142012,-30464
15:26:19.142012,0
15:26:19.142012,125
15:26:19.142012,30720
15:26:19.142012,0
15:26:19.142012,142
15:26:19.142012,-27392
15:26:19.142012,0
15:26:19.142012,142
15:26:19.142012,-27392
15:26:19.142012,0
15:26:19.142012,144
15:26:19.142012,27648
15:26:19.142012,0
15:26:19.142012,72
15:26:19.771795,67
15:26:19.771795,18944
15:26:19.771795,0
15:26:19.771795,74
15:26:19.771795,20992
15:26:19.771795,0
15:26:19.771795,91
15:26:19.771795,25088
15:26:19.771795,0
15:26:19.771795,118
15:26:19.771795,-30976
15:26:19.771795,0
15:26:19.771795,130
15:26:19.771795,32000
15:26:19.771795,0
15:26:19.771795,139
15:26:19.771795,-27392
15:26:19.771795,0
15:26:19.771795,180
15:26:19.771795,1024
15:26:19.771795,1
15:26:19.771795,265
15:26:19.771795,-13568
15:26:19.771795,-1
15:26:19.771795,-745
15:26:19.771795,17407
15:26:19.771795,-6
15:26:19.771795,-1657
15:26:19.771795,21503
15:26:19.771795,-4
15:26:19.771795,79
15:26:19.771795,-28672
15:26:19.771795,1
15:26:19.771795,238
15:26:19.771795,11008
15:26:19.771795,1
15:26:19.771795,427
15:26:19.771795,31232
15:26:19.771795,1
15:26:19.771795,352
15:26:19.771795,32512
15:26:19.771795,1
15:26:19.771795,374
15:26:19.771795,22784
15:26:19.771795,1
15:26:19.771795,335
15:26:19.771795,17664
15:26:19.771795,1
15:26:19.771795,311
15:26:19.771795,10240
15:26:19.771795,1
15:26:19.771795,277
15:26:19.771795,1792
15:26:19.771795,1
15:26:19.771795,253
15:26:19.771795,-6912
15:26:19.771795,0
15:26:19.771795,200
15:26:19.771795,-20480
15:26:19.771795,0
15:26:19.771795,147
15:26:19.771795,30208
15:26:19.771795,0
15:26:19.771795,89
15:26:19.771795,15360
15:26:19.771795,0
15:26:19.771795,38
15:26:19.771795,6656
15:26:19.771795,0
15:26:19.771795,12
15:26:19.771795,0
15:26:19.771795,0
15:26:19.771795,2
15:26:19.771795,3072
15:26:19.771795,0
15:26:19.771795,28
15:26:19.771795,16640
15:26:19.771795,0
15:26:19.771795,106
15:26:19.771795,-30976
15:26:19.771795,0
15:26:19.771795,161
15:26:19.771795,-19456
15:26:19.771795,0
15:26:19.771795,185
15:26:19.771795,-18176
15:26:19.771795,0
15:26:19.771795,180
15:26:19.771795,-19968
15:26:19.771795,0
15:26:19.771795,173
15:26:19.771795,-23040
15:26:19.771795,0
15:26:19.771795,161
15:26:19.771795,-25600
15:26:19.771795,0
15:26:19.771795,154
15:26:19.771795,-26112
15:26:19.771795,0
15:26:19.771795,152
15:26:19.771795,-27392
15:26:19.771795,0
15:26:19.771795,152
15:26:19.771795,-26112
15:26:19.771795,0
15:26:19.771795,156
15:26:19.771795,-24320
15:26:19.771795,0
15:26:19.771795,164
15:26:20.266682,161
15:26:20.266682,-24832
15:26:20.266682,0
15:26:20.266682,161
15:26:20.266682,-23040
15:26:20.266682,0
15:26:20.266682,168
15:26:20.266682,-22528
15:26:20.266682,0
15:26:20.266682,166
15:26:20.266682,-23040
15:26:20.266682,0
15:26:20.266682,168
15:26:20.266682,-22528
15:26:20.266682,0
15:26:20.266682,171
15:26:20.266682,-20480
15:26:20.266682,0
15:26:20.266682,178
15:26:20.266682,-20480
15:26:20.266682,0
15:26:20.266682,159
15:26:20.266682,-29184
15:26:20.266682,0
15:26:20.266682,135
15:26:20.266682,-31744
15:26:20.266682,0
15:26:20.266682,125
15:26:20.266682,-32256
15:26:20.266682,0
15:26:20.266682,142
15:26:20.266682,-28672
15:26:20.266682,0
15:26:20.266682,139
15:26:20.266682,-29952
15:26:20.266682,0
15:26:20.266682,135
15:26:20.266682,-32256
15:26:20.266682,0
15:26:20.266682,127
15:26:20.266682,-31744
15:26:20.266682,0
15:26:20.266682,156
15:26:20.266682,-8960
15:26:20.266682,0
15:26:20.266682,229
15:26:20.266682,-22784
15:26:20.266682,-1
15:26:20.266682,-784
15:26:20.266682,9471
15:26:20.266682,-6
15:26:20.266682,-1681
15:26:20.266682,8703
15:26:20.266682,-4
15:26:20.266682,-16
15:26:20.266682,12543
15:26:20.266682,1
15:26:20.266682,156
15:26:20.266682,-12032
15:26:20.266682,0
15:26:20.266682,330
15:26:20.266682,6656
15:26:20.266682,1
15:26:20.266682,250
15:26:20.266682,4864
15:26:20.266682,1
15:26:20.266682,250
15:26:20.266682,-8192
15:26:20.266682,0
15:26:20.266682,221
15:26:20.266682,-13056
15:26:20.266682,0
15:26:20.266682,185
15:26:20.266682,-20480
15:26:20.266682,0
15:26:20.266682,161
15:26:20.266682,-29184
15:26:20.266682,0
15:26:20.266682,125
15:26:20.266682,27648
15:26:20.266682,0
15:26:20.266682,91
15:26:20.266682,17664
15:26:20.266682,0
15:26:20.266682,50
15:26:20.266682,7936
15:26:20.266682,0
15:26:20.266682,9
15:26:20.266682,-2304
15:26:20.266682,-1
15:26:20.266682,-26
15:26:20.266682,-9473
15:26:20.266682,-1
15:26:20.266682,-43
15:26:20.266682,-11265
15:26:20.266682,-1
15:26:20.266682,-50
15:26:20.266682,-11265
15:26:20.266682,-1
15:26:20.266682,-24
15:26:20.266682,2559
15:26:20.266682,0
15:26:20.266682,48
15:26:20.266682,21504
15:26:20.266682,0
15:26:20.266682,113
15:26:20.266682,-29952
15:26:20.266682,0
15:26:20.266682,149
15:26:20.809227,147
15:26:20.809227,-27904
15:26:20.809227,0
15:26:20.809227,142
15:26:20.809227,-30976
15:26:20.809227,0
15:26:20.809227,130
15:26:20.809227,31488
15:26:20.809227,0
15:26:20.809227,113
15:26:20.809227,30720
15:26:20.809227,0
15:26:20.809227,127
15:26:20.809227,30208
15:26:20.809227,0
15:26:20.809227,110
15:26:20.809227,29440
15:26:20.809227,0
15:26:20.809227,113
15:26:20.809227,27648
15:26:20.809227,0
15:26:20.809227,108
15:26:20.809227,28160
15:26:20.809227,0
15:26:20.809227,106
15:26:20.809227,25856
15:26:20.809227,0
15:26:20.809227,101
15:26:20.809227,25856
15:26:20.809227,0
15:26:20.809227,98
15:26:20.809227,25856
15:26:20.809227,0
15:26:20.809227,103
15:26:20.809227,26368
15:26:20.809227,0
15:26:20.809227,103
15:26:20.809227,27648
15:26:20.809227,0
15:26:20.809227,101
15:26:20.809227,21504
15:26:20.809227,0
15:26:20.809227,67
15:26:20.809227,12800
15:26:20.809227,0
15:26:20.809227,48
15:26:20.809227,13568
15:26:20.809227,0
15:26:20.809227,60
15:26:20.809227,17664
15:26:20.809227,0
15:26:20.809227,72
15:26:20.809227,18944
15:26:20.809227,0
15:26:20.809227,82
15:26:20.809227,20992
15:26:20.809227,0
15:26:20.809227,72
15:26:20.809227,18944
15:26:20.809227,0
15:26:20.809227,82
15:26:20.809227,25088
15:26:20.809227,0
15:26:20.809227,161
15:26:20.809227,-15616
15:26:20.809227,0
15:26:20.809227,-55
15:26:20.809227,17151
15:26:20.809227,-3
15:26:20.809227,-1440
15:26:20.809227,13823
15:26:20.809227,-7
15:26:20.809227,-1170
15:26:20.809227,24575
15:26:20.809227,-1
15:26:20.809227,267
15:26:20.809227,-32256
15:26:20.809227,0
15:26:20.809227,144
15:26:20.809227,5376
15:26:20.809227,1
15:26:20.809227,243
15:26:20.809227,-13824
15:26:20.809227,0
15:26:20.809227,224
15:26:20.809227,-11264
15:26:20.809227,0
15:26:20.809227,183
15:26:20.809227,-18688
15:26:20.809227,0
15:26:20.809227,173
15:26:20.809227,-27392
15:26:20.809227,0
15:26:20.809227,135
15:26:20.809227,32512
15:26:20.809227,0
15:26:20.809227,115
15:26:20.809227,25856
15:26:20.809227,0
15:26:20.809227,86
15:26:20.809227,17664
15:26:20.809227,0
15:26:20.809227,48
15:26:20.809227,7168
15:26:20.809227,0
15:26:20.809227,9
15:26:20.809227,-3072
15:26:20.809227,-1
15:26:20.809227,-31
15:26:21.436489,-48
15:26:21.436489,-15105
15:26:21.436489,-1
15:26:21.436489,-62
15:26:21.436489,-16385
15:26:21.436489,-1
15:26:21.436489,-62
15:26:21.436489,-10753
15:26:21.436489,-1
15:26:21.436489,-19
15:26:21.436489,2047
15:26:21.436489,0
15:26:21.436489,48
15:26:21.436489,22784
15:26:21.436489,0
15:26:21.436489,115
15:26:21.436489,-30464
15:26:21.436489,0
15:26:21.436489,154
15:26:21.436489,-26112
15:26:21.436489,0
15:26:21.436489,142
15:26:21.436489,-30976
15:26:21.436489,0
15:26:21.436489,132
15:26:21.436489,32512
15:26:21.436489,0
15:26:21.436489,120
15:26:21.436489,29440
15:26:21.436489,0
15:26:21.436489,108
15:26:21.436489,26368
15:26:21.436489,0
15:26:21.436489,106
15:26:21.436489,27136
15:26:21.436489,0
15:26:21.436489,103
15:26:21.436489,25856
15:26:21.436489,0
15:26:21.436489,101
15:26:21.436489,26368
15:26:21.436489,0
15:26:21.436489,103
15:26:21.436489,25088
15:26:21.436489,0
15:26:21.436489,96
15:26:21.436489,24064
15:26:21.436489,0
15:26:21.436489,91
15:26:21.436489,24064
15:26:21.436489,0
15:26:21.436489,94
15:26:21.436489,22016
15:26:21.436489,0
15:26:21.436489,84
15:26:21.436489,22016
15:26:21.436489,0
15:26:21.436489,82
15:26:21.436489,18944
15:26:21.436489,0
15:26:21.436489,79
15:26:21.436489,20224
15:26:21.436489,0
15:26:21.436489,77
15:26:21.436489,19712
15:26:21.436489,0
15:26:21.436489,82
15:26:21.436489,20992
15:26:21.436489,0
15:26:21.436489,67
15:26:21.436489,11008
15:26:21.436489,0
15:26:21.436489,26
15:26:21.436489,5376
15:26:21.436489,0
15:26:21.436489,26
15:26:21.436489,8448
15:26:21.436489,0
15:26:21.436489,38
15:26:21.436489,8448
15:26:21.436489,0
15:26:21.436489,33
15:26:21.436489,11008
15:26:21.436489,0
15:26:21.436489,48
15:26:21.436489,9728
15:26:21.436489,0
15:26:21.436489,33
15:26:21.436489,9728
15:26:21.436489,0
15:26:21.436489,57
15:26:21.436489,30720
15:26:21.436489,0
15:26:21.436489,147
15:26:21.436489,-32000
15:26:21.436489,-1
15:26:21.436489,-801
15:26:21.436489,-3585
15:26:21.436489,-7
15:26:21.436489,-1826
15:26:21.436489,16127
15:26:21.436489,-5
15:26:21.436489,-180
15:26:21.436489,-3073
15:26:21.436489,0
15:26:21.436489,89
15:26:21.436489,27648
15:26:21.436489,0
15:26:21.436489,246
15:26:21.975764,207
15:26:21.975764,-23040
15:26:21.975764,0
15:26:21.975764,197
15:26:21.975764,-20480
15:26:21.975764,0
15:26:21.975764,139
15:26:21.975764,-30464
15:26:21.975764,0
15:26:21.975764,127
15:26:21.975764,27136
15:26:21.975764,0
15:26:21.975764,96
15:26:21.975764,22016
15:26:21.975764,0
15:26:21.975764,65
15:26:21.975764,12800
15:26:21.975764,0
15:26:21.975764,38
15:26:21.975764,6656
15:26:21.975764,0
15:26:21.975764,16
15:26:21.975764,-512
15:26:21.975764,-1
15:26:21.975764,-28
15:26:21.975764,-13313
15:26:21.975764,-1
15:26:21.975764,-74
15:26:21.975764,-23041
15:26:21.975764,-1
15:26:21.975764,-101
15:26:21.975764,-27905
15:26:21.975764,-1
15:26:21.975764,-115
15:26:21.975764,-29953
15:26:21.975764,-1
15:26:21.975764,-118
15:26:21.975764,-24833
15:26:21.975764,-1
15:26:21.975764,-60
15:26:21.975764,-3841
15:26:21.975764,-1
15:26:21.975764,21
15:26:21.975764,14080
15:26:21.975764,0
15:26:21.975764,77
15:26:21.975764,24064
15:26:21.975764,0
15:26:21.975764,98
15:26:21.975764,24576
15:26:21.975764,0
15:26:21.975764,91
15:26:21.975764,21504
15:26:21.975764,0
15:26:21.975764,77
15:26:21.975764,17664
15:26:21.975764,0
15:26:21.975764,65
15:26:21.975764,15360
15:26:21.975764,0
15:26:21.975764,57
15:26:21.975764,14080
15:26:21.975764,0
15:26:21.975764,50
15:26:21.975764,12800
15:26:21.975764,0
15:26:21.975764,53
15:26:21.975764,12800
15:26:21.975764,0
15:26:21.975764,48
15:26:21.975764,13568
15:26:21.975764,0
15:26:21.975764,57
15:26:21.975764,14592
15:26:21.975764,0
15:26:21.975764,62
15:26:21.975764,15360
15:26:21.975764,0
15:26:21.975764,57
15:26:21.975764,14592
15:26:21.975764,0
15:26:21.975764,62
15:26:21.975764,16640
15:26:21.975764,0
15:26:21.975764,72
15:26:21.975764,19712
15:26:21.975764,0
15:26:21.975764,69
15:26:21.975764,14080
15:26:21.975764,0
15:26:21.975764,38
15:26:21.975764,6656
15:26:21.975764,0
15:26:21.975764,28
15:26:21.975764,7936
15:26:21.975764,0
15:26:21.975764,38
15:26:21.975764,11008
15:26:21.975764,0
15:26:21.975764,45
15:26:21.975764,12288
15:26:21.975764,0
15:26:21.975764,48
15:26:21.975764,11520
15:26:21.975764,0
15:26:21.975764,45
15:26:21.975764,11520
15:26:21.975764,0
15:26:21.975764,50
15:26:22.516206,86
15:26:22.516206,-24832
15:26:22.516206,0
15:26:22.516206,113
15:26:22.516206,-12288
15:26:22.516206,-2
15:26:22.516206,-1080
15:26:22.516206,2559
15:26:22.516206,-7
15:26:22.516206,-1792
15:26:22.516206,31999
15:26:22.516206,-4
15:26:22.516206,43
15:26:22.516206,-6912
15:26:22.516206,0
15:26:22.516206,96
15:26:22.516206,-13056
15:26:22.516206,0
15:26:22.516206,296
15:26:22.516206,-6400
15:26:22.516206,0
15:26:22.516206,217
15:26:22.516206,-3840
15:26:22.516206,0
15:26:22.516206,212
15:26:22.516206,-17408
15:26:22.516206,0
15:26:22.516206,188
15:26:22.516206,-20480
15:26:22.516206,0
15:26:22.516206,156
15:26:22.516206,-29184
15:26:22.516206,0
15:26:22.516206,130
15:26:22.516206,29440
15:26:22.516206,0
15:26:22.516206,101
15:26:22.516206,20224
15:26:22.516206,0
15:26:22.516206,60
15:26:22.516206,11008
15:26:22.516206,0
15:26:22.516206,28
15:26:22.516206,1792
15:26:22.516206,0
15:26:22.516206,-12
15:26:22.516206,-6913
15:26:22.516206,-1
15:26:22.516206,-43
15:26:22.516206,-13313
15:26:22.516206,-1
15:26:22.516206,-57
15:26:22.516206,-13313
15:26:22.516206,-1
15:26:22.516206,-48
15:26:22.516206,-8193
15:26:22.516206,-1
15:26:22.516206,-4
15:26:22.516206,9471
15:26:22.516206,0
15:26:22.516206,74
15:26:22.516206,28160
15:26:22.516206,0
15:26:22.516206,135
15:26:22.516206,-26624
15:26:22.516206,0
15:26:22.516206,161
15:26:22.516206,-23552
15:26:22.516206,0
15:26:22.516206,161
15:26:22.516206,-26112
15:26:22.516206,0
15:26:22.516206,147
15:26:22.516206,-27904
15:26:22.516206,0
15:26:22.516206,142
15:26:22.516206,-31744
15:26:22.516206,0
15:26:22.516206,130
15:26:22.516206,-31744
15:26:22.516206,0
15:26:22.516206,127
15:26:22.516206,32000
15:26:22.516206,0
15:26:22.516206,125
15:26:22.516206,32000
15:26:22.516206,0
15:26:22.516206,123
15:26:22.516206,31488
15:26:22.516206,0
15:26:22.516206,123
15:26:22.516206,30720
15:26:22.516206,0
15:26:22.516206,118
15:26:22.516206,30208
15:26:22.516206,0
15:26:22.516206,118
15:26:22.516206,28928
15:26:22.516206,0
15:26:22.516206,110
15:26:22.516206,27648
15:26:22.516206,0
15:26:22.516206,106
15:26:22.516206,27648
15:26:22.516206,0
15:26:22.516206,106
15:26:22.516206,26368
15:26:22.516206,0
15:26:22.516206,103
15:26:23.056485,106
15:26:23.056485,27648
15:26:23.056485,0
15:26:23.056485,113
15:26:23.056485,25856
15:26:23.056485,0
15:26:23.056485,82
15:26:23.056485,16640
15:26:23.056485,0
15:26:23.056485,53
15:26:23.056485,14080
15:26:23.056485,0
15:26:23.056485,72
15:26:23.056485,22784
15:26:23.056485,0
15:26:23.056485,89
15:26:23.056485,20992
15:26:23.056485,0
15:26:23.056485,84
15:26:23.056485,22016
15:26:23.056485,0
15:26:23.056485,82
15:26:23.056485,20224
15:26:23.056485,0
15:26:23.056485,82
15:26:23.056485,21504
15:26:23.056485,0
15:26:23.056485,120
15:26:23.056485,-15616
15:26:23.056485,0
15:26:23.056485,156
15:26:23.056485,-512
15:26:23.056485,-2
15:26:23.056485,-1027
15:26:23.056485,21759
15:26:23.056485,-7
15:26:23.056485,-1696
15:26:23.056485,-14337
15:26:23.056485,-4
15:26:23.056485,72
15:26:23.056485,-5632
15:26:23.056485,0
15:26:23.056485,106
15:26:23.056485,-12544
15:26:23.056485,0
15:26:23.056485,294
15:26:23.056485,-5632
15:26:23.056485,0
15:26:23.056485,224
15:26:23.056485,-2560
15:26:23.056485,0
15:26:23.056485,219
15:26:23.056485,-14336
15:26:23.056485,0
15:26:23.056485,202
15:26:23.056485,-18176
15:26:23.056485,0
15:26:23.056485,164
15:26:23.056485,-24832
15:26:23.056485,0
15:26:23.056485,147
15:26:23.056485,32000
15:26:23.056485,0
15:26:23.056485,110
15:26:23.056485,25856
15:26:23.056485,0
15:26:23.056485,82
15:26:23.056485,14592
15:26:23.056485,0
15:26:23.056485,43
15:26:23.056485,6144
15:26:23.056485,0
15:26:23.056485,0
15:26:23.056485,-3584
15:26:23.056485,-1
15:26:23.056485,-19
15:26:23.056485,-10241
15:26:23.056485,-1
15:26:23.056485,-60
15:26:23.056485,-15105
15:26:23.056485,-1
15:26:23.056485,-53
15:26:23.056485,-12033
15:26:23.056485,-1
15:26:23.056485,-31
15:26:23.056485,2047
15:26:23.056485,0
15:26:23.056485,41
15:26:23.056485,15872
15:26:23.056485,0
15:26:23.056485,91
15:26:23.056485,27648
15:26:23.056485,0
15:26:23.056485,113
15:26:23.056485,28928
15:26:23.056485,0
15:26:23.056485,113
15:26:23.056485,27648
15:26:23.056485,0
15:26:23.056485,98
15:26:23.056485,22784
15:26:23.056485,0
15:26:23.056485,89
15:26:23.056485,21504
15:26:23.056485,0
15:26:23.056485,74
15:26:23.056485,19712
15:26:23.056485,0
15:26:23.056485,82
15:26:23.640699,79
15:26:23.640699,18944
15:26:23.640699,0
15:26:23.640699,67
15:26:23.640699,17152
15:26:23.640699,0
15:26:23.640699,69
15:26:23.640699,20224
15:26:23.640699,0
15:26:23.640699,89
15:26:23.640699,22016
15:26:23.640699,0
15:26:23.640699,79
15:26:23.640699,20224
15:26:23.640699,0
15:26:23.640699,77
15:26:23.640699,19712
15:26:23.640699,0
15:26:23.640699,74
15:26:23.640699,18432
15:26:23.640699,0
15:26:23.640699,69
15:26:23.640699,17664
15:26:23.640699,0
15:26:23.640699,67
15:26:23.640699,15872
15:26:23.640699,0
15:26:23.640699,60
15:26:23.640699,14592
15:26:23.640699,0
15:26:23.640699,55
15:26:23.640699,14080
15:26:23.640699,0
15:26:23.640699,57
15:26:23.640699,16640
15:26:23.640699,0
15:26:23.640699,72
15:26:23.640699,16640
15:26:23.640699,0
15:26:23.640699,45
15:26:23.640699,6144
15:26:23.640699,0
15:26:23.640699,19
15:26:23.640699,5376
15:26:23.640699,0
15:26:23.640699,16
15:26:23.640699,4864
15:26:23.640699,0
15:26:23.640699,28
15:26:23.640699,7168
15:26:23.640699,0
15:26:23.640699,33
15:26:23.640699,9728
15:26:23.640699,0
15:26:23.640699,33
15:26:23.640699,5376
15:26:23.640699,0
15:26:23.640699,19
15:26:23.640699,7936
15:26:23.640699,0
15:26:23.640699,60
15:26:23.640699,32000
15:26:23.640699,0
15:26:23.640699,120
15:26:23.640699,5632
15:26:23.640699,-1
15:26:23.640699,-974
15:26:23.640699,27903
15:26:23.640699,-7
15:26:23.640699,-1809
15:26:23.640699,-8705
15:26:23.640699,-5
15:26:23.640699,-62
15:26:23.640699,-7425
15:26:23.640699,0
15:26:23.640699,67
15:26:23.640699,-29952
15:26:23.640699,0
15:26:23.640699,258
15:26:23.640699,-14336
15:26:23.640699,0
15:26:23.640699,171
15:26:23.640699,-15616
15:26:23.640699,0
15:26:23.640699,173
15:26:23.640699,-26624
15:26:23.640699,0
15:26:23.640699,152
15:26:23.640699,-29952
15:26:23.640699,0
15:26:23.640699,120
15:26:23.640699,27136
15:26:23.640699,0
15:26:23.640699,94
15:26:23.640699,20224
15:26:23.640699,0
15:26:23.640699,62
15:26:23.640699,10496
15:26:23.640699,0
15:26:23.640699,24
15:26:23.640699,2304
15:26:23.640699,0
15:26:23.640699,-14
15:26:23.640699,-8961
15:26:23.640699,-1
15:26:23.640699,-53
15:26:23.640699,-18177
15:26:23.640699,-1
15:26:23.640699,-91
15:26:24.180824,-98
15:26:24.180824,-26113
15:26:24.180824,-1
15:26:24.180824,-108
15:26:24.180824,-26881
15:26:24.180824,-1
15:26:24.180824,-98
15:26:24.180824,-19969
15:26:24.180824,-1
15:26:24.180824,-36
15:26:24.180824,3327
15:26:24.180824,0
15:26:24.180824,55
15:26:24.180824,25088
15:26:24.180824,0
15:26:24.180824,127
15:26:24.180824,-30976
15:26:24.180824,0
15:26:24.180824,137
15:26:24.180824,-29952
15:26:24.180824,0
15:26:24.180824,132
15:26:24.180824,31488
15:26:24.180824,0
15:26:24.180824,113
15:26:24.180824,27136
15:26:24.180824,0
15:26:24.180824,101
15:26:24.180824,25856
15:26:24.180824,0
15:26:24.180824,103
15:26:24.180824,24064
15:26:24.180824,0
15:26:24.180824,89
15:26:24.180824,22016
15:26:24.180824,0
15:26:24.180824,86
15:26:24.180824,22784
15:26:24.180824,0
15:26:24.180824,89
15:26:24.180824,20992
15:26:24.180824,0
15:26:24.180824,77
15:26:24.180824,20224
15:26:24.180824,0
15:26:24.180824,84
15:26:24.180824,20992
15:26:24.180824,0
15:26:24.180824,82
15:26:24.180824,20992
15:26:24.180824,0
15:26:24.180824,74
15:26:24.180824,17664
15:26:24.180824,0
15:26:24.180824,77
15:26:24.180824,20992
15:26:24.180824,0
15:26:24.180824,82
15:26:24.180824,22016
15:26:24.180824,0
15:26:24.180824,77
15:26:24.180824,14592
15:26:24.180824,0
15:26:24.180824,38
15:26:24.180824,6656
15:26:24.180824,0
15:26:24.180824,26
15:26:24.180824,9728
15:26:24.180824,0
15:26:24.180824,53
15:26:24.180824,12288
15:26:24.180824,0
15:26:24.180824,43
15:26:24.180824,14080
15:26:24.180824,0
15:26:24.180824,60
15:26:24.180824,14080
15:26:24.180824,0
15:26:24.180824,48
15:26:24.180824,11008
15:26:24.180824,0
15:26:24.180824,50
15:26:24.180824,24576
15:26:24.180824,0
15:26:24.180824,164
15:26:24.180824,20224
15:26:24.180824,0
15:26:24.180824,-405
15:26:24.180824,22271
15:26:24.180824,-5
15:26:24.180824,-1816
15:26:24.180824,29183
15:26:24.180824,-7
15:26:24.180824,-702
15:26:24.180824,-25857
15:26:24.180824,0
15:26:24.180824,209
15:26:24.180824,20224
15:26:24.180824,0
15:26:24.180824,212
15:26:24.180824,5888
15:26:24.180824,1
15:26:24.180824,209
15:26:24.180824,-13056
15:26:24.180824,0
15:26:24.180824,221
15:26:24.180824,-16128
15:26:24.180824,0
15:26:24.180824,178
15:26:24.765588,176
15:26:24.765588,-24832
15:26:24.765588,0
15:26:24.765588,142
15:26:24.765588,-31744
15:26:24.765588,0
15:26:24.765588,120
15:26:24.765588,27648
15:26:24.765588,0
15:26:24.765588,103
15:26:24.765588,23296
15:26:24.765588,0
15:26:24.765588,67
15:26:24.765588,12288
15:26:24.765588,0
15:26:24.765588,31
15:26:24.765588,1024
15:26:24.765588,0
15:26:24.765588,-12
15:26:24.765588,-6401
15:26:24.765588,-1
15:26:24.765588,-38
15:26:24.765588,-12545
15:26:24.765588,-1
15:26:24.765588,-57
15:26:24.765588,-14337
15:26:24.765588,-1
15:26:24.765588,-53
15:26:24.765588,-10241
15:26:24.765588,-1
15:26:24.765588,-9
15:26:24.765588,8703
15:26:24.765588,0
15:26:24.765588,72
15:26:24.765588,27136
15:26:24.765588,0
15:26:24.765588,132
15:26:24.765588,-27392
15:26:24.765588,0
15:26:24.765588,156
15:26:24.765588,-26112
15:26:24.765588,0
15:26:24.765588,147
15:26:24.765588,-29952
15:26:24.765588,0
15:26:24.765588,135
15:26:24.765588,32512
15:26:24.765588,0
15:26:24.765588,123
15:26:24.765588,29440
15:26:24.765588,0
15:26:24.765588,108
15:26:24.765588,27136
15:26:24.765588,0
15:26:24.765588,103
15:26:24.765588,25856
15:26:24.765588,0
15:26:24.765588,103
15:26:24.765588,27136
15:26:24.765588,0
15:26:24.765588,103
15:26:24.765588,26368
15:26:24.765588,0
15:26:24.765588,106
15:26:24.765588,26368
15:26:24.765588,0
15:26:24.765588,101
15:26:24.765588,25088
15:26:24.765588,0
15:26:24.765588,101
15:26:24.765588,25856
15:26:24.765588,0
15:26:24.765588,94
15:26:24.765588,22784
15:26:24.765588,0
15:26:24.765588,91
15:26:24.765588,23296
15:26:24.765588,0
15:26:24.765588,89
15:26:24.765588,22784
15:26:24.765588,0
15:26:24.765588,91
15:26:24.765588,22784
15:26:24.765588,0
15:26:24.765588,91
15:26:24.765588,25088
15:26:24.765588,0
15:26:24.765588,96
15:26:24.765588,19712
15:26:24.765588,0
15:26:24.765588,53
15:26:24.765588,9728
15:26:24.765588,0
15:26:24.765588,43
15:26:24.765588,13568
15:26:24.765588,0
15:26:24.765588,55
15:26:24.765588,14592
15:26:24.765588,0
15:26:24.765588,60
15:26:24.765588,16640
15:26:24.765588,0
15:26:24.765588,67
15:26:24.765588,16640
15:26:24.765588,0
15:26:24.765588,65
15:26:24.765588,16640
15:26:24.765588,0
15:26:24.765588,65
15:26:25.350829,98
15:26:25.350829,-21248
15:26:25.350829,0
15:26:25.350829,137
15:26:25.350829,-5888
15:26:25.350829,-2
15:26:25.350829,-1059
15:26:25.350829,6399
15:26:25.350829,-7
15:26:25.350829,-1790
15:26:25.350829,32767
15:26:25.350829,-4
15:26:25.350829,72
15:26:25.350829,4096
15:26:25.350829,1
15:26:25.350829,130
15:26:25.350829,-9472
15:26:25.350829,0
15:26:25.350829,306
15:26:25.350829,-2560
15:26:25.350829,0
15:26:25.350829,236
15:26:25.350829,512
15:26:25.350829,1
15:26:25.350829,226
15:26:25.350829,-13824
15:26:25.350829,0
15:26:25.350829,202
15:26:25.350829,-16128
15:26:25.350829,0
15:26:25.350829,173
15:26:25.350829,-24832
15:26:25.350829,0
15:26:25.350829,144
15:26:25.350829,32000
15:26:25.350829,0
15:26:25.350829,106
15:26:25.350829,24064
15:26:25.350829,0
15:26:25.350829,82
15:26:25.350829,15360
15:26:25.350829,0
15:26:25.350829,38
15:26:25.350829,4096
15:26:25.350829,0
15:26:25.350829,-2
15:26:25.350829,-4609
15:26:25.350829,-1
15:26:25.350829,-31
15:26:25.350829,-9473
15:26:25.350829,-1
15:26:25.350829,-48
15:26:25.350829,-14337
15:26:25.350829,-1
15:26:25.350829,-53
15:26:25.350829,-10241
15:26:25.350829,-1
15:26:25.350829,-16
15:26:25.350829,5119
15:26:25.350829,0
15:26:25.350829,60
15:26:25.350829,24064
15:26:25.350829,0
15:26:25.350829,120
15:26:25.350829,-29952
15:26:25.350829,0
15:26:25.350829,149
15:26:25.350829,-27392
15:26:25.350829,0
15:26:25.350829,142
15:26:25.350829,-32256
15:26:25.350829,0
15:26:25.350829,123
15:26:25.350829,31488
15:26:25.350829,0
15:26:25.350829,120
15:26:25.350829,28928
15:26:25.350829,0
15:26:25.350829,110
15:26:25.350829,27648
15:26:25.350829,0
15:26:25.350829,103
15:26:25.350829,26368
15:26:25.350829,0
15:26:25.350829,106
15:26:25.350829,26368
15:26:25.350829,0
15:26:25.350829,106
15:26:25.350829,28160
15:26:25.350829,0
15:26:25.350829,103
15:26:25.350829,25088
15:26:25.350829,0
15:26:25.350829,103
15:26:25.350829,27136
15:26:25.350829,0
15:26:25.350829,103
15:26:25.350829,26368
15:26:25.350829,0
15:26:25.350829,103
15:26:25.350829,25856
15:26:25.350829,0
15:26:25.350829,98
15:26:25.350829,25088
15:26:25.350829,0
15:26:25.350829,98
15:26:25.350829,25088
15:26:25.350829,0
15:26:25.350829,101
15:26:25.890414,101
15:26:25.890414,25856
15:26:25.890414,0
15:26:25.890414,108
15:26:25.890414,28160
15:26:25.890414,0
15:26:25.890414,108
15:26:25.890414,24064
15:26:25.890414,0
15:26:25.890414,74
15:26:25.890414,14592
15:26:25.890414,0
15:26:25.890414,50
15:26:25.890414,14080
15:26:25.890414,0
15:26:25.890414,65
15:26:25.890414,19712
15:26:25.890414,0
15:26:25.890414,91
15:26:25.890414,25856
15:26:25.890414,0
15:26:25.890414,94
15:26:25.890414,22784
15:26:25.890414,0
15:26:25.890414,94
15:26:25.890414,25088
15:26:25.890414,0
15:26:25.890414,94
15:26:25.890414,27648
15:26:25.890414,0
15:26:25.890414,173
15:26:25.890414,-8960
15:26:25.890414,0
15:26:25.890414,-7
15:26:25.890414,28415
15:26:25.890414,-3
15:26:25.890414,-1447
15:26:25.890414,-3585
15:26:25.890414,-8
15:26:25.890414,-1281
15:26:25.890414,4095
15:26:25.890414,-1
15:26:25.890414,272
15:26:25.890414,-24320
15:26:25.890414,0
15:26:25.890414,154
15:26:25.890414,8960
15:26:25.890414,1
15:26:25.890414,270
15:26:25.890414,-9472
15:26:25.890414,0
15:26:25.890414,243
15:26:25.890414,-5120
15:26:25.890414,0
15:26:25.890414,202
15:26:25.890414,-15104
15:26:25.890414,0
15:26:25.890414,190
15:26:25.890414,-21248
15:26:25.890414,0
15:26:25.890414,159
15:26:25.890414,-27904
15:26:25.890414,0
15:26:25.890414,127
15:26:25.890414,27648
15:26:25.890414,0
15:26:25.890414,98
15:26:25.890414,21504
15:26:25.890414,0
15:26:25.890414,60
15:26:25.890414,10496
15:26:25.890414,0
15:26:25.890414,26
15:26:25.890414,2304
15:26:25.890414,0
15:26:25.890414,-12
15:26:25.890414,-6913
15:26:25.890414,-1
15:26:25.890414,-38
15:26:25.890414,-10753
15:26:25.890414,-1
15:26:25.890414,-43
15:26:25.890414,-12033
15:26:25.890414,-1
15:26:25.890414,-45
15:26:25.890414,-6401
15:26:25.890414,-1
15:26:25.890414,2
15:26:25.890414,11008
15:26:25.890414,0
15:26:25.890414,82
15:26:25.890414,28160
15:26:25.890414,0
15:26:25.890414,132
15:26:25.890414,-27904
15:26:25.890414,0
15:26:25.890414,152
15:26:25.890414,-26112
15:26:25.890414,0
15:26:25.890414,152
15:26:25.890414,-29952
15:26:25.890414,0
15:26:25.890414,132
15:26:25.890414,-32256
15:26:25.890414,0
15:26:25.890414,123
15:26:25.890414,30208
15:26:25.890414,0
15:26:25.890414,113
15:26:26.431084,110
15:26:26.431084,27648
15:26:26.431084,0
15:26:26.431084,106
15:26:26.431084,25856
15:26:26.431084,0
15:26:26.431084,101
15:26:26.431084,25856
15:26:26.431084,0
15:26:26.431084,96
15:26:26.431084,23296
15:26:26.431084,0
15:26:26.431084,96
15:26:26.431084,27136
15:26:26.431084,0
15:26:26.431084,113
15:26:26.431084,28160
15:26:26.431084,0
15:26:26.431084,101
15:26:26.431084,25088
15:26:26.431084,0
15:26:26.431084,96
15:26:26.431084,24576
15:26:26.431084,0
15:26:26.431084,91
15:26:26.431084,22784
15:26:26.431084,0
15:26:26.431084,89
15:26:26.431084,21504
15:26:26.431084,0
15:26:26.431084,82
15:26:26.431084,19712
15:26:26.431084,0
15:26:26.431084,77
15:26:26.431084,21504
15:26:26.431084,0
15:26:26.431084,89
15:26:26.431084,21504
15:26:26.431084,0
15:26:26.431084,84
15:26:26.431084,20992
15:26:26.431084,0
15:26:26.431084,62
15:26:26.431084,9216
15:26:26.431084,0
15:26:26.431084,28
15:26:26.431084,6656
15:26:26.431084,0
15:26:26.431084,31
15:26:26.431084,12288
15:26:26.431084,0
15:26:26.431084,57
15:26:26.431084,12800
15:26:26.431084,0
15:26:26.431084,50
15:26:26.431084,14592
15:26:26.431084,0
15:26:26.431084,55
15:26:26.431084,13568
15:26:26.431084,0
15:26:26.431084,57
15:26:26.431084,16640
15:26:26.431084,0
15:26:26.431084,103
15:26:26.431084,-19968
15:26:26.431084,0
15:26:26.431084,130
15:26:26.431084,-8960
15:26:26.431084,-2
15:26:26.431084,-1047
15:26:26.431084,24831
15:26:26.431084,-7
15:26:26.431084,-1655
15:26:26.431084,-3073
15:26:26.431084,-4
15:26:26.431084,86
15:26:26.431084,-9984
15:26:26.431084,0
15:26:26.431084,86
15:26:26.431084,-16896
15:26:26.431084,0
15:26:26.431084,267
15:26:26.431084,-13824
15:26:26.431084,0
15:26:26.431084,195
15:26:26.431084,-8960
15:26:26.431084,0
15:26:26.431084,195
15:26:26.431084,-22528
15:26:26.431084,0
15:26:26.431084,168
15:26:26.431084,-24832
15:26:26.431084,0
15:26:26.431084,142
15:26:26.431084,-31744
15:26:26.431084,0
15:26:26.431084,120
15:26:26.431084,26368
15:26:26.431084,0
15:26:26.431084,91
15:26:26.431084,19712
15:26:26.431084,0
15:26:26.431084,57
15:26:26.431084,10496
15:26:26.431084,0
15:26:26.431084,21
15:26:26.431084,512
15:26:26.431084,0
15:26:26.431084,-12
15:26:26.971062,-26
15:26:26.971062,-10241
15:26:26.971062,-1
15:26:26.971062,-53
15:26:26.971062,-14337
15:26:26.971062,-1
15:26:26.971062,-60
15:26:26.971062,-13825
15:26:26.971062,-1
15:26:26.971062,-43
15:26:26.971062,-2817
15:26:26.971062,-1
15:26:26.971062,24
15:26:26.971062,14592
15:26:26.971062,0
15:26:26.971062,94
15:26:26.971062,31488
15:26:26.971062,0
15:26:26.971062,139
15:26:26.971062,-27904
15:26:26.971062,0
15:26:26.971062,147
15:26:26.971062,-29184
15:26:26.971062,0
15:26:26.971062,132
15:26:26.971062,32512
15:26:26.971062,0
15:26:26.971062,120
15:26:26.971062,28928
15:26:26.971062,0
15:26:26.971062,106
15:26:26.971062,25856
15:26:26.971062,0
15:26:26.971062,98
15:26:26.971062,25856
15:26:26.971062,0
15:26:26.971062,96
15:26:26.971062,23296
15:26:26.971062,0
15:26:26.971062,89
15:26:26.971062,23296
15:26:26.971062,0
15:26:26.971062,89
15:26:26.971062,22016
15:26:26.971062,0
15:26:26.971062,89
15:26:26.971062,23296
15:26:26.971062,0
15:26:26.971062,91
15:26:26.971062,23296
15:26:26.971062,0
15:26:26.971062,86
15:26:26.971062,22016
15:26:26.971062,0
15:26:26.971062,89
15:26:26.971062,22016
15:26:26.971062,0
15:26:26.971062,82
15:26:26.971062,21504
15:26:26.971062,0
15:26:26.971062,84
15:26:26.971062,22016
15:26:26.971062,0
15:26:26.971062,86
15:26:26.971062,22016
15:26:26.971062,0
15:26:26.971062,89
15:26:26.971062,23296
15:26:26.971062,0
15:26:26.971062,98
15:26:26.971062,27136
15:26:26.971062,0
15:26:26.971062,96
15:26:26.971062,19712
15:26:26.971062,0
15:26:26.971062,60
15:26:26.971062,14592
15:26:26.971062,0
15:26:26.971062,60
15:26:26.971062,17664
15:26:26.971062,0
15:26:26.971062,82
15:26:26.971062,22016
15:26:26.971062,0
15:26:26.971062,86
15:26:26.971062,22784
15:26:26.971062,0
15:26:26.971062,86
15:26:26.971062,22016
15:26:26.971062,0
15:26:26.971062,89
15:26:26.971062,22784
15:26:26.971062,0
15:26:26.971062,98
15:26:26.971062,-25600
15:26:26.971062,0
15:26:26.971062,229
15:26:26.971062,24576
15:26:26.971062,0
15:26:26.971062,-446
15:26:26.971062,17919
15:26:26.971062,-5
15:26:26.971062,-1693
15:26:26.971062,-23297
15:26:26.971062,-6
15:26:26.971062,-402
15:26:26.971062,-6145
15:26:26.971062,0
15:26:26.971062,183
15:26:27.555348,123
15:26:27.555348,-768
15:26:27.555348,0
15:26:27.555348,263
15:26:27.555348,-9984
15:26:27.555348,0
15:26:27.555348,246
15:26:27.555348,-2048
15:26:27.555348,0
15:26:27.555348,207
15:26:27.555348,-15616
15:26:27.555348,0
15:26:27.555348,193
15:26:27.555348,-21248
15:26:27.555348,0
15:26:27.555348,161
15:26:27.555348,-27392
15:26:27.555348,0
15:26:27.555348,132
15:26:27.555348,29440
15:26:27.555348,0
15:26:27.555348,103
15:26:27.555348,22016
15:26:27.555348,0
15:26:27.555348,67
15:26:27.555348,11008
15:26:27.555348,0
15:26:27.555348,21
15:26:27.555348,1024
15:26:27.555348,0
15:26:27.555348,-12
15:26:27.555348,-7681
15:26:27.555348,-1
15:26:27.555348,-43
15:26:27.555348,-12545
15:26:27.555348,-1
15:26:27.555348,-57
15:26:27.555348,-15105
15:26:27.555348,-1
15:26:27.555348,-57
15:26:27.555348,-11265
15:26:27.555348,-1
15:26:27.555348,-19
15:26:27.555348,5119
15:26:27.555348,0
15:26:27.555348,55
15:26:27.555348,22016
15:26:27.555348,0
15:26:27.555348,113
15:26:27.555348,-32256
15:26:27.555348,0
15:26:27.555348,137
15:26:27.555348,-29952
15:26:27.555348,0
15:26:27.555348,132
15:26:27.555348,31488
15:26:27.555348,0
15:26:27.555348,113
15:26:27.555348,26368
15:26:27.555348,0
15:26:27.555348,101
15:26:27.555348,25088
15:26:27.555348,0
15:26:27.555348,89
15:26:27.555348,21504
15:26:27.555348,0
15:26:27.555348,84
15:26:27.555348,21504
15:26:27.555348,0
15:26:27.555348,82
15:26:27.555348,18944
15:26:27.555348,0
15:26:27.555348,69
15:26:27.555348,17152
15:26:27.555348,0
15:26:27.555348,62
15:26:27.555348,14592
15:26:27.555348,0
15:26:27.555348,65
15:26:27.555348,16640
15:26:27.555348,0
15:26:27.555348,60
15:26:27.555348,15872
15:26:27.555348,0
15:26:27.555348,62
15:26:27.555348,14080
15:26:27.555348,0
15:26:27.555348,48
15:26:27.555348,12288
15:26:27.555348,0
15:26:27.555348,57
15:26:27.555348,15360
15:26:27.555348,0
15:26:27.555348,55
15:26:27.555348,12800
15:26:27.555348,0
15:26:27.555348,38
15:26:27.555348,3072
15:26:27.555348,0
15:26:27.555348,-7
15:26:27.555348,-769
15:26:27.555348,-1
15:26:27.555348,0
15:26:27.555348,2304
15:26:27.555348,0
15:26:27.555348,24
15:26:27.555348,3072
15:26:27.555348,0
15:26:27.555348,-2
15:26:28.144864,9
15:26:28.144864,4864
15:26:28.144864,0
15:26:28.144864,12
15:26:28.144864,4864
15:26:28.144864,0
15:26:28.144864,28
15:26:28.144864,11520
15:26:28.144864,0
15:26:28.144864,115
15:26:28.144864,25856
15:26:28.144864,0
15:26:28.144864,-291
15:26:28.144864,-6913
15:26:28.144864,-5
15:26:28.144864,-1730
15:26:28.144864,4607
15:26:28.144864,-7
15:26:28.144864,-943
15:26:28.144864,9471
15:26:28.144864,0
15:26:28.144864,250
15:26:28.144864,14592
15:26:28.144864,0
15:26:28.144864,139
15:26:28.144864,512
15:26:28.144864,1
15:26:28.144864,193
15:26:28.144864,-21248
15:26:28.144864,0
15:26:28.144864,202
15:26:28.144864,-21248
15:26:28.144864,0
15:26:28.144864,147
15:26:28.144864,-27904
15:26:28.144864,0
15:26:28.144864,130
15:26:28.144864,27648
15:26:28.144864,0
15:26:28.144864,98
15:26:28.144864,23296
15:26:28.144864,0
15:26:28.144864,74
15:26:28.144864,13568
15:26:28.144864,0
15:26:28.144864,38
15:26:28.144864,5376
15:26:28.144864,0
15:26:28.144864,-7
15:26:28.144864,-7681
15:26:28.144864,-1
15:26:28.144864,-48
15:26:28.144864,-16897
15:26:28.144864,-1
15:26:28.144864,-82
15:26:28.144864,-21761
15:26:28.144864,-1
15:26:28.144864,-98
15:26:28.144864,-27905
15:26:28.144864,-1
15:26:28.144864,-108
15:26:28.144864,-24833
15:26:28.144864,-1
15:26:28.144864,-89
15:26:28.144864,-15617
15:26:28.144864,-1
15:26:28.144864,-12
15:26:28.144864,9983
15:26:28.144864,0
15:26:28.144864,62
15:26:28.144864,22016
15:26:28.144864,0
15:26:28.144864,125
15:26:28.144864,-29952
15:26:28.144864,0
15:26:28.144864,137
15:26:28.144864,32512
15:26:28.144864,0
15:26:28.144864,123
15:26:28.144864,30208
15:26:28.144864,0
15:26:28.144864,106
15:26:28.144864,25088
15:26:28.144864,0
15:26:28.144864,101
15:26:28.144864,25088
15:26:28.144864,0
15:26:28.144864,96
15:26:28.144864,25088
15:26:28.144864,0
15:26:28.144864,91
15:26:28.144864,20992
15:26:28.144864,0
15:26:28.144864,91
15:26:28.144864,25088
15:26:28.144864,0
15:26:28.144864,86
15:26:28.144864,21504
15:26:28.144864,0
15:26:28.144864,101
15:26:28.144864,24576
15:26:28.144864,0
15:26:28.144864,89
15:26:28.144864,25856
15:26:28.144864,0
15:26:28.144864,110
15:26:28.144864,28928
15:26:28.144864,0
15:26:28.144864,106
15:26:28.682666,74
15:26:28.682666,14080
15:26:28.682666,0
15:26:28.682666,60
15:26:28.682666,15360
15:26:28.682666,0
15:26:28.682666,60
15:26:28.682666,20224
15:26:28.682666,0
15:26:28.682666,89
15:26:28.682666,20992
15:26:28.682666,0
15:26:28.682666,84
15:26:28.682666,24064
15:26:28.682666,0
15:26:28.682666,106
15:26:28.682666,27648
15:26:28.682666,0
15:26:28.682666,96
15:26:28.682666,27648
15:26:28.682666,0
15:26:28.682666,159
15:26:28.682666,-10752
15:26:28.682666,0
15:26:28.682666,149
15:26:28.682666,-11008
15:26:28.682666,-2
15:26:28.682666,-1112
15:26:28.682666,767
15:26:28.682666,-7
15:26:28.682666,-1715
15:26:28.682666,6655
15:26:28.682666,-3
15:26:28.682666,188
15:26:28.682666,8960
15:26:28.682666,1
15:26:28.682666,139
15:26:28.682666,2816
15:26:28.682666,1
15:26:28.682666,347
15:26:28.682666,4864
15:26:28.682666,1
15:26:28.682666,272
15:26:28.682666,12288
15:26:28.682666,1
15:26:28.682666,277
15:26:28.682666,512
15:26:28.682666,1
15:26:28.682666,253
15:26:28.682666,-6912
15:26:28.682666,0
15:26:28.682666,214
15:26:28.682666,-12544
15:26:28.682666,0
15:26:28.682666,188
15:26:28.682666,-21760
15:26:28.682666,0
15:26:28.682666,159
15:26:28.682666,-28672
15:26:28.682666,0
15:26:28.682666,125
15:26:28.682666,25856
15:26:28.682666,0
15:26:28.682666,84
15:26:28.682666,15872
15:26:28.682666,0
15:26:28.682666,33
15:26:28.682666,4864
15:26:28.682666,0
15:26:28.682666,14
15:26:28.682666,0
15:26:28.682666,0
15:26:28.682666,-9
15:26:28.682666,-1537
15:26:28.682666,-1
15:26:28.682666,-7
15:26:28.682666,255
15:26:28.682666,0
15:26:28.682666,24
15:26:28.682666,14592
15:26:28.682666,0
15:26:28.682666,86
15:26:28.682666,26368
15:26:28.682666,0
15:26:28.682666,118
15:26:28.682666,32512
15:26:28.682666,0
15:26:28.682666,135
15:26:28.682666,-30976
15:26:28.682666,0
15:26:28.682666,123
15:26:28.682666,28928
15:26:28.682666,0
15:26:28.682666,110
15:26:28.682666,26368
15:26:28.682666,0
15:26:28.682666,91
15:26:28.682666,21504
15:26:28.682666,0
15:26:28.682666,77
15:26:28.682666,18432
15:26:28.682666,0
15:26:28.682666,72
15:26:28.682666,17664
15:26:28.682666,0
15:26:28.682666,62
15:26:28.682666,17664
15:26:28.682666,0
15:26:28.682666,77
15:26:29.268547,60
15:26:29.268547,14080
15:26:29.268547,0
15:26:29.268547,62
15:26:29.268547,16640
15:26:29.268547,0
15:26:29.268547,60
15:26:29.268547,15360
15:26:29.268547,0
15:26:29.268547,72
15:26:29.268547,20224
15:26:29.268547,0
15:26:29.268547,69
15:26:29.268547,12800
15:26:29.268547,0
15:26:29.268547,26
15:26:29.268547,4864
15:26:29.268547,0
15:26:29.268547,31
15:26:29.268547,11008
15:26:29.268547,0
15:26:29.268547,53
15:26:29.268547,15360
15:26:29.268547,0
15:26:29.268547,62
15:26:29.268547,17152
15:26:29.268547,0
15:26:29.268547,84
15:26:29.268547,21504
15:26:29.268547,0
15:26:29.268547,72
15:26:29.268547,18944
15:26:29.268547,0
15:26:29.268547,94
15:26:29.268547,-24832
15:26:29.268547,0
15:26:29.268547,231
15:26:29.268547,13568
15:26:29.268547,0
15:26:29.268547,-569
15:26:29.268547,-28417
15:26:29.268547,-6
15:26:29.268547,-1870
15:26:29.268547,22271
15:26:29.268547,-6
15:26:29.268547,-342
15:26:29.268547,15615
15:26:29.268547,1
15:26:29.268547,217
15:26:29.268547,-24320
15:26:29.268547,0
15:26:29.268547,311
15:26:29.268547,12288
15:26:29.268547,1
15:26:29.268547,243
15:26:29.268547,1024
15:26:29.268547,1
15:26:29.268547,250
15:26:29.268547,-9472
15:26:29.268547,0
15:26:29.268547,209
15:26:29.268547,-17408
15:26:29.268547,0
15:26:29.268547,168
15:26:29.268547,-23552
15:26:29.268547,0
15:26:29.268547,142
15:26:29.268547,30208
15:26:29.268547,0
15:26:29.268547,108
15:26:29.268547,24064
15:26:29.268547,0
15:26:29.268547,69
15:26:29.268547,11520
15:26:29.268547,0
15:26:29.268547,16
15:26:29.268547,-1792
15:26:29.268547,-1
15:26:29.268547,-16
15:26:29.268547,-8961
15:26:29.268547,-1
15:26:29.268547,-53
15:26:29.268547,-14337
15:26:29.268547,-1
15:26:29.268547,-69
15:26:29.268547,-21249
15:26:29.268547,-1
15:26:29.268547,-79
15:26:29.268547,-17409
15:26:29.268547,-1
15:26:29.268547,-57
15:26:29.268547,-7681
15:26:29.268547,-1
15:26:29.268547,2
15:26:29.268547,7936
15:26:29.268547,0
15:26:29.268547,45
15:26:29.268547,14080
15:26:29.268547,0
15:26:29.268547,72
15:26:29.268547,20224
15:26:29.268547,0
15:26:29.268547,69
15:26:29.268547,14592
15:26:29.268547,0
15:26:29.268547,57
15:26:29.268547,10496
15:26:29.268547,0
15:26:29.268547,16
15:26:29.852207,31
15:26:29.852207,10496
15:26:29.852207,0
15:26:29.852207,24
15:26:29.852207,6144
15:26:29.852207,0
15:26:29.852207,26
15:26:29.852207,5376
15:26:29.852207,0
15:26:29.852207,33
15:26:29.852207,8448
15:26:29.852207,0
15:26:29.852207,16
15:26:29.852207,6144
15:26:29.852207,0
15:26:29.852207,28
15:26:29.852207,8448
15:26:29.852207,0
15:26:29.852207,57
15:26:29.852207,12800
15:26:29.852207,0
15:26:29.852207,36
15:26:29.852207,11008
15:26:29.852207,0
15:26:29.852207,33
15:26:29.852207,512
15:26:29.852207,0
15:26:29.852207,-7
15:26:29.852207,2047
15:26:29.852207,0
15:26:29.852207,9
15:26:29.852207,1024
15:26:29.852207,0
15:26:29.852207,21
15:26:29.852207,9728
15:26:29.852207,0
15:26:29.852207,24
15:26:29.852207,4096
15:26:29.852207,0
15:26:29.852207,19
15:26:29.852207,2304
15:26:29.852207,0
15:26:29.852207,7
15:26:29.852207,3072
15:26:29.852207,0
15:26:29.852207,9
15:26:29.852207,12288
15:26:29.852207,0
15:26:29.852207,110
15:26:29.852207,-14592
15:26:29.852207,-1
15:26:29.852207,-605
15:26:29.852207,1279
15:26:29.852207,-5
15:26:29.852207,-1635
15:26:29.852207,8703
15:26:29.852207,-5
15:26:29.852207,-332
15:26:29.852207,-29697
15:26:29.852207,0
15:26:29.852207,12
15:26:29.852207,0
15:26:29.852207,0
15:26:29.852207,137
15:26:29.852207,28928
15:26:29.852207,0
15:26:29.852207,57
15:26:29.852207,21504
15:26:29.852207,0
15:26:29.852207,89
15:26:29.852207,15360
15:26:29.852207,0
15:26:29.852207,50
15:26:29.852207,9216
15:26:29.852207,0
15:26:29.852207,19
15:26:29.852207,3584
15:26:29.852207,0
15:26:29.852207,14
15:26:29.852207,-512
15:26:29.852207,-1
15:26:29.852207,-19
15:26:29.852207,-7681
15:26:29.852207,-1
15:26:29.852207,-55
15:26:29.852207,-19457
15:26:29.852207,-1
15:26:29.852207,-82
15:26:29.852207,-24321
15:26:29.852207,-1
15:26:29.852207,-123
15:26:29.852207,30207
15:26:29.852207,-1
15:26:29.852207,-147
15:26:29.852207,25855
15:26:29.852207,-1
15:26:29.852207,-147
15:26:29.852207,31231
15:26:29.852207,-1
15:26:29.852207,-144
15:26:29.852207,26879
15:26:29.852207,-1
15:26:29.852207,-120
15:26:29.852207,-16385
15:26:29.852207,-1
15:26:29.852207,-33
15:26:29.852207,-2049
15:26:29.852207,-1
15:26:29.852207,16
15:26:30.348393,36
15:26:30.348393,11008
15:26:30.348393,0
15:26:30.348393,28
15:26:30.348393,3584
15:26:30.348393,0
15:26:30.348393,14
15:26:30.348393,3584
15:26:30.348393,0
15:26:30.348393,4
15:26:30.348393,0
15:26:30.348393,0
15:26:30.348393,-2
15:26:30.348393,-2049
15:26:30.348393,-1
15:26:30.348393,-2
15:26:30.348393,3327
15:26:30.348393,0
15:26:30.348393,9
15:26:30.348393,0
15:26:30.348393,0
15:26:30.348393,4
15:26:30.348393,4864
15:26:30.348393,0
15:26:30.348393,16
15:26:30.348393,3072
15:26:30.348393,0
15:26:30.348393,9
15:26:30.348393,3584
15:26:30.348393,0
15:26:30.348393,31
15:26:30.348393,8448
15:26:30.348393,0
15:26:30.348393,28
15:26:30.348393,4096
15:26:30.348393,0
15:26:30.348393,-2
15:26:30.348393,-2817
15:26:30.348393,-1
15:26:30.348393,-19
15:26:30.348393,-5889
15:26:30.348393,-1
15:26:30.348393,-12
15:26:30.348393,1279
15:26:30.348393,0
15:26:30.348393,4
15:26:30.348393,1792
15:26:30.348393,0
15:26:30.348393,12
15:26:30.348393,2304
15:26:30.348393,0
15:26:30.348393,7
15:26:30.348393,1024
15:26:30.348393,0
15:26:30.348393,-2
15:26:30.348393,2047
15:26:30.348393,0
15:26:30.348393,62
15:26:30.348393,28928
15:26:30.348393,0
15:26:30.348393,-31
15:26:30.348393,-10497
15:26:30.348393,-3
15:26:30.348393,-1305
15:26:30.348393,-5889
15:26:30.348393,-8
15:26:30.348393,-1527
15:26:30.348393,7935
15:26:30.348393,-2
15:26:30.348393,241
15:26:30.348393,-18688
15:26:30.348393,0
15:26:30.348393,96
15:26:30.348393,-1536
15:26:30.348393,0
15:26:30.348393,267
15:26:30.348393,-13824
15:26:30.348393,0
15:26:30.348393,224
15:26:30.348393,-8192
15:26:30.348393,0
15:26:30.348393,188
15:26:30.348393,-19456
15:26:30.348393,0
15:26:30.348393,180
15:26:30.348393,-24320
15:26:30.348393,0
15:26:30.348393,142
15:26:30.348393,32512
15:26:30.348393,0
15:26:30.348393,115
15:26:30.348393,25856
15:26:30.348393,0
15:26:30.348393,77
15:26:30.348393,12800
15:26:30.348393,0
15:26:30.348393,28
15:26:30.348393,1792
15:26:30.348393,0
15:26:30.348393,-14
15:26:30.348393,-8961
15:26:30.348393,-1
15:26:30.348393,-53
15:26:30.348393,-17409
15:26:30.348393,-1
15:26:30.348393,-79
15:26:30.348393,-19969
15:26:30.348393,-1
15:26:30.348393,-77
15:26:30.933112,-72
15:26:30.933112,-15105
15:26:30.933112,-1
15:26:30.933112,-41
15:26:30.933112,-769
15:26:30.933112,-1
15:26:30.933112,38
15:26:30.933112,22016
15:26:30.933112,0
15:26:30.933112,118
15:26:30.933112,32512
15:26:30.933112,0
15:26:30.933112,130
15:26:30.933112,-31744
15:26:30.933112,0
15:26:30.933112,127
15:26:30.933112,30208
15:26:30.933112,0
15:26:30.933112,113
15:26:30.933112,26368
15:26:30.933112,0
15:26:30.933112,94
15:26:30.933112,22784
15:26:30.933112,0
15:26:30.933112,82
15:26:30.933112,20224
15:26:30.933112,0
15:26:30.933112,79
15:26:30.933112,18944
15:26:30.933112,0
15:26:30.933112,74
15:26:30.933112,18944
15:26:30.933112,0
15:26:30.933112,72
15:26:30.933112,18944
15:26:30.933112,0
15:26:30.933112,77
15:26:30.933112,19712
15:26:30.933112,0
15:26:30.933112,79
15:26:30.933112,18432
15:26:30.933112,0
15:26:30.933112,55
15:26:30.933112,11008
15:26:30.933112,0
15:26:30.933112,38
15:26:30.933112,9728
15:26:30.933112,0
15:26:30.933112,43
15:26:30.933112,15360
15:26:30.933112,0
15:26:30.933112,65
15:26:30.933112,14080
15:26:30.933112,0
15:26:30.933112,53
15:26:30.933112,15872
15:26:30.933112,0
15:26:30.933112,55
15:26:30.933112,11520
15:26:30.933112,0
15:26:30.933112,50
15:26:30.933112,13568
15:26:30.933112,0
15:26:30.933112,86
15:26:30.933112,-24320
15:26:30.933112,0
15:26:30.933112,123
15:26:30.933112,-10240
15:26:30.933112,-2
15:26:30.933112,-1052
15:26:30.933112,20479
15:26:30.933112,-7
15:26:30.933112,-1708
15:26:30.933112,-16129
15:26:30.933112,-4
15:26:30.933112,86
15:26:30.933112,-9984
15:26:30.933112,0
15:26:30.933112,60
15:26:30.933112,-21248
15:26:30.933112,0
15:26:30.933112,258
15:26:30.933112,-18176
15:26:30.933112,0
15:26:30.933112,176
15:26:30.933112,-13824
15:26:30.933112,0
15:26:30.933112,178
15:26:30.933112,-24832
15:26:30.933112,0
15:26:30.933112,164
15:26:30.933112,-26624
15:26:30.933112,0
15:26:30.933112,137
15:26:30.933112,-32256
15:26:30.933112,0
15:26:30.933112,120
15:26:30.933112,26368
15:26:30.933112,0
15:26:30.933112,94
15:26:30.933112,20992
15:26:30.933112,0
15:26:30.933112,60
15:26:30.933112,10496
15:26:30.933112,0
15:26:30.933112,31
15:26:30.933112,4096
15:26:30.933112,0
15:26:30.933112,-4
15:26:31.534630,-19
15:26:31.534630,-6401
15:26:31.534630,-1
15:26:31.534630,-24
15:26:31.534630,-6401
15:26:31.534630,-1
15:26:31.534630,-31
15:26:31.534630,-6401
15:26:31.534630,-1
15:26:31.534630,-12
15:26:31.534630,3839
15:26:31.534630,0
15:26:31.534630,55
15:26:31.534630,24064
15:26:31.534630,0
15:26:31.534630,108
15:26:31.534630,29440
15:26:31.534630,0
15:26:31.534630,127
15:26:31.534630,-31744
15:26:31.534630,0
15:26:31.534630,130
15:26:31.534630,32000
15:26:31.534630,0
15:26:31.534630,123
15:26:31.534630,31488
15:26:31.534630,0
15:26:31.534630,123
15:26:31.534630,30720
15:26:31.534630,0
15:26:31.534630,115
15:26:31.534630,30208
15:26:31.534630,0
15:26:31.534630,115
15:26:31.534630,28160
15:26:31.534630,0
15:26:31.534630,108
15:26:31.534630,28160
15:26:31.534630,0
15:26:31.534630,108
15:26:31.534630,27648
15:26:31.534630,0
15:26:31.534630,110
15:26:31.534630,30208
15:26:31.534630,0
15:26:31.534630,118
15:26:31.534630,27136
15:26:31.534630,0
15:26:31.534630,91
15:26:31.534630,18944
15:26:31.534630,0
15:26:31.534630,60
15:26:31.534630,14080
15:26:31.534630,0
15:26:31.534630,60
15:26:31.534630,18944
15:26:31.534630,0
15:26:31.534630,79
15:26:31.534630,17664
15:26:31.534630,0
15:26:31.534630,69
15:26:31.534630,18432
15:26:31.534630,0
15:26:31.534630,67
15:26:31.534630,16640
15:26:31.534630,0
15:26:31.534630,69
15:26:31.534630,18944
15:26:31.534630,0
15:26:31.534630,103
15:26:31.534630,-19968
15:26:31.534630,0
15:26:31.534630,178
15:26:31.534630,20480
15:26:31.534630,-1
15:26:31.534630,-916
15:26:31.534630,-25089
15:26:31.534630,-7
15:26:31.534630,-1744
15:26:31.534630,22271
15:26:31.534630,-4
15:26:31.534630,62
15:26:31.534630,11520
15:26:31.534630,1
15:26:31.534630,132
15:26:31.534630,-9984
15:26:31.534630,0
15:26:31.534630,320
15:26:31.534630,512
15:26:31.534630,1
15:26:31.534630,243
15:26:31.534630,2304
15:26:31.534630,1
15:26:31.534630,231
15:26:31.534630,-13824
15:26:31.534630,0
15:26:31.534630,197
15:26:31.534630,-19456
15:26:31.534630,0
15:26:31.534630,159
15:26:31.534630,-27392
15:26:31.534630,0
15:26:31.534630,137
15:26:31.534630,30208
15:26:31.534630,0
15:26:31.534630,103
15:26:31.534630,22016
15:26:31.534630,0
15:26:31.534630,74
15:26:32.060974,62
15:26:32.060974,12288
15:26:32.060974,0
15:26:32.060974,33
15:26:32.060974,6144
15:26:32.060974,0
15:26:32.060974,16
15:26:32.060974,3072
15:26:32.060974,0
15:26:32.060974,12
15:26:32.060974,4096
15:26:32.060974,0
15:26:32.060974,16
15:26:32.060974,4096
15:26:32.060974,0
15:26:32.060974,26
15:26:32.060974,12288
15:26:32.060974,0
15:26:32.060974,89
15:26:32.060974,29440
15:26:32.060974,0
15:26:32.060974,130
15:26:32.060974,-26112
15:26:32.060974,0
15:26:32.060974,166
15:26:32.060974,-25600
15:26:32.060974,0
15:26:32.060974,154
15:26:32.060974,-25600
15:26:32.060974,0
15:26:32.060974,149
15:26:32.060974,-29184
15:26:32.060974,0
15:26:32.060974,144
15:26:32.060974,-30976
15:26:32.060974,0
15:26:32.060974,127
15:26:32.060974,-32256
15:26:32.060974,0
15:26:32.060974,125
15:26:32.060974,30208
15:26:32.060974,0
15:26:32.060974,120
15:26:32.060974,30720
15:26:32.060974,0
15:26:32.060974,118
15:26:32.060974,31488
15:26:32.060974,0
15:26:32.060974,132
15:26:32.060974,-30976
15:26:32.060974,0
15:26:32.060974,137
15:26:32.060974,-28672
15:26:32.060974,0
15:26:32.060974,139
15:26:32.060974,32000
15:26:32.060974,0
15:26:32.060974,108
15:26:32.060974,24576
15:26:32.060974,0
15:26:32.060974,94
15:26:32.060974,26368
15:26:32.060974,0
15:26:32.060974,110
15:26:32.060974,27136
15:26:32.060974,0
15:26:32.060974,98
15:26:32.060974,25088
15:26:32.060974,0
15:26:32.060974,94
15:26:32.060974,22016
15:26:32.060974,0
15:26:32.060974,86
15:26:32.060974,22784
15:26:32.060974,0
15:26:32.060974,98
15:26:32.060974,-26624
15:26:32.060974,0
15:26:32.060974,217
15:26:32.060974,12288
15:26:32.060974,0
15:26:32.060974,-542
15:26:32.060974,-12289
15:26:32.060974,-6
15:26:32.060974,-1775
15:26:32.060974,-21505
15:26:32.060974,-6
15:26:32.060974,-328
15:26:32.060974,2559
15:26:32.060974,1
15:26:32.060974,173
15:26:32.060974,-30464
15:26:32.060974,0
15:26:32.060974,282
15:26:32.060974,7168
15:26:32.060974,1
15:26:32.060974,234
15:26:32.060974,512
15:26:32.060974,1
15:26:32.060974,258
15:26:32.060974,-7680
15:26:32.060974,0
15:26:32.060974,219
15:26:32.060974,-11264
15:26:32.060974,0
15:26:32.060974,195
15:26:32.060974,-18176
15:26:32.060974,0
15:26:32.060974,171
15:26:32.597380,154
15:26:32.597380,-29952
15:26:32.597380,0
15:26:32.597380,125
15:26:32.597380,26368
15:26:32.597380,0
15:26:32.597380,84
15:26:32.597380,17664
15:26:32.597380,0
15:26:32.597380,55
15:26:32.597380,11008
15:26:32.597380,0
15:26:32.597380,38
15:26:32.597380,10496
15:26:32.597380,0
15:26:32.597380,38
15:26:32.597380,7168
15:26:32.597380,0
15:26:32.597380,28
15:26:32.597380,8448
15:26:32.597380,0
15:26:32.597380,33
15:26:32.597380,10496
15:26:32.597380,0
15:26:32.597380,65
15:26:32.597380,21504
15:26:32.597380,0
15:26:32.597380,98
15:26:32.597380,30720
15:26:32.597380,0
15:26:32.597380,137
15:26:32.597380,-32256
15:26:32.597380,0
15:26:32.597380,120
15:26:32.597380,30720
15:26:32.597380,0
15:26:32.597380,115
15:26:32.597380,27136
15:26:32.597380,0
15:26:32.597380,106
15:26:32.597380,27648
15:26:32.597380,0
15:26:32.597380,101
15:26:32.597380,24576
15:26:32.597380,0
15:26:32.597380,98
15:26:32.597380,23296
15:26:32.597380,0
15:26:32.597380,84
15:26:32.597380,21504
15:26:32.597380,0
15:26:32.597380,86
15:26:32.597380,22016
15:26:32.597380,0
15:26:32.597380,89
15:26:32.597380,23296
15:26:32.597380,0
15:26:32.597380,94
15:26:32.597380,24064
15:26:32.597380,0
15:26:32.597380,82
15:26:32.597380,15872
15:26:32.597380,0
15:26:32.597380,45
15:26:32.597380,10496
15:26:32.597380,0
15:26:32.597380,48
15:26:32.597380,15872
15:26:32.597380,0
15:26:32.597380,74
15:26:32.597380,18432
15:26:32.597380,0
15:26:32.597380,67
15:26:32.597380,17664
15:26:32.597380,0
15:26:32.597380,69
15:26:32.597380,15360
15:26:32.597380,0
15:26:32.597380,60
15:26:32.597380,15872
15:26:32.597380,0
15:26:32.597380,60
15:26:32.597380,25856
15:26:32.597380,0
15:26:32.597380,173
15:26:32.597380,17664
15:26:32.597380,0
15:26:32.597380,-415
15:26:32.597380,-31489
15:26:32.597380,-5
15:26:32.597380,-1689
15:26:32.597380,11775
15:26:32.597380,-6
15:26:32.597380,-547
15:26:32.597380,-21505
15:26:32.597380,0
15:26:32.597380,149
15:26:32.597380,14080
15:26:32.597380,0
15:26:32.597380,197
15:26:32.597380,-6912
15:26:32.597380,0
15:26:32.597380,161
15:26:32.597380,-20480
15:26:32.597380,0
15:26:32.597380,185
15:26:32.597380,-27392
15:26:32.597380,0
15:26:32.597380,142
15:26:33.180878,139
15:26:33.180878,29440
15:26:33.180878,0
15:26:33.180878,98
15:26:33.180878,24576
15:26:33.180878,0
15:26:33.180878,77
15:26:33.180878,15360
15:26:33.180878,0
15:26:33.180878,62
15:26:33.180878,14592
15:26:33.180878,0
15:26:33.180878,31
15:26:33.180878,2304
15:26:33.180878,0
15:26:33.180878,-2
15:26:33.180878,-3841
15:26:33.180878,-1
15:26:33.180878,-26
15:26:33.180878,-8193
15:26:33.180878,-1
15:26:33.180878,-36
15:26:33.180878,-9473
15:26:33.180878,-1
15:26:33.180878,-45
15:26:33.180878,-11265
15:26:33.180878,-1
15:26:33.180878,-36
15:26:33.180878,-3329
15:26:33.180878,-1
15:26:33.180878,12
15:26:33.180878,9216
15:26:33.180878,0
15:26:33.180878,60
15:26:33.180878,20224
15:26:33.180878,0
15:26:33.180878,96
15:26:33.180878,25856
15:26:33.180878,0
15:26:33.180878,96
15:26:33.180878,23296
15:26:33.180878,0
15:26:33.180878,86
15:26:33.180878,21504
15:26:33.180878,0
15:26:33.180878,82
15:26:33.180878,19712
15:26:33.180878,0
15:26:33.180878,72
15:26:33.180878,17664
15:26:33.180878,0
15:26:33.180878,67
15:26:33.180878,17152
15:26:33.180878,0
15:26:33.180878,67
15:26:33.180878,17664
15:26:33.180878,0
15:26:33.180878,79
15:26:33.180878,20992
15:26:33.180878,0
15:26:33.180878,82
15:26:33.180878,23296
15:26:33.180878,0
15:26:33.180878,96
15:26:33.180878,20992
15:26:33.180878,0
15:26:33.180878,62
15:26:33.180878,11520
15:26:33.180878,0
15:26:33.180878,41
15:26:33.180878,11520
15:26:33.180878,0
15:26:33.180878,53
15:26:33.180878,14592
15:26:33.180878,0
15:26:33.180878,55
15:26:33.180878,14080
15:26:33.180878,0
15:26:33.180878,65
15:26:33.180878,17664
15:26:33.180878,0
15:26:33.180878,67
15:26:33.180878,15872
15:26:33.180878,0
15:26:33.180878,60
15:26:33.180878,18432
15:26:33.180878,0
15:26:33.180878,127
15:26:33.180878,-13824
15:26:33.180878,0
15:26:33.180878,67
15:26:33.180878,768
15:26:33.180878,-2
15:26:33.180878,-1327
15:26:33.180878,-14593
15:26:33.180878,-8
15:26:33.180878,-1510
15:26:33.180878,17919
15:26:33.180878,-2
15:26:33.180878,241
15:26:33.180878,-25600
15:26:33.180878,0
15:26:33.180878,89
15:26:33.180878,-2560
15:26:33.180878,0
15:26:33.180878,253
15:26:33.180878,-16896
15:26:33.180878,0
15:26:33.180878,214
15:26:33.720529,217
15:26:33.720529,-19968
15:26:33.720529,0
15:26:33.720529,168
15:26:33.720529,-23040
15:26:33.720529,0
15:26:33.720529,147
15:26:33.720529,-30976
15:26:33.720529,0
15:26:33.720529,123
15:26:33.720529,26368
15:26:33.720529,0
15:26:33.720529,89
15:26:33.720529,22784
15:26:33.720529,0
15:26:33.720529,86
15:26:33.720529,17152
15:26:33.720529,0
15:26:33.720529,50
15:26:33.720529,9728
15:26:33.720529,0
15:26:33.720529,24
15:26:33.720529,3584
15:26:33.720529,0
15:26:33.720529,9
15:26:33.720529,1024
15:26:33.720529,0
15:26:33.720529,0
15:26:33.720529,512
15:26:33.720529,0
15:26:33.720529,2
15:26:33.720529,1024
15:26:33.720529,0
15:26:33.720529,14
15:26:33.720529,9216
15:26:33.720529,0
15:26:33.720529,57
15:26:33.720529,20224
15:26:33.720529,0
15:26:33.720529,94
15:26:33.720529,27136
15:26:33.720529,0
15:26:33.720529,106
15:26:33.720529,26368
15:26:33.720529,0
15:26:33.720529,101
15:26:33.720529,25856
15:26:33.720529,0
15:26:33.720529,96
15:26:33.720529,23296
15:26:33.720529,0
15:26:33.720529,86
15:26:33.720529,21504
15:26:33.720529,0
15:26:33.720529,82
15:26:33.720529,20224
15:26:33.720529,0
15:26:33.720529,79
15:26:33.720529,18944
15:26:33.720529,0
15:26:33.720529,72
15:26:33.720529,19712
15:26:33.720529,0
15:26:33.720529,79
15:26:33.720529,21504
15:26:33.720529,0
15:26:33.720529,91
15:26:33.720529,23296
15:26:33.720529,0
15:26:33.720529,79
15:26:33.720529,15872
15:26:33.720529,0
15:26:33.720529,48
15:26:33.720529,10496
15:26:33.720529,0
15:26:33.720529,41
15:26:33.720529,12800
15:26:33.720529,0
15:26:33.720529,62
15:26:33.720529,15872
15:26:33.720529,0
15:26:33.720529,60
15:26:33.720529,16640
15:26:33.720529,0
15:26:33.720529,67
15:26:33.720529,16640
15:26:33.720529,0
15:26:33.720529,67
15:26:33.720529,17664
15:26:33.720529,0
15:26:33.720529,82
15:26:33.720529,-27904
15:26:33.720529,0
15:26:33.720529,217
15:26:33.720529,12800
15:26:33.720529,0
15:26:33.720529,-552
15:26:33.720529,-22785
15:26:33.720529,-6
15:26:33.720529,-1857
15:26:33.720529,23039
15:26:33.720529,-6
15:26:33.720529,-354
15:26:33.720529,5119
15:26:33.720529,1
15:26:33.720529,159
15:26:33.720529,29440
15:26:33.720529,0
15:26:33.720529,270
15:26:34.263103,263
15:26:34.263103,-13824
15:26:34.263103,0
15:26:34.263103,226
15:26:34.263103,-8960
15:26:34.263103,0
15:26:34.263103,185
15:26:34.263103,-19968
15:26:34.263103,0
15:26:34.263103,180
15:26:34.263103,-20480
15:26:34.263103,0
15:26:34.263103,161
15:26:34.263103,-28672
15:26:34.263103,0
15:26:34.263103,132
15:26:34.263103,30208
15:26:34.263103,0
15:26:34.263103,101
15:26:34.263103,22784
15:26:34.263103,0
15:26:34.263103,74
15:26:34.263103,15360
15:26:34.263103,0
15:26:34.263103,45
15:26:34.263103,7936
15:26:34.263103,0
15:26:34.263103,24
15:26:34.263103,5376
15:26:34.263103,0
15:26:34.263103,21
15:26:34.263103,5376
15:26:34.263103,0
15:26:34.263103,21
15:26:34.263103,6144
15:26:34.263103,0
15:26:34.263103,31
15:26:34.263103,9728
15:26:34.263103,0
15:26:34.263103,55
15:26:34.263103,20224
15:26:34.263103,0
15:26:34.263103,96
15:26:34.263103,27648
15:26:34.263103,0
15:26:34.263103,115
15:26:34.263103,28160
15:26:34.263103,0
15:26:34.263103,103
15:26:34.263103,25088
15:26:34.263103,0
15:26:34.263103,94
15:26:34.263103,22784
15:26:34.263103,0
15:26:34.263103,84
15:26:34.263103,20992
15:26:34.263103,0
15:26:34.263103,77
15:26:34.263103,18944
15:26:34.263103,0
15:26:34.263103,77
15:26:34.263103,19712
15:26:34.263103,0
15:26:34.263103,79
15:26:34.263103,20224
15:26:34.263103,0
15:26:34.263103,82
15:26:34.263103,21504
15:26:34.263103,0
15:26:34.263103,91
15:26:34.263103,24576
15:26:34.263103,0
15:26:34.263103,98
15:26:34.263103,26368
15:26:34.263103,0
15:26:34.263103,101
15:26:34.263103,22016
15:26:34.263103,0
15:26:34.263103,67
15:26:34.263103,12800
15:26:34.263103,0
15:26:34.263103,48
15:26:34.263103,15360
15:26:34.263103,0
15:26:34.263103,69
15:26:34.263103,18432
15:26:34.263103,0
15:26:34.263103,72
15:26:34.263103,20224
15:26:34.263103,0
15:26:34.263103,84
15:26:34.263103,20224
15:26:34.263103,0
15:26:34.263103,79
15:26:34.263103,21504
15:26:34.263103,0
15:26:34.263103,89
15:26:34.263103,30720
15:26:34.263103,0
15:26:34.263103,197
15:26:34.263103,-14336
15:26:34.263103,0
15:26:34.263103,-159
15:26:34.263103,27135
15:26:34.263103,-4
15:26:34.263103,-1672
15:26:34.263103,3327
15:26:34.263103,-7
15:26:34.263103,-941
15:26:34.890491,65
15:26:34.890491,6656
15:26:34.890491,1
15:26:34.890491,113
15:26:34.890491,-9984
15:26:34.890491,0
15:26:34.890491,335
15:26:34.890491,4096
15:26:34.890491,1
15:26:34.890491,250
15:26:34.890491,5376
15:26:34.890491,1
15:26:34.890491,253
15:26:34.890491,-6912
15:26:34.890491,0
15:26:34.890491,226
15:26:34.890491,-10752
15:26:34.890491,0
15:26:34.890491,197
15:26:34.890491,-18176
15:26:34.890491,0
15:26:34.890491,173
15:26:34.890491,-25600
15:26:34.890491,0
15:26:34.890491,147
15:26:34.890491,-30976
15:26:34.890491,0
15:26:34.890491,115
15:26:34.890491,24576
15:26:34.890491,0
15:26:34.890491,84
15:26:34.890491,19712
15:26:34.890491,0
15:26:34.890491,69
15:26:34.890491,15360
15:26:34.890491,0
15:26:34.890491,57
15:26:34.890491,15360
15:26:34.890491,0
15:26:34.890491,62
15:26:34.890491,15360
15:26:34.890491,0
15:26:34.890491,57
15:26:34.890491,14080
15:26:34.890491,0
15:26:34.890491,62
15:26:34.890491,20224
15:26:34.890491,0
15:26:34.890491,101
15:26:34.890491,30208
15:26:34.890491,0
15:26:34.890491,125
15:26:34.890491,32000
15:26:34.890491,0
15:26:34.890491,123
15:26:34.890491,30208
15:26:34.890491,0
15:26:34.890491,113
15:26:34.890491,27648
15:26:34.890491,0
15:26:34.890491,106
15:26:34.890491,25856
15:26:34.890491,0
15:26:34.890491,96
15:26:34.890491,24064
15:26:34.890491,0
15:26:34.890491,94
15:26:34.890491,24576
15:26:34.890491,0
15:26:34.890491,94
15:26:34.890491,23296
15:26:34.890491,0
15:26:34.890491,91
15:26:34.890491,23296
15:26:34.890491,0
15:26:34.890491,91
15:26:34.890491,23296
15:26:34.890491,0
15:26:34.890491,94
15:26:34.890491,24576
15:26:34.890491,0
15:26:34.890491,101
15:26:34.890491,26368
15:26:34.890491,0
15:26:34.890491,101
15:26:34.890491,22016
15:26:34.890491,0
15:26:34.890491,65
15:26:34.890491,11520
15:26:34.890491,0
15:26:34.890491,48
15:26:34.890491,15360
15:26:34.890491,0
15:26:34.890491,67
15:26:34.890491,18432
15:26:34.890491,0
15:26:34.890491,69
15:26:34.890491,18432
15:26:34.890491,0
15:26:34.890491,77
15:26:34.890491,19712
15:26:34.890491,0
15:26:34.890491,79
15:26:34.890491,20224
15:26:34.890491,0
15:26:34.890491,82
15:26:34.890491,30720
15:26:34.890491,0
15:26:34.890491,200
15:26:35.435015,156
15:26:35.435015,-5376
15:26:35.435015,-2
15:26:35.435015,-1059
15:26:35.435015,16895
15:26:35.435015,-7
15:26:35.435015,-1667
15:26:35.435015,10495
15:26:35.435015,-3
15:26:35.435015,156
15:26:35.435015,-3840
15:26:35.435015,0
15:26:35.435015,98
15:26:35.435015,-6912
15:26:35.435015,0
15:26:35.435015,296
15:26:35.435015,-7680
15:26:35.435015,0
15:26:35.435015,231
15:26:35.435015,2304
15:26:35.435015,1
15:26:35.435015,236
15:26:35.435015,-12032
15:26:35.435015,0
15:26:35.435015,207
15:26:35.435015,-15616
15:26:35.435015,0
15:26:35.435015,178
15:26:35.435015,-22528
15:26:35.435015,0
15:26:35.435015,156
15:26:35.435015,-29952
15:26:35.435015,0
15:26:35.435015,123
15:26:35.435015,27648
15:26:35.435015,0
15:26:35.435015,94
15:26:35.435015,20992
15:26:35.435015,0
15:26:35.435015,72
15:26:35.435015,15872
15:26:35.435015,0
15:26:35.435015,53
15:26:35.435015,12288
15:26:35.435015,0
15:26:35.435015,48
15:26:35.435015,12800
15:26:35.435015,0
15:26:35.435015,50
15:26:35.435015,12288
15:26:35.435015,0
15:26:35.435015,45
15:26:35.435015,12288
15:26:35.435015,0
15:26:35.435015,62
15:26:35.435015,20992
15:26:35.435015,0
15:26:35.435015,101
15:26:35.435015,29440
15:26:35.435015,0
15:26:35.435015,123
15:26:35.435015,32512
15:26:35.435015,0
15:26:35.435015,123
15:26:35.435015,30208
15:26:35.435015,0
15:26:35.435015,113
15:26:35.435015,27648
15:26:35.435015,0
15:26:35.435015,103
15:26:35.435015,25856
15:26:35.435015,0
15:26:35.435015,98
15:26:35.435015,25088
15:26:35.435015,0
15:26:35.435015,96
15:26:35.435015,24576
15:26:35.435015,0
15:26:35.435015,94
15:26:35.435015,24064
15:26:35.435015,0
15:26:35.435015,96
15:26:35.435015,24576
15:26:35.435015,0
15:26:35.435015,94
15:26:35.435015,24064
15:26:35.435015,0
15:26:35.435015,96
15:26:35.435015,25088
15:26:35.435015,0
15:26:35.435015,98
15:26:35.435015,25856
15:26:35.435015,0
15:26:35.435015,103
15:26:35.435015,26368
15:26:35.435015,0
15:26:35.435015,106
15:26:35.435015,26368
15:26:35.435015,0
15:26:35.435015,89
15:26:35.435015,15360
15:26:35.435015,0
15:26:35.435015,45
15:26:35.435015,14080
15:26:35.435015,0
15:26:35.435015,65
15:26:35.435015,18432
15:26:35.435015,0
15:26:35.435015,77
15:26:35.970815,77
15:26:35.970815,22016
15:26:35.970815,0
15:26:35.970815,94
15:26:35.970815,22784
15:26:35.970815,0
15:26:35.970815,84
15:26:35.970815,22016
15:26:35.970815,0
15:26:35.970815,96
15:26:35.970815,-29184
15:26:35.970815,0
15:26:35.970815,207
15:26:35.970815,19712
15:26:35.970815,0
15:26:35.970815,-468
15:26:35.970815,6143
15:26:35.970815,-5
15:26:35.970815,-1766
15:26:35.970815,28415
15:26:35.970815,-6
15:26:35.970815,-390
15:26:35.970815,2047
15:26:35.970815,1
15:26:35.970815,188
15:26:35.970815,-32256
15:26:35.970815,0
15:26:35.970815,277
15:26:35.970815,6656
15:26:35.970815,1
15:26:35.970815,221
15:26:35.970815,-3328
15:26:35.970815,0
15:26:35.970815,243
15:26:35.970815,-12032
15:26:35.970815,0
15:26:35.970815,197
15:26:35.970815,-15616
15:26:35.970815,0
15:26:35.970815,176
15:26:35.970815,-24320
15:26:35.970815,0
15:26:35.970815,152
15:26:35.970815,-30976
15:26:35.970815,0
15:26:35.970815,118
15:26:35.970815,27136
15:26:35.970815,0
15:26:35.970815,91
15:26:35.970815,18944
15:26:35.970815,0
15:26:35.970815,62
15:26:35.970815,12800
15:26:35.970815,0
15:26:35.970815,41
15:26:35.970815,8448
15:26:35.970815,0
15:26:35.970815,31
15:26:35.970815,7936
15:26:35.970815,0
15:26:35.970815,33
15:26:35.970815,7936
15:26:35.970815,0
15:26:35.970815,31
15:26:35.970815,7936
15:26:35.970815,0
15:26:35.970815,33
15:26:35.970815,12288
15:26:35.970815,0
15:26:35.970815,67
15:26:35.970815,22016
15:26:35.970815,0
15:26:35.970815,101
15:26:35.970815,28928
15:26:35.970815,0
15:26:35.970815,115
15:26:35.970815,28928
15:26:35.970815,0
15:26:35.970815,106
15:26:35.970815,25856
15:26:35.970815,0
15:26:35.970815,96
15:26:35.970815,24064
15:26:35.970815,0
15:26:35.970815,89
15:26:35.970815,22016
15:26:35.970815,0
15:26:35.970815,84
15:26:35.970815,20992
15:26:35.970815,0
15:26:35.970815,84
15:26:35.970815,21504
15:26:35.970815,0
15:26:35.970815,84
15:26:35.970815,21504
15:26:35.970815,0
15:26:35.970815,86
15:26:35.970815,21504
15:26:35.970815,0
15:26:35.970815,84
15:26:35.970815,22784
15:26:35.970815,0
15:26:35.970815,91
15:26:35.970815,23296
15:26:35.970815,0
15:26:35.970815,89
15:26:35.970815,22784
15:26:35.970815,0
15:26:35.970815,89
15:26:36.514976,86
15:26:36.514976,22784
15:26:36.514976,0
15:26:36.514976,91
15:26:36.514976,23296
15:26:36.514976,0
15:26:36.514976,96
15:26:36.514976,25088
15:26:36.514976,0
15:26:36.514976,91
15:26:36.514976,18432
15:26:36.514976,0
15:26:36.514976,60
15:26:36.514976,15360
15:26:36.514976,0
15:26:36.514976,65
15:26:36.514976,17664
15:26:36.514976,0
15:26:36.514976,77
15:26:36.514976,19712
15:26:36.514976,0
15:26:36.514976,77
15:26:36.514976,20992
15:26:36.514976,0
15:26:36.514976,82
15:26:36.514976,18944
15:26:36.514976,0
15:26:36.514976,77
15:26:36.514976,20992
15:26:36.514976,0
15:26:36.514976,108
15:26:36.514976,-21248
15:26:36.514976,0
15:26:36.514976,152
15:26:36.514976,6912
15:26:36.514976,-1
15:26:36.514976,-969
15:26:36.514976,-26369
15:26:36.514976,-7
15:26:36.514976,-1640
15:26:36.514976,-4353
15:26:36.514976,-4
15:26:36.514976,98
15:26:36.514976,-5632
15:26:36.514976,0
15:26:36.514976,89
15:26:36.514976,-15104
15:26:36.514976,0
15:26:36.514976,279
15:26:36.514976,-11264
15:26:36.514976,0
15:26:36.514976,205
15:26:36.514976,-7680
15:26:36.514976,0
15:26:36.514976,200
15:26:36.514976,-19968
15:26:36.514976,0
15:26:36.514976,176
15:26:36.514976,-24320
15:26:36.514976,0
15:26:36.514976,144
15:26:36.514976,-30464
15:26:36.514976,0
15:26:36.514976,125
15:26:36.514976,27648
15:26:36.514976,0
15:26:36.514976,91
15:26:36.514976,20224
15:26:36.514976,0
15:26:36.514976,65
15:26:36.514976,12800
15:26:36.514976,0
15:26:36.514976,41
15:26:36.514976,6656
15:26:36.514976,0
15:26:36.514976,16
15:26:36.514976,3072
15:26:36.514976,0
15:26:36.514976,12
15:26:36.514976,3072
15:26:36.514976,0
15:26:36.514976,14
15:26:36.514976,3584
15:26:36.514976,0
15:26:36.514976,12
15:26:36.514976,3584
15:26:36.514976,0
15:26:36.514976,26
15:26:36.514976,12800
15:26:36.514976,0
15:26:36.514976,77
15:26:36.514976,24576
15:26:36.514976,0
15:26:36.514976,108
15:26:36.514976,28928
15:26:36.514976,0
15:26:36.514976,113
15:26:36.514976,27648
15:26:36.514976,0
15:26:36.514976,103
15:26:36.514976,25856
15:26:36.514976,0
15:26:36.514976,91
15:26:36.514976,22016
15:26:36.514976,0
15:26:36.514976,84
15:26:36.514976,21504
15:26:36.514976,0
15:26:36.514976,84
15:26:37.097018,86
15:26:37.097018,22016
15:26:37.097018,0
15:26:37.097018,84
15:26:37.097018,21504
15:26:37.097018,0
15:26:37.097018,91
15:26:37.097018,27136
15:26:37.097018,0
15:26:37.097018,110
15:26:37.097018,26368
15:26:37.097018,0
15:26:37.097018,103
15:26:37.097018,27136
15:26:37.097018,0
15:26:37.097018,106
15:26:37.097018,26368
15:26:37.097018,0
15:26:37.097018,101
15:26:37.097018,24576
15:26:37.097018,0
15:26:37.097018,96
15:26:37.097018,24576
15:26:37.097018,0
15:26:37.097018,98
15:26:37.097018,26368
15:26:37.097018,0
15:26:37.097018,101
15:26:37.097018,26368
15:26:37.097018,0
15:26:37.097018,103
15:26:37.097018,24064
15:26:37.097018,0
15:26:37.097018,69
15:26:37.097018,12288
15:26:37.097018,0
15:26:37.097018,43
15:26:37.097018,12288
15:26:37.097018,0
15:26:37.097018,55
15:26:37.097018,15872
15:26:37.097018,0
15:26:37.097018,62
15:26:37.097018,16640
15:26:37.097018,0
15:26:37.097018,67
15:26:37.097018,15872
15:26:37.097018,0
15:26:37.097018,62
15:26:37.097018,16640
15:26:37.097018,0
15:26:37.097018,67
15:26:37.097018,24064
15:26:37.097018,0
15:26:37.097018,161
15:26:37.097018,-27904
15:26:37.097018,0
15:26:37.097018,-207
15:26:37.097018,24063
15:26:37.097018,-4
15:26:37.097018,-1621
15:26:37.097018,30463
15:26:37.097018,-7
15:26:37.097018,-851
15:26:37.097018,15615
15:26:37.097018,0
15:26:37.097018,231
15:26:37.097018,20992
15:26:37.097018,0
15:26:37.097018,178
15:26:37.097018,3584
15:26:37.097018,1
15:26:37.097018,207
15:26:37.097018,-15616
15:26:37.097018,0
15:26:37.097018,219
15:26:37.097018,-16896
15:26:37.097018,0
15:26:37.097018,171
15:26:37.097018,-20480
15:26:37.097018,0
15:26:37.097018,159
15:26:37.097018,-30464
15:26:37.097018,0
15:26:37.097018,127
15:26:37.097018,30208
15:26:37.097018,0
15:26:37.097018,101
15:26:37.097018,22784
15:26:37.097018,0
15:26:37.097018,74
15:26:37.097018,15360
15:26:37.097018,0
15:26:37.097018,43
15:26:37.097018,7936
15:26:37.097018,0
15:26:37.097018,24
15:26:37.097018,3584
15:26:37.097018,0
15:26:37.097018,4
15:26:37.097018,0
15:26:37.097018,0
15:26:37.097018,2
15:26:37.097018,1024
15:26:37.097018,0
15:26:37.097018,7
15:26:37.097018,1792
15:26:37.097018,0
15:26:37.097018,12
15:26:37.686845,24
15:26:37.686845,11520
15:26:37.686845,0
15:26:37.686845,69
15:26:37.686845,23296
15:26:37.686845,0
15:26:37.686845,108
15:26:37.686845,29440
15:26:37.686845,0
15:26:37.686845,113
15:26:37.686845,29440
15:26:37.686845,0
15:26:37.686845,125
15:26:37.686845,32000
15:26:37.686845,0
15:26:37.686845,115
15:26:37.686845,27648
15:26:37.686845,0
15:26:37.686845,106
15:26:37.686845,25856
15:26:37.686845,0
15:26:37.686845,98
15:26:37.686845,25088
15:26:37.686845,0
15:26:37.686845,94
15:26:37.686845,23296
15:26:37.686845,0
15:26:37.686845,91
15:26:37.686845,23296
15:26:37.686845,0
15:26:37.686845,91
15:26:37.686845,23296
15:26:37.686845,0
15:26:37.686845,94
15:26:37.686845,24064
15:26:37.686845,0
15:26:37.686845,94
15:26:37.686845,24064
15:26:37.686845,0
15:26:37.686845,91
15:26:37.686845,23296
15:26:37.686845,0
15:26:37.686845,89
15:26:37.686845,21504
15:26:37.686845,0
15:26:37.686845,84
15:26:37.686845,21504
15:26:37.686845,0
15:26:37.686845,82
15:26:37.686845,20224
15:26:37.686845,0
15:26:37.686845,82
15:26:37.686845,21504
15:26:37.686845,0
15:26:37.686845,86
15:26:37.686845,22784
15:26:37.686845,0
15:26:37.686845,89
15:26:37.686845,20224
15:26:37.686845,0
15:26:37.686845,57
15:26:37.686845,9216
15:26:37.686845,0
15:26:37.686845,31
15:26:37.686845,8448
15:26:37.686845,0
15:26:37.686845,45
15:26:37.686845,14080
15:26:37.686845,0
15:26:37.686845,57
15:26:37.686845,14592
15:26:37.686845,0
15:26:37.686845,60
15:26:37.686845,14592
15:26:37.686845,0
15:26:37.686845,53
15:26:37.686845,13568
15:26:37.686845,0
15:26:37.686845,55
15:26:37.686845,21504
15:26:37.686845,0
15:26:37.686845,154
15:26:37.686845,-30464
15:26:37.686845,0
15:26:37.686845,-229
15:26:37.686845,15359
15:26:37.686845,-4
15:26:37.686845,-1650
15:26:37.686845,29951
15:26:37.686845,-7
15:26:37.686845,-834
15:26:37.686845,17407
15:26:37.686845,0
15:26:37.686845,219
15:26:37.686845,18432
15:26:37.686845,0
15:26:37.686845,173
15:26:37.686845,1024
15:26:37.686845,1
15:26:37.686845,197
15:26:37.686845,-16896
15:26:37.686845,0
15:26:37.686845,212
15:26:37.686845,-18688
15:26:37.686845,0
15:26:37.686845,164
15:26:37.686845,-23552
15:26:37.686845,0
15:26:37.686845,149
15:26:38.224129,132
15:26:38.224129,30720
15:26:38.224129,0
15:26:38.224129,108
15:26:38.224129,24064
15:26:38.224129,0
15:26:38.224129,79
15:26:38.224129,17152
15:26:38.224129,0
15:26:38.224129,53
15:26:38.224129,9216
15:26:38.224129,0
15:26:38.224129,24
15:26:38.224129,3584
15:26:38.224129,0
15:26:38.224129,4
15:26:38.224129,1024
15:26:38.224129,0
15:26:38.224129,9
15:26:38.224129,1792
15:26:38.224129,0
15:26:38.224129,9
15:26:38.224129,3584
15:26:38.224129,0
15:26:38.224129,14
15:26:38.224129,4096
15:26:38.224129,0
15:26:38.224129,31
15:26:38.224129,13568
15:26:38.224129,0
15:26:38.224129,74
15:26:38.224129,24064
15:26:38.224129,0
15:26:38.224129,110
15:26:38.224129,30720
15:26:38.224129,0
15:26:38.224129,120
15:26:38.224129,29440
15:26:38.224129,0
15:26:38.224129,108
15:26:38.224129,26368
15:26:38.224129,0
15:26:38.224129,96
15:26:38.224129,23296
15:26:38.224129,0
15:26:38.224129,86
15:26:38.224129,20992
15:26:38.224129,0
15:26:38.224129,79
15:26:38.224129,19712
15:26:38.224129,0
15:26:38.224129,77
15:26:38.224129,19712
15:26:38.224129,0
15:26:38.224129,74
15:26:38.224129,19712
15:26:38.224129,0
15:26:38.224129,82
15:26:38.224129,21504
15:26:38.224129,0
15:26:38.224129,82
15:26:38.224129,21504
15:26:38.224129,0
15:26:38.224129,84
15:26:38.224129,20224
15:26:38.224129,0
15:26:38.224129,79
15:26:38.224129,20224
15:26:38.224129,0
15:26:38.224129,79
15:26:38.224129,19712
15:26:38.224129,0
15:26:38.224129,74
15:26:38.224129,18432
15:26:38.224129,0
15:26:38.224129,72
15:26:38.224129,18432
15:26:38.224129,0
15:26:38.224129,69
15:26:38.224129,17152
15:26:38.224129,0
15:26:38.224129,65
15:26:38.224129,16640
15:26:38.224129,0
15:26:38.224129,67
15:26:38.224129,18432
15:26:38.224129,0
15:26:38.224129,74
15:26:38.224129,19712
15:26:38.224129,0
15:26:38.224129,74
15:26:38.224129,15360
15:26:38.224129,0
15:26:38.224129,38
15:26:38.224129,5376
15:26:38.224129,0
15:26:38.224129,19
15:26:38.224129,5376
15:26:38.224129,0
15:26:38.224129,31
15:26:38.224129,10496
15:26:38.224129,0
15:26:38.224129,38
15:26:38.224129,11008
15:26:38.224129,0
15:26:38.224129,48
15:26:38.224129,11008
15:26:38.224129,0
15:26:38.224129,38
15:26:38.807372,41
15:26:38.807372,12288
15:26:38.807372,0
15:26:38.807372,89
15:26:38.807372,-23552
15:26:38.807372,0
15:26:38.807372,89
15:26:38.807372,-30720
15:26:38.807372,-2
15:26:38.807372,-1141
15:26:38.807372,15103
15:26:38.807372,-7
15:26:38.807372,-1563
15:26:38.807372,-20993
15:26:38.807372,-3
15:26:38.807372,180
15:26:38.807372,-17408
15:26:38.807372,0
15:26:38.807372,82
15:26:38.807372,-9472
15:26:38.807372,0
15:26:38.807372,265
15:26:38.807372,-15104
15:26:38.807372,0
15:26:38.807372,207
15:26:38.807372,-9472
15:26:38.807372,0
15:26:38.807372,185
15:26:38.807372,-21248
15:26:38.807372,0
15:26:38.807372,176
15:26:38.807372,-24832
15:26:38.807372,0
15:26:38.807372,139
15:26:38.807372,-31744
15:26:38.807372,0
15:26:38.807372,118
15:26:38.807372,26368
15:26:38.807372,0
15:26:38.807372,91
15:26:38.807372,18944
15:26:38.807372,0
15:26:38.807372,57
15:26:38.807372,11008
15:26:38.807372,0
15:26:38.807372,31
15:26:38.807372,5376
15:26:38.807372,0
15:26:38.807372,9
15:26:38.807372,0
15:26:38.807372,0
15:26:38.807372,-4
15:26:38.807372,-769
15:26:38.807372,-1
15:26:38.807372,-4
15:26:38.807372,-257
15:26:38.807372,-1
15:26:38.807372,2
15:26:38.807372,1792
15:26:38.807372,0
15:26:38.807372,21
15:26:38.807372,11520
15:26:38.807372,0
15:26:38.807372,72
15:26:38.807372,23296
15:26:38.807372,0
15:26:38.807372,110
15:26:38.807372,30720
15:26:38.807372,0
15:26:38.807372,120
15:26:38.807372,29440
15:26:38.807372,0
15:26:38.807372,110
15:26:38.807372,27136
15:26:38.807372,0
15:26:38.807372,101
15:26:38.807372,24576
15:26:38.807372,0
15:26:38.807372,89
15:26:38.807372,22016
15:26:38.807372,0
15:26:38.807372,84
15:26:38.807372,21504
15:26:38.807372,0
15:26:38.807372,82
15:26:38.807372,20224
15:26:38.807372,0
15:26:38.807372,77
15:26:38.807372,19712
15:26:38.807372,0
15:26:38.807372,77
15:26:38.807372,20224
15:26:38.807372,0
15:26:38.807372,82
15:26:38.807372,20224
15:26:38.807372,0
15:26:38.807372,77
15:26:38.807372,19712
15:26:38.807372,0
15:26:38.807372,77
15:26:38.807372,19712
15:26:38.807372,0
15:26:38.807372,77
15:26:38.807372,19712
15:26:38.807372,0
15:26:38.807372,77
15:26:38.807372,18432
15:26:38.807372,0
15:26:38.807372,72
15:26:39.348807,72
15:26:39.348807,17664
15:26:39.348807,0
15:26:39.348807,67
15:26:39.348807,16640
15:26:39.348807,0
15:26:39.348807,65
15:26:39.348807,16640
15:26:39.348807,0
15:26:39.348807,65
15:26:39.348807,17152
15:26:39.348807,0
15:26:39.348807,69
15:26:39.348807,18432
15:26:39.348807,0
15:26:39.348807,79
15:26:39.348807,21504
15:26:39.348807,0
15:26:39.348807,79
15:26:39.348807,13568
15:26:39.348807,0
15:26:39.348807,28
15:26:39.348807,7168
15:26:39.348807,0
15:26:39.348807,38
15:26:39.348807,12288
15:26:39.348807,0
15:26:39.348807,53
15:26:39.348807,13568
15:26:39.348807,0
15:26:39.348807,55
15:26:39.348807,14080
15:26:39.348807,0
15:26:39.348807,50
15:26:39.348807,14080
15:26:39.348807,0
15:26:39.348807,57
15:26:39.348807,17152
15:26:39.348807,0
15:26:39.348807,120
15:26:39.348807,-19456
15:26:39.348807,0
15:26:39.348807,24
15:26:39.348807,-7168
15:26:39.348807,-3
15:26:39.348807,-1310
15:26:39.348807,7679
15:26:39.348807,-7
15:26:39.348807,-1365
15:26:39.348807,-21249
15:26:39.348807,-2
15:26:39.348807,243
15:26:39.348807,-30464
15:26:39.348807,0
15:26:39.348807,103
15:26:39.348807,-1536
15:26:39.348807,0
15:26:39.348807,243
15:26:39.348807,-18176
15:26:39.348807,0
15:26:39.348807,209
15:26:39.348807,-11264
15:26:39.348807,0
15:26:39.348807,178
15:26:39.348807,-21760
15:26:39.348807,0
15:26:39.348807,164
15:26:39.348807,-28672
15:26:39.348807,0
15:26:39.348807,130
15:26:39.348807,30720
15:26:39.348807,0
15:26:39.348807,106
15:26:39.348807,23296
15:26:39.348807,0
15:26:39.348807,77
15:26:39.348807,15360
15:26:39.348807,0
15:26:39.348807,41
15:26:39.348807,6656
15:26:39.348807,0
15:26:39.348807,12
15:26:39.348807,-1024
15:26:39.348807,-1
15:26:39.348807,-19
15:26:39.348807,-6913
15:26:39.348807,-1
15:26:39.348807,-33
15:26:39.348807,-8193
15:26:39.348807,-1
15:26:39.348807,-31
15:26:39.348807,-6401
15:26:39.348807,-1
15:26:39.348807,-21
15:26:39.348807,-2817
15:26:39.348807,-1
15:26:39.348807,12
15:26:39.348807,11008
15:26:39.348807,0
15:26:39.348807,72
15:26:39.348807,24064
15:26:39.348807,0
15:26:39.348807,108
15:26:39.348807,30208
15:26:39.348807,0
15:26:39.348807,120
15:26:39.348807,30720
15:26:39.348807,0
15:26:39.348807,113
15:26:39.887986,106
15:26:39.887986,25856
15:26:39.887986,0
15:26:39.887986,96
15:26:39.887986,24064
15:26:39.887986,0
15:26:39.887986,91
15:26:39.887986,22016
15:26:39.887986,0
15:26:39.887986,82
15:26:39.887986,20992
15:26:39.887986,0
15:26:39.887986,84
15:26:39.887986,24576
15:26:39.887986,0
15:26:39.887986,101
15:26:39.887986,24064
15:26:39.887986,0
15:26:39.887986,94
15:26:39.887986,24576
15:26:39.887986,0
15:26:39.887986,94
15:26:39.887986,24064
15:26:39.887986,0
15:26:39.887986,96
15:26:39.887986,25088
15:26:39.887986,0
15:26:39.887986,96
15:26:39.887986,24064
15:26:39.887986,0
15:26:39.887986,94
15:26:39.887986,23296
15:26:39.887986,0
15:26:39.887986,86
15:26:39.887986,22016
15:26:39.887986,0
15:26:39.887986,84
15:26:39.887986,21504
15:26:39.887986,0
15:26:39.887986,86
15:26:39.887986,22784
15:26:39.887986,0
15:26:39.887986,91
15:26:39.887986,24064
15:26:39.887986,0
15:26:39.887986,86
15:26:39.887986,16640
15:26:39.887986,0
15:26:39.887986,43
15:26:39.887986,8448
15:26:39.887986,0
15:26:39.887986,31
15:26:39.887986,9216
15:26:39.887986,0
15:26:39.887986,50
15:26:39.887986,13568
15:26:39.887986,0
15:26:39.887986,53
15:26:39.887986,14592
15:26:39.887986,0
15:26:39.887986,60
15:26:39.887986,14080
15:26:39.887986,0
15:26:39.887986,55
15:26:39.887986,15360
15:26:39.887986,0
15:26:39.887986,74
15:26:39.887986,-32256
15:26:39.887986,0
15:26:39.887986,183
15:26:39.887986,512
15:26:39.887986,0
15:26:39.887986,-591
15:26:39.887986,-19713
15:26:39.887986,-6
15:26:39.887986,-1761
15:26:39.887986,-3073
15:26:39.887986,-6
15:26:39.887986,-263
15:26:39.887986,1279
15:26:39.887986,1
15:26:39.887986,132
15:26:39.887986,30208
15:26:39.887986,0
15:26:39.887986,263
15:26:39.887986,-3328
15:26:39.887986,0
15:26:39.887986,193
15:26:39.887986,-8960
15:26:39.887986,0
15:26:39.887986,214
15:26:39.887986,-19456
15:26:39.887986,0
15:26:39.887986,176
15:26:39.887986,-21760
15:26:39.887986,0
15:26:39.887986,152
15:26:39.887986,-29952
15:26:39.887986,0
15:26:39.887986,130
15:26:39.887986,28928
15:26:39.887986,0
15:26:39.887986,96
15:26:39.887986,20992
15:26:39.887986,0
15:26:39.887986,65
15:26:39.887986,12288
15:26:39.887986,0
15:26:39.887986,31
15:26:40.473693,16
15:26:40.473693,512
15:26:40.473693,0
15:26:40.473693,-12
15:26:40.473693,-5889
15:26:40.473693,-1
15:26:40.473693,-28
15:26:40.473693,-6401
15:26:40.473693,-1
15:26:40.473693,-14
15:26:40.473693,-769
15:26:40.473693,-1
15:26:40.473693,-4
15:26:40.473693,3327
15:26:40.473693,0
15:26:40.473693,48
15:26:40.473693,20224
15:26:40.473693,0
15:26:40.473693,101
15:26:40.473693,31488
15:26:40.473693,0
15:26:40.473693,139
15:26:40.473693,-28672
15:26:40.473693,0
15:26:40.473693,144
15:26:40.473693,-29184
15:26:40.473693,0
15:26:40.473693,135
15:26:40.473693,32000
15:26:40.473693,0
15:26:40.473693,118
15:26:40.473693,28928
15:26:40.473693,0
15:26:40.473693,108
15:26:40.473693,27136
15:26:40.473693,0
15:26:40.473693,101
15:26:40.473693,25088
15:26:40.473693,0
15:26:40.473693,94
15:26:40.473693,24064
15:26:40.473693,0
15:26:40.473693,91
15:26:40.473693,23296
15:26:40.473693,0
15:26:40.473693,91
15:26:40.473693,23296
15:26:40.473693,0
15:26:40.473693,91
15:26:40.473693,23296
15:26:40.473693,0
15:26:40.473693,89
15:26:40.473693,22784
15:26:40.473693,0
15:26:40.473693,91
15:26:40.473693,22016
15:26:40.473693,0
15:26:40.473693,84
15:26:40.473693,21504
15:26:40.473693,0
15:26:40.473693,84
15:26:40.473693,21504
15:26:40.473693,0
15:26:40.473693,84
15:26:40.473693,21504
15:26:40.473693,0
15:26:40.473693,82
15:26:40.473693,20224
15:26:40.473693,0
15:26:40.473693,79
15:26:40.473693,19712
15:26:40.473693,0
15:26:40.473693,74
15:26:40.473693,18944
15:26:40.473693,0
15:26:40.473693,79
15:26:40.473693,20992
15:26:40.473693,0
15:26:40.473693,84
15:26:40.473693,22784
15:26:40.473693,0
15:26:40.473693,86
15:26:40.473693,17664
15:26:40.473693,0
15:26:40.473693,43
15:26:40.473693,8448
15:26:40.473693,0
15:26:40.473693,38
15:26:40.473693,11520
15:26:40.473693,0
15:26:40.473693,55
15:26:40.473693,15360
15:26:40.473693,0
15:26:40.473693,57
15:26:40.473693,15360
15:26:40.473693,0
15:26:40.473693,65
15:26:40.473693,15872
15:26:40.473693,0
15:26:40.473693,60
15:26:40.473693,15360
15:26:40.473693,0
15:26:40.473693,74
15:26:40.473693,-32256
15:26:40.473693,0
15:26:40.473693,185
15:26:40.473693,0
15:26:40.473693,0
15:26:40.473693,-598
15:26:41.013373,-1372
15:26:41.013373,3839
15:26:41.013373,-7
15:26:41.013373,-1300
15:26:41.013373,-769
15:26:41.013373,-2
15:26:41.013373,260
15:26:41.013373,-31744
15:26:41.013373,0
15:26:41.013373,118
15:26:41.013373,1792
15:26:41.013373,1
15:26:41.013373,246
15:26:41.013373,-12032
15:26:41.013373,0
15:26:41.013373,246
15:26:41.013373,-5632
15:26:41.013373,0
15:26:41.013373,193
15:26:41.013373,-16128
15:26:41.013373,0
15:26:41.013373,185
15:26:41.013373,-23552
15:26:41.013373,0
15:26:41.013373,152
15:26:41.013373,-29184
15:26:41.013373,0
15:26:41.013373,123
15:26:41.013373,27648
15:26:41.013373,0
15:26:41.013373,91
15:26:41.013373,18944
15:26:41.013373,0
15:26:41.013373,60
15:26:41.013373,11520
15:26:41.013373,0
15:26:41.013373,26
15:26:41.013373,1792
15:26:41.013373,0
15:26:41.013373,-4
15:26:41.013373,-3329
15:26:41.013373,-1
15:26:41.013373,-19
15:26:41.013373,-5889
15:26:41.013373,-1
15:26:41.013373,-26
15:26:41.013373,-6401
15:26:41.013373,-1
15:26:41.013373,-24
15:26:41.013373,-2049
15:26:41.013373,-1
15:26:41.013373,16
15:26:41.013373,11520
15:26:41.013373,0
15:26:41.013373,67
15:26:41.013373,22016
15:26:41.013373,0
15:26:41.013373,106
15:26:41.013373,30208
15:26:41.013373,0
15:26:41.013373,123
15:26:41.013373,30208
15:26:41.013373,0
15:26:41.013373,108
15:26:41.013373,26368
15:26:41.013373,0
15:26:41.013373,98
15:26:41.013373,24576
15:26:41.013373,0
15:26:41.013373,89
15:26:41.013373,21504
15:26:41.013373,0
15:26:41.013373,79
15:26:41.013373,19712
15:26:41.013373,0
15:26:41.013373,77
15:26:41.013373,19712
15:26:41.013373,0
15:26:41.013373,77
15:26:41.013373,18944
15:26:41.013373,0
15:26:41.013373,72
15:26:41.013373,17664
15:26:41.013373,0
15:26:41.013373,72
15:26:41.013373,18944
15:26:41.013373,0
15:26:41.013373,74
15:26:41.013373,17664
15:26:41.013373,0
15:26:41.013373,65
15:26:41.013373,17664
15:26:41.013373,0
15:26:41.013373,72
15:26:41.013373,17664
15:26:41.013373,0
15:26:41.013373,67
15:26:41.013373,17664
15:26:41.013373,0
15:26:41.013373,72
15:26:41.013373,19712
15:26:41.013373,0
15:26:41.013373,79
15:26:41.013373,22016
15:26:41.013373,0
15:26:41.013373,91
15:26:41.013373,21504
15:26:41.013373,0
15:26:41.013373,65
15:26:41.598321,45
15:26:41.598321,9216
15:26:41.598321,0
15:26:41.598321,36
15:26:41.598321,11520
15:26:41.598321,0
15:26:41.598321,55
15:26:41.598321,14080
15:26:41.598321,0
15:26:41.598321,65
15:26:41.598321,20992
15:26:41.598321,0
15:26:41.598321,79
15:26:41.598321,17664
15:26:41.598321,0
15:26:41.598321,69
15:26:41.598321,17664
15:26:41.598321,0
15:26:41.598321,82
15:26:41.598321,-30976
15:26:41.598321,0
15:26:41.598321,166
15:26:41.598321,-16640
15:26:41.598321,-1
15:26:41.598321,-690
15:26:41.598321,28415
15:26:41.598321,-6
15:26:41.598321,-1746
15:26:41.598321,17919
15:26:41.598321,-5
15:26:41.598321,-173
15:26:41.598321,7423
15:26:41.598321,1
15:26:41.598321,113
15:26:41.598321,30208
15:26:41.598321,0
15:26:41.598321,272
15:26:41.598321,-4608
15:26:41.598321,0
15:26:41.598321,190
15:26:41.598321,-8960
15:26:41.598321,0
15:26:41.598321,207
15:26:41.598321,-21248
15:26:41.598321,0
15:26:41.598321,173
15:26:41.598321,-22528
15:26:41.598321,0
15:26:41.598321,144
15:26:41.598321,-31744
15:26:41.598321,0
15:26:41.598321,120
15:26:41.598321,27136
15:26:41.598321,0
15:26:41.598321,91
15:26:41.598321,18944
15:26:41.598321,0
15:26:41.598321,55
15:26:41.598321,9728
15:26:41.598321,0
15:26:41.598321,21
15:26:41.598321,512
15:26:41.598321,0
15:26:41.598321,-14
15:26:41.598321,-6913
15:26:41.598321,-1
15:26:41.598321,-38
15:26:41.598321,-10753
15:26:41.598321,-1
15:26:41.598321,-45
15:26:41.598321,-10753
15:26:41.598321,-1
15:26:41.598321,-36
15:26:41.598321,-6401
15:26:41.598321,-1
15:26:41.598321,-4
15:26:41.598321,7423
15:26:41.598321,0
15:26:41.598321,65
15:26:41.598321,24576
15:26:41.598321,0
15:26:41.598321,118
15:26:41.598321,-31744
15:26:41.598321,0
15:26:41.598321,144
15:26:41.598321,-27392
15:26:41.598321,0
15:26:41.598321,142
15:26:41.598321,-30976
15:26:41.598321,0
15:26:41.598321,130
15:26:41.598321,31488
15:26:41.598321,0
15:26:41.598321,115
15:26:41.598321,28160
15:26:41.598321,0
15:26:41.598321,106
15:26:41.598321,25856
15:26:41.598321,0
15:26:41.598321,98
15:26:41.598321,24576
15:26:41.598321,0
15:26:41.598321,94
15:26:41.598321,24064
15:26:41.598321,0
15:26:41.598321,96
15:26:41.598321,24576
15:26:41.598321,0
15:26:41.598321,96
15:26:42.182541,96
15:26:42.182541,24576
15:26:42.182541,0
15:26:42.182541,96
15:26:42.182541,24064
15:26:42.182541,0
15:26:42.182541,91
15:26:42.182541,23296
15:26:42.182541,0
15:26:42.182541,91
15:26:42.182541,24064
15:26:42.182541,0
15:26:42.182541,98
15:26:42.182541,27648
15:26:42.182541,0
15:26:42.182541,125
15:26:42.182541,32000
15:26:42.182541,0
15:26:42.182541,103
15:26:42.182541,20992
15:26:42.182541,0
15:26:42.182541,69
15:26:42.182541,15872
15:26:42.182541,0
15:26:42.182541,69
15:26:42.182541,20992
15:26:42.182541,0
15:26:42.182541,82
15:26:42.182541,20224
15:26:42.182541,0
15:26:42.182541,86
15:26:42.182541,22784
15:26:42.182541,0
15:26:42.182541,84
15:26:42.182541,20992
15:26:42.182541,0
15:26:42.182541,84
15:26:42.182541,24064
15:26:42.182541,0
15:26:42.182541,135
15:26:42.182541,-13824
15:26:42.182541,0
15:26:42.182541,106
15:26:42.182541,28672
15:26:42.182541,-2
15:26:42.182541,-1201
15:26:42.182541,255
15:26:42.182541,-7
15:26:42.182541,-1561
15:26:42.182541,-8193
15:26:42.182541,-3
15:26:42.182541,219
15:26:42.182541,-11264
15:26:42.182541,0
15:26:42.182541,115
15:26:42.182541,-256
15:26:42.182541,0
15:26:42.182541,291
15:26:42.182541,-8192
15:26:42.182541,0
15:26:42.182541,236
15:26:42.182541,-3328
15:26:42.182541,0
15:26:42.182541,209
15:26:42.182541,-15104
15:26:42.182541,0
15:26:42.182541,197
15:26:42.182541,-19968
15:26:42.182541,0
15:26:42.182541,161
15:26:42.182541,-26112
15:26:42.182541,0
15:26:42.182541,139
15:26:42.182541,32000
15:26:42.182541,0
15:26:42.182541,110
15:26:42.182541,24064
15:26:42.182541,0
15:26:42.182541,77
15:26:42.182541,15872
15:26:42.182541,0
15:26:42.182541,45
15:26:42.182541,6656
15:26:42.182541,0
15:26:42.182541,12
15:26:42.182541,512
15:26:42.182541,0
15:26:42.182541,-7
15:26:42.182541,-1537
15:26:42.182541,-1
15:26:42.182541,-7
15:26:42.182541,-1537
15:26:42.182541,-1
15:26:42.182541,0
15:26:42.182541,3584
15:26:42.182541,0
15:26:42.182541,38
15:26:42.182541,17152
15:26:42.182541,0
15:26:42.182541,94
15:26:42.182541,29440
15:26:42.182541,0
15:26:42.182541,130
15:26:42.182541,-29952
15:26:42.182541,0
15:26:42.182541,139
15:26:42.182541,-30464
15:26:42.182541,0
15:26:42.182541,130
15:26:42.721911,125
15:26:42.721911,30208
15:26:42.721911,0
15:26:42.721911,110
15:26:42.721911,26368
15:26:42.721911,0
15:26:42.721911,98
15:26:42.721911,24064
15:26:42.721911,0
15:26:42.721911,91
15:26:42.721911,24064
15:26:42.721911,0
15:26:42.721911,91
15:26:42.721911,22016
15:26:42.721911,0
15:26:42.721911,86
15:26:42.721911,22016
15:26:42.721911,0
15:26:42.721911,91
15:26:42.721911,27136
15:26:42.721911,0
15:26:42.721911,108
15:26:42.721911,25856
15:26:42.721911,0
15:26:42.721911,98
15:26:42.721911,25856
15:26:42.721911,0
15:26:42.721911,98
15:26:42.721911,24576
15:26:42.721911,0
15:26:42.721911,94
15:26:42.721911,23296
15:26:42.721911,0
15:26:42.721911,89
15:26:42.721911,22016
15:26:42.721911,0
15:26:42.721911,84
15:26:42.721911,21504
15:26:42.721911,0
15:26:42.721911,82
15:26:42.721911,20224
15:26:42.721911,0
15:26:42.721911,74
15:26:42.721911,18944
15:26:42.721911,0
15:26:42.721911,74
15:26:42.721911,18432
15:26:42.721911,0
15:26:42.721911,67
15:26:42.721911,17152
15:26:42.721911,0
15:26:42.721911,65
15:26:42.721911,17152
15:26:42.721911,0
15:26:42.721911,69
15:26:42.721911,18432
15:26:42.721911,0
15:26:42.721911,77
15:26:42.721911,20224
15:26:42.721911,0
15:26:42.721911,72
15:26:42.721911,11520
15:26:42.721911,0
15:26:42.721911,21
15:26:42.721911,5376
15:26:42.721911,0
15:26:42.721911,28
15:26:42.721911,9728
15:26:42.721911,0
15:26:42.721911,50
15:26:42.721911,14592
15:26:42.721911,0
15:26:42.721911,55
15:26:42.721911,15360
15:26:42.721911,0
15:26:42.721911,62
15:26:42.721911,14080
15:26:42.721911,0
15:26:42.721911,55
15:26:42.721911,15872
15:26:42.721911,0
15:26:42.721911,91
15:26:42.721911,-23040
15:26:42.721911,0
15:26:42.721911,149
15:26:42.721911,7680
15:26:42.721911,-1
15:26:42.721911,-977
15:26:42.721911,27391
15:26:42.721911,-7
15:26:42.721911,-1732
15:26:42.721911,-29185
15:26:42.721911,-4
15:26:42.721911,45
15:26:42.721911,-7680
15:26:42.721911,0
15:26:42.721911,84
15:26:42.721911,-19456
15:26:42.721911,0
15:26:42.721911,270
15:26:42.721911,-12032
15:26:42.721911,0
15:26:42.721911,197
15:26:42.721911,-9472
15:26:42.721911,0
15:26:42.721911,195
15:26:42.721911,-21248
15:26:42.721911,0
15:26:42.721911,176
15:26:43.262362,161
15:26:43.262362,-29184
15:26:43.262362,0
15:26:43.262362,132
15:26:43.262362,30720
15:26:43.262362,0
15:26:43.262362,103
15:26:43.262362,23296
15:26:43.262362,0
15:26:43.262362,77
15:26:43.262362,15360
15:26:43.262362,0
15:26:43.262362,41
15:26:43.262362,7168
15:26:43.262362,0
15:26:43.262362,24
15:26:43.262362,4096
15:26:43.262362,0
15:26:43.262362,0
15:26:43.262362,-3584
15:26:43.262362,-1
15:26:43.262362,-16
15:26:43.262362,-3841
15:26:43.262362,-1
15:26:43.262362,-16
15:26:43.262362,-3329
15:26:43.262362,-1
15:26:43.262362,-9
15:26:43.262362,767
15:26:43.262362,0
15:26:43.262362,26
15:26:43.262362,14080
15:26:43.262362,0
15:26:43.262362,79
15:26:43.262362,25088
15:26:43.262362,0
15:26:43.262362,115
15:26:43.262362,31488
15:26:43.262362,0
15:26:43.262362,120
15:26:43.262362,29440
15:26:43.262362,0
15:26:43.262362,110
15:26:43.262362,26368
15:26:43.262362,0
15:26:43.262362,101
15:26:43.262362,24576
15:26:43.262362,0
15:26:43.262362,89
15:26:43.262362,22016
15:26:43.262362,0
15:26:43.262362,86
15:26:43.262362,21504
15:26:43.262362,0
15:26:43.262362,82
15:26:43.262362,20224
15:26:43.262362,0
15:26:43.262362,82
15:26:43.262362,20992
15:26:43.262362,0
15:26:43.262362,79
15:26:43.262362,19712
15:26:43.262362,0
15:26:43.262362,77
15:26:43.262362,18944
15:26:43.262362,0
15:26:43.262362,72
15:26:43.262362,18432
15:26:43.262362,0
15:26:43.262362,74
15:26:43.262362,18944
15:26:43.262362,0
15:26:43.262362,69
15:26:43.262362,16640
15:26:43.262362,0
15:26:43.262362,65
15:26:43.262362,17664
15:26:43.262362,0
15:26:43.262362,67
15:26:43.262362,15872
15:26:43.262362,0
15:26:43.262362,60
15:26:43.262362,14592
15:26:43.262362,0
15:26:43.262362,57
15:26:43.262362,14592
15:26:43.262362,0
15:26:43.262362,60
15:26:43.262362,14592
15:26:43.262362,0
15:26:43.262362,50
15:26:43.262362,12800
15:26:43.262362,0
15:26:43.262362,55
15:26:43.262362,14592
15:26:43.262362,0
15:26:43.262362,57
15:26:43.262362,15360
15:26:43.262362,0
15:26:43.262362,69
15:26:43.262362,18944
15:26:43.262362,0
15:26:43.262362,67
15:26:43.262362,13568
15:26:43.262362,0
15:26:43.262362,28
15:26:43.262362,2304
15:26:43.262362,0
15:26:43.262362,19
15:26:43.802527,26
15:26:43.802527,6144
15:26:43.802527,0
15:26:43.802527,33
15:26:43.802527,9728
15:26:43.802527,0
15:26:43.802527,41
15:26:43.802527,12288
15:26:43.802527,0
15:26:43.802527,43
15:26:43.802527,9728
15:26:43.802527,0
15:26:43.802527,53
15:26:43.802527,17152
15:26:43.802527,0
15:26:43.802527,106
15:26:43.802527,-23040
15:26:43.802527,0
15:26:43.802527,41
15:26:43.802527,6400
15:26:43.802527,-2
15:26:43.802527,-1252
15:26:43.802527,7679
15:26:43.802527,-7
15:26:43.802527,-1491
15:26:43.802527,4863
15:26:43.802527,-2
15:26:43.802527,209
15:26:43.802527,-24320
15:26:43.802527,0
15:26:43.802527,77
15:26:43.802527,-8960
15:26:43.802527,0
15:26:43.802527,246
15:26:43.802527,-18688
15:26:43.802527,0
15:26:43.802527,200
15:26:43.802527,-12032
15:26:43.802527,0
15:26:43.802527,171
15:26:43.802527,-25600
15:26:43.802527,0
15:26:43.802527,154
15:26:43.802527,-30976
15:26:43.802527,0
15:26:43.802527,120
15:26:43.802527,29440
15:26:43.802527,0
15:26:43.802527,98
15:26:43.802527,20224
15:26:43.802527,0
15:26:43.802527,67
15:26:43.802527,12800
15:26:43.802527,0
15:26:43.802527,28
15:26:43.802527,3072
15:26:43.802527,0
15:26:43.802527,-7
15:26:43.802527,-6913
15:26:43.802527,-1
15:26:43.802527,-48
15:26:43.802527,-15617
15:26:43.802527,-1
15:26:43.802527,-67
15:26:43.802527,-18177
15:26:43.802527,-1
15:26:43.802527,-72
15:26:43.802527,-18177
15:26:43.802527,-1
15:26:43.802527,-67
15:26:43.802527,-13313
15:26:43.802527,-1
15:26:43.802527,-19
15:26:43.802527,4351
15:26:43.802527,0
15:26:43.802527,43
15:26:43.802527,17664
15:26:43.802527,0
15:26:43.802527,94
15:26:43.802527,28928
15:26:43.802527,0
15:26:43.802527,118
15:26:43.802527,29440
15:26:43.802527,0
15:26:43.802527,110
15:26:43.802527,26368
15:26:43.802527,0
15:26:43.802527,96
15:26:43.802527,22784
15:26:43.802527,0
15:26:43.802527,84
15:26:43.802527,22016
15:26:43.802527,0
15:26:43.802527,82
15:26:43.802527,18432
15:26:43.802527,0
15:26:43.802527,69
15:26:43.802527,16640
15:26:43.802527,0
15:26:43.802527,50
15:26:43.802527,12288
15:26:43.802527,0
15:26:43.802527,57
15:26:43.802527,18432
15:26:43.802527,0
15:26:43.802527,77
15:26:43.802527,15872
15:26:43.802527,0
15:26:43.802527,60
15:26:44.426347,67
15:26:44.426347,15872
15:26:44.426347,0
15:26:44.426347,62
15:26:44.426347,19712
15:26:44.426347,0
15:26:44.426347,72
15:26:44.426347,14080
15:26:44.426347,0
15:26:44.426347,67
15:26:44.426347,18944
15:26:44.426347,0
15:26:44.426347,67
15:26:44.426347,18944
15:26:44.426347,0
15:26:44.426347,82
15:26:44.426347,17152
15:26:44.426347,0
15:26:44.426347,65
15:26:44.426347,20224
15:26:44.426347,0
15:26:44.426347,45
15:26:44.426347,512
15:26:44.426347,0
15:26:44.426347,33
15:26:44.426347,15360
15:26:44.426347,0
15:26:44.426347,36
15:26:44.426347,7168
15:26:44.426347,0
15:26:44.426347,38
15:26:44.426347,12800
15:26:44.426347,0
15:26:44.426347,72
15:26:44.426347,20992
15:26:44.426347,0
15:26:44.426347,77
15:26:44.426347,21504
15:26:44.426347,0
15:26:44.426347,101
15:26:44.426347,-27392
15:26:44.426347,0
15:26:44.426347,212
15:26:44.426347,23296
15:26:44.426347,0
15:26:44.426347,-419
15:26:44.426347,26623
15:26:44.426347,-5
15:26:44.426347,-1722
15:26:44.426347,14847
15:26:44.426347,-6
15:26:44.426347,-456
15:26:44.426347,7423
15:26:44.426347,1
15:26:44.426347,243
15:26:44.426347,-21760
15:26:44.426347,0
15:26:44.426347,313
15:26:44.426347,12800
15:26:44.426347,1
15:26:44.426347,248
15:26:44.426347,7936
15:26:44.426347,1
15:26:44.426347,272
15:26:44.426347,-6912
15:26:44.426347,0
15:26:44.426347,238
15:26:44.426347,-8960
15:26:44.426347,0
15:26:44.426347,173
15:26:44.426347,-21760
15:26:44.426347,0
15:26:44.426347,171
15:26:44.426347,32512
15:26:44.426347,0
15:26:44.426347,118
15:26:44.426347,-31744
15:26:44.426347,0
15:26:44.426347,91
15:26:44.426347,11008
15:26:44.426347,0
15:26:44.426347,60
15:26:44.426347,16640
15:26:44.426347,0
15:26:44.426347,28
15:26:44.426347,2304
15:26:44.426347,0
15:26:44.426347,2
15:26:44.426347,512
15:26:44.426347,0
15:26:44.426347,2
15:26:44.426347,1024
15:26:44.426347,0
15:26:44.426347,14
15:26:44.426347,0
15:26:44.426347,0
15:26:44.426347,16
15:26:44.426347,20224
15:26:44.426347,0
15:26:44.426347,127
15:26:44.426347,-24832
15:26:44.426347,0
15:26:44.426347,185
15:26:44.426347,-15104
15:26:44.426347,0
15:26:44.426347,178
15:26:44.426347,-19456
15:26:44.426347,0
15:26:44.426347,217
15:26:44.972620,219
15:26:44.972620,-14336
15:26:44.972620,0
15:26:44.972620,207
15:26:44.972620,-10752
15:26:44.972620,0
15:26:44.972620,197
15:26:44.972620,-23040
15:26:44.972620,0
15:26:44.972620,154
15:26:44.972620,-19968
15:26:44.972620,0
15:26:44.972620,214
15:26:44.972620,-12032
15:26:44.972620,0
15:26:44.972620,193
15:26:44.972620,-12544
15:26:44.972620,0
15:26:44.972620,195
15:26:44.972620,-26112
15:26:44.972620,0
15:26:44.972620,180
15:26:44.972620,-8960
15:26:44.972620,0
15:26:44.972620,205
15:26:44.972620,-9472
15:26:44.972620,0
15:26:44.972620,243
15:26:44.972620,-9472
15:26:44.972620,0
15:26:44.972620,219
15:26:44.972620,1024
15:26:44.972620,1
15:26:44.972620,265
15:26:44.972620,-5120
15:26:44.972620,0
15:26:44.972620,236
15:26:44.972620,2304
15:26:44.972620,1
15:26:44.972620,277
15:26:44.972620,3584
15:26:44.972620,1
15:26:44.972620,236
15:26:44.972620,-15104
15:26:44.972620,0
15:26:44.972620,219
15:26:44.972620,-2560
15:26:44.972620,0
15:26:44.972620,226
15:26:44.972620,-3328
15:26:44.972620,0
15:26:44.972620,282
15:26:44.972620,7168
15:26:44.972620,1
15:26:44.972620,282
15:26:44.972620,8448
15:26:44.972620,1
15:26:44.972620,294
15:26:44.972620,5888
15:26:44.972620,1
15:26:44.972620,248
15:26:44.972620,512
15:26:44.972620,1
15:26:44.972620,323
15:26:44.972620,28160
15:26:44.972620,1
15:26:44.972620,173
15:26:44.972620,24832
15:26:44.972620,-2
15:26:44.972620,-1170
15:26:44.972620,-6145
15:26:44.972620,-7
15:26:44.972620,-1097
15:26:44.972620,-24321
15:26:44.972620,-1
15:26:44.972620,383
15:26:44.972620,-8192
15:26:44.972620,0
15:26:44.972620,200
15:26:44.972620,22016
15:26:44.972620,1
15:26:44.972620,335
15:26:44.972620,10240
15:26:44.972620,1
15:26:44.972620,291
15:26:44.972620,4864
15:26:44.972620,1
15:26:44.972620,275
15:26:44.972620,2304
15:26:44.972620,1
15:26:44.972620,234
15:26:44.972620,-5632
15:26:44.972620,0
15:26:44.972620,241
15:26:44.972620,-17408
15:26:44.972620,0
15:26:44.972620,161
15:26:44.972620,-19968
15:26:44.972620,0
15:26:44.972620,149
15:26:44.972620,28160
15:26:44.972620,0
15:26:44.972620,106
15:26:44.972620,22016
15:26:44.972620,0
15:26:44.972620,48
15:26:44.972620,4096
15:26:44.972620,0
15:26:44.972620,0
15:26:45.512373,-16
15:26:45.512373,-11265
15:26:45.512373,-1
15:26:45.512373,-55
15:26:45.512373,-12033
15:26:45.512373,-1
15:26:45.512373,-41
15:26:45.512373,-10241
15:26:45.512373,-1
15:26:45.512373,-26
15:26:45.512373,4351
15:26:45.512373,0
15:26:45.512373,72
15:26:45.512373,29440
15:26:45.512373,0
15:26:45.512373,147
15:26:45.512373,-20480
15:26:45.512373,0
15:26:45.512373,193
15:26:45.512373,-16128
15:26:45.512373,0
15:26:45.512373,190
15:26:45.512373,-16896
15:26:45.512373,0
15:26:45.512373,178
15:26:45.512373,-23040
15:26:45.512373,0
15:26:45.512373,159
15:26:45.512373,-26624
15:26:45.512373,0
15:26:45.512373,144
15:26:45.512373,-30464
15:26:45.512373,0
15:26:45.512373,130
15:26:45.512373,32512
15:26:45.512373,0
15:26:45.512373,125
15:26:45.512373,30720
15:26:45.512373,0
15:26:45.512373,120
15:26:45.512373,30720
15:26:45.512373,0
15:26:45.512373,118
15:26:45.512373,28160
15:26:45.512373,0
15:26:45.512373,103
15:26:45.512373,27136
15:26:45.512373,0
15:26:45.512373,106
15:26:45.512373,24576
15:26:45.512373,0
15:26:45.512373,94
15:26:45.512373,22784
15:26:45.512373,0
15:26:45.512373,65
15:26:45.512373,9728
15:26:45.512373,0
15:26:45.512373,24
15:26:45.512373,6656
15:26:45.512373,0
15:26:45.512373,31
15:26:45.512373,11520
15:26:45.512373,0
15:26:45.512373,55
15:26:45.512373,13568
15:26:45.512373,0
15:26:45.512373,55
15:26:45.512373,15872
15:26:45.512373,0
15:26:45.512373,60
15:26:45.512373,14080
15:26:45.512373,0
15:26:45.512373,53
15:26:45.512373,14080
15:26:45.512373,0
15:26:45.512373,72
15:26:45.512373,31488
15:26:45.512373,0
15:26:45.512373,166
15:26:45.512373,-3072
15:26:45.512373,-1
15:26:45.512373,-598
15:26:45.512373,-15873
15:26:45.512373,-6
15:26:45.512373,-1751
15:26:45.512373,-22785
15:26:45.512373,-6
15:26:45.512373,-359
15:26:45.512373,767
15:26:45.512373,1
15:26:45.512373,147
15:26:45.512373,19712
15:26:45.512373,0
15:26:45.512373,234
15:26:45.512373,-5120
15:26:45.512373,0
15:26:45.512373,173
15:26:45.512373,-15104
15:26:45.512373,0
15:26:45.512373,193
15:26:45.512373,-26112
15:26:45.512373,0
15:26:45.512373,144
15:26:45.512373,-31744
15:26:45.512373,0
15:26:45.512373,106
15:26:45.512373,24064
15:26:45.512373,0
15:26:45.512373,86
15:26:46.098451,65
15:26:46.098451,10496
15:26:46.098451,0
15:26:46.098451,24
15:26:46.098451,2304
15:26:46.098451,0
15:26:46.098451,-16
15:26:46.098451,-12545
15:26:46.098451,-1
15:26:46.098451,-77
15:26:46.098451,-24321
15:26:46.098451,-1
15:26:46.098451,-113
15:26:46.098451,-31745
15:26:46.098451,-1
15:26:46.098451,-137
15:26:46.098451,28927
15:26:46.098451,-1
15:26:46.098451,-144
15:26:46.098451,30719
15:26:46.098451,-1
15:26:46.098451,-115
15:26:46.098451,-16385
15:26:46.098451,-1
15:26:46.098451,-2
15:26:46.098451,13055
15:26:46.098451,0
15:26:46.098451,96
