timestamp,ecg
22:55:46.302704,-89
22:55:46.302704,-22017
22:55:46.302704,-1
22:55:46.302704,-94
22:55:46.302704,-22017
22:55:46.302704,-1
22:55:46.302704,-80
22:55:46.302704,-20737
22:55:46.302704,-1
22:55:46.302704,-82
22:55:46.302704,-20225
22:55:46.302704,-1
22:55:46.302704,-72
22:55:46.302704,-15873
22:55:46.302704,-1
22:55:46.302704,-58
22:55:46.302704,-15873
22:55:46.302704,-1
22:55:46.302704,-63
22:55:46.302704,-16385
22:55:46.302704,-1
22:55:46.302704,-67
22:55:46.302704,-18945
22:55:46.302704,-1
22:55:46.302704,-82
22:55:46.302704,-22017
22:55:46.302704,-1
22:55:46.302704,-87
22:55:46.302704,-22017
22:55:46.302704,-1
22:55:46.302704,-80
22:55:46.302704,-12545
22:55:46.302704,-1
22:55:46.302704,-19
22:55:46.302704,-5121
22:55:46.302704,-1
22:55:46.302704,-41
22:55:46.302704,-12033
22:55:46.302704,-1
22:55:46.302704,-46
22:55:46.302704,-9473
22:55:46.302704,-1
22:55:46.302704,-38
22:55:46.302704,-9473
22:55:46.302704,-1
22:55:46.302704,-36
22:55:46.302704,-9473
22:55:46.302704,-1
22:55:46.302704,-43
22:55:46.302704,-11521
22:55:46.302704,-1
22:55:46.302704,-48
22:55:46.302704,-12545
22:55:46.302704,-1
22:55:46.302704,-50
22:55:46.302704,-13313
22:55:46.302704,-1
22:55:46.302704,-87
22:55:46.302704,18687
22:55:46.302704,-1
22:55:46.302704,-203
22:55:46.302704,7679
22:55:46.302704,0
22:55:46.302704,448
22:55:46.302704,2048
22:55:46.302704,3
22:55:46.302704,754
22:55:46.302704,25600
22:55:46.302704,1
22:55:46.302704,-38
22:55:46.302704,-26369
22:55:46.302704,-1
22:55:46.302704,-67
22:55:46.302704,-32001
22:55:46.302704,-1
22:55:46.302704,-140
22:55:46.302704,-26369
22:55:46.302704,-1
22:55:46.302704,-109
22:55:46.302704,-29441
22:55:46.302704,-1
22:55:46.302704,-99
22:55:46.302704,-22529
22:55:46.302704,-1
22:55:46.302704,-82
22:55:46.302704,-16897
22:55:46.302704,-1
22:55:46.302704,-60
22:55:46.302704,-13825
22:55:46.302704,-1
22:55:46.302704,-43
22:55:46.302704,-7681
22:55:46.302704,-1
22:55:46.302704,-14
22:55:46.302704,1279
22:55:46.302704,0
22:55:46.302704,24
22:55:46.302704,12288
22:55:46.302704,0
22:55:46.302704,77
22:55:46.302704,26624
22:55:46.302704,0
22:55:46.302704,126
22:55:46.302704,-27136
22:55:46.302704,0
22:55:46.302704,167
22:55:46.302704,-25344
22:55:46.302704,0
22:55:46.302704,133
22:55:46.886967,99
22:55:46.886967,11776
22:55:46.886967,0
22:55:46.886967,-7
22:55:46.886967,-12033
22:55:46.886967,-1
22:55:46.886967,-80
22:55:46.886967,-22017
22:55:46.886967,-1
22:55:46.886967,-67
22:55:46.886967,-15873
22:55:46.886967,-1
22:55:46.886967,-75
22:55:46.886967,-16385
22:55:46.886967,-1
22:55:46.886967,-43
22:55:46.886967,-8961
22:55:46.886967,-1
22:55:46.886967,-38
22:55:46.886967,-8961
22:55:46.886967,-1
22:55:46.886967,-31
22:55:46.886967,-7681
22:55:46.886967,-1
22:55:46.886967,-29
22:55:46.886967,-6401
22:55:46.886967,-1
22:55:46.886967,-29
22:55:46.886967,-7169
22:55:46.886967,-1
22:55:46.886967,-21
22:55:46.886967,-2817
22:55:46.886967,-1
22:55:46.886967,-4
22:55:46.886967,-257
22:55:46.886967,-1
22:55:46.886967,0
22:55:46.886967,0
22:55:46.886967,0
22:55:46.886967,-2
22:55:46.886967,-2817
22:55:46.886967,-1
22:55:46.886967,-19
22:55:46.886967,-3329
22:55:46.886967,-1
22:55:46.886967,-12
22:55:46.886967,-3841
22:55:46.886967,-1
22:55:46.886967,12
22:55:46.886967,12288
22:55:46.886967,0
22:55:46.886967,48
22:55:46.886967,9728
22:55:46.886967,0
22:55:46.886967,36
22:55:46.886967,6144
22:55:46.886967,0
22:55:46.886967,26
22:55:46.886967,8448
22:55:46.886967,0
22:55:46.886967,31
22:55:46.886967,7936
22:55:46.886967,0
22:55:46.886967,36
22:55:46.886967,8448
22:55:46.886967,0
22:55:46.886967,29
22:55:46.886967,7936
22:55:46.886967,0
22:55:46.886967,29
22:55:46.886967,6656
22:55:46.886967,0
22:55:46.886967,31
22:55:46.886967,1024
22:55:46.886967,0
22:55:46.886967,-92
22:55:46.886967,-29953
22:55:46.886967,-1
22:55:46.886967,109
22:55:46.886967,5888
22:55:46.886967,2
22:55:46.886967,860
22:55:46.886967,11264
22:55:46.886967,3
22:55:46.886967,404
22:55:46.886967,7936
22:55:46.886967,0
22:55:46.886967,-24
22:55:46.886967,2047
22:55:46.886967,0
22:55:46.886967,-53
22:55:46.886967,-17665
22:55:46.886967,-1
22:55:46.886967,-33
22:55:46.886967,-7169
22:55:46.886967,-1
22:55:46.886967,-31
22:55:46.886967,-4609
22:55:46.886967,-1
22:55:46.886967,-19
22:55:46.886967,-4609
22:55:46.886967,-1
22:55:46.886967,-9
22:55:46.886967,-769
22:55:46.886967,-1
22:55:46.886967,2
22:55:46.886967,4864
22:55:46.886967,0
22:55:46.886967,26
22:55:47.423626,29
22:55:47.423626,12800
22:55:47.423626,0
22:55:47.423626,75
22:55:47.423626,22784
22:55:47.423626,0
22:55:47.423626,118
22:55:47.423626,-27136
22:55:47.423626,0
22:55:47.423626,167
22:55:47.423626,-21504
22:55:47.423626,0
22:55:47.423626,179
22:55:47.423626,-18432
22:55:47.423626,0
22:55:47.423626,172
22:55:47.423626,-32256
22:55:47.423626,0
22:55:47.423626,75
22:55:47.423626,6144
22:55:47.423626,0
22:55:47.423626,-16
22:55:47.423626,-12545
22:55:47.423626,-1
22:55:47.423626,-70
22:55:47.423626,-20225
22:55:47.423626,-1
22:55:47.423626,-82
22:55:47.423626,-20225
22:55:47.423626,-1
22:55:47.423626,-77
22:55:47.423626,-20225
22:55:47.423626,-1
22:55:47.423626,-77
22:55:47.423626,-17665
22:55:47.423626,-1
22:55:47.423626,-65
22:55:47.423626,-17665
22:55:47.423626,-1
22:55:47.423626,-75
22:55:47.423626,-16897
22:55:47.423626,-1
22:55:47.423626,-65
22:55:47.423626,-17665
22:55:47.423626,-1
22:55:47.423626,-75
22:55:47.423626,-20225
22:55:47.423626,-1
22:55:47.423626,-82
22:55:47.423626,-19457
22:55:47.423626,-1
22:55:47.423626,-72
22:55:47.423626,-19457
22:55:47.423626,-1
22:55:47.423626,-80
22:55:47.423626,-20225
22:55:47.423626,-1
22:55:47.423626,-84
22:55:47.423626,-23297
22:55:47.423626,-1
22:55:47.423626,-89
22:55:47.423626,-22529
22:55:47.423626,-1
22:55:47.423626,-94
22:55:47.423626,-18945
22:55:47.423626,-1
22:55:47.423626,-43
22:55:47.423626,-7681
22:55:47.423626,-1
22:55:47.423626,-41
22:55:47.423626,-14593
22:55:47.423626,-1
22:55:47.423626,-67
22:55:47.423626,-15105
22:55:47.423626,-1
22:55:47.423626,-58
22:55:47.423626,-15105
22:55:47.423626,-1
22:55:47.423626,-58
22:55:47.423626,-13313
22:55:47.423626,-1
22:55:47.423626,-58
22:55:47.423626,-15105
22:55:47.423626,-1
22:55:47.423626,-53
22:55:47.423626,-12545
22:55:47.423626,-1
22:55:47.423626,-46
22:55:47.423626,-12033
22:55:47.423626,-1
22:55:47.423626,-84
22:55:47.423626,19967
22:55:47.423626,-1
22:55:47.423626,-232
22:55:47.423626,-14593
22:55:47.423626,-1
22:55:47.423626,344
22:55:47.423626,-16128
22:55:47.423626,2
22:55:47.423626,705
22:55:47.423626,12544
22:55:47.423626,1
22:55:47.423626,-89
22:55:47.423626,32511
22:55:47.423626,-1
22:55:47.423626,-55
22:55:47.423626,-28161
22:55:47.423626,-1
22:55:47.423626,-143
22:55:47.967303,-99
22:55:47.967303,-23297
22:55:47.967303,-1
22:55:47.967303,-101
22:55:47.967303,-19457
22:55:47.967303,-1
22:55:47.967303,-63
22:55:47.967303,-15873
22:55:47.967303,-1
22:55:47.967303,-50
22:55:47.967303,-8193
22:55:47.967303,-1
22:55:47.967303,-19
22:55:47.967303,-257
22:55:47.967303,-1
22:55:47.967303,7
22:55:47.967303,4096
22:55:47.967303,0
22:55:47.967303,38
22:55:47.967303,16128
22:55:47.967303,0
22:55:47.967303,87
22:55:47.967303,29696
22:55:47.967303,0
22:55:47.967303,145
22:55:47.967303,-22272
22:55:47.967303,0
22:55:47.967303,186
22:55:47.967303,-15872
22:55:47.967303,0
22:55:47.967303,186
22:55:47.967303,-22784
22:55:47.967303,0
22:55:47.967303,133
22:55:47.967303,20992
22:55:47.967303,0
22:55:47.967303,26
22:55:47.967303,-5376
22:55:47.967303,-1
22:55:47.967303,-55
22:55:47.967303,-18177
22:55:47.967303,-1
22:55:47.967303,-82
22:55:47.967303,-22017
22:55:47.967303,-1
22:55:47.967303,-82
22:55:47.967303,-18945
22:55:47.967303,-1
22:55:47.967303,-70
22:55:47.967303,-16897
22:55:47.967303,-1
22:55:47.967303,-63
22:55:47.967303,-14593
22:55:47.967303,-1
22:55:47.967303,-53
22:55:47.967303,-13313
22:55:47.967303,-1
22:55:47.967303,-53
22:55:47.967303,-13313
22:55:47.967303,-1
22:55:47.967303,-50
22:55:47.967303,-11521
22:55:47.967303,-1
22:55:47.967303,-41
22:55:47.967303,-10241
22:55:47.967303,-1
22:55:47.967303,-41
22:55:47.967303,-10241
22:55:47.967303,-1
22:55:47.967303,-38
22:55:47.967303,-9473
22:55:47.967303,-1
22:55:47.967303,-33
22:55:47.967303,-8961
22:55:47.967303,-1
22:55:47.967303,-41
22:55:47.967303,-9473
22:55:47.967303,-1
22:55:47.967303,-31
22:55:47.967303,-8193
22:55:47.967303,-1
22:55:47.967303,-31
22:55:47.967303,-769
22:55:47.967303,-1
22:55:47.967303,19
22:55:47.967303,4096
22:55:47.967303,0
22:55:47.967303,2
22:55:47.967303,-1024
22:55:47.967303,-1
22:55:47.967303,-4
22:55:47.967303,255
22:55:47.967303,0
22:55:47.967303,0
22:55:47.967303,0
22:55:47.967303,0
22:55:47.967303,4
22:55:47.967303,1024
22:55:47.967303,0
22:55:47.967303,7
22:55:47.967303,3072
22:55:47.967303,0
22:55:47.967303,16
22:55:47.967303,4096
22:55:47.967303,0
22:55:47.967303,16
22:55:47.967303,2304
22:55:47.967303,0
22:55:47.967303,-50
22:55:48.589333,-138
22:55:48.589333,-22017
22:55:48.589333,-1
22:55:48.589333,215
22:55:48.589333,31488
22:55:48.589333,2
22:55:48.589333,897
22:55:48.589333,768
22:55:48.589333,3
22:55:48.589333,346
22:55:48.589333,8448
22:55:48.589333,0
22:55:48.589333,-2
22:55:48.589333,-1537
22:55:48.589333,-1
22:55:48.589333,-63
22:55:48.589333,-13825
22:55:48.589333,-1
22:55:48.589333,-29
22:55:48.589333,-9473
22:55:48.589333,-1
22:55:48.589333,-41
22:55:48.589333,-5889
22:55:48.589333,-1
22:55:48.589333,-19
22:55:48.589333,-3841
22:55:48.589333,-1
22:55:48.589333,-7
22:55:48.589333,-257
22:55:48.589333,-1
22:55:48.589333,4
22:55:48.589333,3584
22:55:48.589333,0
22:55:48.589333,21
22:55:48.589333,7936
22:55:48.589333,0
22:55:48.589333,48
22:55:48.589333,18432
22:55:48.589333,0
22:55:48.589333,99
22:55:48.589333,32256
22:55:48.589333,0
22:55:48.589333,150
22:55:48.589333,-22784
22:55:48.589333,0
22:55:48.589333,174
22:55:48.589333,-20224
22:55:48.589333,0
22:55:48.589333,169
22:55:48.589333,-27904
22:55:48.589333,0
22:55:48.589333,104
22:55:48.589333,12288
22:55:48.589333,0
22:55:48.589333,0
22:55:48.589333,-8448
22:55:48.589333,-1
22:55:48.589333,-50
22:55:48.589333,-15873
22:55:48.589333,-1
22:55:48.589333,-67
22:55:48.589333,-16897
22:55:48.589333,-1
22:55:48.589333,-63
22:55:48.589333,-14593
22:55:48.589333,-1
22:55:48.589333,-55
22:55:48.589333,-12545
22:55:48.589333,-1
22:55:48.589333,-48
22:55:48.589333,-12545
22:55:48.589333,-1
22:55:48.589333,-48
22:55:48.589333,-12033
22:55:48.589333,-1
22:55:48.589333,-50
22:55:48.589333,-11521
22:55:48.589333,-1
22:55:48.589333,-38
22:55:48.589333,-10241
22:55:48.589333,-1
22:55:48.589333,-41
22:55:48.589333,-9473
22:55:48.589333,-1
22:55:48.589333,-36
22:55:48.589333,-8193
22:55:48.589333,-1
22:55:48.589333,-31
22:55:48.589333,-7169
22:55:48.589333,-1
22:55:48.589333,-31
22:55:48.589333,-10241
22:55:48.589333,-1
22:55:48.589333,-53
22:55:48.589333,-12545
22:55:48.589333,-1
22:55:48.589333,-41
22:55:48.589333,-10753
22:55:48.589333,-1
22:55:48.589333,-38
22:55:48.589333,-1537
22:55:48.589333,-1
22:55:48.589333,16
22:55:48.589333,1024
22:55:48.589333,0
22:55:48.589333,-12
22:55:48.589333,-3841
22:55:48.589333,-1
22:55:48.589333,-19
22:55:49.131494,-16
22:55:49.131494,-3329
22:55:49.131494,-1
22:55:49.131494,-12
22:55:49.131494,-2049
22:55:49.131494,-1
22:55:49.131494,-7
22:55:49.131494,-1537
22:55:49.131494,-1
22:55:49.131494,-9
22:55:49.131494,-2049
22:55:49.131494,-1
22:55:49.131494,-7
22:55:49.131494,-257
22:55:49.131494,-1
22:55:49.131494,-4
22:55:49.131494,-12033
22:55:49.131494,-1
22:55:49.131494,-138
22:55:49.131494,32511
22:55:49.131494,-1
22:55:49.131494,121
22:55:49.131494,5376
22:55:49.131494,2
22:55:49.131494,841
22:55:49.131494,7424
22:55:49.131494,3
22:55:49.131494,400
22:55:49.131494,6144
22:55:49.131494,0
22:55:49.131494,-43
22:55:49.131494,-4609
22:55:49.131494,-1
22:55:49.131494,-77
22:55:49.131494,-22529
22:55:49.131494,-1
22:55:49.131494,-55
22:55:49.131494,-15105
22:55:49.131494,-1
22:55:49.131494,-72
22:55:49.131494,-15105
22:55:49.131494,-1
22:55:49.131494,-50
22:55:49.131494,-12545
22:55:49.131494,-1
22:55:49.131494,-41
22:55:49.131494,-7681
22:55:49.131494,-1
22:55:49.131494,-24
22:55:49.131494,-3329
22:55:49.131494,-1
22:55:49.131494,0
22:55:49.131494,3072
22:55:49.131494,0
22:55:49.131494,26
22:55:49.131494,11776
22:55:49.131494,0
22:55:49.131494,72
22:55:49.131494,25856
22:55:49.131494,0
22:55:49.131494,128
22:55:49.131494,-27904
22:55:49.131494,0
22:55:49.131494,162
22:55:49.131494,-22272
22:55:49.131494,0
22:55:49.131494,162
22:55:49.131494,-28928
22:55:49.131494,0
22:55:49.131494,106
22:55:49.131494,14080
22:55:49.131494,0
22:55:49.131494,4
22:55:49.131494,-9216
22:55:49.131494,-1
22:55:49.131494,-67
22:55:49.131494,-21249
22:55:49.131494,-1
22:55:49.131494,-89
22:55:49.131494,-21249
22:55:49.131494,-1
22:55:49.131494,-82
22:55:49.131494,-20225
22:55:49.131494,-1
22:55:49.131494,-72
22:55:49.131494,-17665
22:55:49.131494,-1
22:55:49.131494,-67
22:55:49.131494,-16897
22:55:49.131494,-1
22:55:49.131494,-63
22:55:49.131494,-14593
22:55:49.131494,-1
22:55:49.131494,-55
22:55:49.131494,-13825
22:55:49.131494,-1
22:55:49.131494,-55
22:55:49.131494,-12033
22:55:49.131494,-1
22:55:49.131494,-46
22:55:49.131494,-12033
22:55:49.131494,-1
22:55:49.131494,-50
22:55:49.131494,-10753
22:55:49.131494,-1
22:55:49.131494,-43
22:55:49.131494,-10753
22:55:49.131494,-1
22:55:49.131494,-38
22:55:49.670905,-31
22:55:49.670905,-7681
22:55:49.670905,-1
22:55:49.670905,-31
22:55:49.670905,-7681
22:55:49.670905,-1
22:55:49.670905,-36
22:55:49.670905,-9473
22:55:49.670905,-1
22:55:49.670905,-31
22:55:49.670905,-6401
22:55:49.670905,-1
22:55:49.670905,-19
22:55:49.670905,2559
22:55:49.670905,0
22:55:49.670905,38
22:55:49.670905,10496
22:55:49.670905,0
22:55:49.670905,24
22:55:49.670905,1792
22:55:49.670905,0
22:55:49.670905,7
22:55:49.670905,4096
22:55:49.670905,0
22:55:49.670905,21
22:55:49.670905,3584
22:55:49.670905,0
22:55:49.670905,14
22:55:49.670905,4096
22:55:49.670905,0
22:55:49.670905,12
22:55:49.670905,1792
22:55:49.670905,0
22:55:49.670905,19
22:55:49.670905,6144
22:55:49.670905,0
22:55:49.670905,19
22:55:49.670905,3584
22:55:49.670905,0
22:55:49.670905,-29
22:55:49.670905,-32001
22:55:49.670905,-1
22:55:49.670905,-109
22:55:49.670905,-22529
22:55:49.670905,0
22:55:49.670905,589
22:55:49.670905,23552
22:55:49.670905,3
22:55:49.670905,739
22:55:49.670905,13824
22:55:49.670905,1
22:55:49.670905,-16
22:55:49.670905,-8961
22:55:49.670905,-1
22:55:49.670905,-14
22:55:49.670905,-18945
22:55:49.670905,-1
22:55:49.670905,-77
22:55:49.670905,-10241
22:55:49.670905,-1
22:55:49.670905,-43
22:55:49.670905,-12545
22:55:49.670905,-1
22:55:49.670905,-38
22:55:49.670905,-8193
22:55:49.670905,-1
22:55:49.670905,-31
22:55:49.670905,-5889
22:55:49.670905,-1
22:55:49.670905,-19
22:55:49.670905,-3841
22:55:49.670905,-1
22:55:49.670905,-4
22:55:49.670905,3839
22:55:49.670905,0
22:55:49.670905,21
22:55:49.670905,7936
22:55:49.670905,0
22:55:49.670905,50
22:55:49.670905,17920
22:55:49.670905,0
22:55:49.670905,101
22:55:49.670905,-30976
22:55:49.670905,0
22:55:49.670905,157
22:55:49.670905,-21504
22:55:49.670905,0
22:55:49.670905,174
22:55:49.670905,-22784
22:55:49.670905,0
22:55:49.670905,145
22:55:49.670905,27136
22:55:49.670905,0
22:55:49.670905,50
22:55:49.670905,512
22:55:49.670905,0
22:55:49.670905,-31
22:55:49.670905,-16385
22:55:49.670905,-1
22:55:49.670905,-92
22:55:49.670905,-25089
22:55:49.670905,-1
22:55:49.670905,-101
22:55:49.670905,-28161
22:55:49.670905,-1
22:55:49.670905,-109
22:55:49.670905,-26369
22:55:49.670905,-1
22:55:49.670905,-99
22:55:50.258802,-89
22:55:50.258802,-22017
22:55:50.258802,-1
22:55:50.258802,-89
22:55:50.258802,-23809
22:55:50.258802,-1
22:55:50.258802,-92
22:55:50.258802,-21249
22:55:50.258802,-1
22:55:50.258802,-82
22:55:50.258802,-20737
22:55:50.258802,-1
22:55:50.258802,-72
22:55:50.258802,-16897
22:55:50.258802,-1
22:55:50.258802,-72
22:55:50.258802,-16897
22:55:50.258802,-1
22:55:50.258802,-65
22:55:50.258802,-16897
22:55:50.258802,-1
22:55:50.258802,-67
22:55:50.258802,-16897
22:55:50.258802,-1
22:55:50.258802,-63
22:55:50.258802,-16385
22:55:50.258802,-1
22:55:50.258802,-75
22:55:50.258802,-18945
22:55:50.258802,-1
22:55:50.258802,-70
22:55:50.258802,-18945
22:55:50.258802,-1
22:55:50.258802,-77
22:55:50.258802,-12545
22:55:50.258802,-1
22:55:50.258802,-21
22:55:50.258802,-5889
22:55:50.258802,-1
22:55:50.258802,-36
22:55:50.258802,-12033
22:55:50.258802,-1
22:55:50.258802,-53
22:55:50.258802,-11521
22:55:50.258802,-1
22:55:50.258802,-41
22:55:50.258802,-9473
22:55:50.258802,-1
22:55:50.258802,-41
22:55:50.258802,-10241
22:55:50.258802,-1
22:55:50.258802,-36
22:55:50.258802,-8961
22:55:50.258802,-1
22:55:50.258802,-41
22:55:50.258802,-8193
22:55:50.258802,-1
22:55:50.258802,-26
22:55:50.258802,-7169
22:55:50.258802,-1
22:55:50.258802,-55
22:55:50.258802,-32001
22:55:50.258802,-1
22:55:50.258802,-174
22:55:50.258802,-4609
22:55:50.258802,-1
22:55:50.258802,368
22:55:50.258802,-8704
22:55:50.258802,2
22:55:50.258802,751
22:55:50.258802,29440
22:55:50.258802,1
22:55:50.258802,-29
22:55:50.258802,-22529
22:55:50.258802,-1
22:55:50.258802,-9
22:55:50.258802,-13825
22:55:50.258802,-1
22:55:50.258802,-87
22:55:50.258802,-10241
22:55:50.258802,-1
22:55:50.258802,-29
22:55:50.258802,-10241
22:55:50.258802,-1
22:55:50.258802,-24
22:55:50.258802,-1537
22:55:50.258802,-1
22:55:50.258802,-7
22:55:50.258802,1279
22:55:50.258802,0
22:55:50.258802,19
22:55:50.258802,6144
22:55:50.258802,0
22:55:50.258802,33
22:55:50.258802,12800
22:55:50.258802,0
22:55:50.258802,67
22:55:50.258802,21504
22:55:50.258802,0
22:55:50.258802,106
22:55:50.258802,-32256
22:55:50.258802,0
22:55:50.258802,162
22:55:50.258802,-15872
22:55:50.258802,0
22:55:50.258802,218
22:55:50.258802,-5376
22:55:50.258802,0
22:55:50.258802,244
22:55:50.798345,240
22:55:50.798345,-9728
22:55:50.798345,0
22:55:50.798345,186
22:55:50.798345,-30208
22:55:50.798345,0
22:55:50.798345,77
22:55:50.798345,7936
22:55:50.798345,0
22:55:50.798345,0
22:55:50.798345,-6656
22:55:50.798345,-1
22:55:50.798345,-41
22:55:50.798345,-10241
22:55:50.798345,-1
22:55:50.798345,-31
22:55:50.798345,-3329
22:55:50.798345,-1
22:55:50.798345,-4
22:55:50.798345,-257
22:55:50.798345,-1
22:55:50.798345,0
22:55:50.798345,1024
22:55:50.798345,0
22:55:50.798345,7
22:55:50.798345,1792
22:55:50.798345,0
22:55:50.798345,7
22:55:50.798345,2304
22:55:50.798345,0
22:55:50.798345,9
22:55:50.798345,3072
22:55:50.798345,0
22:55:50.798345,14
22:55:50.798345,4864
22:55:50.798345,0
22:55:50.798345,19
22:55:50.798345,4096
22:55:50.798345,0
22:55:50.798345,19
22:55:50.798345,5376
22:55:50.798345,0
22:55:50.798345,24
22:55:50.798345,6144
22:55:50.798345,0
22:55:50.798345,26
22:55:50.798345,7424
22:55:50.798345,0
22:55:50.798345,29
22:55:50.798345,6144
22:55:50.798345,0
22:55:50.798345,19
22:55:50.798345,3072
22:55:50.798345,0
22:55:50.798345,9
22:55:50.798345,3584
22:55:50.798345,0
22:55:50.798345,16
22:55:50.798345,9728
22:55:50.798345,0
22:55:50.798345,67
22:55:50.798345,17920
22:55:50.798345,0
22:55:50.798345,58
22:55:50.798345,12288
22:55:50.798345,0
22:55:50.798345,43
22:55:50.798345,11776
22:55:50.798345,0
22:55:50.798345,50
22:55:50.798345,12288
22:55:50.798345,0
22:55:50.798345,48
22:55:50.798345,12800
22:55:50.798345,0
22:55:50.798345,48
22:55:50.798345,12288
22:55:50.798345,0
22:55:50.798345,53
22:55:50.798345,13568
22:55:50.798345,0
22:55:50.798345,53
22:55:50.798345,12288
22:55:50.798345,0
22:55:50.798345,9
22:55:50.798345,-21504
22:55:50.798345,-1
22:55:50.798345,-104
22:55:50.798345,31231
22:55:50.798345,0
22:55:50.798345,528
22:55:50.798345,26112
22:55:50.798345,3
22:55:50.798345,923
22:55:50.798345,20992
22:55:50.798345,2
22:55:50.798345,150
22:55:50.798345,-3584
22:55:50.798345,-1
22:55:50.798345,9
22:55:50.798345,-7424
22:55:50.798345,-1
22:55:50.798345,-55
22:55:50.798345,-5889
22:55:50.798345,-1
22:55:50.798345,-16
22:55:50.798345,-6401
22:55:50.798345,-1
22:55:50.798345,-12
22:55:51.336288,0
22:55:51.336288,0
22:55:51.336288,0
22:55:51.336288,12
22:55:51.336288,5376
22:55:51.336288,0
22:55:51.336288,26
22:55:51.336288,9216
22:55:51.336288,0
22:55:51.336288,48
22:55:51.336288,16128
22:55:51.336288,0
22:55:51.336288,84
22:55:51.336288,27904
22:55:51.336288,0
22:55:51.336288,126
22:55:51.336288,-28416
22:55:51.336288,0
22:55:51.336288,174
22:55:51.336288,-14848
22:55:51.336288,0
22:55:51.336288,215
22:55:51.336288,-8448
22:55:51.336288,0
22:55:51.336288,220
22:55:51.336288,-14080
22:55:51.336288,0
22:55:51.336288,169
22:55:51.336288,30976
22:55:51.336288,0
22:55:51.336288,72
22:55:51.336288,8448
22:55:51.336288,0
22:55:51.336288,7
22:55:51.336288,-2304
22:55:51.336288,-1
22:55:51.336288,-16
22:55:51.336288,-3841
22:55:51.336288,-1
22:55:51.336288,-16
22:55:51.336288,-2817
22:55:51.336288,-1
22:55:51.336288,-9
22:55:51.336288,-2049
22:55:51.336288,-1
22:55:51.336288,-7
22:55:51.336288,-257
22:55:51.336288,-1
22:55:51.336288,0
22:55:51.336288,512
22:55:51.336288,0
22:55:51.336288,4
22:55:51.336288,1024
22:55:51.336288,0
22:55:51.336288,2
22:55:51.336288,1024
22:55:51.336288,0
22:55:51.336288,7
22:55:51.336288,1792
22:55:51.336288,0
22:55:51.336288,7
22:55:51.336288,1792
22:55:51.336288,0
22:55:51.336288,7
22:55:51.336288,2304
22:55:51.336288,0
22:55:51.336288,12
22:55:51.336288,3584
22:55:51.336288,0
22:55:51.336288,16
22:55:51.336288,5376
22:55:51.336288,0
22:55:51.336288,19
22:55:51.336288,3584
22:55:51.336288,0
22:55:51.336288,4
22:55:51.336288,512
22:55:51.336288,0
22:55:51.336288,7
22:55:51.336288,3072
22:55:51.336288,0
22:55:51.336288,21
22:55:51.336288,12800
22:55:51.336288,0
22:55:51.336288,70
22:55:51.336288,15360
22:55:51.336288,0
22:55:51.336288,48
22:55:51.336288,10496
22:55:51.336288,0
22:55:51.336288,41
22:55:51.336288,12288
22:55:51.336288,0
22:55:51.336288,50
22:55:51.336288,12288
22:55:51.336288,0
22:55:51.336288,48
22:55:51.336288,12800
22:55:51.336288,0
22:55:51.336288,53
22:55:51.336288,14080
22:55:51.336288,0
22:55:51.336288,53
22:55:51.336288,14080
22:55:51.336288,0
22:55:51.336288,58
22:55:51.336288,13568
22:55:51.336288,0
22:55:51.336288,2
22:55:51.924787,-87
22:55:51.924787,-14593
22:55:51.924787,-1
22:55:51.924787,227
22:55:51.924787,-30976
22:55:51.924787,2
22:55:51.924787,931
22:55:51.924787,22528
22:55:51.924787,3
22:55:51.924787,443
22:55:51.924787,19200
22:55:51.924787,0
22:55:51.924787,24
22:55:51.924787,12800
22:55:51.924787,0
22:55:51.924787,-7
22:55:51.924787,-2049
22:55:51.924787,-1
22:55:51.924787,24
22:55:51.924787,4864
22:55:51.924787,0
22:55:51.924787,16
22:55:51.924787,9216
22:55:51.924787,0
22:55:51.924787,46
22:55:51.924787,12288
22:55:51.924787,0
22:55:51.924787,53
22:55:51.924787,15360
22:55:51.924787,0
22:55:51.924787,65
22:55:51.924787,19200
22:55:51.924787,0
22:55:51.924787,87
22:55:51.924787,25856
22:55:51.924787,0
22:55:51.924787,116
22:55:51.924787,-30208
22:55:51.924787,0
22:55:51.924787,164
22:55:51.924787,-15872
22:55:51.924787,0
22:55:51.924787,223
22:55:51.924787,-2304
22:55:51.924787,0
22:55:51.924787,264
22:55:51.924787,3328
22:55:51.924787,1
22:55:51.924787,264
22:55:51.924787,-2304
22:55:51.924787,0
22:55:51.924787,210
22:55:51.924787,-24064
22:55:51.924787,0
22:55:51.924787,113
22:55:51.924787,20480
22:55:51.924787,0
22:55:51.924787,55
22:55:51.924787,9728
22:55:51.924787,0
22:55:51.924787,31
22:55:51.924787,7936
22:55:51.924787,0
22:55:51.924787,33
22:55:51.924787,9728
22:55:51.924787,0
22:55:51.924787,43
22:55:51.924787,12800
22:55:51.924787,0
22:55:51.924787,55
22:55:51.924787,14080
22:55:51.924787,0
22:55:51.924787,55
22:55:51.924787,15360
22:55:51.924787,0
22:55:51.924787,63
22:55:51.924787,16128
22:55:51.924787,0
22:55:51.924787,65
22:55:51.924787,16640
22:55:51.924787,0
22:55:51.924787,63
22:55:51.924787,14848
22:55:51.924787,0
22:55:51.924787,48
22:55:51.924787,9216
22:55:51.924787,0
22:55:51.924787,33
22:55:51.924787,9728
22:55:51.924787,0
22:55:51.924787,41
22:55:51.924787,11008
22:55:51.924787,0
22:55:51.924787,46
22:55:51.924787,12800
22:55:51.924787,0
22:55:51.924787,53
22:55:51.924787,13568
22:55:51.924787,0
22:55:51.924787,48
22:55:51.924787,9216
22:55:51.924787,0
22:55:51.924787,29
22:55:51.924787,9216
22:55:51.924787,0
22:55:51.924787,43
22:55:51.924787,12288
22:55:51.924787,0
22:55:51.924787,67
22:55:52.508267,87
22:55:52.508267,21504
22:55:52.508267,0
22:55:52.508267,75
22:55:52.508267,16640
22:55:52.508267,0
22:55:52.508267,58
22:55:52.508267,15360
22:55:52.508267,0
22:55:52.508267,63
22:55:52.508267,15360
22:55:52.508267,0
22:55:52.508267,67
22:55:52.508267,19200
22:55:52.508267,0
22:55:52.508267,67
22:55:52.508267,15360
22:55:52.508267,0
22:55:52.508267,63
22:55:52.508267,16128
22:55:52.508267,0
22:55:52.508267,60
22:55:52.508267,13568
22:55:52.508267,0
22:55:52.508267,2
22:55:52.508267,-23552
22:55:52.508267,-1
22:55:52.508267,-72
22:55:52.508267,-12545
22:55:52.508267,0
22:55:52.508267,628
22:55:52.508267,-32512
22:55:52.508267,3
22:55:52.508267,780
22:55:52.508267,24320
22:55:52.508267,1
22:55:52.508267,12
22:55:52.508267,-4864
22:55:52.508267,-1
22:55:52.508267,2
22:55:52.508267,-14080
22:55:52.508267,-1
22:55:52.508267,-58
22:55:52.508267,-6401
22:55:52.508267,-1
22:55:52.508267,-38
22:55:52.508267,-10241
22:55:52.508267,-1
22:55:52.508267,-24
22:55:52.508267,-5121
22:55:52.508267,-1
22:55:52.508267,-24
22:55:52.508267,-5889
22:55:52.508267,-1
22:55:52.508267,-19
22:55:52.508267,-2049
22:55:52.508267,-1
22:55:52.508267,2
22:55:52.508267,1792
22:55:52.508267,0
22:55:52.508267,14
22:55:52.508267,7936
22:55:52.508267,0
22:55:52.508267,53
22:55:52.508267,20480
22:55:52.508267,0
22:55:52.508267,106
22:55:52.508267,-32256
22:55:52.508267,0
22:55:52.508267,155
22:55:52.508267,-21504
22:55:52.508267,0
22:55:52.508267,177
22:55:52.508267,-22272
22:55:52.508267,0
22:55:52.508267,147
22:55:52.508267,28928
22:55:52.508267,0
22:55:52.508267,58
22:55:52.508267,512
22:55:52.508267,0
22:55:52.508267,-33
22:55:52.508267,-14593
22:55:52.508267,-1
22:55:52.508267,-75
22:55:52.508267,-20737
22:55:52.508267,-1
22:55:52.508267,-87
22:55:52.508267,-23297
22:55:52.508267,-1
22:55:52.508267,-92
22:55:52.508267,-20225
22:55:52.508267,-1
22:55:52.508267,-70
22:55:52.508267,-17665
22:55:52.508267,-1
22:55:52.508267,-75
22:55:52.508267,-18177
22:55:52.508267,-1
22:55:52.508267,-67
22:55:52.508267,-17665
22:55:52.508267,-1
22:55:52.508267,-80
22:55:52.508267,-19457
22:55:52.508267,-1
22:55:52.508267,-67
22:55:52.508267,-17665
22:55:52.508267,-1
22:55:52.508267,-80
22:55:53.046445,-80
22:55:53.046445,-18177
22:55:53.046445,-1
22:55:53.046445,-72
22:55:53.046445,-18177
22:55:53.046445,-1
22:55:53.046445,-72
22:55:53.046445,-18177
22:55:53.046445,-1
22:55:53.046445,-70
22:55:53.046445,-16385
22:55:53.046445,-1
22:55:53.046445,-63
22:55:53.046445,-15873
22:55:53.046445,-1
22:55:53.046445,-63
22:55:53.046445,-16897
22:55:53.046445,-1
22:55:53.046445,-67
22:55:53.046445,-15873
22:55:53.046445,-1
22:55:53.046445,-63
22:55:53.046445,-15105
22:55:53.046445,-1
22:55:53.046445,-38
22:55:53.046445,-5121
22:55:53.046445,-1
22:55:53.046445,-21
22:55:53.046445,-5889
22:55:53.046445,-1
22:55:53.046445,-36
22:55:53.046445,-12545
22:55:53.046445,-1
22:55:53.046445,-46
22:55:53.046445,-8961
22:55:53.046445,-1
22:55:53.046445,-38
22:55:53.046445,-10241
22:55:53.046445,-1
22:55:53.046445,-46
22:55:53.046445,-11521
22:55:53.046445,-1
22:55:53.046445,-43
22:55:53.046445,-10753
22:55:53.046445,-1
22:55:53.046445,-43
22:55:53.046445,-12033
22:55:53.046445,-1
22:55:53.046445,-55
22:55:53.046445,-25601
22:55:53.046445,-1
22:55:53.046445,-189
22:55:53.046445,19455
22:55:53.046445,-1
22:55:53.046445,75
22:55:53.046445,-5888
22:55:53.046445,1
22:55:53.046445,759
22:55:53.046445,30720
22:55:53.046445,2
22:55:53.046445,201
22:55:53.046445,-30208
22:55:53.046445,-1
22:55:53.046445,-116
22:55:53.046445,-18945
22:55:53.046445,-1
22:55:53.046445,-126
22:55:53.046445,-32513
22:55:53.046445,-1
22:55:53.046445,-97
22:55:53.046445,-24577
22:55:53.046445,-1
22:55:53.046445,-94
22:55:53.046445,-20225
22:55:53.046445,-1
22:55:53.046445,-82
22:55:53.046445,-21249
22:55:53.046445,-1
22:55:53.046445,-67
22:55:53.046445,-14593
22:55:53.046445,-1
22:55:53.046445,-63
22:55:53.046445,-15105
22:55:53.046445,-1
22:55:53.046445,-46
22:55:53.046445,-6401
22:55:53.046445,-1
22:55:53.046445,-9
22:55:53.046445,2047
22:55:53.046445,0
22:55:53.046445,33
22:55:53.046445,16640
22:55:53.046445,0
22:55:53.046445,94
22:55:53.046445,30208
22:55:53.046445,0
22:55:53.046445,133
22:55:53.046445,-30208
22:55:53.046445,0
22:55:53.046445,135
22:55:53.046445,30208
22:55:53.046445,0
22:55:53.046445,84
22:55:53.046445,8448
22:55:53.046445,0
22:55:53.046445,-19
22:55:53.046445,-16385
22:55:53.046445,-1
22:55:53.046445,-99
22:55:53.634498,-116
22:55:53.634498,-32001
22:55:53.634498,-1
22:55:53.634498,-128
22:55:53.634498,-32001
22:55:53.634498,-1
22:55:53.634498,-121
22:55:53.634498,-28673
22:55:53.634498,-1
22:55:53.634498,-104
22:55:53.634498,-25601
22:55:53.634498,-1
22:55:53.634498,-97
22:55:53.634498,-20225
22:55:53.634498,-1
22:55:53.634498,-70
22:55:53.634498,-16897
22:55:53.634498,-1
22:55:53.634498,-67
22:55:53.634498,-16385
22:55:53.634498,-1
22:55:53.634498,-58
22:55:53.634498,-13825
22:55:53.634498,-1
22:55:53.634498,-55
22:55:53.634498,-13313
22:55:53.634498,-1
22:55:53.634498,-48
22:55:53.634498,-11521
22:55:53.634498,-1
22:55:53.634498,-46
22:55:53.634498,-10241
22:55:53.634498,-1
22:55:53.634498,-38
22:55:53.634498,-10241
22:55:53.634498,-1
22:55:53.634498,-43
22:55:53.634498,-11521
22:55:53.634498,-1
22:55:53.634498,-48
22:55:53.634498,-12033
22:55:53.634498,-1
22:55:53.634498,-46
22:55:53.634498,-9473
22:55:53.634498,-1
22:55:53.634498,-7
22:55:53.634498,4351
22:55:53.634498,0
22:55:53.634498,4
22:55:53.634498,-3584
22:55:53.634498,-1
22:55:53.634498,-12
22:55:53.634498,-769
22:55:53.634498,-1
22:55:53.634498,-2
22:55:53.634498,-257
22:55:53.634498,-1
22:55:53.634498,0
22:55:53.634498,512
22:55:53.634498,0
22:55:53.634498,2
22:55:53.634498,2304
22:55:53.634498,0
22:55:53.634498,19
22:55:53.634498,4096
22:55:53.634498,0
22:55:53.634498,14
22:55:53.634498,4864
22:55:53.634498,0
22:55:53.634498,14
22:55:53.634498,-9728
22:55:53.634498,-1
22:55:53.634498,-126
22:55:53.634498,-22529
22:55:53.634498,-1
22:55:53.634498,208
22:55:53.634498,29696
22:55:53.634498,2
22:55:53.634498,853
22:55:53.634498,-20992
22:55:53.634498,2
22:55:53.634498,259
22:55:53.634498,-3072
22:55:53.634498,-1
22:55:53.634498,4
22:55:53.634498,4096
22:55:53.634498,0
22:55:53.634498,-48
22:55:53.634498,-10241
22:55:53.634498,-1
22:55:53.634498,-4
22:55:53.634498,-3329
22:55:53.634498,-1
22:55:53.634498,-19
22:55:53.634498,-257
22:55:53.634498,-1
22:55:53.634498,4
22:55:53.634498,1792
22:55:53.634498,0
22:55:53.634498,19
22:55:53.634498,7936
22:55:53.634498,0
22:55:53.634498,31
22:55:53.634498,9728
22:55:53.634498,0
22:55:53.634498,50
22:55:53.634498,14848
22:55:53.634498,0
22:55:53.634498,80
22:55:54.175401,111
22:55:54.175401,-30208
22:55:54.175401,0
22:55:54.175401,167
22:55:54.175401,-15360
22:55:54.175401,0
22:55:54.175401,220
22:55:54.175401,-5376
22:55:54.175401,0
22:55:54.175401,247
22:55:54.175401,-4096
22:55:54.175401,0
22:55:54.175401,220
22:55:54.175401,-12288
22:55:54.175401,0
22:55:54.175401,152
22:55:54.175401,13568
22:55:54.175401,0
22:55:54.175401,14
22:55:54.175401,7424
22:55:54.175401,0
22:55:54.175401,4
22:55:54.175401,-6656
22:55:54.175401,-1
22:55:54.175401,2
22:55:54.175401,5376
22:55:54.175401,0
22:55:54.175401,2
22:55:54.175401,1024
22:55:54.175401,0
22:55:54.175401,12
22:55:54.175401,1792
22:55:54.175401,0
22:55:54.175401,7
22:55:54.175401,3584
22:55:54.175401,0
22:55:54.175401,12
22:55:54.175401,3072
22:55:54.175401,0
22:55:54.175401,48
22:55:54.175401,6656
22:55:54.175401,0
22:55:54.175401,-55
22:55:54.175401,-6401
22:55:54.175401,-1
22:55:54.175401,46
22:55:54.175401,2304
22:55:54.175401,0
22:55:54.175401,-19
22:55:54.175401,2047
22:55:54.175401,0
22:55:54.175401,14
22:55:54.175401,1792
22:55:54.175401,0
22:55:54.175401,7
22:55:54.175401,-512
22:55:54.175401,-1
22:55:54.175401,-7
22:55:54.175401,-2049
22:55:54.175401,-1
22:55:54.175401,-12
22:55:54.175401,3327
22:55:54.175401,0
22:55:54.175401,12
22:55:54.175401,-11008
22:55:54.175401,-1
22:55:54.175401,-48
22:55:54.175401,9983
22:55:54.175401,0
22:55:54.175401,53
22:55:54.175401,-3584
22:55:54.175401,-1
22:55:54.175401,-19
22:55:54.175401,2559
22:55:54.175401,0
22:55:54.175401,-9
22:55:54.175401,-9473
22:55:54.175401,-1
22:55:54.175401,-21
22:55:54.175401,767
22:55:54.175401,0
22:55:54.175401,0
22:55:54.175401,-3072
22:55:54.175401,-1
22:55:54.175401,-4
22:55:54.175401,-769
22:55:54.175401,-1
22:55:54.175401,-60
22:55:54.175401,-23809
22:55:54.175401,-1
22:55:54.175401,-36
22:55:54.175401,-8193
22:55:54.175401,-1
22:55:54.175401,-152
22:55:54.175401,12031
22:55:54.175401,-1
22:55:54.175401,-50
22:55:54.175401,17663
22:55:54.175401,1
22:55:54.175401,722
22:55:54.175401,23040
22:55:54.175401,3
22:55:54.175401,606
22:55:54.175401,-24064
22:55:54.175401,0
22:55:54.175401,-67
22:55:54.175401,-16385
22:55:54.175401,-1
22:55:54.175401,-111
22:55:54.715213,-157
22:55:54.715213,-26369
22:55:54.715213,-1
22:55:54.715213,-84
22:55:54.715213,-24577
22:55:54.715213,-1
22:55:54.715213,-67
22:55:54.715213,-11521
22:55:54.715213,-1
22:55:54.715213,-92
22:55:54.715213,-28673
22:55:54.715213,-1
22:55:54.715213,-31
22:55:54.715213,5631
22:55:54.715213,0
22:55:54.715213,-36
22:55:54.715213,-13825
22:55:54.715213,-1
22:55:54.715213,0
22:55:54.715213,6144
22:55:54.715213,0
22:55:54.715213,43
22:55:54.715213,17920
22:55:54.715213,0
22:55:54.715213,87
22:55:54.715213,32256
22:55:54.715213,0
22:55:54.715213,133
22:55:54.715213,30208
22:55:54.715213,0
22:55:54.715213,152
22:55:54.715213,-17920
22:55:54.715213,0
22:55:54.715213,191
22:55:54.715213,-23552
22:55:54.715213,0
22:55:54.715213,82
22:55:54.715213,5376
22:55:54.715213,0
22:55:54.715213,29
22:55:54.715213,-512
22:55:54.715213,-1
22:55:54.715213,-55
22:55:54.715213,-14593
22:55:54.715213,-1
22:55:54.715213,-82
22:55:54.715213,-27649
22:55:54.715213,-1
22:55:54.715213,-75
22:55:54.715213,-12033
22:55:54.715213,-1
22:55:54.715213,-65
22:55:54.715213,-19457
22:55:54.715213,-1
22:55:54.715213,-43
22:55:54.715213,-8193
22:55:54.715213,-1
22:55:54.715213,-65
22:55:54.715213,-14593
22:55:54.715213,-1
22:55:54.715213,-67
22:55:54.715213,-24577
22:55:54.715213,-1
22:55:54.715213,-53
22:55:54.715213,-7169
22:55:54.715213,-1
22:55:54.715213,-60
22:55:54.715213,-12545
22:55:54.715213,-1
22:55:54.715213,-21
22:55:54.715213,-1537
22:55:54.715213,-1
22:55:54.715213,-31
22:55:54.715213,-25601
22:55:54.715213,-1
22:55:54.715213,-92
22:55:54.715213,-2817
22:55:54.715213,-1
22:55:54.715213,-33
22:55:54.715213,-22529
22:55:54.715213,-1
22:55:54.715213,-70
22:55:54.715213,-13825
22:55:54.715213,-1
22:55:54.715213,-63
22:55:54.715213,-2817
22:55:54.715213,-1
22:55:54.715213,31
22:55:54.715213,-7424
22:55:54.715213,-1
22:55:54.715213,-63
22:55:54.715213,1279
22:55:54.715213,0
22:55:54.715213,-9
22:55:54.715213,-25601
22:55:54.715213,-1
22:55:54.715213,-67
22:55:54.715213,767
22:55:54.715213,0
22:55:54.715213,-43
22:55:54.715213,-18177
22:55:54.715213,-1
22:55:54.715213,-29
22:55:54.715213,-1537
22:55:54.715213,-1
22:55:54.715213,-55
22:55:54.715213,-21249
22:55:54.715213,-1
22:55:54.715213,-12
22:55:55.299743,-19
22:55:55.299743,-30721
22:55:55.299743,-1
22:55:55.299743,-147
22:55:55.299743,26111
22:55:55.299743,-1
22:55:55.299743,-19
22:55:55.299743,-16641
22:55:55.299743,1
22:55:55.299743,865
22:55:55.299743,12544
22:55:55.299743,3
22:55:55.299743,383
22:55:55.299743,-10496
22:55:55.299743,-1
22:55:55.299743,-135
22:55:55.299743,-18177
22:55:55.299743,-1
22:55:55.299743,-113
22:55:55.299743,31743
22:55:55.299743,-1
22:55:55.299743,-77
22:55:55.299743,-15105
22:55:55.299743,-1
22:55:55.299743,-80
22:55:55.299743,-22017
22:55:55.299743,-1
22:55:55.299743,-65
22:55:55.299743,-8961
22:55:55.299743,-1
22:55:55.299743,-36
22:55:55.299743,-10241
22:55:55.299743,-1
22:55:55.299743,-24
22:55:55.299743,-3329
22:55:55.299743,-1
22:55:55.299743,-14
22:55:55.299743,767
22:55:55.299743,0
22:55:55.299743,26
22:55:55.299743,9216
22:55:55.299743,0
22:55:55.299743,53
22:55:55.299743,24064
22:55:55.299743,0
22:55:55.299743,133
22:55:55.299743,-24576
22:55:55.299743,0
22:55:55.299743,179
22:55:55.299743,-19200
22:55:55.299743,0
22:55:55.299743,177
22:55:55.299743,-22272
22:55:55.299743,0
22:55:55.299743,130
22:55:55.299743,16640
22:55:55.299743,0
22:55:55.299743,7
22:55:55.299743,-10496
22:55:55.299743,-1
22:55:55.299743,-82
22:55:55.299743,-26369
22:55:55.299743,-1
22:55:55.299743,-118
22:55:55.299743,31231
22:55:55.299743,-1
22:55:55.299743,-138
22:55:55.299743,32511
22:55:55.299743,-1
22:55:55.299743,-130
22:55:55.299743,-31233
22:55:55.299743,-1
22:55:55.299743,-111
22:55:55.299743,-28161
22:55:55.299743,-1
22:55:55.299743,-111
22:55:55.299743,-25601
22:55:55.299743,-1
22:55:55.299743,-104
22:55:55.299743,-28161
22:55:55.299743,-1
22:55:55.299743,-104
22:55:55.299743,-24577
22:55:55.299743,-1
22:55:55.299743,-99
22:55:55.299743,-25089
22:55:55.299743,-1
22:55:55.299743,-89
22:55:55.299743,-24577
22:55:55.299743,-1
22:55:55.299743,-109
22:55:55.299743,-27649
22:55:55.299743,-1
22:55:55.299743,-101
22:55:55.299743,-25089
22:55:55.299743,-1
22:55:55.299743,-97
22:55:55.299743,-21249
22:55:55.299743,-1
22:55:55.299743,-75
22:55:55.299743,-18177
22:55:55.299743,-1
22:55:55.299743,-77
22:55:55.299743,-22529
22:55:55.299743,-1
22:55:55.299743,-94
22:55:55.299743,-19457
22:55:55.299743,-1
22:55:55.299743,-58
22:55:55.838834,-53
22:55:55.838834,-14593
22:55:55.838834,-1
22:55:55.838834,-65
22:55:55.838834,-17665
22:55:55.838834,-1
22:55:55.838834,-67
22:55:55.838834,-17665
22:55:55.838834,-1
22:55:55.838834,-80
22:55:55.838834,-18177
22:55:55.838834,-1
22:55:55.838834,-67
22:55:55.838834,-22529
22:55:55.838834,-1
22:55:55.838834,-152
22:55:55.838834,5631
22:55:55.838834,-1
22:55:55.838834,-135
22:55:55.838834,4863
22:55:55.838834,1
22:55:55.838834,710
22:55:55.838834,-1792
22:55:55.838834,2
22:55:55.838834,385
22:55:55.838834,-22272
22:55:55.838834,-1
22:55:55.838834,-257
22:55:55.838834,24319
22:55:55.838834,-1
22:55:55.838834,-143
22:55:55.838834,19455
22:55:55.838834,-1
22:55:55.838834,-155
22:55:55.838834,29951
22:55:55.838834,-1
22:55:55.838834,-162
22:55:55.838834,25599
22:55:55.838834,-1
22:55:55.838834,-150
22:55:55.838834,23039
22:55:55.838834,-1
22:55:55.838834,-169
22:55:55.838834,28671
22:55:55.838834,-1
22:55:55.838834,-133
22:55:55.838834,31743
22:55:55.838834,-1
22:55:55.838834,-126
22:55:55.838834,-29953
22:55:55.838834,-1
22:55:55.838834,-113
22:55:55.838834,-20737
22:55:55.838834,-1
22:55:55.838834,-48
22:55:55.838834,-5889
22:55:55.838834,-1
22:55:55.838834,4
22:55:55.838834,7424
22:55:55.838834,0
22:55:55.838834,48
22:55:55.838834,14848
22:55:55.838834,0
22:55:55.838834,46
22:55:55.838834,8448
22:55:55.838834,0
22:55:55.838834,21
22:55:55.838834,-10496
22:55:55.838834,-1
22:55:55.838834,-126
22:55:55.838834,20479
22:55:55.838834,-1
22:55:55.838834,-213
22:55:55.838834,3839
22:55:55.838834,-1
22:55:55.838834,-252
22:55:55.838834,2559
22:55:55.838834,-1
22:55:55.838834,-237
22:55:55.838834,2559
22:55:55.838834,-1
22:55:55.838834,-261
22:55:55.838834,1279
22:55:55.838834,-1
22:55:55.838834,-227
22:55:55.838834,12031
22:55:55.838834,-1
22:55:55.838834,-213
22:55:55.838834,8191
22:55:55.838834,-1
22:55:55.838834,-225
22:55:55.838834,9983
22:55:55.838834,-1
22:55:55.838834,-218
22:55:55.838834,6399
22:55:55.838834,-1
22:55:55.838834,-235
22:55:55.838834,9983
22:55:55.838834,-1
22:55:55.838834,-203
22:55:55.838834,13055
22:55:55.838834,-1
22:55:55.838834,-220
22:55:55.838834,8703
22:55:55.838834,-1
22:55:55.838834,-206
22:55:55.838834,14335
22:55:55.838834,-1
22:55:55.838834,-218
22:55:56.422222,-218
22:55:56.422222,15615
22:55:56.422222,-1
22:55:56.422222,-189
22:55:56.422222,19455
22:55:56.422222,-1
22:55:56.422222,-172
22:55:56.422222,19455
22:55:56.422222,-1
22:55:56.422222,-191
22:55:56.422222,18175
22:55:56.422222,-1
22:55:56.422222,-177
22:55:56.422222,24831
22:55:56.422222,-1
22:55:56.422222,-162
22:55:56.422222,21247
22:55:56.422222,-1
22:55:56.422222,-160
22:55:56.422222,26111
22:55:56.422222,-1
22:55:56.422222,-172
22:55:56.422222,19455
22:55:56.422222,-1
22:55:56.422222,-186
22:55:56.422222,16895
22:55:56.422222,-1
22:55:56.422222,-174
22:55:56.422222,16127
22:55:56.422222,-1
22:55:56.422222,-310
22:55:56.422222,-28417
22:55:56.422222,-2
22:55:56.422222,-126
22:55:56.422222,24063
22:55:56.422222,1
22:55:56.422222,628
22:55:56.422222,-10240
22:55:56.422222,1
22:55:56.422222,58
22:55:56.422222,3072
22:55:56.422222,-1
22:55:56.422222,-237
22:55:56.422222,17407
22:55:56.422222,-1
22:55:56.422222,-257
22:55:56.422222,2047
22:55:56.422222,-1
22:55:56.422222,-177
22:55:56.422222,19455
22:55:56.422222,-1
22:55:56.422222,-215
22:55:56.422222,13823
22:55:56.422222,-1
22:55:56.422222,-174
22:55:56.422222,26879
22:55:56.422222,-1
22:55:56.422222,-145
22:55:56.422222,26879
22:55:56.422222,-1
22:55:56.422222,-157
22:55:56.422222,29951
22:55:56.422222,-1
22:55:56.422222,-113
22:55:56.422222,-26881
22:55:56.422222,-1
22:55:56.422222,-106
22:55:56.422222,-23809
22:55:56.422222,-1
22:55:56.422222,-58
22:55:56.422222,-1537
22:55:56.422222,-1
22:55:56.422222,16
22:55:56.422222,7424
22:55:56.422222,0
22:55:56.422222,50
22:55:56.422222,13568
22:55:56.422222,0
22:55:56.422222,41
22:55:56.422222,6656
22:55:56.422222,0
22:55:56.422222,-21
22:55:56.422222,-22017
22:55:56.422222,-1
22:55:56.422222,-133
22:55:56.422222,20479
22:55:56.422222,-1
22:55:56.422222,-225
22:55:56.422222,2559
22:55:56.422222,-1
22:55:56.422222,-249
22:55:56.422222,2559
22:55:56.422222,-1
22:55:56.422222,-244
22:55:56.422222,5119
22:55:56.422222,-1
22:55:56.422222,-227
22:55:56.422222,8703
22:55:56.422222,-1
22:55:56.422222,-225
22:55:56.422222,9983
22:55:56.422222,-1
22:55:56.422222,-203
22:55:56.422222,16127
22:55:56.422222,-1
22:55:56.422222,-191
22:55:56.422222,18687
22:55:56.422222,-1
22:55:56.422222,-189
22:55:56.965294,-198
22:55:56.965294,18687
22:55:56.965294,-1
22:55:56.965294,-164
22:55:56.965294,22527
22:55:56.965294,-1
22:55:56.965294,-177
22:55:56.965294,21247
22:55:56.965294,-1
22:55:56.965294,-164
22:55:56.965294,24831
22:55:56.965294,-1
22:55:56.965294,-172
22:55:56.965294,18175
22:55:56.965294,-1
22:55:56.965294,-167
22:55:56.965294,28159
22:55:56.965294,-1
22:55:56.965294,-155
22:55:56.965294,26111
22:55:56.965294,-1
22:55:56.965294,-145
22:55:56.965294,28671
22:55:56.965294,-1
22:55:56.965294,-138
22:55:56.965294,32511
22:55:56.965294,-1
22:55:56.965294,-133
22:55:56.965294,-32001
22:55:56.965294,-1
22:55:56.965294,-113
22:55:56.965294,-29441
22:55:56.965294,-1
22:55:56.965294,-111
22:55:56.965294,-24577
22:55:56.965294,-1
22:55:56.965294,-94
22:55:56.965294,-24577
22:55:56.965294,-1
22:55:56.965294,-84
22:55:56.965294,-18177
22:55:56.965294,-1
22:55:56.965294,-65
22:55:56.965294,-18177
22:55:56.965294,-1
22:55:56.965294,-147
22:55:56.965294,6911
22:55:56.965294,-1
22:55:56.965294,-111
22:55:56.965294,9215
22:55:56.965294,1
22:55:56.965294,722
22:55:56.965294,24320
22:55:56.965294,3
22:55:56.965294,599
22:55:56.965294,-28416
22:55:56.965294,0
22:55:56.965294,-67
22:55:56.965294,-4609
22:55:56.965294,-1
22:55:56.965294,-26
22:55:56.965294,-21249
22:55:56.965294,-1
22:55:56.965294,-63
22:55:56.965294,-7681
22:55:56.965294,-1
22:55:56.965294,-36
22:55:56.965294,-7681
22:55:56.965294,-1
22:55:56.965294,-19
22:55:56.965294,-2817
22:55:56.965294,-1
22:55:56.965294,0
22:55:56.965294,3072
22:55:56.965294,0
22:55:56.965294,16
22:55:56.965294,6144
22:55:56.965294,0
22:55:56.965294,43
22:55:56.965294,15360
22:55:56.965294,0
22:55:56.965294,75
22:55:56.965294,24064
22:55:56.965294,0
22:55:56.965294,123
22:55:56.965294,-26624
22:55:56.965294,0
22:55:56.965294,177
22:55:56.965294,-12288
22:55:56.965294,0
22:55:56.965294,232
22:55:56.965294,-3584
22:55:56.965294,0
22:55:56.965294,247
22:55:56.965294,-3072
22:55:56.965294,0
22:55:56.965294,210
22:55:56.965294,-25856
22:55:56.965294,0
22:55:56.965294,104
22:55:56.965294,15360
22:55:56.965294,0
22:55:56.965294,29
22:55:56.965294,3584
22:55:56.965294,0
22:55:56.965294,9
22:55:56.965294,2304
22:55:56.965294,0
22:55:56.965294,12
22:55:57.500998,21
22:55:57.500998,6656
22:55:57.500998,0
22:55:57.500998,33
22:55:57.500998,9728
22:55:57.500998,0
22:55:57.500998,41
22:55:57.500998,11776
22:55:57.500998,0
22:55:57.500998,58
22:55:57.500998,18432
22:55:57.500998,0
22:55:57.500998,84
22:55:57.500998,22784
22:55:57.500998,0
22:55:57.500998,89
22:55:57.500998,24064
22:55:57.500998,0
22:55:57.500998,99
22:55:57.500998,25856
22:55:57.500998,0
22:55:57.500998,104
22:55:57.500998,27904
22:55:57.500998,0
22:55:57.500998,113
22:55:57.500998,30208
22:55:57.500998,0
22:55:57.500998,123
22:55:57.500998,-32768
22:55:57.500998,0
22:55:57.500998,126
22:55:57.500998,30976
22:55:57.500998,0
22:55:57.500998,121
22:55:57.500998,30208
22:55:57.500998,0
22:55:57.500998,106
22:55:57.500998,25344
22:55:57.500998,0
22:55:57.500998,109
22:55:57.500998,28416
22:55:57.500998,0
22:55:57.500998,118
22:55:57.500998,-25856
22:55:57.500998,0
22:55:57.500998,174
22:55:57.500998,-25856
22:55:57.500998,0
22:55:57.500998,143
22:55:57.500998,-28416
22:55:57.500998,0
22:55:57.500998,150
22:55:57.500998,-27136
22:55:57.500998,0
22:55:57.500998,155
22:55:57.500998,-23552
22:55:57.500998,0
22:55:57.500998,169
22:55:57.500998,-22784
22:55:57.500998,0
22:55:57.500998,164
22:55:57.500998,-24576
22:55:57.500998,0
22:55:57.500998,162
22:55:57.500998,-22272
22:55:57.500998,0
22:55:57.500998,169
22:55:57.500998,-24064
22:55:57.500998,0
22:55:57.500998,123
22:55:57.500998,5376
22:55:57.500998,0
22:55:57.500998,-31
22:55:57.500998,-25601
22:55:57.500998,0
22:55:57.500998,577
22:55:57.500998,-4608
22:55:57.500998,3
22:55:57.500998,1183
22:55:57.500998,-25088
22:55:57.500998,3
22:55:57.500998,363
22:55:57.500998,6656
22:55:57.500998,0
22:55:57.500998,48
22:55:57.500998,15360
22:55:57.500998,0
22:55:57.500998,14
22:55:57.500998,10496
22:55:57.500998,0
22:55:57.500998,60
22:55:57.500998,12288
22:55:57.500998,0
22:55:57.500998,53
22:55:57.500998,16640
22:55:57.500998,0
22:55:57.500998,70
22:55:57.500998,20992
22:55:57.500998,0
22:55:57.500998,84
22:55:57.500998,19200
22:55:57.500998,0
22:55:57.500998,92
22:55:57.500998,-32768
22:55:57.500998,0
22:55:57.500998,138
22:55:57.500998,-31488
22:55:57.500998,0
22:55:57.500998,150
22:55:58.086178,174
22:55:58.086178,-13568
22:55:58.086178,0
22:55:58.086178,244
22:55:58.086178,5120
22:55:58.086178,1
22:55:58.086178,283
22:55:58.086178,10752
22:55:58.086178,1
22:55:58.086178,324
22:55:58.086178,15616
22:55:58.086178,1
22:55:58.086178,274
22:55:58.086178,-6656
22:55:58.086178,0
22:55:58.086178,194
22:55:58.086178,-27904
22:55:58.086178,0
22:55:58.086178,109
22:55:58.086178,20480
22:55:58.086178,0
22:55:58.086178,46
22:55:58.086178,7424
22:55:58.086178,0
22:55:58.086178,50
22:55:58.086178,19712
22:55:58.086178,0
22:55:58.086178,63
22:55:58.086178,11776
22:55:58.086178,0
22:55:58.086178,55
22:55:58.086178,16128
22:55:58.086178,0
22:55:58.086178,58
22:55:58.086178,12800
22:55:58.086178,0
22:55:58.086178,55
22:55:58.086178,14080
22:55:58.086178,0
22:55:58.086178,46
22:55:58.086178,16128
22:55:58.086178,0
22:55:58.086178,80
22:55:58.086178,15360
22:55:58.086178,0
22:55:58.086178,55
22:55:58.086178,17920
22:55:58.086178,0
22:55:58.086178,53
22:55:58.086178,9728
22:55:58.086178,0
22:55:58.086178,58
22:55:58.086178,20992
22:55:58.086178,0
22:55:58.086178,87
22:55:58.086178,17152
22:55:58.086178,0
22:55:58.086178,55
22:55:58.086178,18432
22:55:58.086178,0
22:55:58.086178,87
22:55:58.086178,19200
22:55:58.086178,0
22:55:58.086178,60
22:55:58.086178,16640
22:55:58.086178,0
22:55:58.086178,60
22:55:58.086178,13568
22:55:58.086178,0
22:55:58.086178,67
22:55:58.086178,17920
22:55:58.086178,0
22:55:58.086178,58
22:55:58.086178,11008
22:55:58.086178,0
22:55:58.086178,41
22:55:58.086178,12800
22:55:58.086178,0
22:55:58.086178,48
22:55:58.086178,12800
22:55:58.086178,0
22:55:58.086178,65
22:55:58.086178,17920
22:55:58.086178,0
22:55:58.086178,70
22:55:58.086178,19712
22:55:58.086178,0
22:55:58.086178,67
22:55:58.086178,11776
22:55:58.086178,0
22:55:58.086178,48
22:55:58.086178,14080
22:55:58.086178,0
22:55:58.086178,48
22:55:58.086178,11008
22:55:58.086178,0
22:55:58.086178,48
22:55:58.086178,11776
22:55:58.086178,0
22:55:58.086178,41
22:55:58.086178,11776
22:55:58.086178,0
22:55:58.086178,50
22:55:58.086178,14080
22:55:58.086178,0
22:55:58.086178,48
22:55:58.086178,-4096
22:55:58.086178,-1
22:55:58.086178,-109
22:55:58.674158,-38
22:55:58.674158,15871
22:55:58.674158,1
22:55:58.674158,805
22:55:58.674158,18432
22:55:58.674158,4
22:55:58.674158,931
22:55:58.674158,-28672
22:55:58.674158,1
22:55:58.674158,-16
22:55:58.674158,-8193
22:55:58.674158,-1
22:55:58.674158,21
22:55:58.674158,-7936
22:55:58.674158,-1
22:55:58.674158,-33
22:55:58.674158,767
22:55:58.674158,0
22:55:58.674158,-4
22:55:58.674158,-1537
22:55:58.674158,-1
22:55:58.674158,16
22:55:58.674158,6656
22:55:58.674158,0
22:55:58.674158,26
22:55:58.674158,10496
22:55:58.674158,0
22:55:58.674158,48
22:55:58.674158,12800
22:55:58.674158,0
22:55:58.674158,65
22:55:58.674158,19712
22:55:58.674158,0
22:55:58.674158,82
22:55:58.674158,26624
22:55:58.674158,0
22:55:58.674158,130
22:55:58.674158,-25856
22:55:58.674158,0
22:55:58.674158,186
22:55:58.674158,-9216
22:55:58.674158,0
22:55:58.674158,244
22:55:58.674158,768
22:55:58.674158,1
22:55:58.674158,266
22:55:58.674158,1280
22:55:58.674158,1
22:55:58.674158,242
22:55:58.674158,-14080
22:55:58.674158,0
22:55:58.674158,145
22:55:58.674158,22272
22:55:58.674158,0
22:55:58.674158,38
22:55:58.674158,1024
22:55:58.674158,0
22:55:58.674158,-16
22:55:58.674158,-7169
22:55:58.674158,-1
22:55:58.674158,-24
22:55:58.674158,-4609
22:55:58.674158,-1
22:55:58.674158,-21
22:55:58.674158,-5121
22:55:58.674158,-1
22:55:58.674158,-14
22:55:58.674158,-2817
22:55:58.674158,-1
22:55:58.674158,-12
22:55:58.674158,-2049
22:55:58.674158,-1
22:55:58.674158,-7
22:55:58.674158,-257
22:55:58.674158,-1
22:55:58.674158,-2
22:55:58.674158,-257
22:55:58.674158,-1
22:55:58.674158,-2
22:55:58.674158,-769
22:55:58.674158,-1
22:55:58.674158,-2
22:55:58.674158,767
22:55:58.674158,0
22:55:58.674158,2
22:55:58.674158,-512
22:55:58.674158,-1
22:55:58.674158,0
22:55:58.674158,512
22:55:58.674158,0
22:55:58.674158,2
22:55:58.674158,1024
22:55:58.674158,0
22:55:58.674158,4
22:55:58.674158,1024
22:55:58.674158,0
22:55:58.674158,4
22:55:58.674158,1024
22:55:58.674158,0
22:55:58.674158,7
22:55:58.674158,1792
22:55:58.674158,0
22:55:58.674158,7
22:55:58.674158,1792
22:55:58.674158,0
22:55:58.674158,7
22:55:58.674158,512
22:55:58.674158,0
22:55:58.674158,-2
22:55:59.259136,-7
22:55:59.259136,-2817
22:55:59.259136,-1
22:55:59.259136,-7
22:55:59.259136,767
22:55:59.259136,0
22:55:59.259136,14
22:55:59.259136,7936
22:55:59.259136,0
22:55:59.259136,41
22:55:59.259136,10496
22:55:59.259136,0
22:55:59.259136,41
22:55:59.259136,7936
22:55:59.259136,0
22:55:59.259136,21
22:55:59.259136,7424
22:55:59.259136,0
22:55:59.259136,38
22:55:59.259136,7936
22:55:59.259136,0
22:55:59.259136,29
22:55:59.259136,7936
22:55:59.259136,0
22:55:59.259136,29
22:55:59.259136,7936
22:55:59.259136,0
22:55:59.259136,33
22:55:59.259136,7424
22:55:59.259136,0
22:55:59.259136,21
22:55:59.259136,4096
22:55:59.259136,0
22:55:59.259136,-31
22:55:59.259136,-32001
22:55:59.259136,-1
22:55:59.259136,-94
22:55:59.259136,-9473
22:55:59.259136,0
22:55:59.259136,700
22:55:59.259136,1024
22:55:59.259136,4
22:55:59.259136,919
22:55:59.259136,-26880
22:55:59.259136,1
22:55:59.259136,-38
22:55:59.259136,-18945
22:55:59.259136,-1
22:55:59.259136,-7
22:55:59.259136,-14593
22:55:59.259136,-1
22:55:59.259136,-58
22:55:59.259136,-3329
22:55:59.259136,-1
22:55:59.259136,-19
22:55:59.259136,-5889
22:55:59.259136,-1
22:55:59.259136,-2
22:55:59.259136,1279
22:55:59.259136,0
22:55:59.259136,4
22:55:59.259136,5376
22:55:59.259136,0
22:55:59.259136,31
22:55:59.259136,9216
22:55:59.259136,0
22:55:59.259136,48
22:55:59.259136,15360
22:55:59.259136,0
22:55:59.259136,72
22:55:59.259136,24064
22:55:59.259136,0
22:55:59.259136,118
22:55:59.259136,-28416
22:55:59.259136,0
22:55:59.259136,179
22:55:59.259136,-11008
22:55:59.259136,0
22:55:59.259136,240
22:55:59.259136,-512
22:55:59.259136,0
22:55:59.259136,261
22:55:59.259136,1280
22:55:59.259136,1
22:55:59.259136,242
22:55:59.259136,-13568
22:55:59.259136,0
22:55:59.259136,150
22:55:59.259136,24064
22:55:59.259136,0
22:55:59.259136,43
22:55:59.259136,1792
22:55:59.259136,0
22:55:59.259136,-16
22:55:59.259136,-6401
22:55:59.259136,-1
22:55:59.259136,-31
22:55:59.259136,-7681
22:55:59.259136,-1
22:55:59.259136,-29
22:55:59.259136,-6401
22:55:59.259136,-1
22:55:59.259136,-21
22:55:59.259136,-3841
22:55:59.259136,-1
22:55:59.259136,-9
22:55:59.259136,-1537
22:55:59.259136,-1
22:55:59.259136,-9
22:55:59.799131,-9
22:55:59.799131,-1537
22:55:59.799131,-1
22:55:59.799131,-4
22:55:59.799131,-257
22:55:59.799131,-1
22:55:59.799131,-4
22:55:59.799131,-2049
22:55:59.799131,-1
22:55:59.799131,-9
22:55:59.799131,-2049
22:55:59.799131,-1
22:55:59.799131,-7
22:55:59.799131,-1537
22:55:59.799131,-1
22:55:59.799131,-12
22:55:59.799131,-2817
22:55:59.799131,-1
22:55:59.799131,-9
22:55:59.799131,-257
22:55:59.799131,-1
22:55:59.799131,7
22:55:59.799131,3584
22:55:59.799131,0
22:55:59.799131,9
22:55:59.799131,2304
22:55:59.799131,0
22:55:59.799131,14
22:55:59.799131,3584
22:55:59.799131,0
22:55:59.799131,16
22:55:59.799131,4864
22:55:59.799131,0
22:55:59.799131,14
22:55:59.799131,1792
22:55:59.799131,0
22:55:59.799131,0
22:55:59.799131,-1024
22:55:59.799131,-1
22:55:59.799131,0
22:55:59.799131,1792
22:55:59.799131,0
22:55:59.799131,14
22:55:59.799131,7424
22:55:59.799131,0
22:55:59.799131,41
22:55:59.799131,10496
22:55:59.799131,0
22:55:59.799131,38
22:55:59.799131,7424
22:55:59.799131,0
22:55:59.799131,14
22:55:59.799131,3072
22:55:59.799131,0
22:55:59.799131,16
22:55:59.799131,3584
22:55:59.799131,0
22:55:59.799131,9
22:55:59.799131,1792
22:55:59.799131,0
22:55:59.799131,9
22:55:59.799131,3072
22:55:59.799131,0
22:55:59.799131,12
22:55:59.799131,3072
22:55:59.799131,0
22:55:59.799131,14
22:55:59.799131,-1024
22:55:59.799131,-1
22:55:59.799131,-84
22:55:59.799131,26879
22:55:59.799131,-1
22:55:59.799131,-12
22:55:59.799131,-32257
22:55:59.799131,1
22:55:59.799131,826
22:55:59.799131,-10240
22:55:59.799131,3
22:55:59.799131,681
22:55:59.799131,-27136
22:55:59.799131,0
22:55:59.799131,-116
22:55:59.799131,-16385
22:55:59.799131,-1
22:55:59.799131,-53
22:55:59.799131,-26369
22:55:59.799131,-1
22:55:59.799131,-75
22:55:59.799131,-11521
22:55:59.799131,-1
22:55:59.799131,-63
22:55:59.799131,-13825
22:55:59.799131,-1
22:55:59.799131,-36
22:55:59.799131,-8961
22:55:59.799131,-1
22:55:59.799131,-33
22:55:59.799131,-3841
22:55:59.799131,-1
22:55:59.799131,-12
22:55:59.799131,-2049
22:55:59.799131,-1
22:55:59.799131,4
22:55:59.799131,5376
22:55:59.799131,0
22:55:59.799131,33
22:55:59.799131,11776
22:55:59.799131,0
22:55:59.799131,70
22:56:00.340208,104
22:56:00.340208,-30976
22:56:00.340208,0
22:56:00.340208,169
22:56:00.340208,-12800
22:56:00.340208,0
22:56:00.340208,220
22:56:00.340208,-11008
22:56:00.340208,0
22:56:00.340208,206
22:56:00.340208,-14080
22:56:00.340208,0
22:56:00.340208,162
22:56:00.340208,20992
22:56:00.340208,0
22:56:00.340208,19
22:56:00.340208,-3072
22:56:00.340208,-1
22:56:00.340208,-24
22:56:00.340208,-9473
22:56:00.340208,-1
22:56:00.340208,-63
22:56:00.340208,-17665
22:56:00.340208,-1
22:56:00.340208,-63
22:56:00.340208,-14593
22:56:00.340208,-1
22:56:00.340208,-58
22:56:00.340208,-13825
22:56:00.340208,-1
22:56:00.340208,-48
22:56:00.340208,-10753
22:56:00.340208,-1
22:56:00.340208,-41
22:56:00.340208,-9473
22:56:00.340208,-1
22:56:00.340208,-36
22:56:00.340208,-8961
22:56:00.340208,-1
22:56:00.340208,-36
22:56:00.340208,-9473
22:56:00.340208,-1
22:56:00.340208,-38
22:56:00.340208,-9473
22:56:00.340208,-1
22:56:00.340208,-46
22:56:00.340208,-13313
22:56:00.340208,-1
22:56:00.340208,-41
22:56:00.340208,-3841
22:56:00.340208,-1
22:56:00.340208,-16
22:56:00.340208,-8193
22:56:00.340208,-1
22:56:00.340208,-36
22:56:00.340208,-5121
22:56:00.340208,-1
22:56:00.340208,-26
22:56:00.340208,-9473
22:56:00.340208,-1
22:56:00.340208,-38
22:56:00.340208,-8193
22:56:00.340208,-1
22:56:00.340208,-31
22:56:00.340208,-7169
22:56:00.340208,-1
22:56:00.340208,-36
22:56:00.340208,-10753
22:56:00.340208,-1
22:56:00.340208,-36
22:56:00.340208,-4609
22:56:00.340208,-1
22:56:00.340208,-2
22:56:00.340208,767
22:56:00.340208,0
22:56:00.340208,12
22:56:00.340208,7424
22:56:00.340208,0
22:56:00.340208,36
22:56:00.340208,3584
22:56:00.340208,0
22:56:00.340208,-2
22:56:00.340208,1279
22:56:00.340208,0
22:56:00.340208,9
22:56:00.340208,1024
22:56:00.340208,0
22:56:00.340208,-2
22:56:00.340208,255
22:56:00.340208,0
22:56:00.340208,0
22:56:00.340208,-512
22:56:00.340208,-1
22:56:00.340208,-2
22:56:00.340208,255
22:56:00.340208,0
22:56:00.340208,-2
22:56:00.340208,-6401
22:56:00.340208,-1
22:56:00.340208,-104
22:56:00.340208,28671
22:56:00.340208,-1
22:56:00.340208,38
22:56:00.340208,-9472
22:56:00.340208,1
22:56:00.340208,890
22:56:00.340208,-14592
22:56:00.340208,3
22:56:00.340208,594
22:56:00.881547,75
22:56:00.881547,-29696
22:56:00.881547,-1
22:56:00.881547,-38
22:56:00.881547,-13313
22:56:00.881547,-1
22:56:00.881547,-106
22:56:00.881547,-16897
22:56:00.881547,-1
22:56:00.881547,-50
22:56:00.881547,-16385
22:56:00.881547,-1
22:56:00.881547,-46
22:56:00.881547,-7169
22:56:00.881547,-1
22:56:00.881547,-24
22:56:00.881547,767
22:56:00.881547,0
22:56:00.881547,16
22:56:00.881547,1024
22:56:00.881547,0
22:56:00.881547,9
22:56:00.881547,6656
22:56:00.881547,0
22:56:00.881547,16
22:56:00.881547,3584
22:56:00.881547,0
22:56:00.881547,50
22:56:00.881547,24064
22:56:00.881547,0
22:56:00.881547,123
22:56:00.881547,-26624
22:56:00.881547,0
22:56:00.881547,189
22:56:00.881547,-10496
22:56:00.881547,0
22:56:00.881547,230
22:56:00.881547,-4864
22:56:00.881547,0
22:56:00.881547,230
22:56:00.881547,-14080
22:56:00.881547,0
22:56:00.881547,160
22:56:00.881547,27136
22:56:00.881547,0
22:56:00.881547,55
22:56:00.881547,6144
22:56:00.881547,0
22:56:00.881547,2
22:56:00.881547,-6144
22:56:00.881547,-1
22:56:00.881547,-43
22:56:00.881547,-12033
22:56:00.881547,-1
22:56:00.881547,-55
22:56:00.881547,-15873
22:56:00.881547,-1
22:56:00.881547,-55
22:56:00.881547,-12033
22:56:00.881547,-1
22:56:00.881547,-46
22:56:00.881547,-6401
22:56:00.881547,-1
22:56:00.881547,-9
22:56:00.881547,-2049
22:56:00.881547,-1
22:56:00.881547,-12
22:56:00.881547,-3329
22:56:00.881547,-1
22:56:00.881547,-12
22:56:00.881547,-2049
22:56:00.881547,-1
22:56:00.881547,-9
22:56:00.881547,-257
22:56:00.881547,-1
22:56:00.881547,7
22:56:00.881547,3072
22:56:00.881547,0
22:56:00.881547,14
22:56:00.881547,3584
22:56:00.881547,0
22:56:00.881547,9
22:56:00.881547,3584
22:56:00.881547,0
22:56:00.881547,26
22:56:00.881547,7936
22:56:00.881547,0
22:56:00.881547,29
22:56:00.881547,8448
22:56:00.881547,0
22:56:00.881547,29
22:56:00.881547,4864
22:56:00.881547,0
22:56:00.881547,16
22:56:00.881547,6144
22:56:00.881547,0
22:56:00.881547,33
22:56:00.881547,11008
22:56:00.881547,0
22:56:00.881547,55
22:56:00.881547,17152
22:56:00.881547,0
22:56:00.881547,80
22:56:00.881547,22784
22:56:00.881547,0
22:56:00.881547,84
22:56:00.881547,17152
22:56:00.881547,0
22:56:00.881547,58
22:56:01.421278,63
22:56:01.421278,19712
22:56:01.421278,0
22:56:01.421278,80
22:56:01.421278,18432
22:56:01.421278,0
22:56:01.421278,75
22:56:01.421278,20480
22:56:01.421278,0
22:56:01.421278,84
22:56:01.421278,22272
22:56:01.421278,0
22:56:01.421278,84
22:56:01.421278,20480
22:56:01.421278,0
22:56:01.421278,53
22:56:01.421278,-7936
22:56:01.421278,-1
22:56:01.421278,-77
22:56:01.421278,28671
22:56:01.421278,0
22:56:01.421278,550
22:56:01.421278,-10240
22:56:01.421278,3
22:56:01.421278,1064
22:56:01.421278,-26624
22:56:01.421278,2
22:56:01.421278,126
22:56:01.421278,-14080
22:56:01.421278,-1
22:56:01.421278,16
22:56:01.421278,0
22:56:01.421278,0
22:56:01.421278,-36
22:56:01.421278,255
22:56:01.421278,0
22:56:01.421278,7
22:56:01.421278,-2304
22:56:01.421278,-1
22:56:01.421278,2
22:56:01.421278,3584
22:56:01.421278,0
22:56:01.421278,9
22:56:01.421278,4864
22:56:01.421278,0
22:56:01.421278,26
22:56:01.421278,6656
22:56:01.421278,0
22:56:01.421278,33
22:56:01.421278,11776
22:56:01.421278,0
22:56:01.421278,60
22:56:01.421278,19712
22:56:01.421278,0
22:56:01.421278,99
22:56:01.421278,32256
22:56:01.421278,0
22:56:01.421278,155
22:56:01.421278,-18432
22:56:01.421278,0
22:56:01.421278,215
22:56:01.421278,-4096
22:56:01.421278,0
22:56:01.421278,249
22:56:01.421278,-2304
22:56:01.421278,0
22:56:01.421278,232
22:56:01.421278,-12800
22:56:01.421278,0
22:56:01.421278,164
22:56:01.421278,27904
22:56:01.421278,0
22:56:01.421278,46
22:56:01.421278,0
22:56:01.421278,0
22:56:01.421278,-31
22:56:01.421278,-11521
22:56:01.421278,-1
22:56:01.421278,-53
22:56:01.421278,-13825
22:56:01.421278,-1
22:56:01.421278,-53
22:56:01.421278,-12545
22:56:01.421278,-1
22:56:01.421278,-50
22:56:01.421278,-12545
22:56:01.421278,-1
22:56:01.421278,-46
22:56:01.421278,-10753
22:56:01.421278,-1
22:56:01.421278,-46
22:56:01.421278,-12545
22:56:01.421278,-1
22:56:01.421278,-46
22:56:01.421278,-10241
22:56:01.421278,-1
22:56:01.421278,-38
22:56:01.421278,-10241
22:56:01.421278,-1
22:56:01.421278,-43
22:56:01.421278,-10753
22:56:01.421278,-1
22:56:01.421278,-41
22:56:01.421278,-8961
22:56:01.421278,-1
22:56:01.421278,-33
22:56:01.421278,-8961
22:56:01.421278,-1
22:56:01.421278,-41
22:56:02.049284,-38
22:56:02.049284,-8961
22:56:02.049284,-1
22:56:02.049284,-38
22:56:02.049284,-7169
22:56:02.049284,-1
22:56:02.049284,-19
22:56:02.049284,-5889
22:56:02.049284,-1
22:56:02.049284,-33
22:56:02.049284,-10241
22:56:02.049284,-1
22:56:02.049284,-36
22:56:02.049284,-5889
22:56:02.049284,-1
22:56:02.049284,-14
22:56:02.049284,-257
22:56:02.049284,-1
22:56:02.049284,0
22:56:02.049284,0
22:56:02.049284,0
22:56:02.049284,-7
22:56:02.049284,-5889
22:56:02.049284,-1
22:56:02.049284,-31
22:56:02.049284,-6401
22:56:02.049284,-1
22:56:02.049284,-24
22:56:02.049284,-7169
22:56:02.049284,-1
22:56:02.049284,-31
22:56:02.049284,-8193
22:56:02.049284,-1
22:56:02.049284,-33
22:56:02.049284,-8193
22:56:02.049284,-1
22:56:02.049284,-36
22:56:02.049284,-9473
22:56:02.049284,-1
22:56:02.049284,-41
22:56:02.049284,-20225
22:56:02.049284,-1
22:56:02.049284,-167
22:56:02.049284,23807
22:56:02.049284,-1
22:56:02.049284,106
22:56:02.049284,18944
22:56:02.049284,2
22:56:02.049284,931
22:56:02.049284,11776
22:56:02.049284,3
22:56:02.049284,281
22:56:02.049284,25856
22:56:02.049284,-1
22:56:02.049284,-155
22:56:02.049284,-16385
22:56:02.049284,-1
22:56:02.049284,-116
22:56:02.049284,-30721
22:56:02.049284,-1
22:56:02.049284,-70
22:56:02.049284,-18945
22:56:02.049284,-1
22:56:02.049284,-84
22:56:02.049284,-16897
22:56:02.049284,-1
22:56:02.049284,-58
22:56:02.049284,-13313
22:56:02.049284,-1
22:56:02.049284,-43
22:56:02.049284,-8961
22:56:02.049284,-1
22:56:02.049284,-31
22:56:02.049284,-4609
22:56:02.049284,-1
22:56:02.049284,-2
22:56:02.049284,2559
22:56:02.049284,0
22:56:02.049284,26
22:56:02.049284,12288
22:56:02.049284,0
22:56:02.049284,75
22:56:02.049284,27136
22:56:02.049284,0
22:56:02.049284,145
22:56:02.049284,-20992
22:56:02.049284,0
22:56:02.049284,191
22:56:02.049284,-14848
22:56:02.049284,0
22:56:02.049284,201
22:56:02.049284,-18432
22:56:02.049284,0
22:56:02.049284,150
22:56:02.049284,25344
22:56:02.049284,0
22:56:02.049284,36
22:56:02.049284,-4864
22:56:02.049284,-1
22:56:02.049284,-55
22:56:02.049284,-20737
22:56:02.049284,-1
22:56:02.049284,-94
22:56:02.049284,-24577
22:56:02.049284,-1
22:56:02.049284,-97
22:56:02.049284,-22529
22:56:02.049284,-1
22:56:02.049284,-84
22:56:02.586151,-82
22:56:02.586151,-18945
22:56:02.586151,-1
22:56:02.586151,-70
22:56:02.586151,-17665
22:56:02.586151,-1
22:56:02.586151,-67
22:56:02.586151,-16385
22:56:02.586151,-1
22:56:02.586151,-60
22:56:02.586151,-14593
22:56:02.586151,-1
22:56:02.586151,-58
22:56:02.586151,-14593
22:56:02.586151,-1
22:56:02.586151,-58
22:56:02.586151,-14593
22:56:02.586151,-1
22:56:02.586151,-48
22:56:02.586151,-8193
22:56:02.586151,-1
22:56:02.586151,-29
22:56:02.586151,-8193
22:56:02.586151,-1
22:56:02.586151,-31
22:56:02.586151,-7169
22:56:02.586151,-1
22:56:02.586151,-26
22:56:02.586151,-7169
22:56:02.586151,-1
22:56:02.586151,-33
22:56:02.586151,-10753
22:56:02.586151,-1
22:56:02.586151,-48
22:56:02.586151,-11521
22:56:02.586151,-1
22:56:02.586151,-38
22:56:02.586151,-7681
22:56:02.586151,-1
22:56:02.586151,-7
22:56:02.586151,3327
22:56:02.586151,0
22:56:02.586151,9
22:56:02.586151,-512
22:56:02.586151,-1
22:56:02.586151,-9
22:56:02.586151,-2049
22:56:02.586151,-1
22:56:02.586151,-7
22:56:02.586151,-769
22:56:02.586151,-1
22:56:02.586151,-4
22:56:02.586151,-769
22:56:02.586151,-1
22:56:02.586151,-2
22:56:02.586151,1279
22:56:02.586151,0
22:56:02.586151,9
22:56:02.586151,2304
22:56:02.586151,0
22:56:02.586151,4
22:56:02.586151,1024
22:56:02.586151,0
22:56:02.586151,2
22:56:02.586151,-7936
22:56:02.586151,-1
22:56:02.586151,-116
22:56:02.586151,29951
22:56:02.586151,-1
22:56:02.586151,94
22:56:02.586151,13568
22:56:02.586151,2
22:56:02.586151,948
22:56:02.586151,-28928
22:56:02.586151,3
22:56:02.586151,436
22:56:02.586151,-12288
22:56:02.586151,-1
22:56:02.586151,-126
22:56:02.586151,-8193
22:56:02.586151,-1
22:56:02.586151,-72
22:56:02.586151,-23809
22:56:02.586151,-1
22:56:02.586151,-43
22:56:02.586151,-10753
22:56:02.586151,-1
22:56:02.586151,-53
22:56:02.586151,-7169
22:56:02.586151,-1
22:56:02.586151,-14
22:56:02.586151,-2817
22:56:02.586151,-1
22:56:02.586151,-4
22:56:02.586151,1279
22:56:02.586151,0
22:56:02.586151,12
22:56:02.586151,6144
22:56:02.586151,0
22:56:02.586151,41
22:56:02.586151,13568
22:56:02.586151,0
22:56:02.586151,67
22:56:02.586151,22784
22:56:02.586151,0
22:56:02.586151,116
22:56:02.586151,-27904
22:56:02.586151,0
22:56:02.586151,181
22:56:03.129044,213
22:56:03.129044,-5376
22:56:03.129044,0
22:56:03.129044,242
22:56:03.129044,-3584
22:56:03.129044,0
22:56:03.129044,230
22:56:03.129044,-15872
22:56:03.129044,0
22:56:03.129044,138
22:56:03.129044,19712
22:56:03.129044,0
22:56:03.129044,24
22:56:03.129044,-2304
22:56:03.129044,-1
22:56:03.129044,-24
22:56:03.129044,-8961
22:56:03.129044,-1
22:56:03.129044,-46
22:56:03.129044,-12033
22:56:03.129044,-1
22:56:03.129044,-46
22:56:03.129044,-10241
22:56:03.129044,-1
22:56:03.129044,-38
22:56:03.129044,-8961
22:56:03.129044,-1
22:56:03.129044,-33
22:56:03.129044,-7169
22:56:03.129044,-1
22:56:03.129044,-24
22:56:03.129044,-5121
22:56:03.129044,-1
22:56:03.129044,-19
22:56:03.129044,-4609
22:56:03.129044,-1
22:56:03.129044,-19
22:56:03.129044,-5121
22:56:03.129044,-1
22:56:03.129044,-21
22:56:03.129044,-4609
22:56:03.129044,-1
22:56:03.129044,-19
22:56:03.129044,-3841
22:56:03.129044,-1
22:56:03.129044,-14
22:56:03.129044,-2817
22:56:03.129044,-1
22:56:03.129044,-12
22:56:03.129044,-2049
22:56:03.129044,-1
22:56:03.129044,-7
22:56:03.129044,-1537
22:56:03.129044,-1
22:56:03.129044,-7
22:56:03.129044,-1537
22:56:03.129044,-1
22:56:03.129044,-7
22:56:03.129044,-2049
22:56:03.129044,-1
22:56:03.129044,-21
22:56:03.129044,-6401
22:56:03.129044,-1
22:56:03.129044,-16
22:56:03.129044,-2817
22:56:03.129044,-1
22:56:03.129044,-2
22:56:03.129044,5631
22:56:03.129044,0
22:56:03.129044,36
22:56:03.129044,6656
22:56:03.129044,0
22:56:03.129044,16
22:56:03.129044,3072
22:56:03.129044,0
22:56:03.129044,14
22:56:03.129044,4096
22:56:03.129044,0
22:56:03.129044,19
22:56:03.129044,4864
22:56:03.129044,0
22:56:03.129044,19
22:56:03.129044,4864
22:56:03.129044,0
22:56:03.129044,16
22:56:03.129044,4096
22:56:03.129044,0
22:56:03.129044,16
22:56:03.129044,4096
22:56:03.129044,0
22:56:03.129044,19
22:56:03.129044,-512
22:56:03.129044,-1
22:56:03.129044,-77
22:56:03.129044,31231
22:56:03.129044,-1
22:56:03.129044,14
22:56:03.129044,-20736
22:56:03.129044,1
22:56:03.129044,877
22:56:03.129044,-7680
22:56:03.129044,3
22:56:03.129044,632
22:56:03.129044,24832
22:56:03.129044,0
22:56:03.129044,-109
22:56:03.129044,-8193
22:56:03.129044,-1
22:56:03.129044,-38
22:56:03.710841,-82
22:56:03.710841,-10753
22:56:03.710841,-1
22:56:03.710841,-24
22:56:03.710841,-10241
22:56:03.710841,-1
22:56:03.710841,-29
22:56:03.710841,-2049
22:56:03.710841,-1
22:56:03.710841,-4
22:56:03.710841,3327
22:56:03.710841,0
22:56:03.710841,33
22:56:03.710841,9728
22:56:03.710841,0
22:56:03.710841,46
22:56:03.710841,16640
22:56:03.710841,0
22:56:03.710841,80
22:56:03.710841,24064
22:56:03.710841,0
22:56:03.710841,113
22:56:03.710841,-30208
22:56:03.710841,0
22:56:03.710841,167
22:56:03.710841,-14848
22:56:03.710841,0
22:56:03.710841,232
22:56:03.710841,768
22:56:03.710841,1
22:56:03.710841,271
22:56:03.710841,4608
22:56:03.710841,1
22:56:03.710841,266
22:56:03.710841,-4096
22:56:03.710841,0
22:56:03.710841,191
22:56:03.710841,-31488
22:56:03.710841,0
22:56:03.710841,77
22:56:03.710841,7936
22:56:03.710841,0
22:56:03.710841,0
22:56:03.710841,-4864
22:56:03.710841,-1
22:56:03.710841,-29
22:56:03.710841,-7681
22:56:03.710841,-1
22:56:03.710841,-31
22:56:03.710841,-7169
22:56:03.710841,-1
22:56:03.710841,-24
22:56:03.710841,-4609
22:56:03.710841,-1
22:56:03.710841,-14
22:56:03.710841,-2817
22:56:03.710841,-1
22:56:03.710841,-12
22:56:03.710841,-2817
22:56:03.710841,-1
22:56:03.710841,-7
22:56:03.710841,-257
22:56:03.710841,-1
22:56:03.710841,0
22:56:03.710841,0
22:56:03.710841,0
22:56:03.710841,2
22:56:03.710841,512
22:56:03.710841,0
22:56:03.710841,2
22:56:03.710841,512
22:56:03.710841,0
22:56:03.710841,2
22:56:03.710841,512
22:56:03.710841,0
22:56:03.710841,2
22:56:03.710841,512
22:56:03.710841,0
22:56:03.710841,7
22:56:03.710841,2304
22:56:03.710841,0
22:56:03.710841,9
22:56:03.710841,3072
22:56:03.710841,0
22:56:03.710841,12
22:56:03.710841,2304
22:56:03.710841,0
22:56:03.710841,7
22:56:03.710841,-512
22:56:03.710841,-1
22:56:03.710841,-4
22:56:03.710841,-257
22:56:03.710841,-1
22:56:03.710841,-2
22:56:03.710841,2559
22:56:03.710841,0
22:56:03.710841,31
22:56:03.710841,11008
22:56:03.710841,0
22:56:03.710841,43
22:56:03.710841,7936
22:56:03.710841,0
22:56:03.710841,19
22:56:03.710841,6144
22:56:03.710841,0
22:56:03.710841,29
22:56:03.710841,7424
22:56:03.710841,0
22:56:03.710841,29
22:56:04.256328,29
22:56:04.256328,7424
22:56:04.256328,0
22:56:04.256328,29
22:56:04.256328,7424
22:56:04.256328,0
22:56:04.256328,29
22:56:04.256328,7936
22:56:04.256328,0
22:56:04.256328,29
22:56:04.256328,2304
22:56:04.256328,0
22:56:04.256328,-63
22:56:04.256328,-29441
22:56:04.256328,-1
22:56:04.256328,55
22:56:04.256328,-5120
22:56:04.256328,1
22:56:04.256328,931
22:56:04.256328,1536
22:56:04.256328,4
22:56:04.256328,642
22:56:04.256328,25344
22:56:04.256328,0
22:56:04.256328,-94
22:56:04.256328,-2049
22:56:04.256328,-1
22:56:04.256328,-16
22:56:04.256328,-16385
22:56:04.256328,-1
22:56:04.256328,-26
22:56:04.256328,-1537
22:56:04.256328,-1
22:56:04.256328,-24
22:56:04.256328,-2817
22:56:04.256328,-1
22:56:04.256328,4
22:56:04.256328,1024
22:56:04.256328,0
22:56:04.256328,9
22:56:04.256328,5376
22:56:04.256328,0
22:56:04.256328,33
22:56:04.256328,10496
22:56:04.256328,0
22:56:04.256328,53
22:56:04.256328,17920
22:56:04.256328,0
22:56:04.256328,89
22:56:04.256328,28416
22:56:04.256328,0
22:56:04.256328,140
22:56:04.256328,-21504
22:56:04.256328,0
22:56:04.256328,198
22:56:04.256328,-7936
22:56:04.256328,0
22:56:04.256328,252
22:56:04.256328,2560
22:56:04.256328,1
22:56:04.256328,266
22:56:04.256328,256
22:56:04.256328,1
22:56:04.256328,232
22:56:04.256328,-19200
22:56:04.256328,0
22:56:04.256328,121
22:56:04.256328,17152
22:56:04.256328,0
22:56:04.256328,24
22:56:04.256328,-3072
22:56:04.256328,-1
22:56:04.256328,-33
22:56:04.256328,-10241
22:56:04.256328,-1
22:56:04.256328,-43
22:56:04.256328,-10753
22:56:04.256328,-1
22:56:04.256328,-38
22:56:04.256328,-8961
22:56:04.256328,-1
22:56:04.256328,-31
22:56:04.256328,-7169
22:56:04.256328,-1
22:56:04.256328,-26
22:56:04.256328,-5889
22:56:04.256328,-1
22:56:04.256328,-19
22:56:04.256328,-2817
22:56:04.256328,-1
22:56:04.256328,-14
22:56:04.256328,-5121
22:56:04.256328,-1
22:56:04.256328,-16
22:56:04.256328,-2817
22:56:04.256328,-1
22:56:04.256328,-14
22:56:04.256328,-3841
22:56:04.256328,-1
22:56:04.256328,-12
22:56:04.256328,-3329
22:56:04.256328,-1
22:56:04.256328,-16
22:56:04.256328,-2817
22:56:04.256328,-1
22:56:04.256328,-7
22:56:04.256328,-769
22:56:04.256328,-1
22:56:04.256328,-2
22:56:04.790996,-2
22:56:04.790996,-769
22:56:04.790996,-1
22:56:04.790996,-4
22:56:04.790996,-769
22:56:04.790996,-1
22:56:04.790996,0
22:56:04.790996,512
22:56:04.790996,0
22:56:04.790996,-7
22:56:04.790996,-1537
22:56:04.790996,-1
22:56:04.790996,2
22:56:04.790996,1792
22:56:04.790996,0
22:56:04.790996,2
22:56:04.790996,1792
22:56:04.790996,0
22:56:04.790996,31
22:56:04.790996,13568
22:56:04.790996,0
22:56:04.790996,48
22:56:04.790996,6144
22:56:04.790996,0
22:56:04.790996,9
22:56:04.790996,4864
22:56:04.790996,0
22:56:04.790996,29
22:56:04.790996,6144
22:56:04.790996,0
22:56:04.790996,19
22:56:04.790996,4864
22:56:04.790996,0
22:56:04.790996,16
22:56:04.790996,3584
22:56:04.790996,0
22:56:04.790996,16
22:56:04.790996,4864
22:56:04.790996,0
22:56:04.790996,21
22:56:04.790996,5376
22:56:04.790996,0
22:56:04.790996,-12
22:56:04.790996,-25601
22:56:04.790996,-1
22:56:04.790996,-118
22:56:04.790996,31743
22:56:04.790996,0
22:56:04.790996,594
22:56:04.790996,-15872
22:56:04.790996,3
22:56:04.790996,892
22:56:04.790996,-30720
22:56:04.790996,1
22:56:04.790996,-60
22:56:04.790996,-25601
22:56:04.790996,-1
22:56:04.790996,-21
22:56:04.790996,-17665
22:56:04.790996,-1
22:56:04.790996,-80
22:56:04.790996,-7169
22:56:04.790996,-1
22:56:04.790996,-26
22:56:04.790996,-10241
22:56:04.790996,-1
22:56:04.790996,-24
22:56:04.790996,-1537
22:56:04.790996,-1
22:56:04.790996,-2
22:56:04.790996,255
22:56:04.790996,0
22:56:04.790996,7
22:56:04.790996,5376
22:56:04.790996,0
22:56:04.790996,38
22:56:04.790996,12800
22:56:04.790996,0
22:56:04.790996,63
22:56:04.790996,21504
22:56:04.790996,0
22:56:04.790996,111
22:56:04.790996,-30208
22:56:04.790996,0
22:56:04.790996,172
22:56:04.790996,-11776
22:56:04.790996,0
22:56:04.790996,240
22:56:04.790996,768
22:56:04.790996,1
22:56:04.790996,271
22:56:04.790996,2560
22:56:04.790996,1
22:56:04.790996,254
22:56:04.790996,-8448
22:56:04.790996,0
22:56:04.790996,172
22:56:04.790996,27904
22:56:04.790996,0
22:56:04.790996,53
22:56:04.790996,2304
22:56:04.790996,0
22:56:04.790996,-19
22:56:04.790996,-8193
22:56:04.790996,-1
22:56:04.790996,-38
22:56:04.790996,-10241
22:56:04.790996,-1
22:56:04.790996,-43
22:56:05.469171,-33
22:56:05.469171,-7169
22:56:05.469171,-1
22:56:05.469171,-31
22:56:05.469171,-5889
22:56:05.469171,-1
22:56:05.469171,-9
22:56:05.469171,255
22:56:05.469171,0
22:56:05.469171,-4
22:56:05.469171,-1537
22:56:05.469171,-1
22:56:05.469171,-4
22:56:05.469171,-769
22:56:05.469171,-1
22:56:05.469171,4
22:56:05.469171,4864
22:56:05.469171,0
22:56:05.469171,19
22:56:05.469171,3072
22:56:05.469171,0
22:56:05.469171,12
22:56:05.469171,3072
22:56:05.469171,0
22:56:05.469171,12
22:56:05.469171,3072
22:56:05.469171,0
22:56:05.469171,26
22:56:05.469171,9216
22:56:05.469171,0
22:56:05.469171,33
22:56:05.469171,7936
22:56:05.469171,0
22:56:05.469171,31
22:56:05.469171,6656
22:56:05.469171,0
22:56:05.469171,21
22:56:05.469171,4864
22:56:05.469171,0
22:56:05.469171,16
22:56:05.469171,3584
22:56:05.469171,0
22:56:05.469171,-2
22:56:05.469171,-7169
22:56:05.469171,-1
22:56:05.469171,-21
22:56:05.469171,4351
22:56:05.469171,0
22:56:05.469171,26
22:56:05.469171,6656
22:56:05.469171,0
22:56:05.469171,65
22:56:05.469171,24832
22:56:05.469171,0
22:56:05.469171,55
22:56:05.469171,5376
22:56:05.469171,0
22:56:05.469171,36
22:56:05.469171,9216
22:56:05.469171,0
22:56:05.469171,16
22:56:05.469171,2304
22:56:05.469171,0
22:56:05.469171,9
22:56:05.469171,1792
22:56:05.469171,0
22:56:05.469171,7
22:56:05.469171,3072
22:56:05.469171,0
22:56:05.469171,16
22:56:05.469171,4096
22:56:05.469171,0
22:56:05.469171,-12
22:56:05.469171,-25601
22:56:05.469171,-1
22:56:05.469171,-169
22:56:05.469171,-8193
22:56:05.469171,-1
22:56:05.469171,351
22:56:05.469171,1280
22:56:05.469171,3
22:56:05.469171,865
22:56:05.469171,-9472
22:56:05.469171,1
22:56:05.469171,-43
22:56:05.469171,12543
22:56:05.469171,-1
22:56:05.469171,-128
22:56:05.469171,29183
22:56:05.469171,-1
22:56:05.469171,-174
22:56:05.469171,31231
22:56:05.469171,-1
22:56:05.469171,-123
22:56:05.469171,31743
22:56:05.469171,-1
22:56:05.469171,-113
22:56:05.469171,-25089
22:56:05.469171,-1
22:56:05.469171,-94
22:56:05.469171,-18945
22:56:05.469171,-1
22:56:05.469171,-60
22:56:05.469171,-13825
22:56:05.469171,-1
22:56:05.469171,-50
22:56:05.469171,-9473
22:56:05.469171,-1
22:56:05.469171,-21
22:56:05.964906,2
22:56:05.964906,5376
22:56:05.964906,0
22:56:05.964906,41
22:56:05.964906,18432
22:56:05.964906,0
22:56:05.964906,106
22:56:05.964906,-30208
22:56:05.964906,0
22:56:05.964906,164
22:56:05.964906,-19712
22:56:05.964906,0
22:56:05.964906,179
22:56:05.964906,-21504
22:56:05.964906,0
22:56:05.964906,145
22:56:05.964906,24832
22:56:05.964906,0
22:56:05.964906,43
22:56:05.964906,1024
22:56:05.964906,0
22:56:05.964906,-31
22:56:05.964906,-16385
22:56:05.964906,-1
22:56:05.964906,-72
22:56:05.964906,-15105
22:56:05.964906,-1
22:56:05.964906,-63
22:56:05.964906,-16385
22:56:05.964906,-1
22:56:05.964906,-48
22:56:05.964906,-9473
22:56:05.964906,-1
22:56:05.964906,-36
22:56:05.964906,-7681
22:56:05.964906,-1
22:56:05.964906,-24
22:56:05.964906,-2817
22:56:05.964906,-1
22:56:05.964906,-9
22:56:05.964906,-3841
22:56:05.964906,-1
22:56:05.964906,-19
22:56:05.964906,-2049
22:56:05.964906,-1
22:56:05.964906,-2
22:56:05.964906,-769
22:56:05.964906,-1
22:56:05.964906,-12
22:56:05.964906,-2049
22:56:05.964906,-1
22:56:05.964906,-4
22:56:05.964906,-3329
22:56:05.964906,-1
22:56:05.964906,-16
22:56:05.964906,-1537
22:56:05.964906,-1
22:56:05.964906,-4
22:56:05.964906,3839
22:56:05.964906,0
22:56:05.964906,33
22:56:05.964906,6656
22:56:05.964906,0
22:56:05.964906,21
22:56:05.964906,6144
22:56:05.964906,0
22:56:05.964906,21
22:56:05.964906,7424
22:56:05.964906,0
22:56:05.964906,31
22:56:05.964906,6144
22:56:05.964906,0
22:56:05.964906,21
22:56:05.964906,4864
22:56:05.964906,0
22:56:05.964906,0
22:56:05.964906,-1792
22:56:05.964906,-1
22:56:05.964906,-2
22:56:05.964906,-2817
22:56:05.964906,-1
22:56:05.964906,-12
22:56:05.964906,3839
22:56:05.964906,0
22:56:05.964906,29
22:56:05.964906,3072
22:56:05.964906,0
22:56:05.964906,2
22:56:05.964906,0
22:56:05.964906,0
22:56:05.964906,-12
22:56:05.964906,-5121
22:56:05.964906,-1
22:56:05.964906,-26
22:56:05.964906,-8193
22:56:05.964906,-1
22:56:05.964906,-33
22:56:05.964906,-7169
22:56:05.964906,-1
22:56:05.964906,-33
22:56:05.964906,-9473
22:56:05.964906,-1
22:56:05.964906,-38
22:56:05.964906,-7681
22:56:05.964906,-1
22:56:05.964906,-31
22:56:05.964906,-15105
22:56:05.964906,-1
22:56:05.964906,-135
22:56:06.504980,-201
22:56:06.504980,-18945
22:56:06.504980,-1
22:56:06.504980,307
22:56:06.504980,-6144
22:56:06.504980,2
22:56:06.504980,926
22:56:06.504980,-20480
22:56:06.504980,2
22:56:06.504980,194
22:56:06.504980,-26624
22:56:06.504980,-1
22:56:06.504980,-84
22:56:06.504980,-18177
22:56:06.504980,-1
22:56:06.504980,-123
22:56:06.504980,-25089
22:56:06.504980,-1
22:56:06.504980,-65
22:56:06.504980,-20225
22:56:06.504980,-1
22:56:06.504980,-80
22:56:06.504980,-13825
22:56:06.504980,-1
22:56:06.504980,-43
22:56:06.504980,-9473
22:56:06.504980,-1
22:56:06.504980,-29
22:56:06.504980,-5889
22:56:06.504980,-1
22:56:06.504980,-19
22:56:06.504980,-2049
22:56:06.504980,-1
22:56:06.504980,0
22:56:06.504980,4864
22:56:06.504980,0
22:56:06.504980,48
22:56:06.504980,19200
22:56:06.504980,0
22:56:06.504980,101
22:56:06.504980,-32768
22:56:06.504980,0
22:56:06.504980,152
22:56:06.504980,-19712
22:56:06.504980,0
22:56:06.504980,194
22:56:06.504980,-15360
22:56:06.504980,0
22:56:06.504980,184
22:56:06.504980,-24064
22:56:06.504980,0
22:56:06.504980,126
22:56:06.504980,18432
22:56:06.504980,0
22:56:06.504980,16
22:56:06.504980,-4864
22:56:06.504980,-1
22:56:06.504980,-43
22:56:06.504980,-14593
22:56:06.504980,-1
22:56:06.504980,-67
22:56:06.504980,-18177
22:56:06.504980,-1
22:56:06.504980,-67
22:56:06.504980,-14593
22:56:06.504980,-1
22:56:06.504980,-55
22:56:06.504980,-15873
22:56:06.504980,-1
22:56:06.504980,-58
22:56:06.504980,-13313
22:56:06.504980,-1
22:56:06.504980,-53
22:56:06.504980,-15105
22:56:06.504980,-1
22:56:06.504980,-63
22:56:06.504980,-12033
22:56:06.504980,-1
22:56:06.504980,-29
22:56:06.504980,-8961
22:56:06.504980,-1
22:56:06.504980,-48
22:56:06.504980,-10753
22:56:06.504980,-1
22:56:06.504980,-43
22:56:06.504980,-12033
22:56:06.504980,-1
22:56:06.504980,-48
22:56:06.504980,-12033
22:56:06.504980,-1
22:56:06.504980,-48
22:56:06.504980,-11521
22:56:06.504980,-1
22:56:06.504980,-38
22:56:06.504980,-8193
22:56:06.504980,-1
22:56:06.504980,-36
22:56:06.504980,-9473
22:56:06.504980,-1
22:56:06.504980,-36
22:56:06.504980,-8193
22:56:06.504980,-1
22:56:06.504980,-36
22:56:06.504980,-9473
22:56:06.504980,-1
22:56:06.504980,-33
22:56:06.504980,-7169
22:56:06.504980,-1
22:56:06.504980,-24
22:56:07.044543,-26
22:56:07.044543,-8961
22:56:07.044543,-1
22:56:07.044543,-46
22:56:07.044543,-10753
22:56:07.044543,-1
22:56:07.044543,-38
22:56:07.044543,-7169
22:56:07.044543,-1
22:56:07.044543,-12
22:56:07.044543,255
22:56:07.044543,0
22:56:07.044543,4
22:56:07.044543,1792
22:56:07.044543,0
22:56:07.044543,-4
22:56:07.044543,-3329
22:56:07.044543,-1
22:56:07.044543,-12
22:56:07.044543,-3329
22:56:07.044543,-1
22:56:07.044543,-24
22:56:07.044543,-3841
22:56:07.044543,-1
22:56:07.044543,-14
22:56:07.044543,-5889
22:56:07.044543,-1
22:56:07.044543,-31
22:56:07.044543,-6401
22:56:07.044543,-1
22:56:07.044543,-24
22:56:07.044543,-5889
22:56:07.044543,-1
22:56:07.044543,-24
22:56:07.044543,-8193
22:56:07.044543,-1
22:56:07.044543,-97
22:56:07.044543,18175
22:56:07.044543,-1
22:56:07.044543,-101
22:56:07.044543,1535
22:56:07.044543,1
22:56:07.044543,710
22:56:07.044543,-23808
22:56:07.044543,3
22:56:07.044543,746
22:56:07.044543,3328
22:56:07.044543,1
22:56:07.044543,-75
22:56:07.044543,-22017
22:56:07.044543,-1
22:56:07.044543,-65
22:56:07.044543,-29441
22:56:07.044543,-1
22:56:07.044543,-106
22:56:07.044543,-23297
22:56:07.044543,-1
22:56:07.044543,-92
22:56:07.044543,-12545
22:56:07.044543,-1
22:56:07.044543,-31
22:56:07.044543,-12545
22:56:07.044543,-1
22:56:07.044543,-43
22:56:07.044543,-6401
22:56:07.044543,-1
22:56:07.044543,-21
22:56:07.044543,-2049
22:56:07.044543,-1
22:56:07.044543,0
22:56:07.044543,2304
22:56:07.044543,0
22:56:07.044543,21
22:56:07.044543,9216
22:56:07.044543,0
22:56:07.044543,55
22:56:07.044543,20480
22:56:07.044543,0
22:56:07.044543,109
22:56:07.044543,-30208
22:56:07.044543,0
22:56:07.044543,167
22:56:07.044543,-19200
22:56:07.044543,0
22:56:07.044543,181
22:56:07.044543,-22784
22:56:07.044543,0
22:56:07.044543,152
22:56:07.044543,31488
22:56:07.044543,0
22:56:07.044543,72
22:56:07.044543,6144
22:56:07.044543,0
22:56:07.044543,-12
22:56:07.044543,-11521
22:56:07.044543,-1
22:56:07.044543,-63
22:56:07.044543,-15105
22:56:07.044543,-1
22:56:07.044543,-58
22:56:07.044543,-13825
22:56:07.044543,-1
22:56:07.044543,-50
22:56:07.044543,-10753
22:56:07.044543,-1
22:56:07.044543,-33
22:56:07.044543,-5889
22:56:07.044543,-1
22:56:07.044543,-14
22:56:07.629563,-4
22:56:07.629563,767
22:56:07.629563,0
22:56:07.629563,4
22:56:07.629563,2304
22:56:07.629563,0
22:56:07.629563,14
22:56:07.629563,6656
22:56:07.629563,0
22:56:07.629563,41
22:56:07.629563,11776
22:56:07.629563,0
22:56:07.629563,41
22:56:07.629563,9728
22:56:07.629563,0
22:56:07.629563,41
22:56:07.629563,10496
22:56:07.629563,0
22:56:07.629563,43
22:56:07.629563,11776
22:56:07.629563,0
22:56:07.629563,48
22:56:07.629563,11008
22:56:07.629563,0
22:56:07.629563,43
22:56:07.629563,13568
22:56:07.629563,0
22:56:07.629563,55
22:56:07.629563,12800
22:56:07.629563,0
22:56:07.629563,53
22:56:07.629563,16128
22:56:07.629563,0
22:56:07.629563,70
22:56:07.629563,17920
22:56:07.629563,0
22:56:07.629563,70
22:56:07.629563,17920
22:56:07.629563,0
22:56:07.629563,67
22:56:07.629563,17920
22:56:07.629563,0
22:56:07.629563,70
22:56:07.629563,15360
22:56:07.629563,0
22:56:07.629563,53
22:56:07.629563,14848
22:56:07.629563,0
22:56:07.629563,67
22:56:07.629563,19200
22:56:07.629563,0
22:56:07.629563,89
22:56:07.629563,25856
22:56:07.629563,0
22:56:07.629563,101
22:56:07.629563,23552
22:56:07.629563,0
22:56:07.629563,72
22:56:07.629563,16128
22:56:07.629563,0
22:56:07.629563,70
22:56:07.629563,19712
22:56:07.629563,0
22:56:07.629563,75
22:56:07.629563,18432
22:56:07.629563,0
22:56:07.629563,75
22:56:07.629563,19712
22:56:07.629563,0
22:56:07.629563,77
22:56:07.629563,20992
22:56:07.629563,0
22:56:07.629563,84
22:56:07.629563,21504
22:56:07.629563,0
22:56:07.629563,80
22:56:07.629563,12288
22:56:07.629563,0
22:56:07.629563,-31
22:56:07.629563,-13313
22:56:07.629563,-1
22:56:07.629563,160
22:56:07.629563,21504
22:56:07.629563,2
22:56:07.629563,972
22:56:07.629563,-10752
22:56:07.629563,3
22:56:07.629563,574
22:56:07.629563,27136
22:56:07.629563,0
22:56:07.629563,-12
22:56:07.629563,15103
22:56:07.629563,0
22:56:07.629563,24
22:56:07.629563,-1792
22:56:07.629563,-1
22:56:07.629563,33
22:56:07.629563,9728
22:56:07.629563,0
22:56:07.629563,21
22:56:07.629563,9728
22:56:07.629563,0
22:56:07.629563,50
22:56:07.629563,12288
22:56:07.629563,0
22:56:07.629563,53
22:56:07.629563,17152
22:56:07.629563,0
22:56:07.629563,67
22:56:08.169136,70
22:56:08.169136,21504
22:56:08.169136,0
22:56:08.169136,99
22:56:08.169136,28416
22:56:08.169136,0
22:56:08.169136,135
22:56:08.169136,-24576
22:56:08.169136,0
22:56:08.169136,179
22:56:08.169136,-12288
22:56:08.169136,0
22:56:08.169136,240
22:56:08.169136,3328
22:56:08.169136,1
22:56:08.169136,278
22:56:08.169136,4608
22:56:08.169136,1
22:56:08.169136,261
22:56:08.169136,-6144
22:56:08.169136,0
22:56:08.169136,181
22:56:08.169136,31488
22:56:08.169136,0
22:56:08.169136,72
22:56:08.169136,7424
22:56:08.169136,0
22:56:08.169136,-2
22:56:08.169136,-5121
22:56:08.169136,-1
22:56:08.169136,-31
22:56:08.169136,-7169
22:56:08.169136,-1
22:56:08.169136,-29
22:56:08.169136,-7169
22:56:08.169136,-1
22:56:08.169136,-29
22:56:08.169136,-7169
22:56:08.169136,-1
22:56:08.169136,-26
22:56:08.169136,-5889
22:56:08.169136,-1
22:56:08.169136,-24
22:56:08.169136,-6401
22:56:08.169136,-1
22:56:08.169136,-24
22:56:08.169136,-5121
22:56:08.169136,-1
22:56:08.169136,-21
22:56:08.169136,-6401
22:56:08.169136,-1
22:56:08.169136,-26
22:56:08.169136,-5889
22:56:08.169136,-1
22:56:08.169136,-24
22:56:08.169136,-5889
22:56:08.169136,-1
22:56:08.169136,-29
22:56:08.169136,-7169
22:56:08.169136,-1
22:56:08.169136,-24
22:56:08.169136,-4609
22:56:08.169136,-1
22:56:08.169136,-21
22:56:08.169136,-5121
22:56:08.169136,-1
22:56:08.169136,-12
22:56:08.169136,-1537
22:56:08.169136,-1
22:56:08.169136,-12
22:56:08.169136,-2817
22:56:08.169136,-1
22:56:08.169136,-9
22:56:08.169136,-3329
22:56:08.169136,-1
22:56:08.169136,-14
22:56:08.169136,-3329
22:56:08.169136,-1
22:56:08.169136,-19
22:56:08.169136,-5889
22:56:08.169136,-1
22:56:08.169136,-26
22:56:08.169136,-7681
22:56:08.169136,-1
22:56:08.169136,-31
22:56:08.169136,-5889
22:56:08.169136,-1
22:56:08.169136,-12
22:56:08.169136,767
22:56:08.169136,0
22:56:08.169136,14
22:56:08.169136,4864
22:56:08.169136,0
22:56:08.169136,12
22:56:08.169136,-1024
22:56:08.169136,-1
22:56:08.169136,-14
22:56:08.169136,-2817
22:56:08.169136,-1
22:56:08.169136,-9
22:56:08.169136,-2817
22:56:08.169136,-1
22:56:08.169136,-7
22:56:08.169136,-257
22:56:08.169136,-1
22:56:08.169136,-7
22:56:08.169136,-2049
22:56:08.169136,-1
22:56:08.169136,-7
22:56:08.751250,-7
22:56:08.751250,-1537
22:56:08.751250,-1
22:56:08.751250,-7
22:56:08.751250,-9473
22:56:08.751250,-1
22:56:08.751250,-123
22:56:08.751250,28159
22:56:08.751250,-1
22:56:08.751250,87
22:56:08.751250,9728
22:56:08.751250,2
22:56:08.751250,916
22:56:08.751250,26112
22:56:08.751250,3
22:56:08.751250,407
22:56:08.751250,-12800
22:56:08.751250,-1
22:56:08.751250,-118
22:56:08.751250,-8193
22:56:08.751250,-1
22:56:08.751250,-75
22:56:08.751250,-25601
22:56:08.751250,-1
22:56:08.751250,-58
22:56:08.751250,-13825
22:56:08.751250,-1
22:56:08.751250,-65
22:56:08.751250,-12033
22:56:08.751250,-1
22:56:08.751250,-36
22:56:08.751250,-9473
22:56:08.751250,-1
22:56:08.751250,-31
22:56:08.751250,-5121
22:56:08.751250,-1
22:56:08.751250,-14
22:56:08.751250,-769
22:56:08.751250,-1
22:56:08.751250,7
22:56:08.751250,6144
22:56:08.751250,0
22:56:08.751250,41
22:56:08.751250,15360
22:56:08.751250,0
22:56:08.751250,87
22:56:08.751250,29696
22:56:08.751250,0
22:56:08.751250,145
22:56:08.751250,-20992
22:56:08.751250,0
22:56:08.751250,194
22:56:08.751250,-14080
22:56:08.751250,0
22:56:08.751250,201
22:56:08.751250,-17152
22:56:08.751250,0
22:56:08.751250,155
22:56:08.751250,25856
22:56:08.751250,0
22:56:08.751250,41
22:56:08.751250,-3072
22:56:08.751250,-1
22:56:08.751250,-53
22:56:08.751250,-20225
22:56:08.751250,-1
22:56:08.751250,-97
22:56:08.751250,-26881
22:56:08.751250,-1
22:56:08.751250,-106
22:56:08.751250,-26369
22:56:08.751250,-1
22:56:08.751250,-97
22:56:08.751250,-23809
22:56:08.751250,-1
22:56:08.751250,-92
22:56:08.751250,-22017
22:56:08.751250,-1
22:56:08.751250,-82
22:56:08.751250,-19457
22:56:08.751250,-1
22:56:08.751250,-72
22:56:08.751250,-18945
22:56:08.751250,-1
22:56:08.751250,-75
22:56:08.751250,-17665
22:56:08.751250,-1
22:56:08.751250,-67
22:56:08.751250,-16385
22:56:08.751250,-1
22:56:08.751250,-65
22:56:08.751250,-16385
22:56:08.751250,-1
22:56:08.751250,-58
22:56:08.751250,-13825
22:56:08.751250,-1
22:56:08.751250,-55
22:56:08.751250,-13313
22:56:08.751250,-1
22:56:08.751250,-50
22:56:08.751250,-12545
22:56:08.751250,-1
22:56:08.751250,-48
22:56:08.751250,-10753
22:56:08.751250,-1
22:56:08.751250,-43
22:56:08.751250,-10753
22:56:08.751250,-1
22:56:08.751250,-43
22:56:09.340182,-41
22:56:09.340182,-9473
22:56:09.340182,-1
22:56:09.340182,-41
22:56:09.340182,-10753
22:56:09.340182,-1
22:56:09.340182,-43
22:56:09.340182,-10753
22:56:09.340182,-1
22:56:09.340182,-48
22:56:09.340182,-11521
22:56:09.340182,-1
22:56:09.340182,-33
22:56:09.340182,-4609
22:56:09.340182,-1
22:56:09.340182,-2
22:56:09.340182,2559
22:56:09.340182,0
22:56:09.340182,19
22:56:09.340182,5376
22:56:09.340182,0
22:56:09.340182,12
22:56:09.340182,-1024
22:56:09.340182,-1
22:56:09.340182,-9
22:56:09.340182,255
22:56:09.340182,0
22:56:09.340182,2
22:56:09.340182,-1024
22:56:09.340182,-1
22:56:09.340182,-2
22:56:09.340182,255
22:56:09.340182,0
22:56:09.340182,-4
22:56:09.340182,-769
22:56:09.340182,-1
22:56:09.340182,0
22:56:09.340182,0
22:56:09.340182,0
22:56:09.340182,0
22:56:09.340182,-1792
22:56:09.340182,-1
22:56:09.340182,-65
22:56:09.340182,26879
22:56:09.340182,-1
22:56:09.340182,-89
22:56:09.340182,1023
22:56:09.340182,1
22:56:09.340182,727
22:56:09.340182,-18944
22:56:09.340182,3
22:56:09.340182,698
22:56:09.340182,-22784
22:56:09.340182,0
22:56:09.340182,-135
22:56:09.340182,-20737
22:56:09.340182,-1
22:56:09.340182,-43
22:56:09.340182,-25601
22:56:09.340182,-1
22:56:09.340182,-82
22:56:09.340182,-12033
22:56:09.340182,-1
22:56:09.340182,-60
22:56:09.340182,-14593
22:56:09.340182,-1
22:56:09.340182,-41
22:56:09.340182,-9473
22:56:09.340182,-1
22:56:09.340182,-36
22:56:09.340182,-6401
22:56:09.340182,-1
22:56:09.340182,-14
22:56:09.340182,-257
22:56:09.340182,-1
22:56:09.340182,7
22:56:09.340182,3072
22:56:09.340182,0
22:56:09.340182,29
22:56:09.340182,13568
22:56:09.340182,0
22:56:09.340182,70
22:56:09.340182,24832
22:56:09.340182,0
22:56:09.340182,133
22:56:09.340182,-24064
22:56:09.340182,0
22:56:09.340182,184
22:56:09.340182,-13568
22:56:09.340182,0
22:56:09.340182,208
22:56:09.340182,-13568
22:56:09.340182,0
22:56:09.340182,189
22:56:09.340182,-25856
22:56:09.340182,0
22:56:09.340182,94
22:56:09.340182,7936
22:56:09.340182,0
22:56:09.340182,-14
22:56:09.340182,-11521
22:56:09.340182,-1
22:56:09.340182,-67
22:56:09.340182,-21249
22:56:09.340182,-1
22:56:09.340182,-92
22:56:09.340182,-22529
22:56:09.340182,-1
22:56:09.340182,-84
22:56:09.880729,-92
22:56:09.880729,-23297
22:56:09.880729,-1
22:56:09.880729,-82
22:56:09.880729,-18945
22:56:09.880729,-1
22:56:09.880729,-75
22:56:09.880729,-18177
22:56:09.880729,-1
22:56:09.880729,-67
22:56:09.880729,-16385
22:56:09.880729,-1
22:56:09.880729,-65
22:56:09.880729,-15873
22:56:09.880729,-1
22:56:09.880729,-55
22:56:09.880729,-13825
22:56:09.880729,-1
22:56:09.880729,-55
22:56:09.880729,-10753
22:56:09.880729,-1
22:56:09.880729,-38
22:56:09.880729,-10241
22:56:09.880729,-1
22:56:09.880729,-36
22:56:09.880729,-8193
22:56:09.880729,-1
22:56:09.880729,-31
22:56:09.880729,-7169
22:56:09.880729,-1
22:56:09.880729,-31
22:56:09.880729,-7681
22:56:09.880729,-1
22:56:09.880729,-29
22:56:09.880729,-7169
22:56:09.880729,-1
22:56:09.880729,-31
22:56:09.880729,-7169
22:56:09.880729,-1
22:56:09.880729,-31
22:56:09.880729,-9473
22:56:09.880729,-1
22:56:09.880729,-43
22:56:09.880729,-10241
22:56:09.880729,-1
22:56:09.880729,-36
22:56:09.880729,-7169
22:56:09.880729,-1
22:56:09.880729,-12
22:56:09.880729,-1537
22:56:09.880729,-1
22:56:09.880729,-7
22:56:09.880729,-257
22:56:09.880729,-1
22:56:09.880729,-16
22:56:09.880729,-8961
22:56:09.880729,-1
22:56:09.880729,-36
22:56:09.880729,-6401
22:56:09.880729,-1
22:56:09.880729,-26
22:56:09.880729,-7169
22:56:09.880729,-1
22:56:09.880729,-29
22:56:09.880729,-7169
22:56:09.880729,-1
22:56:09.880729,-26
22:56:09.880729,-6401
22:56:09.880729,-1
22:56:09.880729,-31
22:56:09.880729,-7169
22:56:09.880729,-1
22:56:09.880729,-24
22:56:09.880729,-12545
22:56:09.880729,-1
22:56:09.880729,-130
22:56:09.880729,19455
22:56:09.880729,-1
22:56:09.880729,0
22:56:09.880729,-15616
22:56:09.880729,1
22:56:09.880729,848
22:56:09.880729,14848
22:56:09.880729,3
22:56:09.880729,363
22:56:09.880729,-27136
22:56:09.880729,-1
22:56:09.880729,-172
22:56:09.880729,-13825
22:56:09.880729,-1
22:56:09.880729,-82
22:56:09.880729,-28673
22:56:09.880729,-1
22:56:09.880729,-67
22:56:09.880729,-13313
22:56:09.880729,-1
22:56:09.880729,-65
22:56:09.880729,-13313
22:56:09.880729,-1
22:56:09.880729,-38
22:56:09.880729,-8193
22:56:09.880729,-1
22:56:09.880729,-26
22:56:09.880729,-2817
22:56:09.880729,-1
22:56:09.880729,2
22:56:09.880729,2304
22:56:09.880729,0
22:56:09.880729,19
22:56:10.418788,43
22:56:10.418788,16640
22:56:10.418788,0
22:56:10.418788,89
22:56:10.418788,30976
22:56:10.418788,0
22:56:10.418788,155
22:56:10.418788,-18432
22:56:10.418788,0
22:56:10.418788,218
22:56:10.418788,-3072
22:56:10.418788,0
22:56:10.418788,257
22:56:10.418788,2048
22:56:10.418788,1
22:56:10.418788,266
22:56:10.418788,-4096
22:56:10.418788,0
22:56:10.418788,179
22:56:10.418788,28416
22:56:10.418788,0
22:56:10.418788,58
22:56:10.418788,3584
22:56:10.418788,0
22:56:10.418788,-24
22:56:10.418788,-12033
22:56:10.418788,-1
22:56:10.418788,-53
22:56:10.418788,-12545
22:56:10.418788,-1
22:56:10.418788,-48
22:56:10.418788,-12033
22:56:10.418788,-1
22:56:10.418788,-41
22:56:10.418788,-8961
22:56:10.418788,-1
22:56:10.418788,-36
22:56:10.418788,-7681
22:56:10.418788,-1
22:56:10.418788,-24
22:56:10.418788,-5889
22:56:10.418788,-1
22:56:10.418788,-24
22:56:10.418788,-4609
22:56:10.418788,-1
22:56:10.418788,-19
22:56:10.418788,-3841
22:56:10.418788,-1
22:56:10.418788,-9
22:56:10.418788,-1537
22:56:10.418788,-1
22:56:10.418788,-9
22:56:10.418788,-769
22:56:10.418788,-1
22:56:10.418788,0
22:56:10.418788,0
22:56:10.418788,0
22:56:10.418788,2
22:56:10.418788,1024
22:56:10.418788,0
22:56:10.418788,4
22:56:10.418788,1024
22:56:10.418788,0
22:56:10.418788,7
22:56:10.418788,1792
22:56:10.418788,0
22:56:10.418788,7
22:56:10.418788,1792
22:56:10.418788,0
22:56:10.418788,4
22:56:10.418788,-512
22:56:10.418788,-1
22:56:10.418788,-7
22:56:10.418788,-769
22:56:10.418788,-1
22:56:10.418788,-2
22:56:10.418788,767
22:56:10.418788,0
22:56:10.418788,12
22:56:10.418788,6656
22:56:10.418788,0
22:56:10.418788,36
22:56:10.418788,9728
22:56:10.418788,0
22:56:10.418788,31
22:56:10.418788,4096
22:56:10.418788,0
22:56:10.418788,7
22:56:10.418788,3584
22:56:10.418788,0
22:56:10.418788,19
22:56:10.418788,3584
22:56:10.418788,0
22:56:10.418788,14
22:56:10.418788,4096
22:56:10.418788,0
22:56:10.418788,16
22:56:10.418788,4864
22:56:10.418788,0
22:56:10.418788,19
22:56:10.418788,4096
22:56:10.418788,0
22:56:10.418788,19
22:56:10.418788,3584
22:56:10.418788,0
22:56:10.418788,-29
22:56:10.418788,-29953
22:56:10.418788,-1
22:56:10.418788,-104
22:56:10.959127,179
22:56:10.959127,-31488
22:56:10.959127,2
22:56:10.959127,967
22:56:10.959127,26112
22:56:10.959127,3
22:56:10.959127,392
22:56:10.959127,-7424
22:56:10.959127,-1
22:56:10.959127,-70
22:56:10.959127,255
22:56:10.959127,0
22:56:10.959127,-48
22:56:10.959127,-15873
22:56:10.959127,-1
22:56:10.959127,-21
22:56:10.959127,-5121
22:56:10.959127,-1
22:56:10.959127,-31
22:56:10.959127,-3329
22:56:10.959127,-1
22:56:10.959127,-2
22:56:10.959127,255
22:56:10.959127,0
22:56:10.959127,7
22:56:10.959127,3584
22:56:10.959127,0
22:56:10.959127,21
22:56:10.959127,8448
22:56:10.959127,0
22:56:10.959127,46
22:56:10.959127,14848
22:56:10.959127,0
22:56:10.959127,70
22:56:10.959127,25344
22:56:10.959127,0
22:56:10.959127,130
22:56:10.959127,-25856
22:56:10.959127,0
22:56:10.959127,186
22:56:10.959127,-10496
22:56:10.959127,0
22:56:10.959127,237
22:56:10.959127,-2304
22:56:10.959127,0
22:56:10.959127,244
22:56:10.959127,-7424
22:56:10.959127,0
22:56:10.959127,191
22:56:10.959127,-30208
22:56:10.959127,0
22:56:10.959127,80
22:56:10.959127,6656
22:56:10.959127,0
22:56:10.959127,-14
22:56:10.959127,-10241
22:56:10.959127,-1
22:56:10.959127,-55
22:56:10.959127,-15105
22:56:10.959127,-1
22:56:10.959127,-60
22:56:10.959127,-14593
22:56:10.959127,-1
22:56:10.959127,-55
22:56:10.959127,-13313
22:56:10.959127,-1
22:56:10.959127,-48
22:56:10.959127,-10753
22:56:10.959127,-1
22:56:10.959127,-41
22:56:10.959127,-9473
22:56:10.959127,-1
22:56:10.959127,-36
22:56:10.959127,-8193
22:56:10.959127,-1
22:56:10.959127,-33
22:56:10.959127,-7681
22:56:10.959127,-1
22:56:10.959127,-31
22:56:10.959127,-7169
22:56:10.959127,-1
22:56:10.959127,-24
22:56:10.959127,-5121
22:56:10.959127,-1
22:56:10.959127,-24
22:56:10.959127,-6401
22:56:10.959127,-1
22:56:10.959127,-24
22:56:10.959127,-5889
22:56:10.959127,-1
22:56:10.959127,-21
22:56:10.959127,-3329
22:56:10.959127,-1
22:56:10.959127,-12
22:56:10.959127,-2817
22:56:10.959127,-1
22:56:10.959127,-12
22:56:10.959127,-2049
22:56:10.959127,-1
22:56:10.959127,-7
22:56:10.959127,-1537
22:56:10.959127,-1
22:56:10.959127,-9
22:56:10.959127,-2817
22:56:10.959127,-1
22:56:10.959127,-16
22:56:10.959127,-3329
22:56:10.959127,-1
22:56:10.959127,-9
22:56:11.541470,-2
22:56:11.541470,3327
22:56:11.541470,0
22:56:11.541470,24
22:56:11.541470,7424
22:56:11.541470,0
22:56:11.541470,38
22:56:11.541470,8448
22:56:11.541470,0
22:56:11.541470,16
22:56:11.541470,3584
22:56:11.541470,0
22:56:11.541470,26
22:56:11.541470,6656
22:56:11.541470,0
22:56:11.541470,21
22:56:11.541470,5376
22:56:11.541470,0
22:56:11.541470,21
22:56:11.541470,5376
22:56:11.541470,0
22:56:11.541470,24
22:56:11.541470,6656
22:56:11.541470,0
22:56:11.541470,26
22:56:11.541470,6656
22:56:11.541470,0
22:56:11.541470,12
22:56:11.541470,-14848
22:56:11.541470,-1
22:56:11.541470,-135
22:56:11.541470,-6401
22:56:11.541470,-1
22:56:11.541470,354
22:56:11.541470,11264
22:56:11.541470,3
22:56:11.541470,1013
22:56:11.541470,-3584
22:56:11.541470,2
22:56:11.541470,218
22:56:11.541470,-22784
22:56:11.541470,-1
22:56:11.541470,-50
22:56:11.541470,-7681
22:56:11.541470,-1
22:56:11.541470,-89
22:56:11.541470,-16385
22:56:11.541470,-1
22:56:11.541470,-33
22:56:11.541470,-12033
22:56:11.541470,-1
22:56:11.541470,-41
22:56:11.541470,-5121
22:56:11.541470,-1
22:56:11.541470,-19
22:56:11.541470,-3329
22:56:11.541470,-1
22:56:11.541470,-4
22:56:11.541470,767
22:56:11.541470,0
22:56:11.541470,9
22:56:11.541470,5376
22:56:11.541470,0
22:56:11.541470,33
22:56:11.541470,12800
22:56:11.541470,0
22:56:11.541470,70
22:56:11.541470,23552
22:56:11.541470,0
22:56:11.541470,121
22:56:11.541470,-26624
22:56:11.541470,0
22:56:11.541470,184
22:56:11.541470,-12288
22:56:11.541470,0
22:56:11.541470,227
22:56:11.541470,-5376
22:56:11.541470,0
22:56:11.541470,230
22:56:11.541470,-12288
22:56:11.541470,0
22:56:11.541470,164
22:56:11.541470,26624
22:56:11.541470,0
22:56:11.541470,48
22:56:11.541470,512
22:56:11.541470,0
22:56:11.541470,-33
22:56:11.541470,-13825
22:56:11.541470,-1
22:56:11.541470,-70
22:56:11.541470,-17665
22:56:11.541470,-1
22:56:11.541470,-65
22:56:11.541470,-16385
22:56:11.541470,-1
22:56:11.541470,-65
22:56:11.541470,-15873
22:56:11.541470,-1
22:56:11.541470,-58
22:56:11.541470,-13825
22:56:11.541470,-1
22:56:11.541470,-53
22:56:11.541470,-11521
22:56:11.541470,-1
22:56:11.541470,-41
22:56:11.541470,-10241
22:56:11.541470,-1
22:56:11.541470,-41
22:56:12.129263,-33
22:56:12.129263,-6401
22:56:12.129263,-1
22:56:12.129263,-29
22:56:12.129263,-8193
22:56:12.129263,-1
22:56:12.129263,-31
22:56:12.129263,-7169
22:56:12.129263,-1
22:56:12.129263,-29
22:56:12.129263,-5121
22:56:12.129263,-1
22:56:12.129263,-12
22:56:12.129263,-2049
22:56:12.129263,-1
22:56:12.129263,-9
22:56:12.129263,-1537
22:56:12.129263,-1
22:56:12.129263,-9
22:56:12.129263,-1537
22:56:12.129263,-1
22:56:12.129263,-4
22:56:12.129263,-257
22:56:12.129263,-1
22:56:12.129263,-2
22:56:12.129263,-257
22:56:12.129263,-1
22:56:12.129263,-4
22:56:12.129263,-1537
22:56:12.129263,-1
22:56:12.129263,-9
22:56:12.129263,-2049
22:56:12.129263,-1
22:56:12.129263,-2
22:56:12.129263,1279
22:56:12.129263,0
22:56:12.129263,19
22:56:12.129263,8448
22:56:12.129263,0
22:56:12.129263,36
22:56:12.129263,9216
22:56:12.129263,0
22:56:12.129263,31
22:56:12.129263,3072
22:56:12.129263,0
22:56:12.129263,4
22:56:12.129263,4096
22:56:12.129263,0
22:56:12.129263,19
22:56:12.129263,3072
22:56:12.129263,0
22:56:12.129263,9
22:56:12.129263,2304
22:56:12.129263,0
22:56:12.129263,9
22:56:12.129263,3072
22:56:12.129263,0
22:56:12.129263,19
22:56:12.129263,6144
22:56:12.129263,0
22:56:12.129263,21
22:56:12.129263,5376
22:56:12.129263,0
22:56:12.129263,-16
22:56:12.129263,-28161
22:56:12.129263,-1
22:56:12.129263,-116
22:56:12.129263,-28673
22:56:12.129263,0
22:56:12.129263,608
22:56:12.129263,-13824
22:56:12.129263,3
22:56:12.129263,916
22:56:12.129263,-16896
22:56:12.129263,1
22:56:12.129263,-14
22:56:12.129263,-22017
22:56:12.129263,-1
22:56:12.129263,-16
22:56:12.129263,-15873
22:56:12.129263,-1
22:56:12.129263,-80
22:56:12.129263,-8961
22:56:12.129263,-1
22:56:12.129263,-31
22:56:12.129263,-9473
22:56:12.129263,-1
22:56:12.129263,-16
22:56:12.129263,-1537
22:56:12.129263,-1
22:56:12.129263,-9
22:56:12.129263,767
22:56:12.129263,0
22:56:12.129263,9
22:56:12.129263,3584
22:56:12.129263,0
22:56:12.129263,26
22:56:12.129263,11008
22:56:12.129263,0
22:56:12.129263,58
22:56:12.129263,19200
22:56:12.129263,0
22:56:12.129263,94
22:56:12.129263,30208
22:56:12.129263,0
22:56:12.129263,160
22:56:12.129263,-15360
22:56:12.129263,0
22:56:12.129263,218
22:56:12.666225,235
22:56:12.666225,-512
22:56:12.666225,0
22:56:12.666225,257
22:56:12.666225,-4096
22:56:12.666225,0
22:56:12.666225,208
22:56:12.666225,-25344
22:56:12.666225,0
22:56:12.666225,92
22:56:12.666225,9216
22:56:12.666225,0
22:56:12.666225,0
22:56:12.666225,-7936
22:56:12.666225,-1
22:56:12.666225,-41
22:56:12.666225,-8193
22:56:12.666225,-1
22:56:12.666225,-36
22:56:12.666225,-10753
22:56:12.666225,-1
22:56:12.666225,-38
22:56:12.666225,-7681
22:56:12.666225,-1
22:56:12.666225,-31
22:56:12.666225,-7169
22:56:12.666225,-1
22:56:12.666225,-21
22:56:12.666225,-4609
22:56:12.666225,-1
22:56:12.666225,-19
22:56:12.666225,-3841
22:56:12.666225,-1
22:56:12.666225,-12
22:56:12.666225,-2049
22:56:12.666225,-1
22:56:12.666225,-7
22:56:12.666225,-1537
22:56:12.666225,-1
22:56:12.666225,-7
22:56:12.666225,-2049
22:56:12.666225,-1
22:56:12.666225,-4
22:56:12.666225,-257
22:56:12.666225,-1
22:56:12.666225,0
22:56:12.666225,1024
22:56:12.666225,0
22:56:12.666225,7
22:56:12.666225,2304
22:56:12.666225,0
22:56:12.666225,12
22:56:12.666225,3072
22:56:12.666225,0
22:56:12.666225,12
22:56:12.666225,3584
22:56:12.666225,0
22:56:12.666225,16
22:56:12.666225,4864
22:56:12.666225,0
22:56:12.666225,21
22:56:12.666225,4096
22:56:12.666225,0
22:56:12.666225,9
22:56:12.666225,1792
22:56:12.666225,0
22:56:12.666225,14
22:56:12.666225,5376
22:56:12.666225,0
22:56:12.666225,26
22:56:12.666225,10496
22:56:12.666225,0
22:56:12.666225,55
22:56:12.666225,15360
22:56:12.666225,0
22:56:12.666225,58
22:56:12.666225,12800
22:56:12.666225,0
22:56:12.666225,36
22:56:12.666225,7424
22:56:12.666225,0
22:56:12.666225,33
22:56:12.666225,8448
22:56:12.666225,0
22:56:12.666225,31
22:56:12.666225,8448
22:56:12.666225,0
22:56:12.666225,36
22:56:12.666225,9728
22:56:12.666225,0
22:56:12.666225,38
22:56:12.666225,9728
22:56:12.666225,0
22:56:12.666225,41
22:56:12.666225,11776
22:56:12.666225,0
22:56:12.666225,46
22:56:12.666225,4864
22:56:12.666225,0
22:56:12.666225,-63
22:56:12.666225,-27649
22:56:12.666225,-1
22:56:12.666225,82
22:56:12.666225,4096
22:56:12.666225,2
22:56:12.666225,945
22:56:12.666225,-10240
22:56:12.666225,3
22:56:12.666225,562
22:56:13.298864,53
22:56:13.298864,-21504
22:56:13.298864,-1
22:56:13.298864,0
22:56:13.298864,-6656
22:56:13.298864,-1
22:56:13.298864,-65
22:56:13.298864,-5889
22:56:13.298864,-1
22:56:13.298864,-14
22:56:13.298864,-5889
22:56:13.298864,-1
22:56:13.298864,2
22:56:13.298864,4864
22:56:13.298864,0
22:56:13.298864,12
22:56:13.298864,4096
22:56:13.298864,0
22:56:13.298864,31
22:56:13.298864,9216
22:56:13.298864,0
22:56:13.298864,41
22:56:13.298864,12800
22:56:13.298864,0
22:56:13.298864,63
22:56:13.298864,19712
22:56:13.298864,0
22:56:13.298864,97
22:56:13.298864,31488
22:56:13.298864,0
22:56:13.298864,155
22:56:13.298864,-17920
22:56:13.298864,0
22:56:13.298864,215
22:56:13.298864,-4096
22:56:13.298864,0
22:56:13.298864,254
22:56:13.298864,256
22:56:13.298864,1
22:56:13.298864,244
22:56:13.298864,-9728
22:56:13.298864,0
22:56:13.298864,167
22:56:13.298864,26624
22:56:13.298864,0
22:56:13.298864,46
22:56:13.298864,1024
22:56:13.298864,0
22:56:13.298864,-26
22:56:13.298864,-12545
22:56:13.298864,-1
22:56:13.298864,-58
22:56:13.298864,-13825
22:56:13.298864,-1
22:56:13.298864,-55
22:56:13.298864,-12545
22:56:13.298864,-1
22:56:13.298864,-46
22:56:13.298864,-10753
22:56:13.298864,-1
22:56:13.298864,-43
22:56:13.298864,-9473
22:56:13.298864,-1
22:56:13.298864,-33
22:56:13.298864,-7681
22:56:13.298864,-1
22:56:13.298864,-29
22:56:13.298864,-5889
22:56:13.298864,-1
22:56:13.298864,-19
22:56:13.298864,-5121
22:56:13.298864,-1
22:56:13.298864,-21
22:56:13.298864,-4609
22:56:13.298864,-1
22:56:13.298864,-14
22:56:13.298864,-2049
22:56:13.298864,-1
22:56:13.298864,-7
22:56:13.298864,-1537
22:56:13.298864,-1
22:56:13.298864,-7
22:56:13.298864,-257
22:56:13.298864,-1
22:56:13.298864,0
22:56:13.298864,0
22:56:13.298864,0
22:56:13.298864,2
22:56:13.298864,512
22:56:13.298864,0
22:56:13.298864,2
22:56:13.298864,1024
22:56:13.298864,0
22:56:13.298864,2
22:56:13.298864,512
22:56:13.298864,0
22:56:13.298864,7
22:56:13.298864,2304
22:56:13.298864,0
22:56:13.298864,12
22:56:13.298864,2304
22:56:13.298864,0
22:56:13.298864,9
22:56:13.298864,2304
22:56:13.298864,0
22:56:13.298864,7
22:56:13.298864,-512
22:56:13.298864,-1
22:56:13.298864,-2
22:56:13.790942,4
22:56:13.790942,1792
22:56:13.790942,0
22:56:13.790942,19
22:56:13.790942,9216
22:56:13.790942,0
22:56:13.790942,38
22:56:13.790942,9728
22:56:13.790942,0
22:56:13.790942,36
22:56:13.790942,4864
22:56:13.790942,0
22:56:13.790942,9
22:56:13.790942,3584
22:56:13.790942,0
22:56:13.790942,16
22:56:13.790942,3584
22:56:13.790942,0
22:56:13.790942,16
22:56:13.790942,4096
22:56:13.790942,0
22:56:13.790942,14
22:56:13.790942,4096
22:56:13.790942,0
22:56:13.790942,26
22:56:13.790942,9216
22:56:13.790942,0
22:56:13.790942,36
22:56:13.790942,7936
22:56:13.790942,0
22:56:13.790942,9
22:56:13.790942,-16640
22:56:13.790942,-1
22:56:13.790942,-128
22:56:13.790942,5119
22:56:13.790942,0
22:56:13.790942,431
22:56:13.790942,27904
22:56:13.790942,3
22:56:13.790942,1020
22:56:13.790942,-17920
22:56:13.790942,2
22:56:13.790942,160
22:56:13.790942,-25344
22:56:13.790942,-1
22:56:13.790942,-43
22:56:13.790942,-8193
22:56:13.790942,-1
22:56:13.790942,-84
22:56:13.790942,-14593
22:56:13.790942,-1
22:56:13.790942,-31
22:56:13.790942,-11521
22:56:13.790942,-1
22:56:13.790942,-36
22:56:13.790942,-4609
22:56:13.790942,-1
22:56:13.790942,-16
22:56:13.790942,-2817
22:56:13.790942,-1
22:56:13.790942,0
22:56:13.790942,1792
22:56:13.790942,0
22:56:13.790942,12
22:56:13.790942,6656
22:56:13.790942,0
22:56:13.790942,41
22:56:13.790942,14080
22:56:13.790942,0
22:56:13.790942,72
22:56:13.790942,25344
22:56:13.790942,0
22:56:13.790942,126
22:56:13.790942,-25856
22:56:13.790942,0
22:56:13.790942,184
22:56:13.790942,-11008
22:56:13.790942,0
22:56:13.790942,232
22:56:13.790942,-4864
22:56:13.790942,0
22:56:13.790942,232
22:56:13.790942,-11776
22:56:13.790942,0
22:56:13.790942,167
22:56:13.790942,28416
22:56:13.790942,0
22:56:13.790942,53
22:56:13.790942,1024
22:56:13.790942,0
22:56:13.790942,-31
22:56:13.790942,-12545
22:56:13.790942,-1
22:56:13.790942,-63
22:56:13.790942,-18177
22:56:13.790942,-1
22:56:13.790942,-80
22:56:13.790942,-20737
22:56:13.790942,-1
22:56:13.790942,-77
22:56:13.790942,-18177
22:56:13.790942,-1
22:56:13.790942,-70
22:56:13.790942,-16385
22:56:13.790942,-1
22:56:13.790942,-58
22:56:13.790942,-13313
22:56:13.790942,-1
22:56:13.790942,-50
22:56:14.332098,-50
22:56:14.332098,-11521
22:56:14.332098,-1
22:56:14.332098,-41
22:56:14.332098,-9473
22:56:14.332098,-1
22:56:14.332098,-38
22:56:14.332098,-8961
22:56:14.332098,-1
22:56:14.332098,-38
22:56:14.332098,-8961
22:56:14.332098,-1
22:56:14.332098,-24
22:56:14.332098,-3329
22:56:14.332098,-1
22:56:14.332098,-16
22:56:14.332098,-3841
22:56:14.332098,-1
22:56:14.332098,-12
22:56:14.332098,-2049
22:56:14.332098,-1
22:56:14.332098,-9
22:56:14.332098,-1537
22:56:14.332098,-1
22:56:14.332098,-4
22:56:14.332098,-769
22:56:14.332098,-1
22:56:14.332098,-2
22:56:14.332098,-257
22:56:14.332098,-1
22:56:14.332098,-2
22:56:14.332098,-257
22:56:14.332098,-1
22:56:14.332098,-2
22:56:14.332098,255
22:56:14.332098,0
22:56:14.332098,0
22:56:14.332098,-512
22:56:14.332098,-1
22:56:14.332098,0
22:56:14.332098,-512
22:56:14.332098,-1
22:56:14.332098,-4
22:56:14.332098,-2049
22:56:14.332098,-1
22:56:14.332098,-12
22:56:14.332098,-769
22:56:14.332098,-1
22:56:14.332098,2
22:56:14.332098,4096
22:56:14.332098,0
22:56:14.332098,36
22:56:14.332098,11776
22:56:14.332098,0
22:56:14.332098,43
22:56:14.332098,11008
22:56:14.332098,0
22:56:14.332098,29
22:56:14.332098,3072
22:56:14.332098,0
22:56:14.332098,12
22:56:14.332098,5376
22:56:14.332098,0
22:56:14.332098,19
22:56:14.332098,3584
22:56:14.332098,0
22:56:14.332098,14
22:56:14.332098,3584
22:56:14.332098,0
22:56:14.332098,14
22:56:14.332098,4096
22:56:14.332098,0
22:56:14.332098,14
22:56:14.332098,3584
22:56:14.332098,0
22:56:14.332098,16
22:56:14.332098,1792
22:56:14.332098,0
22:56:14.332098,-50
22:56:14.332098,31231
22:56:14.332098,-1
22:56:14.332098,-82
22:56:14.332098,-2817
22:56:14.332098,0
22:56:14.332098,720
22:56:14.332098,-4096
22:56:14.332098,3
22:56:14.332098,851
22:56:14.332098,18688
22:56:14.332098,1
22:56:14.332098,-75
22:56:14.332098,-22529
22:56:14.332098,-1
22:56:14.332098,-31
22:56:14.332098,-21249
22:56:14.332098,-1
22:56:14.332098,-84
22:56:14.332098,-10241
22:56:14.332098,-1
22:56:14.332098,-43
22:56:14.332098,-12033
22:56:14.332098,-1
22:56:14.332098,-31
22:56:14.332098,-5889
22:56:14.332098,-1
22:56:14.332098,-19
22:56:14.332098,-2049
22:56:14.332098,-1
22:56:14.332098,0
22:56:14.919007,7
22:56:14.919007,4864
22:56:14.919007,0
22:56:14.919007,29
22:56:14.919007,11008
22:56:14.919007,0
22:56:14.919007,63
22:56:14.919007,23552
22:56:14.919007,0
22:56:14.919007,126
22:56:14.919007,-25856
22:56:14.919007,0
22:56:14.919007,184
22:56:14.919007,-10496
22:56:14.919007,0
22:56:14.919007,240
22:56:14.919007,-1024
22:56:14.919007,0
22:56:14.919007,249
22:56:14.919007,-5376
22:56:14.919007,0
22:56:14.919007,201
22:56:14.919007,-28416
22:56:14.919007,0
22:56:14.919007,87
22:56:14.919007,8448
22:56:14.919007,0
22:56:14.919007,-4
22:56:14.919007,-8193
22:56:14.919007,-1
22:56:14.919007,-50
22:56:14.919007,-14593
22:56:14.919007,-1
22:56:14.919007,-60
22:56:14.919007,-14593
22:56:14.919007,-1
22:56:14.919007,-55
22:56:14.919007,-13313
22:56:14.919007,-1
22:56:14.919007,-46
22:56:14.919007,-9473
22:56:14.919007,-1
22:56:14.919007,-33
22:56:14.919007,-7169
22:56:14.919007,-1
22:56:14.919007,-31
22:56:14.919007,-8193
22:56:14.919007,-1
22:56:14.919007,-29
22:56:14.919007,-6401
22:56:14.919007,-1
22:56:14.919007,-21
22:56:14.919007,-4609
22:56:14.919007,-1
22:56:14.919007,-19
22:56:14.919007,-5121
22:56:14.919007,-1
22:56:14.919007,-24
22:56:14.919007,-4609
22:56:14.919007,-1
22:56:14.919007,-16
22:56:14.919007,-3329
22:56:14.919007,-1
22:56:14.919007,-16
22:56:14.919007,-4609
22:56:14.919007,-1
22:56:14.919007,-16
22:56:14.919007,-2817
22:56:14.919007,-1
22:56:14.919007,-12
22:56:14.919007,-2049
22:56:14.919007,-1
22:56:14.919007,-9
22:56:14.919007,-1537
22:56:14.919007,-1
22:56:14.919007,-4
22:56:14.919007,-769
22:56:14.919007,-1
22:56:14.919007,-2
22:56:14.919007,767
22:56:14.919007,0
22:56:14.919007,4
22:56:14.919007,-512
22:56:14.919007,-1
22:56:14.919007,-4
22:56:14.919007,1279
22:56:14.919007,0
22:56:14.919007,9
22:56:14.919007,1024
22:56:14.919007,0
22:56:14.919007,-2
22:56:14.919007,255
22:56:14.919007,0
22:56:14.919007,7
22:56:14.919007,4096
22:56:14.919007,0
22:56:14.919007,29
22:56:14.919007,8448
22:56:14.919007,0
22:56:14.919007,36
22:56:14.919007,11776
22:56:14.919007,0
22:56:14.919007,41
22:56:14.919007,5376
22:56:14.919007,0
22:56:14.919007,12
22:56:14.919007,4096
22:56:14.919007,0
22:56:14.919007,19
22:56:15.500973,19
22:56:15.500973,4096
22:56:15.500973,0
22:56:15.500973,12
22:56:15.500973,3584
22:56:15.500973,0
22:56:15.500973,19
22:56:15.500973,4096
22:56:15.500973,0
22:56:15.500973,14
22:56:15.500973,3584
22:56:15.500973,0
22:56:15.500973,21
22:56:15.500973,3584
22:56:15.500973,0
22:56:15.500973,-55
22:56:15.500973,-32001
22:56:15.500973,-1
22:56:15.500973,2
22:56:15.500973,-27648
22:56:15.500973,1
22:56:15.500973,856
22:56:15.500973,-2816
22:56:15.500973,3
22:56:15.500973,693
22:56:15.500973,-26624
22:56:15.500973,0
22:56:15.500973,-106
22:56:15.500973,-12033
22:56:15.500973,-1
22:56:15.500973,-31
22:56:15.500973,-19457
22:56:15.500973,-1
22:56:15.500973,-48
22:56:15.500973,-5889
22:56:15.500973,-1
22:56:15.500973,-43
22:56:15.500973,-8193
22:56:15.500973,-1
22:56:15.500973,-9
22:56:15.500973,-2817
22:56:15.500973,-1
22:56:15.500973,-14
22:56:15.500973,255
22:56:15.500973,0
22:56:15.500973,14
22:56:15.500973,4864
22:56:15.500973,0
22:56:15.500973,24
22:56:15.500973,9216
22:56:15.500973,0
22:56:15.500973,55
22:56:15.500973,17920
22:56:15.500973,0
22:56:15.500973,92
22:56:15.500973,-32256
22:56:15.500973,0
22:56:15.500973,167
22:56:15.500973,-15872
22:56:15.500973,0
22:56:15.500973,223
22:56:15.500973,-3072
22:56:15.500973,0
22:56:15.500973,244
22:56:15.500973,-4096
22:56:15.500973,0
22:56:15.500973,232
22:56:15.500973,-17152
22:56:15.500973,0
22:56:15.500973,128
22:56:15.500973,17920
22:56:15.500973,0
22:56:15.500973,16
22:56:15.500973,-6144
22:56:15.500973,-1
22:56:15.500973,-43
22:56:15.500973,-13825
22:56:15.500973,-1
22:56:15.500973,-70
22:56:15.500973,-16385
22:56:15.500973,-1
22:56:15.500973,-58
22:56:15.500973,-15873
22:56:15.500973,-1
22:56:15.500973,-65
22:56:15.500973,-13313
22:56:15.500973,-1
22:56:15.500973,-46
22:56:15.500973,-10241
22:56:15.500973,-1
22:56:15.500973,-38
22:56:15.500973,-9473
22:56:15.500973,-1
22:56:15.500973,-41
22:56:15.500973,-8193
22:56:15.500973,-1
22:56:15.500973,-31
22:56:15.500973,-9473
22:56:15.500973,-1
22:56:15.500973,-41
22:56:15.500973,-8961
22:56:15.500973,-1
22:56:15.500973,-31
22:56:15.500973,-6401
22:56:15.500973,-1
22:56:15.500973,-31
22:56:15.500973,-7169
22:56:15.500973,-1
22:56:15.500973,-26
22:56:16.045003,-29
22:56:16.045003,-6401
22:56:16.045003,-1
22:56:16.045003,-19
22:56:16.045003,-5121
22:56:16.045003,-1
22:56:16.045003,-26
22:56:16.045003,-5889
22:56:16.045003,-1
22:56:16.045003,-14
22:56:16.045003,-2049
22:56:16.045003,-1
22:56:16.045003,-12
22:56:16.045003,-2049
22:56:16.045003,-1
22:56:16.045003,-9
22:56:16.045003,-2049
22:56:16.045003,-1
22:56:16.045003,-2
22:56:16.045003,767
22:56:16.045003,0
22:56:16.045003,2
22:56:16.045003,3584
22:56:16.045003,0
22:56:16.045003,24
22:56:16.045003,7936
22:56:16.045003,0
22:56:16.045003,41
22:56:16.045003,11776
22:56:16.045003,0
22:56:16.045003,41
22:56:16.045003,6656
22:56:16.045003,0
22:56:16.045003,9
22:56:16.045003,3072
22:56:16.045003,0
22:56:16.045003,16
22:56:16.045003,3584
22:56:16.045003,0
22:56:16.045003,12
22:56:16.045003,4096
22:56:16.045003,0
22:56:16.045003,16
22:56:16.045003,3584
22:56:16.045003,0
22:56:16.045003,16
22:56:16.045003,5376
22:56:16.045003,0
22:56:16.045003,21
22:56:16.045003,6144
22:56:16.045003,0
22:56:16.045003,21
22:56:16.045003,-3584
22:56:16.045003,-1
22:56:16.045003,-99
22:56:16.045003,-31233
22:56:16.045003,-1
22:56:16.045003,106
22:56:16.045003,15360
22:56:16.045003,2
22:56:16.045003,943
22:56:16.045003,26880
22:56:16.045003,3
22:56:16.045003,383
22:56:16.045003,-16128
22:56:16.045003,-1
22:56:16.045003,-97
22:56:16.045003,2047
22:56:16.045003,0
22:56:16.045003,-33
22:56:16.045003,-14593
22:56:16.045003,-1
22:56:16.045003,-9
22:56:16.045003,-769
22:56:16.045003,-1
22:56:16.045003,-14
22:56:16.045003,1279
22:56:16.045003,0
22:56:16.045003,14
22:56:16.045003,4096
22:56:16.045003,0
22:56:16.045003,26
22:56:16.045003,9216
22:56:16.045003,0
22:56:16.045003,41
22:56:16.045003,12800
22:56:16.045003,0
22:56:16.045003,63
22:56:16.045003,20480
22:56:16.045003,0
22:56:16.045003,97
22:56:16.045003,29696
22:56:16.045003,0
22:56:16.045003,140
22:56:16.045003,-21504
22:56:16.045003,0
22:56:16.045003,208
22:56:16.045003,-3584
22:56:16.045003,0
22:56:16.045003,266
22:56:16.045003,5120
22:56:16.045003,1
22:56:16.045003,278
22:56:16.045003,3328
22:56:16.045003,1
22:56:16.045003,235
22:56:16.045003,-19200
22:56:16.045003,0
22:56:16.045003,116
22:56:16.583829,53
22:56:16.583829,1024
22:56:16.583829,0
22:56:16.583829,-26
22:56:16.583829,-12033
22:56:16.583829,-1
22:56:16.583829,-55
22:56:16.583829,-14593
22:56:16.583829,-1
22:56:16.583829,-55
22:56:16.583829,-12033
22:56:16.583829,-1
22:56:16.583829,-36
22:56:16.583829,-5889
22:56:16.583829,-1
22:56:16.583829,-16
22:56:16.583829,-4609
22:56:16.583829,-1
22:56:16.583829,-19
22:56:16.583829,-3329
22:56:16.583829,-1
22:56:16.583829,-14
22:56:16.583829,-3841
22:56:16.583829,-1
22:56:16.583829,-14
22:56:16.583829,-2817
22:56:16.583829,-1
22:56:16.583829,-12
22:56:16.583829,-2817
22:56:16.583829,-1
22:56:16.583829,-12
22:56:16.583829,-1537
22:56:16.583829,-1
22:56:16.583829,-4
22:56:16.583829,-1537
22:56:16.583829,-1
22:56:16.583829,-7
22:56:16.583829,-769
22:56:16.583829,-1
22:56:16.583829,-4
22:56:16.583829,-257
22:56:16.583829,-1
22:56:16.583829,2
22:56:16.583829,1024
22:56:16.583829,0
22:56:16.583829,9
22:56:16.583829,3072
22:56:16.583829,0
22:56:16.583829,14
22:56:16.583829,3584
22:56:16.583829,0
22:56:16.583829,14
22:56:16.583829,3072
22:56:16.583829,0
22:56:16.583829,12
22:56:16.583829,4096
22:56:16.583829,0
22:56:16.583829,16
22:56:16.583829,2304
22:56:16.583829,0
22:56:16.583829,2
22:56:16.583829,512
22:56:16.583829,0
22:56:16.583829,7
22:56:16.583829,3584
22:56:16.583829,0
22:56:16.583829,21
22:56:16.583829,9728
22:56:16.583829,0
22:56:16.583829,50
22:56:16.583829,12288
22:56:16.583829,0
22:56:16.583829,46
22:56:16.583829,9216
22:56:16.583829,0
22:56:16.583829,19
22:56:16.583829,3584
22:56:16.583829,0
22:56:16.583829,19
22:56:16.583829,4096
22:56:16.583829,0
22:56:16.583829,14
22:56:16.583829,4096
22:56:16.583829,0
22:56:16.583829,16
22:56:16.583829,4096
22:56:16.583829,0
22:56:16.583829,16
22:56:16.583829,4096
22:56:16.583829,0
22:56:16.583829,16
22:56:16.583829,4096
22:56:16.583829,0
22:56:16.583829,7
22:56:16.583829,-14080
22:56:16.583829,-1
22:56:16.583829,-138
22:56:16.583829,-14593
22:56:16.583829,-1
22:56:16.583829,295
22:56:16.583829,-512
22:56:16.583829,2
22:56:16.583829,1033
22:56:16.583829,21760
