timestamp,ecg,reconstructed_time
2025-11-07 14:11:36.367406,-43,2025-11-07 14:11:36.367406000
2025-11-07 14:11:36.367406,-12033,2025-11-07 14:11:36.375098308
2025-11-07 14:11:36.367406,-1,2025-11-07 14:11:36.382790615
2025-11-07 14:11:36.367406,-62,2025-11-07 14:11:36.390482923
2025-11-07 14:11:36.367406,-8193,2025-11-07 14:11:36.398175231
2025-11-07 14:11:36.367406,-1,2025-11-07 14:11:36.405867538
2025-11-07 14:11:36.367406,21,2025-11-07 14:11:36.413559846
2025-11-07 14:11:36.367406,5376,2025-11-07 14:11:36.421252154
2025-11-07 14:11:36.367406,0,2025-11-07 14:11:36.428944462
2025-11-07 14:11:36.367406,4,2025-11-07 14:11:36.436636769
2025-11-07 14:11:36.367406,5376,2025-11-07 14:11:36.444329077
2025-11-07 14:11:36.367406,0,2025-11-07 14:11:36.452021385
2025-11-07 14:11:36.367406,26,2025-11-07 14:11:36.459713692
2025-11-07 14:11:36.367406,4096,2025-11-07 14:11:36.467406000
2025-11-07 14:11:36.367406,0,2025-11-07 14:11:36.475098308
2025-11-07 14:11:36.367406,12,2025-11-07 14:11:36.482790615
2025-11-07 14:11:36.367406,3072,2025-11-07 14:11:36.490482923
2025-11-07 14:11:36.367406,0,2025-11-07 14:11:36.498175231
2025-11-07 14:11:36.367406,19,2025-11-07 14:11:36.505867538
2025-11-07 14:11:36.367406,3072,2025-11-07 14:11:36.513559846
2025-11-07 14:11:36.367406,0,2025-11-07 14:11:36.521252154
2025-11-07 14:11:36.367406,0,2025-11-07 14:11:36.528944462
2025-11-07 14:11:36.367406,-29952,2025-11-07 14:11:36.536636769
2025-11-07 14:11:36.367406,0,2025-11-07 14:11:36.544329077
2025-11-07 14:11:36.367406,628,2025-11-07 14:11:36.552021385
2025-11-07 14:11:36.367406,31232,2025-11-07 14:11:36.559713692
2025-11-07 14:11:36.367406,5,2025-11-07 14:11:36.567406000
2025-11-07 14:11:36.367406,1858,2025-11-07 14:11:36.575098308
2025-11-07 14:11:36.367406,16896,2025-11-07 14:11:36.582790615
2025-11-07 14:11:36.367406,5,2025-11-07 14:11:36.590482923
2025-11-07 14:11:36.367406,268,2025-11-07 14:11:36.598175231
2025-11-07 14:11:36.367406,0,2025-11-07 14:11:36.605867538
2025-11-07 14:11:36.367406,-1,2025-11-07 14:11:36.613559846
2025-11-07 14:11:36.367406,-153,2025-11-07 14:11:36.621252154
2025-11-07 14:11:36.367406,30975,2025-11-07 14:11:36.628944462
2025-11-07 14:11:36.367406,-1,2025-11-07 14:11:36.636636769
2025-11-07 14:11:36.367406,-244,2025-11-07 14:11:36.644329077
2025-11-07 14:11:36.367406,8191,2025-11-07 14:11:36.652021385
2025-11-07 14:11:36.367406,-1,2025-11-07 14:11:36.659713692
2025-11-07 14:11:36.367406,-194,2025-11-07 14:11:36.667406000
2025-11-07 14:11:36.367406,9471,2025-11-07 14:11:36.675098308
2025-11-07 14:11:36.367406,-1,2025-11-07 14:11:36.682790615
2025-11-07 14:11:36.367406,-206,2025-11-07 14:11:36.690482923
2025-11-07 14:11:36.367406,21759,2025-11-07 14:11:36.698175231
2025-11-07 14:11:36.367406,-1,2025-11-07 14:11:36.705867538
2025-11-07 14:11:36.367406,-182,2025-11-07 14:11:36.713559846
2025-11-07 14:11:36.367406,15615,2025-11-07 14:11:36.721252154
2025-11-07 14:11:36.367406,-1,2025-11-07 14:11:36.728944462
2025-11-07 14:11:36.367406,-180,2025-11-07 14:11:36.736636769
2025-11-07 14:11:36.367406,26623,2025-11-07 14:11:36.744329077
2025-11-07 14:11:36.367406,-1,2025-11-07 14:11:36.752021385
2025-11-07 14:11:36.367406,-139,2025-11-07 14:11:36.759713692
2025-11-07 14:11:36.367406,30207,2025-11-07 14:11:36.767406000
2025-11-07 14:11:36.367406,-1,2025-11-07 14:11:36.775098308
2025-11-07 14:11:36.367406,-146,2025-11-07 14:11:36.782790615
2025-11-07 14:11:36.367406,30975,2025-11-07 14:11:36.790482923
2025-11-07 14:11:36.367406,-1,2025-11-07 14:11:36.798175231
2025-11-07 14:11:36.367406,-120,2025-11-07 14:11:36.805867538
2025-11-07 14:11:36.367406,-26625,2025-11-07 14:11:36.813559846
2025-11-07 14:11:36.367406,-1,2025-11-07 14:11:36.821252154
2025-11-07 14:11:36.367406,-88,2025-11-07 14:11:36.828944462
2025-11-07 14:11:36.367406,-23553,2025-11-07 14:11:36.836636769
2025-11-07 14:11:36.367406,-1,2025-11-07 14:11:36.844329077
2025-11-07 14:11:36.367406,-96,2025-11-07 14:11:36.852021385
2025-11-07 14:11:36.367406,-20481,2025-11-07 14:11:36.859713692
2025-11-07 14:11:36.367406,-1,2025-11-07 14:11:36.867406000
2025-11-07 14:11:36.367406,-76,2025-11-07 14:11:36.875098308
2025-11-07 14:11:36.367406,-21761,2025-11-07 14:11:36.882790615
2025-11-07 14:11:36.367406,-1,2025-11-07 14:11:36.890482923
2025-11-07 14:11:36.367406,-86,2025-11-07 14:11:36.898175230
2025-11-07 14:11:36.367406,-19201,2025-11-07 14:11:36.905867538
2025-11-07 14:11:36.367406,-1,2025-11-07 14:11:36.913559846
2025-11-07 14:11:36.367406,-91,2025-11-07 14:11:36.921252154
2025-11-07 14:11:36.367406,-25345,2025-11-07 14:11:36.928944462
2025-11-07 14:11:36.367406,-1,2025-11-07 14:11:36.936636769
2025-11-07 14:11:36.367406,-91,2025-11-07 14:11:36.944329077
2025-11-07 14:11:36.367406,-23553,2025-11-07 14:11:36.952021385
2025-11-07 14:11:36.367406,-1,2025-11-07 14:11:36.959713692
2025-11-07 14:11:36.367406,-103,2025-11-07 14:11:36.967406000
2025-11-07 14:11:36.367406,-26113,2025-11-07 14:11:36.975098308
2025-11-07 14:11:36.367406,-1,2025-11-07 14:11:36.982790615
2025-11-07 14:11:36.367406,-93,2025-11-07 14:11:36.990482923
2025-11-07 14:11:36.367406,-18689,2025-11-07 14:11:36.998175231
2025-11-07 14:11:36.367406,-1,2025-11-07 14:11:37.005867538
2025-11-07 14:11:36.367406,-60,2025-11-07 14:11:37.013559846
2025-11-07 14:11:36.367406,-18177,2025-11-07 14:11:37.021252154
2025-11-07 14:11:36.367406,-1,2025-11-07 14:11:37.028944462
2025-11-07 14:11:36.367406,-88,2025-11-07 14:11:37.036636769
2025-11-07 14:11:36.367406,-16897,2025-11-07 14:11:37.044329077
2025-11-07 14:11:36.367406,-1,2025-11-07 14:11:37.052021385
2025-11-07 14:11:36.367406,-45,2025-11-07 14:11:37.059713692
2025-11-07 14:11:36.367406,-14337,2025-11-07 14:11:37.067406000
2025-11-07 14:11:36.367406,-1,2025-11-07 14:11:37.075098308
2025-11-07 14:11:36.367406,-64,2025-11-07 14:11:37.082790615
2025-11-07 14:11:36.367406,-13057,2025-11-07 14:11:37.090482923
2025-11-07 14:11:36.367406,-1,2025-11-07 14:11:37.098175231
2025-11-07 14:11:36.367406,-45,2025-11-07 14:11:37.105867538
2025-11-07 14:11:36.367406,-12545,2025-11-07 14:11:37.113559846
2025-11-07 14:11:36.367406,-1,2025-11-07 14:11:37.121252154
2025-11-07 14:11:36.367406,-60,2025-11-07 14:11:37.128944462
2025-11-07 14:11:36.367406,-13825,2025-11-07 14:11:37.136636769
2025-11-07 14:11:36.367406,-1,2025-11-07 14:11:37.144329077
2025-11-07 14:11:36.367406,-48,2025-11-07 14:11:37.152021385
2025-11-07 14:11:36.367406,-13057,2025-11-07 14:11:37.159713692
2025-11-07 14:11:36.367406,-1,2025-11-07 14:11:37.167406000
2025-11-07 14:11:36.367406,-64,2025-11-07 14:11:37.175098308
2025-11-07 14:11:36.367406,-16129,2025-11-07 14:11:37.182790615
2025-11-07 14:11:36.367406,-1,2025-11-07 14:11:37.190482923
2025-11-07 14:11:36.367406,-57,2025-11-07 14:11:37.198175231
2025-11-07 14:11:36.907994,-67,2025-11-07 14:11:37.205867538
2025-11-07 14:11:36.907994,-22273,2025-11-07 14:11:37.213559846
2025-11-07 14:11:36.907994,-1,2025-11-07 14:11:37.221252154
2025-11-07 14:11:36.907994,-81,2025-11-07 14:11:37.228944462
2025-11-07 14:11:36.907994,-11265,2025-11-07 14:11:37.236636769
2025-11-07 14:11:36.907994,-1,2025-11-07 14:11:37.244329077
2025-11-07 14:11:36.907994,-19,2025-11-07 14:11:37.252021385
2025-11-07 14:11:36.907994,-5889,2025-11-07 14:11:37.259713692
2025-11-07 14:11:36.907994,-1,2025-11-07 14:11:37.267406000
2025-11-07 14:11:36.907994,-36,2025-11-07 14:11:37.275098308
2025-11-07 14:11:36.907994,-8193,2025-11-07 14:11:37.282790615
2025-11-07 14:11:36.907994,-1,2025-11-07 14:11:37.290482923
2025-11-07 14:11:36.907994,-31,2025-11-07 14:11:37.298175231
2025-11-07 14:11:36.907994,-8961,2025-11-07 14:11:37.305867538
2025-11-07 14:11:36.907994,-1,2025-11-07 14:11:37.313559846
2025-11-07 14:11:36.907994,-28,2025-11-07 14:11:37.321252154
2025-11-07 14:11:36.907994,-2049,2025-11-07 14:11:37.328944462
2025-11-07 14:11:36.907994,-1,2025-11-07 14:11:37.336636769
2025-11-07 14:11:36.907994,2,2025-11-07 14:11:37.344329077
2025-11-07 14:11:36.907994,-3584,2025-11-07 14:11:37.352021385
2025-11-07 14:11:36.907994,-1,2025-11-07 14:11:37.359713692
2025-11-07 14:11:36.907994,38,2025-11-07 14:11:37.367406000
2025-11-07 14:11:36.907994,-23040,2025-11-07 14:11:37.375098308
2025-11-07 14:11:36.907994,1,2025-11-07 14:11:37.382790615
2025-11-07 14:11:36.907994,1152,2025-11-07 14:11:37.390482923
2025-11-07 14:11:36.907994,-16384,2025-11-07 14:11:37.398175231
2025-11-07 14:11:36.907994,6,2025-11-07 14:11:37.405867538
2025-11-07 14:11:36.907994,1478,2025-11-07 14:11:37.413559846
2025-11-07 14:11:36.907994,-8192,2025-11-07 14:11:37.421252154
2025-11-07 14:11:36.907994,1,2025-11-07 14:11:37.428944462
2025-11-07 14:11:36.907994,-211,2025-11-07 14:11:37.436636769
2025-11-07 14:11:36.907994,13567,2025-11-07 14:11:37.444329077
2025-11-07 14:11:36.907994,-1,2025-11-07 14:11:37.452021385
2025-11-07 14:11:36.907994,-134,2025-11-07 14:11:37.459713692
2025-11-07 14:11:36.907994,5119,2025-11-07 14:11:37.467406000
2025-11-07 14:11:36.907994,-1,2025-11-07 14:11:37.475098308
2025-11-07 14:11:36.907994,-254,2025-11-07 14:11:37.482790615
2025-11-07 14:11:36.907994,13055,2025-11-07 14:11:37.490482923
2025-11-07 14:11:36.907994,-1,2025-11-07 14:11:37.498175231
2025-11-07 14:11:36.907994,-213,2025-11-07 14:11:37.505867538
2025-11-07 14:11:36.907994,9983,2025-11-07 14:11:37.513559846
2025-11-07 14:11:36.907994,-1,2025-11-07 14:11:37.521252154
2025-11-07 14:11:36.907994,-196,2025-11-07 14:11:37.528944462
2025-11-07 14:11:36.907994,16127,2025-11-07 14:11:37.536636769
2025-11-07 14:11:36.907994,-1,2025-11-07 14:11:37.544329077
2025-11-07 14:11:36.907994,-199,2025-11-07 14:11:37.552021385
2025-11-07 14:11:36.907994,15615,2025-11-07 14:11:37.559713692
2025-11-07 14:11:36.907994,-1,2025-11-07 14:11:37.567406000
2025-11-07 14:11:36.907994,-184,2025-11-07 14:11:37.575098308
2025-11-07 14:11:36.907994,23551,2025-11-07 14:11:37.582790615
2025-11-07 14:11:36.907994,-1,2025-11-07 14:11:37.590482923
2025-11-07 14:11:36.907994,-146,2025-11-07 14:11:37.598175231
2025-11-07 14:11:36.907994,30207,2025-11-07 14:11:37.605867538
2025-11-07 14:11:36.907994,-1,2025-11-07 14:11:37.613559846
2025-11-07 14:11:36.907994,-129,2025-11-07 14:11:37.621252154
2025-11-07 14:11:36.907994,-28417,2025-11-07 14:11:37.628944462
2025-11-07 14:11:36.907994,-1,2025-11-07 14:11:37.636636769
2025-11-07 14:11:36.907994,-110,2025-11-07 14:11:37.644329077
2025-11-07 14:11:36.907994,-28417,2025-11-07 14:11:37.652021385
2025-11-07 14:11:36.907994,-1,2025-11-07 14:11:37.659713692
2025-11-07 14:11:36.907994,-110,2025-11-07 14:11:37.667406000
2025-11-07 14:11:36.907994,-25345,2025-11-07 14:11:37.675098308
2025-11-07 14:11:36.907994,-1,2025-11-07 14:11:37.682790615
2025-11-07 14:11:36.907994,-81,2025-11-07 14:11:37.690482923
2025-11-07 14:11:36.907994,-18689,2025-11-07 14:11:37.698175231
2025-11-07 14:11:36.907994,-1,2025-11-07 14:11:37.705867538
2025-11-07 14:11:36.907994,-84,2025-11-07 14:11:37.713559846
2025-11-07 14:11:36.907994,-21249,2025-11-07 14:11:37.721252154
2025-11-07 14:11:36.907994,-1,2025-11-07 14:11:37.728944462
2025-11-07 14:11:36.907994,-79,2025-11-07 14:11:37.736636769
2025-11-07 14:11:36.907994,-22273,2025-11-07 14:11:37.744329077
2025-11-07 14:11:36.907994,-1,2025-11-07 14:11:37.752021385
2025-11-07 14:11:36.907994,-98,2025-11-07 14:11:37.759713692
2025-11-07 14:11:36.907994,-24833,2025-11-07 14:11:37.767406000
2025-11-07 14:11:36.907994,-1,2025-11-07 14:11:37.775098308
2025-11-07 14:11:36.907994,-105,2025-11-07 14:11:37.782790615
2025-11-07 14:11:36.907994,-31489,2025-11-07 14:11:37.790482923
2025-11-07 14:11:36.907994,-1,2025-11-07 14:11:37.798175231
2025-11-07 14:11:36.907994,-124,2025-11-07 14:11:37.805867538
2025-11-07 14:11:36.907994,-24833,2025-11-07 14:11:37.813559846
2025-11-07 14:11:36.907994,-1,2025-11-07 14:11:37.821252154
2025-11-07 14:11:36.907994,-91,2025-11-07 14:11:37.828944462
2025-11-07 14:11:36.907994,-26113,2025-11-07 14:11:37.836636769
2025-11-07 14:11:36.907994,-1,2025-11-07 14:11:37.844329077
2025-11-07 14:11:36.907994,-100,2025-11-07 14:11:37.852021385
2025-11-07 14:11:36.907994,-21249,2025-11-07 14:11:37.859713692
2025-11-07 14:11:36.907994,-1,2025-11-07 14:11:37.867406000
2025-11-07 14:11:36.907994,-76,2025-11-07 14:11:37.875098308
2025-11-07 14:11:36.907994,-21249,2025-11-07 14:11:37.882790615
2025-11-07 14:11:36.907994,-1,2025-11-07 14:11:37.890482923
2025-11-07 14:11:36.907994,-86,2025-11-07 14:11:37.898175230
2025-11-07 14:11:36.907994,-19969,2025-11-07 14:11:37.905867538
2025-11-07 14:11:36.907994,-1,2025-11-07 14:11:37.913559846
2025-11-07 14:11:36.907994,-72,2025-11-07 14:11:37.921252154
2025-11-07 14:11:36.907994,-16129,2025-11-07 14:11:37.928944462
2025-11-07 14:11:36.907994,-1,2025-11-07 14:11:37.936636769
2025-11-07 14:11:36.907994,-64,2025-11-07 14:11:37.944329077
2025-11-07 14:11:36.907994,-15617,2025-11-07 14:11:37.952021385
2025-11-07 14:11:36.907994,-1,2025-11-07 14:11:37.959713692
2025-11-07 14:11:36.907994,-57,2025-11-07 14:11:37.967406000
2025-11-07 14:11:36.907994,-15105,2025-11-07 14:11:37.975098308
2025-11-07 14:11:36.907994,-1,2025-11-07 14:11:37.982790615
2025-11-07 14:11:36.907994,-64,2025-11-07 14:11:37.990482923
2025-11-07 14:11:36.907994,-16897,2025-11-07 14:11:37.998175231
2025-11-07 14:11:36.907994,-1,2025-11-07 14:11:38.005867538
2025-11-07 14:11:36.907994,-72,2025-11-07 14:11:38.013559846
2025-11-07 14:11:36.907994,-21249,2025-11-07 14:11:38.021252154
2025-11-07 14:11:36.907994,-1,2025-11-07 14:11:38.028944462
2025-11-07 14:11:36.907994,-91,2025-11-07 14:11:38.036636769
2025-11-07 14:11:37.447468,-79,2025-11-07 14:11:38.044329077
2025-11-07 14:11:37.447468,-13825,2025-11-07 14:11:38.052021385
2025-11-07 14:11:37.447468,-1,2025-11-07 14:11:38.059713692
2025-11-07 14:11:37.447468,-36,2025-11-07 14:11:38.067406000
2025-11-07 14:11:37.447468,-8961,2025-11-07 14:11:38.075098308
2025-11-07 14:11:37.447468,-1,2025-11-07 14:11:38.082790615
2025-11-07 14:11:37.447468,-50,2025-11-07 14:11:38.090482923
2025-11-07 14:11:37.447468,-12545,2025-11-07 14:11:38.098175231
2025-11-07 14:11:37.447468,-1,2025-11-07 14:11:38.105867538
2025-11-07 14:11:37.447468,-40,2025-11-07 14:11:38.113559846
2025-11-07 14:11:37.447468,-10753,2025-11-07 14:11:38.121252154
2025-11-07 14:11:37.447468,-1,2025-11-07 14:11:38.128944462
2025-11-07 14:11:37.447468,-52,2025-11-07 14:11:38.136636769
2025-11-07 14:11:37.447468,-11265,2025-11-07 14:11:38.144329077
2025-11-07 14:11:37.447468,-1,2025-11-07 14:11:38.152021385
2025-11-07 14:11:37.447468,-52,2025-11-07 14:11:38.159713692
2025-11-07 14:11:37.447468,-19969,2025-11-07 14:11:38.167406000
2025-11-07 14:11:37.447468,-1,2025-11-07 14:11:38.175098308
2025-11-07 14:11:37.447468,31,2025-11-07 14:11:38.182790615
2025-11-07 14:11:37.447468,-1024,2025-11-07 14:11:38.190482923
2025-11-07 14:11:37.447468,1,2025-11-07 14:11:38.198175231
2025-11-07 14:11:37.447468,1243,2025-11-07 14:11:38.205867538
2025-11-07 14:11:37.447468,24576,2025-11-07 14:11:38.213559846
2025-11-07 14:11:37.447468,6,2025-11-07 14:11:38.221252154
2025-11-07 14:11:37.447468,1113,2025-11-07 14:11:38.228944462
2025-11-07 14:11:37.447468,26880,2025-11-07 14:11:38.236636769
2025-11-07 14:11:37.447468,0,2025-11-07 14:11:38.244329077
2025-11-07 14:11:37.447468,-357,2025-11-07 14:11:38.252021385
2025-11-07 14:11:37.447468,1279,2025-11-07 14:11:38.259713692
2025-11-07 14:11:37.447468,-1,2025-11-07 14:11:38.267406000
2025-11-07 14:11:37.447468,-261,2025-11-07 14:11:38.275098308
2025-11-07 14:11:37.447468,-29953,2025-11-07 14:11:38.282790615
2025-11-07 14:11:37.447468,-2,2025-11-07 14:11:38.290482923
2025-11-07 14:11:37.447468,-348,2025-11-07 14:11:38.298175231
2025-11-07 14:11:37.447468,-14593,2025-11-07 14:11:38.305867538
2025-11-07 14:11:37.447468,-2,2025-11-07 14:11:38.313559846
2025-11-07 14:11:37.447468,-336,2025-11-07 14:11:38.321252154
2025-11-07 14:11:37.447468,-17665,2025-11-07 14:11:38.328944462
2025-11-07 14:11:37.447468,-2,2025-11-07 14:11:38.336636769
2025-11-07 14:11:37.447468,-319,2025-11-07 14:11:38.344329077
2025-11-07 14:11:37.447468,-17153,2025-11-07 14:11:38.352021385
2025-11-07 14:11:37.447468,-2,2025-11-07 14:11:38.359713692
2025-11-07 14:11:37.447468,-312,2025-11-07 14:11:38.367406000
2025-11-07 14:11:37.447468,-10241,2025-11-07 14:11:38.375098308
2025-11-07 14:11:37.447468,-2,2025-11-07 14:11:38.382790615
2025-11-07 14:11:37.447468,-292,2025-11-07 14:11:38.390482923
2025-11-07 14:11:37.447468,-5889,2025-11-07 14:11:38.398175231
2025-11-07 14:11:37.447468,-2,2025-11-07 14:11:38.405867538
2025-11-07 14:11:37.447468,-261,2025-11-07 14:11:38.413559846
2025-11-07 14:11:37.447468,2047,2025-11-07 14:11:38.421252154
2025-11-07 14:11:37.447468,-1,2025-11-07 14:11:38.428944462
2025-11-07 14:11:37.447468,-244,2025-11-07 14:11:38.436636769
2025-11-07 14:11:37.447468,5631,2025-11-07 14:11:38.444329077
2025-11-07 14:11:37.447468,-1,2025-11-07 14:11:38.452021385
2025-11-07 14:11:37.447468,-218,2025-11-07 14:11:38.459713692
2025-11-07 14:11:37.447468,14335,2025-11-07 14:11:38.467406000
2025-11-07 14:11:37.447468,-1,2025-11-07 14:11:38.475098308
2025-11-07 14:11:37.447468,-189,2025-11-07 14:11:38.482790615
2025-11-07 14:11:37.447468,17407,2025-11-07 14:11:38.490482923
2025-11-07 14:11:37.447468,-1,2025-11-07 14:11:38.498175231
2025-11-07 14:11:37.447468,-189,2025-11-07 14:11:38.505867538
2025-11-07 14:11:37.447468,19199,2025-11-07 14:11:38.513559846
2025-11-07 14:11:37.447468,-1,2025-11-07 14:11:38.521252154
2025-11-07 14:11:37.447468,-177,2025-11-07 14:11:38.528944462
2025-11-07 14:11:37.447468,20479,2025-11-07 14:11:38.536636769
2025-11-07 14:11:37.447468,-1,2025-11-07 14:11:38.544329077
2025-11-07 14:11:37.447468,-175,2025-11-07 14:11:38.552021385
2025-11-07 14:11:37.447468,20479,2025-11-07 14:11:38.559713692
2025-11-07 14:11:37.447468,-1,2025-11-07 14:11:38.567406000
2025-11-07 14:11:37.447468,-184,2025-11-07 14:11:38.575098308
2025-11-07 14:11:37.447468,18687,2025-11-07 14:11:38.582790615
2025-11-07 14:11:37.447468,-1,2025-11-07 14:11:38.590482923
2025-11-07 14:11:37.447468,-180,2025-11-07 14:11:38.598175231
2025-11-07 14:11:37.447468,20479,2025-11-07 14:11:38.605867538
2025-11-07 14:11:37.447468,-1,2025-11-07 14:11:38.613559846
2025-11-07 14:11:37.447468,-177,2025-11-07 14:11:38.621252154
2025-11-07 14:11:37.447468,20991,2025-11-07 14:11:38.628944462
2025-11-07 14:11:37.447468,-1,2025-11-07 14:11:38.636636769
2025-11-07 14:11:37.447468,-170,2025-11-07 14:11:38.644329077
2025-11-07 14:11:37.447468,25343,2025-11-07 14:11:38.652021385
2025-11-07 14:11:37.447468,-1,2025-11-07 14:11:38.659713692
2025-11-07 14:11:37.447468,-146,2025-11-07 14:11:38.667406000
2025-11-07 14:11:37.447468,28927,2025-11-07 14:11:38.675098308
2025-11-07 14:11:37.447468,-1,2025-11-07 14:11:38.682790615
2025-11-07 14:11:37.447468,-139,2025-11-07 14:11:38.690482923
2025-11-07 14:11:37.447468,-31489,2025-11-07 14:11:38.698175231
2025-11-07 14:11:37.447468,-1,2025-11-07 14:11:38.705867538
2025-11-07 14:11:37.447468,-117,2025-11-07 14:11:38.713559846
2025-11-07 14:11:37.447468,-30465,2025-11-07 14:11:38.721252154
2025-11-07 14:11:37.447468,-1,2025-11-07 14:11:38.728944462
2025-11-07 14:11:37.447468,-115,2025-11-07 14:11:38.736636769
2025-11-07 14:11:37.447468,-27905,2025-11-07 14:11:38.744329077
2025-11-07 14:11:37.447468,-1,2025-11-07 14:11:38.752021385
2025-11-07 14:11:37.447468,-112,2025-11-07 14:11:38.759713692
2025-11-07 14:11:37.447468,-27905,2025-11-07 14:11:38.767406000
2025-11-07 14:11:37.447468,-1,2025-11-07 14:11:38.775098308
2025-11-07 14:11:37.447468,-103,2025-11-07 14:11:38.782790615
2025-11-07 14:11:37.447468,-25345,2025-11-07 14:11:38.790482923
2025-11-07 14:11:37.447468,-1,2025-11-07 14:11:38.798175231
2025-11-07 14:11:37.447468,-100,2025-11-07 14:11:38.805867538
2025-11-07 14:11:37.447468,-25345,2025-11-07 14:11:38.813559846
2025-11-07 14:11:37.447468,-1,2025-11-07 14:11:38.821252154
2025-11-07 14:11:37.447468,-103,2025-11-07 14:11:38.828944462
2025-11-07 14:11:37.447468,-27393,2025-11-07 14:11:38.836636769
2025-11-07 14:11:37.447468,-1,2025-11-07 14:11:38.844329077
2025-11-07 14:11:37.447468,-115,2025-11-07 14:11:38.852021385
2025-11-07 14:11:37.447468,-30465,2025-11-07 14:11:38.859713692
2025-11-07 14:11:37.447468,-1,2025-11-07 14:11:38.867406000
2025-11-07 14:11:37.447468,-98,2025-11-07 14:11:38.875098308
2025-11-07 14:11:38.016257,-67,2025-11-07 14:11:38.882790615
2025-11-07 14:11:38.016257,-13825,2025-11-07 14:11:38.890482923
2025-11-07 14:11:38.016257,-1,2025-11-07 14:11:38.898175230
2025-11-07 14:11:38.016257,-57,2025-11-07 14:11:38.905867538
2025-11-07 14:11:38.016257,-16129,2025-11-07 14:11:38.913559846
2025-11-07 14:11:38.016257,-1,2025-11-07 14:11:38.921252154
2025-11-07 14:11:38.016257,-60,2025-11-07 14:11:38.928944462
2025-11-07 14:11:38.016257,-12033,2025-11-07 14:11:38.936636769
2025-11-07 14:11:38.016257,-1,2025-11-07 14:11:38.944329077
2025-11-07 14:11:38.016257,-38,2025-11-07 14:11:38.952021385
2025-11-07 14:11:38.016257,-7681,2025-11-07 14:11:38.959713692
2025-11-07 14:11:38.016257,-1,2025-11-07 14:11:38.967406000
2025-11-07 14:11:38.016257,-33,2025-11-07 14:11:38.975098308
2025-11-07 14:11:38.016257,-11265,2025-11-07 14:11:38.982790615
2025-11-07 14:11:38.016257,-1,2025-11-07 14:11:38.990482923
2025-11-07 14:11:38.016257,-48,2025-11-07 14:11:38.998175231
2025-11-07 14:11:38.016257,24063,2025-11-07 14:11:39.005867538
2025-11-07 14:11:38.016257,0,2025-11-07 14:11:39.013559846
2025-11-07 14:11:38.016257,602,2025-11-07 14:11:39.021252154
2025-11-07 14:11:38.016257,28672,2025-11-07 14:11:39.028944462
2025-11-07 14:11:38.016257,5,2025-11-07 14:11:39.036636769
2025-11-07 14:11:38.016257,1838,2025-11-07 14:11:39.044329077
2025-11-07 14:11:38.016257,9472,2025-11-07 14:11:39.052021385
2025-11-07 14:11:38.016257,5,2025-11-07 14:11:39.059713692
2025-11-07 14:11:38.016257,237,2025-11-07 14:11:39.067406000
2025-11-07 14:11:38.016257,-9216,2025-11-07 14:11:39.075098308
2025-11-07 14:11:38.016257,-2,2025-11-07 14:11:39.082790615
2025-11-07 14:11:38.016257,-184,2025-11-07 14:11:39.090482923
2025-11-07 14:11:38.016257,21759,2025-11-07 14:11:39.098175231
2025-11-07 14:11:38.016257,-1,2025-11-07 14:11:39.105867538
2025-11-07 14:11:38.016257,-295,2025-11-07 14:11:39.113559846
2025-11-07 14:11:38.016257,-3585,2025-11-07 14:11:39.121252154
2025-11-07 14:11:38.016257,-2,2025-11-07 14:11:39.128944462
2025-11-07 14:11:38.016257,-228,2025-11-07 14:11:39.136636769
2025-11-07 14:11:38.016257,2559,2025-11-07 14:11:39.144329077
2025-11-07 14:11:38.016257,-1,2025-11-07 14:11:39.152021385
2025-11-07 14:11:38.016257,-244,2025-11-07 14:11:39.159713692
2025-11-07 14:11:38.016257,7423,2025-11-07 14:11:39.167406000
2025-11-07 14:11:38.016257,-1,2025-11-07 14:11:39.175098308
2025-11-07 14:11:38.016257,-223,2025-11-07 14:11:39.182790615
2025-11-07 14:11:38.016257,11263,2025-11-07 14:11:39.190482923
2025-11-07 14:11:38.016257,-1,2025-11-07 14:11:39.198175231
2025-11-07 14:11:38.016257,-204,2025-11-07 14:11:39.205867538
2025-11-07 14:11:38.016257,15615,2025-11-07 14:11:39.213559846
2025-11-07 14:11:38.016257,-1,2025-11-07 14:11:39.221252154
2025-11-07 14:11:38.016257,-189,2025-11-07 14:11:39.228944462
2025-11-07 14:11:38.016257,18687,2025-11-07 14:11:39.236636769
2025-11-07 14:11:38.016257,-1,2025-11-07 14:11:39.244329077
2025-11-07 14:11:38.016257,-180,2025-11-07 14:11:39.252021385
2025-11-07 14:11:38.016257,22271,2025-11-07 14:11:39.259713692
2025-11-07 14:11:38.016257,-1,2025-11-07 14:11:39.267406000
2025-11-07 14:11:38.016257,-158,2025-11-07 14:11:39.275098308
2025-11-07 14:11:38.016257,27135,2025-11-07 14:11:39.282790615
2025-11-07 14:11:38.016257,-1,2025-11-07 14:11:39.290482923
2025-11-07 14:11:38.016257,-141,2025-11-07 14:11:39.298175231
2025-11-07 14:11:38.016257,32767,2025-11-07 14:11:39.305867538
2025-11-07 14:11:38.016257,-1,2025-11-07 14:11:39.313559846
2025-11-07 14:11:38.016257,-122,2025-11-07 14:11:39.321252154
2025-11-07 14:11:38.016257,-30465,2025-11-07 14:11:39.328944462
2025-11-07 14:11:38.016257,-1,2025-11-07 14:11:39.336636769
2025-11-07 14:11:38.016257,-117,2025-11-07 14:11:39.344329077
2025-11-07 14:11:38.016257,-30465,2025-11-07 14:11:39.352021385
2025-11-07 14:11:38.016257,-1,2025-11-07 14:11:39.359713692
2025-11-07 14:11:38.016257,-117,2025-11-07 14:11:39.367406000
2025-11-07 14:11:38.016257,-27905,2025-11-07 14:11:39.375098308
2025-11-07 14:11:38.016257,-1,2025-11-07 14:11:39.382790615
2025-11-07 14:11:38.016257,-108,2025-11-07 14:11:39.390482923
2025-11-07 14:11:38.016257,-28417,2025-11-07 14:11:39.398175231
2025-11-07 14:11:38.016257,-1,2025-11-07 14:11:39.405867538
2025-11-07 14:11:38.016257,-117,2025-11-07 14:11:39.413559846
2025-11-07 14:11:38.016257,-30465,2025-11-07 14:11:39.421252154
2025-11-07 14:11:38.016257,-1,2025-11-07 14:11:39.428944462
2025-11-07 14:11:38.016257,-122,2025-11-07 14:11:39.436636769
2025-11-07 14:11:38.016257,-30465,2025-11-07 14:11:39.444329077
2025-11-07 14:11:38.016257,-1,2025-11-07 14:11:39.452021385
2025-11-07 14:11:38.016257,-115,2025-11-07 14:11:39.459713692
2025-11-07 14:11:38.016257,-27905,2025-11-07 14:11:39.467406000
2025-11-07 14:11:38.016257,-1,2025-11-07 14:11:39.475098308
2025-11-07 14:11:38.016257,-110,2025-11-07 14:11:39.482790615
2025-11-07 14:11:38.016257,-27905,2025-11-07 14:11:39.490482923
2025-11-07 14:11:38.016257,-1,2025-11-07 14:11:39.498175231
2025-11-07 14:11:38.016257,-103,2025-11-07 14:11:39.505867538
2025-11-07 14:11:38.016257,-24321,2025-11-07 14:11:39.513559846
2025-11-07 14:11:38.016257,-1,2025-11-07 14:11:39.521252154
2025-11-07 14:11:38.016257,-93,2025-11-07 14:11:39.528944462
2025-11-07 14:11:38.016257,-23041,2025-11-07 14:11:39.536636769
2025-11-07 14:11:38.016257,-1,2025-11-07 14:11:39.544329077
2025-11-07 14:11:38.016257,-81,2025-11-07 14:11:39.552021385
2025-11-07 14:11:38.016257,-17409,2025-11-07 14:11:39.559713692
2025-11-07 14:11:38.016257,-1,2025-11-07 14:11:39.567406000
2025-11-07 14:11:38.016257,-69,2025-11-07 14:11:39.575098308
2025-11-07 14:11:38.016257,-19201,2025-11-07 14:11:39.582790615
2025-11-07 14:11:38.016257,-1,2025-11-07 14:11:39.590482923
2025-11-07 14:11:38.016257,-69,2025-11-07 14:11:39.598175231
2025-11-07 14:11:38.016257,-16129,2025-11-07 14:11:39.605867538
2025-11-07 14:11:38.016257,-1,2025-11-07 14:11:39.613559846
2025-11-07 14:11:38.016257,-64,2025-11-07 14:11:39.621252154
2025-11-07 14:11:38.016257,-16129,2025-11-07 14:11:39.628944462
2025-11-07 14:11:38.016257,-1,2025-11-07 14:11:39.636636769
2025-11-07 14:11:38.016257,-64,2025-11-07 14:11:39.644329077
2025-11-07 14:11:38.016257,-16129,2025-11-07 14:11:39.652021385
2025-11-07 14:11:38.016257,-1,2025-11-07 14:11:39.659713692
2025-11-07 14:11:38.016257,-67,2025-11-07 14:11:39.667406000
2025-11-07 14:11:38.016257,-14337,2025-11-07 14:11:39.675098308
2025-11-07 14:11:38.016257,-1,2025-11-07 14:11:39.682790615
2025-11-07 14:11:38.016257,-52,2025-11-07 14:11:39.690482923
2025-11-07 14:11:38.016257,-15105,2025-11-07 14:11:39.698175231
2025-11-07 14:11:38.016257,-1,2025-11-07 14:11:39.705867538
2025-11-07 14:11:38.016257,-60,2025-11-07 14:11:39.713559846
2025-11-07 14:11:38.555246,-55,2025-11-07 14:11:39.721252154
2025-11-07 14:11:38.555246,-16129,2025-11-07 14:11:39.728944462
2025-11-07 14:11:38.555246,-1,2025-11-07 14:11:39.736636769
2025-11-07 14:11:38.555246,-72,2025-11-07 14:11:39.744329077
2025-11-07 14:11:38.555246,-18689,2025-11-07 14:11:39.752021385
2025-11-07 14:11:38.555246,-1,2025-11-07 14:11:39.759713692
2025-11-07 14:11:38.555246,-74,2025-11-07 14:11:39.767406000
2025-11-07 14:11:38.555246,-14337,2025-11-07 14:11:39.775098308
2025-11-07 14:11:38.555246,-1,2025-11-07 14:11:39.782790615
2025-11-07 14:11:38.555246,-28,2025-11-07 14:11:39.790482923
2025-11-07 14:11:38.555246,-2049,2025-11-07 14:11:39.798175231
2025-11-07 14:11:38.555246,-1,2025-11-07 14:11:39.805867538
2025-11-07 14:11:38.555246,2,2025-11-07 14:11:39.813559846
2025-11-07 14:11:38.555246,512,2025-11-07 14:11:39.821252154
2025-11-07 14:11:38.555246,0,2025-11-07 14:11:39.828944462
2025-11-07 14:11:38.555246,-19,2025-11-07 14:11:39.836636769
2025-11-07 14:11:38.555246,-5889,2025-11-07 14:11:39.844329077
2025-11-07 14:11:38.555246,-1,2025-11-07 14:11:39.852021385
2025-11-07 14:11:38.555246,-12,2025-11-07 14:11:39.859713692
2025-11-07 14:11:38.555246,-3329,2025-11-07 14:11:39.867406000
2025-11-07 14:11:38.555246,-1,2025-11-07 14:11:39.875098308
2025-11-07 14:11:38.555246,-21,2025-11-07 14:11:39.882790615
2025-11-07 14:11:38.555246,-5889,2025-11-07 14:11:39.890482923
2025-11-07 14:11:38.555246,-1,2025-11-07 14:11:39.898175230
2025-11-07 14:11:38.555246,-36,2025-11-07 14:11:39.905867538
2025-11-07 14:11:38.555246,-6913,2025-11-07 14:11:39.913559846
2025-11-07 14:11:38.555246,-1,2025-11-07 14:11:39.921252154
2025-11-07 14:11:38.555246,187,2025-11-07 14:11:39.928944462
2025-11-07 14:11:38.555246,7936,2025-11-07 14:11:39.936636769
2025-11-07 14:11:38.555246,3,2025-11-07 14:11:39.944329077
2025-11-07 14:11:38.555246,1584,2025-11-07 14:11:39.952021385
2025-11-07 14:11:38.555246,11264,2025-11-07 14:11:39.959713692
2025-11-07 14:11:38.555246,7,2025-11-07 14:11:39.967406000
2025-11-07 14:11:38.555246,1094,2025-11-07 14:11:39.975098308
2025-11-07 14:11:38.555246,10240,2025-11-07 14:11:39.982790615
2025-11-07 14:11:38.555246,0,2025-11-07 14:11:39.990482923
2025-11-07 14:11:38.555246,-307,2025-11-07 14:11:39.998175231
2025-11-07 14:11:38.555246,23551,2025-11-07 14:11:40.005867538
2025-11-07 14:11:38.555246,-1,2025-11-07 14:11:40.013559846
2025-11-07 14:11:38.555246,-204,2025-11-07 14:11:40.021252154
2025-11-07 14:11:38.555246,-9729,2025-11-07 14:11:40.028944462
2025-11-07 14:11:38.555246,-2,2025-11-07 14:11:40.036636769
2025-11-07 14:11:38.555246,-240,2025-11-07 14:11:40.044329077
2025-11-07 14:11:38.555246,11263,2025-11-07 14:11:40.052021385
2025-11-07 14:11:38.555246,-1,2025-11-07 14:11:40.059713692
2025-11-07 14:11:38.555246,-240,2025-11-07 14:11:40.067406000
2025-11-07 14:11:38.555246,6399,2025-11-07 14:11:40.075098308
2025-11-07 14:11:38.555246,-1,2025-11-07 14:11:40.082790615
2025-11-07 14:11:38.555246,-218,2025-11-07 14:11:40.090482923
2025-11-07 14:11:38.555246,9471,2025-11-07 14:11:40.098175231
2025-11-07 14:11:38.555246,-1,2025-11-07 14:11:40.105867538
2025-11-07 14:11:38.555246,-218,2025-11-07 14:11:40.113559846
2025-11-07 14:11:38.555246,12543,2025-11-07 14:11:40.121252154
2025-11-07 14:11:38.555246,-1,2025-11-07 14:11:40.128944462
2025-11-07 14:11:38.555246,-196,2025-11-07 14:11:40.136636769
2025-11-07 14:11:38.555246,17407,2025-11-07 14:11:40.144329077
2025-11-07 14:11:38.555246,-1,2025-11-07 14:11:40.152021385
2025-11-07 14:11:38.555246,-184,2025-11-07 14:11:40.159713692
2025-11-07 14:11:38.555246,21759,2025-11-07 14:11:40.167406000
2025-11-07 14:11:38.555246,-1,2025-11-07 14:11:40.175098308
2025-11-07 14:11:38.555246,-156,2025-11-07 14:11:40.182790615
2025-11-07 14:11:38.555246,25855,2025-11-07 14:11:40.190482923
2025-11-07 14:11:38.555246,-1,2025-11-07 14:11:40.198175231
2025-11-07 14:11:38.555246,-165,2025-11-07 14:11:40.205867538
2025-11-07 14:11:38.555246,27903,2025-11-07 14:11:40.213559846
2025-11-07 14:11:38.555246,-1,2025-11-07 14:11:40.221252154
2025-11-07 14:11:38.555246,-120,2025-11-07 14:11:40.228944462
2025-11-07 14:11:38.555246,-29185,2025-11-07 14:11:40.236636769
2025-11-07 14:11:38.555246,-1,2025-11-07 14:11:40.244329077
2025-11-07 14:11:38.555246,-117,2025-11-07 14:11:40.252021385
2025-11-07 14:11:38.555246,-27905,2025-11-07 14:11:40.259713692
2025-11-07 14:11:38.555246,-1,2025-11-07 14:11:40.267406000
2025-11-07 14:11:38.555246,-108,2025-11-07 14:11:40.275098308
2025-11-07 14:11:38.555246,-27905,2025-11-07 14:11:40.282790615
2025-11-07 14:11:38.555246,-1,2025-11-07 14:11:40.290482923
2025-11-07 14:11:38.555246,-108,2025-11-07 14:11:40.298175231
2025-11-07 14:11:38.555246,-26625,2025-11-07 14:11:40.305867538
2025-11-07 14:11:38.555246,-1,2025-11-07 14:11:40.313559846
2025-11-07 14:11:38.555246,-108,2025-11-07 14:11:40.321252154
2025-11-07 14:11:38.555246,-28417,2025-11-07 14:11:40.328944462
2025-11-07 14:11:38.555246,-1,2025-11-07 14:11:40.336636769
2025-11-07 14:11:38.555246,-120,2025-11-07 14:11:40.344329077
2025-11-07 14:11:38.555246,-31489,2025-11-07 14:11:40.352021385
2025-11-07 14:11:38.555246,-1,2025-11-07 14:11:40.359713692
2025-11-07 14:11:38.555246,-122,2025-11-07 14:11:40.367406000
2025-11-07 14:11:38.555246,-28417,2025-11-07 14:11:40.375098308
2025-11-07 14:11:38.555246,-1,2025-11-07 14:11:40.382790615
2025-11-07 14:11:38.555246,-105,2025-11-07 14:11:40.390482923
2025-11-07 14:11:38.555246,-26113,2025-11-07 14:11:40.398175231
2025-11-07 14:11:38.555246,-1,2025-11-07 14:11:40.405867538
2025-11-07 14:11:38.555246,-96,2025-11-07 14:11:40.413559846
2025-11-07 14:11:38.555246,-23041,2025-11-07 14:11:40.421252154
2025-11-07 14:11:38.555246,-1,2025-11-07 14:11:40.428944462
2025-11-07 14:11:38.555246,-86,2025-11-07 14:11:40.436636769
2025-11-07 14:11:38.555246,-19969,2025-11-07 14:11:40.444329077
2025-11-07 14:11:38.555246,-1,2025-11-07 14:11:40.452021385
2025-11-07 14:11:38.555246,-76,2025-11-07 14:11:40.459713692
2025-11-07 14:11:38.555246,-18177,2025-11-07 14:11:40.467406000
2025-11-07 14:11:38.555246,-1,2025-11-07 14:11:40.475098308
2025-11-07 14:11:38.555246,-69,2025-11-07 14:11:40.482790615
2025-11-07 14:11:38.555246,-19201,2025-11-07 14:11:40.490482923
2025-11-07 14:11:38.555246,-1,2025-11-07 14:11:40.498175231
2025-11-07 14:11:38.555246,-79,2025-11-07 14:11:40.505867538
2025-11-07 14:11:38.555246,-18689,2025-11-07 14:11:40.513559846
2025-11-07 14:11:38.555246,-1,2025-11-07 14:11:40.521252154
2025-11-07 14:11:38.555246,-64,2025-11-07 14:11:40.528944462
2025-11-07 14:11:38.555246,-15617,2025-11-07 14:11:40.536636769
2025-11-07 14:11:38.555246,-1,2025-11-07 14:11:40.544329077
2025-11-07 14:11:38.555246,-64,2025-11-07 14:11:40.552021385
2025-11-07 14:11:39.127342,-62,2025-11-07 14:11:40.559713692
2025-11-07 14:11:39.127342,-14337,2025-11-07 14:11:40.567406000
2025-11-07 14:11:39.127342,-1,2025-11-07 14:11:40.575098308
2025-11-07 14:11:39.127342,-55,2025-11-07 14:11:40.582790615
2025-11-07 14:11:39.127342,-12033,2025-11-07 14:11:40.590482923
2025-11-07 14:11:39.127342,-1,2025-11-07 14:11:40.598175231
2025-11-07 14:11:39.127342,-38,2025-11-07 14:11:40.605867538
2025-11-07 14:11:39.127342,-6913,2025-11-07 14:11:40.613559846
2025-11-07 14:11:39.127342,-1,2025-11-07 14:11:40.621252154
2025-11-07 14:11:39.127342,-21,2025-11-07 14:11:40.628944462
2025-11-07 14:11:39.127342,-6401,2025-11-07 14:11:40.636636769
2025-11-07 14:11:39.127342,-1,2025-11-07 14:11:40.644329077
2025-11-07 14:11:39.127342,-31,2025-11-07 14:11:40.652021385
2025-11-07 14:11:39.127342,-6401,2025-11-07 14:11:40.659713692
2025-11-07 14:11:39.127342,-1,2025-11-07 14:11:40.667406000
2025-11-07 14:11:39.127342,-21,2025-11-07 14:11:40.675098308
2025-11-07 14:11:39.127342,-6401,2025-11-07 14:11:40.682790615
2025-11-07 14:11:39.127342,-1,2025-11-07 14:11:40.690482923
2025-11-07 14:11:39.127342,-31,2025-11-07 14:11:40.698175231
2025-11-07 14:11:39.127342,-7681,2025-11-07 14:11:40.705867538
2025-11-07 14:11:39.127342,-1,2025-11-07 14:11:40.713559846
2025-11-07 14:11:39.127342,-36,2025-11-07 14:11:40.721252154
2025-11-07 14:11:39.127342,-9985,2025-11-07 14:11:40.728944462
2025-11-07 14:11:39.127342,-1,2025-11-07 14:11:40.736636769
2025-11-07 14:11:39.127342,-40,2025-11-07 14:11:40.744329077
2025-11-07 14:11:39.127342,-6401,2025-11-07 14:11:40.752021385
2025-11-07 14:11:39.127342,-1,2025-11-07 14:11:40.759713692
2025-11-07 14:11:39.127342,-2,2025-11-07 14:11:40.767406000
2025-11-07 14:11:39.127342,3839,2025-11-07 14:11:40.775098308
2025-11-07 14:11:39.127342,0,2025-11-07 14:11:40.782790615
2025-11-07 14:11:39.127342,16,2025-11-07 14:11:40.790482923
2025-11-07 14:11:39.127342,1792,2025-11-07 14:11:40.798175231
2025-11-07 14:11:39.127342,0,2025-11-07 14:11:40.805867538
2025-11-07 14:11:39.127342,-9,2025-11-07 14:11:40.813559846
2025-11-07 14:11:39.127342,-4609,2025-11-07 14:11:40.821252154
2025-11-07 14:11:39.127342,-1,2025-11-07 14:11:40.828944462
2025-11-07 14:11:39.127342,-14,2025-11-07 14:11:40.836636769
2025-11-07 14:11:39.127342,-2817,2025-11-07 14:11:40.844329077
2025-11-07 14:11:39.127342,-1,2025-11-07 14:11:40.852021385
2025-11-07 14:11:39.127342,-12,2025-11-07 14:11:40.859713692
2025-11-07 14:11:39.127342,-1537,2025-11-07 14:11:40.867406000
2025-11-07 14:11:39.127342,-1,2025-11-07 14:11:40.875098308
2025-11-07 14:11:39.127342,-14,2025-11-07 14:11:40.882790615
2025-11-07 14:11:39.127342,-6401,2025-11-07 14:11:40.890482923
2025-11-07 14:11:39.127342,-1,2025-11-07 14:11:40.898175230
2025-11-07 14:11:39.127342,88,2025-11-07 14:11:40.905867538
2025-11-07 14:11:39.127342,10752,2025-11-07 14:11:40.913559846
2025-11-07 14:11:39.127342,2,2025-11-07 14:11:40.921252154
2025-11-07 14:11:39.127342,1334,2025-11-07 14:11:40.928944462
2025-11-07 14:11:39.127342,19968,2025-11-07 14:11:40.936636769
2025-11-07 14:11:39.127342,7,2025-11-07 14:11:40.944329077
2025-11-07 14:11:39.127342,1469,2025-11-07 14:11:40.952021385
2025-11-07 14:11:39.127342,28416,2025-11-07 14:11:40.959713692
2025-11-07 14:11:39.127342,1,2025-11-07 14:11:40.967406000
2025-11-07 14:11:39.127342,-266,2025-11-07 14:11:40.975098308
2025-11-07 14:11:39.127342,17919,2025-11-07 14:11:40.982790615
2025-11-07 14:11:39.127342,-1,2025-11-07 14:11:40.990482923
2025-11-07 14:11:39.127342,-151,2025-11-07 14:11:40.998175231
2025-11-07 14:11:39.127342,-4865,2025-11-07 14:11:41.005867538
2025-11-07 14:11:39.127342,-2,2025-11-07 14:11:41.013559846
2025-11-07 14:11:39.127342,-261,2025-11-07 14:11:41.021252154
2025-11-07 14:11:39.127342,10495,2025-11-07 14:11:41.028944462
2025-11-07 14:11:39.127342,-1,2025-11-07 14:11:41.036636769
2025-11-07 14:11:39.127342,-235,2025-11-07 14:11:41.044329077
2025-11-07 14:11:39.127342,7423,2025-11-07 14:11:41.052021385
2025-11-07 14:11:39.127342,-1,2025-11-07 14:11:41.059713692
2025-11-07 14:11:39.127342,-201,2025-11-07 14:11:41.067406000
2025-11-07 14:11:39.127342,14335,2025-11-07 14:11:41.075098308
2025-11-07 14:11:39.127342,-1,2025-11-07 14:11:41.082790615
2025-11-07 14:11:39.127342,-199,2025-11-07 14:11:41.090482923
2025-11-07 14:11:39.127342,17919,2025-11-07 14:11:41.098175231
2025-11-07 14:11:39.127342,-1,2025-11-07 14:11:41.105867538
2025-11-07 14:11:39.127342,-180,2025-11-07 14:11:41.113559846
2025-11-07 14:11:39.127342,22271,2025-11-07 14:11:41.121252154
2025-11-07 14:11:39.127342,-1,2025-11-07 14:11:41.128944462
2025-11-07 14:11:39.127342,-168,2025-11-07 14:11:41.136636769
2025-11-07 14:11:39.127342,24063,2025-11-07 14:11:41.144329077
2025-11-07 14:11:39.127342,-1,2025-11-07 14:11:41.152021385
2025-11-07 14:11:39.127342,-151,2025-11-07 14:11:41.159713692
2025-11-07 14:11:39.127342,29695,2025-11-07 14:11:41.167406000
2025-11-07 14:11:39.127342,-1,2025-11-07 14:11:41.175098308
2025-11-07 14:11:39.127342,-136,2025-11-07 14:11:41.182790615
2025-11-07 14:11:39.127342,-31489,2025-11-07 14:11:41.190482923
2025-11-07 14:11:39.127342,-1,2025-11-07 14:11:41.198175231
2025-11-07 14:11:39.127342,-112,2025-11-07 14:11:41.205867538
2025-11-07 14:11:39.127342,-25345,2025-11-07 14:11:41.213559846
2025-11-07 14:11:39.127342,-1,2025-11-07 14:11:41.221252154
2025-11-07 14:11:39.127342,-93,2025-11-07 14:11:41.228944462
2025-11-07 14:11:39.127342,-24321,2025-11-07 14:11:41.236636769
2025-11-07 14:11:39.127342,-1,2025-11-07 14:11:41.244329077
2025-11-07 14:11:39.127342,-96,2025-11-07 14:11:41.252021385
2025-11-07 14:11:39.127342,-23553,2025-11-07 14:11:41.259713692
2025-11-07 14:11:39.127342,-1,2025-11-07 14:11:41.267406000
2025-11-07 14:11:39.127342,-93,2025-11-07 14:11:41.275098308
2025-11-07 14:11:39.127342,-23553,2025-11-07 14:11:41.282790615
2025-11-07 14:11:39.127342,-1,2025-11-07 14:11:41.290482923
2025-11-07 14:11:39.127342,-96,2025-11-07 14:11:41.298175231
2025-11-07 14:11:39.127342,-27393,2025-11-07 14:11:41.305867538
2025-11-07 14:11:39.127342,-1,2025-11-07 14:11:41.313559846
2025-11-07 14:11:39.127342,-120,2025-11-07 14:11:41.321252154
2025-11-07 14:11:39.127342,-29697,2025-11-07 14:11:41.328944462
2025-11-07 14:11:39.127342,-1,2025-11-07 14:11:41.336636769
2025-11-07 14:11:39.127342,-110,2025-11-07 14:11:41.344329077
2025-11-07 14:11:39.127342,-26625,2025-11-07 14:11:41.352021385
2025-11-07 14:11:39.127342,-1,2025-11-07 14:11:41.359713692
2025-11-07 14:11:39.127342,-103,2025-11-07 14:11:41.367406000
2025-11-07 14:11:39.127342,-24321,2025-11-07 14:11:41.375098308
2025-11-07 14:11:39.127342,-1,2025-11-07 14:11:41.382790615
2025-11-07 14:11:39.127342,-88,2025-11-07 14:11:41.390482923
2025-11-07 14:11:39.727524,-86,2025-11-07 14:11:41.398175231
2025-11-07 14:11:39.727524,-19969,2025-11-07 14:11:41.405867538
2025-11-07 14:11:39.727524,-1,2025-11-07 14:11:41.413559846
2025-11-07 14:11:39.727524,-74,2025-11-07 14:11:41.421252154
2025-11-07 14:11:39.727524,-16897,2025-11-07 14:11:41.428944462
2025-11-07 14:11:39.727524,-1,2025-11-07 14:11:41.436636769
2025-11-07 14:11:39.727524,-62,2025-11-07 14:11:41.444329077
2025-11-07 14:11:39.727524,-15105,2025-11-07 14:11:41.452021385
2025-11-07 14:11:39.727524,-1,2025-11-07 14:11:41.459713692
2025-11-07 14:11:39.727524,-48,2025-11-07 14:11:41.467406000
2025-11-07 14:11:39.727524,-10753,2025-11-07 14:11:41.475098308
2025-11-07 14:11:39.727524,-1,2025-11-07 14:11:41.482790615
2025-11-07 14:11:39.727524,-45,2025-11-07 14:11:41.490482923
2025-11-07 14:11:39.727524,-10753,2025-11-07 14:11:41.498175231
2025-11-07 14:11:39.727524,-1,2025-11-07 14:11:41.505867538
2025-11-07 14:11:39.727524,-43,2025-11-07 14:11:41.513559846
2025-11-07 14:11:39.727524,-11265,2025-11-07 14:11:41.521252154
2025-11-07 14:11:39.727524,-1,2025-11-07 14:11:41.528944462
2025-11-07 14:11:39.727524,-40,2025-11-07 14:11:41.536636769
2025-11-07 14:11:39.727524,-11265,2025-11-07 14:11:41.544329077
2025-11-07 14:11:39.727524,-1,2025-11-07 14:11:41.552021385
2025-11-07 14:11:39.727524,-50,2025-11-07 14:11:41.559713692
2025-11-07 14:11:39.727524,-12033,2025-11-07 14:11:41.567406000
2025-11-07 14:11:39.727524,-1,2025-11-07 14:11:41.575098308
2025-11-07 14:11:39.727524,-45,2025-11-07 14:11:41.582790615
2025-11-07 14:11:39.727524,-12545,2025-11-07 14:11:41.590482923
2025-11-07 14:11:39.727524,-1,2025-11-07 14:11:41.598175231
2025-11-07 14:11:39.727524,-45,2025-11-07 14:11:41.605867538
2025-11-07 14:11:39.727524,-10753,2025-11-07 14:11:41.613559846
2025-11-07 14:11:39.727524,-1,2025-11-07 14:11:41.621252154
2025-11-07 14:11:39.727524,-40,2025-11-07 14:11:41.628944462
2025-11-07 14:11:39.727524,-7681,2025-11-07 14:11:41.636636769
2025-11-07 14:11:39.727524,-1,2025-11-07 14:11:41.644329077
2025-11-07 14:11:39.727524,-21,2025-11-07 14:11:41.652021385
2025-11-07 14:11:39.727524,-6401,2025-11-07 14:11:41.659713692
2025-11-07 14:11:39.727524,-1,2025-11-07 14:11:41.667406000
2025-11-07 14:11:39.727524,-33,2025-11-07 14:11:41.675098308
2025-11-07 14:11:39.727524,-7681,2025-11-07 14:11:41.682790615
2025-11-07 14:11:39.727524,-1,2025-11-07 14:11:41.690482923
2025-11-07 14:11:39.727524,-31,2025-11-07 14:11:41.698175231
2025-11-07 14:11:39.727524,-10753,2025-11-07 14:11:41.705867538
2025-11-07 14:11:39.727524,-1,2025-11-07 14:11:41.713559846
2025-11-07 14:11:39.727524,-48,2025-11-07 14:11:41.721252154
2025-11-07 14:11:39.727524,-11265,2025-11-07 14:11:41.728944462
2025-11-07 14:11:39.727524,-1,2025-11-07 14:11:41.736636769
2025-11-07 14:11:39.727524,-45,2025-11-07 14:11:41.744329077
2025-11-07 14:11:39.727524,-11265,2025-11-07 14:11:41.752021385
2025-11-07 14:11:39.727524,-1,2025-11-07 14:11:41.759713692
2025-11-07 14:11:39.727524,-24,2025-11-07 14:11:41.767406000
2025-11-07 14:11:39.727524,-257,2025-11-07 14:11:41.775098308
2025-11-07 14:11:39.727524,-1,2025-11-07 14:11:41.782790615
2025-11-07 14:11:39.727524,0,2025-11-07 14:11:41.790482923
2025-11-07 14:11:39.727524,-512,2025-11-07 14:11:41.798175231
2025-11-07 14:11:39.727524,-1,2025-11-07 14:11:41.805867538
2025-11-07 14:11:39.727524,-12,2025-11-07 14:11:41.813559846
2025-11-07 14:11:39.727524,-6913,2025-11-07 14:11:41.821252154
2025-11-07 14:11:39.727524,-1,2025-11-07 14:11:41.828944462
2025-11-07 14:11:39.727524,-31,2025-11-07 14:11:41.836636769
2025-11-07 14:11:39.727524,-5889,2025-11-07 14:11:41.844329077
2025-11-07 14:11:39.727524,-1,2025-11-07 14:11:41.852021385
2025-11-07 14:11:39.727524,-26,2025-11-07 14:11:41.859713692
2025-11-07 14:11:39.727524,-6913,2025-11-07 14:11:41.867406000
2025-11-07 14:11:39.727524,-1,2025-11-07 14:11:41.875098308
2025-11-07 14:11:39.727524,-31,2025-11-07 14:11:41.882790615
2025-11-07 14:11:39.727524,-12033,2025-11-07 14:11:41.890482923
2025-11-07 14:11:39.727524,-1,2025-11-07 14:11:41.898175230
2025-11-07 14:11:39.727524,-14,2025-11-07 14:11:41.905867538
2025-11-07 14:11:39.727524,7679,2025-11-07 14:11:41.913559846
2025-11-07 14:11:39.727524,1,2025-11-07 14:11:41.921252154
2025-11-07 14:11:39.727524,955,2025-11-07 14:11:41.928944462
2025-11-07 14:11:39.727524,30208,2025-11-07 14:11:41.936636769
2025-11-07 14:11:39.727524,6,2025-11-07 14:11:41.944329077
2025-11-07 14:11:39.727524,1646,2025-11-07 14:11:41.952021385
2025-11-07 14:11:39.727524,-11008,2025-11-07 14:11:41.959713692
2025-11-07 14:11:39.727524,2,2025-11-07 14:11:41.967406000
2025-11-07 14:11:39.727524,-148,2025-11-07 14:11:41.975098308
2025-11-07 14:11:39.727524,3327,2025-11-07 14:11:41.982790615
2025-11-07 14:11:39.727524,-1,2025-11-07 14:11:41.990482923
2025-11-07 14:11:39.727524,-132,2025-11-07 14:11:41.998175231
2025-11-07 14:11:39.727524,3839,2025-11-07 14:11:42.005867538
2025-11-07 14:11:39.727524,-1,2025-11-07 14:11:42.013559846
2025-11-07 14:11:39.727524,-280,2025-11-07 14:11:42.021252154
2025-11-07 14:11:39.727524,9471,2025-11-07 14:11:42.028944462
2025-11-07 14:11:39.727524,-1,2025-11-07 14:11:42.036636769
2025-11-07 14:11:39.727524,-232,2025-11-07 14:11:42.044329077
2025-11-07 14:11:39.727524,2559,2025-11-07 14:11:42.052021385
2025-11-07 14:11:39.727524,-1,2025-11-07 14:11:42.059713692
2025-11-07 14:11:39.727524,-225,2025-11-07 14:11:42.067406000
2025-11-07 14:11:39.727524,9983,2025-11-07 14:11:42.075098308
2025-11-07 14:11:39.727524,-1,2025-11-07 14:11:42.082790615
2025-11-07 14:11:39.727524,-213,2025-11-07 14:11:42.090482923
2025-11-07 14:11:39.727524,15615,2025-11-07 14:11:42.098175231
2025-11-07 14:11:39.727524,-1,2025-11-07 14:11:42.105867538
2025-11-07 14:11:39.727524,-189,2025-11-07 14:11:42.113559846
2025-11-07 14:11:39.727524,19199,2025-11-07 14:11:42.121252154
2025-11-07 14:11:39.727524,-1,2025-11-07 14:11:42.128944462
2025-11-07 14:11:39.727524,-172,2025-11-07 14:11:42.136636769
2025-11-07 14:11:39.727524,22783,2025-11-07 14:11:42.144329077
2025-11-07 14:11:39.727524,-1,2025-11-07 14:11:42.152021385
2025-11-07 14:11:39.727524,-160,2025-11-07 14:11:42.159713692
2025-11-07 14:11:39.727524,28927,2025-11-07 14:11:42.167406000
2025-11-07 14:11:39.727524,-1,2025-11-07 14:11:42.175098308
2025-11-07 14:11:39.727524,-127,2025-11-07 14:11:42.182790615
2025-11-07 14:11:39.727524,-28417,2025-11-07 14:11:42.190482923
2025-11-07 14:11:39.727524,-1,2025-11-07 14:11:42.198175231
2025-11-07 14:11:39.727524,-103,2025-11-07 14:11:42.205867538
2025-11-07 14:11:39.727524,-24321,2025-11-07 14:11:42.213559846
2025-11-07 14:11:39.727524,-1,2025-11-07 14:11:42.221252154
2025-11-07 14:11:39.727524,-91,2025-11-07 14:11:42.228944462
2025-11-07 14:11:40.266953,-86,2025-11-07 14:11:42.236636769
2025-11-07 14:11:40.266953,-21249,2025-11-07 14:11:42.244329077
2025-11-07 14:11:40.266953,-1,2025-11-07 14:11:42.252021385
2025-11-07 14:11:40.266953,-84,2025-11-07 14:11:42.259713692
2025-11-07 14:11:40.266953,-21761,2025-11-07 14:11:42.267406000
2025-11-07 14:11:40.266953,-1,2025-11-07 14:11:42.275098308
2025-11-07 14:11:40.266953,-91,2025-11-07 14:11:42.282790615
2025-11-07 14:11:40.266953,-24321,2025-11-07 14:11:42.290482923
2025-11-07 14:11:40.266953,-1,2025-11-07 14:11:42.298175231
2025-11-07 14:11:40.266953,-103,2025-11-07 14:11:42.305867538
2025-11-07 14:11:40.266953,-28417,2025-11-07 14:11:42.313559846
2025-11-07 14:11:40.266953,-1,2025-11-07 14:11:42.321252154
2025-11-07 14:11:40.266953,-120,2025-11-07 14:11:42.328944462
2025-11-07 14:11:40.266953,-30465,2025-11-07 14:11:42.336636769
2025-11-07 14:11:40.266953,-1,2025-11-07 14:11:42.344329077
2025-11-07 14:11:40.266953,-117,2025-11-07 14:11:42.352021385
2025-11-07 14:11:40.266953,-26625,2025-11-07 14:11:42.359713692
2025-11-07 14:11:40.266953,-1,2025-11-07 14:11:42.367406000
2025-11-07 14:11:40.266953,-91,2025-11-07 14:11:42.375098308
2025-11-07 14:11:40.266953,-23041,2025-11-07 14:11:42.382790615
2025-11-07 14:11:40.266953,-1,2025-11-07 14:11:42.390482923
2025-11-07 14:11:40.266953,-86,2025-11-07 14:11:42.398175231
2025-11-07 14:11:40.266953,-19201,2025-11-07 14:11:42.405867538
2025-11-07 14:11:40.266953,-1,2025-11-07 14:11:42.413559846
2025-11-07 14:11:40.266953,-74,2025-11-07 14:11:42.421252154
2025-11-07 14:11:40.266953,-18689,2025-11-07 14:11:42.428944462
2025-11-07 14:11:40.266953,-1,2025-11-07 14:11:42.436636769
2025-11-07 14:11:40.266953,-69,2025-11-07 14:11:42.444329077
2025-11-07 14:11:40.266953,-15105,2025-11-07 14:11:42.452021385
2025-11-07 14:11:40.266953,-1,2025-11-07 14:11:42.459713692
2025-11-07 14:11:40.266953,-57,2025-11-07 14:11:42.467406000
2025-11-07 14:11:40.266953,-13057,2025-11-07 14:11:42.475098308
2025-11-07 14:11:40.266953,-1,2025-11-07 14:11:42.482790615
2025-11-07 14:11:40.266953,-55,2025-11-07 14:11:42.490482923
2025-11-07 14:11:40.266953,-14337,2025-11-07 14:11:42.498175231
2025-11-07 14:11:40.266953,-1,2025-11-07 14:11:42.505867538
2025-11-07 14:11:40.266953,-57,2025-11-07 14:11:42.513559846
2025-11-07 14:11:40.266953,-13057,2025-11-07 14:11:42.521252154
2025-11-07 14:11:40.266953,-1,2025-11-07 14:11:42.528944462
2025-11-07 14:11:40.266953,-48,2025-11-07 14:11:42.536636769
2025-11-07 14:11:40.266953,-9985,2025-11-07 14:11:42.544329077
2025-11-07 14:11:40.266953,-1,2025-11-07 14:11:42.552021385
2025-11-07 14:11:40.266953,-36,2025-11-07 14:11:42.559713692
2025-11-07 14:11:40.266953,-8193,2025-11-07 14:11:42.567406000
2025-11-07 14:11:40.266953,-1,2025-11-07 14:11:42.575098308
2025-11-07 14:11:40.266953,-38,2025-11-07 14:11:42.582790615
2025-11-07 14:11:40.266953,-9985,2025-11-07 14:11:42.590482923
2025-11-07 14:11:40.266953,-1,2025-11-07 14:11:42.598175231
2025-11-07 14:11:40.266953,-33,2025-11-07 14:11:42.605867538
2025-11-07 14:11:40.266953,-7681,2025-11-07 14:11:42.613559846
2025-11-07 14:11:40.266953,-1,2025-11-07 14:11:42.621252154
2025-11-07 14:11:40.266953,-33,2025-11-07 14:11:42.628944462
2025-11-07 14:11:40.266953,-8961,2025-11-07 14:11:42.636636769
2025-11-07 14:11:40.266953,-1,2025-11-07 14:11:42.644329077
2025-11-07 14:11:40.266953,-31,2025-11-07 14:11:42.652021385
2025-11-07 14:11:40.266953,-6913,2025-11-07 14:11:42.659713692
2025-11-07 14:11:40.266953,-1,2025-11-07 14:11:42.667406000
2025-11-07 14:11:40.266953,-28,2025-11-07 14:11:42.675098308
2025-11-07 14:11:40.266953,-7681,2025-11-07 14:11:42.682790615
2025-11-07 14:11:40.266953,-1,2025-11-07 14:11:42.690482923
2025-11-07 14:11:40.266953,-26,2025-11-07 14:11:42.698175231
2025-11-07 14:11:40.266953,-5889,2025-11-07 14:11:42.705867538
2025-11-07 14:11:40.266953,-1,2025-11-07 14:11:42.713559846
2025-11-07 14:11:40.266953,-28,2025-11-07 14:11:42.721252154
2025-11-07 14:11:40.266953,-6913,2025-11-07 14:11:42.728944462
2025-11-07 14:11:40.266953,-1,2025-11-07 14:11:42.736636769
2025-11-07 14:11:40.266953,-28,2025-11-07 14:11:42.744329077
2025-11-07 14:11:40.266953,-9985,2025-11-07 14:11:42.752021385
2025-11-07 14:11:40.266953,-1,2025-11-07 14:11:42.759713692
2025-11-07 14:11:40.266953,-45,2025-11-07 14:11:42.767406000
2025-11-07 14:11:40.266953,-12033,2025-11-07 14:11:42.775098308
2025-11-07 14:11:40.266953,-1,2025-11-07 14:11:42.782790615
2025-11-07 14:11:40.266953,-50,2025-11-07 14:11:42.790482923
2025-11-07 14:11:40.266953,-9985,2025-11-07 14:11:42.798175231
2025-11-07 14:11:40.266953,-1,2025-11-07 14:11:42.805867538
2025-11-07 14:11:40.266953,-16,2025-11-07 14:11:42.813559846
2025-11-07 14:11:40.266953,255,2025-11-07 14:11:42.821252154
2025-11-07 14:11:40.266953,0,2025-11-07 14:11:42.828944462
2025-11-07 14:11:40.266953,2,2025-11-07 14:11:42.836636769
2025-11-07 14:11:40.266953,1792,2025-11-07 14:11:42.844329077
2025-11-07 14:11:40.266953,0,2025-11-07 14:11:42.852021385
2025-11-07 14:11:40.266953,0,2025-11-07 14:11:42.859713692
2025-11-07 14:11:40.266953,-3584,2025-11-07 14:11:42.867406000
2025-11-07 14:11:40.266953,-1,2025-11-07 14:11:42.875098308
2025-11-07 14:11:40.266953,-12,2025-11-07 14:11:42.882790615
2025-11-07 14:11:40.266953,-2049,2025-11-07 14:11:42.890482923
2025-11-07 14:11:40.266953,-1,2025-11-07 14:11:42.898175230
2025-11-07 14:11:40.266953,-16,2025-11-07 14:11:42.905867538
2025-11-07 14:11:40.266953,-3329,2025-11-07 14:11:42.913559846
2025-11-07 14:11:40.266953,-1,2025-11-07 14:11:42.921252154
2025-11-07 14:11:40.266953,-19,2025-11-07 14:11:42.928944462
2025-11-07 14:11:40.266953,-5889,2025-11-07 14:11:42.936636769
2025-11-07 14:11:40.266953,-1,2025-11-07 14:11:42.944329077
2025-11-07 14:11:40.266953,127,2025-11-07 14:11:42.952021385
2025-11-07 14:11:40.266953,30464,2025-11-07 14:11:42.959713692
2025-11-07 14:11:40.266953,2,2025-11-07 14:11:42.967406000
2025-11-07 14:11:40.266953,1387,2025-11-07 14:11:42.975098308
2025-11-07 14:11:40.266953,4608,2025-11-07 14:11:42.982790615
2025-11-07 14:11:40.266953,7,2025-11-07 14:11:42.990482923
2025-11-07 14:11:40.266953,1289,2025-11-07 14:11:42.998175231
2025-11-07 14:11:40.266953,-7936,2025-11-07 14:11:43.005867538
2025-11-07 14:11:40.266953,0,2025-11-07 14:11:43.013559846
2025-11-07 14:11:40.266953,-273,2025-11-07 14:11:43.021252154
2025-11-07 14:11:40.266953,24063,2025-11-07 14:11:43.028944462
2025-11-07 14:11:40.266953,-1,2025-11-07 14:11:43.036636769
2025-11-07 14:11:40.266953,-165,2025-11-07 14:11:43.044329077
2025-11-07 14:11:40.266953,-5377,2025-11-07 14:11:43.052021385
2025-11-07 14:11:40.266953,-2,2025-11-07 14:11:43.059713692
2025-11-07 14:11:40.266953,-247,2025-11-07 14:11:43.067406000
2025-11-07 14:11:40.836346,-213,2025-11-07 14:11:43.075098308
2025-11-07 14:11:40.836346,3839,2025-11-07 14:11:43.082790615
2025-11-07 14:11:40.836346,-1,2025-11-07 14:11:43.090482923
2025-11-07 14:11:40.836346,-225,2025-11-07 14:11:43.098175231
2025-11-07 14:11:40.836346,16127,2025-11-07 14:11:43.105867538
2025-11-07 14:11:40.836346,-1,2025-11-07 14:11:43.113559846
2025-11-07 14:11:40.836346,-196,2025-11-07 14:11:43.121252154
2025-11-07 14:11:40.836346,15615,2025-11-07 14:11:43.128944462
2025-11-07 14:11:40.836346,-1,2025-11-07 14:11:43.136636769
2025-11-07 14:11:40.836346,-180,2025-11-07 14:11:43.144329077
2025-11-07 14:11:40.836346,22271,2025-11-07 14:11:43.152021385
2025-11-07 14:11:40.836346,-1,2025-11-07 14:11:43.159713692
2025-11-07 14:11:40.836346,-160,2025-11-07 14:11:43.167406000
2025-11-07 14:11:40.836346,30207,2025-11-07 14:11:43.175098308
2025-11-07 14:11:40.836346,-1,2025-11-07 14:11:43.182790615
2025-11-07 14:11:40.836346,-129,2025-11-07 14:11:43.190482923
2025-11-07 14:11:40.836346,-32257,2025-11-07 14:11:43.198175231
2025-11-07 14:11:40.836346,-1,2025-11-07 14:11:43.205867538
2025-11-07 14:11:40.836346,-117,2025-11-07 14:11:43.213559846
2025-11-07 14:11:40.836346,-26625,2025-11-07 14:11:43.221252154
2025-11-07 14:11:40.836346,-1,2025-11-07 14:11:43.228944462
2025-11-07 14:11:40.836346,-98,2025-11-07 14:11:43.236636769
2025-11-07 14:11:40.836346,-21249,2025-11-07 14:11:43.244329077
2025-11-07 14:11:40.836346,-1,2025-11-07 14:11:43.252021385
2025-11-07 14:11:40.836346,-69,2025-11-07 14:11:43.259713692
2025-11-07 14:11:40.836346,-16897,2025-11-07 14:11:43.267406000
2025-11-07 14:11:40.836346,-1,2025-11-07 14:11:43.275098308
2025-11-07 14:11:40.836346,-69,2025-11-07 14:11:43.282790615
2025-11-07 14:11:40.836346,-15617,2025-11-07 14:11:43.290482923
2025-11-07 14:11:40.836346,-1,2025-11-07 14:11:43.298175231
2025-11-07 14:11:40.836346,-60,2025-11-07 14:11:43.305867538
2025-11-07 14:11:40.836346,-18177,2025-11-07 14:11:43.313559846
2025-11-07 14:11:40.836346,-1,2025-11-07 14:11:43.321252154
2025-11-07 14:11:40.836346,-81,2025-11-07 14:11:43.328944462
2025-11-07 14:11:40.836346,-20481,2025-11-07 14:11:43.336636769
2025-11-07 14:11:40.836346,-1,2025-11-07 14:11:43.344329077
2025-11-07 14:11:40.836346,-84,2025-11-07 14:11:43.352021385
2025-11-07 14:11:40.836346,-21761,2025-11-07 14:11:43.359713692
2025-11-07 14:11:40.836346,-1,2025-11-07 14:11:43.367406000
2025-11-07 14:11:40.836346,-88,2025-11-07 14:11:43.375098308
2025-11-07 14:11:40.836346,-23041,2025-11-07 14:11:43.382790615
2025-11-07 14:11:40.836346,-1,2025-11-07 14:11:43.390482923
2025-11-07 14:11:40.836346,-88,2025-11-07 14:11:43.398175231
2025-11-07 14:11:40.836346,-22273,2025-11-07 14:11:43.405867538
2025-11-07 14:11:40.836346,-1,2025-11-07 14:11:43.413559846
2025-11-07 14:11:40.836346,-86,2025-11-07 14:11:43.421252154
2025-11-07 14:11:40.836346,-19201,2025-11-07 14:11:43.428944462
2025-11-07 14:11:40.836346,-1,2025-11-07 14:11:43.436636769
2025-11-07 14:11:40.836346,-67,2025-11-07 14:11:43.444329077
2025-11-07 14:11:40.836346,-16897,2025-11-07 14:11:43.452021385
2025-11-07 14:11:40.836346,-1,2025-11-07 14:11:43.459713692
2025-11-07 14:11:40.836346,-64,2025-11-07 14:11:43.467406000
2025-11-07 14:11:40.836346,-14337,2025-11-07 14:11:43.475098308
2025-11-07 14:11:40.836346,-1,2025-11-07 14:11:43.482790615
2025-11-07 14:11:40.836346,-55,2025-11-07 14:11:43.490482923
2025-11-07 14:11:40.836346,-13825,2025-11-07 14:11:43.498175231
2025-11-07 14:11:40.836346,-1,2025-11-07 14:11:43.505867538
2025-11-07 14:11:40.836346,-50,2025-11-07 14:11:43.513559846
2025-11-07 14:11:40.836346,-12545,2025-11-07 14:11:43.521252154
2025-11-07 14:11:40.836346,-1,2025-11-07 14:11:43.528944462
2025-11-07 14:11:40.836346,-52,2025-11-07 14:11:43.536636769
2025-11-07 14:11:40.836346,-12545,2025-11-07 14:11:43.544329077
2025-11-07 14:11:40.836346,-1,2025-11-07 14:11:43.552021385
2025-11-07 14:11:40.836346,-43,2025-11-07 14:11:43.559713692
2025-11-07 14:11:40.836346,-10753,2025-11-07 14:11:43.567406000
2025-11-07 14:11:40.836346,-1,2025-11-07 14:11:43.575098308
2025-11-07 14:11:40.836346,-45,2025-11-07 14:11:43.582790615
2025-11-07 14:11:40.836346,-10753,2025-11-07 14:11:43.590482923
2025-11-07 14:11:40.836346,-1,2025-11-07 14:11:43.598175231
2025-11-07 14:11:40.836346,-36,2025-11-07 14:11:43.605867538
2025-11-07 14:11:40.836346,-8961,2025-11-07 14:11:43.613559846
2025-11-07 14:11:40.836346,-1,2025-11-07 14:11:43.621252154
2025-11-07 14:11:40.836346,-33,2025-11-07 14:11:43.628944462
2025-11-07 14:11:40.836346,-8193,2025-11-07 14:11:43.636636769
2025-11-07 14:11:40.836346,-1,2025-11-07 14:11:43.644329077
2025-11-07 14:11:40.836346,-31,2025-11-07 14:11:43.652021385
2025-11-07 14:11:40.836346,-7681,2025-11-07 14:11:43.659713692
2025-11-07 14:11:40.836346,-1,2025-11-07 14:11:43.667406000
2025-11-07 14:11:40.836346,-31,2025-11-07 14:11:43.675098308
2025-11-07 14:11:40.836346,-6401,2025-11-07 14:11:43.682790615
2025-11-07 14:11:40.836346,-1,2025-11-07 14:11:43.690482923
2025-11-07 14:11:40.836346,-24,2025-11-07 14:11:43.698175231
2025-11-07 14:11:40.836346,-6913,2025-11-07 14:11:43.705867538
2025-11-07 14:11:40.836346,-1,2025-11-07 14:11:43.713559846
2025-11-07 14:11:40.836346,-31,2025-11-07 14:11:43.721252154
2025-11-07 14:11:40.836346,-6401,2025-11-07 14:11:43.728944462
2025-11-07 14:11:40.836346,-1,2025-11-07 14:11:43.736636769
2025-11-07 14:11:40.836346,-26,2025-11-07 14:11:43.744329077
2025-11-07 14:11:40.836346,-5889,2025-11-07 14:11:43.752021385
2025-11-07 14:11:40.836346,-1,2025-11-07 14:11:43.759713692
2025-11-07 14:11:40.836346,-24,2025-11-07 14:11:43.767406000
2025-11-07 14:11:40.836346,-6401,2025-11-07 14:11:43.775098308
2025-11-07 14:11:40.836346,-1,2025-11-07 14:11:43.782790615
2025-11-07 14:11:40.836346,-28,2025-11-07 14:11:43.790482923
2025-11-07 14:11:40.836346,-7681,2025-11-07 14:11:43.798175231
2025-11-07 14:11:40.836346,-1,2025-11-07 14:11:43.805867538
2025-11-07 14:11:40.836346,-33,2025-11-07 14:11:43.813559846
2025-11-07 14:11:40.836346,-9473,2025-11-07 14:11:43.821252154
2025-11-07 14:11:40.836346,-1,2025-11-07 14:11:43.828944462
2025-11-07 14:11:40.836346,-40,2025-11-07 14:11:43.836636769
2025-11-07 14:11:40.836346,-10753,2025-11-07 14:11:43.844329077
2025-11-07 14:11:40.836346,-1,2025-11-07 14:11:43.852021385
2025-11-07 14:11:40.836346,-38,2025-11-07 14:11:43.859713692
2025-11-07 14:11:40.836346,-3841,2025-11-07 14:11:43.867406000
2025-11-07 14:11:40.836346,-1,2025-11-07 14:11:43.875098308
2025-11-07 14:11:40.836346,4,2025-11-07 14:11:43.882790615
2025-11-07 14:11:40.836346,3584,2025-11-07 14:11:43.890482923
2025-11-07 14:11:40.836346,0,2025-11-07 14:11:43.898175230
2025-11-07 14:11:40.836346,9,2025-11-07 14:11:43.905867538
2025-11-07 14:11:41.377858,-2,2025-11-07 14:11:43.913559846
2025-11-07 14:11:41.377858,-2049,2025-11-07 14:11:43.921252154
2025-11-07 14:11:41.377858,-1,2025-11-07 14:11:43.928944462
2025-11-07 14:11:41.377858,-4,2025-11-07 14:11:43.936636769
2025-11-07 14:11:41.377858,-257,2025-11-07 14:11:43.944329077
2025-11-07 14:11:41.377858,-1,2025-11-07 14:11:43.952021385
2025-11-07 14:11:41.377858,-4,2025-11-07 14:11:43.959713692
2025-11-07 14:11:41.377858,-257,2025-11-07 14:11:43.967406000
2025-11-07 14:11:41.377858,-1,2025-11-07 14:11:43.975098308
2025-11-07 14:11:41.377858,-7,2025-11-07 14:11:43.982790615
2025-11-07 14:11:41.377858,-769,2025-11-07 14:11:43.990482923
2025-11-07 14:11:41.377858,-1,2025-11-07 14:11:43.998175231
2025-11-07 14:11:41.377858,153,2025-11-07 14:11:44.005867538
2025-11-07 14:11:41.377858,-19712,2025-11-07 14:11:44.013559846
2025-11-07 14:11:41.377858,2,2025-11-07 14:11:44.021252154
2025-11-07 14:11:41.377858,1498,2025-11-07 14:11:44.028944462
2025-11-07 14:11:41.377858,-27136,2025-11-07 14:11:44.036636769
2025-11-07 14:11:41.377858,7,2025-11-07 14:11:44.044329077
2025-11-07 14:11:41.377858,1418,2025-11-07 14:11:44.052021385
2025-11-07 14:11:41.377858,15360,2025-11-07 14:11:44.059713692
2025-11-07 14:11:41.377858,1,2025-11-07 14:11:44.067406000
2025-11-07 14:11:41.377858,-242,2025-11-07 14:11:44.075098308
2025-11-07 14:11:41.377858,27135,2025-11-07 14:11:44.082790615
2025-11-07 14:11:41.377858,-1,2025-11-07 14:11:44.090482923
2025-11-07 14:11:41.377858,-139,2025-11-07 14:11:44.098175231
2025-11-07 14:11:41.377858,1279,2025-11-07 14:11:44.105867538
2025-11-07 14:11:41.377858,-1,2025-11-07 14:11:44.113559846
2025-11-07 14:11:41.377858,-225,2025-11-07 14:11:44.121252154
2025-11-07 14:11:41.377858,17919,2025-11-07 14:11:44.128944462
2025-11-07 14:11:41.377858,-1,2025-11-07 14:11:44.136636769
2025-11-07 14:11:41.377858,-216,2025-11-07 14:11:44.144329077
2025-11-07 14:11:41.377858,14335,2025-11-07 14:11:44.152021385
2025-11-07 14:11:41.377858,-1,2025-11-07 14:11:44.159713692
2025-11-07 14:11:41.377858,-172,2025-11-07 14:11:44.167406000
2025-11-07 14:11:41.377858,20479,2025-11-07 14:11:44.175098308
2025-11-07 14:11:41.377858,-1,2025-11-07 14:11:44.182790615
2025-11-07 14:11:41.377858,-177,2025-11-07 14:11:44.190482923
2025-11-07 14:11:41.377858,25343,2025-11-07 14:11:44.198175231
2025-11-07 14:11:41.377858,-1,2025-11-07 14:11:44.205867538
2025-11-07 14:11:41.377858,-146,2025-11-07 14:11:44.213559846
2025-11-07 14:11:41.377858,29695,2025-11-07 14:11:44.221252154
2025-11-07 14:11:41.377858,-1,2025-11-07 14:11:44.228944462
2025-11-07 14:11:41.377858,-134,2025-11-07 14:11:44.236636769
2025-11-07 14:11:41.377858,-32257,2025-11-07 14:11:44.244329077
2025-11-07 14:11:41.377858,-1,2025-11-07 14:11:44.252021385
2025-11-07 14:11:41.377858,-120,2025-11-07 14:11:44.259713692
2025-11-07 14:11:41.377858,-28417,2025-11-07 14:11:44.267406000
2025-11-07 14:11:41.377858,-1,2025-11-07 14:11:44.275098308
2025-11-07 14:11:41.377858,-98,2025-11-07 14:11:44.282790615
2025-11-07 14:11:41.377858,-21761,2025-11-07 14:11:44.290482923
2025-11-07 14:11:41.377858,-1,2025-11-07 14:11:44.298175231
2025-11-07 14:11:41.377858,-76,2025-11-07 14:11:44.305867538
2025-11-07 14:11:41.377858,-16897,2025-11-07 14:11:44.313559846
2025-11-07 14:11:41.377858,-1,2025-11-07 14:11:44.321252154
2025-11-07 14:11:41.377858,-57,2025-11-07 14:11:44.328944462
2025-11-07 14:11:41.377858,-13057,2025-11-07 14:11:44.336636769
2025-11-07 14:11:41.377858,-1,2025-11-07 14:11:44.344329077
2025-11-07 14:11:41.377858,-50,2025-11-07 14:11:44.352021385
2025-11-07 14:11:41.377858,-11265,2025-11-07 14:11:44.359713692
2025-11-07 14:11:41.377858,-1,2025-11-07 14:11:44.367406000
2025-11-07 14:11:41.377858,-45,2025-11-07 14:11:44.375098308
2025-11-07 14:11:41.377858,-13057,2025-11-07 14:11:44.382790615
2025-11-07 14:11:41.377858,-1,2025-11-07 14:11:44.390482923
2025-11-07 14:11:41.377858,-57,2025-11-07 14:11:44.398175231
2025-11-07 14:11:41.377858,-16129,2025-11-07 14:11:44.405867538
2025-11-07 14:11:41.377858,-1,2025-11-07 14:11:44.413559846
2025-11-07 14:11:41.377858,-74,2025-11-07 14:11:44.421252154
2025-11-07 14:11:41.377858,-19201,2025-11-07 14:11:44.428944462
2025-11-07 14:11:41.377858,-1,2025-11-07 14:11:44.436636769
2025-11-07 14:11:41.377858,-74,2025-11-07 14:11:44.444329077
2025-11-07 14:11:41.377858,-18689,2025-11-07 14:11:44.452021385
2025-11-07 14:11:41.377858,-1,2025-11-07 14:11:44.459713692
2025-11-07 14:11:41.377858,-72,2025-11-07 14:11:44.467406000
2025-11-07 14:11:41.377858,-15617,2025-11-07 14:11:44.475098308
2025-11-07 14:11:41.377858,-1,2025-11-07 14:11:44.482790615
2025-11-07 14:11:41.377858,-57,2025-11-07 14:11:44.490482923
2025-11-07 14:11:41.377858,-14337,2025-11-07 14:11:44.498175231
2025-11-07 14:11:41.377858,-1,2025-11-07 14:11:44.505867538
2025-11-07 14:11:41.377858,-52,2025-11-07 14:11:44.513559846
2025-11-07 14:11:41.377858,-9985,2025-11-07 14:11:44.521252154
2025-11-07 14:11:41.377858,-1,2025-11-07 14:11:44.528944462
2025-11-07 14:11:41.377858,-38,2025-11-07 14:11:44.536636769
2025-11-07 14:11:41.377858,-9473,2025-11-07 14:11:44.544329077
2025-11-07 14:11:41.377858,-1,2025-11-07 14:11:44.552021385
2025-11-07 14:11:41.377858,-33,2025-11-07 14:11:44.559713692
2025-11-07 14:11:41.377858,-7681,2025-11-07 14:11:44.567406000
2025-11-07 14:11:41.377858,-1,2025-11-07 14:11:44.575098308
2025-11-07 14:11:41.377858,-36,2025-11-07 14:11:44.582790615
2025-11-07 14:11:41.377858,-8961,2025-11-07 14:11:44.590482923
2025-11-07 14:11:41.377858,-1,2025-11-07 14:11:44.598175231
2025-11-07 14:11:41.377858,-33,2025-11-07 14:11:44.605867538
2025-11-07 14:11:41.377858,-8193,2025-11-07 14:11:44.613559846
2025-11-07 14:11:41.377858,-1,2025-11-07 14:11:44.621252154
2025-11-07 14:11:41.377858,-33,2025-11-07 14:11:44.628944462
2025-11-07 14:11:41.377858,-7681,2025-11-07 14:11:44.636636769
2025-11-07 14:11:41.377858,-1,2025-11-07 14:11:44.644329077
2025-11-07 14:11:41.377858,-28,2025-11-07 14:11:44.652021385
2025-11-07 14:11:41.377858,-6401,2025-11-07 14:11:44.659713692
2025-11-07 14:11:41.377858,-1,2025-11-07 14:11:44.667406000
2025-11-07 14:11:41.377858,-24,2025-11-07 14:11:44.675098308
2025-11-07 14:11:41.377858,-5121,2025-11-07 14:11:44.682790615
2025-11-07 14:11:41.377858,-1,2025-11-07 14:11:44.690482923
2025-11-07 14:11:41.377858,-19,2025-11-07 14:11:44.698175231
2025-11-07 14:11:41.377858,-4609,2025-11-07 14:11:44.705867538
2025-11-07 14:11:41.377858,-1,2025-11-07 14:11:44.713559846
2025-11-07 14:11:41.377858,-19,2025-11-07 14:11:44.721252154
2025-11-07 14:11:41.377858,-3329,2025-11-07 14:11:44.728944462
2025-11-07 14:11:41.377858,-1,2025-11-07 14:11:44.736636769
2025-11-07 14:11:41.377858,-9,2025-11-07 14:11:44.744329077
2025-11-07 14:11:41.917089,-14,2025-11-07 14:11:44.752021385
2025-11-07 14:11:41.917089,-3329,2025-11-07 14:11:44.759713692
2025-11-07 14:11:41.917089,-1,2025-11-07 14:11:44.767406000
2025-11-07 14:11:41.917089,-12,2025-11-07 14:11:44.775098308
2025-11-07 14:11:41.917089,-2049,2025-11-07 14:11:44.782790615
2025-11-07 14:11:41.917089,-1,2025-11-07 14:11:44.790482923
2025-11-07 14:11:41.917089,-7,2025-11-07 14:11:44.798175231
2025-11-07 14:11:41.917089,-769,2025-11-07 14:11:44.805867538
2025-11-07 14:11:41.917089,-1,2025-11-07 14:11:44.813559846
2025-11-07 14:11:41.917089,0,2025-11-07 14:11:44.821252154
2025-11-07 14:11:41.917089,1792,2025-11-07 14:11:44.828944462
2025-11-07 14:11:41.917089,0,2025-11-07 14:11:44.836636769
2025-11-07 14:11:41.917089,12,2025-11-07 14:11:44.844329077
2025-11-07 14:11:41.917089,1792,2025-11-07 14:11:44.852021385
2025-11-07 14:11:41.917089,0,2025-11-07 14:11:44.859713692
2025-11-07 14:11:41.917089,4,2025-11-07 14:11:44.867406000
2025-11-07 14:11:41.917089,0,2025-11-07 14:11:44.875098308
2025-11-07 14:11:41.917089,0,2025-11-07 14:11:44.882790615
2025-11-07 14:11:41.917089,-7,2025-11-07 14:11:44.890482923
2025-11-07 14:11:41.917089,-3329,2025-11-07 14:11:44.898175230
2025-11-07 14:11:41.917089,-1,2025-11-07 14:11:44.905867538
2025-11-07 14:11:41.917089,-14,2025-11-07 14:11:44.913559846
2025-11-07 14:11:41.917089,-1537,2025-11-07 14:11:44.921252154
2025-11-07 14:11:41.917089,-1,2025-11-07 14:11:44.928944462
2025-11-07 14:11:41.917089,16,2025-11-07 14:11:44.936636769
2025-11-07 14:11:41.917089,9216,2025-11-07 14:11:44.944329077
2025-11-07 14:11:41.917089,0,2025-11-07 14:11:44.952021385
2025-11-07 14:11:41.917089,38,2025-11-07 14:11:44.959713692
2025-11-07 14:11:41.917089,8448,2025-11-07 14:11:44.967406000
2025-11-07 14:11:41.917089,0,2025-11-07 14:11:44.975098308
2025-11-07 14:11:41.917089,24,2025-11-07 14:11:44.982790615
2025-11-07 14:11:41.917089,3072,2025-11-07 14:11:44.990482923
2025-11-07 14:11:41.917089,0,2025-11-07 14:11:44.998175231
2025-11-07 14:11:41.917089,12,2025-11-07 14:11:45.005867538
2025-11-07 14:11:41.917089,4864,2025-11-07 14:11:45.013559846
2025-11-07 14:11:41.917089,0,2025-11-07 14:11:45.021252154
2025-11-07 14:11:41.917089,19,2025-11-07 14:11:45.028944462
2025-11-07 14:11:41.917089,3584,2025-11-07 14:11:45.036636769
2025-11-07 14:11:41.917089,0,2025-11-07 14:11:45.044329077
2025-11-07 14:11:41.917089,9,2025-11-07 14:11:45.052021385
2025-11-07 14:11:41.917089,1792,2025-11-07 14:11:45.059713692
2025-11-07 14:11:41.917089,0,2025-11-07 14:11:45.067406000
2025-11-07 14:11:41.917089,124,2025-11-07 14:11:45.075098308
2025-11-07 14:11:41.917089,20480,2025-11-07 14:11:45.082790615
2025-11-07 14:11:41.917089,2,2025-11-07 14:11:45.090482923
2025-11-07 14:11:41.917089,1370,2025-11-07 14:11:45.098175231
2025-11-07 14:11:41.917089,31488,2025-11-07 14:11:45.105867538
2025-11-07 14:11:41.917089,7,2025-11-07 14:11:45.113559846
2025-11-07 14:11:41.917089,1529,2025-11-07 14:11:45.121252154
2025-11-07 14:11:41.917089,-21248,2025-11-07 14:11:45.128944462
2025-11-07 14:11:41.917089,1,2025-11-07 14:11:45.136636769
2025-11-07 14:11:41.917089,-230,2025-11-07 14:11:45.144329077
2025-11-07 14:11:41.917089,24831,2025-11-07 14:11:45.152021385
2025-11-07 14:11:41.917089,-1,2025-11-07 14:11:45.159713692
2025-11-07 14:11:41.917089,-117,2025-11-07 14:11:45.167406000
2025-11-07 14:11:41.917089,3839,2025-11-07 14:11:45.175098308
2025-11-07 14:11:41.917089,-1,2025-11-07 14:11:45.182790615
2025-11-07 14:11:41.917089,-235,2025-11-07 14:11:45.190482923
2025-11-07 14:11:41.917089,18687,2025-11-07 14:11:45.198175231
2025-11-07 14:11:41.917089,-1,2025-11-07 14:11:45.205867538
2025-11-07 14:11:41.917089,-206,2025-11-07 14:11:45.213559846
2025-11-07 14:11:41.917089,13567,2025-11-07 14:11:45.221252154
2025-11-07 14:11:41.917089,-1,2025-11-07 14:11:45.228944462
2025-11-07 14:11:41.917089,-180,2025-11-07 14:11:45.236636769
2025-11-07 14:11:41.917089,19199,2025-11-07 14:11:45.244329077
2025-11-07 14:11:41.917089,-1,2025-11-07 14:11:45.252021385
2025-11-07 14:11:41.917089,-184,2025-11-07 14:11:45.259713692
2025-11-07 14:11:41.917089,22271,2025-11-07 14:11:45.267406000
2025-11-07 14:11:41.917089,-1,2025-11-07 14:11:45.275098308
2025-11-07 14:11:41.917089,-160,2025-11-07 14:11:45.282790615
2025-11-07 14:11:41.917089,25855,2025-11-07 14:11:45.290482923
2025-11-07 14:11:41.917089,-1,2025-11-07 14:11:45.298175231
2025-11-07 14:11:41.917089,-151,2025-11-07 14:11:45.305867538
2025-11-07 14:11:41.917089,28415,2025-11-07 14:11:45.313559846
2025-11-07 14:11:41.917089,-1,2025-11-07 14:11:45.321252154
2025-11-07 14:11:41.917089,-139,2025-11-07 14:11:45.328944462
2025-11-07 14:11:41.917089,-32257,2025-11-07 14:11:45.336636769
2025-11-07 14:11:41.917089,-1,2025-11-07 14:11:45.344329077
2025-11-07 14:11:41.917089,-115,2025-11-07 14:11:45.352021385
2025-11-07 14:11:41.917089,-27393,2025-11-07 14:11:45.359713692
2025-11-07 14:11:41.917089,-1,2025-11-07 14:11:45.367406000
2025-11-07 14:11:41.917089,-96,2025-11-07 14:11:45.375098308
2025-11-07 14:11:41.917089,-21249,2025-11-07 14:11:45.382790615
2025-11-07 14:11:41.917089,-1,2025-11-07 14:11:45.390482923
2025-11-07 14:11:41.917089,-76,2025-11-07 14:11:45.398175231
2025-11-07 14:11:41.917089,-18689,2025-11-07 14:11:45.405867538
2025-11-07 14:11:41.917089,-1,2025-11-07 14:11:45.413559846
2025-11-07 14:11:41.917089,-69,2025-11-07 14:11:45.421252154
2025-11-07 14:11:41.917089,-17409,2025-11-07 14:11:45.428944462
2025-11-07 14:11:41.917089,-1,2025-11-07 14:11:45.436636769
2025-11-07 14:11:41.917089,-74,2025-11-07 14:11:45.444329077
2025-11-07 14:11:41.917089,-19201,2025-11-07 14:11:45.452021385
2025-11-07 14:11:41.917089,-1,2025-11-07 14:11:45.459713692
2025-11-07 14:11:41.917089,-81,2025-11-07 14:11:45.467406000
2025-11-07 14:11:41.917089,-21761,2025-11-07 14:11:45.475098308
2025-11-07 14:11:41.917089,-1,2025-11-07 14:11:45.482790615
2025-11-07 14:11:41.917089,-88,2025-11-07 14:11:45.490482923
2025-11-07 14:11:41.917089,-23041,2025-11-07 14:11:45.498175231
2025-11-07 14:11:41.917089,-1,2025-11-07 14:11:45.505867538
2025-11-07 14:11:41.917089,-96,2025-11-07 14:11:45.513559846
2025-11-07 14:11:41.917089,-24833,2025-11-07 14:11:45.521252154
2025-11-07 14:11:41.917089,-1,2025-11-07 14:11:45.528944462
2025-11-07 14:11:41.917089,-93,2025-11-07 14:11:45.536636769
2025-11-07 14:11:41.917089,-22273,2025-11-07 14:11:45.544329077
2025-11-07 14:11:41.917089,-1,2025-11-07 14:11:45.552021385
2025-11-07 14:11:41.917089,-79,2025-11-07 14:11:45.559713692
2025-11-07 14:11:41.917089,-18689,2025-11-07 14:11:45.567406000
2025-11-07 14:11:41.917089,-1,2025-11-07 14:11:45.575098308
2025-11-07 14:11:41.917089,-74,2025-11-07 14:11:45.582790615
2025-11-07 14:11:42.486417,-69,2025-11-07 14:11:45.590482923
2025-11-07 14:11:42.486417,-15105,2025-11-07 14:11:45.598175231
2025-11-07 14:11:42.486417,-1,2025-11-07 14:11:45.605867538
2025-11-07 14:11:42.486417,-60,2025-11-07 14:11:45.613559846
2025-11-07 14:11:42.486417,-15105,2025-11-07 14:11:45.621252154
2025-11-07 14:11:42.486417,-1,2025-11-07 14:11:45.628944462
2025-11-07 14:11:42.486417,-48,2025-11-07 14:11:45.636636769
2025-11-07 14:11:42.486417,-8193,2025-11-07 14:11:45.644329077
2025-11-07 14:11:42.486417,-1,2025-11-07 14:11:45.652021385
2025-11-07 14:11:42.486417,-33,2025-11-07 14:11:45.659713692
2025-11-07 14:11:42.486417,-8193,2025-11-07 14:11:45.667406000
2025-11-07 14:11:42.486417,-1,2025-11-07 14:11:45.675098308
2025-11-07 14:11:42.486417,-33,2025-11-07 14:11:45.682790615
2025-11-07 14:11:42.486417,-8193,2025-11-07 14:11:45.690482923
2025-11-07 14:11:42.486417,-1,2025-11-07 14:11:45.698175231
2025-11-07 14:11:42.486417,-31,2025-11-07 14:11:45.705867538
2025-11-07 14:11:42.486417,-7681,2025-11-07 14:11:45.713559846
2025-11-07 14:11:42.486417,-1,2025-11-07 14:11:45.721252154
2025-11-07 14:11:42.486417,-31,2025-11-07 14:11:45.728944462
2025-11-07 14:11:42.486417,-7681,2025-11-07 14:11:45.736636769
2025-11-07 14:11:42.486417,-1,2025-11-07 14:11:45.744329077
2025-11-07 14:11:42.486417,-31,2025-11-07 14:11:45.752021385
2025-11-07 14:11:42.486417,-6401,2025-11-07 14:11:45.759713692
2025-11-07 14:11:42.486417,-1,2025-11-07 14:11:45.767406000
2025-11-07 14:11:42.486417,-21,2025-11-07 14:11:45.775098308
2025-11-07 14:11:42.486417,-6401,2025-11-07 14:11:45.782790615
2025-11-07 14:11:42.486417,-1,2025-11-07 14:11:45.790482923
2025-11-07 14:11:42.486417,-31,2025-11-07 14:11:45.798175231
2025-11-07 14:11:42.486417,-6401,2025-11-07 14:11:45.805867538
2025-11-07 14:11:42.486417,-1,2025-11-07 14:11:45.813559846
2025-11-07 14:11:42.486417,-21,2025-11-07 14:11:45.821252154
2025-11-07 14:11:42.486417,-5121,2025-11-07 14:11:45.828944462
2025-11-07 14:11:42.486417,-1,2025-11-07 14:11:45.836636769
2025-11-07 14:11:42.486417,-21,2025-11-07 14:11:45.844329077
2025-11-07 14:11:42.486417,-5121,2025-11-07 14:11:45.852021385
2025-11-07 14:11:42.486417,-1,2025-11-07 14:11:45.859713692
2025-11-07 14:11:42.486417,-19,2025-11-07 14:11:45.867406000
2025-11-07 14:11:42.486417,-3841,2025-11-07 14:11:45.875098308
2025-11-07 14:11:42.486417,-1,2025-11-07 14:11:45.882790615
2025-11-07 14:11:42.486417,-19,2025-11-07 14:11:45.890482923
2025-11-07 14:11:42.486417,-3841,2025-11-07 14:11:45.898175230
2025-11-07 14:11:42.486417,-1,2025-11-07 14:11:45.905867538
2025-11-07 14:11:42.486417,-12,2025-11-07 14:11:45.913559846
2025-11-07 14:11:42.486417,-3329,2025-11-07 14:11:45.921252154
2025-11-07 14:11:42.486417,-1,2025-11-07 14:11:45.928944462
2025-11-07 14:11:42.486417,-21,2025-11-07 14:11:45.936636769
2025-11-07 14:11:42.486417,-3841,2025-11-07 14:11:45.944329077
2025-11-07 14:11:42.486417,-1,2025-11-07 14:11:45.952021385
2025-11-07 14:11:42.486417,-16,2025-11-07 14:11:45.959713692
2025-11-07 14:11:42.486417,-8193,2025-11-07 14:11:45.967406000
2025-11-07 14:11:42.486417,-1,2025-11-07 14:11:45.975098308
2025-11-07 14:11:42.486417,-40,2025-11-07 14:11:45.982790615
2025-11-07 14:11:42.486417,-9473,2025-11-07 14:11:45.990482923
2025-11-07 14:11:42.486417,-1,2025-11-07 14:11:45.998175231
2025-11-07 14:11:42.486417,-31,2025-11-07 14:11:46.005867538
2025-11-07 14:11:42.486417,-1537,2025-11-07 14:11:46.013559846
2025-11-07 14:11:42.486417,-1,2025-11-07 14:11:46.021252154
2025-11-07 14:11:42.486417,19,2025-11-07 14:11:46.028944462
2025-11-07 14:11:42.486417,5376,2025-11-07 14:11:46.036636769
2025-11-07 14:11:42.486417,0,2025-11-07 14:11:46.044329077
2025-11-07 14:11:42.486417,12,2025-11-07 14:11:46.052021385
2025-11-07 14:11:42.486417,-512,2025-11-07 14:11:46.059713692
2025-11-07 14:11:42.486417,-1,2025-11-07 14:11:46.067406000
2025-11-07 14:11:42.486417,-19,2025-11-07 14:11:46.075098308
2025-11-07 14:11:42.486417,-3841,2025-11-07 14:11:46.082790615
2025-11-07 14:11:42.486417,-1,2025-11-07 14:11:46.090482923
2025-11-07 14:11:42.486417,-7,2025-11-07 14:11:46.098175231
2025-11-07 14:11:42.486417,-3329,2025-11-07 14:11:46.105867538
2025-11-07 14:11:42.486417,-1,2025-11-07 14:11:46.113559846
2025-11-07 14:11:42.486417,-19,2025-11-07 14:11:46.121252154
2025-11-07 14:11:42.486417,-4609,2025-11-07 14:11:46.128944462
2025-11-07 14:11:42.486417,-1,2025-11-07 14:11:46.136636769
2025-11-07 14:11:42.486417,-28,2025-11-07 14:11:46.144329077
2025-11-07 14:11:42.486417,19199,2025-11-07 14:11:46.152021385
2025-11-07 14:11:42.486417,0,2025-11-07 14:11:46.159713692
2025-11-07 14:11:42.486417,511,2025-11-07 14:11:46.167406000
2025-11-07 14:11:42.486417,-5120,2025-11-07 14:11:46.175098308
2025-11-07 14:11:42.486417,4,2025-11-07 14:11:46.182790615
2025-11-07 14:11:42.486417,1817,2025-11-07 14:11:46.190482923
2025-11-07 14:11:42.486417,-12800,2025-11-07 14:11:46.198175231
2025-11-07 14:11:42.486417,5,2025-11-07 14:11:46.205867538
2025-11-07 14:11:42.486417,412,2025-11-07 14:11:46.213559846
2025-11-07 14:11:42.486417,1792,2025-11-07 14:11:46.221252154
2025-11-07 14:11:42.486417,-1,2025-11-07 14:11:46.228944462
2025-11-07 14:11:42.486417,-180,2025-11-07 14:11:46.236636769
2025-11-07 14:11:42.486417,31999,2025-11-07 14:11:46.244329077
2025-11-07 14:11:42.486417,-1,2025-11-07 14:11:46.252021385
2025-11-07 14:11:42.486417,-259,2025-11-07 14:11:46.259713692
2025-11-07 14:11:42.486417,767,2025-11-07 14:11:46.267406000
2025-11-07 14:11:42.486417,-1,2025-11-07 14:11:46.275098308
2025-11-07 14:11:42.486417,-211,2025-11-07 14:11:46.282790615
2025-11-07 14:11:42.486417,6911,2025-11-07 14:11:46.290482923
2025-11-07 14:11:42.486417,-1,2025-11-07 14:11:46.298175231
2025-11-07 14:11:42.486417,-225,2025-11-07 14:11:46.305867538
2025-11-07 14:11:42.486417,13567,2025-11-07 14:11:46.313559846
2025-11-07 14:11:42.486417,-1,2025-11-07 14:11:46.321252154
2025-11-07 14:11:42.486417,-204,2025-11-07 14:11:46.328944462
2025-11-07 14:11:42.486417,14847,2025-11-07 14:11:46.336636769
2025-11-07 14:11:42.486417,-1,2025-11-07 14:11:46.344329077
2025-11-07 14:11:42.486417,-184,2025-11-07 14:11:46.352021385
2025-11-07 14:11:42.486417,20991,2025-11-07 14:11:46.359713692
2025-11-07 14:11:42.486417,-1,2025-11-07 14:11:46.367406000
2025-11-07 14:11:42.486417,-170,2025-11-07 14:11:46.375098308
2025-11-07 14:11:42.486417,22783,2025-11-07 14:11:46.382790615
2025-11-07 14:11:42.486417,-1,2025-11-07 14:11:46.390482923
2025-11-07 14:11:42.486417,-158,2025-11-07 14:11:46.398175231
2025-11-07 14:11:42.486417,27903,2025-11-07 14:11:46.405867538
2025-11-07 14:11:42.486417,-1,2025-11-07 14:11:46.413559846
2025-11-07 14:11:42.486417,-141,2025-11-07 14:11:46.421252154
2025-11-07 14:11:43.087110,-132,2025-11-07 14:11:46.428944462
2025-11-07 14:11:43.087110,-30465,2025-11-07 14:11:46.436636769
2025-11-07 14:11:43.087110,-1,2025-11-07 14:11:46.444329077
2025-11-07 14:11:43.087110,-105,2025-11-07 14:11:46.452021385
2025-11-07 14:11:43.087110,-23553,2025-11-07 14:11:46.459713692
2025-11-07 14:11:43.087110,-1,2025-11-07 14:11:46.467406000
2025-11-07 14:11:43.087110,-86,2025-11-07 14:11:46.475098308
2025-11-07 14:11:43.087110,-18689,2025-11-07 14:11:46.482790615
2025-11-07 14:11:43.087110,-1,2025-11-07 14:11:46.490482923
2025-11-07 14:11:43.087110,-52,2025-11-07 14:11:46.498175231
2025-11-07 14:11:43.087110,-13057,2025-11-07 14:11:46.505867538
2025-11-07 14:11:43.087110,-1,2025-11-07 14:11:46.513559846
2025-11-07 14:11:43.087110,-74,2025-11-07 14:11:46.521252154
2025-11-07 14:11:43.087110,-19201,2025-11-07 14:11:46.528944462
2025-11-07 14:11:43.087110,-1,2025-11-07 14:11:46.536636769
2025-11-07 14:11:43.087110,-62,2025-11-07 14:11:46.544329077
2025-11-07 14:11:43.087110,-18689,2025-11-07 14:11:46.552021385
2025-11-07 14:11:43.087110,-1,2025-11-07 14:11:46.559713692
2025-11-07 14:11:43.087110,-98,2025-11-07 14:11:46.567406000
2025-11-07 14:11:43.087110,-26113,2025-11-07 14:11:46.575098308
2025-11-07 14:11:43.087110,-1,2025-11-07 14:11:46.582790615
2025-11-07 14:11:43.087110,-91,2025-11-07 14:11:46.590482923
2025-11-07 14:11:43.087110,-21249,2025-11-07 14:11:46.598175231
2025-11-07 14:11:43.087110,-1,2025-11-07 14:11:46.605867538
2025-11-07 14:11:43.087110,-91,2025-11-07 14:11:46.613559846
2025-11-07 14:11:43.087110,-23041,2025-11-07 14:11:46.621252154
2025-11-07 14:11:43.087110,-1,2025-11-07 14:11:46.628944462
2025-11-07 14:11:43.087110,-69,2025-11-07 14:11:46.636636769
2025-11-07 14:11:43.087110,-14337,2025-11-07 14:11:46.644329077
2025-11-07 14:11:43.087110,-1,2025-11-07 14:11:46.652021385
2025-11-07 14:11:43.087110,-69,2025-11-07 14:11:46.659713692
2025-11-07 14:11:43.087110,-18177,2025-11-07 14:11:46.667406000
2025-11-07 14:11:43.087110,-1,2025-11-07 14:11:46.675098308
2025-11-07 14:11:43.087110,-57,2025-11-07 14:11:46.682790615
2025-11-07 14:11:43.087110,-13057,2025-11-07 14:11:46.690482923
2025-11-07 14:11:43.087110,-1,2025-11-07 14:11:46.698175231
2025-11-07 14:11:43.087110,-55,2025-11-07 14:11:46.705867538
2025-11-07 14:11:43.087110,-13057,2025-11-07 14:11:46.713559846
2025-11-07 14:11:43.087110,-1,2025-11-07 14:11:46.721252154
2025-11-07 14:11:43.087110,-48,2025-11-07 14:11:46.728944462
2025-11-07 14:11:43.087110,-12033,2025-11-07 14:11:46.736636769
2025-11-07 14:11:43.087110,-1,2025-11-07 14:11:46.744329077
2025-11-07 14:11:43.087110,-52,2025-11-07 14:11:46.752021385
2025-11-07 14:11:43.087110,-12033,2025-11-07 14:11:46.759713692
2025-11-07 14:11:43.087110,-1,2025-11-07 14:11:46.767406000
2025-11-07 14:11:43.087110,-43,2025-11-07 14:11:46.775098308
2025-11-07 14:11:43.087110,-12033,2025-11-07 14:11:46.782790615
2025-11-07 14:11:43.087110,-1,2025-11-07 14:11:46.790482923
2025-11-07 14:11:43.087110,-50,2025-11-07 14:11:46.798175231
2025-11-07 14:11:43.087110,-9985,2025-11-07 14:11:46.805867538
2025-11-07 14:11:43.087110,-1,2025-11-07 14:11:46.813559846
2025-11-07 14:11:43.087110,-40,2025-11-07 14:11:46.821252154
2025-11-07 14:11:43.087110,-11265,2025-11-07 14:11:46.828944462
2025-11-07 14:11:43.087110,-1,2025-11-07 14:11:46.836636769
2025-11-07 14:11:43.087110,-43,2025-11-07 14:11:46.844329077
2025-11-07 14:11:43.087110,-10753,2025-11-07 14:11:46.852021385
2025-11-07 14:11:43.087110,-1,2025-11-07 14:11:46.859713692
2025-11-07 14:11:43.087110,-43,2025-11-07 14:11:46.867406000
2025-11-07 14:11:43.087110,-8193,2025-11-07 14:11:46.875098308
2025-11-07 14:11:43.087110,-1,2025-11-07 14:11:46.882790615
2025-11-07 14:11:43.087110,-31,2025-11-07 14:11:46.890482923
2025-11-07 14:11:43.087110,-7681,2025-11-07 14:11:46.898175230
2025-11-07 14:11:43.087110,-1,2025-11-07 14:11:46.905867538
2025-11-07 14:11:43.087110,-26,2025-11-07 14:11:46.913559846
2025-11-07 14:11:43.087110,-5889,2025-11-07 14:11:46.921252154
2025-11-07 14:11:43.087110,-1,2025-11-07 14:11:46.928944462
2025-11-07 14:11:43.087110,-24,2025-11-07 14:11:46.936636769
2025-11-07 14:11:43.087110,-4609,2025-11-07 14:11:46.944329077
2025-11-07 14:11:43.087110,-1,2025-11-07 14:11:46.952021385
2025-11-07 14:11:43.087110,-19,2025-11-07 14:11:46.959713692
2025-11-07 14:11:43.087110,-5121,2025-11-07 14:11:46.967406000
2025-11-07 14:11:43.087110,-1,2025-11-07 14:11:46.975098308
2025-11-07 14:11:43.087110,-19,2025-11-07 14:11:46.982790615
2025-11-07 14:11:43.087110,-4609,2025-11-07 14:11:46.990482923
2025-11-07 14:11:43.087110,-1,2025-11-07 14:11:46.998175231
2025-11-07 14:11:43.087110,-21,2025-11-07 14:11:47.005867538
2025-11-07 14:11:43.087110,-4609,2025-11-07 14:11:47.013559846
2025-11-07 14:11:43.087110,-1,2025-11-07 14:11:47.021252154
2025-11-07 14:11:43.087110,-21,2025-11-07 14:11:47.028944462
2025-11-07 14:11:43.087110,-8961,2025-11-07 14:11:47.036636769
2025-11-07 14:11:43.087110,-1,2025-11-07 14:11:47.044329077
2025-11-07 14:11:43.087110,-43,2025-11-07 14:11:47.052021385
2025-11-07 14:11:43.087110,-9473,2025-11-07 14:11:47.059713692
2025-11-07 14:11:43.087110,-1,2025-11-07 14:11:47.067406000
2025-11-07 14:11:43.087110,-28,2025-11-07 14:11:47.075098308
2025-11-07 14:11:43.087110,-769,2025-11-07 14:11:47.082790615
2025-11-07 14:11:43.087110,-1,2025-11-07 14:11:47.090482923
2025-11-07 14:11:43.087110,16,2025-11-07 14:11:47.098175231
2025-11-07 14:11:43.087110,4864,2025-11-07 14:11:47.105867538
2025-11-07 14:11:43.087110,0,2025-11-07 14:11:47.113559846
2025-11-07 14:11:43.087110,14,2025-11-07 14:11:47.121252154
2025-11-07 14:11:43.087110,1024,2025-11-07 14:11:47.128944462
2025-11-07 14:11:43.087110,0,2025-11-07 14:11:47.136636769
2025-11-07 14:11:43.087110,-12,2025-11-07 14:11:47.144329077
2025-11-07 14:11:43.087110,-2049,2025-11-07 14:11:47.152021385
2025-11-07 14:11:43.087110,-1,2025-11-07 14:11:47.159713692
2025-11-07 14:11:43.087110,-2,2025-11-07 14:11:47.167406000
2025-11-07 14:11:43.087110,-1537,2025-11-07 14:11:47.175098308
2025-11-07 14:11:43.087110,-1,2025-11-07 14:11:47.182790615
2025-11-07 14:11:43.087110,-12,2025-11-07 14:11:47.190482923
2025-11-07 14:11:43.087110,-2817,2025-11-07 14:11:47.198175231
2025-11-07 14:11:43.087110,-1,2025-11-07 14:11:47.205867538
2025-11-07 14:11:43.087110,-16,2025-11-07 14:11:47.213559846
2025-11-07 14:11:43.087110,21759,2025-11-07 14:11:47.221252154
2025-11-07 14:11:43.087110,0,2025-11-07 14:11:47.228944462
2025-11-07 14:11:43.087110,501,2025-11-07 14:11:47.236636769
2025-11-07 14:11:43.087110,-14336,2025-11-07 14:11:47.244329077
2025-11-07 14:11:43.087110,4,2025-11-07 14:11:47.252021385
2025-11-07 14:11:43.087110,1745,2025-11-07 14:11:47.259713692
2025-11-07 14:11:43.626566,1394,2025-11-07 14:11:47.267406000
2025-11-07 14:11:43.626566,27648,2025-11-07 14:11:47.275098308
2025-11-07 14:11:43.626566,1,2025-11-07 14:11:47.282790615
2025-11-07 14:11:43.626566,-244,2025-11-07 14:11:47.290482923
2025-11-07 14:11:43.626566,22271,2025-11-07 14:11:47.298175231
2025-11-07 14:11:43.626566,-1,2025-11-07 14:11:47.305867538
2025-11-07 14:11:43.626566,-132,2025-11-07 14:11:47.313559846
2025-11-07 14:11:43.626566,255,2025-11-07 14:11:47.321252154
2025-11-07 14:11:43.626566,-1,2025-11-07 14:11:47.328944462
2025-11-07 14:11:43.626566,-244,2025-11-07 14:11:47.336636769
2025-11-07 14:11:43.626566,16639,2025-11-07 14:11:47.344329077
2025-11-07 14:11:43.626566,-1,2025-11-07 14:11:47.352021385
2025-11-07 14:11:43.626566,-213,2025-11-07 14:11:47.359713692
2025-11-07 14:11:43.626566,11263,2025-11-07 14:11:47.367406000
2025-11-07 14:11:43.626566,-1,2025-11-07 14:11:47.375098308
2025-11-07 14:11:43.626566,-177,2025-11-07 14:11:47.382790615
2025-11-07 14:11:43.626566,24831,2025-11-07 14:11:47.390482923
2025-11-07 14:11:43.626566,-1,2025-11-07 14:11:47.398175231
2025-11-07 14:11:43.626566,-158,2025-11-07 14:11:47.405867538
2025-11-07 14:11:43.626566,27903,2025-11-07 14:11:47.413559846
2025-11-07 14:11:43.626566,-1,2025-11-07 14:11:47.421252154
2025-11-07 14:11:43.626566,-139,2025-11-07 14:11:47.428944462
2025-11-07 14:11:43.626566,31487,2025-11-07 14:11:47.436636769
2025-11-07 14:11:43.626566,-1,2025-11-07 14:11:47.444329077
2025-11-07 14:11:43.626566,-132,2025-11-07 14:11:47.452021385
2025-11-07 14:11:43.626566,-32257,2025-11-07 14:11:47.459713692
2025-11-07 14:11:43.626566,-1,2025-11-07 14:11:47.467406000
2025-11-07 14:11:43.626566,-120,2025-11-07 14:11:47.475098308
2025-11-07 14:11:43.626566,-27393,2025-11-07 14:11:47.482790615
2025-11-07 14:11:43.626566,-1,2025-11-07 14:11:47.490482923
2025-11-07 14:11:43.626566,-93,2025-11-07 14:11:47.498175231
2025-11-07 14:11:43.626566,-21761,2025-11-07 14:11:47.505867538
2025-11-07 14:11:43.626566,-1,2025-11-07 14:11:47.513559846
2025-11-07 14:11:43.626566,-79,2025-11-07 14:11:47.521252154
2025-11-07 14:11:43.626566,-16897,2025-11-07 14:11:47.528944462
2025-11-07 14:11:43.626566,-1,2025-11-07 14:11:47.536636769
2025-11-07 14:11:43.626566,-60,2025-11-07 14:11:47.544329077
2025-11-07 14:11:43.626566,-13825,2025-11-07 14:11:47.552021385
2025-11-07 14:11:43.626566,-1,2025-11-07 14:11:47.559713692
2025-11-07 14:11:43.626566,-55,2025-11-07 14:11:47.567406000
2025-11-07 14:11:43.626566,-14337,2025-11-07 14:11:47.575098308
2025-11-07 14:11:43.626566,-1,2025-11-07 14:11:47.582790615
2025-11-07 14:11:43.626566,-62,2025-11-07 14:11:47.590482923
2025-11-07 14:11:43.626566,-16897,2025-11-07 14:11:47.598175231
2025-11-07 14:11:43.626566,-1,2025-11-07 14:11:47.605867538
2025-11-07 14:11:43.626566,-69,2025-11-07 14:11:47.613559846
2025-11-07 14:11:43.626566,-19201,2025-11-07 14:11:47.621252154
2025-11-07 14:11:43.626566,-1,2025-11-07 14:11:47.628944462
2025-11-07 14:11:43.626566,-81,2025-11-07 14:11:47.636636769
2025-11-07 14:11:43.626566,-21761,2025-11-07 14:11:47.644329077
2025-11-07 14:11:43.626566,-1,2025-11-07 14:11:47.652021385
2025-11-07 14:11:43.626566,-91,2025-11-07 14:11:47.659713692
2025-11-07 14:11:43.626566,-23041,2025-11-07 14:11:47.667406000
2025-11-07 14:11:43.626566,-1,2025-11-07 14:11:47.675098308
2025-11-07 14:11:43.626566,-84,2025-11-07 14:11:47.682790615
2025-11-07 14:11:43.626566,-19201,2025-11-07 14:11:47.690482923
2025-11-07 14:11:43.626566,-1,2025-11-07 14:11:47.698175231
2025-11-07 14:11:43.626566,-74,2025-11-07 14:11:47.705867538
2025-11-07 14:11:43.626566,-18177,2025-11-07 14:11:47.713559846
2025-11-07 14:11:43.626566,-1,2025-11-07 14:11:47.721252154
2025-11-07 14:11:43.626566,-67,2025-11-07 14:11:47.728944462
2025-11-07 14:11:43.626566,-14337,2025-11-07 14:11:47.736636769
2025-11-07 14:11:43.626566,-1,2025-11-07 14:11:47.744329077
2025-11-07 14:11:43.626566,-55,2025-11-07 14:11:47.752021385
2025-11-07 14:11:43.626566,-13825,2025-11-07 14:11:47.759713692
2025-11-07 14:11:43.626566,-1,2025-11-07 14:11:47.767406000
2025-11-07 14:11:43.626566,-50,2025-11-07 14:11:47.775098308
2025-11-07 14:11:43.626566,-12033,2025-11-07 14:11:47.782790615
2025-11-07 14:11:43.626566,-1,2025-11-07 14:11:47.790482923
2025-11-07 14:11:43.626566,-50,2025-11-07 14:11:47.798175231
2025-11-07 14:11:43.626566,-12545,2025-11-07 14:11:47.805867538
2025-11-07 14:11:43.626566,-1,2025-11-07 14:11:47.813559846
2025-11-07 14:11:43.626566,-52,2025-11-07 14:11:47.821252154
2025-11-07 14:11:43.626566,-12545,2025-11-07 14:11:47.828944462
2025-11-07 14:11:43.626566,-1,2025-11-07 14:11:47.836636769
2025-11-07 14:11:43.626566,-43,2025-11-07 14:11:47.844329077
2025-11-07 14:11:43.626566,-10753,2025-11-07 14:11:47.852021385
2025-11-07 14:11:43.626566,-1,2025-11-07 14:11:47.859713692
2025-11-07 14:11:43.626566,-48,2025-11-07 14:11:47.867406000
2025-11-07 14:11:43.626566,-9985,2025-11-07 14:11:47.875098308
2025-11-07 14:11:43.626566,-1,2025-11-07 14:11:47.882790615
2025-11-07 14:11:43.626566,-33,2025-11-07 14:11:47.890482923
2025-11-07 14:11:43.626566,-8961,2025-11-07 14:11:47.898175230
2025-11-07 14:11:43.626566,-1,2025-11-07 14:11:47.905867538
2025-11-07 14:11:43.626566,-36,2025-11-07 14:11:47.913559846
2025-11-07 14:11:43.626566,-6401,2025-11-07 14:11:47.921252154
2025-11-07 14:11:43.626566,-1,2025-11-07 14:11:47.928944462
2025-11-07 14:11:43.626566,-28,2025-11-07 14:11:47.936636769
2025-11-07 14:11:43.626566,-8961,2025-11-07 14:11:47.944329077
2025-11-07 14:11:43.626566,-1,2025-11-07 14:11:47.952021385
2025-11-07 14:11:43.626566,-28,2025-11-07 14:11:47.959713692
2025-11-07 14:11:43.626566,-5121,2025-11-07 14:11:47.967406000
2025-11-07 14:11:43.626566,-1,2025-11-07 14:11:47.975098308
2025-11-07 14:11:43.626566,-24,2025-11-07 14:11:47.982790615
2025-11-07 14:11:43.626566,-6401,2025-11-07 14:11:47.990482923
2025-11-07 14:11:43.626566,-1,2025-11-07 14:11:47.998175231
2025-11-07 14:11:43.626566,-26,2025-11-07 14:11:48.005867538
2025-11-07 14:11:43.626566,-5889,2025-11-07 14:11:48.013559846
2025-11-07 14:11:43.626566,-1,2025-11-07 14:11:48.021252154
2025-11-07 14:11:43.626566,-21,2025-11-07 14:11:48.028944462
2025-11-07 14:11:43.626566,-5121,2025-11-07 14:11:48.036636769
2025-11-07 14:11:43.626566,-1,2025-11-07 14:11:48.044329077
2025-11-07 14:11:43.626566,-19,2025-11-07 14:11:48.052021385
2025-11-07 14:11:43.626566,-4609,2025-11-07 14:11:48.059713692
2025-11-07 14:11:43.626566,-1,2025-11-07 14:11:48.067406000
2025-11-07 14:11:43.626566,-24,2025-11-07 14:11:48.075098308
2025-11-07 14:11:43.626566,-7681,2025-11-07 14:11:48.082790615
2025-11-07 14:11:43.626566,-1,2025-11-07 14:11:48.090482923
2025-11-07 14:11:43.626566,-40,2025-11-07 14:11:48.098175231
2025-11-07 14:11:44.197086,-43,2025-11-07 14:11:48.105867538
2025-11-07 14:11:44.197086,-10753,2025-11-07 14:11:48.113559846
2025-11-07 14:11:44.197086,-1,2025-11-07 14:11:48.121252154
2025-11-07 14:11:44.197086,-31,2025-11-07 14:11:48.128944462
2025-11-07 14:11:44.197086,-769,2025-11-07 14:11:48.136636769
2025-11-07 14:11:44.197086,-1,2025-11-07 14:11:48.144329077
2025-11-07 14:11:44.197086,19,2025-11-07 14:11:48.152021385
2025-11-07 14:11:44.197086,5376,2025-11-07 14:11:48.159713692
2025-11-07 14:11:44.197086,0,2025-11-07 14:11:48.167406000
2025-11-07 14:11:44.197086,16,2025-11-07 14:11:48.175098308
2025-11-07 14:11:44.197086,1792,2025-11-07 14:11:48.182790615
2025-11-07 14:11:44.197086,0,2025-11-07 14:11:48.190482923
2025-11-07 14:11:44.197086,2,2025-11-07 14:11:48.198175231
2025-11-07 14:11:44.197086,1792,2025-11-07 14:11:48.205867538
2025-11-07 14:11:44.197086,0,2025-11-07 14:11:48.213559846
2025-11-07 14:11:44.197086,9,2025-11-07 14:11:48.221252154
2025-11-07 14:11:44.197086,512,2025-11-07 14:11:48.228944462
2025-11-07 14:11:44.197086,0,2025-11-07 14:11:48.236636769
2025-11-07 14:11:44.197086,2,2025-11-07 14:11:48.244329077
2025-11-07 14:11:44.197086,-512,2025-11-07 14:11:48.252021385
2025-11-07 14:11:44.197086,-1,2025-11-07 14:11:48.259713692
2025-11-07 14:11:44.197086,-7,2025-11-07 14:11:48.267406000
2025-11-07 14:11:44.197086,30975,2025-11-07 14:11:48.275098308
2025-11-07 14:11:44.197086,0,2025-11-07 14:11:48.282790615
2025-11-07 14:11:44.197086,590,2025-11-07 14:11:48.290482923
2025-11-07 14:11:44.197086,18176,2025-11-07 14:11:48.298175231
2025-11-07 14:11:44.197086,5,2025-11-07 14:11:48.305867538
2025-11-07 14:11:44.197086,1858,2025-11-07 14:11:48.313559846
2025-11-07 14:11:44.197086,-22784,2025-11-07 14:11:48.321252154
2025-11-07 14:11:44.197086,5,2025-11-07 14:11:48.328944462
2025-11-07 14:11:44.197086,362,2025-11-07 14:11:48.336636769
2025-11-07 14:11:44.197086,-768,2025-11-07 14:11:48.344329077
2025-11-07 14:11:44.197086,-2,2025-11-07 14:11:48.352021385
2025-11-07 14:11:44.197086,-180,2025-11-07 14:11:48.359713692
2025-11-07 14:11:44.197086,28927,2025-11-07 14:11:48.367406000
2025-11-07 14:11:44.197086,-1,2025-11-07 14:11:48.375098308
2025-11-07 14:11:44.197086,-266,2025-11-07 14:11:48.382790615
2025-11-07 14:11:44.197086,2047,2025-11-07 14:11:48.390482923
2025-11-07 14:11:44.197086,-1,2025-11-07 14:11:48.398175231
2025-11-07 14:11:44.197086,-201,2025-11-07 14:11:48.405867538
2025-11-07 14:11:44.197086,8703,2025-11-07 14:11:48.413559846
2025-11-07 14:11:44.197086,-1,2025-11-07 14:11:48.421252154
2025-11-07 14:11:44.197086,-225,2025-11-07 14:11:48.428944462
2025-11-07 14:11:44.197086,13055,2025-11-07 14:11:48.436636769
2025-11-07 14:11:44.197086,-1,2025-11-07 14:11:48.444329077
2025-11-07 14:11:44.197086,-201,2025-11-07 14:11:48.452021385
2025-11-07 14:11:44.197086,16127,2025-11-07 14:11:48.459713692
2025-11-07 14:11:44.197086,-1,2025-11-07 14:11:48.467406000
2025-11-07 14:11:44.197086,-184,2025-11-07 14:11:48.475098308
2025-11-07 14:11:44.197086,19711,2025-11-07 14:11:48.482790615
2025-11-07 14:11:44.197086,-1,2025-11-07 14:11:48.490482923
2025-11-07 14:11:44.197086,-170,2025-11-07 14:11:48.498175231
2025-11-07 14:11:44.197086,24831,2025-11-07 14:11:48.505867538
2025-11-07 14:11:44.197086,-1,2025-11-07 14:11:48.513559846
2025-11-07 14:11:44.197086,-153,2025-11-07 14:11:48.521252154
2025-11-07 14:11:44.197086,28415,2025-11-07 14:11:48.528944462
2025-11-07 14:11:44.197086,-1,2025-11-07 14:11:48.536636769
2025-11-07 14:11:44.197086,-136,2025-11-07 14:11:48.544329077
2025-11-07 14:11:44.197086,-30465,2025-11-07 14:11:48.552021385
2025-11-07 14:11:44.197086,-1,2025-11-07 14:11:48.559713692
2025-11-07 14:11:44.197086,-110,2025-11-07 14:11:48.567406000
2025-11-07 14:11:44.197086,-26625,2025-11-07 14:11:48.575098308
2025-11-07 14:11:44.197086,-1,2025-11-07 14:11:48.582790615
2025-11-07 14:11:44.197086,-93,2025-11-07 14:11:48.590482923
2025-11-07 14:11:44.197086,-21249,2025-11-07 14:11:48.598175231
2025-11-07 14:11:44.197086,-1,2025-11-07 14:11:48.605867538
2025-11-07 14:11:44.197086,-86,2025-11-07 14:11:48.613559846
2025-11-07 14:11:44.197086,-22273,2025-11-07 14:11:48.621252154
2025-11-07 14:11:44.197086,-1,2025-11-07 14:11:48.628944462
2025-11-07 14:11:44.197086,-86,2025-11-07 14:11:48.636636769
2025-11-07 14:11:44.197086,-21249,2025-11-07 14:11:48.644329077
2025-11-07 14:11:44.197086,-1,2025-11-07 14:11:48.652021385
2025-11-07 14:11:44.197086,-88,2025-11-07 14:11:48.659713692
2025-11-07 14:11:44.197086,-23041,2025-11-07 14:11:48.667406000
2025-11-07 14:11:44.197086,-1,2025-11-07 14:11:48.675098308
2025-11-07 14:11:44.197086,-91,2025-11-07 14:11:48.682790615
2025-11-07 14:11:44.197086,-23041,2025-11-07 14:11:48.690482923
2025-11-07 14:11:44.197086,-1,2025-11-07 14:11:48.698175231
2025-11-07 14:11:44.197086,-96,2025-11-07 14:11:48.705867538
2025-11-07 14:11:44.197086,-26625,2025-11-07 14:11:48.713559846
2025-11-07 14:11:44.197086,-1,2025-11-07 14:11:48.721252154
2025-11-07 14:11:44.197086,-105,2025-11-07 14:11:48.728944462
2025-11-07 14:11:44.197086,-23553,2025-11-07 14:11:48.736636769
2025-11-07 14:11:44.197086,-1,2025-11-07 14:11:48.744329077
2025-11-07 14:11:44.197086,-91,2025-11-07 14:11:48.752021385
2025-11-07 14:11:44.197086,-21761,2025-11-07 14:11:48.759713692
2025-11-07 14:11:44.197086,-1,2025-11-07 14:11:48.767406000
2025-11-07 14:11:44.197086,-76,2025-11-07 14:11:48.775098308
2025-11-07 14:11:44.197086,-18177,2025-11-07 14:11:48.782790615
2025-11-07 14:11:44.197086,-1,2025-11-07 14:11:48.790482923
2025-11-07 14:11:44.197086,-69,2025-11-07 14:11:48.798175231
2025-11-07 14:11:44.197086,-16897,2025-11-07 14:11:48.805867538
2025-11-07 14:11:44.197086,-1,2025-11-07 14:11:48.813559846
2025-11-07 14:11:44.197086,-62,2025-11-07 14:11:48.821252154
2025-11-07 14:11:44.197086,-14337,2025-11-07 14:11:48.828944462
2025-11-07 14:11:44.197086,-1,2025-11-07 14:11:48.836636769
2025-11-07 14:11:44.197086,-52,2025-11-07 14:11:48.844329077
2025-11-07 14:11:44.197086,-13825,2025-11-07 14:11:48.852021385
2025-11-07 14:11:44.197086,-1,2025-11-07 14:11:48.859713692
2025-11-07 14:11:44.197086,-57,2025-11-07 14:11:48.867406000
2025-11-07 14:11:44.197086,-13057,2025-11-07 14:11:48.875098308
2025-11-07 14:11:44.197086,-1,2025-11-07 14:11:48.882790615
2025-11-07 14:11:44.197086,-48,2025-11-07 14:11:48.890482923
2025-11-07 14:11:44.197086,-12033,2025-11-07 14:11:48.898175230
2025-11-07 14:11:44.197086,-1,2025-11-07 14:11:48.905867538
2025-11-07 14:11:44.197086,-43,2025-11-07 14:11:48.913559846
2025-11-07 14:11:44.197086,-9473,2025-11-07 14:11:48.921252154
2025-11-07 14:11:44.197086,-1,2025-11-07 14:11:48.928944462
2025-11-07 14:11:44.197086,-38,2025-11-07 14:11:48.936636769
2025-11-07 14:11:44.737650,-38,2025-11-07 14:11:48.944329077
2025-11-07 14:11:44.737650,-7681,2025-11-07 14:11:48.952021385
2025-11-07 14:11:44.737650,-1,2025-11-07 14:11:48.959713692
2025-11-07 14:11:44.737650,-28,2025-11-07 14:11:48.967406000
2025-11-07 14:11:44.737650,-7681,2025-11-07 14:11:48.975098308
2025-11-07 14:11:44.737650,-1,2025-11-07 14:11:48.982790615
2025-11-07 14:11:44.737650,-31,2025-11-07 14:11:48.990482923
2025-11-07 14:11:44.737650,-6401,2025-11-07 14:11:48.998175231
2025-11-07 14:11:44.737650,-1,2025-11-07 14:11:49.005867538
2025-11-07 14:11:44.737650,-24,2025-11-07 14:11:49.013559846
2025-11-07 14:11:44.737650,-5889,2025-11-07 14:11:49.021252154
2025-11-07 14:11:44.737650,-1,2025-11-07 14:11:49.028944462
2025-11-07 14:11:44.737650,-21,2025-11-07 14:11:49.036636769
2025-11-07 14:11:44.737650,-2049,2025-11-07 14:11:49.044329077
2025-11-07 14:11:44.737650,-1,2025-11-07 14:11:49.052021385
2025-11-07 14:11:44.737650,-2,2025-11-07 14:11:49.059713692
2025-11-07 14:11:44.737650,-769,2025-11-07 14:11:49.067406000
2025-11-07 14:11:44.737650,-1,2025-11-07 14:11:49.075098308
2025-11-07 14:11:44.737650,-4,2025-11-07 14:11:49.082790615
2025-11-07 14:11:44.737650,-257,2025-11-07 14:11:49.090482923
2025-11-07 14:11:44.737650,-1,2025-11-07 14:11:49.098175231
2025-11-07 14:11:44.737650,-7,2025-11-07 14:11:49.105867538
2025-11-07 14:11:44.737650,-3841,2025-11-07 14:11:49.113559846
2025-11-07 14:11:44.737650,-1,2025-11-07 14:11:49.121252154
2025-11-07 14:11:44.737650,-19,2025-11-07 14:11:49.128944462
2025-11-07 14:11:44.737650,-5889,2025-11-07 14:11:49.136636769
2025-11-07 14:11:44.737650,-1,2025-11-07 14:11:49.144329077
2025-11-07 14:11:44.737650,-26,2025-11-07 14:11:49.152021385
2025-11-07 14:11:44.737650,-5889,2025-11-07 14:11:49.159713692
2025-11-07 14:11:44.737650,-1,2025-11-07 14:11:49.167406000
2025-11-07 14:11:44.737650,-12,2025-11-07 14:11:49.175098308
2025-11-07 14:11:44.737650,3327,2025-11-07 14:11:49.182790615
2025-11-07 14:11:44.737650,0,2025-11-07 14:11:49.190482923
2025-11-07 14:11:44.737650,28,2025-11-07 14:11:49.198175231
2025-11-07 14:11:44.737650,7168,2025-11-07 14:11:49.205867538
2025-11-07 14:11:44.737650,0,2025-11-07 14:11:49.213559846
2025-11-07 14:11:44.737650,16,2025-11-07 14:11:49.221252154
2025-11-07 14:11:44.737650,512,2025-11-07 14:11:49.228944462
2025-11-07 14:11:44.737650,0,2025-11-07 14:11:49.236636769
2025-11-07 14:11:44.737650,-7,2025-11-07 14:11:49.244329077
2025-11-07 14:11:44.737650,-1537,2025-11-07 14:11:49.252021385
2025-11-07 14:11:44.737650,-1,2025-11-07 14:11:49.259713692
2025-11-07 14:11:44.737650,-2,2025-11-07 14:11:49.267406000
2025-11-07 14:11:44.737650,-769,2025-11-07 14:11:49.275098308
2025-11-07 14:11:44.737650,-1,2025-11-07 14:11:49.282790615
2025-11-07 14:11:44.737650,-9,2025-11-07 14:11:49.290482923
2025-11-07 14:11:44.737650,-3841,2025-11-07 14:11:49.298175231
2025-11-07 14:11:44.737650,-1,2025-11-07 14:11:49.305867538
2025-11-07 14:11:44.737650,7,2025-11-07 14:11:49.313559846
2025-11-07 14:11:44.737650,-6144,2025-11-07 14:11:49.321252154
2025-11-07 14:11:44.737650,0,2025-11-07 14:11:49.328944462
2025-11-07 14:11:44.737650,833,2025-11-07 14:11:49.336636769
2025-11-07 14:11:44.737650,15360,2025-11-07 14:11:49.344329077
2025-11-07 14:11:44.737650,6,2025-11-07 14:11:49.352021385
2025-11-07 14:11:44.737650,1826,2025-11-07 14:11:49.359713692
2025-11-07 14:11:44.737650,9984,2025-11-07 14:11:49.367406000
2025-11-07 14:11:44.737650,4,2025-11-07 14:11:49.375098308
2025-11-07 14:11:44.737650,28,2025-11-07 14:11:49.382790615
2025-11-07 14:11:44.737650,-4352,2025-11-07 14:11:49.390482923
2025-11-07 14:11:44.737650,-2,2025-11-07 14:11:49.398175231
2025-11-07 14:11:44.737650,-139,2025-11-07 14:11:49.405867538
2025-11-07 14:11:44.737650,14335,2025-11-07 14:11:49.413559846
2025-11-07 14:11:44.737650,-1,2025-11-07 14:11:49.421252154
2025-11-07 14:11:44.737650,-285,2025-11-07 14:11:49.428944462
2025-11-07 14:11:44.737650,6911,2025-11-07 14:11:49.436636769
2025-11-07 14:11:44.737650,-1,2025-11-07 14:11:49.444329077
2025-11-07 14:11:44.737650,-211,2025-11-07 14:11:49.452021385
2025-11-07 14:11:44.737650,6399,2025-11-07 14:11:49.459713692
2025-11-07 14:11:44.737650,-1,2025-11-07 14:11:49.467406000
2025-11-07 14:11:44.737650,-211,2025-11-07 14:11:49.475098308
2025-11-07 14:11:44.737650,15615,2025-11-07 14:11:49.482790615
2025-11-07 14:11:44.737650,-1,2025-11-07 14:11:49.490482923
2025-11-07 14:11:44.737650,-199,2025-11-07 14:11:49.498175231
2025-11-07 14:11:44.737650,17919,2025-11-07 14:11:49.505867538
2025-11-07 14:11:44.737650,-1,2025-11-07 14:11:49.513559846
2025-11-07 14:11:44.737650,-180,2025-11-07 14:11:49.521252154
2025-11-07 14:11:44.737650,19711,2025-11-07 14:11:49.528944462
2025-11-07 14:11:44.737650,-1,2025-11-07 14:11:49.536636769
2025-11-07 14:11:44.737650,-168,2025-11-07 14:11:49.544329077
2025-11-07 14:11:44.737650,25855,2025-11-07 14:11:49.552021385
2025-11-07 14:11:44.737650,-1,2025-11-07 14:11:49.559713692
2025-11-07 14:11:44.737650,-148,2025-11-07 14:11:49.567406000
2025-11-07 14:11:44.737650,31487,2025-11-07 14:11:49.575098308
2025-11-07 14:11:44.737650,-1,2025-11-07 14:11:49.582790615
2025-11-07 14:11:44.737650,-117,2025-11-07 14:11:49.590482923
2025-11-07 14:11:44.737650,-29697,2025-11-07 14:11:49.598175231
2025-11-07 14:11:44.737650,-1,2025-11-07 14:11:49.605867538
2025-11-07 14:11:44.737650,-120,2025-11-07 14:11:49.613559846
2025-11-07 14:11:44.737650,-26113,2025-11-07 14:11:49.621252154
2025-11-07 14:11:44.737650,-1,2025-11-07 14:11:49.628944462
2025-11-07 14:11:44.737650,-86,2025-11-07 14:11:49.636636769
2025-11-07 14:11:44.737650,-21249,2025-11-07 14:11:49.644329077
2025-11-07 14:11:44.737650,-1,2025-11-07 14:11:49.652021385
2025-11-07 14:11:44.737650,-84,2025-11-07 14:11:49.659713692
2025-11-07 14:11:44.737650,-21249,2025-11-07 14:11:49.667406000
2025-11-07 14:11:44.737650,-1,2025-11-07 14:11:49.675098308
2025-11-07 14:11:44.737650,-81,2025-11-07 14:11:49.682790615
2025-11-07 14:11:44.737650,-19201,2025-11-07 14:11:49.690482923
2025-11-07 14:11:44.737650,-1,2025-11-07 14:11:49.698175231
2025-11-07 14:11:44.737650,-79,2025-11-07 14:11:49.705867538
2025-11-07 14:11:44.737650,-21249,2025-11-07 14:11:49.713559846
2025-11-07 14:11:44.737650,-1,2025-11-07 14:11:49.721252154
2025-11-07 14:11:44.737650,-86,2025-11-07 14:11:49.728944462
2025-11-07 14:11:44.737650,-23041,2025-11-07 14:11:49.736636769
2025-11-07 14:11:44.737650,-1,2025-11-07 14:11:49.744329077
2025-11-07 14:11:44.737650,-96,2025-11-07 14:11:49.752021385
2025-11-07 14:11:44.737650,-23041,2025-11-07 14:11:49.759713692
2025-11-07 14:11:44.737650,-1,2025-11-07 14:11:49.767406000
2025-11-07 14:11:44.737650,-84,2025-11-07 14:11:49.775098308
2025-11-07 14:11:45.306528,-81,2025-11-07 14:11:49.782790615
2025-11-07 14:11:45.306528,-19201,2025-11-07 14:11:49.790482923
2025-11-07 14:11:45.306528,-1,2025-11-07 14:11:49.798175231
2025-11-07 14:11:45.306528,-69,2025-11-07 14:11:49.805867538
2025-11-07 14:11:45.306528,-16897,2025-11-07 14:11:49.813559846
2025-11-07 14:11:45.306528,-1,2025-11-07 14:11:49.821252154
2025-11-07 14:11:45.306528,-62,2025-11-07 14:11:49.828944462
2025-11-07 14:11:45.306528,-14337,2025-11-07 14:11:49.836636769
2025-11-07 14:11:45.306528,-1,2025-11-07 14:11:49.844329077
2025-11-07 14:11:45.306528,-43,2025-11-07 14:11:49.852021385
2025-11-07 14:11:45.306528,-7681,2025-11-07 14:11:49.859713692
2025-11-07 14:11:45.306528,-1,2025-11-07 14:11:49.867406000
2025-11-07 14:11:45.306528,-28,2025-11-07 14:11:49.875098308
2025-11-07 14:11:45.306528,-7681,2025-11-07 14:11:49.882790615
2025-11-07 14:11:45.306528,-1,2025-11-07 14:11:49.890482923
2025-11-07 14:11:45.306528,-31,2025-11-07 14:11:49.898175230
2025-11-07 14:11:45.306528,-7681,2025-11-07 14:11:49.905867538
2025-11-07 14:11:45.306528,-1,2025-11-07 14:11:49.913559846
2025-11-07 14:11:45.306528,-28,2025-11-07 14:11:49.921252154
2025-11-07 14:11:45.306528,-5121,2025-11-07 14:11:49.928944462
2025-11-07 14:11:45.306528,-1,2025-11-07 14:11:49.936636769
2025-11-07 14:11:45.306528,-28,2025-11-07 14:11:49.944329077
2025-11-07 14:11:45.306528,-9985,2025-11-07 14:11:49.952021385
2025-11-07 14:11:45.306528,-1,2025-11-07 14:11:49.959713692
2025-11-07 14:11:45.306528,-31,2025-11-07 14:11:49.967406000
2025-11-07 14:11:45.306528,-4609,2025-11-07 14:11:49.975098308
2025-11-07 14:11:45.306528,-1,2025-11-07 14:11:49.982790615
2025-11-07 14:11:45.306528,-16,2025-11-07 14:11:49.990482923
2025-11-07 14:11:45.306528,-5121,2025-11-07 14:11:49.998175231
2025-11-07 14:11:45.306528,-1,2025-11-07 14:11:50.005867538
2025-11-07 14:11:45.306528,-24,2025-11-07 14:11:50.013559846
2025-11-07 14:11:45.306528,-5121,2025-11-07 14:11:50.021252154
2025-11-07 14:11:45.306528,-1,2025-11-07 14:11:50.028944462
2025-11-07 14:11:45.306528,-19,2025-11-07 14:11:50.036636769
2025-11-07 14:11:45.306528,-3329,2025-11-07 14:11:50.044329077
2025-11-07 14:11:45.306528,-1,2025-11-07 14:11:50.052021385
2025-11-07 14:11:45.306528,-16,2025-11-07 14:11:50.059713692
2025-11-07 14:11:45.306528,-4609,2025-11-07 14:11:50.067406000
2025-11-07 14:11:45.306528,-1,2025-11-07 14:11:50.075098308
2025-11-07 14:11:45.306528,-21,2025-11-07 14:11:50.082790615
2025-11-07 14:11:45.306528,-6401,2025-11-07 14:11:50.090482923
2025-11-07 14:11:45.306528,-1,2025-11-07 14:11:50.098175231
2025-11-07 14:11:45.306528,-21,2025-11-07 14:11:50.105867538
2025-11-07 14:11:45.306528,-3841,2025-11-07 14:11:50.113559846
2025-11-07 14:11:45.306528,-1,2025-11-07 14:11:50.121252154
2025-11-07 14:11:45.306528,-19,2025-11-07 14:11:50.128944462
2025-11-07 14:11:45.306528,-6913,2025-11-07 14:11:50.136636769
2025-11-07 14:11:45.306528,-1,2025-11-07 14:11:50.144329077
2025-11-07 14:11:45.306528,-33,2025-11-07 14:11:50.152021385
2025-11-07 14:11:45.306528,-8961,2025-11-07 14:11:50.159713692
2025-11-07 14:11:45.306528,-1,2025-11-07 14:11:50.167406000
2025-11-07 14:11:45.306528,-33,2025-11-07 14:11:50.175098308
2025-11-07 14:11:45.306528,-7681,2025-11-07 14:11:50.182790615
2025-11-07 14:11:45.306528,-1,2025-11-07 14:11:50.190482923
2025-11-07 14:11:45.306528,-16,2025-11-07 14:11:50.198175231
2025-11-07 14:11:45.306528,2047,2025-11-07 14:11:50.205867538
2025-11-07 14:11:45.306528,0,2025-11-07 14:11:50.213559846
2025-11-07 14:11:45.306528,19,2025-11-07 14:11:50.221252154
2025-11-07 14:11:45.306528,3584,2025-11-07 14:11:50.228944462
2025-11-07 14:11:45.306528,0,2025-11-07 14:11:50.236636769
2025-11-07 14:11:45.306528,4,2025-11-07 14:11:50.244329077
2025-11-07 14:11:45.306528,-2304,2025-11-07 14:11:50.252021385
2025-11-07 14:11:45.306528,-1,2025-11-07 14:11:50.259713692
2025-11-07 14:11:45.306528,-14,2025-11-07 14:11:50.267406000
2025-11-07 14:11:45.306528,-1537,2025-11-07 14:11:50.275098308
2025-11-07 14:11:45.306528,-1,2025-11-07 14:11:50.282790615
2025-11-07 14:11:45.306528,-7,2025-11-07 14:11:50.290482923
2025-11-07 14:11:45.306528,-2817,2025-11-07 14:11:50.298175231
2025-11-07 14:11:45.306528,-1,2025-11-07 14:11:50.305867538
2025-11-07 14:11:45.306528,-16,2025-11-07 14:11:50.313559846
2025-11-07 14:11:45.306528,-8193,2025-11-07 14:11:50.321252154
2025-11-07 14:11:45.306528,-1,2025-11-07 14:11:50.328944462
2025-11-07 14:11:45.306528,21,2025-11-07 14:11:50.336636769
2025-11-07 14:11:45.306528,25856,2025-11-07 14:11:50.344329077
2025-11-07 14:11:45.306528,1,2025-11-07 14:11:50.352021385
2025-11-07 14:11:45.306528,1041,2025-11-07 14:11:50.359713692
2025-11-07 14:11:45.306528,-22016,2025-11-07 14:11:50.367406000
2025-11-07 14:11:45.306528,6,2025-11-07 14:11:50.375098308
2025-11-07 14:11:45.306528,1630,2025-11-07 14:11:50.382790615
2025-11-07 14:11:45.306528,-25344,2025-11-07 14:11:50.390482923
2025-11-07 14:11:45.306528,2,2025-11-07 14:11:50.398175231
2025-11-07 14:11:45.306528,-158,2025-11-07 14:11:50.405867538
2025-11-07 14:11:45.306528,10495,2025-11-07 14:11:50.413559846
2025-11-07 14:11:45.306528,-1,2025-11-07 14:11:50.421252154
2025-11-07 14:11:45.306528,-122,2025-11-07 14:11:50.428944462
2025-11-07 14:11:45.306528,3839,2025-11-07 14:11:50.436636769
2025-11-07 14:11:45.306528,-1,2025-11-07 14:11:50.444329077
2025-11-07 14:11:45.306528,-276,2025-11-07 14:11:50.452021385
2025-11-07 14:11:45.306528,12543,2025-11-07 14:11:50.459713692
2025-11-07 14:11:45.306528,-1,2025-11-07 14:11:50.467406000
2025-11-07 14:11:45.306528,-213,2025-11-07 14:11:50.475098308
2025-11-07 14:11:45.306528,6399,2025-11-07 14:11:50.482790615
2025-11-07 14:11:45.306528,-1,2025-11-07 14:11:50.490482923
2025-11-07 14:11:45.306528,-211,2025-11-07 14:11:50.498175231
2025-11-07 14:11:45.306528,14335,2025-11-07 14:11:50.505867538
2025-11-07 14:11:45.306528,-1,2025-11-07 14:11:50.513559846
2025-11-07 14:11:45.306528,-199,2025-11-07 14:11:50.521252154
2025-11-07 14:11:45.306528,18687,2025-11-07 14:11:50.528944462
2025-11-07 14:11:45.306528,-1,2025-11-07 14:11:50.536636769
2025-11-07 14:11:45.306528,-180,2025-11-07 14:11:50.544329077
2025-11-07 14:11:45.306528,18687,2025-11-07 14:11:50.552021385
2025-11-07 14:11:45.306528,-1,2025-11-07 14:11:50.559713692
2025-11-07 14:11:45.306528,-172,2025-11-07 14:11:50.567406000
2025-11-07 14:11:45.306528,25343,2025-11-07 14:11:50.575098308
2025-11-07 14:11:45.306528,-1,2025-11-07 14:11:50.582790615
2025-11-07 14:11:45.306528,-153,2025-11-07 14:11:50.590482923
2025-11-07 14:11:45.306528,28415,2025-11-07 14:11:50.598175231
2025-11-07 14:11:45.306528,-1,2025-11-07 14:11:50.605867538
2025-11-07 14:11:45.306528,-132,2025-11-07 14:11:50.613559846
2025-11-07 14:11:45.846814,-120,2025-11-07 14:11:50.621252154
2025-11-07 14:11:45.846814,-27393,2025-11-07 14:11:50.628944462
2025-11-07 14:11:45.846814,-1,2025-11-07 14:11:50.636636769
2025-11-07 14:11:45.846814,-100,2025-11-07 14:11:50.644329077
2025-11-07 14:11:45.846814,-24321,2025-11-07 14:11:50.652021385
2025-11-07 14:11:45.846814,-1,2025-11-07 14:11:50.659713692
2025-11-07 14:11:45.846814,-86,2025-11-07 14:11:50.667406000
2025-11-07 14:11:45.846814,-21761,2025-11-07 14:11:50.675098308
2025-11-07 14:11:45.846814,-1,2025-11-07 14:11:50.682790615
2025-11-07 14:11:45.846814,-98,2025-11-07 14:11:50.690482923
2025-11-07 14:11:45.846814,-22273,2025-11-07 14:11:50.698175231
2025-11-07 14:11:45.846814,-1,2025-11-07 14:11:50.705867538
2025-11-07 14:11:45.846814,-69,2025-11-07 14:11:50.713559846
2025-11-07 14:11:45.846814,-18177,2025-11-07 14:11:50.721252154
2025-11-07 14:11:45.846814,-1,2025-11-07 14:11:50.728944462
2025-11-07 14:11:45.846814,-86,2025-11-07 14:11:50.736636769
2025-11-07 14:11:45.846814,-21761,2025-11-07 14:11:50.744329077
2025-11-07 14:11:45.846814,-1,2025-11-07 14:11:50.752021385
2025-11-07 14:11:45.846814,-88,2025-11-07 14:11:50.759713692
2025-11-07 14:11:45.846814,-24321,2025-11-07 14:11:50.767406000
2025-11-07 14:11:45.846814,-1,2025-11-07 14:11:50.775098308
2025-11-07 14:11:45.846814,-98,2025-11-07 14:11:50.782790615
2025-11-07 14:11:45.846814,-24833,2025-11-07 14:11:50.790482923
2025-11-07 14:11:45.846814,-1,2025-11-07 14:11:50.798175231
2025-11-07 14:11:45.846814,-93,2025-11-07 14:11:50.805867538
2025-11-07 14:11:45.846814,-20481,2025-11-07 14:11:50.813559846
2025-11-07 14:11:45.846814,-1,2025-11-07 14:11:50.821252154
2025-11-07 14:11:45.846814,-69,2025-11-07 14:11:50.828944462
2025-11-07 14:11:45.846814,-17409,2025-11-07 14:11:50.836636769
2025-11-07 14:11:45.846814,-1,2025-11-07 14:11:50.844329077
2025-11-07 14:11:45.846814,-72,2025-11-07 14:11:50.852021385
2025-11-07 14:11:45.846814,-17409,2025-11-07 14:11:50.859713692
2025-11-07 14:11:45.846814,-1,2025-11-07 14:11:50.867406000
2025-11-07 14:11:45.846814,-64,2025-11-07 14:11:50.875098308
2025-11-07 14:11:45.846814,-15105,2025-11-07 14:11:50.882790615
2025-11-07 14:11:45.846814,-1,2025-11-07 14:11:50.890482923
2025-11-07 14:11:45.846814,-57,2025-11-07 14:11:50.898175230
2025-11-07 14:11:45.846814,-14337,2025-11-07 14:11:50.905867538
2025-11-07 14:11:45.846814,-1,2025-11-07 14:11:50.913559846
2025-11-07 14:11:45.846814,-57,2025-11-07 14:11:50.921252154
2025-11-07 14:11:45.846814,-13825,2025-11-07 14:11:50.928944462
2025-11-07 14:11:45.846814,-1,2025-11-07 14:11:50.936636769
2025-11-07 14:11:45.846814,-57,2025-11-07 14:11:50.944329077
2025-11-07 14:11:45.846814,-13825,2025-11-07 14:11:50.952021385
2025-11-07 14:11:45.846814,-1,2025-11-07 14:11:50.959713692
2025-11-07 14:11:45.846814,-52,2025-11-07 14:11:50.967406000
2025-11-07 14:11:45.846814,-15105,2025-11-07 14:11:50.975098308
2025-11-07 14:11:45.846814,-1,2025-11-07 14:11:50.982790615
2025-11-07 14:11:45.846814,-55,2025-11-07 14:11:50.990482923
2025-11-07 14:11:45.846814,-11265,2025-11-07 14:11:50.998175231
2025-11-07 14:11:45.846814,-1,2025-11-07 14:11:51.005867538
2025-11-07 14:11:45.846814,-43,2025-11-07 14:11:51.013559846
2025-11-07 14:11:45.846814,-12033,2025-11-07 14:11:51.021252154
2025-11-07 14:11:45.846814,-1,2025-11-07 14:11:51.028944462
2025-11-07 14:11:45.846814,-45,2025-11-07 14:11:51.036636769
2025-11-07 14:11:45.846814,-9985,2025-11-07 14:11:51.044329077
2025-11-07 14:11:45.846814,-1,2025-11-07 14:11:51.052021385
2025-11-07 14:11:45.846814,-38,2025-11-07 14:11:51.059713692
2025-11-07 14:11:45.846814,-9985,2025-11-07 14:11:51.067406000
2025-11-07 14:11:45.846814,-1,2025-11-07 14:11:51.075098308
2025-11-07 14:11:45.846814,-43,2025-11-07 14:11:51.082790615
2025-11-07 14:11:45.846814,-9473,2025-11-07 14:11:51.090482923
2025-11-07 14:11:45.846814,-1,2025-11-07 14:11:51.098175231
2025-11-07 14:11:45.846814,-33,2025-11-07 14:11:51.105867538
2025-11-07 14:11:45.846814,-8193,2025-11-07 14:11:51.113559846
2025-11-07 14:11:45.846814,-1,2025-11-07 14:11:51.121252154
2025-11-07 14:11:45.846814,-43,2025-11-07 14:11:51.128944462
2025-11-07 14:11:45.846814,-12033,2025-11-07 14:11:51.136636769
2025-11-07 14:11:45.846814,-1,2025-11-07 14:11:51.144329077
2025-11-07 14:11:45.846814,-48,2025-11-07 14:11:51.152021385
2025-11-07 14:11:45.846814,-9473,2025-11-07 14:11:51.159713692
2025-11-07 14:11:45.846814,-1,2025-11-07 14:11:51.167406000
2025-11-07 14:11:45.846814,-14,2025-11-07 14:11:51.175098308
2025-11-07 14:11:45.846814,3327,2025-11-07 14:11:51.182790615
2025-11-07 14:11:45.846814,0,2025-11-07 14:11:51.190482923
2025-11-07 14:11:45.846814,14,2025-11-07 14:11:51.198175231
2025-11-07 14:11:45.846814,0,2025-11-07 14:11:51.205867538
2025-11-07 14:11:45.846814,0,2025-11-07 14:11:51.213559846
2025-11-07 14:11:45.846814,-12,2025-11-07 14:11:51.221252154
2025-11-07 14:11:45.846814,-3841,2025-11-07 14:11:51.228944462
2025-11-07 14:11:45.846814,-1,2025-11-07 14:11:51.236636769
2025-11-07 14:11:45.846814,-14,2025-11-07 14:11:51.244329077
2025-11-07 14:11:45.846814,-2817,2025-11-07 14:11:51.252021385
2025-11-07 14:11:45.846814,-1,2025-11-07 14:11:51.259713692
2025-11-07 14:11:45.846814,-16,2025-11-07 14:11:51.267406000
2025-11-07 14:11:45.846814,-3841,2025-11-07 14:11:51.275098308
2025-11-07 14:11:45.846814,-1,2025-11-07 14:11:51.282790615
2025-11-07 14:11:45.846814,-19,2025-11-07 14:11:51.290482923
2025-11-07 14:11:45.846814,-7681,2025-11-07 14:11:51.298175231
2025-11-07 14:11:45.846814,-1,2025-11-07 14:11:51.305867538
2025-11-07 14:11:45.846814,55,2025-11-07 14:11:51.313559846
2025-11-07 14:11:45.846814,-13824,2025-11-07 14:11:51.321252154
2025-11-07 14:11:45.846814,1,2025-11-07 14:11:51.328944462
2025-11-07 14:11:45.846814,1176,2025-11-07 14:11:51.336636769
2025-11-07 14:11:45.846814,-15872,2025-11-07 14:11:51.344329077
2025-11-07 14:11:45.846814,6,2025-11-07 14:11:51.352021385
2025-11-07 14:11:45.846814,1428,2025-11-07 14:11:51.359713692
2025-11-07 14:11:45.846814,-28672,2025-11-07 14:11:51.367406000
2025-11-07 14:11:45.846814,1,2025-11-07 14:11:51.375098308
