timestamp,ecg
14:36:31.419519,-34
14:36:31.419519,-2817
14:36:31.419519,-1
14:36:31.419519,7
14:36:31.419519,6144
14:36:31.419519,0
14:36:31.419519,38
14:36:31.419519,11008
14:36:31.419519,0
14:36:31.419519,38
14:36:31.419519,6144
14:36:31.419519,0
14:36:31.419519,-2
14:36:31.419519,-10753
14:36:31.419519,-1
14:36:31.419519,-77
14:36:31.419519,-23297
14:36:31.419519,-1
14:36:31.419519,-104
14:36:31.419519,-28929
14:36:31.419519,-1
14:36:31.419519,-114
14:36:31.419519,-28161
14:36:31.419519,-1
14:36:31.419519,-109
14:36:31.419519,-25857
14:36:31.419519,-1
14:36:31.419519,-97
14:36:31.419519,-24577
14:36:31.419519,-1
14:36:31.419519,-94
14:36:31.419519,-22785
14:36:31.419519,-1
14:36:31.419519,-87
14:36:31.419519,-22017
14:36:31.419519,-1
14:36:31.419519,-82
14:36:31.419519,-18945
14:36:31.419519,-1
14:36:31.419519,-70
14:36:31.419519,-17665
14:36:31.419519,-1
14:36:31.419519,-68
14:36:31.419519,-16385
14:36:31.419519,-1
14:36:31.419519,-60
14:36:31.419519,-14593
14:36:31.419519,-1
14:36:31.419519,-55
14:36:31.419519,-13313
14:36:31.419519,-1
14:36:31.419519,-53
14:36:31.419519,-12801
14:36:31.419519,-1
14:36:31.419519,-43
14:36:31.419519,-10241
14:36:31.419519,-1
14:36:31.419519,-43
14:36:31.419519,-10753
14:36:31.419519,-1
14:36:31.419519,-41
14:36:31.419519,-10241
14:36:31.419519,-1
14:36:31.419519,-41
14:36:31.419519,-8961
14:36:31.419519,-1
14:36:31.419519,-34
14:36:31.419519,-7681
14:36:31.419519,-1
14:36:31.419519,-31
14:36:31.419519,-7681
14:36:31.419519,-1
14:36:31.419519,-34
14:36:31.419519,-7169
14:36:31.419519,-1
14:36:31.419519,-26
14:36:31.419519,-7169
14:36:31.419519,-1
14:36:31.419519,-31
14:36:31.419519,-7169
14:36:31.419519,-1
14:36:31.419519,-29
14:36:31.419519,-7681
14:36:31.419519,-1
14:36:31.419519,-31
14:36:31.419519,-7169
14:36:31.419519,-1
14:36:31.419519,-31
14:36:31.419519,-10241
14:36:31.419519,-1
14:36:31.419519,-48
14:36:31.419519,-13825
14:36:31.419519,-1
14:36:31.419519,-58
14:36:31.419519,-14593
14:36:31.419519,-1
14:36:31.419519,-46
14:36:31.419519,-5889
14:36:31.419519,-1
14:36:31.419519,2
14:36:31.419519,4864
14:36:31.419519,0
14:36:31.419519,7
14:36:31.419519,-3072
14:36:31.419519,-1
14:36:31.419519,-7
14:36:31.419519,767
14:36:31.419519,0
14:36:31.419519,0
14:36:32.001832,-17
14:36:32.001832,-13313
14:36:32.001832,-1
14:36:32.001832,-46
14:36:32.001832,10495
14:36:32.001832,1
14:36:32.001832,1056
14:36:32.001832,-5888
14:36:32.001832,5
14:36:32.001832,1112
14:36:32.001832,-16640
14:36:32.001832,1
14:36:32.001832,121
14:36:32.001832,-1792
14:36:32.001832,-1
14:36:32.001832,-111
14:36:32.001832,29183
14:36:32.001832,-1
14:36:32.001832,-128
14:36:32.001832,30975
14:36:32.001832,-1
14:36:32.001832,-138
14:36:32.001832,-32001
14:36:32.001832,-1
14:36:32.001832,-119
14:36:32.001832,-28161
14:36:32.001832,-1
14:36:32.001832,-104
14:36:32.001832,-23809
14:36:32.001832,-1
14:36:32.001832,-85
14:36:32.001832,-18945
14:36:32.001832,-1
14:36:32.001832,-63
14:36:32.001832,-13313
14:36:32.001832,-1
14:36:32.001832,-43
14:36:32.001832,-5889
14:36:32.001832,-1
14:36:32.001832,-2
14:36:32.001832,3327
14:36:32.001832,0
14:36:32.001832,31
14:36:32.001832,13056
14:36:32.001832,0
14:36:32.001832,63
14:36:32.001832,17920
14:36:32.001832,0
14:36:32.001832,70
14:36:32.001832,13568
14:36:32.001832,0
14:36:32.001832,14
14:36:32.001832,-7936
14:36:32.001832,-1
14:36:32.001832,-70
14:36:32.001832,-23297
14:36:32.001832,-1
14:36:32.001832,-102
14:36:32.001832,-28161
14:36:32.001832,-1
14:36:32.001832,-114
14:36:32.001832,-28161
14:36:32.001832,-1
14:36:32.001832,-109
14:36:32.001832,-25089
14:36:32.001832,-1
14:36:32.001832,-87
14:36:32.001832,-20737
14:36:32.001832,-1
14:36:32.001832,-90
14:36:32.001832,-23809
14:36:32.001832,-1
14:36:32.001832,-77
14:36:32.001832,-15873
14:36:32.001832,-1
14:36:32.001832,-70
14:36:32.001832,-17665
14:36:32.001832,-1
14:36:32.001832,-63
14:36:32.001832,-15873
14:36:32.001832,-1
14:36:32.001832,-60
14:36:32.001832,-12801
14:36:32.001832,-1
14:36:32.001832,-48
14:36:32.001832,-11521
14:36:32.001832,-1
14:36:32.001832,-38
14:36:32.001832,-9473
14:36:32.001832,-1
14:36:32.001832,-38
14:36:32.001832,-6401
14:36:32.001832,-1
14:36:32.001832,-24
14:36:32.001832,-6401
14:36:32.001832,-1
14:36:32.001832,-17
14:36:32.001832,-2817
14:36:32.001832,-1
14:36:32.001832,-14
14:36:32.001832,-2817
14:36:32.001832,-1
14:36:32.001832,-7
14:36:32.001832,-2817
14:36:32.001832,-1
14:36:32.001832,-14
14:36:32.001832,-2049
14:36:32.001832,-1
14:36:32.001832,-2
14:36:32.544575,-2
14:36:32.544575,-257
14:36:32.544575,-1
14:36:32.544575,-7
14:36:32.544575,-1537
14:36:32.544575,-1
14:36:32.544575,0
14:36:32.544575,0
14:36:32.544575,0
14:36:32.544575,-2
14:36:32.544575,767
14:36:32.544575,0
14:36:32.544575,7
14:36:32.544575,512
14:36:32.544575,0
14:36:32.544575,4
14:36:32.544575,4352
14:36:32.544575,0
14:36:32.544575,14
14:36:32.544575,-512
14:36:32.544575,-1
14:36:32.544575,0
14:36:32.544575,1024
14:36:32.544575,0
14:36:32.544575,-4
14:36:32.544575,-1537
14:36:32.544575,-1
14:36:32.544575,0
14:36:32.544575,4352
14:36:32.544575,0
14:36:32.544575,46
14:36:32.544575,16640
14:36:32.544575,0
14:36:32.544575,43
14:36:32.544575,5376
14:36:32.544575,0
14:36:32.544575,36
14:36:32.544575,11776
14:36:32.544575,0
14:36:32.544575,36
14:36:32.544575,4864
14:36:32.544575,0
14:36:32.544575,-9
14:36:32.544575,255
14:36:32.544575,0
14:36:32.544575,323
14:36:32.544575,512
14:36:32.544575,4
14:36:32.544575,1421
14:36:32.544575,-6144
14:36:32.544575,3
14:36:32.544575,384
14:36:32.544575,-28928
14:36:32.544575,0
14:36:32.544575,41
14:36:32.544575,-18432
14:36:32.544575,-1
14:36:32.544575,-104
14:36:32.544575,-24577
14:36:32.544575,-1
14:36:32.544575,-107
14:36:32.544575,-25089
14:36:32.544575,-1
14:36:32.544575,-85
14:36:32.544575,-20225
14:36:32.544575,-1
14:36:32.544575,-77
14:36:32.544575,-17153
14:36:32.544575,-1
14:36:32.544575,-60
14:36:32.544575,-10753
14:36:32.544575,-1
14:36:32.544575,-29
14:36:32.544575,-7169
14:36:32.544575,-1
14:36:32.544575,-26
14:36:32.544575,255
14:36:32.544575,0
14:36:32.544575,21
14:36:32.544575,9216
14:36:32.544575,0
14:36:32.544575,60
14:36:32.544575,20992
14:36:32.544575,0
14:36:32.544575,90
14:36:32.544575,24832
14:36:32.544575,0
14:36:32.544575,107
14:36:32.544575,26624
14:36:32.544575,0
14:36:32.544575,77
14:36:32.544575,10496
14:36:32.544575,0
14:36:32.544575,2
14:36:32.544575,-9728
14:36:32.544575,-1
14:36:32.544575,-68
14:36:32.544575,-18945
14:36:32.544575,-1
14:36:32.544575,-70
14:36:32.544575,-18945
14:36:32.544575,-1
14:36:32.544575,-80
14:36:32.544575,-18945
14:36:32.544575,-1
14:36:32.544575,-72
14:36:32.544575,-17665
14:36:32.544575,-1
14:36:32.544575,-65
14:36:33.084384,-63
14:36:33.084384,-15105
14:36:33.084384,-1
14:36:33.084384,-58
14:36:33.084384,-13313
14:36:33.084384,-1
14:36:33.084384,-46
14:36:33.084384,-10753
14:36:33.084384,-1
14:36:33.084384,-48
14:36:33.084384,-10241
14:36:33.084384,-1
14:36:33.084384,-19
14:36:33.084384,-1537
14:36:33.084384,-1
14:36:33.084384,-17
14:36:33.084384,-4609
14:36:33.084384,-1
14:36:33.084384,-9
14:36:33.084384,-769
14:36:33.084384,-1
14:36:33.084384,-9
14:36:33.084384,-2049
14:36:33.084384,-1
14:36:33.084384,-7
14:36:33.084384,-1537
14:36:33.084384,-1
14:36:33.084384,-9
14:36:33.084384,-2049
14:36:33.084384,-1
14:36:33.084384,-7
14:36:33.084384,-1537
14:36:33.084384,-1
14:36:33.084384,-7
14:36:33.084384,-257
14:36:33.084384,-1
14:36:33.084384,-2
14:36:33.084384,-769
14:36:33.084384,-1
14:36:33.084384,-4
14:36:33.084384,-1537
14:36:33.084384,-1
14:36:33.084384,-9
14:36:33.084384,-3329
14:36:33.084384,-1
14:36:33.084384,-12
14:36:33.084384,-1537
14:36:33.084384,-1
14:36:33.084384,-4
14:36:33.084384,-2817
14:36:33.084384,-1
14:36:33.084384,-17
14:36:33.084384,-3329
14:36:33.084384,-1
14:36:33.084384,-17
14:36:33.084384,-7169
14:36:33.084384,-1
14:36:33.084384,-36
14:36:33.084384,-9473
14:36:33.084384,-1
14:36:33.084384,-48
14:36:33.084384,-10753
14:36:33.084384,-1
14:36:33.084384,-21
14:36:33.084384,767
14:36:33.084384,0
14:36:33.084384,21
14:36:33.084384,4864
14:36:33.084384,0
14:36:33.084384,0
14:36:33.084384,-512
14:36:33.084384,-1
14:36:33.084384,9
14:36:33.084384,1792
14:36:33.084384,0
14:36:33.084384,-4
14:36:33.084384,-8449
14:36:33.084384,-1
14:36:33.084384,-72
14:36:33.084384,23295
14:36:33.084384,0
14:36:33.084384,703
14:36:33.084384,21760
14:36:33.084384,5
14:36:33.084384,1275
14:36:33.084384,24576
14:36:33.084384,2
14:36:33.084384,172
14:36:33.084384,9728
14:36:33.084384,0
14:36:33.084384,-80
14:36:33.084384,25343
14:36:33.084384,-1
14:36:33.084384,-150
14:36:33.084384,27903
14:36:33.084384,-1
14:36:33.084384,-160
14:36:33.084384,28671
14:36:33.084384,-1
14:36:33.084384,-133
14:36:33.084384,32255
14:36:33.084384,-1
14:36:33.084384,-124
14:36:33.084384,-28929
14:36:33.084384,-1
14:36:33.084384,-107
14:36:33.084384,-24577
14:36:33.084384,-1
14:36:33.084384,-82
14:36:33.713193,-72
14:36:33.713193,-14593
14:36:33.713193,-1
14:36:33.713193,-43
14:36:33.713193,-6401
14:36:33.713193,-1
14:36:33.713193,-2
14:36:33.713193,6911
14:36:33.713193,0
14:36:33.713193,51
14:36:33.713193,14848
14:36:33.713193,0
14:36:33.713193,60
14:36:33.713193,15360
14:36:33.713193,0
14:36:33.713193,51
14:36:33.713193,4864
14:36:33.713193,0
14:36:33.713193,-29
14:36:33.713193,-17665
14:36:33.713193,-1
14:36:33.713193,-97
14:36:33.713193,-28161
14:36:33.713193,-1
14:36:33.713193,-116
14:36:33.713193,-28161
14:36:33.713193,-1
14:36:33.713193,-111
14:36:33.713193,-27649
14:36:33.713193,-1
14:36:33.713193,-104
14:36:33.713193,-25089
14:36:33.713193,-1
14:36:33.713193,-99
14:36:33.713193,-23809
14:36:33.713193,-1
14:36:33.713193,-90
14:36:33.713193,-22785
14:36:33.713193,-1
14:36:33.713193,-90
14:36:33.713193,-22017
14:36:33.713193,-1
14:36:33.713193,-82
14:36:33.713193,-20225
14:36:33.713193,-1
14:36:33.713193,-75
14:36:33.713193,-17665
14:36:33.713193,-1
14:36:33.713193,-68
14:36:33.713193,-15873
14:36:33.713193,-1
14:36:33.713193,-58
14:36:33.713193,-13313
14:36:33.713193,-1
14:36:33.713193,-55
14:36:33.713193,-13313
14:36:33.713193,-1
14:36:33.713193,-46
14:36:33.713193,-10753
14:36:33.713193,-1
14:36:33.713193,-41
14:36:33.713193,-9473
14:36:33.713193,-1
14:36:33.713193,-41
14:36:33.713193,-10241
14:36:33.713193,-1
14:36:33.713193,-36
14:36:33.713193,-8449
14:36:33.713193,-1
14:36:33.713193,-34
14:36:33.713193,-7681
14:36:33.713193,-1
14:36:33.713193,-29
14:36:33.713193,-7169
14:36:33.713193,-1
14:36:33.713193,-26
14:36:33.713193,-6401
14:36:33.713193,-1
14:36:33.713193,-26
14:36:33.713193,-6401
14:36:33.713193,-1
14:36:33.713193,-26
14:36:33.713193,-6401
14:36:33.713193,-1
14:36:33.713193,-26
14:36:33.713193,-6401
14:36:33.713193,-1
14:36:33.713193,-26
14:36:33.713193,-7169
14:36:33.713193,-1
14:36:33.713193,-29
14:36:33.713193,-7169
14:36:33.713193,-1
14:36:33.713193,-38
14:36:33.713193,-12033
14:36:33.713193,-1
14:36:33.713193,-51
14:36:33.713193,-13313
14:36:33.713193,-1
14:36:33.713193,-60
14:36:33.713193,-13313
14:36:33.713193,-1
14:36:33.713193,-31
14:36:33.713193,-769
14:36:33.713193,-1
14:36:33.713193,17
14:36:33.713193,3072
14:36:33.713193,0
14:36:33.713193,-12
14:36:34.251949,-17
14:36:34.251949,-769
14:36:34.251949,-1
14:36:34.251949,-2
14:36:34.251949,-2817
14:36:34.251949,-1
14:36:34.251949,-43
14:36:34.251949,-22785
14:36:34.251949,-1
14:36:34.251949,65
14:36:34.251949,-14848
14:36:34.251949,2
14:36:34.251949,1447
14:36:34.251949,-32000
14:36:34.251949,5
14:36:34.251949,712
14:36:34.251949,-17664
14:36:34.251949,0
14:36:34.251949,9
14:36:34.251949,-24832
14:36:34.251949,-1
14:36:34.251949,-158
14:36:34.251949,28671
14:36:34.251949,-1
14:36:34.251949,-143
14:36:34.251949,25343
14:36:34.251949,-1
14:36:34.251949,-145
14:36:34.251949,32255
14:36:34.251949,-1
14:36:34.251949,-128
14:36:34.251949,-30721
14:36:34.251949,-1
14:36:34.251949,-109
14:36:34.251949,-25089
14:36:34.251949,-1
14:36:34.251949,-90
14:36:34.251949,-18945
14:36:34.251949,-1
14:36:34.251949,-68
14:36:34.251949,-14593
14:36:34.251949,-1
14:36:34.251949,-43
14:36:34.251949,-5121
14:36:34.251949,-1
14:36:34.251949,0
14:36:34.251949,6144
14:36:34.251949,0
14:36:34.251949,43
14:36:34.251949,14848
14:36:34.251949,0
14:36:34.251949,68
14:36:34.251949,17408
14:36:34.251949,0
14:36:34.251949,55
14:36:34.251949,6656
14:36:34.251949,0
14:36:34.251949,-14
14:36:34.251949,-13825
14:36:34.251949,-1
14:36:34.251949,-87
14:36:34.251949,-25089
14:36:34.251949,-1
14:36:34.251949,-109
14:36:34.251949,-28929
14:36:34.251949,-1
14:36:34.251949,-111
14:36:34.251949,-27649
14:36:34.251949,-1
14:36:34.251949,-104
14:36:34.251949,-25857
14:36:34.251949,-1
14:36:34.251949,-97
14:36:34.251949,-23297
14:36:34.251949,-1
14:36:34.251949,-87
14:36:34.251949,-21505
14:36:34.251949,-1
14:36:34.251949,-82
14:36:34.251949,-20225
14:36:34.251949,-1
14:36:34.251949,-75
14:36:34.251949,-18177
14:36:34.251949,-1
14:36:34.251949,-68
14:36:34.251949,-16385
14:36:34.251949,-1
14:36:34.251949,-63
14:36:34.251949,-15873
14:36:34.251949,-1
14:36:34.251949,-60
14:36:34.251949,-13825
14:36:34.251949,-1
14:36:34.251949,-51
14:36:34.251949,-12801
14:36:34.251949,-1
14:36:34.251949,-46
14:36:34.251949,-11521
14:36:34.251949,-1
14:36:34.251949,-41
14:36:34.251949,-8961
14:36:34.251949,-1
14:36:34.251949,-36
14:36:34.251949,-8961
14:36:34.251949,-1
14:36:34.251949,-34
14:36:34.251949,-7169
14:36:34.251949,-1
14:36:34.251949,-26
14:36:34.797898,-26
14:36:34.797898,-7681
14:36:34.797898,-1
14:36:34.797898,-29
14:36:34.797898,-5889
14:36:34.797898,-1
14:36:34.797898,-24
14:36:34.797898,-5889
14:36:34.797898,-1
14:36:34.797898,-24
14:36:34.797898,-5889
14:36:34.797898,-1
14:36:34.797898,-26
14:36:34.797898,-6401
14:36:34.797898,-1
14:36:34.797898,-24
14:36:34.797898,-4097
14:36:34.797898,-1
14:36:34.797898,-7
14:36:34.797898,-2049
14:36:34.797898,-1
14:36:34.797898,-12
14:36:34.797898,-2049
14:36:34.797898,-1
14:36:34.797898,-9
14:36:34.797898,-2817
14:36:34.797898,-1
14:36:34.797898,-21
14:36:34.797898,-7681
14:36:34.797898,-1
14:36:34.797898,-34
14:36:34.797898,-10241
14:36:34.797898,-1
14:36:34.797898,-46
14:36:34.797898,-9473
14:36:34.797898,-1
14:36:34.797898,-14
14:36:34.797898,2559
14:36:34.797898,0
14:36:34.797898,26
14:36:34.797898,5376
14:36:34.797898,0
14:36:34.797898,0
14:36:34.797898,-512
14:36:34.797898,-1
14:36:34.797898,12
14:36:34.797898,2304
14:36:34.797898,0
14:36:34.797898,0
14:36:34.797898,-6656
14:36:34.797898,-1
14:36:34.797898,-65
14:36:34.797898,19455
14:36:34.797898,0
14:36:34.797898,671
14:36:34.797898,26624
14:36:34.797898,5
14:36:34.797898,1384
14:36:34.797898,-12288
14:36:34.797898,2
14:36:34.797898,204
14:36:34.797898,7424
14:36:34.797898,0
14:36:34.797898,-80
14:36:34.797898,25343
14:36:34.797898,-1
14:36:34.797898,-155
14:36:34.797898,28671
14:36:34.797898,-1
14:36:34.797898,-158
14:36:34.797898,27903
14:36:34.797898,-1
14:36:34.797898,-131
14:36:34.797898,-32513
14:36:34.797898,-1
14:36:34.797898,-124
14:36:34.797898,-28161
14:36:34.797898,-1
14:36:34.797898,-102
14:36:34.797898,-23297
14:36:34.797898,-1
14:36:34.797898,-82
14:36:34.797898,-18177
14:36:34.797898,-1
14:36:34.797898,-58
14:36:34.797898,-10241
14:36:34.797898,-1
14:36:34.797898,-24
14:36:34.797898,-1537
14:36:34.797898,-1
14:36:34.797898,12
14:36:34.797898,7936
14:36:34.797898,0
14:36:34.797898,43
14:36:34.797898,13568
14:36:34.797898,0
14:36:34.797898,55
14:36:34.797898,12288
14:36:34.797898,0
14:36:34.797898,24
14:36:34.797898,-4864
14:36:34.797898,-1
14:36:34.797898,-65
14:36:34.797898,-23809
14:36:34.797898,-1
14:36:34.797898,-109
14:36:34.797898,-30209
14:36:34.797898,-1
14:36:34.797898,-126
14:36:35.378338,-124
14:36:35.378338,-30209
14:36:35.378338,-1
14:36:35.378338,-114
14:36:35.378338,-27137
14:36:35.378338,-1
14:36:35.378338,-102
14:36:35.378338,-25857
14:36:35.378338,-1
14:36:35.378338,-94
14:36:35.378338,-21505
14:36:35.378338,-1
14:36:35.378338,-80
14:36:35.378338,-17153
14:36:35.378338,-1
14:36:35.378338,-58
14:36:35.378338,-15105
14:36:35.378338,-1
14:36:35.378338,-63
14:36:35.378338,-13313
14:36:35.378338,-1
14:36:35.378338,-51
14:36:35.378338,-12033
14:36:35.378338,-1
14:36:35.378338,-41
14:36:35.378338,-8961
14:36:35.378338,-1
14:36:35.378338,-36
14:36:35.378338,-8449
14:36:35.378338,-1
14:36:35.378338,-31
14:36:35.378338,-8449
14:36:35.378338,-1
14:36:35.378338,-34
14:36:35.378338,-7681
14:36:35.378338,-1
14:36:35.378338,-26
14:36:35.378338,-5121
14:36:35.378338,-1
14:36:35.378338,-19
14:36:35.378338,-5121
14:36:35.378338,-1
14:36:35.378338,-24
14:36:35.378338,-5121
14:36:35.378338,-1
14:36:35.378338,-19
14:36:35.378338,-4609
14:36:35.378338,-1
14:36:35.378338,-19
14:36:35.378338,-4097
14:36:35.378338,-1
14:36:35.378338,-14
14:36:35.378338,-3329
14:36:35.378338,-1
14:36:35.378338,-14
14:36:35.378338,-4097
14:36:35.378338,-1
14:36:35.378338,-19
14:36:35.378338,-3329
14:36:35.378338,-1
14:36:35.378338,-7
14:36:35.378338,-2817
14:36:35.378338,-1
14:36:35.378338,-17
14:36:35.378338,-2817
14:36:35.378338,-1
14:36:35.378338,-7
14:36:35.378338,-2049
14:36:35.378338,-1
14:36:35.378338,-9
14:36:35.378338,-1537
14:36:35.378338,-1
14:36:35.378338,-4
14:36:35.378338,-2817
14:36:35.378338,-1
14:36:35.378338,-21
14:36:35.378338,-6401
14:36:35.378338,-1
14:36:35.378338,-29
14:36:35.378338,-8449
14:36:35.378338,-1
14:36:35.378338,-41
14:36:35.378338,-8449
14:36:35.378338,-1
14:36:35.378338,-7
14:36:35.378338,6911
14:36:35.378338,0
14:36:35.378338,43
14:36:35.378338,4352
14:36:35.378338,0
14:36:35.378338,-4
14:36:35.378338,3327
14:36:35.378338,0
14:36:35.378338,26
14:36:35.378338,3584
14:36:35.378338,0
14:36:35.378338,7
14:36:35.378338,-4864
14:36:35.378338,-1
14:36:35.378338,-46
14:36:35.378338,-17409
14:36:35.378338,0
14:36:35.378338,866
14:36:35.378338,-25856
14:36:35.378338,5
14:36:35.378338,1192
14:36:35.378338,256
14:36:35.378338,2
14:36:35.378338,148
14:36:35.948811,43
14:36:35.948811,-17408
14:36:35.948811,-1
14:36:35.948811,-136
14:36:35.948811,-32001
14:36:35.948811,-1
14:36:35.948811,-119
14:36:35.948811,-31489
14:36:35.948811,-1
14:36:35.948811,-107
14:36:35.948811,-23809
14:36:35.948811,-1
14:36:35.948811,-92
14:36:35.948811,-20225
14:36:35.948811,-1
14:36:35.948811,-63
14:36:35.948811,-13313
14:36:35.948811,-1
14:36:35.948811,-36
14:36:35.948811,-3329
14:36:35.948811,-1
14:36:35.948811,-2
14:36:35.948811,767
14:36:35.948811,0
14:36:35.948811,17
14:36:35.948811,9216
14:36:35.948811,0
14:36:35.948811,53
14:36:35.948811,18432
14:36:35.948811,0
14:36:35.948811,92
14:36:35.948811,26112
14:36:35.948811,0
14:36:35.948811,102
14:36:35.948811,26112
14:36:35.948811,0
14:36:35.948811,92
14:36:35.948811,15360
14:36:35.948811,0
14:36:35.948811,14
14:36:35.948811,-6144
14:36:35.948811,-1
14:36:35.948811,-53
14:36:35.948811,-18945
14:36:35.948811,-1
14:36:35.948811,-87
14:36:35.948811,-20225
14:36:35.948811,-1
14:36:35.948811,-70
14:36:35.948811,-18945
14:36:35.948811,-1
14:36:35.948811,-72
14:36:35.948811,-16385
14:36:35.948811,-1
14:36:35.948811,-65
14:36:35.948811,-17665
14:36:35.948811,-1
14:36:35.948811,-63
14:36:35.948811,-13825
14:36:35.948811,-1
14:36:35.948811,-55
14:36:35.948811,-13313
14:36:35.948811,-1
14:36:35.948811,-46
14:36:35.948811,-10241
14:36:35.948811,-1
14:36:35.948811,-41
14:36:35.948811,-8961
14:36:35.948811,-1
14:36:35.948811,-31
14:36:35.948811,-5121
14:36:35.948811,-1
14:36:35.948811,-17
14:36:35.948811,-4609
14:36:35.948811,-1
14:36:35.948811,-19
14:36:35.948811,-4097
14:36:35.948811,-1
14:36:35.948811,-14
14:36:35.948811,-1537
14:36:35.948811,-1
14:36:35.948811,-7
14:36:35.948811,-2049
14:36:35.948811,-1
14:36:35.948811,-7
14:36:35.948811,-257
14:36:35.948811,-1
14:36:35.948811,-2
14:36:35.948811,-1537
14:36:35.948811,-1
14:36:35.948811,-7
14:36:35.948811,767
14:36:35.948811,0
14:36:35.948811,9
14:36:35.948811,1024
14:36:35.948811,0
14:36:35.948811,0
14:36:35.948811,512
14:36:35.948811,0
14:36:35.948811,7
14:36:35.948811,1024
14:36:35.948811,0
14:36:35.948811,4
14:36:35.948811,2304
14:36:35.948811,0
14:36:35.948811,9
14:36:35.948811,1792
14:36:35.948811,0
14:36:35.948811,4
14:36:36.457014,-2
14:36:36.457014,-2817
14:36:36.457014,-1
14:36:36.457014,-12
14:36:36.457014,-3329
14:36:36.457014,-1
14:36:36.457014,-24
14:36:36.457014,-3329
14:36:36.457014,-1
14:36:36.457014,7
14:36:36.457014,6656
14:36:36.457014,0
14:36:36.457014,43
14:36:36.457014,12288
14:36:36.457014,0
14:36:36.457014,34
14:36:36.457014,6656
14:36:36.457014,0
14:36:36.457014,31
14:36:36.457014,7936
14:36:36.457014,0
14:36:36.457014,26
14:36:36.457014,1792
14:36:36.457014,0
14:36:36.457014,-26
14:36:36.457014,22015
14:36:36.457014,0
14:36:36.457014,591
14:36:36.457014,-17664
14:36:36.457014,4
14:36:36.457014,1180
14:36:36.457014,15104
14:36:36.457014,2
14:36:36.457014,194
14:36:36.457014,27392
14:36:36.457014,0
14:36:36.457014,-21
14:36:36.457014,-28929
14:36:36.457014,-1
14:36:36.457014,-97
14:36:36.457014,-23809
14:36:36.457014,-1
14:36:36.457014,-116
14:36:36.457014,-27649
14:36:36.457014,-1
14:36:36.457014,-97
14:36:36.457014,-23809
14:36:36.457014,-1
14:36:36.457014,-85
14:36:36.457014,-18945
14:36:36.457014,-1
14:36:36.457014,-72
14:36:36.457014,-16385
14:36:36.457014,-1
14:36:36.457014,-53
14:36:36.457014,-10241
14:36:36.457014,-1
14:36:36.457014,-26
14:36:36.457014,-2049
14:36:36.457014,-1
14:36:36.457014,7
14:36:36.457014,5376
14:36:36.457014,0
14:36:36.457014,38
14:36:36.457014,14080
14:36:36.457014,0
14:36:36.457014,70
14:36:36.457014,19200
14:36:36.457014,0
14:36:36.457014,70
14:36:36.457014,14080
14:36:36.457014,0
14:36:36.457014,24
14:36:36.457014,-5376
14:36:36.457014,-1
14:36:36.457014,-63
14:36:36.457014,-22785
14:36:36.457014,-1
14:36:36.457014,-104
14:36:36.457014,-28161
14:36:36.457014,-1
14:36:36.457014,-114
14:36:36.457014,-28929
14:36:36.457014,-1
14:36:36.457014,-109
14:36:36.457014,-25857
14:36:36.457014,-1
14:36:36.457014,-97
14:36:36.457014,-23809
14:36:36.457014,-1
14:36:36.457014,-94
14:36:36.457014,-23809
14:36:36.457014,-1
14:36:36.457014,-87
14:36:36.457014,-20737
14:36:36.457014,-1
14:36:36.457014,-77
14:36:36.457014,-19457
14:36:36.457014,-1
14:36:36.457014,-75
14:36:36.457014,-17665
14:36:36.457014,-1
14:36:36.457014,-65
14:36:36.457014,-17153
14:36:36.457014,-1
14:36:36.457014,-63
14:36:36.457014,-13825
14:36:36.457014,-1
14:36:36.457014,-53
14:36:37.000828,-55
14:36:37.000828,-12801
14:36:37.000828,-1
14:36:37.000828,-51
14:36:37.000828,-12033
14:36:37.000828,-1
14:36:37.000828,-46
14:36:37.000828,-11521
14:36:37.000828,-1
14:36:37.000828,-41
14:36:37.000828,-6401
14:36:37.000828,-1
14:36:37.000828,-21
14:36:37.000828,-6401
14:36:37.000828,-1
14:36:37.000828,-26
14:36:37.000828,-5889
14:36:37.000828,-1
14:36:37.000828,-21
14:36:37.000828,-4609
14:36:37.000828,-1
14:36:37.000828,-19
14:36:37.000828,-5121
14:36:37.000828,-1
14:36:37.000828,-21
14:36:37.000828,-4609
14:36:37.000828,-1
14:36:37.000828,-19
14:36:37.000828,-5121
14:36:37.000828,-1
14:36:37.000828,-24
14:36:37.000828,-7169
14:36:37.000828,-1
14:36:37.000828,-38
14:36:37.000828,-11521
14:36:37.000828,-1
14:36:37.000828,-48
14:36:37.000828,-13825
14:36:37.000828,-1
14:36:37.000828,-60
14:36:37.000828,-12033
14:36:37.000828,-1
14:36:37.000828,-21
14:36:37.000828,2047
14:36:37.000828,0
14:36:37.000828,19
14:36:37.000828,512
14:36:37.000828,0
14:36:37.000828,-17
14:36:37.000828,-2049
14:36:37.000828,-1
14:36:37.000828,0
14:36:37.000828,-1024
14:36:37.000828,-1
14:36:37.000828,-19
14:36:37.000828,-15873
14:36:37.000828,-1
14:36:37.000828,-72
14:36:37.000828,-1281
14:36:37.000828,0
14:36:37.000828,1034
14:36:37.000828,6656
14:36:37.000828,6
14:36:37.000828,1192
14:36:37.000828,-11008
14:36:37.000828,1
14:36:37.000828,97
14:36:37.000828,-7424
14:36:37.000828,-1
14:36:37.000828,-136
14:36:37.000828,20479
14:36:37.000828,-1
14:36:37.000828,-158
14:36:37.000828,23551
14:36:37.000828,-1
14:36:37.000828,-175
14:36:37.000828,25343
14:36:37.000828,-1
14:36:37.000828,-145
14:36:37.000828,29695
14:36:37.000828,-1
14:36:37.000828,-131
14:36:37.000828,-30209
14:36:37.000828,-1
14:36:37.000828,-111
14:36:37.000828,-26369
14:36:37.000828,-1
14:36:37.000828,-92
14:36:37.000828,-19457
14:36:37.000828,-1
14:36:37.000828,-65
14:36:37.000828,-12801
14:36:37.000828,-1
14:36:37.000828,-34
14:36:37.000828,-2817
14:36:37.000828,-1
14:36:37.000828,12
14:36:37.000828,7936
14:36:37.000828,0
14:36:37.000828,41
14:36:37.000828,11008
14:36:37.000828,0
14:36:37.000828,38
14:36:37.000828,6144
14:36:37.000828,0
14:36:37.000828,-7
14:36:37.000828,-12033
14:36:37.000828,-1
14:36:37.000828,-87
14:36:37.629077,-109
14:36:37.629077,-30209
14:36:37.629077,-1
14:36:37.629077,-119
14:36:37.629077,-28929
14:36:37.629077,-1
14:36:37.629077,-99
14:36:37.629077,-23297
14:36:37.629077,-1
14:36:37.629077,-92
14:36:37.629077,-23297
14:36:37.629077,-1
14:36:37.629077,-90
14:36:37.629077,-20737
14:36:37.629077,-1
14:36:37.629077,-80
14:36:37.629077,-19457
14:36:37.629077,-1
14:36:37.629077,-77
14:36:37.629077,-18177
14:36:37.629077,-1
14:36:37.629077,-68
14:36:37.629077,-16385
14:36:37.629077,-1
14:36:37.629077,-60
14:36:37.629077,-14593
14:36:37.629077,-1
14:36:37.629077,-58
14:36:37.629077,-13825
14:36:37.629077,-1
14:36:37.629077,-53
14:36:37.629077,-12033
14:36:37.629077,-1
14:36:37.629077,-46
14:36:37.629077,-11521
14:36:37.629077,-1
14:36:37.629077,-41
14:36:37.629077,-9473
14:36:37.629077,-1
14:36:37.629077,-36
14:36:37.629077,-8449
14:36:37.629077,-1
14:36:37.629077,-34
14:36:37.629077,-8449
14:36:37.629077,-1
14:36:37.629077,-29
14:36:37.629077,-6401
14:36:37.629077,-1
14:36:37.629077,-26
14:36:37.629077,-6401
14:36:37.629077,-1
14:36:37.629077,-21
14:36:37.629077,-4609
14:36:37.629077,-1
14:36:37.629077,-19
14:36:37.629077,-4609
14:36:37.629077,-1
14:36:37.629077,-19
14:36:37.629077,-4609
14:36:37.629077,-1
14:36:37.629077,-19
14:36:37.629077,-5121
14:36:37.629077,-1
14:36:37.629077,-29
14:36:37.629077,-10241
14:36:37.629077,-1
14:36:37.629077,-46
14:36:37.629077,-11521
14:36:37.629077,-1
14:36:37.629077,-53
14:36:37.629077,-13313
14:36:37.629077,-1
14:36:37.629077,-34
14:36:37.629077,-769
14:36:37.629077,-1
14:36:37.629077,19
14:36:37.629077,5376
14:36:37.629077,0
14:36:37.629077,2
14:36:37.629077,0
14:36:37.629077,0
14:36:37.629077,7
14:36:37.629077,1792
14:36:37.629077,0
14:36:37.629077,2
14:36:37.629077,-3584
14:36:37.629077,-1
14:36:37.629077,-65
14:36:37.629077,-769
14:36:37.629077,-1
14:36:37.629077,484
14:36:37.629077,-5120
14:36:37.629077,4
14:36:37.629077,1486
14:36:37.629077,-28672
14:36:37.629077,3
14:36:37.629077,296
14:36:37.629077,14848
14:36:37.629077,0
14:36:37.629077,-51
14:36:37.629077,29183
14:36:37.629077,-1
14:36:37.629077,-153
14:36:37.629077,30463
14:36:37.629077,-1
14:36:37.629077,-153
14:36:37.629077,27391
14:36:37.629077,-1
14:36:37.629077,-136
14:36:38.168195,-126
14:36:38.168195,-29441
14:36:38.168195,-1
14:36:38.168195,-107
14:36:38.168195,-24577
14:36:38.168195,-1
14:36:38.168195,-90
14:36:38.168195,-20225
14:36:38.168195,-1
14:36:38.168195,-65
14:36:38.168195,-12801
14:36:38.168195,-1
14:36:38.168195,-38
14:36:38.168195,-5889
14:36:38.168195,-1
14:36:38.168195,-7
14:36:38.168195,3327
14:36:38.168195,0
14:36:38.168195,36
14:36:38.168195,17408
14:36:38.168195,0
14:36:38.168195,85
14:36:38.168195,20480
14:36:38.168195,0
14:36:38.168195,72
14:36:38.168195,13056
14:36:38.168195,0
14:36:38.168195,9
14:36:38.168195,-8704
14:36:38.168195,-1
14:36:38.168195,-65
14:36:38.168195,-21505
14:36:38.168195,-1
14:36:38.168195,-94
14:36:38.168195,-25857
14:36:38.168195,-1
14:36:38.168195,-94
14:36:38.168195,-21505
14:36:38.168195,-1
14:36:38.168195,-82
14:36:38.168195,-20737
14:36:38.168195,-1
14:36:38.168195,-77
14:36:38.168195,-18177
14:36:38.168195,-1
14:36:38.168195,-70
14:36:38.168195,-16385
14:36:38.168195,-1
14:36:38.168195,-60
14:36:38.168195,-15105
14:36:38.168195,-1
14:36:38.168195,-58
14:36:38.168195,-13825
14:36:38.168195,-1
14:36:38.168195,-51
14:36:38.168195,-11521
14:36:38.168195,-1
14:36:38.168195,-46
14:36:38.168195,-12033
14:36:38.168195,-1
14:36:38.168195,-43
14:36:38.168195,-7681
14:36:38.168195,-1
14:36:38.168195,-26
14:36:38.168195,-7681
14:36:38.168195,-1
14:36:38.168195,-31
14:36:38.168195,-5889
14:36:38.168195,-1
14:36:38.168195,-21
14:36:38.168195,-5121
14:36:38.168195,-1
14:36:38.168195,-17
14:36:38.168195,-2049
14:36:38.168195,-1
14:36:38.168195,-7
14:36:38.168195,-1537
14:36:38.168195,-1
14:36:38.168195,-9
14:36:38.168195,-2049
14:36:38.168195,-1
14:36:38.168195,-4
14:36:38.168195,-257
14:36:38.168195,-1
14:36:38.168195,-2
14:36:38.168195,255
14:36:38.168195,0
14:36:38.168195,0
14:36:38.168195,-1792
14:36:38.168195,-1
14:36:38.168195,-21
14:36:38.168195,-7169
14:36:38.168195,-1
14:36:38.168195,-34
14:36:38.168195,-9473
14:36:38.168195,-1
14:36:38.168195,-29
14:36:38.168195,255
14:36:38.168195,0
14:36:38.168195,31
14:36:38.168195,11008
14:36:38.168195,0
14:36:38.168195,26
14:36:38.168195,3072
14:36:38.168195,0
14:36:38.168195,19
14:36:38.168195,6656
14:36:38.168195,0
14:36:38.168195,19
14:36:38.753202,12
14:36:38.753202,-4352
14:36:38.753202,-1
14:36:38.753202,-53
14:36:38.753202,-27393
14:36:38.753202,0
14:36:38.753202,805
14:36:38.753202,-28416
14:36:38.753202,5
14:36:38.753202,1243
14:36:38.753202,12032
14:36:38.753202,2
14:36:38.753202,167
14:36:38.753202,14848
14:36:38.753202,0
14:36:38.753202,-53
14:36:38.753202,-28929
14:36:38.753202,-1
14:36:38.753202,-99
14:36:38.753202,-24577
14:36:38.753202,-1
14:36:38.753202,-109
14:36:38.753202,-24577
14:36:38.753202,-1
14:36:38.753202,-82
14:36:38.753202,-18945
14:36:38.753202,-1
14:36:38.753202,-63
14:36:38.753202,-13313
14:36:38.753202,-1
14:36:38.753202,-53
14:36:38.753202,-10753
14:36:38.753202,-1
14:36:38.753202,-26
14:36:38.753202,-4097
14:36:38.753202,-1
14:36:38.753202,-4
14:36:38.753202,3327
14:36:38.753202,0
14:36:38.753202,26
14:36:38.753202,11776
14:36:38.753202,0
14:36:38.753202,68
14:36:38.753202,21760
14:36:38.753202,0
14:36:38.753202,97
14:36:38.753202,26624
14:36:38.753202,0
14:36:38.753202,90
14:36:38.753202,16128
14:36:38.753202,0
14:36:38.753202,26
14:36:38.753202,-3584
14:36:38.753202,-1
14:36:38.753202,-48
14:36:38.753202,-17665
14:36:38.753202,-1
14:36:38.753202,-80
14:36:38.753202,-19457
14:36:38.753202,-1
14:36:38.753202,-72
14:36:38.753202,-18177
14:36:38.753202,-1
14:36:38.753202,-72
14:36:38.753202,-17153
14:36:38.753202,-1
14:36:38.753202,-63
14:36:38.753202,-14593
14:36:38.753202,-1
14:36:38.753202,-55
14:36:38.753202,-15105
14:36:38.753202,-1
14:36:38.753202,-58
14:36:38.753202,-11521
14:36:38.753202,-1
14:36:38.753202,-34
14:36:38.753202,-8961
14:36:38.753202,-1
14:36:38.753202,-34
14:36:38.753202,-7169
14:36:38.753202,-1
14:36:38.753202,-31
14:36:38.753202,-7681
14:36:38.753202,-1
14:36:38.753202,-24
14:36:38.753202,-3329
14:36:38.753202,-1
14:36:38.753202,-14
14:36:38.753202,-4097
14:36:38.753202,-1
14:36:38.753202,-12
14:36:38.753202,-1537
14:36:38.753202,-1
14:36:38.753202,-9
14:36:38.753202,-2049
14:36:38.753202,-1
14:36:38.753202,-7
14:36:38.753202,-1537
14:36:38.753202,-1
14:36:38.753202,-7
14:36:38.753202,-769
14:36:38.753202,-1
14:36:38.753202,-2
14:36:38.753202,767
14:36:38.753202,0
14:36:38.753202,2
14:36:38.753202,-1792
14:36:38.753202,-1
14:36:38.753202,-21
14:36:39.292617,-26
14:36:39.292617,-7169
14:36:39.292617,-1
14:36:39.292617,-31
14:36:39.292617,-5889
14:36:39.292617,-1
14:36:39.292617,-12
14:36:39.292617,2559
14:36:39.292617,0
14:36:39.292617,36
14:36:39.292617,10496
14:36:39.292617,0
14:36:39.292617,17
14:36:39.292617,2304
14:36:39.292617,0
14:36:39.292617,26
14:36:39.292617,7424
14:36:39.292617,0
14:36:39.292617,17
14:36:39.292617,2304
14:36:39.292617,0
14:36:39.292617,-17
14:36:39.292617,255
14:36:39.292617,0
14:36:39.292617,345
14:36:39.292617,4864
14:36:39.292617,4
14:36:39.292617,1355
14:36:39.292617,24320
14:36:39.292617,3
14:36:39.292617,299
14:36:39.292617,-32768
14:36:39.292617,0
14:36:39.292617,31
14:36:39.292617,-23552
14:36:39.292617,-1
14:36:39.292617,-111
14:36:39.292617,-24577
14:36:39.292617,-1
14:36:39.292617,-114
14:36:39.292617,-28929
14:36:39.292617,-1
14:36:39.292617,-99
14:36:39.292617,-23297
14:36:39.292617,-1
14:36:39.292617,-80
14:36:39.292617,-16385
14:36:39.292617,-1
14:36:39.292617,-63
14:36:39.292617,-15105
14:36:39.292617,-1
14:36:39.292617,-48
14:36:39.292617,-9473
14:36:39.292617,-1
14:36:39.292617,-29
14:36:39.292617,-2049
14:36:39.292617,-1
14:36:39.292617,4
14:36:39.292617,3584
14:36:39.292617,0
14:36:39.292617,31
14:36:39.292617,13056
14:36:39.292617,0
14:36:39.292617,60
14:36:39.292617,17408
14:36:39.292617,0
14:36:39.292617,68
14:36:39.292617,13056
14:36:39.292617,0
14:36:39.292617,19
14:36:39.292617,-4352
14:36:39.292617,-1
14:36:39.292617,-55
14:36:39.292617,-23297
14:36:39.292617,-1
14:36:39.292617,-109
14:36:39.292617,-28929
14:36:39.292617,-1
14:36:39.292617,-111
14:36:39.292617,-27137
14:36:39.292617,-1
14:36:39.292617,-102
14:36:39.292617,-24577
14:36:39.292617,-1
14:36:39.292617,-102
14:36:39.292617,-25089
14:36:39.292617,-1
14:36:39.292617,-90
14:36:39.292617,-21505
14:36:39.292617,-1
14:36:39.292617,-87
14:36:39.292617,-21505
14:36:39.292617,-1
14:36:39.292617,-80
14:36:39.292617,-18945
14:36:39.292617,-1
14:36:39.292617,-72
14:36:39.292617,-17153
14:36:39.292617,-1
14:36:39.292617,-63
14:36:39.292617,-15873
14:36:39.292617,-1
14:36:39.292617,-60
14:36:39.292617,-13825
14:36:39.292617,-1
14:36:39.292617,-53
14:36:39.292617,-12033
14:36:39.292617,-1
14:36:39.292617,-46
14:36:39.832616,-41
14:36:39.832616,-9473
14:36:39.832616,-1
14:36:39.832616,-38
14:36:39.832616,-10241
14:36:39.832616,-1
14:36:39.832616,-36
14:36:39.832616,-7169
14:36:39.832616,-1
14:36:39.832616,-31
14:36:39.832616,-8961
14:36:39.832616,-1
14:36:39.832616,-34
14:36:39.832616,-7681
14:36:39.832616,-1
14:36:39.832616,-29
14:36:39.832616,-5889
14:36:39.832616,-1
14:36:39.832616,-36
14:36:39.832616,-11521
14:36:39.832616,-1
14:36:39.832616,-51
14:36:39.832616,-13313
14:36:39.832616,-1
14:36:39.832616,-43
14:36:39.832616,-4097
14:36:39.832616,-1
14:36:39.832616,7
14:36:39.832616,6144
14:36:39.832616,0
14:36:39.832616,12
14:36:39.832616,-2304
14:36:39.832616,-1
14:36:39.832616,-2
14:36:39.832616,2559
14:36:39.832616,0
14:36:39.832616,4
14:36:39.832616,-512
14:36:39.832616,-1
14:36:39.832616,-29
14:36:39.832616,-20225
14:36:39.832616,-1
14:36:39.832616,51
14:36:39.832616,-23552
14:36:39.832616,2
14:36:39.832616,1442
14:36:39.832616,-22784
14:36:39.832616,5
14:36:39.832616,751
14:36:39.832616,-10752
14:36:39.832616,0
14:36:39.832616,31
14:36:39.832616,-21760
14:36:39.832616,-1
14:36:39.832616,-167
14:36:39.832616,24063
14:36:39.832616,-1
14:36:39.832616,-155
14:36:39.832616,23039
14:36:39.832616,-1
14:36:39.832616,-158
14:36:39.832616,29695
14:36:39.832616,-1
14:36:39.832616,-138
14:36:39.832616,31743
14:36:39.832616,-1
14:36:39.832616,-124
14:36:39.832616,-28929
14:36:39.832616,-1
14:36:39.832616,-104
14:36:39.832616,-23297
14:36:39.832616,-1
14:36:39.832616,-77
14:36:39.832616,-17153
14:36:39.832616,-1
14:36:39.832616,-55
14:36:39.832616,-8961
14:36:39.832616,-1
14:36:39.832616,-17
14:36:39.832616,-257
14:36:39.832616,-1
14:36:39.832616,12
14:36:39.832616,6656
14:36:39.832616,0
14:36:39.832616,31
14:36:39.832616,7424
14:36:39.832616,0
14:36:39.832616,17
14:36:39.832616,-3072
14:36:39.832616,-1
14:36:39.832616,-55
14:36:39.832616,-23809
14:36:39.832616,-1
14:36:39.832616,-116
14:36:39.832616,-31489
14:36:39.832616,-1
14:36:39.832616,-124
14:36:39.832616,-30721
14:36:39.832616,-1
14:36:39.832616,-116
14:36:39.832616,-29441
14:36:39.832616,-1
14:36:39.832616,-114
14:36:39.832616,-27649
14:36:39.832616,-1
14:36:39.832616,-102
14:36:39.832616,-25089
14:36:39.832616,-1
14:36:39.832616,-97
14:36:40.374353,-94
14:36:40.374353,-22785
14:36:40.374353,-1
14:36:40.374353,-85
14:36:40.374353,-20225
14:36:40.374353,-1
14:36:40.374353,-75
14:36:40.374353,-17665
14:36:40.374353,-1
14:36:40.374353,-68
14:36:40.374353,-15873
14:36:40.374353,-1
14:36:40.374353,-51
14:36:40.374353,-10241
14:36:40.374353,-1
14:36:40.374353,-41
14:36:40.374353,-10241
14:36:40.374353,-1
14:36:40.374353,-41
14:36:40.374353,-9473
14:36:40.374353,-1
14:36:40.374353,-36
14:36:40.374353,-7681
14:36:40.374353,-1
14:36:40.374353,-26
14:36:40.374353,-5889
14:36:40.374353,-1
14:36:40.374353,-21
14:36:40.374353,-4609
14:36:40.374353,-1
14:36:40.374353,-19
14:36:40.374353,-4609
14:36:40.374353,-1
14:36:40.374353,-24
14:36:40.374353,-9473
14:36:40.374353,-1
14:36:40.374353,-46
14:36:40.374353,-11521
14:36:40.374353,-1
14:36:40.374353,-51
14:36:40.374353,-12033
14:36:40.374353,-1
14:36:40.374353,-24
14:36:40.374353,767
14:36:40.374353,0
14:36:40.374353,24
14:36:40.374353,6144
14:36:40.374353,0
14:36:40.374353,2
14:36:40.374353,-1024
14:36:40.374353,-1
14:36:40.374353,9
14:36:40.374353,1792
14:36:40.374353,0
14:36:40.374353,-2
14:36:40.374353,-3329
14:36:40.374353,-1
14:36:40.374353,-60
14:36:40.374353,-9473
14:36:40.374353,-1
14:36:40.374353,377
14:36:40.374353,-26880
14:36:40.374353,4
14:36:40.374353,1537
14:36:40.374353,-1280
14:36:40.374353,3
14:36:40.374353,352
14:36:40.374353,19712
14:36:40.374353,0
14:36:40.374353,-36
14:36:40.374353,28671
14:36:40.374353,-1
14:36:40.374353,-163
14:36:40.374353,28671
14:36:40.374353,-1
14:36:40.374353,-158
14:36:40.374353,25343
14:36:40.374353,-1
14:36:40.374353,-138
14:36:40.374353,32255
14:36:40.374353,-1
14:36:40.374353,-126
14:36:40.374353,-28161
14:36:40.374353,-1
14:36:40.374353,-102
14:36:40.374353,-23297
14:36:40.374353,-1
14:36:40.374353,-80
14:36:40.374353,-17153
14:36:40.374353,-1
14:36:40.374353,-55
14:36:40.374353,-10241
14:36:40.374353,-1
14:36:40.374353,-24
14:36:40.374353,-1537
14:36:40.374353,-1
14:36:40.374353,9
14:36:40.374353,7424
14:36:40.374353,0
14:36:40.374353,43
14:36:40.374353,12288
14:36:40.374353,0
14:36:40.374353,51
14:36:40.374353,10496
14:36:40.374353,0
14:36:40.374353,12
14:36:40.374353,-7936
14:36:40.374353,-1
14:36:40.374353,-70
14:36:40.960365,-94
14:36:40.960365,-27649
14:36:40.960365,-1
14:36:40.960365,-114
14:36:40.960365,-28929
14:36:40.960365,-1
14:36:40.960365,-114
14:36:40.960365,-25089
14:36:40.960365,-1
14:36:40.960365,-85
14:36:40.960365,-20737
14:36:40.960365,-1
14:36:40.960365,-82
14:36:40.960365,-18177
14:36:40.960365,-1
14:36:40.960365,-70
14:36:40.960365,-17153
14:36:40.960365,-1
14:36:40.960365,-63
14:36:40.960365,-14593
14:36:40.960365,-1
14:36:40.960365,-55
14:36:40.960365,-13313
14:36:40.960365,-1
14:36:40.960365,-51
14:36:40.960365,-12033
14:36:40.960365,-1
14:36:40.960365,-46
14:36:40.960365,-10753
14:36:40.960365,-1
14:36:40.960365,-41
14:36:40.960365,-8961
14:36:40.960365,-1
14:36:40.960365,-36
14:36:40.960365,-8961
14:36:40.960365,-1
14:36:40.960365,-34
14:36:40.960365,-7681
14:36:40.960365,-1
14:36:40.960365,-31
14:36:40.960365,-6401
14:36:40.960365,-1
14:36:40.960365,-21
14:36:40.960365,-5121
14:36:40.960365,-1
14:36:40.960365,-19
14:36:40.960365,-4097
14:36:40.960365,-1
14:36:40.960365,-14
14:36:40.960365,-3329
14:36:40.960365,-1
14:36:40.960365,-17
14:36:40.960365,-5889
14:36:40.960365,-1
14:36:40.960365,-36
14:36:40.960365,-10753
14:36:40.960365,-1
14:36:40.960365,-48
14:36:40.960365,-13313
14:36:40.960365,-1
14:36:40.960365,-41
14:36:40.960365,-4097
14:36:40.960365,-1
14:36:40.960365,7
14:36:40.960365,6144
14:36:40.960365,0
14:36:40.960365,21
14:36:40.960365,-512
14:36:40.960365,-1
14:36:40.960365,-7
14:36:40.960365,1279
14:36:40.960365,0
14:36:40.960365,4
14:36:40.960365,512
14:36:40.960365,0
14:36:40.960365,-12
14:36:40.960365,-16385
14:36:40.960365,-1
14:36:40.960365,0
14:36:40.960365,2048
14:36:40.960365,2
14:36:40.960365,1309
14:36:40.960365,-15360
14:36:40.960365,5
14:36:40.960365,851
14:36:40.960365,3584
14:36:40.960365,1
14:36:40.960365,70
14:36:40.960365,-12288
14:36:40.960365,-1
14:36:40.960365,-145
14:36:40.960365,29183
14:36:40.960365,-1
14:36:40.960365,-131
14:36:40.960365,27391
14:36:40.960365,-1
14:36:40.960365,-145
14:36:40.960365,-31489
14:36:40.960365,-1
14:36:40.960365,-119
14:36:40.960365,-28161
14:36:40.960365,-1
14:36:40.960365,-97
14:36:40.960365,-21505
14:36:40.960365,-1
14:36:40.960365,-75
14:36:40.960365,-17153
14:36:40.960365,-1
14:36:40.960365,-58
14:36:41.546117,-38
14:36:41.546117,-4097
14:36:41.546117,-1
14:36:41.546117,-2
14:36:41.546117,3327
14:36:41.546117,0
14:36:41.546117,29
14:36:41.546117,12288
14:36:41.546117,0
14:36:41.546117,63
14:36:41.546117,19712
14:36:41.546117,0
14:36:41.546117,82
14:36:41.546117,17920
14:36:41.546117,0
14:36:41.546117,41
14:36:41.546117,512
14:36:41.546117,0
14:36:41.546117,-36
14:36:41.546117,-16385
14:36:41.546117,-1
14:36:41.546117,-82
14:36:41.546117,-22017
14:36:41.546117,-1
14:36:41.546117,-82
14:36:41.546117,-18945
14:36:41.546117,-1
14:36:41.546117,-70
14:36:41.546117,-17153
14:36:41.546117,-1
14:36:41.546117,-58
14:36:41.546117,-14593
14:36:41.546117,-1
14:36:41.546117,-58
14:36:41.546117,-13825
14:36:41.546117,-1
14:36:41.546117,-51
14:36:41.546117,-12801
14:36:41.546117,-1
14:36:41.546117,-43
14:36:41.546117,-8449
14:36:41.546117,-1
14:36:41.546117,-31
14:36:41.546117,-8961
14:36:41.546117,-1
14:36:41.546117,-38
14:36:41.546117,-7169
14:36:41.546117,-1
14:36:41.546117,-17
14:36:41.546117,-3329
14:36:41.546117,-1
14:36:41.546117,-17
14:36:41.546117,-4097
14:36:41.546117,-1
14:36:41.546117,-12
14:36:41.546117,-257
14:36:41.546117,-1
14:36:41.546117,-2
14:36:41.546117,-2049
14:36:41.546117,-1
14:36:41.546117,-7
14:36:41.546117,767
14:36:41.546117,0
14:36:41.546117,7
14:36:41.546117,1024
14:36:41.546117,0
14:36:41.546117,4
14:36:41.546117,1024
14:36:41.546117,0
14:36:41.546117,4
14:36:41.546117,1792
14:36:41.546117,0
14:36:41.546117,9
14:36:41.546117,1024
14:36:41.546117,0
14:36:41.546117,-4
14:36:41.546117,-2817
14:36:41.546117,-1
14:36:41.546117,-19
14:36:41.546117,-5889
14:36:41.546117,-1
14:36:41.546117,-9
14:36:41.546117,3839
14:36:41.546117,0
14:36:41.546117,36
14:36:41.546117,13056
14:36:41.546117,0
14:36:41.546117,41
14:36:41.546117,6144
14:36:41.546117,0
14:36:41.546117,21
14:36:41.546117,7424
14:36:41.546117,0
14:36:41.546117,36
14:36:41.546117,9216
14:36:41.546117,0
14:36:41.546117,0
14:36:41.546117,-9728
14:36:41.546117,-1
14:36:41.546117,109
14:36:41.546117,-24064
14:36:41.546117,2
14:36:41.546117,1313
14:36:41.546117,-10240
14:36:41.546117,4
14:36:41.546117,591
14:36:41.546117,-14592
14:36:41.546117,0
14:36:41.546117,109
14:36:42.083202,-14
14:36:42.083202,-23809
14:36:42.083202,-1
14:36:42.083202,-80
14:36:42.083202,-20737
14:36:42.083202,-1
14:36:42.083202,-99
14:36:42.083202,-21505
14:36:42.083202,-1
14:36:42.083202,-70
14:36:42.083202,-16385
14:36:42.083202,-1
14:36:42.083202,-55
14:36:42.083202,-10753
14:36:42.083202,-1
14:36:42.083202,-38
14:36:42.083202,-6401
14:36:42.083202,-1
14:36:42.083202,0
14:36:42.083202,3072
14:36:42.083202,0
14:36:42.083202,14
14:36:42.083202,7936
14:36:42.083202,0
14:36:42.083202,46
14:36:42.083202,13568
14:36:42.083202,0
14:36:42.083202,75
14:36:42.083202,24064
14:36:42.083202,0
14:36:42.083202,97
14:36:42.083202,24064
14:36:42.083202,0
14:36:42.083202,94
14:36:42.083202,19200
14:36:42.083202,0
14:36:42.083202,31
14:36:42.083202,-3072
14:36:42.083202,-1
14:36:42.083202,-46
14:36:42.083202,-17665
14:36:42.083202,-1
14:36:42.083202,-75
14:36:42.083202,-18177
14:36:42.083202,-1
14:36:42.083202,-75
14:36:42.083202,-20225
14:36:42.083202,-1
14:36:42.083202,-75
14:36:42.083202,-16385
14:36:42.083202,-1
14:36:42.083202,-65
14:36:42.083202,-17665
14:36:42.083202,-1
14:36:42.083202,-68
14:36:42.083202,-14593
14:36:42.083202,-1
14:36:42.083202,-55
14:36:42.083202,-13313
14:36:42.083202,-1
14:36:42.083202,-53
14:36:42.083202,-12801
14:36:42.083202,-1
14:36:42.083202,-46
14:36:42.083202,-10753
14:36:42.083202,-1
14:36:42.083202,-43
14:36:42.083202,-10753
14:36:42.083202,-1
14:36:42.083202,-38
14:36:42.083202,-8961
14:36:42.083202,-1
14:36:42.083202,-38
14:36:42.083202,-8961
14:36:42.083202,-1
14:36:42.083202,-29
14:36:42.083202,-7681
14:36:42.083202,-1
14:36:42.083202,-34
14:36:42.083202,-7681
14:36:42.083202,-1
14:36:42.083202,-29
14:36:42.083202,-7169
14:36:42.083202,-1
14:36:42.083202,-29
14:36:42.083202,-5121
14:36:42.083202,-1
14:36:42.083202,-19
14:36:42.083202,-4609
14:36:42.083202,-1
14:36:42.083202,-19
14:36:42.083202,-5889
14:36:42.083202,-1
14:36:42.083202,-34
14:36:42.083202,-9473
14:36:42.083202,-1
14:36:42.083202,-41
14:36:42.083202,-10753
14:36:42.083202,-1
14:36:42.083202,-51
14:36:42.083202,-10753
14:36:42.083202,-1
14:36:42.083202,-21
14:36:42.083202,255
14:36:42.083202,0
14:36:42.083202,24
14:36:42.083202,6144
14:36:42.083202,0
14:36:42.083202,-7
14:36:42.624198,-9
14:36:42.624198,2047
14:36:42.624198,0
14:36:42.624198,9
14:36:42.624198,1024
14:36:42.624198,0
14:36:42.624198,-21
14:36:42.624198,-17153
14:36:42.624198,-1
14:36:42.624198,9
14:36:42.624198,-1536
14:36:42.624198,1
14:36:42.624198,1272
14:36:42.624198,-25856
14:36:42.624198,5
14:36:42.624198,812
14:36:42.624198,2816
14:36:42.624198,1
14:36:42.624198,109
14:36:42.624198,-4352
14:36:42.624198,-1
14:36:42.624198,-133
14:36:42.624198,30463
14:36:42.624198,-1
14:36:42.624198,-124
14:36:42.624198,32255
14:36:42.624198,-1
14:36:42.624198,-119
14:36:42.624198,-25089
14:36:42.624198,-1
14:36:42.624198,-85
14:36:42.624198,-16385
14:36:42.624198,-1
14:36:42.624198,-58
14:36:42.624198,-15105
14:36:42.624198,-1
14:36:42.624198,-51
14:36:42.624198,-9473
14:36:42.624198,-1
14:36:42.624198,-29
14:36:42.624198,-4609
14:36:42.624198,-1
14:36:42.624198,-7
14:36:42.624198,1279
14:36:42.624198,0
14:36:42.624198,24
14:36:42.624198,13056
14:36:42.624198,0
14:36:42.624198,68
14:36:42.624198,16640
14:36:42.624198,0
14:36:42.624198,58
14:36:42.624198,13568
14:36:42.624198,0
14:36:42.624198,46
14:36:42.624198,6144
14:36:42.624198,0
14:36:42.624198,-9
14:36:42.624198,-9473
14:36:42.624198,-1
14:36:42.624198,-63
14:36:42.624198,-17153
14:36:42.624198,-1
14:36:42.624198,-63
14:36:42.624198,-17153
14:36:42.624198,-1
14:36:42.624198,-65
14:36:42.624198,-13825
14:36:42.624198,-1
14:36:42.624198,-53
14:36:42.624198,-15873
14:36:42.624198,-1
14:36:42.624198,-68
14:36:42.624198,-11521
14:36:42.624198,-1
14:36:42.624198,-29
14:36:42.624198,-8449
14:36:42.624198,-1
14:36:42.624198,-36
14:36:42.624198,-5121
14:36:42.624198,-1
14:36:42.624198,-14
14:36:42.624198,-4609
14:36:42.624198,-1
14:36:42.624198,-12
14:36:42.624198,-2817
14:36:42.624198,-1
14:36:42.624198,-19
14:36:42.624198,-4609
14:36:42.624198,-1
14:36:42.624198,-4
14:36:42.624198,767
14:36:42.624198,0
14:36:42.624198,-4
14:36:42.624198,-2817
14:36:42.624198,-1
14:36:42.624198,-2
14:36:42.624198,767
14:36:42.624198,0
14:36:42.624198,-7
14:36:42.624198,-769
14:36:42.624198,-1
14:36:42.624198,2
14:36:42.624198,1024
14:36:42.624198,0
14:36:42.624198,7
14:36:42.624198,512
14:36:42.624198,0
14:36:42.624198,2
14:36:43.208112,0
14:36:43.208112,-3584
14:36:43.208112,-1
14:36:43.208112,-29
14:36:43.208112,-8449
14:36:43.208112,-1
14:36:43.208112,-34
14:36:43.208112,-7169
14:36:43.208112,-1
14:36:43.208112,-9
14:36:43.208112,5119
14:36:43.208112,0
14:36:43.208112,41
14:36:43.208112,11776
14:36:43.208112,0
14:36:43.208112,29
14:36:43.208112,4864
14:36:43.208112,0
14:36:43.208112,34
14:36:43.208112,9728
14:36:43.208112,0
14:36:43.208112,29
14:36:43.208112,7424
14:36:43.208112,0
14:36:43.208112,4
14:36:43.208112,-16128
14:36:43.208112,-1
14:36:43.208112,70
14:36:43.208112,-8704
14:36:43.208112,2
14:36:43.208112,1457
14:36:43.208112,21760
14:36:43.208112,5
14:36:43.208112,681
14:36:43.208112,-9728
14:36:43.208112,0
14:36:43.208112,53
14:36:43.208112,-17408
14:36:43.208112,-1
14:36:43.208112,-133
14:36:43.208112,-32001
14:36:43.208112,-1
14:36:43.208112,-128
14:36:43.208112,30975
14:36:43.208112,-1
14:36:43.208112,-121
14:36:43.208112,-27649
14:36:43.208112,-1
14:36:43.208112,-109
14:36:43.208112,-25089
14:36:43.208112,-1
14:36:43.208112,-87
14:36:43.208112,-18945
14:36:43.208112,-1
14:36:43.208112,-63
14:36:43.208112,-15105
14:36:43.208112,-1
14:36:43.208112,-53
14:36:43.208112,-10241
14:36:43.208112,-1
14:36:43.208112,-29
14:36:43.208112,-2817
14:36:43.208112,-1
14:36:43.208112,7
14:36:43.208112,4864
14:36:43.208112,0
14:36:43.208112,31
14:36:43.208112,11008
14:36:43.208112,0
14:36:43.208112,48
14:36:43.208112,11008
14:36:43.208112,0
14:36:43.208112,26
14:36:43.208112,-512
14:36:43.208112,-1
14:36:43.208112,-34
14:36:43.208112,-14593
14:36:43.208112,-1
14:36:43.208112,-72
14:36:43.208112,-21505
14:36:43.208112,-1
14:36:43.208112,-87
14:36:43.208112,-22785
14:36:43.208112,-1
14:36:43.208112,-85
14:36:43.208112,-18945
14:36:43.208112,-1
14:36:43.208112,-77
14:36:43.208112,-18945
14:36:43.208112,-1
14:36:43.208112,-68
14:36:43.208112,-17665
14:36:43.208112,-1
14:36:43.208112,-75
14:36:43.208112,-17665
14:36:43.208112,-1
14:36:43.208112,-65
14:36:43.208112,-16385
14:36:43.208112,-1
14:36:43.208112,-65
14:36:43.208112,-15873
14:36:43.208112,-1
14:36:43.208112,-60
14:36:43.208112,-16385
14:36:43.208112,-1
14:36:43.208112,-58
14:36:43.208112,-13313
14:36:43.208112,-1
14:36:43.208112,-55
14:36:43.748194,-53
14:36:43.748194,-13313
14:36:43.748194,-1
14:36:43.748194,-53
14:36:43.748194,-10753
14:36:43.748194,-1
14:36:43.748194,-41
14:36:43.748194,-12033
14:36:43.748194,-1
14:36:43.748194,-48
14:36:43.748194,-9473
14:36:43.748194,-1
14:36:43.748194,-48
14:36:43.748194,-14593
14:36:43.748194,-1
14:36:43.748194,-51
14:36:43.748194,-15105
14:36:43.748194,-1
14:36:43.748194,-80
14:36:43.748194,-15105
14:36:43.748194,-1
14:36:43.748194,-19
14:36:43.748194,3327
14:36:43.748194,0
14:36:43.748194,24
14:36:43.748194,2304
14:36:43.748194,0
14:36:43.748194,-17
14:36:43.748194,-4609
14:36:43.748194,-1
14:36:43.748194,-9
14:36:43.748194,-2049
14:36:43.748194,-1
14:36:43.748194,-14
14:36:43.748194,-8961
14:36:43.748194,-1
14:36:43.748194,-97
14:36:43.748194,-2049
14:36:43.748194,-1
14:36:43.748194,588
14:36:43.748194,30464
14:36:43.748194,5
14:36:43.748194,1484
14:36:43.748194,3840
14:36:43.748194,3
14:36:43.748194,192
14:36:43.748194,2304
14:36:43.748194,0
14:36:43.748194,-90
14:36:43.748194,19199
14:36:43.748194,-1
14:36:43.748194,-177
14:36:43.748194,24063
14:36:43.748194,-1
14:36:43.748194,-180
14:36:43.748194,22271
14:36:43.748194,-1
14:36:43.748194,-158
14:36:43.748194,26111
14:36:43.748194,-1
14:36:43.748194,-138
14:36:43.748194,-27649
14:36:43.748194,-1
14:36:43.748194,-107
14:36:43.748194,-28161
14:36:43.748194,-1
14:36:43.748194,-85
14:36:43.748194,-13825
14:36:43.748194,-1
14:36:43.748194,-53
14:36:43.748194,-14593
14:36:43.748194,-1
14:36:43.748194,-55
14:36:43.748194,-11521
14:36:43.748194,-1
14:36:43.748194,-4
14:36:43.748194,11263
14:36:43.748194,0
14:36:43.748194,36
14:36:43.748194,7424
14:36:43.748194,0
14:36:43.748194,43
14:36:43.748194,4352
14:36:43.748194,0
14:36:43.748194,-24
14:36:43.748194,-12801
14:36:43.748194,-1
14:36:43.748194,-75
14:36:43.748194,-24577
14:36:43.748194,-1
14:36:43.748194,-107
14:36:43.748194,-26369
14:36:43.748194,-1
14:36:43.748194,-102
14:36:43.748194,-24577
14:36:43.748194,-1
14:36:43.748194,-90
14:36:43.748194,-22785
14:36:43.748194,-1
14:36:43.748194,-92
14:36:43.748194,-20225
14:36:43.748194,-1
14:36:43.748194,-70
14:36:43.748194,-18945
14:36:43.748194,-1
14:36:43.748194,-75
14:36:43.748194,-17153
14:36:43.748194,-1
14:36:43.748194,-65
14:36:44.333282,-65
14:36:44.333282,-15873
14:36:44.333282,-1
14:36:44.333282,-63
14:36:44.333282,-15873
14:36:44.333282,-1
14:36:44.333282,-51
14:36:44.333282,-10753
14:36:44.333282,-1
14:36:44.333282,-41
14:36:44.333282,-8961
14:36:44.333282,-1
14:36:44.333282,-31
14:36:44.333282,-8961
14:36:44.333282,-1
14:36:44.333282,-36
14:36:44.333282,-8449
14:36:44.333282,-1
14:36:44.333282,-34
14:36:44.333282,-10241
14:36:44.333282,-1
14:36:44.333282,-55
14:36:44.333282,-14593
14:36:44.333282,-1
14:36:44.333282,-60
14:36:44.333282,-16385
14:36:44.333282,-1
14:36:44.333282,-60
14:36:44.333282,-8961
14:36:44.333282,-1
14:36:44.333282,-7
14:36:44.333282,3327
14:36:44.333282,0
14:36:44.333282,-2
14:36:44.333282,-8449
14:36:44.333282,-1
14:36:44.333282,-38
14:36:44.333282,-4609
14:36:44.333282,-1
14:36:44.333282,-21
14:36:44.333282,-10241
14:36:44.333282,-1
14:36:44.333282,-72
14:36:44.333282,-32001
14:36:44.333282,-1
14:36:44.333282,-34
14:36:44.333282,3583
14:36:44.333282,2
14:36:44.333282,1299
14:36:44.333282,29696
14:36:44.333282,5
14:36:44.333282,727
14:36:44.333282,-24576
14:36:44.333282,0
14:36:44.333282,-12
14:36:44.333282,-30209
14:36:44.333282,-1
14:36:44.333282,-209
14:36:44.333282,14847
14:36:44.333282,-1
14:36:44.333282,-192
14:36:44.333282,11775
14:36:44.333282,-1
14:36:44.333282,-204
14:36:44.333282,17407
14:36:44.333282,-1
14:36:44.333282,-184
14:36:44.333282,19711
14:36:44.333282,-1
14:36:44.333282,-167
14:36:44.333282,25343
14:36:44.333282,-1
14:36:44.333282,-148
14:36:44.333282,30975
14:36:44.333282,-1
14:36:44.333282,-124
14:36:44.333282,-29441
14:36:44.333282,-1
14:36:44.333282,-104
14:36:44.333282,-23297
14:36:44.333282,-1
14:36:44.333282,-75
14:36:44.333282,-15105
14:36:44.333282,-1
14:36:44.333282,-48
14:36:44.333282,-8961
14:36:44.333282,-1
14:36:44.333282,-31
14:36:44.333282,-9473
14:36:44.333282,-1
14:36:44.333282,-58
14:36:44.333282,-22785
14:36:44.333282,-1
14:36:44.333282,-128
14:36:44.333282,26111
14:36:44.333282,-1
14:36:44.333282,-172
14:36:44.333282,18687
14:36:44.333282,-1
14:36:44.333282,-187
14:36:44.333282,19199
14:36:44.333282,-1
14:36:44.333282,-180
14:36:44.333282,20479
14:36:44.333282,-1
14:36:44.333282,-172
14:36:44.333282,22271
14:36:44.333282,-1
14:36:44.333282,-167
14:36:44.918250,-165
14:36:44.918250,25343
14:36:44.918250,-1
14:36:44.918250,-145
14:36:44.918250,29183
14:36:44.918250,-1
14:36:44.918250,-141
14:36:44.918250,30975
14:36:44.918250,-1
14:36:44.918250,-133
14:36:44.918250,32255
14:36:44.918250,-1
14:36:44.918250,-128
14:36:44.918250,-30721
14:36:44.918250,-1
14:36:44.918250,-109
14:36:44.918250,-25089
14:36:44.918250,-1
14:36:44.918250,-104
14:36:44.918250,-26369
14:36:44.918250,-1
14:36:44.918250,-99
14:36:44.918250,-24577
14:36:44.918250,-1
14:36:44.918250,-97
14:36:44.918250,-24577
14:36:44.918250,-1
14:36:44.918250,-102
14:36:44.918250,-28161
14:36:44.918250,-1
14:36:44.918250,-116
14:36:44.918250,-30209
14:36:44.918250,-1
14:36:44.918250,-124
14:36:44.918250,-30721
14:36:44.918250,-1
14:36:44.918250,-102
14:36:44.918250,-17153
14:36:44.918250,-1
14:36:44.918250,-41
14:36:44.918250,-9473
14:36:44.918250,-1
14:36:44.918250,-58
14:36:44.918250,-18945
14:36:44.918250,-1
14:36:44.918250,-68
14:36:44.918250,-15873
14:36:44.918250,-1
14:36:44.918250,-70
14:36:44.918250,-21505
14:36:44.918250,-1
14:36:44.918250,-128
14:36:44.918250,30975
14:36:44.918250,-1
14:36:44.918250,175
14:36:44.918250,-28672
14:36:44.918250,3
14:36:44.918250,1408
14:36:44.918250,3840
14:36:44.918250,4
14:36:44.918250,345
14:36:44.918250,9216
14:36:44.918250,0
14:36:44.918250,-60
14:36:44.918250,19199
14:36:44.918250,-1
14:36:44.918250,-218
14:36:44.918250,17407
14:36:44.918250,-1
14:36:44.918250,-197
14:36:44.918250,12287
14:36:44.918250,-1
14:36:44.918250,-192
14:36:44.918250,19711
14:36:44.918250,-1
14:36:44.918250,-172
14:36:44.918250,25343
14:36:44.918250,-1
14:36:44.918250,-143
14:36:44.918250,31743
14:36:44.918250,-1
14:36:44.918250,-119
14:36:44.918250,-26369
14:36:44.918250,-1
14:36:44.918250,-92
14:36:44.918250,-20225
14:36:44.918250,-1
14:36:44.918250,-68
14:36:44.918250,-13313
14:36:44.918250,-1
14:36:44.918250,-36
14:36:44.918250,-4609
14:36:44.918250,-1
14:36:44.918250,-7
14:36:44.918250,767
14:36:44.918250,0
14:36:44.918250,0
14:36:44.918250,-4864
14:36:44.918250,-1
14:36:44.918250,-38
14:36:44.918250,-13825
14:36:44.918250,-1
14:36:44.918250,-90
14:36:44.918250,-28161
14:36:44.918250,-1
14:36:44.918250,-116
14:36:44.918250,-31489
14:36:44.918250,-1
14:36:44.918250,-128
14:36:45.459837,-124
14:36:45.459837,-28929
14:36:45.459837,-1
14:36:45.459837,-104
14:36:45.459837,-25089
14:36:45.459837,-1
14:36:45.459837,-97
14:36:45.459837,-21505
14:36:45.459837,-1
14:36:45.459837,-80
14:36:45.459837,-18177
14:36:45.459837,-1
14:36:45.459837,-68
14:36:45.459837,-14593
14:36:45.459837,-1
14:36:45.459837,-51
14:36:45.459837,-12801
14:36:45.459837,-1
14:36:45.459837,-43
14:36:45.459837,-7169
14:36:45.459837,-1
14:36:45.459837,-21
14:36:45.459837,-4609
14:36:45.459837,-1
14:36:45.459837,-17
14:36:45.459837,-2817
14:36:45.459837,-1
14:36:45.459837,-7
14:36:45.459837,-769
14:36:45.459837,-1
14:36:45.459837,-2
14:36:45.459837,-257
14:36:45.459837,-1
14:36:45.459837,-2
14:36:45.459837,-1537
14:36:45.459837,-1
14:36:45.459837,-17
14:36:45.459837,-4609
14:36:45.459837,-1
14:36:45.459837,-21
14:36:45.459837,-7169
14:36:45.459837,-1
14:36:45.459837,-29
14:36:45.459837,-2049
14:36:45.459837,-1
14:36:45.459837,21
14:36:45.459837,12288
14:36:45.459837,0
14:36:45.459837,55
14:36:45.459837,8704
14:36:45.459837,0
14:36:45.459837,9
14:36:45.459837,3584
14:36:45.459837,0
14:36:45.459837,26
14:36:45.459837,5376
14:36:45.459837,0
14:36:45.459837,12
14:36:45.459837,-5376
14:36:45.459837,-1
14:36:45.459837,-43
14:36:45.459837,-16129
14:36:45.459837,0
14:36:45.459837,856
14:36:45.459837,32256
14:36:45.459837,5
14:36:45.459837,1133
14:36:45.459837,-14592
14:36:45.459837,1
14:36:45.459837,145
14:36:45.459837,17920
14:36:45.459837,0
14:36:45.459837,-58
14:36:45.459837,-30209
14:36:45.459837,-1
14:36:45.459837,-99
14:36:45.459837,-25857
14:36:45.459837,-1
14:36:45.459837,-107
14:36:45.459837,-22785
14:36:45.459837,-1
14:36:45.459837,-77
14:36:45.459837,-18945
14:36:45.459837,-1
14:36:45.459837,-63
14:36:45.459837,-11521
14:36:45.459837,-1
14:36:45.459837,-43
14:36:45.459837,-9473
14:36:45.459837,-1
14:36:45.459837,-21
14:36:45.459837,-769
14:36:45.459837,-1
14:36:45.459837,7
14:36:45.459837,5376
14:36:45.459837,0
14:36:45.459837,36
14:36:45.459837,12288
14:36:45.459837,0
14:36:45.459837,60
14:36:45.459837,18432
14:36:45.459837,0
14:36:45.459837,70
14:36:45.459837,17408
14:36:45.459837,0
14:36:45.459837,60
14:36:45.459837,10496
14:36:45.459837,0
14:36:45.459837,4
14:36:45.998115,-31
14:36:45.998115,-13313
14:36:45.998115,-1
14:36:45.998115,-63
14:36:45.998115,-18177
14:36:45.998115,-1
14:36:45.998115,-72
14:36:45.998115,-16385
14:36:45.998115,-1
14:36:45.998115,-63
14:36:45.998115,-15105
14:36:45.998115,-1
14:36:45.998115,-55
14:36:45.998115,-11521
14:36:45.998115,-1
14:36:45.998115,-29
14:36:45.998115,-4097
14:36:45.998115,-1
14:36:45.998115,-19
14:36:45.998115,-4609
14:36:45.998115,-1
14:36:45.998115,-9
14:36:45.998115,-769
14:36:45.998115,-1
14:36:45.998115,-7
14:36:45.998115,-769
14:36:45.998115,-1
14:36:45.998115,0
14:36:45.998115,0
14:36:45.998115,0
14:36:45.998115,0
14:36:45.998115,512
14:36:45.998115,0
14:36:45.998115,2
14:36:45.998115,512
14:36:45.998115,0
14:36:45.998115,4
14:36:45.998115,512
14:36:45.998115,0
14:36:45.998115,-2
14:36:45.998115,-257
14:36:45.998115,-1
14:36:45.998115,0
14:36:45.998115,-1792
14:36:45.998115,-1
14:36:45.998115,-17
14:36:45.998115,-5889
14:36:45.998115,-1
14:36:45.998115,-31
14:36:45.998115,-8449
14:36:45.998115,-1
14:36:45.998115,-19
14:36:45.998115,2047
14:36:45.998115,0
14:36:45.998115,34
14:36:45.998115,12288
14:36:45.998115,0
14:36:45.998115,34
14:36:45.998115,2304
14:36:45.998115,0
14:36:45.998115,12
14:36:45.998115,5376
14:36:45.998115,0
14:36:45.998115,17
14:36:45.998115,512
14:36:45.998115,0
14:36:45.998115,-29
14:36:45.998115,-18177
14:36:45.998115,-1
14:36:45.998115,97
14:36:45.998115,-6144
14:36:45.998115,2
14:36:45.998115,1447
14:36:45.998115,20480
14:36:45.998115,5
14:36:45.998115,652
14:36:45.998115,-18432
14:36:45.998115,0
14:36:45.998115,48
14:36:45.998115,-19200
14:36:45.998115,-1
14:36:45.998115,-150
14:36:45.998115,30463
14:36:45.998115,-1
14:36:45.998115,-138
14:36:45.998115,26623
14:36:45.998115,-1
14:36:45.998115,-138
14:36:45.998115,-31489
14:36:45.998115,-1
14:36:45.998115,-124
14:36:45.998115,-28929
14:36:45.998115,-1
14:36:45.998115,-97
14:36:45.998115,-22017
14:36:45.998115,-1
14:36:45.998115,-80
14:36:45.998115,-17153
14:36:45.998115,-1
14:36:45.998115,-58
14:36:45.998115,-11521
14:36:45.998115,-1
14:36:45.998115,-36
14:36:45.998115,-4609
14:36:45.998115,-1
14:36:45.998115,-2
14:36:45.998115,2047
14:36:45.998115,0
14:36:45.998115,17
14:36:46.539141,19
14:36:46.539141,5376
14:36:46.539141,0
14:36:46.539141,21
14:36:46.539141,1792
14:36:46.539141,0
14:36:46.539141,-21
14:36:46.539141,-13313
14:36:46.539141,-1
14:36:46.539141,-77
14:36:46.539141,-21505
14:36:46.539141,-1
14:36:46.539141,-77
14:36:46.539141,-19457
14:36:46.539141,-1
14:36:46.539141,-80
14:36:46.539141,-18945
14:36:46.539141,-1
14:36:46.539141,-70
14:36:46.539141,-17665
14:36:46.539141,-1
14:36:46.539141,-68
14:36:46.539141,-15105
14:36:46.539141,-1
14:36:46.539141,-55
14:36:46.539141,-12801
14:36:46.539141,-1
14:36:46.539141,-48
14:36:46.539141,-11521
14:36:46.539141,-1
14:36:46.539141,-41
14:36:46.539141,-9473
14:36:46.539141,-1
14:36:46.539141,-34
14:36:46.539141,-7681
14:36:46.539141,-1
14:36:46.539141,-31
14:36:46.539141,-7681
14:36:46.539141,-1
14:36:46.539141,-26
14:36:46.539141,-6401
14:36:46.539141,-1
14:36:46.539141,-21
14:36:46.539141,-4609
14:36:46.539141,-1
14:36:46.539141,-19
14:36:46.539141,-4609
14:36:46.539141,-1
14:36:46.539141,-17
14:36:46.539141,-3329
14:36:46.539141,-1
14:36:46.539141,-19
14:36:46.539141,-5889
14:36:46.539141,-1
14:36:46.539141,-29
14:36:46.539141,-8961
14:36:46.539141,-1
14:36:46.539141,-43
14:36:46.539141,-12033
14:36:46.539141,-1
14:36:46.539141,-43
14:36:46.539141,-5121
14:36:46.539141,-1
14:36:46.539141,2
14:36:46.539141,6656
14:36:46.539141,0
14:36:46.539141,38
14:36:46.539141,3584
14:36:46.539141,0
14:36:46.539141,-7
14:36:46.539141,767
14:36:46.539141,0
14:36:46.539141,12
14:36:46.539141,2304
14:36:46.539141,0
14:36:46.539141,-2
14:36:46.539141,-10241
14:36:46.539141,-1
14:36:46.539141,-70
14:36:46.539141,-23041
14:36:46.539141,0
14:36:46.539141,880
14:36:46.539141,-7680
14:36:46.539141,5
14:36:46.539141,1262
14:36:46.539141,6400
14:36:46.539141,2
14:36:46.539141,138
14:36:46.539141,6144
14:36:46.539141,0
14:36:46.539141,-102
14:36:46.539141,24063
14:36:46.539141,-1
14:36:46.539141,-136
14:36:46.539141,29183
14:36:46.539141,-1
14:36:46.539141,-158
14:36:46.539141,31743
14:36:46.539141,-1
14:36:46.539141,-119
14:36:46.539141,-30721
14:36:46.539141,-1
14:36:46.539141,-104
14:36:46.539141,-22017
14:36:46.539141,-1
14:36:46.539141,-82
14:36:46.539141,-18945
14:36:46.539141,-1
14:36:46.539141,-58
14:36:47.123196,-43
14:36:47.123196,-7169
14:36:47.123196,-1
14:36:47.123196,-12
14:36:47.123196,767
14:36:47.123196,0
14:36:47.123196,21
14:36:47.123196,8704
14:36:47.123196,0
14:36:47.123196,48
14:36:47.123196,16128
14:36:47.123196,0
14:36:47.123196,60
14:36:47.123196,12288
14:36:47.123196,0
14:36:47.123196,34
14:36:47.123196,1792
14:36:47.123196,0
14:36:47.123196,-31
14:36:47.123196,-15873
14:36:47.123196,-1
14:36:47.123196,-75
14:36:47.123196,-18177
14:36:47.123196,-1
14:36:47.123196,-70
14:36:47.123196,-16385
14:36:47.123196,-1
14:36:47.123196,-65
14:36:47.123196,-17153
14:36:47.123196,-1
14:36:47.123196,-60
14:36:47.123196,-13313
14:36:47.123196,-1
14:36:47.123196,-48
14:36:47.123196,-10241
14:36:47.123196,-1
14:36:47.123196,-38
14:36:47.123196,-9473
14:36:47.123196,-1
14:36:47.123196,-38
14:36:47.123196,-7681
14:36:47.123196,-1
14:36:47.123196,-21
14:36:47.123196,-4097
14:36:47.123196,-1
14:36:47.123196,-17
14:36:47.123196,-3329
14:36:47.123196,-1
14:36:47.123196,-12
14:36:47.123196,-2049
14:36:47.123196,-1
14:36:47.123196,-14
14:36:47.123196,-2049
14:36:47.123196,-1
14:36:47.123196,0
14:36:47.123196,0
14:36:47.123196,0
14:36:47.123196,0
14:36:47.123196,512
14:36:47.123196,0
14:36:47.123196,4
14:36:47.123196,0
14:36:47.123196,0
14:36:47.123196,-12
14:36:47.123196,-4609
14:36:47.123196,-1
14:36:47.123196,-17
14:36:47.123196,-4097
14:36:47.123196,-1
14:36:47.123196,-9
14:36:47.123196,2047
14:36:47.123196,0
14:36:47.123196,29
14:36:47.123196,13568
14:36:47.123196,0
14:36:47.123196,51
14:36:47.123196,6656
14:36:47.123196,0
14:36:47.123196,24
14:36:47.123196,7936
14:36:47.123196,0
14:36:47.123196,26
14:36:47.123196,3584
14:36:47.123196,0
14:36:47.123196,2
14:36:47.123196,-10496
14:36:47.123196,-1
14:36:47.123196,2
14:36:47.123196,-20224
14:36:47.123196,1
14:36:47.123196,1155
14:36:47.123196,27904
14:36:47.123196,5
14:36:47.123196,834
14:36:47.123196,2816
14:36:47.123196,1
14:36:47.123196,104
14:36:47.123196,2304
14:36:47.123196,0
14:36:47.123196,-111
14:36:47.123196,-32001
14:36:47.123196,-1
14:36:47.123196,-104
14:36:47.123196,-28929
14:36:47.123196,-1
14:36:47.123196,-111
14:36:47.123196,-24577
14:36:47.123196,-1
14:36:47.123196,-94
14:36:47.709122,-92
14:36:47.709122,-20225
14:36:47.709122,-1
14:36:47.709122,-70
14:36:47.709122,-14593
14:36:47.709122,-1
14:36:47.709122,-48
14:36:47.709122,-9473
14:36:47.709122,-1
14:36:47.709122,-26
14:36:47.709122,-2049
14:36:47.709122,-1
14:36:47.709122,14
14:36:47.709122,9216
14:36:47.709122,0
14:36:47.709122,43
14:36:47.709122,11776
14:36:47.709122,0
14:36:47.709122,55
14:36:47.709122,14848
14:36:47.709122,0
14:36:47.709122,48
14:36:47.709122,7936
14:36:47.709122,0
14:36:47.709122,0
14:36:47.709122,-9728
14:36:47.709122,-1
14:36:47.709122,-72
14:36:47.709122,-22785
14:36:47.709122,-1
14:36:47.709122,-94
14:36:47.709122,-24577
14:36:47.709122,-1
14:36:47.709122,-97
14:36:47.709122,-23297
14:36:47.709122,-1
14:36:47.709122,-87
14:36:47.709122,-21505
14:36:47.709122,-1
14:36:47.709122,-82
14:36:47.709122,-19457
14:36:47.709122,-1
14:36:47.709122,-70
14:36:47.709122,-17153
14:36:47.709122,-1
14:36:47.709122,-68
14:36:47.709122,-16385
14:36:47.709122,-1
14:36:47.709122,-60
14:36:47.709122,-13313
14:36:47.709122,-1
14:36:47.709122,-48
14:36:47.709122,-11521
14:36:47.709122,-1
14:36:47.709122,-38
14:36:47.709122,-9473
14:36:47.709122,-1
14:36:47.709122,-36
14:36:47.709122,-8449
14:36:47.709122,-1
14:36:47.709122,-34
14:36:47.709122,-8449
14:36:47.709122,-1
14:36:47.709122,-34
14:36:47.709122,-7169
14:36:47.709122,-1
14:36:47.709122,-26
14:36:47.709122,-7169
14:36:47.709122,-1
14:36:47.709122,-29
14:36:47.709122,-7169
14:36:47.709122,-1
14:36:47.709122,-31
14:36:47.709122,-10241
14:36:47.709122,-1
14:36:47.709122,-48
14:36:47.709122,-13313
14:36:47.709122,-1
14:36:47.709122,-60
14:36:47.709122,-12801
14:36:47.709122,-1
14:36:47.709122,-21
14:36:47.709122,1279
14:36:47.709122,0
14:36:47.709122,26
14:36:47.709122,7936
14:36:47.709122,0
14:36:47.709122,4
14:36:47.709122,-1792
14:36:47.709122,-1
14:36:47.709122,2
14:36:47.709122,1024
14:36:47.709122,0
14:36:47.709122,0
14:36:47.709122,-4864
14:36:47.709122,-1
14:36:47.709122,-68
14:36:47.709122,-7169
14:36:47.709122,-1
14:36:47.709122,425
14:36:47.709122,-13824
14:36:47.709122,4
14:36:47.709122,1518
14:36:47.709122,-19456
14:36:47.709122,3
14:36:47.709122,304
14:36:47.709122,18432
14:36:47.709122,0
14:36:47.709122,-31
14:36:48.248268,-148
14:36:48.248268,24831
14:36:48.248268,-1
14:36:48.248268,-141
14:36:48.248268,24831
14:36:48.248268,-1
14:36:48.248268,-160
14:36:48.248268,31743
14:36:48.248268,-1
14:36:48.248268,-126
14:36:48.248268,-31489
14:36:48.248268,-1
14:36:48.248268,-109
14:36:48.248268,-24577
14:36:48.248268,-1
14:36:48.248268,-90
14:36:48.248268,-18945
14:36:48.248268,-1
14:36:48.248268,-51
14:36:48.248268,-10241
14:36:48.248268,-1
14:36:48.248268,-31
14:36:48.248268,-2817
14:36:48.248268,-1
14:36:48.248268,0
14:36:48.248268,3584
14:36:48.248268,0
14:36:48.248268,31
14:36:48.248268,11776
14:36:48.248268,0
14:36:48.248268,51
14:36:48.248268,9216
14:36:48.248268,0
14:36:48.248268,17
14:36:48.248268,-512
14:36:48.248268,-1
14:36:48.248268,-38
14:36:48.248268,-20225
14:36:48.248268,-1
14:36:48.248268,-97
14:36:48.248268,-24577
14:36:48.248268,-1
14:36:48.248268,-102
14:36:48.248268,-25857
14:36:48.248268,-1
14:36:48.248268,-97
14:36:48.248268,-25857
14:36:48.248268,-1
14:36:48.248268,-92
14:36:48.248268,-17665
14:36:48.248268,-1
14:36:48.248268,-70
14:36:48.248268,-18945
14:36:48.248268,-1
14:36:48.248268,-70
14:36:48.248268,-15105
14:36:48.248268,-1
14:36:48.248268,-58
14:36:48.248268,-14593
14:36:48.248268,-1
14:36:48.248268,-55
14:36:48.248268,-12801
14:36:48.248268,-1
14:36:48.248268,-46
14:36:48.248268,-10241
14:36:48.248268,-1
14:36:48.248268,-41
14:36:48.248268,-10241
14:36:48.248268,-1
14:36:48.248268,-31
14:36:48.248268,-7169
14:36:48.248268,-1
14:36:48.248268,-26
14:36:48.248268,-6401
14:36:48.248268,-1
14:36:48.248268,-24
14:36:48.248268,-5121
14:36:48.248268,-1
14:36:48.248268,-19
14:36:48.248268,-4097
14:36:48.248268,-1
14:36:48.248268,-17
14:36:48.248268,-4609
14:36:48.248268,-1
14:36:48.248268,-14
14:36:48.248268,-4097
14:36:48.248268,-1
14:36:48.248268,-24
14:36:48.248268,-7681
14:36:48.248268,-1
14:36:48.248268,-36
14:36:48.248268,-10241
14:36:48.248268,-1
14:36:48.248268,-41
14:36:48.248268,-5889
14:36:48.248268,-1
14:36:48.248268,7
14:36:48.248268,7936
14:36:48.248268,0
14:36:48.248268,41
14:36:48.248268,6144
14:36:48.248268,0
14:36:48.248268,2
14:36:48.248268,1792
14:36:48.248268,0
14:36:48.248268,17
14:36:48.248268,2304
14:36:48.248268,0
14:36:48.248268,-2
14:36:48.833168,-36
14:36:48.833168,-15105
14:36:48.833168,-1
14:36:48.833168,177
14:36:48.833168,29952
14:36:48.833168,3
14:36:48.833168,1494
14:36:48.833168,-8192
14:36:48.833168,4
14:36:48.833168,537
14:36:48.833168,-27648
14:36:48.833168,0
14:36:48.833168,29
14:36:48.833168,-21760
14:36:48.833168,-1
14:36:48.833168,-136
14:36:48.833168,-31489
14:36:48.833168,-1
14:36:48.833168,-131
14:36:48.833168,29183
14:36:48.833168,-1
14:36:48.833168,-124
14:36:48.833168,-28161
14:36:48.833168,-1
14:36:48.833168,-111
14:36:48.833168,-24577
14:36:48.833168,-1
14:36:48.833168,-82
14:36:48.833168,-18945
14:36:48.833168,-1
14:36:48.833168,-63
14:36:48.833168,-12801
14:36:48.833168,-1
14:36:48.833168,-43
14:36:48.833168,-8449
14:36:48.833168,-1
14:36:48.833168,-19
14:36:48.833168,767
14:36:48.833168,0
14:36:48.833168,17
14:36:48.833168,7424
14:36:48.833168,0
14:36:48.833168,43
14:36:48.833168,13568
14:36:48.833168,0
14:36:48.833168,51
14:36:48.833168,9216
14:36:48.833168,0
14:36:48.833168,14
14:36:48.833168,-4352
14:36:48.833168,-1
14:36:48.833168,-58
14:36:48.833168,-22017
14:36:48.833168,-1
14:36:48.833168,-102
14:36:48.833168,-27649
14:36:48.833168,-1
14:36:48.833168,-109
14:36:48.833168,-25857
14:36:48.833168,-1
14:36:48.833168,-90
14:36:48.833168,-22017
14:36:48.833168,-1
14:36:48.833168,-85
14:36:48.833168,-19457
14:36:48.833168,-1
14:36:48.833168,-75
14:36:48.833168,-18945
14:36:48.833168,-1
14:36:48.833168,-68
14:36:48.833168,-16385
14:36:48.833168,-1
14:36:48.833168,-65
14:36:48.833168,-14593
14:36:48.833168,-1
14:36:48.833168,-51
14:36:48.833168,-12033
14:36:48.833168,-1
14:36:48.833168,-48
14:36:48.833168,-10753
14:36:48.833168,-1
14:36:48.833168,-41
14:36:48.833168,-10241
14:36:48.833168,-1
14:36:48.833168,-36
14:36:48.833168,-8449
14:36:48.833168,-1
14:36:48.833168,-34
14:36:48.833168,-7169
14:36:48.833168,-1
14:36:48.833168,-26
14:36:48.833168,-5889
14:36:48.833168,-1
14:36:48.833168,-19
14:36:48.833168,-4609
14:36:48.833168,-1
14:36:48.833168,-21
14:36:48.833168,-4097
14:36:48.833168,-1
14:36:48.833168,-12
14:36:48.833168,-2049
14:36:48.833168,-1
14:36:48.833168,-14
14:36:48.833168,-3329
14:36:48.833168,-1
14:36:48.833168,-12
14:36:48.833168,-1537
14:36:48.833168,-1
14:36:48.833168,-12
14:36:49.373668,-21
14:36:49.373668,-7169
14:36:49.373668,-1
14:36:49.373668,-31
14:36:49.373668,-9473
14:36:49.373668,-1
14:36:49.373668,-48
14:36:49.373668,-10241
14:36:49.373668,-1
14:36:49.373668,-17
14:36:49.373668,2047
14:36:49.373668,0
14:36:49.373668,29
14:36:49.373668,7424
14:36:49.373668,0
14:36:49.373668,-2
14:36:49.373668,-1537
14:36:49.373668,-1
14:36:49.373668,21
14:36:49.373668,7936
14:36:49.373668,0
14:36:49.373668,17
14:36:49.373668,-1024
14:36:49.373668,-1
14:36:49.373668,-43
14:36:49.373668,13823
14:36:49.373668,0
14:36:49.373668,581
14:36:49.373668,10496
14:36:49.373668,5
14:36:49.373668,1430
14:36:49.373668,7680
14:36:49.373668,3
14:36:49.373668,248
14:36:49.373668,17920
14:36:49.373668,0
14:36:49.373668,-43
14:36:49.373668,32255
14:36:49.373668,-1
14:36:49.373668,-128
14:36:49.373668,-28929
14:36:49.373668,-1
14:36:49.373668,-133
14:36:49.373668,-32513
14:36:49.373668,-1
14:36:49.373668,-107
14:36:49.373668,-26369
14:36:49.373668,-1
14:36:49.373668,-102
14:36:49.373668,-21505
14:36:49.373668,-1
14:36:49.373668,-75
14:36:49.373668,-16385
14:36:49.373668,-1
14:36:49.373668,-48
14:36:49.373668,-8961
14:36:49.373668,-1
14:36:49.373668,-26
14:36:49.373668,-3329
14:36:49.373668,-1
14:36:49.373668,0
14:36:49.373668,4352
14:36:49.373668,0
14:36:49.373668,34
14:36:49.373668,13056
14:36:49.373668,0
14:36:49.373668,60
14:36:49.373668,16128
14:36:49.373668,0
14:36:49.373668,58
14:36:49.373668,12288
14:36:49.373668,0
14:36:49.373668,21
14:36:49.373668,-5376
14:36:49.373668,-1
14:36:49.373668,-65
14:36:49.373668,-20225
14:36:49.373668,-1
14:36:49.373668,-80
14:36:49.373668,-21505
14:36:49.373668,-1
14:36:49.373668,-90
14:36:49.373668,-21505
14:36:49.373668,-1
14:36:49.373668,-77
14:36:49.373668,-18945
14:36:49.373668,-1
14:36:49.373668,-70
14:36:49.373668,-16385
14:36:49.373668,-1
14:36:49.373668,-63
14:36:49.373668,-16385
14:36:49.373668,-1
14:36:49.373668,-70
14:36:49.373668,-15105
14:36:49.373668,-1
14:36:49.373668,-46
14:36:49.373668,-9473
14:36:49.373668,-1
14:36:49.373668,-41
14:36:49.373668,-10753
14:36:49.373668,-1
14:36:49.373668,-38
14:36:49.373668,-7169
14:36:49.373668,-1
14:36:49.373668,-26
14:36:49.373668,-5889
14:36:49.373668,-1
14:36:49.373668,-19
14:36:49.913194,-14
14:36:49.913194,-2817
14:36:49.913194,-1
14:36:49.913194,-9
14:36:49.913194,-1537
14:36:49.913194,-1
14:36:49.913194,-4
14:36:49.913194,-1537
14:36:49.913194,-1
14:36:49.913194,-2
14:36:49.913194,255
14:36:49.913194,0
14:36:49.913194,0
14:36:49.913194,3584
14:36:49.913194,0
14:36:49.913194,26
14:36:49.913194,4864
14:36:49.913194,0
14:36:49.913194,14
14:36:49.913194,4864
14:36:49.913194,0
14:36:49.913194,21
14:36:49.913194,3584
14:36:49.913194,0
14:36:49.913194,2
14:36:49.913194,-1792
14:36:49.913194,-1
14:36:49.913194,-7
14:36:49.913194,-2817
14:36:49.913194,-1
14:36:49.913194,-19
14:36:49.913194,-2049
14:36:49.913194,-1
14:36:49.913194,17
14:36:49.913194,11776
14:36:49.913194,0
14:36:49.913194,58
14:36:49.913194,9728
14:36:49.913194,0
14:36:49.913194,21
14:36:49.913194,7424
14:36:49.913194,0
14:36:49.913194,38
14:36:49.913194,7936
14:36:49.913194,0
14:36:49.913194,17
14:36:49.913194,-5376
14:36:49.913194,-1
14:36:49.913194,-26
14:36:49.913194,-1793
14:36:49.913194,0
14:36:49.913194,922
14:36:49.913194,28416
14:36:49.913194,5
14:36:49.913194,1039
14:36:49.913194,-30208
14:36:49.913194,1
14:36:49.913194,141
14:36:49.913194,15360
14:36:49.913194,0
14:36:49.913194,-70
14:36:49.913194,-30209
14:36:49.913194,-1
14:36:49.913194,-99
14:36:49.913194,-27649
14:36:49.913194,-1
14:36:49.913194,-116
14:36:49.913194,-25089
14:36:49.913194,-1
14:36:49.913194,-94
14:36:49.913194,-23297
14:36:49.913194,-1
14:36:49.913194,-82
14:36:49.913194,-18177
14:36:49.913194,-1
14:36:49.913194,-60
14:36:49.913194,-11521
14:36:49.913194,-1
14:36:49.913194,-41
14:36:49.913194,-8449
14:36:49.913194,-1
14:36:49.913194,-19
14:36:49.913194,-257
14:36:49.913194,-1
14:36:49.913194,14
14:36:49.913194,7424
14:36:49.913194,0
14:36:49.913194,41
14:36:49.913194,13568
14:36:49.913194,0
14:36:49.913194,58
14:36:49.913194,14848
14:36:49.913194,0
14:36:49.913194,46
14:36:49.913194,4864
14:36:49.913194,0
14:36:49.913194,-19
14:36:49.913194,-14593
14:36:49.913194,-1
14:36:49.913194,-85
14:36:49.913194,-25089
14:36:49.913194,-1
14:36:49.913194,-107
14:36:49.913194,-27649
14:36:49.913194,-1
14:36:49.913194,-104
14:36:49.913194,-25089
14:36:49.913194,-1
14:36:49.913194,-94
14:36:50.453196,-92
14:36:50.453196,-22785
14:36:50.453196,-1
14:36:50.453196,-87
14:36:50.453196,-20737
14:36:50.453196,-1
14:36:50.453196,-75
14:36:50.453196,-18177
14:36:50.453196,-1
14:36:50.453196,-60
14:36:50.453196,-12033
14:36:50.453196,-1
14:36:50.453196,-46
14:36:50.453196,-10753
14:36:50.453196,-1
14:36:50.453196,-38
14:36:50.453196,-8961
14:36:50.453196,-1
14:36:50.453196,-36
14:36:50.453196,-9473
14:36:50.453196,-1
14:36:50.453196,-38
14:36:50.453196,-8449
14:36:50.453196,-1
14:36:50.453196,-29
14:36:50.453196,-5121
14:36:50.453196,-1
14:36:50.453196,-21
14:36:50.453196,-6401
14:36:50.453196,-1
14:36:50.453196,-29
14:36:50.453196,-5121
14:36:50.453196,-1
14:36:50.453196,-21
14:36:50.453196,-5121
14:36:50.453196,-1
14:36:50.453196,-19
14:36:50.453196,-4097
14:36:50.453196,-1
14:36:50.453196,-19
14:36:50.453196,-4609
14:36:50.453196,-1
14:36:50.453196,-17
14:36:50.453196,-4097
14:36:50.453196,-1
14:36:50.453196,-17
14:36:50.453196,-4609
14:36:50.453196,-1
14:36:50.453196,-19
14:36:50.453196,-5889
14:36:50.453196,-1
14:36:50.453196,-36
14:36:50.453196,-10753
14:36:50.453196,-1
14:36:50.453196,-46
14:36:50.453196,-12033
14:36:50.453196,-1
14:36:50.453196,-53
14:36:50.453196,-10753
14:36:50.453196,-1
14:36:50.453196,-21
14:36:50.453196,767
14:36:50.453196,0
14:36:50.453196,17
14:36:50.453196,1024
14:36:50.453196,0
14:36:50.453196,-17
14:36:50.453196,-2817
14:36:50.453196,-1
14:36:50.453196,0
14:36:50.453196,-1024
14:36:50.453196,-1
14:36:50.453196,-19
14:36:50.453196,-13825
14:36:50.453196,-1
14:36:50.453196,-85
14:36:50.453196,-28673
14:36:50.453196,0
14:36:50.453196,841
14:36:50.453196,-14592
14:36:50.453196,5
14:36:50.453196,1270
14:36:50.453196,11520
14:36:50.453196,2
14:36:50.453196,143
14:36:50.453196,2304
14:36:50.453196,0
14:36:50.453196,-109
14:36:50.453196,23551
14:36:50.453196,-1
14:36:50.453196,-148
14:36:50.453196,27391
14:36:50.453196,-1
14:36:50.453196,-163
14:36:50.453196,27903
14:36:50.453196,-1
14:36:50.453196,-136
14:36:50.453196,31743
14:36:50.453196,-1
14:36:50.453196,-121
14:36:50.453196,-28161
14:36:50.453196,-1
14:36:50.453196,-107
14:36:50.453196,-24577
14:36:50.453196,-1
14:36:50.453196,-85
14:36:50.453196,-17153
14:36:50.453196,-1
14:36:50.453196,-58
14:36:51.084537,-46
14:36:51.084537,-5889
14:36:51.084537,-1
14:36:51.084537,-7
14:36:51.084537,3839
14:36:51.084537,0
14:36:51.084537,43
14:36:51.084537,13568
14:36:51.084537,0
14:36:51.084537,51
14:36:51.084537,12288
14:36:51.084537,0
14:36:51.084537,34
14:36:51.084537,0
14:36:51.084537,0
14:36:51.084537,-38
14:36:51.084537,-17665
14:36:51.084537,-1
14:36:51.084537,-90
14:36:51.084537,-25089
14:36:51.084537,-1
14:36:51.084537,-97
14:36:51.084537,-22785
14:36:51.084537,-1
14:36:51.084537,-92
14:36:51.084537,-22785
14:36:51.084537,-1
14:36:51.084537,-87
14:36:51.084537,-20737
14:36:51.084537,-1
14:36:51.084537,-80
14:36:51.084537,-18945
14:36:51.084537,-1
14:36:51.084537,-72
14:36:51.084537,-18177
14:36:51.084537,-1
14:36:51.084537,-68
14:36:51.084537,-15873
14:36:51.084537,-1
14:36:51.084537,-63
14:36:51.084537,-14593
14:36:51.084537,-1
14:36:51.084537,-55
14:36:51.084537,-13313
14:36:51.084537,-1
14:36:51.084537,-46
14:36:51.084537,-11521
14:36:51.084537,-1
14:36:51.084537,-43
14:36:51.084537,-9473
14:36:51.084537,-1
14:36:51.084537,-36
14:36:51.084537,-8961
14:36:51.084537,-1
14:36:51.084537,-34
14:36:51.084537,-7681
14:36:51.084537,-1
14:36:51.084537,-29
14:36:51.084537,-7169
14:36:51.084537,-1
14:36:51.084537,-26
14:36:51.084537,-6401
14:36:51.084537,-1
14:36:51.084537,-26
14:36:51.084537,-5889
14:36:51.084537,-1
14:36:51.084537,-21
14:36:51.084537,-4609
14:36:51.084537,-1
14:36:51.084537,-17
14:36:51.084537,-4097
14:36:51.084537,-1
14:36:51.084537,-19
14:36:51.084537,-4609
14:36:51.084537,-1
14:36:51.084537,-17
14:36:51.084537,-3329
14:36:51.084537,-1
14:36:51.084537,-17
14:36:51.084537,-4097
14:36:51.084537,-1
14:36:51.084537,-14
14:36:51.084537,-4097
14:36:51.084537,-1
14:36:51.084537,-17
14:36:51.084537,-4097
14:36:51.084537,-1
14:36:51.084537,-17
14:36:51.084537,-5889
14:36:51.084537,-1
14:36:51.084537,-34
14:36:51.084537,-10241
14:36:51.084537,-1
14:36:51.084537,-43
14:36:51.084537,-12033
14:36:51.084537,-1
14:36:51.084537,-36
14:36:51.084537,-4097
14:36:51.084537,-1
14:36:51.084537,4
14:36:51.084537,6144
14:36:51.084537,0
14:36:51.084537,19
14:36:51.084537,-512
14:36:51.084537,-1
14:36:51.084537,-2
14:36:51.084537,2047
14:36:51.084537,0
14:36:51.084537,4
14:36:51.624250,-4
14:36:51.624250,-7681
14:36:51.624250,-1
14:36:51.624250,-63
14:36:51.624250,27647
14:36:51.624250,0
14:36:51.624250,737
14:36:51.624250,-29440
14:36:51.624250,5
14:36:51.624250,1348
14:36:51.624250,-27392
14:36:51.624250,2
14:36:51.624250,182
14:36:51.624250,7936
14:36:51.624250,0
14:36:51.624250,-80
14:36:51.624250,26623
14:36:51.624250,-1
14:36:51.624250,-136
14:36:51.624250,-30721
14:36:51.624250,-1
14:36:51.624250,-128
14:36:51.624250,-31489
14:36:51.624250,-1
14:36:51.624250,-109
14:36:51.624250,-26369
14:36:51.624250,-1
14:36:51.624250,-97
14:36:51.624250,-21505
14:36:51.624250,-1
14:36:51.624250,-77
14:36:51.624250,-17665
14:36:51.624250,-1
14:36:51.624250,-60
14:36:51.624250,-12033
14:36:51.624250,-1
14:36:51.624250,-34
14:36:51.624250,-4097
14:36:51.624250,-1
14:36:51.624250,-4
14:36:51.624250,3327
14:36:51.624250,0
14:36:51.624250,24
14:36:51.624250,10496
14:36:51.624250,0
14:36:51.624250,55
14:36:51.624250,16128
14:36:51.624250,0
14:36:51.624250,60
14:36:51.624250,12288
14:36:51.624250,0
14:36:51.624250,19
14:36:51.624250,-4864
14:36:51.624250,-1
14:36:51.624250,-58
14:36:51.624250,-20225
14:36:51.624250,-1
14:36:51.624250,-90
14:36:51.624250,-23809
14:36:51.624250,-1
14:36:51.624250,-99
14:36:51.624250,-23809
14:36:51.624250,-1
14:36:51.624250,-90
14:36:51.624250,-22017
14:36:51.624250,-1
14:36:51.624250,-82
14:36:51.624250,-20225
14:36:51.624250,-1
14:36:51.624250,-77
14:36:51.624250,-18945
14:36:51.624250,-1
14:36:51.624250,-68
14:36:51.624250,-17153
14:36:51.624250,-1
14:36:51.624250,-65
14:36:51.624250,-15105
14:36:51.624250,-1
14:36:51.624250,-60
14:36:51.624250,-13825
14:36:51.624250,-1
14:36:51.624250,-51
14:36:51.624250,-10241
14:36:51.624250,-1
14:36:51.624250,-36
14:36:51.624250,-9473
14:36:51.624250,-1
14:36:51.624250,-36
14:36:51.624250,-7681
14:36:51.624250,-1
14:36:51.624250,-29
14:36:51.624250,-6401
14:36:51.624250,-1
14:36:51.624250,-21
14:36:51.624250,-5889
14:36:51.624250,-1
14:36:51.624250,-24
14:36:51.624250,-4609
14:36:51.624250,-1
14:36:51.624250,-12
14:36:51.624250,-1537
14:36:51.624250,-1
14:36:51.624250,-2
14:36:51.624250,255
14:36:51.624250,0
14:36:51.624250,-2
14:36:51.624250,-257
14:36:51.624250,-1
14:36:51.624250,0
14:36:52.163281,4
14:36:52.163281,1792
14:36:52.163281,0
14:36:52.163281,2
14:36:52.163281,512
14:36:52.163281,0
14:36:52.163281,4
14:36:52.163281,1024
14:36:52.163281,0
14:36:52.163281,0
14:36:52.163281,0
14:36:52.163281,0
14:36:52.163281,2
14:36:52.163281,2304
14:36:52.163281,0
14:36:52.163281,19
14:36:52.163281,6144
14:36:52.163281,0
14:36:52.163281,19
14:36:52.163281,4352
14:36:52.163281,0
14:36:52.163281,17
14:36:52.163281,3072
14:36:52.163281,0
14:36:52.163281,4
14:36:52.163281,-512
14:36:52.163281,-1
14:36:52.163281,-7
14:36:52.163281,-2817
14:36:52.163281,-1
14:36:52.163281,-7
14:36:52.163281,3839
14:36:52.163281,0
14:36:52.163281,38
14:36:52.163281,13568
14:36:52.163281,0
14:36:52.163281,58
14:36:52.163281,10496
14:36:52.163281,0
14:36:52.163281,26
14:36:52.163281,9216
14:36:52.163281,0
14:36:52.163281,38
14:36:52.163281,6656
14:36:52.163281,0
14:36:52.163281,7
14:36:52.163281,-6656
14:36:52.163281,-1
14:36:52.163281,63
14:36:52.163281,10240
14:36:52.163281,2
14:36:52.163281,1262
14:36:52.163281,28416
14:36:52.163281,5
14:36:52.163281,793
14:36:52.163281,256
14:36:52.163281,1
14:36:52.163281,90
14:36:52.163281,-4864
14:36:52.163281,-1
14:36:52.163281,-119
14:36:52.163281,-29441
14:36:52.163281,-1
14:36:52.163281,-99
14:36:52.163281,-28929
14:36:52.163281,-1
14:36:52.163281,-111
14:36:52.163281,-23297
14:36:52.163281,-1
14:36:52.163281,-92
14:36:52.163281,-23297
14:36:52.163281,-1
14:36:52.163281,-77
14:36:52.163281,-17153
14:36:52.163281,-1
14:36:52.163281,-58
14:36:52.163281,-12033
14:36:52.163281,-1
14:36:52.163281,-38
14:36:52.163281,-7169
14:36:52.163281,-1
14:36:52.163281,-19
14:36:52.163281,-257
14:36:52.163281,-1
14:36:52.163281,21
14:36:52.163281,9728
14:36:52.163281,0
14:36:52.163281,53
14:36:52.163281,16128
14:36:52.163281,0
14:36:52.163281,75
14:36:52.163281,20992
14:36:52.163281,0
14:36:52.163281,70
14:36:52.163281,11776
14:36:52.163281,0
14:36:52.163281,9
14:36:52.163281,-8704
14:36:52.163281,-1
14:36:52.163281,-68
14:36:52.163281,-20737
14:36:52.163281,-1
14:36:52.163281,-85
14:36:52.163281,-22017
14:36:52.163281,-1
14:36:52.163281,-87
14:36:52.163281,-20225
14:36:52.163281,-1
14:36:52.163281,-80
14:36:52.794166,-80
14:36:52.794166,-19457
14:36:52.794166,-1
14:36:52.794166,-75
14:36:52.794166,-18177
14:36:52.794166,-1
14:36:52.794166,-70
14:36:52.794166,-16385
14:36:52.794166,-1
14:36:52.794166,-58
14:36:52.794166,-10753
14:36:52.794166,-1
14:36:52.794166,-31
14:36:52.794166,-7681
14:36:52.794166,-1
14:36:52.794166,-34
14:36:52.794166,-7169
14:36:52.794166,-1
14:36:52.794166,-26
14:36:52.794166,-5121
14:36:52.794166,-1
14:36:52.794166,-17
14:36:52.794166,-5121
14:36:52.794166,-1
14:36:52.794166,-26
14:36:52.794166,-5121
14:36:52.794166,-1
14:36:52.794166,-19
14:36:52.794166,-4097
14:36:52.794166,-1
14:36:52.794166,-14
14:36:52.794166,-2817
14:36:52.794166,-1
14:36:52.794166,-12
14:36:52.794166,-3329
14:36:52.794166,-1
14:36:52.794166,-9
14:36:52.794166,-1537
14:36:52.794166,-1
14:36:52.794166,-7
14:36:52.794166,-769
14:36:52.794166,-1
14:36:52.794166,-7
14:36:52.794166,-769
14:36:52.794166,-1
14:36:52.794166,0
14:36:52.794166,-1024
14:36:52.794166,-1
14:36:52.794166,-9
14:36:52.794166,-1537
14:36:52.794166,-1
14:36:52.794166,-7
14:36:52.794166,-2049
14:36:52.794166,-1
14:36:52.794166,-7
14:36:52.794166,-257
14:36:52.794166,-1
14:36:52.794166,-9
14:36:52.794166,-2817
14:36:52.794166,-1
14:36:52.794166,0
14:36:52.794166,0
14:36:52.794166,0
14:36:52.794166,-4
14:36:52.794166,-769
14:36:52.794166,-1
14:36:52.794166,-4
14:36:52.794166,-769
14:36:52.794166,-1
14:36:52.794166,-4
14:36:52.794166,-2049
14:36:52.794166,-1
14:36:52.794166,-17
14:36:52.794166,-4609
14:36:52.794166,-1
14:36:52.794166,-19
14:36:52.794166,-7169
14:36:52.794166,-1
14:36:52.794166,-31
14:36:52.794166,-3329
14:36:52.794166,-1
14:36:52.794166,7
14:36:52.794166,7936
14:36:52.794166,0
14:36:52.794166,38
14:36:52.794166,4352
14:36:52.794166,0
14:36:52.794166,4
14:36:52.794166,4352
14:36:52.794166,0
14:36:52.794166,21
14:36:52.794166,3072
14:36:52.794166,0
14:36:52.794166,-7
14:36:52.794166,-12801
14:36:52.794166,-1
14:36:52.794166,-21
14:36:52.794166,28671
14:36:52.794166,1
14:36:52.794166,1099
14:36:52.794166,-25088
14:36:52.794166,5
14:36:52.794166,968
14:36:52.794166,20992
14:36:52.794166,1
14:36:52.794166,82
14:36:52.794166,-3072
14:36:52.794166,-1
14:36:52.794166,-121
14:36:53.288057,-153
14:36:53.288057,32255
14:36:53.288057,-1
14:36:53.288057,-138
14:36:53.288057,29183
14:36:53.288057,-1
14:36:53.288057,-124
14:36:53.288057,-29441
14:36:53.288057,-1
14:36:53.288057,-114
14:36:53.288057,-25857
14:36:53.288057,-1
14:36:53.288057,-90
14:36:53.288057,-20737
14:36:53.288057,-1
14:36:53.288057,-72
14:36:53.288057,-15873
14:36:53.288057,-1
14:36:53.288057,-51
14:36:53.288057,-8961
14:36:53.288057,-1
14:36:53.288057,-21
14:36:53.288057,-769
14:36:53.288057,-1
14:36:53.288057,26
14:36:53.288057,13568
14:36:53.288057,0
14:36:53.288057,60
14:36:53.288057,16128
14:36:53.288057,0
14:36:53.288057,68
14:36:53.288057,16128
14:36:53.288057,0
14:36:53.288057,48
14:36:53.288057,3584
14:36:53.288057,0
14:36:53.288057,-26
14:36:53.288057,-15105
14:36:53.288057,-1
14:36:53.288057,-80
14:36:53.288057,-22017
14:36:53.288057,-1
14:36:53.288057,-92
14:36:53.288057,-23297
14:36:53.288057,-1
14:36:53.288057,-92
14:36:53.288057,-23297
14:36:53.288057,-1
14:36:53.288057,-85
14:36:53.288057,-20225
14:36:53.288057,-1
14:36:53.288057,-75
14:36:53.288057,-18177
14:36:53.288057,-1
14:36:53.288057,-72
14:36:53.288057,-16385
14:36:53.288057,-1
14:36:53.288057,-58
14:36:53.288057,-13313
14:36:53.288057,-1
14:36:53.288057,-48
14:36:53.288057,-12033
14:36:53.288057,-1
14:36:53.288057,-48
14:36:53.288057,-10753
14:36:53.288057,-1
14:36:53.288057,-34
14:36:53.288057,-6401
14:36:53.288057,-1
14:36:53.288057,-24
14:36:53.288057,-5121
14:36:53.288057,-1
14:36:53.288057,-17
14:36:53.288057,-3329
14:36:53.288057,-1
14:36:53.288057,-17
14:36:53.288057,-4609
14:36:53.288057,-1
14:36:53.288057,-9
14:36:53.288057,255
14:36:53.288057,0
14:36:53.288057,0
14:36:53.288057,-1024
14:36:53.288057,-1
14:36:53.288057,-7
14:36:53.288057,-1537
14:36:53.288057,-1
14:36:53.288057,-4
14:36:53.288057,-769
14:36:53.288057,-1
14:36:53.288057,0
14:36:53.288057,1024
14:36:53.288057,0
14:36:53.288057,2
14:36:53.288057,1024
14:36:53.288057,0
14:36:53.288057,9
14:36:53.288057,2304
14:36:53.288057,0
14:36:53.288057,4
14:36:53.288057,-1024
14:36:53.288057,-1
14:36:53.288057,-2
14:36:53.288057,767
14:36:53.288057,0
14:36:53.288057,7
14:36:53.288057,2304
14:36:53.288057,0
14:36:53.288057,7
14:36:53.829271,4
14:36:53.829271,2304
14:36:53.829271,0
14:36:53.829271,14
14:36:53.829271,2304
14:36:53.829271,0
14:36:53.829271,4
14:36:53.829271,2304
14:36:53.829271,0
14:36:53.829271,9
14:36:53.829271,1792
14:36:53.829271,0
14:36:53.829271,12
14:36:53.829271,1792
14:36:53.829271,0
14:36:53.829271,-7
14:36:53.829271,255
14:36:53.829271,0
14:36:53.829271,19
14:36:53.829271,8704
14:36:53.829271,0
14:36:53.829271,51
14:36:53.829271,16128
14:36:53.829271,0
14:36:53.829271,48
14:36:53.829271,8704
14:36:53.829271,0
14:36:53.829271,38
14:36:53.829271,12288
14:36:53.829271,0
14:36:53.829271,41
14:36:53.829271,3584
14:36:53.829271,0
14:36:53.829271,-29
14:36:53.829271,16895
14:36:53.829271,0
14:36:53.829271,588
14:36:53.829271,4096
14:36:53.829271,5
14:36:53.829271,1379
14:36:53.829271,768
14:36:53.829271,3
14:36:53.829271,255
14:36:53.829271,23552
14:36:53.829271,0
14:36:53.829271,-14
14:36:53.829271,-26369
14:36:53.829271,-1
14:36:53.829271,-102
14:36:53.829271,-22785
14:36:53.829271,-1
14:36:53.829271,-99
14:36:53.829271,-23297
14:36:53.829271,-1
14:36:53.829271,-80
14:36:53.829271,-18945
14:36:53.829271,-1
14:36:53.829271,-72
14:36:53.829271,-15105
14:36:53.829271,-1
14:36:53.829271,-51
14:36:53.829271,-8961
14:36:53.829271,-1
14:36:53.829271,-21
14:36:53.829271,-4097
14:36:53.829271,-1
14:36:53.829271,-4
14:36:53.829271,2047
14:36:53.829271,0
14:36:53.829271,17
14:36:53.829271,9728
14:36:53.829271,0
14:36:53.829271,60
14:36:53.829271,19712
14:36:53.829271,0
14:36:53.829271,92
14:36:53.829271,25344
14:36:53.829271,0
14:36:53.829271,97
14:36:53.829271,23552
14:36:53.829271,0
14:36:53.829271,75
14:36:53.829271,8704
14:36:53.829271,0
14:36:53.829271,-14
14:36:53.829271,-11521
14:36:53.829271,-1
14:36:53.829271,-60
14:36:53.829271,-16385
14:36:53.829271,-1
14:36:53.829271,-70
14:36:53.829271,-17665
14:36:53.829271,-1
14:36:53.829271,-70
14:36:53.829271,-16385
14:36:53.829271,-1
14:36:53.829271,-60
14:36:53.829271,-13825
14:36:53.829271,-1
14:36:53.829271,-51
14:36:53.829271,-12801
14:36:53.829271,-1
14:36:53.829271,-51
14:36:53.829271,-12801
14:36:53.829271,-1
14:36:53.829271,-46
14:36:53.829271,-10241
14:36:53.829271,-1
14:36:53.829271,-36
14:36:54.415069,-31
14:36:54.415069,-6401
14:36:54.415069,-1
14:36:54.415069,-19
14:36:54.415069,-3329
14:36:54.415069,-1
14:36:54.415069,-17
14:36:54.415069,-1537
14:36:54.415069,-1
14:36:54.415069,4
14:36:54.415069,512
14:36:54.415069,0
14:36:54.415069,2
14:36:54.415069,1792
14:36:54.415069,0
14:36:54.415069,7
14:36:54.415069,1792
14:36:54.415069,0
14:36:54.415069,4
14:36:54.415069,1024
14:36:54.415069,0
14:36:54.415069,7
14:36:54.415069,1792
14:36:54.415069,0
14:36:54.415069,7
14:36:54.415069,1792
14:36:54.415069,0
14:36:54.415069,4
14:36:54.415069,1792
14:36:54.415069,0
14:36:54.415069,9
14:36:54.415069,1792
14:36:54.415069,0
14:36:54.415069,4
14:36:54.415069,1024
14:36:54.415069,0
14:36:54.415069,7
14:36:54.415069,1024
14:36:54.415069,0
14:36:54.415069,4
14:36:54.415069,1792
14:36:54.415069,0
14:36:54.415069,7
14:36:54.415069,1792
14:36:54.415069,0
14:36:54.415069,7
14:36:54.415069,1024
14:36:54.415069,0
14:36:54.415069,7
14:36:54.415069,1024
14:36:54.415069,0
14:36:54.415069,-2
14:36:54.415069,-2817
14:36:54.415069,-1
14:36:54.415069,-17
14:36:54.415069,-5889
14:36:54.415069,-1
14:36:54.415069,-24
14:36:54.415069,-2049
14:36:54.415069,-1
14:36:54.415069,14
14:36:54.415069,9216
14:36:54.415069,0
14:36:54.415069,43
14:36:54.415069,6656
14:36:54.415069,0
14:36:54.415069,17
14:36:54.415069,6144
14:36:54.415069,0
14:36:54.415069,24
14:36:54.415069,4352
14:36:54.415069,0
14:36:54.415069,-4
14:36:54.415069,-12033
14:36:54.415069,-1
14:36:54.415069,12
14:36:54.415069,-15872
14:36:54.415069,1
14:36:54.415069,1160
14:36:54.415069,27136
14:36:54.415069,5
14:36:54.415069,856
14:36:54.415069,8448
14:36:54.415069,1
14:36:54.415069,90
14:36:54.415069,-3584
14:36:54.415069,-1
14:36:54.415069,-121
14:36:54.415069,30975
14:36:54.415069,-1
14:36:54.415069,-116
14:36:54.415069,-32513
14:36:54.415069,-1
14:36:54.415069,-128
14:36:54.415069,-27649
14:36:54.415069,-1
14:36:54.415069,-104
14:36:54.415069,-25089
14:36:54.415069,-1
14:36:54.415069,-87
14:36:54.415069,-19457
14:36:54.415069,-1
14:36:54.415069,-70
14:36:54.415069,-13825
14:36:54.415069,-1
14:36:54.415069,-43
14:36:54.415069,-8449
14:36:54.415069,-1
14:36:54.415069,-24
14:36:54.999199,-7
14:36:54.999199,3839
14:36:54.999199,0
14:36:54.999199,34
14:36:54.999199,13568
14:36:54.999199,0
14:36:54.999199,65
14:36:54.999199,18432
14:36:54.999199,0
14:36:54.999199,77
14:36:54.999199,18432
14:36:54.999199,0
14:36:54.999199,60
14:36:54.999199,6144
14:36:54.999199,0
14:36:54.999199,-24
14:36:54.999199,-15105
14:36:54.999199,-1
14:36:54.999199,-77
14:36:54.999199,-22017
14:36:54.999199,-1
14:36:54.999199,-90
14:36:54.999199,-22785
14:36:54.999199,-1
14:36:54.999199,-85
14:36:54.999199,-20225
14:36:54.999199,-1
14:36:54.999199,-80
14:36:54.999199,-18945
14:36:54.999199,-1
14:36:54.999199,-72
14:36:54.999199,-18177
14:36:54.999199,-1
14:36:54.999199,-72
14:36:54.999199,-17153
14:36:54.999199,-1
14:36:54.999199,-60
14:36:54.999199,-13825
14:36:54.999199,-1
14:36:54.999199,-51
14:36:54.999199,-12033
14:36:54.999199,-1
14:36:54.999199,-46
14:36:54.999199,-10241
14:36:54.999199,-1
14:36:54.999199,-38
14:36:54.999199,-8449
14:36:54.999199,-1
14:36:54.999199,-31
14:36:54.999199,-7681
14:36:54.999199,-1
14:36:54.999199,-26
14:36:54.999199,-5889
14:36:54.999199,-1
14:36:54.999199,-24
14:36:54.999199,-5121
14:36:54.999199,-1
14:36:54.999199,-19
14:36:54.999199,-4097
14:36:54.999199,-1
14:36:54.999199,-19
14:36:54.999199,-5121
14:36:54.999199,-1
14:36:54.999199,-19
14:36:54.999199,-3329
14:36:54.999199,-1
14:36:54.999199,-14
14:36:54.999199,-3329
14:36:54.999199,-1
14:36:54.999199,-17
14:36:54.999199,-3329
14:36:54.999199,-1
14:36:54.999199,-12
14:36:54.999199,-2817
14:36:54.999199,-1
14:36:54.999199,-12
14:36:54.999199,-2817
14:36:54.999199,-1
14:36:54.999199,-9
14:36:54.999199,-2817
14:36:54.999199,-1
14:36:54.999199,-17
14:36:54.999199,-2817
14:36:54.999199,-1
14:36:54.999199,-9
14:36:54.999199,-3329
14:36:54.999199,-1
14:36:54.999199,-21
14:36:54.999199,-7681
14:36:54.999199,-1
14:36:54.999199,-34
14:36:54.999199,-8961
14:36:54.999199,-1
14:36:54.999199,-41
14:36:54.999199,-7681
14:36:54.999199,-1
14:36:54.999199,-12
14:36:54.999199,3327
14:36:54.999199,0
14:36:54.999199,31
14:36:54.999199,6144
14:36:54.999199,0
14:36:54.999199,2
14:36:54.999199,0
14:36:54.999199,0
14:36:54.999199,9
14:36:54.999199,1792
14:36:54.999199,0
14:36:54.999199,-9
14:36:55.538176,-43
14:36:55.538176,-12033
14:36:55.538176,-1
14:36:55.538176,250
14:36:55.538176,-13824
14:36:55.538176,3
14:36:55.538176,1476
14:36:55.538176,31232
14:36:55.538176,4
14:36:55.538176,462
14:36:55.538176,27904
14:36:55.538176,0
14:36:55.538176,0
14:36:55.538176,-28416
14:36:55.538176,-1
14:36:55.538176,-155
14:36:55.538176,-31489
14:36:55.538176,-1
14:36:55.538176,-119
14:36:55.538176,-32001
14:36:55.538176,-1
14:36:55.538176,-116
14:36:55.538176,-26369
14:36:55.538176,-1
14:36:55.538176,-102
14:36:55.538176,-23297
14:36:55.538176,-1
14:36:55.538176,-75
14:36:55.538176,-17153
14:36:55.538176,-1
14:36:55.538176,-63
14:36:55.538176,-12801
14:36:55.538176,-1
14:36:55.538176,-38
14:36:55.538176,-7169
14:36:55.538176,-1
14:36:55.538176,-9
14:36:55.538176,2047
14:36:55.538176,0
14:36:55.538176,29
14:36:55.538176,12288
14:36:55.538176,0
14:36:55.538176,63
14:36:55.538176,19712
14:36:55.538176,0
14:36:55.538176,85
14:36:55.538176,20992
14:36:55.538176,0
14:36:55.538176,63
14:36:55.538176,5376
14:36:55.538176,0
14:36:55.538176,-21
14:36:55.538176,-15105
14:36:55.538176,-1
14:36:55.538176,-85
14:36:55.538176,-23297
14:36:55.538176,-1
14:36:55.538176,-99
14:36:55.538176,-25857
14:36:55.538176,-1
14:36:55.538176,-97
14:36:55.538176,-23297
14:36:55.538176,-1
14:36:55.538176,-90
14:36:55.538176,-22017
14:36:55.538176,-1
14:36:55.538176,-82
14:36:55.538176,-18945
14:36:55.538176,-1
14:36:55.538176,-75
14:36:55.538176,-18945
14:36:55.538176,-1
14:36:55.538176,-77
14:36:55.538176,-18177
14:36:55.538176,-1
14:36:55.538176,-60
14:36:55.538176,-14593
14:36:55.538176,-1
14:36:55.538176,-55
14:36:55.538176,-13313
14:36:55.538176,-1
14:36:55.538176,-48
14:36:55.538176,-9473
14:36:55.538176,-1
14:36:55.538176,-31
14:36:55.538176,-7681
14:36:55.538176,-1
14:36:55.538176,-31
14:36:55.538176,-7169
14:36:55.538176,-1
14:36:55.538176,-21
14:36:55.538176,-4097
14:36:55.538176,-1
14:36:55.538176,-24
14:36:55.538176,-6401
14:36:55.538176,-1
14:36:55.538176,-17
14:36:55.538176,-2049
14:36:55.538176,-1
14:36:55.538176,-9
14:36:55.538176,-2049
14:36:55.538176,-1
14:36:55.538176,-12
14:36:55.538176,-4097
14:36:55.538176,-1
14:36:55.538176,-4
14:36:55.538176,255
14:36:55.538176,0
14:36:55.538176,-9
14:36:56.079164,-7
14:36:56.079164,255
14:36:56.079164,0
14:36:56.079164,0
14:36:56.079164,512
14:36:56.079164,0
14:36:56.079164,0
14:36:56.079164,-512
14:36:56.079164,-1
14:36:56.079164,-2
14:36:56.079164,-257
14:36:56.079164,-1
14:36:56.079164,7
14:36:56.079164,5376
14:36:56.079164,0
14:36:56.079164,21
14:36:56.079164,3072
14:36:56.079164,0
14:36:56.079164,7
14:36:56.079164,512
14:36:56.079164,0
14:36:56.079164,-4
14:36:56.079164,-2817
14:36:56.079164,-1
14:36:56.079164,-7
14:36:56.079164,2559
14:36:56.079164,0
14:36:56.079164,38
14:36:56.079164,16128
14:36:56.079164,0
14:36:56.079164,55
14:36:56.079164,7936
14:36:56.079164,0
14:36:56.079164,26
14:36:56.079164,10496
14:36:56.079164,0
14:36:56.079164,41
14:36:56.079164,5376
14:36:56.079164,0
14:36:56.079164,-9
14:36:56.079164,-6401
14:36:56.079164,-1
14:36:56.079164,175
14:36:56.079164,6912
14:36:56.079164,3
14:36:56.079164,1386
14:36:56.079164,-16384
14:36:56.079164,4
14:36:56.079164,549
14:36:56.079164,-22784
14:36:56.079164,0
14:36:56.079164,77
14:36:56.079164,-10496
14:36:56.079164,-1
14:36:56.079164,-121
14:36:56.079164,-25089
14:36:56.079164,-1
14:36:56.079164,-87
14:36:56.079164,-25089
14:36:56.079164,-1
14:36:56.079164,-90
14:36:56.079164,-20225
14:36:56.079164,-1
14:36:56.079164,-77
14:36:56.079164,-17665
14:36:56.079164,-1
14:36:56.079164,-58
14:36:56.079164,-12801
14:36:56.079164,-1
14:36:56.079164,-41
14:36:56.079164,-6401
14:36:56.079164,-1
14:36:56.079164,-17
14:36:56.079164,-769
14:36:56.079164,-1
14:36:56.079164,9
14:36:56.079164,5376
14:36:56.079164,0
14:36:56.079164,43
14:36:56.079164,16640
14:36:56.079164,0
14:36:56.079164,80
14:36:56.079164,23552
14:36:56.079164,0
14:36:56.079164,102
14:36:56.079164,25344
14:36:56.079164,0
14:36:56.079164,82
14:36:56.079164,13056
14:36:56.079164,0
14:36:56.079164,9
14:36:56.079164,-8704
14:36:56.079164,-1
14:36:56.079164,-63
14:36:56.079164,-18177
14:36:56.079164,-1
14:36:56.079164,-85
14:36:56.079164,-22017
14:36:56.079164,-1
14:36:56.079164,-82
14:36:56.079164,-18945
14:36:56.079164,-1
14:36:56.079164,-70
14:36:56.079164,-18177
14:36:56.079164,-1
14:36:56.079164,-80
14:36:56.079164,-18945
14:36:56.079164,-1
14:36:56.079164,-60
14:36:56.663705,-55
14:36:56.663705,-15105
14:36:56.663705,-1
14:36:56.663705,-55
14:36:56.663705,-11521
14:36:56.663705,-1
14:36:56.663705,-43
14:36:56.663705,-8449
14:36:56.663705,-1
14:36:56.663705,-19
14:36:56.663705,-4097
14:36:56.663705,-1
14:36:56.663705,-17
14:36:56.663705,-2817
14:36:56.663705,-1
14:36:56.663705,-7
14:36:56.663705,-2049
14:36:56.663705,-1
14:36:56.663705,-9
14:36:56.663705,-769
14:36:56.663705,-1
14:36:56.663705,-4
14:36:56.663705,-769
14:36:56.663705,-1
14:36:56.663705,-2
14:36:56.663705,-769
14:36:56.663705,-1
14:36:56.663705,-4
14:36:56.663705,-769
14:36:56.663705,-1
14:36:56.663705,-4
14:36:56.663705,-257
14:36:56.663705,-1
14:36:56.663705,-4
14:36:56.663705,-257
14:36:56.663705,-1
14:36:56.663705,2
14:36:56.663705,-512
14:36:56.663705,-1
14:36:56.663705,-4
14:36:56.663705,-257
14:36:56.663705,-1
14:36:56.663705,-4
14:36:56.663705,-1537
14:36:56.663705,-1
14:36:56.663705,-9
14:36:56.663705,-4097
14:36:56.663705,-1
14:36:56.663705,-26
14:36:56.663705,-7681
14:36:56.663705,-1
14:36:56.663705,-34
14:36:56.663705,-10753
14:36:56.663705,-1
14:36:56.663705,-41
14:36:56.663705,-5889
14:36:56.663705,-1
14:36:56.663705,-2
14:36:56.663705,5631
14:36:56.663705,0
14:36:56.663705,19
14:36:56.663705,0
14:36:56.663705,0
14:36:56.663705,-2
14:36:56.663705,1279
14:36:56.663705,0
14:36:56.663705,2
14:36:56.663705,-3072
14:36:56.663705,-1
14:36:56.663705,-46
14:36:56.663705,-17153
14:36:56.663705,-1
14:36:56.663705,131
14:36:56.663705,-1024
14:36:56.663705,2
14:36:56.663705,1350
14:36:56.663705,-29952
14:36:56.663705,4
14:36:56.663705,510
14:36:56.663705,-26368
14:36:56.663705,0
14:36:56.663705,46
14:36:56.663705,-20480
14:36:56.663705,-1
14:36:56.663705,-148
14:36:56.663705,-32001
14:36:56.663705,-1
14:36:56.663705,-126
14:36:56.663705,28671
14:36:56.663705,-1
14:36:56.663705,-128
14:36:56.663705,-27649
14:36:56.663705,-1
14:36:56.663705,-111
14:36:56.663705,-28929
14:36:56.663705,-1
14:36:56.663705,-102
14:36:56.663705,-20737
14:36:56.663705,-1
14:36:56.663705,-77
14:36:56.663705,-18945
14:36:56.663705,-1
14:36:56.663705,-51
14:36:56.663705,-7169
14:36:56.663705,-1
14:36:56.663705,-12
14:36:56.663705,767
14:36:56.663705,0
14:36:56.663705,12
14:36:57.203152,36
14:36:57.203152,15360
14:36:57.203152,0
14:36:57.203152,70
14:36:57.203152,19712
14:36:57.203152,0
14:36:57.203152,80
14:36:57.203152,14080
14:36:57.203152,0
14:36:57.203152,17
14:36:57.203152,-5376
14:36:57.203152,-1
14:36:57.203152,-60
14:36:57.203152,-20737
14:36:57.203152,-1
14:36:57.203152,-90
14:36:57.203152,-23809
14:36:57.203152,-1
14:36:57.203152,-97
14:36:57.203152,-22017
14:36:57.203152,-1
14:36:57.203152,-75
14:36:57.203152,-18177
14:36:57.203152,-1
14:36:57.203152,-75
14:36:57.203152,-18945
14:36:57.203152,-1
14:36:57.203152,-65
14:36:57.203152,-17665
14:36:57.203152,-1
14:36:57.203152,-75
14:36:57.203152,-15873
14:36:57.203152,-1
14:36:57.203152,-55
14:36:57.203152,-13825
14:36:57.203152,-1
14:36:57.203152,-51
14:36:57.203152,-12033
14:36:57.203152,-1
14:36:57.203152,-43
14:36:57.203152,-9473
14:36:57.203152,-1
14:36:57.203152,-34
14:36:57.203152,-7169
14:36:57.203152,-1
14:36:57.203152,-31
14:36:57.203152,-6401
14:36:57.203152,-1
14:36:57.203152,-19
14:36:57.203152,-4097
14:36:57.203152,-1
14:36:57.203152,-17
14:36:57.203152,-3329
14:36:57.203152,-1
14:36:57.203152,-17
14:36:57.203152,-2817
14:36:57.203152,-1
14:36:57.203152,-7
14:36:57.203152,-1537
14:36:57.203152,-1
14:36:57.203152,-12
14:36:57.203152,-2049
14:36:57.203152,-1
14:36:57.203152,-7
14:36:57.203152,-2817
14:36:57.203152,-1
14:36:57.203152,-12
14:36:57.203152,-769
14:36:57.203152,-1
14:36:57.203152,0
14:36:57.203152,-512
14:36:57.203152,-1
14:36:57.203152,-9
14:36:57.203152,-1537
14:36:57.203152,-1
14:36:57.203152,-4
14:36:57.203152,-2817
14:36:57.203152,-1
14:36:57.203152,-17
14:36:57.203152,-4609
14:36:57.203152,-1
14:36:57.203152,-29
14:36:57.203152,-8449
14:36:57.203152,-1
14:36:57.203152,-38
14:36:57.203152,-10753
14:36:57.203152,-1
14:36:57.203152,-38
14:36:57.203152,-5121
14:36:57.203152,-1
14:36:57.203152,7
14:36:57.203152,6144
14:36:57.203152,0
14:36:57.203152,14
14:36:57.203152,-512
14:36:57.203152,-1
14:36:57.203152,0
14:36:57.203152,3072
14:36:57.203152,0
14:36:57.203152,4
14:36:57.203152,-3072
14:36:57.203152,-1
14:36:57.203152,-48
14:36:57.203152,-15105
14:36:57.203152,-1
14:36:57.203152,223
14:36:57.203152,-24832
14:36:57.203152,3
14:36:57.203152,1428
14:36:57.788156,1102
14:36:57.788156,-19200
14:36:57.788156,1
14:36:57.788156,116
14:36:57.788156,4864
14:36:57.788156,0
14:36:57.788156,-97
14:36:57.788156,28671
14:36:57.788156,-1
14:36:57.788156,-121
14:36:57.788156,-29441
14:36:57.788156,-1
14:36:57.788156,-121
14:36:57.788156,-28929
14:36:57.788156,-1
14:36:57.788156,-104
14:36:57.788156,-25857
14:36:57.788156,-1
14:36:57.788156,-94
14:36:57.788156,-21505
14:36:57.788156,-1
14:36:57.788156,-77
14:36:57.788156,-17665
14:36:57.788156,-1
14:36:57.788156,-60
14:36:57.788156,-12033
14:36:57.788156,-1
14:36:57.788156,-34
14:36:57.788156,-5121
14:36:57.788156,-1
14:36:57.788156,-12
14:36:57.788156,3327
14:36:57.788156,0
14:36:57.788156,34
14:36:57.788156,12288
14:36:57.788156,0
14:36:57.788156,60
14:36:57.788156,17408
14:36:57.788156,0
14:36:57.788156,65
14:36:57.788156,11776
14:36:57.788156,0
14:36:57.788156,12
14:36:57.788156,-7936
14:36:57.788156,-1
14:36:57.788156,-70
14:36:57.788156,-22785
14:36:57.788156,-1
14:36:57.788156,-102
14:36:57.788156,-27137
14:36:57.788156,-1
14:36:57.788156,-104
14:36:57.788156,-24577
14:36:57.788156,-1
14:36:57.788156,-92
14:36:57.788156,-22017
14:36:57.788156,-1
14:36:57.788156,-87
14:36:57.788156,-21505
14:36:57.788156,-1
14:36:57.788156,-85
14:36:57.788156,-20737
14:36:57.788156,-1
14:36:57.788156,-75
14:36:57.788156,-17665
14:36:57.788156,-1
14:36:57.788156,-70
14:36:57.788156,-17153
14:36:57.788156,-1
14:36:57.788156,-65
14:36:57.788156,-15105
14:36:57.788156,-1
14:36:57.788156,-58
14:36:57.788156,-12801
14:36:57.788156,-1
14:36:57.788156,-46
14:36:57.788156,-12033
14:36:57.788156,-1
14:36:57.788156,-46
14:36:57.788156,-9473
14:36:57.788156,-1
14:36:57.788156,-36
14:36:57.788156,-8449
14:36:57.788156,-1
14:36:57.788156,-29
14:36:57.788156,-6401
14:36:57.788156,-1
14:36:57.788156,-21
14:36:57.788156,-5121
14:36:57.788156,-1
14:36:57.788156,-21
14:36:57.788156,-5889
14:36:57.788156,-1
14:36:57.788156,-19
14:36:57.788156,-4097
14:36:57.788156,-1
14:36:57.788156,-19
14:36:57.788156,-4097
14:36:57.788156,-1
14:36:57.788156,-17
14:36:57.788156,-4097
14:36:57.788156,-1
14:36:57.788156,-12
14:36:57.788156,-2817
14:36:57.788156,-1
14:36:57.788156,-12
14:36:57.788156,-4097
14:36:57.788156,-1
14:36:57.788156,-17
14:36:58.373321,-14
14:36:58.373321,-3329
14:36:58.373321,-1
14:36:58.373321,-14
14:36:58.373321,-3329
14:36:58.373321,-1
14:36:58.373321,-14
14:36:58.373321,-2817
14:36:58.373321,-1
14:36:58.373321,-14
14:36:58.373321,-2817
14:36:58.373321,-1
14:36:58.373321,-17
14:36:58.373321,-5121
14:36:58.373321,-1
14:36:58.373321,-17
14:36:58.373321,-5889
14:36:58.373321,-1
14:36:58.373321,-34
14:36:58.373321,-6401
14:36:58.373321,-1
14:36:58.373321,-7
14:36:58.373321,4607
14:36:58.373321,0
14:36:58.373321,38
14:36:58.373321,8704
14:36:58.373321,0
14:36:58.373321,12
14:36:58.373321,1792
14:36:58.373321,0
14:36:58.373321,17
14:36:58.373321,4352
14:36:58.373321,0
14:36:58.373321,2
14:36:58.373321,-7936
14:36:58.373321,-1
14:36:58.373321,-68
14:36:58.373321,31999
14:36:58.373321,0
14:36:58.373321,795
14:36:58.373321,-14080
14:36:58.373321,5
14:36:58.373321,1369
14:36:58.373321,-27392
14:36:58.373321,2
14:36:58.373321,170
14:36:58.373321,3072
14:36:58.373321,0
14:36:58.373321,-94
14:36:58.373321,25343
14:36:58.373321,-1
14:36:58.373321,-148
14:36:58.373321,28671
14:36:58.373321,-1
14:36:58.373321,-155
14:36:58.373321,29183
14:36:58.373321,-1
14:36:58.373321,-131
14:36:58.373321,-32001
14:36:58.373321,-1
14:36:58.373321,-119
14:36:58.373321,-27137
14:36:58.373321,-1
14:36:58.373321,-99
14:36:58.373321,-23297
14:36:58.373321,-1
14:36:58.373321,-77
14:36:58.373321,-17665
14:36:58.373321,-1
14:36:58.373321,-58
14:36:58.373321,-10241
14:36:58.373321,-1
14:36:58.373321,-21
14:36:58.373321,-769
14:36:58.373321,-1
14:36:58.373321,19
14:36:58.373321,9728
14:36:58.373321,0
14:36:58.373321,53
14:36:58.373321,16128
14:36:58.373321,0
14:36:58.373321,65
14:36:58.373321,14848
14:36:58.373321,0
14:36:58.373321,29
14:36:58.373321,-3072
14:36:58.373321,-1
14:36:58.373321,-51
14:36:58.373321,-19457
14:36:58.373321,-1
14:36:58.373321,-92
14:36:58.373321,-25857
14:36:58.373321,-1
14:36:58.373321,-102
14:36:58.373321,-25089
14:36:58.373321,-1
14:36:58.373321,-99
14:36:58.373321,-23809
14:36:58.373321,-1
14:36:58.373321,-92
14:36:58.373321,-21505
14:36:58.373321,-1
14:36:58.373321,-80
14:36:58.373321,-20225
14:36:58.373321,-1
14:36:58.373321,-75
14:36:58.373321,-18945
14:36:58.373321,-1
14:36:58.373321,-72
14:36:58.957182,-68
14:36:58.957182,-15873
14:36:58.957182,-1
14:36:58.957182,-60
14:36:58.957182,-13825
14:36:58.957182,-1
14:36:58.957182,-51
14:36:58.957182,-12801
14:36:58.957182,-1
14:36:58.957182,-48
14:36:58.957182,-10241
14:36:58.957182,-1
14:36:58.957182,-41
14:36:58.957182,-10241
14:36:58.957182,-1
14:36:58.957182,-34
14:36:58.957182,-7681
14:36:58.957182,-1
14:36:58.957182,-24
14:36:58.957182,-1537
14:36:58.957182,-1
14:36:58.957182,-4
14:36:58.957182,-2049
14:36:58.957182,-1
14:36:58.957182,-7
14:36:58.957182,-257
14:36:58.957182,-1
14:36:58.957182,0
14:36:58.957182,0
14:36:58.957182,0
14:36:58.957182,0
14:36:58.957182,-512
14:36:58.957182,-1
14:36:58.957182,-7
14:36:58.957182,-257
14:36:58.957182,-1
14:36:58.957182,2
14:36:58.957182,0
14:36:58.957182,0
14:36:58.957182,-7
14:36:58.957182,-769
14:36:58.957182,-1
14:36:58.957182,2
14:36:58.957182,-512
14:36:58.957182,-1
14:36:58.957182,-9
14:36:58.957182,255
14:36:58.957182,0
14:36:58.957182,4
14:36:58.957182,0
14:36:58.957182,0
14:36:58.957182,-2
14:36:58.957182,-257
14:36:58.957182,-1
14:36:58.957182,0
14:36:58.957182,-512
14:36:58.957182,-1
14:36:58.957182,-2
14:36:58.957182,255
14:36:58.957182,0
14:36:58.957182,-7
14:36:58.957182,-3329
14:36:58.957182,-1
14:36:58.957182,-19
14:36:58.957182,-5121
14:36:58.957182,-1
14:36:58.957182,-14
14:36:58.957182,-1537
14:36:58.957182,-1
14:36:58.957182,9
14:36:58.957182,8704
14:36:58.957182,0
14:36:58.957182,43
14:36:58.957182,6144
14:36:58.957182,0
14:36:58.957182,14
14:36:58.957182,6144
14:36:58.957182,0
14:36:58.957182,29
14:36:58.957182,5376
14:36:58.957182,0
14:36:58.957182,4
14:36:58.957182,-9728
14:36:58.957182,-1
14:36:58.957182,-9
14:36:58.957182,-29441
14:36:58.957182,1
14:36:58.957182,1160
14:36:58.957182,-5888
14:36:58.957182,5
14:36:58.957182,1026
14:36:58.957182,28416
14:36:58.957182,1
14:36:58.957182,92
14:36:58.957182,-2304
14:36:58.957182,-1
14:36:58.957182,-114
14:36:58.957182,31743
14:36:58.957182,-1
14:36:58.957182,-116
14:36:58.957182,-32513
14:36:58.957182,-1
14:36:58.957182,-133
14:36:58.957182,-27649
14:36:58.957182,-1
14:36:58.957182,-94
14:36:58.957182,-23809
14:36:58.957182,-1
14:36:58.957182,-92
14:36:59.453520,-80
14:36:59.453520,-17153
14:36:59.453520,-1
14:36:59.453520,-58
14:36:59.453520,-12801
14:36:59.453520,-1
14:36:59.453520,-34
14:36:59.453520,-2049
14:36:59.453520,-1
14:36:59.453520,-4
14:36:59.453520,2047
14:36:59.453520,0
14:36:59.453520,36
14:36:59.453520,15360
14:36:59.453520,0
14:36:59.453520,80
14:36:59.453520,23552
14:36:59.453520,0
14:36:59.453520,99
14:36:59.453520,24832
14:36:59.453520,0
14:36:59.453520,75
14:36:59.453520,10496
14:36:59.453520,0
14:36:59.453520,7
14:36:59.453520,-7424
14:36:59.453520,-1
14:36:59.453520,-53
14:36:59.453520,-17153
14:36:59.453520,-1
14:36:59.453520,-75
14:36:59.453520,-18945
14:36:59.453520,-1
14:36:59.453520,-70
14:36:59.453520,-17153
14:36:59.453520,-1
14:36:59.453520,-68
14:36:59.453520,-16385
14:36:59.453520,-1
14:36:59.453520,-60
14:36:59.453520,-14593
14:36:59.453520,-1
14:36:59.453520,-58
14:36:59.453520,-13825
14:36:59.453520,-1
14:36:59.453520,-51
14:36:59.453520,-10753
14:36:59.453520,-1
14:36:59.453520,-38
14:36:59.453520,-9473
14:36:59.453520,-1
14:36:59.453520,-38
14:36:59.453520,-7681
14:36:59.453520,-1
14:36:59.453520,-21
14:36:59.453520,-4609
14:36:59.453520,-1
14:36:59.453520,-19
14:36:59.453520,-4097
14:36:59.453520,-1
14:36:59.453520,-9
14:36:59.453520,255
14:36:59.453520,0
14:36:59.453520,4
14:36:59.453520,-512
14:36:59.453520,-1
14:36:59.453520,-4
14:36:59.453520,-257
14:36:59.453520,-1
14:36:59.453520,4
14:36:59.453520,512
14:36:59.453520,0
14:36:59.453520,4
14:36:59.453520,4352
14:36:59.453520,0
14:36:59.453520,12
14:36:59.453520,512
14:36:59.453520,0
14:36:59.453520,7
14:36:59.453520,3584
14:36:59.453520,0
14:36:59.453520,9
14:36:59.453520,1024
14:36:59.453520,0
14:36:59.453520,9
14:36:59.453520,3584
14:36:59.453520,0
14:36:59.453520,7
14:36:59.453520,1792
14:36:59.453520,0
14:36:59.453520,12
14:36:59.453520,2304
14:36:59.453520,0
14:36:59.453520,7
14:36:59.453520,3584
14:36:59.453520,0
14:36:59.453520,17
14:36:59.453520,3072
14:36:59.453520,0
14:36:59.453520,7
14:36:59.453520,2304
14:36:59.453520,0
14:36:59.453520,14
14:36:59.453520,3584
14:36:59.453520,0
14:36:59.453520,9
14:36:59.453520,2304
14:36:59.453520,0
14:36:59.453520,12
14:36:59.993957,9
14:36:59.993957,512
14:36:59.993957,0
14:36:59.993957,-7
14:36:59.993957,-4609
14:36:59.993957,-1
14:36:59.993957,-19
14:36:59.993957,-257
14:36:59.993957,-1
14:36:59.993957,21
14:36:59.993957,15360
14:36:59.993957,0
14:36:59.993957,75
14:36:59.993957,10496
14:36:59.993957,0
14:36:59.993957,21
14:36:59.993957,9216
14:36:59.993957,0
14:36:59.993957,48
14:36:59.993957,10496
14:36:59.993957,0
14:36:59.993957,17
14:36:59.993957,-7424
14:36:59.993957,-1
14:36:59.993957,12
14:36:59.993957,-24576
14:36:59.993957,1
14:36:59.993957,1116
14:36:59.993957,19712
14:36:59.993957,5
14:36:59.993957,839
14:36:59.993957,8448
14:36:59.993957,1
14:36:59.993957,114
14:36:59.993957,3584
14:36:59.993957,0
14:36:59.993957,-102
14:36:59.993957,-29441
14:36:59.993957,-1
14:36:59.993957,-94
14:36:59.993957,-28929
14:36:59.993957,-1
14:36:59.993957,-116
14:36:59.993957,-25089
14:36:59.993957,-1
14:36:59.993957,-97
14:36:59.993957,-22785
14:36:59.993957,-1
14:36:59.993957,-77
14:36:59.993957,-17153
14:36:59.993957,-1
14:36:59.993957,-60
14:36:59.993957,-12801
14:36:59.993957,-1
14:36:59.993957,-38
14:36:59.993957,-6401
14:36:59.993957,-1
14:36:59.993957,-14
14:36:59.993957,767
14:36:59.993957,0
14:36:59.993957,19
14:36:59.993957,9216
14:36:59.993957,0
14:36:59.993957,53
14:36:59.993957,17920
14:36:59.993957,0
14:36:59.993957,85
14:36:59.993957,21760
14:36:59.993957,0
14:36:59.993957,75
14:36:59.993957,14080
14:36:59.993957,0
14:36:59.993957,14
14:36:59.993957,-8704
14:36:59.993957,-1
14:36:59.993957,-72
14:36:59.993957,-23297
14:36:59.993957,-1
14:36:59.993957,-102
14:36:59.993957,-27137
14:36:59.993957,-1
14:36:59.993957,-102
14:36:59.993957,-24577
14:36:59.993957,-1
14:36:59.993957,-99
14:36:59.993957,-24577
14:36:59.993957,-1
14:36:59.993957,-92
14:36:59.993957,-21505
14:36:59.993957,-1
14:36:59.993957,-82
14:36:59.993957,-22017
14:36:59.993957,-1
14:36:59.993957,-87
14:36:59.993957,-19457
14:36:59.993957,-1
14:36:59.993957,-70
14:36:59.993957,-16385
14:36:59.993957,-1
14:36:59.993957,-63
14:36:59.993957,-15105
14:36:59.993957,-1
14:36:59.993957,-58
14:36:59.993957,-13313
14:36:59.993957,-1
14:36:59.993957,-48
14:36:59.993957,-10753
14:36:59.993957,-1
14:36:59.993957,-43
14:37:00.579145,-43
14:37:00.579145,-10241
14:37:00.579145,-1
14:37:00.579145,-36
14:37:00.579145,-8961
14:37:00.579145,-1
14:37:00.579145,-26
14:37:00.579145,-2817
14:37:00.579145,-1
14:37:00.579145,-14
14:37:00.579145,-4097
14:37:00.579145,-1
14:37:00.579145,-14
14:37:00.579145,-3329
14:37:00.579145,-1
14:37:00.579145,-12
14:37:00.579145,-2817
14:37:00.579145,-1
14:37:00.579145,-12
14:37:00.579145,-2817
14:37:00.579145,-1
14:37:00.579145,-14
14:37:00.579145,-2817
14:37:00.579145,-1
14:37:00.579145,-12
14:37:00.579145,-2817
14:37:00.579145,-1
14:37:00.579145,-9
14:37:00.579145,-769
14:37:00.579145,-1
14:37:00.579145,-4
14:37:00.579145,-1537
14:37:00.579145,-1
14:37:00.579145,-7
14:37:00.579145,-257
14:37:00.579145,-1
14:37:00.579145,-4
14:37:00.579145,-769
14:37:00.579145,-1
14:37:00.579145,-2
14:37:00.579145,-769
14:37:00.579145,-1
14:37:00.579145,-2
14:37:00.579145,-257
14:37:00.579145,-1
14:37:00.579145,-4
14:37:00.579145,-769
14:37:00.579145,-1
14:37:00.579145,-2
14:37:00.579145,-257
14:37:00.579145,-1
14:37:00.579145,0
14:37:00.579145,-512
14:37:00.579145,-1
14:37:00.579145,-9
14:37:00.579145,-5121
14:37:00.579145,-1
14:37:00.579145,-24
14:37:00.579145,-6401
14:37:00.579145,-1
14:37:00.579145,-34
14:37:00.579145,-7169
14:37:00.579145,-1
14:37:00.579145,-14
14:37:00.579145,767
14:37:00.579145,0
14:37:00.579145,26
14:37:00.579145,8704
14:37:00.579145,0
14:37:00.579145,12
14:37:00.579145,-1024
14:37:00.579145,-1
14:37:00.579145,7
14:37:00.579145,3584
14:37:00.579145,0
14:37:00.579145,2
14:37:00.579145,-4352
14:37:00.579145,-1
14:37:00.579145,-63
14:37:00.579145,-5889
14:37:00.579145,-1
14:37:00.579145,420
14:37:00.579145,-19456
14:37:00.579145,4
14:37:00.579145,1528
14:37:00.579145,-2560
14:37:00.579145,3
14:37:00.579145,350
14:37:00.579145,17408
14:37:00.579145,0
14:37:00.579145,-34
14:37:00.579145,32255
14:37:00.579145,-1
14:37:00.579145,-155
14:37:00.579145,31743
14:37:00.579145,-1
14:37:00.579145,-138
14:37:00.579145,29183
14:37:00.579145,-1
14:37:00.579145,-131
14:37:00.579145,-31489
14:37:00.579145,-1
14:37:00.579145,-119
14:37:00.579145,-27137
14:37:00.579145,-1
14:37:00.579145,-94
14:37:00.579145,-22785
14:37:00.579145,-1
14:37:00.579145,-82
14:37:01.207175,-70
14:37:01.207175,-14593
14:37:01.207175,-1
14:37:01.207175,-41
14:37:01.207175,-7169
14:37:01.207175,-1
14:37:01.207175,-17
14:37:01.207175,1279
14:37:01.207175,0
14:37:01.207175,29
14:37:01.207175,14080
14:37:01.207175,0
14:37:01.207175,82
14:37:01.207175,23552
14:37:01.207175,0
14:37:01.207175,85
14:37:01.207175,16640
14:37:01.207175,0
14:37:01.207175,36
14:37:01.207175,-1792
14:37:01.207175,-1
14:37:01.207175,-46
14:37:01.207175,-17153
14:37:01.207175,-1
14:37:01.207175,-85
14:37:01.207175,-23297
14:37:01.207175,-1
14:37:01.207175,-92
14:37:01.207175,-23297
14:37:01.207175,-1
14:37:01.207175,-87
14:37:01.207175,-21505
14:37:01.207175,-1
14:37:01.207175,-82
14:37:01.207175,-19457
14:37:01.207175,-1
14:37:01.207175,-77
14:37:01.207175,-18177
14:37:01.207175,-1
14:37:01.207175,-70
14:37:01.207175,-17665
14:37:01.207175,-1
14:37:01.207175,-65
14:37:01.207175,-15873
14:37:01.207175,-1
14:37:01.207175,-60
14:37:01.207175,-14593
14:37:01.207175,-1
14:37:01.207175,-53
14:37:01.207175,-12033
14:37:01.207175,-1
14:37:01.207175,-48
14:37:01.207175,-12033
14:37:01.207175,-1
14:37:01.207175,-41
14:37:01.207175,-9473
14:37:01.207175,-1
14:37:01.207175,-36
14:37:01.207175,-7681
14:37:01.207175,-1
14:37:01.207175,-31
14:37:01.207175,-7169
14:37:01.207175,-1
14:37:01.207175,-26
14:37:01.207175,-5889
14:37:01.207175,-1
14:37:01.207175,-19
14:37:01.207175,-4609
14:37:01.207175,-1
14:37:01.207175,-17
14:37:01.207175,-3329
14:37:01.207175,-1
14:37:01.207175,-12
14:37:01.207175,-2817
14:37:01.207175,-1
14:37:01.207175,-14
14:37:01.207175,-3329
14:37:01.207175,-1
14:37:01.207175,-14
14:37:01.207175,-3329
14:37:01.207175,-1
14:37:01.207175,-12
14:37:01.207175,-2817
14:37:01.207175,-1
14:37:01.207175,-14
14:37:01.207175,-3329
14:37:01.207175,-1
14:37:01.207175,-14
14:37:01.207175,-2817
14:37:01.207175,-1
14:37:01.207175,-9
14:37:01.207175,-2817
14:37:01.207175,-1
14:37:01.207175,-9
14:37:01.207175,-1537
14:37:01.207175,-1
14:37:01.207175,-4
14:37:01.207175,-1537
14:37:01.207175,-1
14:37:01.207175,-7
14:37:01.207175,-1537
14:37:01.207175,-1
14:37:01.207175,-7
14:37:01.207175,-769
14:37:01.207175,-1
14:37:01.207175,-2
14:37:01.207175,-257
14:37:01.207175,-1
14:37:01.207175,-2
14:37:01.702991,-14
14:37:01.702991,-5889
14:37:01.702991,-1
14:37:01.702991,-24
14:37:01.702991,-6401
14:37:01.702991,-1
14:37:01.702991,-24
14:37:01.702991,-2049
14:37:01.702991,-1
14:37:01.702991,2
14:37:01.702991,6656
14:37:01.702991,0
14:37:01.702991,51
14:37:01.702991,9216
14:37:01.702991,0
14:37:01.702991,14
14:37:01.702991,6656
14:37:01.702991,0
14:37:01.702991,43
14:37:01.702991,9216
14:37:01.702991,0
14:37:01.702991,14
14:37:01.702991,-7424
14:37:01.702991,-1
14:37:01.702991,-31
14:37:01.702991,9983
14:37:01.702991,1
14:37:01.702991,1026
14:37:01.702991,-5376
14:37:01.702991,5
14:37:01.702991,1170
14:37:01.702991,-7936
14:37:01.702991,1
14:37:01.702991,133
14:37:01.702991,5376
14:37:01.702991,0
14:37:01.702991,-87
14:37:01.702991,-32513
14:37:01.702991,-1
14:37:01.702991,-107
14:37:01.702991,-28161
14:37:01.702991,-1
14:37:01.702991,-121
14:37:01.702991,-28929
14:37:01.702991,-1
14:37:01.702991,-104
14:37:01.702991,-23809
14:37:01.702991,-1
14:37:01.702991,-85
14:37:01.702991,-19457
14:37:01.702991,-1
14:37:01.702991,-63
14:37:01.702991,-12033
14:37:01.702991,-1
14:37:01.702991,-43
