timestamp,ecg,reconstructed_time
2025-11-07 14:36:31.419519,-34,2025-11-07 14:36:31.419519000
2025-11-07 14:36:31.419519,-2817,2025-11-07 14:36:31.427211308
2025-11-07 14:36:31.419519,-1,2025-11-07 14:36:31.434903615
2025-11-07 14:36:31.419519,7,2025-11-07 14:36:31.442595923
2025-11-07 14:36:31.419519,6144,2025-11-07 14:36:31.450288231
2025-11-07 14:36:31.419519,0,2025-11-07 14:36:31.457980538
2025-11-07 14:36:31.419519,38,2025-11-07 14:36:31.465672846
2025-11-07 14:36:31.419519,11008,2025-11-07 14:36:31.473365154
2025-11-07 14:36:31.419519,0,2025-11-07 14:36:31.481057462
2025-11-07 14:36:31.419519,38,2025-11-07 14:36:31.488749769
2025-11-07 14:36:31.419519,6144,2025-11-07 14:36:31.496442077
2025-11-07 14:36:31.419519,0,2025-11-07 14:36:31.504134385
2025-11-07 14:36:31.419519,-2,2025-11-07 14:36:31.511826692
2025-11-07 14:36:31.419519,-10753,2025-11-07 14:36:31.519519000
2025-11-07 14:36:31.419519,-1,2025-11-07 14:36:31.527211308
2025-11-07 14:36:31.419519,-77,2025-11-07 14:36:31.534903615
2025-11-07 14:36:31.419519,-23297,2025-11-07 14:36:31.542595923
2025-11-07 14:36:31.419519,-1,2025-11-07 14:36:31.550288231
2025-11-07 14:36:31.419519,-104,2025-11-07 14:36:31.557980538
2025-11-07 14:36:31.419519,-28929,2025-11-07 14:36:31.565672846
2025-11-07 14:36:31.419519,-1,2025-11-07 14:36:31.573365154
2025-11-07 14:36:31.419519,-114,2025-11-07 14:36:31.581057462
2025-11-07 14:36:31.419519,-28161,2025-11-07 14:36:31.588749769
2025-11-07 14:36:31.419519,-1,2025-11-07 14:36:31.596442077
2025-11-07 14:36:31.419519,-109,2025-11-07 14:36:31.604134385
2025-11-07 14:36:31.419519,-25857,2025-11-07 14:36:31.611826692
2025-11-07 14:36:31.419519,-1,2025-11-07 14:36:31.619519000
2025-11-07 14:36:31.419519,-97,2025-11-07 14:36:31.627211308
2025-11-07 14:36:31.419519,-24577,2025-11-07 14:36:31.634903615
2025-11-07 14:36:31.419519,-1,2025-11-07 14:36:31.642595923
2025-11-07 14:36:31.419519,-94,2025-11-07 14:36:31.650288231
2025-11-07 14:36:31.419519,-22785,2025-11-07 14:36:31.657980538
2025-11-07 14:36:31.419519,-1,2025-11-07 14:36:31.665672846
2025-11-07 14:36:31.419519,-87,2025-11-07 14:36:31.673365154
2025-11-07 14:36:31.419519,-22017,2025-11-07 14:36:31.681057462
2025-11-07 14:36:31.419519,-1,2025-11-07 14:36:31.688749769
2025-11-07 14:36:31.419519,-82,2025-11-07 14:36:31.696442077
2025-11-07 14:36:31.419519,-18945,2025-11-07 14:36:31.704134385
2025-11-07 14:36:31.419519,-1,2025-11-07 14:36:31.711826692
2025-11-07 14:36:31.419519,-70,2025-11-07 14:36:31.719519000
2025-11-07 14:36:31.419519,-17665,2025-11-07 14:36:31.727211308
2025-11-07 14:36:31.419519,-1,2025-11-07 14:36:31.734903615
2025-11-07 14:36:31.419519,-68,2025-11-07 14:36:31.742595923
2025-11-07 14:36:31.419519,-16385,2025-11-07 14:36:31.750288231
2025-11-07 14:36:31.419519,-1,2025-11-07 14:36:31.757980538
2025-11-07 14:36:31.419519,-60,2025-11-07 14:36:31.765672846
2025-11-07 14:36:31.419519,-14593,2025-11-07 14:36:31.773365154
2025-11-07 14:36:31.419519,-1,2025-11-07 14:36:31.781057462
2025-11-07 14:36:31.419519,-55,2025-11-07 14:36:31.788749769
2025-11-07 14:36:31.419519,-13313,2025-11-07 14:36:31.796442077
2025-11-07 14:36:31.419519,-1,2025-11-07 14:36:31.804134385
2025-11-07 14:36:31.419519,-53,2025-11-07 14:36:31.811826692
2025-11-07 14:36:31.419519,-12801,2025-11-07 14:36:31.819519000
2025-11-07 14:36:31.419519,-1,2025-11-07 14:36:31.827211308
2025-11-07 14:36:31.419519,-43,2025-11-07 14:36:31.834903615
2025-11-07 14:36:31.419519,-10241,2025-11-07 14:36:31.842595923
2025-11-07 14:36:31.419519,-1,2025-11-07 14:36:31.850288231
2025-11-07 14:36:31.419519,-43,2025-11-07 14:36:31.857980538
2025-11-07 14:36:31.419519,-10753,2025-11-07 14:36:31.865672846
2025-11-07 14:36:31.419519,-1,2025-11-07 14:36:31.873365154
2025-11-07 14:36:31.419519,-41,2025-11-07 14:36:31.881057462
2025-11-07 14:36:31.419519,-10241,2025-11-07 14:36:31.888749769
2025-11-07 14:36:31.419519,-1,2025-11-07 14:36:31.896442077
2025-11-07 14:36:31.419519,-41,2025-11-07 14:36:31.904134385
2025-11-07 14:36:31.419519,-8961,2025-11-07 14:36:31.911826692
2025-11-07 14:36:31.419519,-1,2025-11-07 14:36:31.919519000
2025-11-07 14:36:31.419519,-34,2025-11-07 14:36:31.927211308
2025-11-07 14:36:31.419519,-7681,2025-11-07 14:36:31.934903615
2025-11-07 14:36:31.419519,-1,2025-11-07 14:36:31.942595923
2025-11-07 14:36:31.419519,-31,2025-11-07 14:36:31.950288230
2025-11-07 14:36:31.419519,-7681,2025-11-07 14:36:31.957980538
2025-11-07 14:36:31.419519,-1,2025-11-07 14:36:31.965672846
2025-11-07 14:36:31.419519,-34,2025-11-07 14:36:31.973365154
2025-11-07 14:36:31.419519,-7169,2025-11-07 14:36:31.981057462
2025-11-07 14:36:31.419519,-1,2025-11-07 14:36:31.988749769
2025-11-07 14:36:31.419519,-26,2025-11-07 14:36:31.996442077
2025-11-07 14:36:31.419519,-7169,2025-11-07 14:36:32.004134385
2025-11-07 14:36:31.419519,-1,2025-11-07 14:36:32.011826692
2025-11-07 14:36:31.419519,-31,2025-11-07 14:36:32.019519000
2025-11-07 14:36:31.419519,-7169,2025-11-07 14:36:32.027211308
2025-11-07 14:36:31.419519,-1,2025-11-07 14:36:32.034903615
2025-11-07 14:36:31.419519,-29,2025-11-07 14:36:32.042595923
2025-11-07 14:36:31.419519,-7681,2025-11-07 14:36:32.050288231
2025-11-07 14:36:31.419519,-1,2025-11-07 14:36:32.057980538
2025-11-07 14:36:31.419519,-31,2025-11-07 14:36:32.065672846
2025-11-07 14:36:31.419519,-7169,2025-11-07 14:36:32.073365154
2025-11-07 14:36:31.419519,-1,2025-11-07 14:36:32.081057462
2025-11-07 14:36:31.419519,-31,2025-11-07 14:36:32.088749769
2025-11-07 14:36:31.419519,-10241,2025-11-07 14:36:32.096442077
2025-11-07 14:36:31.419519,-1,2025-11-07 14:36:32.104134385
2025-11-07 14:36:31.419519,-48,2025-11-07 14:36:32.111826692
2025-11-07 14:36:31.419519,-13825,2025-11-07 14:36:32.119519000
2025-11-07 14:36:31.419519,-1,2025-11-07 14:36:32.127211308
2025-11-07 14:36:31.419519,-58,2025-11-07 14:36:32.134903615
2025-11-07 14:36:31.419519,-14593,2025-11-07 14:36:32.142595923
2025-11-07 14:36:31.419519,-1,2025-11-07 14:36:32.150288231
2025-11-07 14:36:31.419519,-46,2025-11-07 14:36:32.157980538
2025-11-07 14:36:31.419519,-5889,2025-11-07 14:36:32.165672846
2025-11-07 14:36:31.419519,-1,2025-11-07 14:36:32.173365154
2025-11-07 14:36:31.419519,2,2025-11-07 14:36:32.181057462
2025-11-07 14:36:31.419519,4864,2025-11-07 14:36:32.188749769
2025-11-07 14:36:31.419519,0,2025-11-07 14:36:32.196442077
2025-11-07 14:36:31.419519,7,2025-11-07 14:36:32.204134385
2025-11-07 14:36:31.419519,-3072,2025-11-07 14:36:32.211826692
2025-11-07 14:36:31.419519,-1,2025-11-07 14:36:32.219519000
2025-11-07 14:36:31.419519,-7,2025-11-07 14:36:32.227211308
2025-11-07 14:36:31.419519,767,2025-11-07 14:36:32.234903615
2025-11-07 14:36:31.419519,0,2025-11-07 14:36:32.242595923
2025-11-07 14:36:31.419519,0,2025-11-07 14:36:32.250288231
2025-11-07 14:36:32.001832,-17,2025-11-07 14:36:32.257980538
2025-11-07 14:36:32.001832,-13313,2025-11-07 14:36:32.265672846
2025-11-07 14:36:32.001832,-1,2025-11-07 14:36:32.273365154
2025-11-07 14:36:32.001832,-46,2025-11-07 14:36:32.281057462
2025-11-07 14:36:32.001832,10495,2025-11-07 14:36:32.288749769
2025-11-07 14:36:32.001832,1,2025-11-07 14:36:32.296442077
2025-11-07 14:36:32.001832,1056,2025-11-07 14:36:32.304134385
2025-11-07 14:36:32.001832,-5888,2025-11-07 14:36:32.311826692
2025-11-07 14:36:32.001832,5,2025-11-07 14:36:32.319519000
2025-11-07 14:36:32.001832,1112,2025-11-07 14:36:32.327211308
2025-11-07 14:36:32.001832,-16640,2025-11-07 14:36:32.334903615
2025-11-07 14:36:32.001832,1,2025-11-07 14:36:32.342595923
2025-11-07 14:36:32.001832,121,2025-11-07 14:36:32.350288231
2025-11-07 14:36:32.001832,-1792,2025-11-07 14:36:32.357980538
2025-11-07 14:36:32.001832,-1,2025-11-07 14:36:32.365672846
2025-11-07 14:36:32.001832,-111,2025-11-07 14:36:32.373365154
2025-11-07 14:36:32.001832,29183,2025-11-07 14:36:32.381057462
2025-11-07 14:36:32.001832,-1,2025-11-07 14:36:32.388749769
2025-11-07 14:36:32.001832,-128,2025-11-07 14:36:32.396442077
2025-11-07 14:36:32.001832,30975,2025-11-07 14:36:32.404134385
2025-11-07 14:36:32.001832,-1,2025-11-07 14:36:32.411826692
2025-11-07 14:36:32.001832,-138,2025-11-07 14:36:32.419519000
2025-11-07 14:36:32.001832,-32001,2025-11-07 14:36:32.427211308
2025-11-07 14:36:32.001832,-1,2025-11-07 14:36:32.434903615
2025-11-07 14:36:32.001832,-119,2025-11-07 14:36:32.442595923
2025-11-07 14:36:32.001832,-28161,2025-11-07 14:36:32.450288231
2025-11-07 14:36:32.001832,-1,2025-11-07 14:36:32.457980538
2025-11-07 14:36:32.001832,-104,2025-11-07 14:36:32.465672846
2025-11-07 14:36:32.001832,-23809,2025-11-07 14:36:32.473365154
2025-11-07 14:36:32.001832,-1,2025-11-07 14:36:32.481057462
2025-11-07 14:36:32.001832,-85,2025-11-07 14:36:32.488749769
2025-11-07 14:36:32.001832,-18945,2025-11-07 14:36:32.496442077
2025-11-07 14:36:32.001832,-1,2025-11-07 14:36:32.504134385
2025-11-07 14:36:32.001832,-63,2025-11-07 14:36:32.511826692
2025-11-07 14:36:32.001832,-13313,2025-11-07 14:36:32.519519000
2025-11-07 14:36:32.001832,-1,2025-11-07 14:36:32.527211308
2025-11-07 14:36:32.001832,-43,2025-11-07 14:36:32.534903615
2025-11-07 14:36:32.001832,-5889,2025-11-07 14:36:32.542595923
2025-11-07 14:36:32.001832,-1,2025-11-07 14:36:32.550288231
2025-11-07 14:36:32.001832,-2,2025-11-07 14:36:32.557980538
2025-11-07 14:36:32.001832,3327,2025-11-07 14:36:32.565672846
2025-11-07 14:36:32.001832,0,2025-11-07 14:36:32.573365154
2025-11-07 14:36:32.001832,31,2025-11-07 14:36:32.581057462
2025-11-07 14:36:32.001832,13056,2025-11-07 14:36:32.588749769
2025-11-07 14:36:32.001832,0,2025-11-07 14:36:32.596442077
2025-11-07 14:36:32.001832,63,2025-11-07 14:36:32.604134385
2025-11-07 14:36:32.001832,17920,2025-11-07 14:36:32.611826692
2025-11-07 14:36:32.001832,0,2025-11-07 14:36:32.619519000
2025-11-07 14:36:32.001832,70,2025-11-07 14:36:32.627211308
2025-11-07 14:36:32.001832,13568,2025-11-07 14:36:32.634903615
2025-11-07 14:36:32.001832,0,2025-11-07 14:36:32.642595923
2025-11-07 14:36:32.001832,14,2025-11-07 14:36:32.650288231
2025-11-07 14:36:32.001832,-7936,2025-11-07 14:36:32.657980538
2025-11-07 14:36:32.001832,-1,2025-11-07 14:36:32.665672846
2025-11-07 14:36:32.001832,-70,2025-11-07 14:36:32.673365154
2025-11-07 14:36:32.001832,-23297,2025-11-07 14:36:32.681057462
2025-11-07 14:36:32.001832,-1,2025-11-07 14:36:32.688749769
2025-11-07 14:36:32.001832,-102,2025-11-07 14:36:32.696442077
2025-11-07 14:36:32.001832,-28161,2025-11-07 14:36:32.704134385
2025-11-07 14:36:32.001832,-1,2025-11-07 14:36:32.711826692
2025-11-07 14:36:32.001832,-114,2025-11-07 14:36:32.719519000
2025-11-07 14:36:32.001832,-28161,2025-11-07 14:36:32.727211308
2025-11-07 14:36:32.001832,-1,2025-11-07 14:36:32.734903615
2025-11-07 14:36:32.001832,-109,2025-11-07 14:36:32.742595923
2025-11-07 14:36:32.001832,-25089,2025-11-07 14:36:32.750288231
2025-11-07 14:36:32.001832,-1,2025-11-07 14:36:32.757980538
2025-11-07 14:36:32.001832,-87,2025-11-07 14:36:32.765672846
2025-11-07 14:36:32.001832,-20737,2025-11-07 14:36:32.773365154
2025-11-07 14:36:32.001832,-1,2025-11-07 14:36:32.781057462
2025-11-07 14:36:32.001832,-90,2025-11-07 14:36:32.788749769
2025-11-07 14:36:32.001832,-23809,2025-11-07 14:36:32.796442077
2025-11-07 14:36:32.001832,-1,2025-11-07 14:36:32.804134385
2025-11-07 14:36:32.001832,-77,2025-11-07 14:36:32.811826692
2025-11-07 14:36:32.001832,-15873,2025-11-07 14:36:32.819519000
2025-11-07 14:36:32.001832,-1,2025-11-07 14:36:32.827211308
2025-11-07 14:36:32.001832,-70,2025-11-07 14:36:32.834903615
2025-11-07 14:36:32.001832,-17665,2025-11-07 14:36:32.842595923
2025-11-07 14:36:32.001832,-1,2025-11-07 14:36:32.850288231
2025-11-07 14:36:32.001832,-63,2025-11-07 14:36:32.857980538
2025-11-07 14:36:32.001832,-15873,2025-11-07 14:36:32.865672846
2025-11-07 14:36:32.001832,-1,2025-11-07 14:36:32.873365154
2025-11-07 14:36:32.001832,-60,2025-11-07 14:36:32.881057462
2025-11-07 14:36:32.001832,-12801,2025-11-07 14:36:32.888749769
2025-11-07 14:36:32.001832,-1,2025-11-07 14:36:32.896442077
2025-11-07 14:36:32.001832,-48,2025-11-07 14:36:32.904134385
2025-11-07 14:36:32.001832,-11521,2025-11-07 14:36:32.911826692
2025-11-07 14:36:32.001832,-1,2025-11-07 14:36:32.919519000
2025-11-07 14:36:32.001832,-38,2025-11-07 14:36:32.927211308
2025-11-07 14:36:32.001832,-9473,2025-11-07 14:36:32.934903615
2025-11-07 14:36:32.001832,-1,2025-11-07 14:36:32.942595923
2025-11-07 14:36:32.001832,-38,2025-11-07 14:36:32.950288230
2025-11-07 14:36:32.001832,-6401,2025-11-07 14:36:32.957980538
2025-11-07 14:36:32.001832,-1,2025-11-07 14:36:32.965672846
2025-11-07 14:36:32.001832,-24,2025-11-07 14:36:32.973365154
2025-11-07 14:36:32.001832,-6401,2025-11-07 14:36:32.981057462
2025-11-07 14:36:32.001832,-1,2025-11-07 14:36:32.988749769
2025-11-07 14:36:32.001832,-17,2025-11-07 14:36:32.996442077
2025-11-07 14:36:32.001832,-2817,2025-11-07 14:36:33.004134385
2025-11-07 14:36:32.001832,-1,2025-11-07 14:36:33.011826692
2025-11-07 14:36:32.001832,-14,2025-11-07 14:36:33.019519000
2025-11-07 14:36:32.001832,-2817,2025-11-07 14:36:33.027211308
2025-11-07 14:36:32.001832,-1,2025-11-07 14:36:33.034903615
2025-11-07 14:36:32.001832,-7,2025-11-07 14:36:33.042595923
2025-11-07 14:36:32.001832,-2817,2025-11-07 14:36:33.050288231
2025-11-07 14:36:32.001832,-1,2025-11-07 14:36:33.057980538
2025-11-07 14:36:32.001832,-14,2025-11-07 14:36:33.065672846
2025-11-07 14:36:32.001832,-2049,2025-11-07 14:36:33.073365154
2025-11-07 14:36:32.001832,-1,2025-11-07 14:36:33.081057462
2025-11-07 14:36:32.001832,-2,2025-11-07 14:36:33.088749769
2025-11-07 14:36:32.544575,-2,2025-11-07 14:36:33.096442077
2025-11-07 14:36:32.544575,-257,2025-11-07 14:36:33.104134385
2025-11-07 14:36:32.544575,-1,2025-11-07 14:36:33.111826692
2025-11-07 14:36:32.544575,-7,2025-11-07 14:36:33.119519000
2025-11-07 14:36:32.544575,-1537,2025-11-07 14:36:33.127211308
2025-11-07 14:36:32.544575,-1,2025-11-07 14:36:33.134903615
2025-11-07 14:36:32.544575,0,2025-11-07 14:36:33.142595923
2025-11-07 14:36:32.544575,0,2025-11-07 14:36:33.150288231
2025-11-07 14:36:32.544575,0,2025-11-07 14:36:33.157980538
2025-11-07 14:36:32.544575,-2,2025-11-07 14:36:33.165672846
2025-11-07 14:36:32.544575,767,2025-11-07 14:36:33.173365154
2025-11-07 14:36:32.544575,0,2025-11-07 14:36:33.181057462
2025-11-07 14:36:32.544575,7,2025-11-07 14:36:33.188749769
2025-11-07 14:36:32.544575,512,2025-11-07 14:36:33.196442077
2025-11-07 14:36:32.544575,0,2025-11-07 14:36:33.204134385
2025-11-07 14:36:32.544575,4,2025-11-07 14:36:33.211826692
2025-11-07 14:36:32.544575,4352,2025-11-07 14:36:33.219519000
2025-11-07 14:36:32.544575,0,2025-11-07 14:36:33.227211308
2025-11-07 14:36:32.544575,14,2025-11-07 14:36:33.234903615
2025-11-07 14:36:32.544575,-512,2025-11-07 14:36:33.242595923
2025-11-07 14:36:32.544575,-1,2025-11-07 14:36:33.250288231
2025-11-07 14:36:32.544575,0,2025-11-07 14:36:33.257980538
2025-11-07 14:36:32.544575,1024,2025-11-07 14:36:33.265672846
2025-11-07 14:36:32.544575,0,2025-11-07 14:36:33.273365154
2025-11-07 14:36:32.544575,-4,2025-11-07 14:36:33.281057462
2025-11-07 14:36:32.544575,-1537,2025-11-07 14:36:33.288749769
2025-11-07 14:36:32.544575,-1,2025-11-07 14:36:33.296442077
2025-11-07 14:36:32.544575,0,2025-11-07 14:36:33.304134385
2025-11-07 14:36:32.544575,4352,2025-11-07 14:36:33.311826692
2025-11-07 14:36:32.544575,0,2025-11-07 14:36:33.319519000
2025-11-07 14:36:32.544575,46,2025-11-07 14:36:33.327211308
2025-11-07 14:36:32.544575,16640,2025-11-07 14:36:33.334903615
2025-11-07 14:36:32.544575,0,2025-11-07 14:36:33.342595923
2025-11-07 14:36:32.544575,43,2025-11-07 14:36:33.350288231
2025-11-07 14:36:32.544575,5376,2025-11-07 14:36:33.357980538
2025-11-07 14:36:32.544575,0,2025-11-07 14:36:33.365672846
2025-11-07 14:36:32.544575,36,2025-11-07 14:36:33.373365154
2025-11-07 14:36:32.544575,11776,2025-11-07 14:36:33.381057462
2025-11-07 14:36:32.544575,0,2025-11-07 14:36:33.388749769
2025-11-07 14:36:32.544575,36,2025-11-07 14:36:33.396442077
2025-11-07 14:36:32.544575,4864,2025-11-07 14:36:33.404134385
2025-11-07 14:36:32.544575,0,2025-11-07 14:36:33.411826692
2025-11-07 14:36:32.544575,-9,2025-11-07 14:36:33.419519000
2025-11-07 14:36:32.544575,255,2025-11-07 14:36:33.427211308
2025-11-07 14:36:32.544575,0,2025-11-07 14:36:33.434903615
2025-11-07 14:36:32.544575,323,2025-11-07 14:36:33.442595923
2025-11-07 14:36:32.544575,512,2025-11-07 14:36:33.450288231
2025-11-07 14:36:32.544575,4,2025-11-07 14:36:33.457980538
2025-11-07 14:36:32.544575,1421,2025-11-07 14:36:33.465672846
2025-11-07 14:36:32.544575,-6144,2025-11-07 14:36:33.473365154
2025-11-07 14:36:32.544575,3,2025-11-07 14:36:33.481057462
2025-11-07 14:36:32.544575,384,2025-11-07 14:36:33.488749769
2025-11-07 14:36:32.544575,-28928,2025-11-07 14:36:33.496442077
2025-11-07 14:36:32.544575,0,2025-11-07 14:36:33.504134385
2025-11-07 14:36:32.544575,41,2025-11-07 14:36:33.511826692
2025-11-07 14:36:32.544575,-18432,2025-11-07 14:36:33.519519000
2025-11-07 14:36:32.544575,-1,2025-11-07 14:36:33.527211308
2025-11-07 14:36:32.544575,-104,2025-11-07 14:36:33.534903615
2025-11-07 14:36:32.544575,-24577,2025-11-07 14:36:33.542595923
2025-11-07 14:36:32.544575,-1,2025-11-07 14:36:33.550288231
2025-11-07 14:36:32.544575,-107,2025-11-07 14:36:33.557980538
2025-11-07 14:36:32.544575,-25089,2025-11-07 14:36:33.565672846
2025-11-07 14:36:32.544575,-1,2025-11-07 14:36:33.573365154
2025-11-07 14:36:32.544575,-85,2025-11-07 14:36:33.581057462
2025-11-07 14:36:32.544575,-20225,2025-11-07 14:36:33.588749769
2025-11-07 14:36:32.544575,-1,2025-11-07 14:36:33.596442077
2025-11-07 14:36:32.544575,-77,2025-11-07 14:36:33.604134385
2025-11-07 14:36:32.544575,-17153,2025-11-07 14:36:33.611826692
2025-11-07 14:36:32.544575,-1,2025-11-07 14:36:33.619519000
2025-11-07 14:36:32.544575,-60,2025-11-07 14:36:33.627211308
2025-11-07 14:36:32.544575,-10753,2025-11-07 14:36:33.634903615
2025-11-07 14:36:32.544575,-1,2025-11-07 14:36:33.642595923
2025-11-07 14:36:32.544575,-29,2025-11-07 14:36:33.650288231
2025-11-07 14:36:32.544575,-7169,2025-11-07 14:36:33.657980538
2025-11-07 14:36:32.544575,-1,2025-11-07 14:36:33.665672846
2025-11-07 14:36:32.544575,-26,2025-11-07 14:36:33.673365154
2025-11-07 14:36:32.544575,255,2025-11-07 14:36:33.681057462
2025-11-07 14:36:32.544575,0,2025-11-07 14:36:33.688749769
2025-11-07 14:36:32.544575,21,2025-11-07 14:36:33.696442077
2025-11-07 14:36:32.544575,9216,2025-11-07 14:36:33.704134385
2025-11-07 14:36:32.544575,0,2025-11-07 14:36:33.711826692
2025-11-07 14:36:32.544575,60,2025-11-07 14:36:33.719519000
2025-11-07 14:36:32.544575,20992,2025-11-07 14:36:33.727211308
2025-11-07 14:36:32.544575,0,2025-11-07 14:36:33.734903615
2025-11-07 14:36:32.544575,90,2025-11-07 14:36:33.742595923
2025-11-07 14:36:32.544575,24832,2025-11-07 14:36:33.750288231
2025-11-07 14:36:32.544575,0,2025-11-07 14:36:33.757980538
2025-11-07 14:36:32.544575,107,2025-11-07 14:36:33.765672846
2025-11-07 14:36:32.544575,26624,2025-11-07 14:36:33.773365154
2025-11-07 14:36:32.544575,0,2025-11-07 14:36:33.781057462
2025-11-07 14:36:32.544575,77,2025-11-07 14:36:33.788749769
2025-11-07 14:36:32.544575,10496,2025-11-07 14:36:33.796442077
2025-11-07 14:36:32.544575,0,2025-11-07 14:36:33.804134385
2025-11-07 14:36:32.544575,2,2025-11-07 14:36:33.811826692
2025-11-07 14:36:32.544575,-9728,2025-11-07 14:36:33.819519000
2025-11-07 14:36:32.544575,-1,2025-11-07 14:36:33.827211308
2025-11-07 14:36:32.544575,-68,2025-11-07 14:36:33.834903615
2025-11-07 14:36:32.544575,-18945,2025-11-07 14:36:33.842595923
2025-11-07 14:36:32.544575,-1,2025-11-07 14:36:33.850288231
2025-11-07 14:36:32.544575,-70,2025-11-07 14:36:33.857980538
2025-11-07 14:36:32.544575,-18945,2025-11-07 14:36:33.865672846
2025-11-07 14:36:32.544575,-1,2025-11-07 14:36:33.873365154
2025-11-07 14:36:32.544575,-80,2025-11-07 14:36:33.881057462
2025-11-07 14:36:32.544575,-18945,2025-11-07 14:36:33.888749769
2025-11-07 14:36:32.544575,-1,2025-11-07 14:36:33.896442077
2025-11-07 14:36:32.544575,-72,2025-11-07 14:36:33.904134385
2025-11-07 14:36:32.544575,-17665,2025-11-07 14:36:33.911826692
2025-11-07 14:36:32.544575,-1,2025-11-07 14:36:33.919519000
2025-11-07 14:36:32.544575,-65,2025-11-07 14:36:33.927211308
2025-11-07 14:36:33.084384,-63,2025-11-07 14:36:33.934903615
2025-11-07 14:36:33.084384,-15105,2025-11-07 14:36:33.942595923
2025-11-07 14:36:33.084384,-1,2025-11-07 14:36:33.950288230
2025-11-07 14:36:33.084384,-58,2025-11-07 14:36:33.957980538
2025-11-07 14:36:33.084384,-13313,2025-11-07 14:36:33.965672846
2025-11-07 14:36:33.084384,-1,2025-11-07 14:36:33.973365154
2025-11-07 14:36:33.084384,-46,2025-11-07 14:36:33.981057462
2025-11-07 14:36:33.084384,-10753,2025-11-07 14:36:33.988749769
2025-11-07 14:36:33.084384,-1,2025-11-07 14:36:33.996442077
2025-11-07 14:36:33.084384,-48,2025-11-07 14:36:34.004134385
2025-11-07 14:36:33.084384,-10241,2025-11-07 14:36:34.011826692
2025-11-07 14:36:33.084384,-1,2025-11-07 14:36:34.019519000
2025-11-07 14:36:33.084384,-19,2025-11-07 14:36:34.027211308
2025-11-07 14:36:33.084384,-1537,2025-11-07 14:36:34.034903615
2025-11-07 14:36:33.084384,-1,2025-11-07 14:36:34.042595923
2025-11-07 14:36:33.084384,-17,2025-11-07 14:36:34.050288231
2025-11-07 14:36:33.084384,-4609,2025-11-07 14:36:34.057980538
2025-11-07 14:36:33.084384,-1,2025-11-07 14:36:34.065672846
2025-11-07 14:36:33.084384,-9,2025-11-07 14:36:34.073365154
2025-11-07 14:36:33.084384,-769,2025-11-07 14:36:34.081057462
2025-11-07 14:36:33.084384,-1,2025-11-07 14:36:34.088749769
2025-11-07 14:36:33.084384,-9,2025-11-07 14:36:34.096442077
2025-11-07 14:36:33.084384,-2049,2025-11-07 14:36:34.104134385
2025-11-07 14:36:33.084384,-1,2025-11-07 14:36:34.111826692
2025-11-07 14:36:33.084384,-7,2025-11-07 14:36:34.119519000
2025-11-07 14:36:33.084384,-1537,2025-11-07 14:36:34.127211308
2025-11-07 14:36:33.084384,-1,2025-11-07 14:36:34.134903615
2025-11-07 14:36:33.084384,-9,2025-11-07 14:36:34.142595923
2025-11-07 14:36:33.084384,-2049,2025-11-07 14:36:34.150288231
2025-11-07 14:36:33.084384,-1,2025-11-07 14:36:34.157980538
2025-11-07 14:36:33.084384,-7,2025-11-07 14:36:34.165672846
2025-11-07 14:36:33.084384,-1537,2025-11-07 14:36:34.173365154
2025-11-07 14:36:33.084384,-1,2025-11-07 14:36:34.181057462
2025-11-07 14:36:33.084384,-7,2025-11-07 14:36:34.188749769
2025-11-07 14:36:33.084384,-257,2025-11-07 14:36:34.196442077
2025-11-07 14:36:33.084384,-1,2025-11-07 14:36:34.204134385
2025-11-07 14:36:33.084384,-2,2025-11-07 14:36:34.211826692
2025-11-07 14:36:33.084384,-769,2025-11-07 14:36:34.219519000
2025-11-07 14:36:33.084384,-1,2025-11-07 14:36:34.227211308
2025-11-07 14:36:33.084384,-4,2025-11-07 14:36:34.234903615
2025-11-07 14:36:33.084384,-1537,2025-11-07 14:36:34.242595923
2025-11-07 14:36:33.084384,-1,2025-11-07 14:36:34.250288231
2025-11-07 14:36:33.084384,-9,2025-11-07 14:36:34.257980538
2025-11-07 14:36:33.084384,-3329,2025-11-07 14:36:34.265672846
2025-11-07 14:36:33.084384,-1,2025-11-07 14:36:34.273365154
2025-11-07 14:36:33.084384,-12,2025-11-07 14:36:34.281057462
2025-11-07 14:36:33.084384,-1537,2025-11-07 14:36:34.288749769
2025-11-07 14:36:33.084384,-1,2025-11-07 14:36:34.296442077
2025-11-07 14:36:33.084384,-4,2025-11-07 14:36:34.304134385
2025-11-07 14:36:33.084384,-2817,2025-11-07 14:36:34.311826692
2025-11-07 14:36:33.084384,-1,2025-11-07 14:36:34.319519000
2025-11-07 14:36:33.084384,-17,2025-11-07 14:36:34.327211308
2025-11-07 14:36:33.084384,-3329,2025-11-07 14:36:34.334903615
2025-11-07 14:36:33.084384,-1,2025-11-07 14:36:34.342595923
2025-11-07 14:36:33.084384,-17,2025-11-07 14:36:34.350288231
2025-11-07 14:36:33.084384,-7169,2025-11-07 14:36:34.357980538
2025-11-07 14:36:33.084384,-1,2025-11-07 14:36:34.365672846
2025-11-07 14:36:33.084384,-36,2025-11-07 14:36:34.373365154
2025-11-07 14:36:33.084384,-9473,2025-11-07 14:36:34.381057462
2025-11-07 14:36:33.084384,-1,2025-11-07 14:36:34.388749769
2025-11-07 14:36:33.084384,-48,2025-11-07 14:36:34.396442077
2025-11-07 14:36:33.084384,-10753,2025-11-07 14:36:34.404134385
2025-11-07 14:36:33.084384,-1,2025-11-07 14:36:34.411826692
2025-11-07 14:36:33.084384,-21,2025-11-07 14:36:34.419519000
2025-11-07 14:36:33.084384,767,2025-11-07 14:36:34.427211308
2025-11-07 14:36:33.084384,0,2025-11-07 14:36:34.434903615
2025-11-07 14:36:33.084384,21,2025-11-07 14:36:34.442595923
2025-11-07 14:36:33.084384,4864,2025-11-07 14:36:34.450288231
2025-11-07 14:36:33.084384,0,2025-11-07 14:36:34.457980538
2025-11-07 14:36:33.084384,0,2025-11-07 14:36:34.465672846
2025-11-07 14:36:33.084384,-512,2025-11-07 14:36:34.473365154
2025-11-07 14:36:33.084384,-1,2025-11-07 14:36:34.481057462
2025-11-07 14:36:33.084384,9,2025-11-07 14:36:34.488749769
2025-11-07 14:36:33.084384,1792,2025-11-07 14:36:34.496442077
2025-11-07 14:36:33.084384,0,2025-11-07 14:36:34.504134385
2025-11-07 14:36:33.084384,-4,2025-11-07 14:36:34.511826692
2025-11-07 14:36:33.084384,-8449,2025-11-07 14:36:34.519519000
2025-11-07 14:36:33.084384,-1,2025-11-07 14:36:34.527211308
2025-11-07 14:36:33.084384,-72,2025-11-07 14:36:34.534903615
2025-11-07 14:36:33.084384,23295,2025-11-07 14:36:34.542595923
2025-11-07 14:36:33.084384,0,2025-11-07 14:36:34.550288231
2025-11-07 14:36:33.084384,703,2025-11-07 14:36:34.557980538
2025-11-07 14:36:33.084384,21760,2025-11-07 14:36:34.565672846
2025-11-07 14:36:33.084384,5,2025-11-07 14:36:34.573365154
2025-11-07 14:36:33.084384,1275,2025-11-07 14:36:34.581057462
2025-11-07 14:36:33.084384,24576,2025-11-07 14:36:34.588749769
2025-11-07 14:36:33.084384,2,2025-11-07 14:36:34.596442077
2025-11-07 14:36:33.084384,172,2025-11-07 14:36:34.604134385
2025-11-07 14:36:33.084384,9728,2025-11-07 14:36:34.611826692
2025-11-07 14:36:33.084384,0,2025-11-07 14:36:34.619519000
2025-11-07 14:36:33.084384,-80,2025-11-07 14:36:34.627211308
2025-11-07 14:36:33.084384,25343,2025-11-07 14:36:34.634903615
2025-11-07 14:36:33.084384,-1,2025-11-07 14:36:34.642595923
2025-11-07 14:36:33.084384,-150,2025-11-07 14:36:34.650288231
2025-11-07 14:36:33.084384,27903,2025-11-07 14:36:34.657980538
2025-11-07 14:36:33.084384,-1,2025-11-07 14:36:34.665672846
2025-11-07 14:36:33.084384,-160,2025-11-07 14:36:34.673365154
2025-11-07 14:36:33.084384,28671,2025-11-07 14:36:34.681057462
2025-11-07 14:36:33.084384,-1,2025-11-07 14:36:34.688749769
2025-11-07 14:36:33.084384,-133,2025-11-07 14:36:34.696442077
2025-11-07 14:36:33.084384,32255,2025-11-07 14:36:34.704134385
2025-11-07 14:36:33.084384,-1,2025-11-07 14:36:34.711826692
2025-11-07 14:36:33.084384,-124,2025-11-07 14:36:34.719519000
2025-11-07 14:36:33.084384,-28929,2025-11-07 14:36:34.727211308
2025-11-07 14:36:33.084384,-1,2025-11-07 14:36:34.734903615
2025-11-07 14:36:33.084384,-107,2025-11-07 14:36:34.742595923
2025-11-07 14:36:33.084384,-24577,2025-11-07 14:36:34.750288231
2025-11-07 14:36:33.084384,-1,2025-11-07 14:36:34.757980538
2025-11-07 14:36:33.084384,-82,2025-11-07 14:36:34.765672846
2025-11-07 14:36:33.713193,-72,2025-11-07 14:36:34.773365154
2025-11-07 14:36:33.713193,-14593,2025-11-07 14:36:34.781057462
2025-11-07 14:36:33.713193,-1,2025-11-07 14:36:34.788749769
2025-11-07 14:36:33.713193,-43,2025-11-07 14:36:34.796442077
2025-11-07 14:36:33.713193,-6401,2025-11-07 14:36:34.804134385
2025-11-07 14:36:33.713193,-1,2025-11-07 14:36:34.811826692
2025-11-07 14:36:33.713193,-2,2025-11-07 14:36:34.819519000
2025-11-07 14:36:33.713193,6911,2025-11-07 14:36:34.827211308
2025-11-07 14:36:33.713193,0,2025-11-07 14:36:34.834903615
2025-11-07 14:36:33.713193,51,2025-11-07 14:36:34.842595923
2025-11-07 14:36:33.713193,14848,2025-11-07 14:36:34.850288231
2025-11-07 14:36:33.713193,0,2025-11-07 14:36:34.857980538
2025-11-07 14:36:33.713193,60,2025-11-07 14:36:34.865672846
2025-11-07 14:36:33.713193,15360,2025-11-07 14:36:34.873365154
2025-11-07 14:36:33.713193,0,2025-11-07 14:36:34.881057462
2025-11-07 14:36:33.713193,51,2025-11-07 14:36:34.888749769
2025-11-07 14:36:33.713193,4864,2025-11-07 14:36:34.896442077
2025-11-07 14:36:33.713193,0,2025-11-07 14:36:34.904134385
2025-11-07 14:36:33.713193,-29,2025-11-07 14:36:34.911826692
2025-11-07 14:36:33.713193,-17665,2025-11-07 14:36:34.919519000
2025-11-07 14:36:33.713193,-1,2025-11-07 14:36:34.927211308
2025-11-07 14:36:33.713193,-97,2025-11-07 14:36:34.934903615
2025-11-07 14:36:33.713193,-28161,2025-11-07 14:36:34.942595923
2025-11-07 14:36:33.713193,-1,2025-11-07 14:36:34.950288230
2025-11-07 14:36:33.713193,-116,2025-11-07 14:36:34.957980538
2025-11-07 14:36:33.713193,-28161,2025-11-07 14:36:34.965672846
2025-11-07 14:36:33.713193,-1,2025-11-07 14:36:34.973365154
2025-11-07 14:36:33.713193,-111,2025-11-07 14:36:34.981057462
2025-11-07 14:36:33.713193,-27649,2025-11-07 14:36:34.988749769
2025-11-07 14:36:33.713193,-1,2025-11-07 14:36:34.996442077
2025-11-07 14:36:33.713193,-104,2025-11-07 14:36:35.004134385
2025-11-07 14:36:33.713193,-25089,2025-11-07 14:36:35.011826692
2025-11-07 14:36:33.713193,-1,2025-11-07 14:36:35.019519000
2025-11-07 14:36:33.713193,-99,2025-11-07 14:36:35.027211308
2025-11-07 14:36:33.713193,-23809,2025-11-07 14:36:35.034903615
2025-11-07 14:36:33.713193,-1,2025-11-07 14:36:35.042595923
2025-11-07 14:36:33.713193,-90,2025-11-07 14:36:35.050288231
2025-11-07 14:36:33.713193,-22785,2025-11-07 14:36:35.057980538
2025-11-07 14:36:33.713193,-1,2025-11-07 14:36:35.065672846
2025-11-07 14:36:33.713193,-90,2025-11-07 14:36:35.073365154
2025-11-07 14:36:33.713193,-22017,2025-11-07 14:36:35.081057462
2025-11-07 14:36:33.713193,-1,2025-11-07 14:36:35.088749769
2025-11-07 14:36:33.713193,-82,2025-11-07 14:36:35.096442077
2025-11-07 14:36:33.713193,-20225,2025-11-07 14:36:35.104134385
2025-11-07 14:36:33.713193,-1,2025-11-07 14:36:35.111826692
2025-11-07 14:36:33.713193,-75,2025-11-07 14:36:35.119519000
2025-11-07 14:36:33.713193,-17665,2025-11-07 14:36:35.127211308
2025-11-07 14:36:33.713193,-1,2025-11-07 14:36:35.134903615
2025-11-07 14:36:33.713193,-68,2025-11-07 14:36:35.142595923
2025-11-07 14:36:33.713193,-15873,2025-11-07 14:36:35.150288231
2025-11-07 14:36:33.713193,-1,2025-11-07 14:36:35.157980538
2025-11-07 14:36:33.713193,-58,2025-11-07 14:36:35.165672846
2025-11-07 14:36:33.713193,-13313,2025-11-07 14:36:35.173365154
2025-11-07 14:36:33.713193,-1,2025-11-07 14:36:35.181057462
2025-11-07 14:36:33.713193,-55,2025-11-07 14:36:35.188749769
2025-11-07 14:36:33.713193,-13313,2025-11-07 14:36:35.196442077
2025-11-07 14:36:33.713193,-1,2025-11-07 14:36:35.204134385
2025-11-07 14:36:33.713193,-46,2025-11-07 14:36:35.211826692
2025-11-07 14:36:33.713193,-10753,2025-11-07 14:36:35.219519000
2025-11-07 14:36:33.713193,-1,2025-11-07 14:36:35.227211308
2025-11-07 14:36:33.713193,-41,2025-11-07 14:36:35.234903615
2025-11-07 14:36:33.713193,-9473,2025-11-07 14:36:35.242595923
2025-11-07 14:36:33.713193,-1,2025-11-07 14:36:35.250288231
2025-11-07 14:36:33.713193,-41,2025-11-07 14:36:35.257980538
2025-11-07 14:36:33.713193,-10241,2025-11-07 14:36:35.265672846
2025-11-07 14:36:33.713193,-1,2025-11-07 14:36:35.273365154
2025-11-07 14:36:33.713193,-36,2025-11-07 14:36:35.281057462
2025-11-07 14:36:33.713193,-8449,2025-11-07 14:36:35.288749769
2025-11-07 14:36:33.713193,-1,2025-11-07 14:36:35.296442077
2025-11-07 14:36:33.713193,-34,2025-11-07 14:36:35.304134385
2025-11-07 14:36:33.713193,-7681,2025-11-07 14:36:35.311826692
2025-11-07 14:36:33.713193,-1,2025-11-07 14:36:35.319519000
2025-11-07 14:36:33.713193,-29,2025-11-07 14:36:35.327211308
2025-11-07 14:36:33.713193,-7169,2025-11-07 14:36:35.334903615
2025-11-07 14:36:33.713193,-1,2025-11-07 14:36:35.342595923
2025-11-07 14:36:33.713193,-26,2025-11-07 14:36:35.350288231
2025-11-07 14:36:33.713193,-6401,2025-11-07 14:36:35.357980538
2025-11-07 14:36:33.713193,-1,2025-11-07 14:36:35.365672846
2025-11-07 14:36:33.713193,-26,2025-11-07 14:36:35.373365154
2025-11-07 14:36:33.713193,-6401,2025-11-07 14:36:35.381057462
2025-11-07 14:36:33.713193,-1,2025-11-07 14:36:35.388749769
2025-11-07 14:36:33.713193,-26,2025-11-07 14:36:35.396442077
2025-11-07 14:36:33.713193,-6401,2025-11-07 14:36:35.404134385
2025-11-07 14:36:33.713193,-1,2025-11-07 14:36:35.411826692
2025-11-07 14:36:33.713193,-26,2025-11-07 14:36:35.419519000
2025-11-07 14:36:33.713193,-6401,2025-11-07 14:36:35.427211308
2025-11-07 14:36:33.713193,-1,2025-11-07 14:36:35.434903615
2025-11-07 14:36:33.713193,-26,2025-11-07 14:36:35.442595923
2025-11-07 14:36:33.713193,-7169,2025-11-07 14:36:35.450288231
2025-11-07 14:36:33.713193,-1,2025-11-07 14:36:35.457980538
2025-11-07 14:36:33.713193,-29,2025-11-07 14:36:35.465672846
2025-11-07 14:36:33.713193,-7169,2025-11-07 14:36:35.473365154
2025-11-07 14:36:33.713193,-1,2025-11-07 14:36:35.481057462
2025-11-07 14:36:33.713193,-38,2025-11-07 14:36:35.488749769
2025-11-07 14:36:33.713193,-12033,2025-11-07 14:36:35.496442077
2025-11-07 14:36:33.713193,-1,2025-11-07 14:36:35.504134385
2025-11-07 14:36:33.713193,-51,2025-11-07 14:36:35.511826692
2025-11-07 14:36:33.713193,-13313,2025-11-07 14:36:35.519519000
2025-11-07 14:36:33.713193,-1,2025-11-07 14:36:35.527211308
2025-11-07 14:36:33.713193,-60,2025-11-07 14:36:35.534903615
2025-11-07 14:36:33.713193,-13313,2025-11-07 14:36:35.542595923
2025-11-07 14:36:33.713193,-1,2025-11-07 14:36:35.550288231
2025-11-07 14:36:33.713193,-31,2025-11-07 14:36:35.557980538
2025-11-07 14:36:33.713193,-769,2025-11-07 14:36:35.565672846
2025-11-07 14:36:33.713193,-1,2025-11-07 14:36:35.573365154
2025-11-07 14:36:33.713193,17,2025-11-07 14:36:35.581057462
2025-11-07 14:36:33.713193,3072,2025-11-07 14:36:35.588749769
2025-11-07 14:36:33.713193,0,2025-11-07 14:36:35.596442077
2025-11-07 14:36:33.713193,-12,2025-11-07 14:36:35.604134385
2025-11-07 14:36:34.251949,-17,2025-11-07 14:36:35.611826692
2025-11-07 14:36:34.251949,-769,2025-11-07 14:36:35.619519000
2025-11-07 14:36:34.251949,-1,2025-11-07 14:36:35.627211308
2025-11-07 14:36:34.251949,-2,2025-11-07 14:36:35.634903615
2025-11-07 14:36:34.251949,-2817,2025-11-07 14:36:35.642595923
2025-11-07 14:36:34.251949,-1,2025-11-07 14:36:35.650288231
2025-11-07 14:36:34.251949,-43,2025-11-07 14:36:35.657980538
2025-11-07 14:36:34.251949,-22785,2025-11-07 14:36:35.665672846
2025-11-07 14:36:34.251949,-1,2025-11-07 14:36:35.673365154
2025-11-07 14:36:34.251949,65,2025-11-07 14:36:35.681057462
2025-11-07 14:36:34.251949,-14848,2025-11-07 14:36:35.688749769
2025-11-07 14:36:34.251949,2,2025-11-07 14:36:35.696442077
2025-11-07 14:36:34.251949,1447,2025-11-07 14:36:35.704134385
2025-11-07 14:36:34.251949,-32000,2025-11-07 14:36:35.711826692
2025-11-07 14:36:34.251949,5,2025-11-07 14:36:35.719519000
2025-11-07 14:36:34.251949,712,2025-11-07 14:36:35.727211308
2025-11-07 14:36:34.251949,-17664,2025-11-07 14:36:35.734903615
2025-11-07 14:36:34.251949,0,2025-11-07 14:36:35.742595923
2025-11-07 14:36:34.251949,9,2025-11-07 14:36:35.750288231
2025-11-07 14:36:34.251949,-24832,2025-11-07 14:36:35.757980538
2025-11-07 14:36:34.251949,-1,2025-11-07 14:36:35.765672846
2025-11-07 14:36:34.251949,-158,2025-11-07 14:36:35.773365154
2025-11-07 14:36:34.251949,28671,2025-11-07 14:36:35.781057462
2025-11-07 14:36:34.251949,-1,2025-11-07 14:36:35.788749769
2025-11-07 14:36:34.251949,-143,2025-11-07 14:36:35.796442077
2025-11-07 14:36:34.251949,25343,2025-11-07 14:36:35.804134385
2025-11-07 14:36:34.251949,-1,2025-11-07 14:36:35.811826692
2025-11-07 14:36:34.251949,-145,2025-11-07 14:36:35.819519000
2025-11-07 14:36:34.251949,32255,2025-11-07 14:36:35.827211308
2025-11-07 14:36:34.251949,-1,2025-11-07 14:36:35.834903615
2025-11-07 14:36:34.251949,-128,2025-11-07 14:36:35.842595923
2025-11-07 14:36:34.251949,-30721,2025-11-07 14:36:35.850288231
2025-11-07 14:36:34.251949,-1,2025-11-07 14:36:35.857980538
2025-11-07 14:36:34.251949,-109,2025-11-07 14:36:35.865672846
2025-11-07 14:36:34.251949,-25089,2025-11-07 14:36:35.873365154
2025-11-07 14:36:34.251949,-1,2025-11-07 14:36:35.881057462
2025-11-07 14:36:34.251949,-90,2025-11-07 14:36:35.888749769
2025-11-07 14:36:34.251949,-18945,2025-11-07 14:36:35.896442077
2025-11-07 14:36:34.251949,-1,2025-11-07 14:36:35.904134385
2025-11-07 14:36:34.251949,-68,2025-11-07 14:36:35.911826692
2025-11-07 14:36:34.251949,-14593,2025-11-07 14:36:35.919519000
2025-11-07 14:36:34.251949,-1,2025-11-07 14:36:35.927211308
2025-11-07 14:36:34.251949,-43,2025-11-07 14:36:35.934903615
2025-11-07 14:36:34.251949,-5121,2025-11-07 14:36:35.942595923
2025-11-07 14:36:34.251949,-1,2025-11-07 14:36:35.950288230
2025-11-07 14:36:34.251949,0,2025-11-07 14:36:35.957980538
2025-11-07 14:36:34.251949,6144,2025-11-07 14:36:35.965672846
2025-11-07 14:36:34.251949,0,2025-11-07 14:36:35.973365154
2025-11-07 14:36:34.251949,43,2025-11-07 14:36:35.981057462
2025-11-07 14:36:34.251949,14848,2025-11-07 14:36:35.988749769
2025-11-07 14:36:34.251949,0,2025-11-07 14:36:35.996442077
2025-11-07 14:36:34.251949,68,2025-11-07 14:36:36.004134385
2025-11-07 14:36:34.251949,17408,2025-11-07 14:36:36.011826692
2025-11-07 14:36:34.251949,0,2025-11-07 14:36:36.019519000
2025-11-07 14:36:34.251949,55,2025-11-07 14:36:36.027211308
2025-11-07 14:36:34.251949,6656,2025-11-07 14:36:36.034903615
2025-11-07 14:36:34.251949,0,2025-11-07 14:36:36.042595923
2025-11-07 14:36:34.251949,-14,2025-11-07 14:36:36.050288231
2025-11-07 14:36:34.251949,-13825,2025-11-07 14:36:36.057980538
2025-11-07 14:36:34.251949,-1,2025-11-07 14:36:36.065672846
2025-11-07 14:36:34.251949,-87,2025-11-07 14:36:36.073365154
2025-11-07 14:36:34.251949,-25089,2025-11-07 14:36:36.081057462
2025-11-07 14:36:34.251949,-1,2025-11-07 14:36:36.088749769
2025-11-07 14:36:34.251949,-109,2025-11-07 14:36:36.096442077
2025-11-07 14:36:34.251949,-28929,2025-11-07 14:36:36.104134385
2025-11-07 14:36:34.251949,-1,2025-11-07 14:36:36.111826692
2025-11-07 14:36:34.251949,-111,2025-11-07 14:36:36.119519000
2025-11-07 14:36:34.251949,-27649,2025-11-07 14:36:36.127211308
2025-11-07 14:36:34.251949,-1,2025-11-07 14:36:36.134903615
2025-11-07 14:36:34.251949,-104,2025-11-07 14:36:36.142595923
2025-11-07 14:36:34.251949,-25857,2025-11-07 14:36:36.150288231
2025-11-07 14:36:34.251949,-1,2025-11-07 14:36:36.157980538
2025-11-07 14:36:34.251949,-97,2025-11-07 14:36:36.165672846
2025-11-07 14:36:34.251949,-23297,2025-11-07 14:36:36.173365154
2025-11-07 14:36:34.251949,-1,2025-11-07 14:36:36.181057462
2025-11-07 14:36:34.251949,-87,2025-11-07 14:36:36.188749769
2025-11-07 14:36:34.251949,-21505,2025-11-07 14:36:36.196442077
2025-11-07 14:36:34.251949,-1,2025-11-07 14:36:36.204134385
2025-11-07 14:36:34.251949,-82,2025-11-07 14:36:36.211826692
2025-11-07 14:36:34.251949,-20225,2025-11-07 14:36:36.219519000
2025-11-07 14:36:34.251949,-1,2025-11-07 14:36:36.227211308
2025-11-07 14:36:34.251949,-75,2025-11-07 14:36:36.234903615
2025-11-07 14:36:34.251949,-18177,2025-11-07 14:36:36.242595923
2025-11-07 14:36:34.251949,-1,2025-11-07 14:36:36.250288231
2025-11-07 14:36:34.251949,-68,2025-11-07 14:36:36.257980538
2025-11-07 14:36:34.251949,-16385,2025-11-07 14:36:36.265672846
2025-11-07 14:36:34.251949,-1,2025-11-07 14:36:36.273365154
2025-11-07 14:36:34.251949,-63,2025-11-07 14:36:36.281057462
2025-11-07 14:36:34.251949,-15873,2025-11-07 14:36:36.288749769
2025-11-07 14:36:34.251949,-1,2025-11-07 14:36:36.296442077
2025-11-07 14:36:34.251949,-60,2025-11-07 14:36:36.304134385
2025-11-07 14:36:34.251949,-13825,2025-11-07 14:36:36.311826692
2025-11-07 14:36:34.251949,-1,2025-11-07 14:36:36.319519000
2025-11-07 14:36:34.251949,-51,2025-11-07 14:36:36.327211308
2025-11-07 14:36:34.251949,-12801,2025-11-07 14:36:36.334903615
2025-11-07 14:36:34.251949,-1,2025-11-07 14:36:36.342595923
2025-11-07 14:36:34.251949,-46,2025-11-07 14:36:36.350288231
2025-11-07 14:36:34.251949,-11521,2025-11-07 14:36:36.357980538
2025-11-07 14:36:34.251949,-1,2025-11-07 14:36:36.365672846
2025-11-07 14:36:34.251949,-41,2025-11-07 14:36:36.373365154
2025-11-07 14:36:34.251949,-8961,2025-11-07 14:36:36.381057462
2025-11-07 14:36:34.251949,-1,2025-11-07 14:36:36.388749769
2025-11-07 14:36:34.251949,-36,2025-11-07 14:36:36.396442077
2025-11-07 14:36:34.251949,-8961,2025-11-07 14:36:36.404134385
2025-11-07 14:36:34.251949,-1,2025-11-07 14:36:36.411826692
2025-11-07 14:36:34.251949,-34,2025-11-07 14:36:36.419519000
2025-11-07 14:36:34.251949,-7169,2025-11-07 14:36:36.427211308
2025-11-07 14:36:34.251949,-1,2025-11-07 14:36:36.434903615
2025-11-07 14:36:34.251949,-26,2025-11-07 14:36:36.442595923
2025-11-07 14:36:34.797898,-26,2025-11-07 14:36:36.450288231
2025-11-07 14:36:34.797898,-7681,2025-11-07 14:36:36.457980538
2025-11-07 14:36:34.797898,-1,2025-11-07 14:36:36.465672846
2025-11-07 14:36:34.797898,-29,2025-11-07 14:36:36.473365154
2025-11-07 14:36:34.797898,-5889,2025-11-07 14:36:36.481057462
2025-11-07 14:36:34.797898,-1,2025-11-07 14:36:36.488749769
2025-11-07 14:36:34.797898,-24,2025-11-07 14:36:36.496442077
2025-11-07 14:36:34.797898,-5889,2025-11-07 14:36:36.504134385
2025-11-07 14:36:34.797898,-1,2025-11-07 14:36:36.511826692
2025-11-07 14:36:34.797898,-24,2025-11-07 14:36:36.519519000
2025-11-07 14:36:34.797898,-5889,2025-11-07 14:36:36.527211308
2025-11-07 14:36:34.797898,-1,2025-11-07 14:36:36.534903615
2025-11-07 14:36:34.797898,-26,2025-11-07 14:36:36.542595923
2025-11-07 14:36:34.797898,-6401,2025-11-07 14:36:36.550288231
2025-11-07 14:36:34.797898,-1,2025-11-07 14:36:36.557980538
2025-11-07 14:36:34.797898,-24,2025-11-07 14:36:36.565672846
2025-11-07 14:36:34.797898,-4097,2025-11-07 14:36:36.573365154
2025-11-07 14:36:34.797898,-1,2025-11-07 14:36:36.581057462
2025-11-07 14:36:34.797898,-7,2025-11-07 14:36:36.588749769
2025-11-07 14:36:34.797898,-2049,2025-11-07 14:36:36.596442077
2025-11-07 14:36:34.797898,-1,2025-11-07 14:36:36.604134385
2025-11-07 14:36:34.797898,-12,2025-11-07 14:36:36.611826692
2025-11-07 14:36:34.797898,-2049,2025-11-07 14:36:36.619519000
2025-11-07 14:36:34.797898,-1,2025-11-07 14:36:36.627211308
2025-11-07 14:36:34.797898,-9,2025-11-07 14:36:36.634903615
2025-11-07 14:36:34.797898,-2817,2025-11-07 14:36:36.642595923
2025-11-07 14:36:34.797898,-1,2025-11-07 14:36:36.650288231
2025-11-07 14:36:34.797898,-21,2025-11-07 14:36:36.657980538
2025-11-07 14:36:34.797898,-7681,2025-11-07 14:36:36.665672846
2025-11-07 14:36:34.797898,-1,2025-11-07 14:36:36.673365154
2025-11-07 14:36:34.797898,-34,2025-11-07 14:36:36.681057462
2025-11-07 14:36:34.797898,-10241,2025-11-07 14:36:36.688749769
2025-11-07 14:36:34.797898,-1,2025-11-07 14:36:36.696442077
2025-11-07 14:36:34.797898,-46,2025-11-07 14:36:36.704134385
2025-11-07 14:36:34.797898,-9473,2025-11-07 14:36:36.711826692
2025-11-07 14:36:34.797898,-1,2025-11-07 14:36:36.719519000
2025-11-07 14:36:34.797898,-14,2025-11-07 14:36:36.727211308
2025-11-07 14:36:34.797898,2559,2025-11-07 14:36:36.734903615
2025-11-07 14:36:34.797898,0,2025-11-07 14:36:36.742595923
2025-11-07 14:36:34.797898,26,2025-11-07 14:36:36.750288231
2025-11-07 14:36:34.797898,5376,2025-11-07 14:36:36.757980538
2025-11-07 14:36:34.797898,0,2025-11-07 14:36:36.765672846
2025-11-07 14:36:34.797898,0,2025-11-07 14:36:36.773365154
2025-11-07 14:36:34.797898,-512,2025-11-07 14:36:36.781057462
2025-11-07 14:36:34.797898,-1,2025-11-07 14:36:36.788749769
2025-11-07 14:36:34.797898,12,2025-11-07 14:36:36.796442077
2025-11-07 14:36:34.797898,2304,2025-11-07 14:36:36.804134385
2025-11-07 14:36:34.797898,0,2025-11-07 14:36:36.811826692
2025-11-07 14:36:34.797898,0,2025-11-07 14:36:36.819519000
2025-11-07 14:36:34.797898,-6656,2025-11-07 14:36:36.827211308
2025-11-07 14:36:34.797898,-1,2025-11-07 14:36:36.834903615
2025-11-07 14:36:34.797898,-65,2025-11-07 14:36:36.842595923
2025-11-07 14:36:34.797898,19455,2025-11-07 14:36:36.850288231
2025-11-07 14:36:34.797898,0,2025-11-07 14:36:36.857980538
2025-11-07 14:36:34.797898,671,2025-11-07 14:36:36.865672846
2025-11-07 14:36:34.797898,26624,2025-11-07 14:36:36.873365154
2025-11-07 14:36:34.797898,5,2025-11-07 14:36:36.881057462
2025-11-07 14:36:34.797898,1384,2025-11-07 14:36:36.888749769
2025-11-07 14:36:34.797898,-12288,2025-11-07 14:36:36.896442077
2025-11-07 14:36:34.797898,2,2025-11-07 14:36:36.904134385
2025-11-07 14:36:34.797898,204,2025-11-07 14:36:36.911826692
2025-11-07 14:36:34.797898,7424,2025-11-07 14:36:36.919519000
2025-11-07 14:36:34.797898,0,2025-11-07 14:36:36.927211308
2025-11-07 14:36:34.797898,-80,2025-11-07 14:36:36.934903615
2025-11-07 14:36:34.797898,25343,2025-11-07 14:36:36.942595923
2025-11-07 14:36:34.797898,-1,2025-11-07 14:36:36.950288230
2025-11-07 14:36:34.797898,-155,2025-11-07 14:36:36.957980538
2025-11-07 14:36:34.797898,28671,2025-11-07 14:36:36.965672846
2025-11-07 14:36:34.797898,-1,2025-11-07 14:36:36.973365154
2025-11-07 14:36:34.797898,-158,2025-11-07 14:36:36.981057462
2025-11-07 14:36:34.797898,27903,2025-11-07 14:36:36.988749769
2025-11-07 14:36:34.797898,-1,2025-11-07 14:36:36.996442077
2025-11-07 14:36:34.797898,-131,2025-11-07 14:36:37.004134385
2025-11-07 14:36:34.797898,-32513,2025-11-07 14:36:37.011826692
2025-11-07 14:36:34.797898,-1,2025-11-07 14:36:37.019519000
2025-11-07 14:36:34.797898,-124,2025-11-07 14:36:37.027211308
2025-11-07 14:36:34.797898,-28161,2025-11-07 14:36:37.034903615
2025-11-07 14:36:34.797898,-1,2025-11-07 14:36:37.042595923
2025-11-07 14:36:34.797898,-102,2025-11-07 14:36:37.050288231
2025-11-07 14:36:34.797898,-23297,2025-11-07 14:36:37.057980538
2025-11-07 14:36:34.797898,-1,2025-11-07 14:36:37.065672846
2025-11-07 14:36:34.797898,-82,2025-11-07 14:36:37.073365154
2025-11-07 14:36:34.797898,-18177,2025-11-07 14:36:37.081057462
2025-11-07 14:36:34.797898,-1,2025-11-07 14:36:37.088749769
2025-11-07 14:36:34.797898,-58,2025-11-07 14:36:37.096442077
2025-11-07 14:36:34.797898,-10241,2025-11-07 14:36:37.104134385
2025-11-07 14:36:34.797898,-1,2025-11-07 14:36:37.111826692
2025-11-07 14:36:34.797898,-24,2025-11-07 14:36:37.119519000
2025-11-07 14:36:34.797898,-1537,2025-11-07 14:36:37.127211308
2025-11-07 14:36:34.797898,-1,2025-11-07 14:36:37.134903615
2025-11-07 14:36:34.797898,12,2025-11-07 14:36:37.142595923
2025-11-07 14:36:34.797898,7936,2025-11-07 14:36:37.150288231
2025-11-07 14:36:34.797898,0,2025-11-07 14:36:37.157980538
2025-11-07 14:36:34.797898,43,2025-11-07 14:36:37.165672846
2025-11-07 14:36:34.797898,13568,2025-11-07 14:36:37.173365154
2025-11-07 14:36:34.797898,0,2025-11-07 14:36:37.181057462
2025-11-07 14:36:34.797898,55,2025-11-07 14:36:37.188749769
2025-11-07 14:36:34.797898,12288,2025-11-07 14:36:37.196442077
2025-11-07 14:36:34.797898,0,2025-11-07 14:36:37.204134385
2025-11-07 14:36:34.797898,24,2025-11-07 14:36:37.211826692
2025-11-07 14:36:34.797898,-4864,2025-11-07 14:36:37.219519000
2025-11-07 14:36:34.797898,-1,2025-11-07 14:36:37.227211308
2025-11-07 14:36:34.797898,-65,2025-11-07 14:36:37.234903615
2025-11-07 14:36:34.797898,-23809,2025-11-07 14:36:37.242595923
2025-11-07 14:36:34.797898,-1,2025-11-07 14:36:37.250288231
2025-11-07 14:36:34.797898,-109,2025-11-07 14:36:37.257980538
2025-11-07 14:36:34.797898,-30209,2025-11-07 14:36:37.265672846
2025-11-07 14:36:34.797898,-1,2025-11-07 14:36:37.273365154
2025-11-07 14:36:34.797898,-126,2025-11-07 14:36:37.281057462
2025-11-07 14:36:35.378338,-124,2025-11-07 14:36:37.288749769
2025-11-07 14:36:35.378338,-30209,2025-11-07 14:36:37.296442077
2025-11-07 14:36:35.378338,-1,2025-11-07 14:36:37.304134385
2025-11-07 14:36:35.378338,-114,2025-11-07 14:36:37.311826692
2025-11-07 14:36:35.378338,-27137,2025-11-07 14:36:37.319519000
2025-11-07 14:36:35.378338,-1,2025-11-07 14:36:37.327211308
2025-11-07 14:36:35.378338,-102,2025-11-07 14:36:37.334903615
2025-11-07 14:36:35.378338,-25857,2025-11-07 14:36:37.342595923
2025-11-07 14:36:35.378338,-1,2025-11-07 14:36:37.350288231
2025-11-07 14:36:35.378338,-94,2025-11-07 14:36:37.357980538
2025-11-07 14:36:35.378338,-21505,2025-11-07 14:36:37.365672846
2025-11-07 14:36:35.378338,-1,2025-11-07 14:36:37.373365154
2025-11-07 14:36:35.378338,-80,2025-11-07 14:36:37.381057462
2025-11-07 14:36:35.378338,-17153,2025-11-07 14:36:37.388749769
2025-11-07 14:36:35.378338,-1,2025-11-07 14:36:37.396442077
2025-11-07 14:36:35.378338,-58,2025-11-07 14:36:37.404134385
2025-11-07 14:36:35.378338,-15105,2025-11-07 14:36:37.411826692
2025-11-07 14:36:35.378338,-1,2025-11-07 14:36:37.419519000
2025-11-07 14:36:35.378338,-63,2025-11-07 14:36:37.427211308
2025-11-07 14:36:35.378338,-13313,2025-11-07 14:36:37.434903615
2025-11-07 14:36:35.378338,-1,2025-11-07 14:36:37.442595923
2025-11-07 14:36:35.378338,-51,2025-11-07 14:36:37.450288231
2025-11-07 14:36:35.378338,-12033,2025-11-07 14:36:37.457980538
2025-11-07 14:36:35.378338,-1,2025-11-07 14:36:37.465672846
2025-11-07 14:36:35.378338,-41,2025-11-07 14:36:37.473365154
2025-11-07 14:36:35.378338,-8961,2025-11-07 14:36:37.481057462
2025-11-07 14:36:35.378338,-1,2025-11-07 14:36:37.488749769
2025-11-07 14:36:35.378338,-36,2025-11-07 14:36:37.496442077
2025-11-07 14:36:35.378338,-8449,2025-11-07 14:36:37.504134385
2025-11-07 14:36:35.378338,-1,2025-11-07 14:36:37.511826692
2025-11-07 14:36:35.378338,-31,2025-11-07 14:36:37.519519000
2025-11-07 14:36:35.378338,-8449,2025-11-07 14:36:37.527211308
2025-11-07 14:36:35.378338,-1,2025-11-07 14:36:37.534903615
2025-11-07 14:36:35.378338,-34,2025-11-07 14:36:37.542595923
2025-11-07 14:36:35.378338,-7681,2025-11-07 14:36:37.550288231
2025-11-07 14:36:35.378338,-1,2025-11-07 14:36:37.557980538
2025-11-07 14:36:35.378338,-26,2025-11-07 14:36:37.565672846
2025-11-07 14:36:35.378338,-5121,2025-11-07 14:36:37.573365154
2025-11-07 14:36:35.378338,-1,2025-11-07 14:36:37.581057462
2025-11-07 14:36:35.378338,-19,2025-11-07 14:36:37.588749769
2025-11-07 14:36:35.378338,-5121,2025-11-07 14:36:37.596442077
2025-11-07 14:36:35.378338,-1,2025-11-07 14:36:37.604134385
2025-11-07 14:36:35.378338,-24,2025-11-07 14:36:37.611826692
2025-11-07 14:36:35.378338,-5121,2025-11-07 14:36:37.619519000
2025-11-07 14:36:35.378338,-1,2025-11-07 14:36:37.627211308
2025-11-07 14:36:35.378338,-19,2025-11-07 14:36:37.634903615
2025-11-07 14:36:35.378338,-4609,2025-11-07 14:36:37.642595923
2025-11-07 14:36:35.378338,-1,2025-11-07 14:36:37.650288231
2025-11-07 14:36:35.378338,-19,2025-11-07 14:36:37.657980538
2025-11-07 14:36:35.378338,-4097,2025-11-07 14:36:37.665672846
2025-11-07 14:36:35.378338,-1,2025-11-07 14:36:37.673365154
2025-11-07 14:36:35.378338,-14,2025-11-07 14:36:37.681057462
2025-11-07 14:36:35.378338,-3329,2025-11-07 14:36:37.688749769
2025-11-07 14:36:35.378338,-1,2025-11-07 14:36:37.696442077
2025-11-07 14:36:35.378338,-14,2025-11-07 14:36:37.704134385
2025-11-07 14:36:35.378338,-4097,2025-11-07 14:36:37.711826692
2025-11-07 14:36:35.378338,-1,2025-11-07 14:36:37.719519000
2025-11-07 14:36:35.378338,-19,2025-11-07 14:36:37.727211308
2025-11-07 14:36:35.378338,-3329,2025-11-07 14:36:37.734903615
2025-11-07 14:36:35.378338,-1,2025-11-07 14:36:37.742595923
2025-11-07 14:36:35.378338,-7,2025-11-07 14:36:37.750288231
2025-11-07 14:36:35.378338,-2817,2025-11-07 14:36:37.757980538
2025-11-07 14:36:35.378338,-1,2025-11-07 14:36:37.765672846
2025-11-07 14:36:35.378338,-17,2025-11-07 14:36:37.773365154
2025-11-07 14:36:35.378338,-2817,2025-11-07 14:36:37.781057462
2025-11-07 14:36:35.378338,-1,2025-11-07 14:36:37.788749769
2025-11-07 14:36:35.378338,-7,2025-11-07 14:36:37.796442077
2025-11-07 14:36:35.378338,-2049,2025-11-07 14:36:37.804134385
2025-11-07 14:36:35.378338,-1,2025-11-07 14:36:37.811826692
2025-11-07 14:36:35.378338,-9,2025-11-07 14:36:37.819519000
2025-11-07 14:36:35.378338,-1537,2025-11-07 14:36:37.827211308
2025-11-07 14:36:35.378338,-1,2025-11-07 14:36:37.834903615
2025-11-07 14:36:35.378338,-4,2025-11-07 14:36:37.842595923
2025-11-07 14:36:35.378338,-2817,2025-11-07 14:36:37.850288231
2025-11-07 14:36:35.378338,-1,2025-11-07 14:36:37.857980538
2025-11-07 14:36:35.378338,-21,2025-11-07 14:36:37.865672846
2025-11-07 14:36:35.378338,-6401,2025-11-07 14:36:37.873365154
2025-11-07 14:36:35.378338,-1,2025-11-07 14:36:37.881057462
2025-11-07 14:36:35.378338,-29,2025-11-07 14:36:37.888749769
2025-11-07 14:36:35.378338,-8449,2025-11-07 14:36:37.896442077
2025-11-07 14:36:35.378338,-1,2025-11-07 14:36:37.904134385
2025-11-07 14:36:35.378338,-41,2025-11-07 14:36:37.911826692
2025-11-07 14:36:35.378338,-8449,2025-11-07 14:36:37.919519000
2025-11-07 14:36:35.378338,-1,2025-11-07 14:36:37.927211308
2025-11-07 14:36:35.378338,-7,2025-11-07 14:36:37.934903615
2025-11-07 14:36:35.378338,6911,2025-11-07 14:36:37.942595923
2025-11-07 14:36:35.378338,0,2025-11-07 14:36:37.950288230
2025-11-07 14:36:35.378338,43,2025-11-07 14:36:37.957980538
2025-11-07 14:36:35.378338,4352,2025-11-07 14:36:37.965672846
2025-11-07 14:36:35.378338,0,2025-11-07 14:36:37.973365154
2025-11-07 14:36:35.378338,-4,2025-11-07 14:36:37.981057462
2025-11-07 14:36:35.378338,3327,2025-11-07 14:36:37.988749769
2025-11-07 14:36:35.378338,0,2025-11-07 14:36:37.996442077
2025-11-07 14:36:35.378338,26,2025-11-07 14:36:38.004134385
2025-11-07 14:36:35.378338,3584,2025-11-07 14:36:38.011826692
2025-11-07 14:36:35.378338,0,2025-11-07 14:36:38.019519000
2025-11-07 14:36:35.378338,7,2025-11-07 14:36:38.027211308
2025-11-07 14:36:35.378338,-4864,2025-11-07 14:36:38.034903615
2025-11-07 14:36:35.378338,-1,2025-11-07 14:36:38.042595923
2025-11-07 14:36:35.378338,-46,2025-11-07 14:36:38.050288231
2025-11-07 14:36:35.378338,-17409,2025-11-07 14:36:38.057980538
2025-11-07 14:36:35.378338,0,2025-11-07 14:36:38.065672846
2025-11-07 14:36:35.378338,866,2025-11-07 14:36:38.073365154
2025-11-07 14:36:35.378338,-25856,2025-11-07 14:36:38.081057462
2025-11-07 14:36:35.378338,5,2025-11-07 14:36:38.088749769
2025-11-07 14:36:35.378338,1192,2025-11-07 14:36:38.096442077
2025-11-07 14:36:35.378338,256,2025-11-07 14:36:38.104134385
2025-11-07 14:36:35.378338,2,2025-11-07 14:36:38.111826692
2025-11-07 14:36:35.378338,148,2025-11-07 14:36:38.119519000
2025-11-07 14:36:35.948811,43,2025-11-07 14:36:38.127211308
2025-11-07 14:36:35.948811,-17408,2025-11-07 14:36:38.134903615
2025-11-07 14:36:35.948811,-1,2025-11-07 14:36:38.142595923
2025-11-07 14:36:35.948811,-136,2025-11-07 14:36:38.150288231
2025-11-07 14:36:35.948811,-32001,2025-11-07 14:36:38.157980538
2025-11-07 14:36:35.948811,-1,2025-11-07 14:36:38.165672846
2025-11-07 14:36:35.948811,-119,2025-11-07 14:36:38.173365154
2025-11-07 14:36:35.948811,-31489,2025-11-07 14:36:38.181057462
2025-11-07 14:36:35.948811,-1,2025-11-07 14:36:38.188749769
2025-11-07 14:36:35.948811,-107,2025-11-07 14:36:38.196442077
2025-11-07 14:36:35.948811,-23809,2025-11-07 14:36:38.204134385
2025-11-07 14:36:35.948811,-1,2025-11-07 14:36:38.211826692
2025-11-07 14:36:35.948811,-92,2025-11-07 14:36:38.219519000
2025-11-07 14:36:35.948811,-20225,2025-11-07 14:36:38.227211308
2025-11-07 14:36:35.948811,-1,2025-11-07 14:36:38.234903615
2025-11-07 14:36:35.948811,-63,2025-11-07 14:36:38.242595923
2025-11-07 14:36:35.948811,-13313,2025-11-07 14:36:38.250288231
2025-11-07 14:36:35.948811,-1,2025-11-07 14:36:38.257980538
2025-11-07 14:36:35.948811,-36,2025-11-07 14:36:38.265672846
2025-11-07 14:36:35.948811,-3329,2025-11-07 14:36:38.273365154
2025-11-07 14:36:35.948811,-1,2025-11-07 14:36:38.281057462
2025-11-07 14:36:35.948811,-2,2025-11-07 14:36:38.288749769
2025-11-07 14:36:35.948811,767,2025-11-07 14:36:38.296442077
2025-11-07 14:36:35.948811,0,2025-11-07 14:36:38.304134385
2025-11-07 14:36:35.948811,17,2025-11-07 14:36:38.311826692
2025-11-07 14:36:35.948811,9216,2025-11-07 14:36:38.319519000
2025-11-07 14:36:35.948811,0,2025-11-07 14:36:38.327211308
2025-11-07 14:36:35.948811,53,2025-11-07 14:36:38.334903615
2025-11-07 14:36:35.948811,18432,2025-11-07 14:36:38.342595923
2025-11-07 14:36:35.948811,0,2025-11-07 14:36:38.350288231
2025-11-07 14:36:35.948811,92,2025-11-07 14:36:38.357980538
2025-11-07 14:36:35.948811,26112,2025-11-07 14:36:38.365672846
2025-11-07 14:36:35.948811,0,2025-11-07 14:36:38.373365154
2025-11-07 14:36:35.948811,102,2025-11-07 14:36:38.381057462
2025-11-07 14:36:35.948811,26112,2025-11-07 14:36:38.388749769
2025-11-07 14:36:35.948811,0,2025-11-07 14:36:38.396442077
2025-11-07 14:36:35.948811,92,2025-11-07 14:36:38.404134385
2025-11-07 14:36:35.948811,15360,2025-11-07 14:36:38.411826692
2025-11-07 14:36:35.948811,0,2025-11-07 14:36:38.419519000
2025-11-07 14:36:35.948811,14,2025-11-07 14:36:38.427211308
2025-11-07 14:36:35.948811,-6144,2025-11-07 14:36:38.434903615
2025-11-07 14:36:35.948811,-1,2025-11-07 14:36:38.442595923
2025-11-07 14:36:35.948811,-53,2025-11-07 14:36:38.450288231
2025-11-07 14:36:35.948811,-18945,2025-11-07 14:36:38.457980538
2025-11-07 14:36:35.948811,-1,2025-11-07 14:36:38.465672846
2025-11-07 14:36:35.948811,-87,2025-11-07 14:36:38.473365154
2025-11-07 14:36:35.948811,-20225,2025-11-07 14:36:38.481057462
2025-11-07 14:36:35.948811,-1,2025-11-07 14:36:38.488749769
2025-11-07 14:36:35.948811,-70,2025-11-07 14:36:38.496442077
2025-11-07 14:36:35.948811,-18945,2025-11-07 14:36:38.504134385
2025-11-07 14:36:35.948811,-1,2025-11-07 14:36:38.511826692
2025-11-07 14:36:35.948811,-72,2025-11-07 14:36:38.519519000
2025-11-07 14:36:35.948811,-16385,2025-11-07 14:36:38.527211308
2025-11-07 14:36:35.948811,-1,2025-11-07 14:36:38.534903615
2025-11-07 14:36:35.948811,-65,2025-11-07 14:36:38.542595923
2025-11-07 14:36:35.948811,-17665,2025-11-07 14:36:38.550288231
2025-11-07 14:36:35.948811,-1,2025-11-07 14:36:38.557980538
2025-11-07 14:36:35.948811,-63,2025-11-07 14:36:38.565672846
2025-11-07 14:36:35.948811,-13825,2025-11-07 14:36:38.573365154
2025-11-07 14:36:35.948811,-1,2025-11-07 14:36:38.581057462
2025-11-07 14:36:35.948811,-55,2025-11-07 14:36:38.588749769
2025-11-07 14:36:35.948811,-13313,2025-11-07 14:36:38.596442077
2025-11-07 14:36:35.948811,-1,2025-11-07 14:36:38.604134385
2025-11-07 14:36:35.948811,-46,2025-11-07 14:36:38.611826692
2025-11-07 14:36:35.948811,-10241,2025-11-07 14:36:38.619519000
2025-11-07 14:36:35.948811,-1,2025-11-07 14:36:38.627211308
2025-11-07 14:36:35.948811,-41,2025-11-07 14:36:38.634903615
2025-11-07 14:36:35.948811,-8961,2025-11-07 14:36:38.642595923
2025-11-07 14:36:35.948811,-1,2025-11-07 14:36:38.650288231
2025-11-07 14:36:35.948811,-31,2025-11-07 14:36:38.657980538
2025-11-07 14:36:35.948811,-5121,2025-11-07 14:36:38.665672846
2025-11-07 14:36:35.948811,-1,2025-11-07 14:36:38.673365154
2025-11-07 14:36:35.948811,-17,2025-11-07 14:36:38.681057462
2025-11-07 14:36:35.948811,-4609,2025-11-07 14:36:38.688749769
2025-11-07 14:36:35.948811,-1,2025-11-07 14:36:38.696442077
2025-11-07 14:36:35.948811,-19,2025-11-07 14:36:38.704134385
2025-11-07 14:36:35.948811,-4097,2025-11-07 14:36:38.711826692
2025-11-07 14:36:35.948811,-1,2025-11-07 14:36:38.719519000
2025-11-07 14:36:35.948811,-14,2025-11-07 14:36:38.727211308
2025-11-07 14:36:35.948811,-1537,2025-11-07 14:36:38.734903615
2025-11-07 14:36:35.948811,-1,2025-11-07 14:36:38.742595923
2025-11-07 14:36:35.948811,-7,2025-11-07 14:36:38.750288231
2025-11-07 14:36:35.948811,-2049,2025-11-07 14:36:38.757980538
2025-11-07 14:36:35.948811,-1,2025-11-07 14:36:38.765672846
2025-11-07 14:36:35.948811,-7,2025-11-07 14:36:38.773365154
2025-11-07 14:36:35.948811,-257,2025-11-07 14:36:38.781057462
2025-11-07 14:36:35.948811,-1,2025-11-07 14:36:38.788749769
2025-11-07 14:36:35.948811,-2,2025-11-07 14:36:38.796442077
2025-11-07 14:36:35.948811,-1537,2025-11-07 14:36:38.804134385
2025-11-07 14:36:35.948811,-1,2025-11-07 14:36:38.811826692
2025-11-07 14:36:35.948811,-7,2025-11-07 14:36:38.819519000
2025-11-07 14:36:35.948811,767,2025-11-07 14:36:38.827211308
2025-11-07 14:36:35.948811,0,2025-11-07 14:36:38.834903615
2025-11-07 14:36:35.948811,9,2025-11-07 14:36:38.842595923
2025-11-07 14:36:35.948811,1024,2025-11-07 14:36:38.850288231
2025-11-07 14:36:35.948811,0,2025-11-07 14:36:38.857980538
2025-11-07 14:36:35.948811,0,2025-11-07 14:36:38.865672846
2025-11-07 14:36:35.948811,512,2025-11-07 14:36:38.873365154
2025-11-07 14:36:35.948811,0,2025-11-07 14:36:38.881057462
2025-11-07 14:36:35.948811,7,2025-11-07 14:36:38.888749769
2025-11-07 14:36:35.948811,1024,2025-11-07 14:36:38.896442077
2025-11-07 14:36:35.948811,0,2025-11-07 14:36:38.904134385
2025-11-07 14:36:35.948811,4,2025-11-07 14:36:38.911826692
2025-11-07 14:36:35.948811,2304,2025-11-07 14:36:38.919519000
2025-11-07 14:36:35.948811,0,2025-11-07 14:36:38.927211308
2025-11-07 14:36:35.948811,9,2025-11-07 14:36:38.934903615
2025-11-07 14:36:35.948811,1792,2025-11-07 14:36:38.942595923
2025-11-07 14:36:35.948811,0,2025-11-07 14:36:38.950288230
2025-11-07 14:36:35.948811,4,2025-11-07 14:36:38.957980538
2025-11-07 14:36:36.457014,-2,2025-11-07 14:36:38.965672846
2025-11-07 14:36:36.457014,-2817,2025-11-07 14:36:38.973365154
2025-11-07 14:36:36.457014,-1,2025-11-07 14:36:38.981057462
2025-11-07 14:36:36.457014,-12,2025-11-07 14:36:38.988749769
2025-11-07 14:36:36.457014,-3329,2025-11-07 14:36:38.996442077
2025-11-07 14:36:36.457014,-1,2025-11-07 14:36:39.004134385
2025-11-07 14:36:36.457014,-24,2025-11-07 14:36:39.011826692
2025-11-07 14:36:36.457014,-3329,2025-11-07 14:36:39.019519000
2025-11-07 14:36:36.457014,-1,2025-11-07 14:36:39.027211308
2025-11-07 14:36:36.457014,7,2025-11-07 14:36:39.034903615
2025-11-07 14:36:36.457014,6656,2025-11-07 14:36:39.042595923
2025-11-07 14:36:36.457014,0,2025-11-07 14:36:39.050288231
2025-11-07 14:36:36.457014,43,2025-11-07 14:36:39.057980538
2025-11-07 14:36:36.457014,12288,2025-11-07 14:36:39.065672846
2025-11-07 14:36:36.457014,0,2025-11-07 14:36:39.073365154
2025-11-07 14:36:36.457014,34,2025-11-07 14:36:39.081057462
2025-11-07 14:36:36.457014,6656,2025-11-07 14:36:39.088749769
2025-11-07 14:36:36.457014,0,2025-11-07 14:36:39.096442077
2025-11-07 14:36:36.457014,31,2025-11-07 14:36:39.104134385
2025-11-07 14:36:36.457014,7936,2025-11-07 14:36:39.111826692
2025-11-07 14:36:36.457014,0,2025-11-07 14:36:39.119519000
2025-11-07 14:36:36.457014,26,2025-11-07 14:36:39.127211308
2025-11-07 14:36:36.457014,1792,2025-11-07 14:36:39.134903615
2025-11-07 14:36:36.457014,0,2025-11-07 14:36:39.142595923
2025-11-07 14:36:36.457014,-26,2025-11-07 14:36:39.150288231
2025-11-07 14:36:36.457014,22015,2025-11-07 14:36:39.157980538
2025-11-07 14:36:36.457014,0,2025-11-07 14:36:39.165672846
2025-11-07 14:36:36.457014,591,2025-11-07 14:36:39.173365154
2025-11-07 14:36:36.457014,-17664,2025-11-07 14:36:39.181057462
2025-11-07 14:36:36.457014,4,2025-11-07 14:36:39.188749769
2025-11-07 14:36:36.457014,1180,2025-11-07 14:36:39.196442077
2025-11-07 14:36:36.457014,15104,2025-11-07 14:36:39.204134385
2025-11-07 14:36:36.457014,2,2025-11-07 14:36:39.211826692
2025-11-07 14:36:36.457014,194,2025-11-07 14:36:39.219519000
2025-11-07 14:36:36.457014,27392,2025-11-07 14:36:39.227211308
2025-11-07 14:36:36.457014,0,2025-11-07 14:36:39.234903615
2025-11-07 14:36:36.457014,-21,2025-11-07 14:36:39.242595923
2025-11-07 14:36:36.457014,-28929,2025-11-07 14:36:39.250288231
2025-11-07 14:36:36.457014,-1,2025-11-07 14:36:39.257980538
2025-11-07 14:36:36.457014,-97,2025-11-07 14:36:39.265672846
2025-11-07 14:36:36.457014,-23809,2025-11-07 14:36:39.273365154
2025-11-07 14:36:36.457014,-1,2025-11-07 14:36:39.281057462
2025-11-07 14:36:36.457014,-116,2025-11-07 14:36:39.288749769
2025-11-07 14:36:36.457014,-27649,2025-11-07 14:36:39.296442077
2025-11-07 14:36:36.457014,-1,2025-11-07 14:36:39.304134385
2025-11-07 14:36:36.457014,-97,2025-11-07 14:36:39.311826692
2025-11-07 14:36:36.457014,-23809,2025-11-07 14:36:39.319519000
2025-11-07 14:36:36.457014,-1,2025-11-07 14:36:39.327211308
2025-11-07 14:36:36.457014,-85,2025-11-07 14:36:39.334903615
2025-11-07 14:36:36.457014,-18945,2025-11-07 14:36:39.342595923
2025-11-07 14:36:36.457014,-1,2025-11-07 14:36:39.350288231
2025-11-07 14:36:36.457014,-72,2025-11-07 14:36:39.357980538
2025-11-07 14:36:36.457014,-16385,2025-11-07 14:36:39.365672846
2025-11-07 14:36:36.457014,-1,2025-11-07 14:36:39.373365154
2025-11-07 14:36:36.457014,-53,2025-11-07 14:36:39.381057462
2025-11-07 14:36:36.457014,-10241,2025-11-07 14:36:39.388749769
2025-11-07 14:36:36.457014,-1,2025-11-07 14:36:39.396442077
2025-11-07 14:36:36.457014,-26,2025-11-07 14:36:39.404134385
2025-11-07 14:36:36.457014,-2049,2025-11-07 14:36:39.411826692
2025-11-07 14:36:36.457014,-1,2025-11-07 14:36:39.419519000
2025-11-07 14:36:36.457014,7,2025-11-07 14:36:39.427211308
2025-11-07 14:36:36.457014,5376,2025-11-07 14:36:39.434903615
2025-11-07 14:36:36.457014,0,2025-11-07 14:36:39.442595923
2025-11-07 14:36:36.457014,38,2025-11-07 14:36:39.450288231
2025-11-07 14:36:36.457014,14080,2025-11-07 14:36:39.457980538
2025-11-07 14:36:36.457014,0,2025-11-07 14:36:39.465672846
2025-11-07 14:36:36.457014,70,2025-11-07 14:36:39.473365154
2025-11-07 14:36:36.457014,19200,2025-11-07 14:36:39.481057462
2025-11-07 14:36:36.457014,0,2025-11-07 14:36:39.488749769
2025-11-07 14:36:36.457014,70,2025-11-07 14:36:39.496442077
2025-11-07 14:36:36.457014,14080,2025-11-07 14:36:39.504134385
2025-11-07 14:36:36.457014,0,2025-11-07 14:36:39.511826692
2025-11-07 14:36:36.457014,24,2025-11-07 14:36:39.519519000
2025-11-07 14:36:36.457014,-5376,2025-11-07 14:36:39.527211308
2025-11-07 14:36:36.457014,-1,2025-11-07 14:36:39.534903615
2025-11-07 14:36:36.457014,-63,2025-11-07 14:36:39.542595923
2025-11-07 14:36:36.457014,-22785,2025-11-07 14:36:39.550288231
2025-11-07 14:36:36.457014,-1,2025-11-07 14:36:39.557980538
2025-11-07 14:36:36.457014,-104,2025-11-07 14:36:39.565672846
2025-11-07 14:36:36.457014,-28161,2025-11-07 14:36:39.573365154
2025-11-07 14:36:36.457014,-1,2025-11-07 14:36:39.581057462
2025-11-07 14:36:36.457014,-114,2025-11-07 14:36:39.588749769
2025-11-07 14:36:36.457014,-28929,2025-11-07 14:36:39.596442077
2025-11-07 14:36:36.457014,-1,2025-11-07 14:36:39.604134385
2025-11-07 14:36:36.457014,-109,2025-11-07 14:36:39.611826692
2025-11-07 14:36:36.457014,-25857,2025-11-07 14:36:39.619519000
2025-11-07 14:36:36.457014,-1,2025-11-07 14:36:39.627211308
2025-11-07 14:36:36.457014,-97,2025-11-07 14:36:39.634903615
2025-11-07 14:36:36.457014,-23809,2025-11-07 14:36:39.642595923
2025-11-07 14:36:36.457014,-1,2025-11-07 14:36:39.650288231
2025-11-07 14:36:36.457014,-94,2025-11-07 14:36:39.657980538
2025-11-07 14:36:36.457014,-23809,2025-11-07 14:36:39.665672846
2025-11-07 14:36:36.457014,-1,2025-11-07 14:36:39.673365154
2025-11-07 14:36:36.457014,-87,2025-11-07 14:36:39.681057462
2025-11-07 14:36:36.457014,-20737,2025-11-07 14:36:39.688749769
2025-11-07 14:36:36.457014,-1,2025-11-07 14:36:39.696442077
2025-11-07 14:36:36.457014,-77,2025-11-07 14:36:39.704134385
2025-11-07 14:36:36.457014,-19457,2025-11-07 14:36:39.711826692
2025-11-07 14:36:36.457014,-1,2025-11-07 14:36:39.719519000
2025-11-07 14:36:36.457014,-75,2025-11-07 14:36:39.727211308
2025-11-07 14:36:36.457014,-17665,2025-11-07 14:36:39.734903615
2025-11-07 14:36:36.457014,-1,2025-11-07 14:36:39.742595923
2025-11-07 14:36:36.457014,-65,2025-11-07 14:36:39.750288231
2025-11-07 14:36:36.457014,-17153,2025-11-07 14:36:39.757980538
2025-11-07 14:36:36.457014,-1,2025-11-07 14:36:39.765672846
2025-11-07 14:36:36.457014,-63,2025-11-07 14:36:39.773365154
2025-11-07 14:36:36.457014,-13825,2025-11-07 14:36:39.781057462
2025-11-07 14:36:36.457014,-1,2025-11-07 14:36:39.788749769
2025-11-07 14:36:36.457014,-53,2025-11-07 14:36:39.796442077
2025-11-07 14:36:37.000828,-55,2025-11-07 14:36:39.804134385
2025-11-07 14:36:37.000828,-12801,2025-11-07 14:36:39.811826692
2025-11-07 14:36:37.000828,-1,2025-11-07 14:36:39.819519000
2025-11-07 14:36:37.000828,-51,2025-11-07 14:36:39.827211308
2025-11-07 14:36:37.000828,-12033,2025-11-07 14:36:39.834903615
2025-11-07 14:36:37.000828,-1,2025-11-07 14:36:39.842595923
2025-11-07 14:36:37.000828,-46,2025-11-07 14:36:39.850288231
2025-11-07 14:36:37.000828,-11521,2025-11-07 14:36:39.857980538
2025-11-07 14:36:37.000828,-1,2025-11-07 14:36:39.865672846
2025-11-07 14:36:37.000828,-41,2025-11-07 14:36:39.873365154
2025-11-07 14:36:37.000828,-6401,2025-11-07 14:36:39.881057462
2025-11-07 14:36:37.000828,-1,2025-11-07 14:36:39.888749769
2025-11-07 14:36:37.000828,-21,2025-11-07 14:36:39.896442077
2025-11-07 14:36:37.000828,-6401,2025-11-07 14:36:39.904134385
2025-11-07 14:36:37.000828,-1,2025-11-07 14:36:39.911826692
2025-11-07 14:36:37.000828,-26,2025-11-07 14:36:39.919519000
2025-11-07 14:36:37.000828,-5889,2025-11-07 14:36:39.927211308
2025-11-07 14:36:37.000828,-1,2025-11-07 14:36:39.934903615
2025-11-07 14:36:37.000828,-21,2025-11-07 14:36:39.942595923
2025-11-07 14:36:37.000828,-4609,2025-11-07 14:36:39.950288230
2025-11-07 14:36:37.000828,-1,2025-11-07 14:36:39.957980538
2025-11-07 14:36:37.000828,-19,2025-11-07 14:36:39.965672846
2025-11-07 14:36:37.000828,-5121,2025-11-07 14:36:39.973365154
2025-11-07 14:36:37.000828,-1,2025-11-07 14:36:39.981057462
2025-11-07 14:36:37.000828,-21,2025-11-07 14:36:39.988749769
2025-11-07 14:36:37.000828,-4609,2025-11-07 14:36:39.996442077
2025-11-07 14:36:37.000828,-1,2025-11-07 14:36:40.004134385
2025-11-07 14:36:37.000828,-19,2025-11-07 14:36:40.011826692
2025-11-07 14:36:37.000828,-5121,2025-11-07 14:36:40.019519000
2025-11-07 14:36:37.000828,-1,2025-11-07 14:36:40.027211308
2025-11-07 14:36:37.000828,-24,2025-11-07 14:36:40.034903615
2025-11-07 14:36:37.000828,-7169,2025-11-07 14:36:40.042595923
2025-11-07 14:36:37.000828,-1,2025-11-07 14:36:40.050288231
2025-11-07 14:36:37.000828,-38,2025-11-07 14:36:40.057980538
2025-11-07 14:36:37.000828,-11521,2025-11-07 14:36:40.065672846
2025-11-07 14:36:37.000828,-1,2025-11-07 14:36:40.073365154
2025-11-07 14:36:37.000828,-48,2025-11-07 14:36:40.081057462
2025-11-07 14:36:37.000828,-13825,2025-11-07 14:36:40.088749769
2025-11-07 14:36:37.000828,-1,2025-11-07 14:36:40.096442077
2025-11-07 14:36:37.000828,-60,2025-11-07 14:36:40.104134385
2025-11-07 14:36:37.000828,-12033,2025-11-07 14:36:40.111826692
2025-11-07 14:36:37.000828,-1,2025-11-07 14:36:40.119519000
2025-11-07 14:36:37.000828,-21,2025-11-07 14:36:40.127211308
2025-11-07 14:36:37.000828,2047,2025-11-07 14:36:40.134903615
2025-11-07 14:36:37.000828,0,2025-11-07 14:36:40.142595923
2025-11-07 14:36:37.000828,19,2025-11-07 14:36:40.150288231
2025-11-07 14:36:37.000828,512,2025-11-07 14:36:40.157980538
2025-11-07 14:36:37.000828,0,2025-11-07 14:36:40.165672846
2025-11-07 14:36:37.000828,-17,2025-11-07 14:36:40.173365154
2025-11-07 14:36:37.000828,-2049,2025-11-07 14:36:40.181057462
2025-11-07 14:36:37.000828,-1,2025-11-07 14:36:40.188749769
2025-11-07 14:36:37.000828,0,2025-11-07 14:36:40.196442077
2025-11-07 14:36:37.000828,-1024,2025-11-07 14:36:40.204134385
2025-11-07 14:36:37.000828,-1,2025-11-07 14:36:40.211826692
2025-11-07 14:36:37.000828,-19,2025-11-07 14:36:40.219519000
2025-11-07 14:36:37.000828,-15873,2025-11-07 14:36:40.227211308
2025-11-07 14:36:37.000828,-1,2025-11-07 14:36:40.234903615
2025-11-07 14:36:37.000828,-72,2025-11-07 14:36:40.242595923
2025-11-07 14:36:37.000828,-1281,2025-11-07 14:36:40.250288231
2025-11-07 14:36:37.000828,0,2025-11-07 14:36:40.257980538
2025-11-07 14:36:37.000828,1034,2025-11-07 14:36:40.265672846
2025-11-07 14:36:37.000828,6656,2025-11-07 14:36:40.273365154
2025-11-07 14:36:37.000828,6,2025-11-07 14:36:40.281057462
2025-11-07 14:36:37.000828,1192,2025-11-07 14:36:40.288749769
2025-11-07 14:36:37.000828,-11008,2025-11-07 14:36:40.296442077
2025-11-07 14:36:37.000828,1,2025-11-07 14:36:40.304134385
2025-11-07 14:36:37.000828,97,2025-11-07 14:36:40.311826692
2025-11-07 14:36:37.000828,-7424,2025-11-07 14:36:40.319519000
2025-11-07 14:36:37.000828,-1,2025-11-07 14:36:40.327211308
2025-11-07 14:36:37.000828,-136,2025-11-07 14:36:40.334903615
2025-11-07 14:36:37.000828,20479,2025-11-07 14:36:40.342595923
2025-11-07 14:36:37.000828,-1,2025-11-07 14:36:40.350288231
2025-11-07 14:36:37.000828,-158,2025-11-07 14:36:40.357980538
2025-11-07 14:36:37.000828,23551,2025-11-07 14:36:40.365672846
2025-11-07 14:36:37.000828,-1,2025-11-07 14:36:40.373365154
2025-11-07 14:36:37.000828,-175,2025-11-07 14:36:40.381057462
2025-11-07 14:36:37.000828,25343,2025-11-07 14:36:40.388749769
2025-11-07 14:36:37.000828,-1,2025-11-07 14:36:40.396442077
2025-11-07 14:36:37.000828,-145,2025-11-07 14:36:40.404134385
2025-11-07 14:36:37.000828,29695,2025-11-07 14:36:40.411826692
2025-11-07 14:36:37.000828,-1,2025-11-07 14:36:40.419519000
2025-11-07 14:36:37.000828,-131,2025-11-07 14:36:40.427211308
2025-11-07 14:36:37.000828,-30209,2025-11-07 14:36:40.434903615
2025-11-07 14:36:37.000828,-1,2025-11-07 14:36:40.442595923
2025-11-07 14:36:37.000828,-111,2025-11-07 14:36:40.450288231
2025-11-07 14:36:37.000828,-26369,2025-11-07 14:36:40.457980538
2025-11-07 14:36:37.000828,-1,2025-11-07 14:36:40.465672846
2025-11-07 14:36:37.000828,-92,2025-11-07 14:36:40.473365154
2025-11-07 14:36:37.000828,-19457,2025-11-07 14:36:40.481057462
2025-11-07 14:36:37.000828,-1,2025-11-07 14:36:40.488749769
2025-11-07 14:36:37.000828,-65,2025-11-07 14:36:40.496442077
2025-11-07 14:36:37.000828,-12801,2025-11-07 14:36:40.504134385
2025-11-07 14:36:37.000828,-1,2025-11-07 14:36:40.511826692
2025-11-07 14:36:37.000828,-34,2025-11-07 14:36:40.519519000
2025-11-07 14:36:37.000828,-2817,2025-11-07 14:36:40.527211308
2025-11-07 14:36:37.000828,-1,2025-11-07 14:36:40.534903615
2025-11-07 14:36:37.000828,12,2025-11-07 14:36:40.542595923
2025-11-07 14:36:37.000828,7936,2025-11-07 14:36:40.550288231
2025-11-07 14:36:37.000828,0,2025-11-07 14:36:40.557980538
2025-11-07 14:36:37.000828,41,2025-11-07 14:36:40.565672846
2025-11-07 14:36:37.000828,11008,2025-11-07 14:36:40.573365154
2025-11-07 14:36:37.000828,0,2025-11-07 14:36:40.581057462
2025-11-07 14:36:37.000828,38,2025-11-07 14:36:40.588749769
2025-11-07 14:36:37.000828,6144,2025-11-07 14:36:40.596442077
2025-11-07 14:36:37.000828,0,2025-11-07 14:36:40.604134385
2025-11-07 14:36:37.000828,-7,2025-11-07 14:36:40.611826692
2025-11-07 14:36:37.000828,-12033,2025-11-07 14:36:40.619519000
2025-11-07 14:36:37.000828,-1,2025-11-07 14:36:40.627211308
2025-11-07 14:36:37.000828,-87,2025-11-07 14:36:40.634903615
2025-11-07 14:36:37.629077,-109,2025-11-07 14:36:40.642595923
2025-11-07 14:36:37.629077,-30209,2025-11-07 14:36:40.650288231
2025-11-07 14:36:37.629077,-1,2025-11-07 14:36:40.657980538
2025-11-07 14:36:37.629077,-119,2025-11-07 14:36:40.665672846
2025-11-07 14:36:37.629077,-28929,2025-11-07 14:36:40.673365154
2025-11-07 14:36:37.629077,-1,2025-11-07 14:36:40.681057462
2025-11-07 14:36:37.629077,-99,2025-11-07 14:36:40.688749769
2025-11-07 14:36:37.629077,-23297,2025-11-07 14:36:40.696442077
2025-11-07 14:36:37.629077,-1,2025-11-07 14:36:40.704134385
2025-11-07 14:36:37.629077,-92,2025-11-07 14:36:40.711826692
2025-11-07 14:36:37.629077,-23297,2025-11-07 14:36:40.719519000
2025-11-07 14:36:37.629077,-1,2025-11-07 14:36:40.727211308
2025-11-07 14:36:37.629077,-90,2025-11-07 14:36:40.734903615
2025-11-07 14:36:37.629077,-20737,2025-11-07 14:36:40.742595923
2025-11-07 14:36:37.629077,-1,2025-11-07 14:36:40.750288231
2025-11-07 14:36:37.629077,-80,2025-11-07 14:36:40.757980538
2025-11-07 14:36:37.629077,-19457,2025-11-07 14:36:40.765672846
2025-11-07 14:36:37.629077,-1,2025-11-07 14:36:40.773365154
2025-11-07 14:36:37.629077,-77,2025-11-07 14:36:40.781057462
2025-11-07 14:36:37.629077,-18177,2025-11-07 14:36:40.788749769
2025-11-07 14:36:37.629077,-1,2025-11-07 14:36:40.796442077
2025-11-07 14:36:37.629077,-68,2025-11-07 14:36:40.804134385
2025-11-07 14:36:37.629077,-16385,2025-11-07 14:36:40.811826692
2025-11-07 14:36:37.629077,-1,2025-11-07 14:36:40.819519000
2025-11-07 14:36:37.629077,-60,2025-11-07 14:36:40.827211308
2025-11-07 14:36:37.629077,-14593,2025-11-07 14:36:40.834903615
2025-11-07 14:36:37.629077,-1,2025-11-07 14:36:40.842595923
2025-11-07 14:36:37.629077,-58,2025-11-07 14:36:40.850288231
2025-11-07 14:36:37.629077,-13825,2025-11-07 14:36:40.857980538
2025-11-07 14:36:37.629077,-1,2025-11-07 14:36:40.865672846
2025-11-07 14:36:37.629077,-53,2025-11-07 14:36:40.873365154
2025-11-07 14:36:37.629077,-12033,2025-11-07 14:36:40.881057462
2025-11-07 14:36:37.629077,-1,2025-11-07 14:36:40.888749769
2025-11-07 14:36:37.629077,-46,2025-11-07 14:36:40.896442077
2025-11-07 14:36:37.629077,-11521,2025-11-07 14:36:40.904134385
2025-11-07 14:36:37.629077,-1,2025-11-07 14:36:40.911826692
2025-11-07 14:36:37.629077,-41,2025-11-07 14:36:40.919519000
2025-11-07 14:36:37.629077,-9473,2025-11-07 14:36:40.927211308
2025-11-07 14:36:37.629077,-1,2025-11-07 14:36:40.934903615
2025-11-07 14:36:37.629077,-36,2025-11-07 14:36:40.942595923
2025-11-07 14:36:37.629077,-8449,2025-11-07 14:36:40.950288230
2025-11-07 14:36:37.629077,-1,2025-11-07 14:36:40.957980538
2025-11-07 14:36:37.629077,-34,2025-11-07 14:36:40.965672846
2025-11-07 14:36:37.629077,-8449,2025-11-07 14:36:40.973365154
2025-11-07 14:36:37.629077,-1,2025-11-07 14:36:40.981057462
2025-11-07 14:36:37.629077,-29,2025-11-07 14:36:40.988749769
2025-11-07 14:36:37.629077,-6401,2025-11-07 14:36:40.996442077
2025-11-07 14:36:37.629077,-1,2025-11-07 14:36:41.004134385
2025-11-07 14:36:37.629077,-26,2025-11-07 14:36:41.011826692
2025-11-07 14:36:37.629077,-6401,2025-11-07 14:36:41.019519000
2025-11-07 14:36:37.629077,-1,2025-11-07 14:36:41.027211308
2025-11-07 14:36:37.629077,-21,2025-11-07 14:36:41.034903615
2025-11-07 14:36:37.629077,-4609,2025-11-07 14:36:41.042595923
2025-11-07 14:36:37.629077,-1,2025-11-07 14:36:41.050288231
2025-11-07 14:36:37.629077,-19,2025-11-07 14:36:41.057980538
2025-11-07 14:36:37.629077,-4609,2025-11-07 14:36:41.065672846
2025-11-07 14:36:37.629077,-1,2025-11-07 14:36:41.073365154
2025-11-07 14:36:37.629077,-19,2025-11-07 14:36:41.081057462
2025-11-07 14:36:37.629077,-4609,2025-11-07 14:36:41.088749769
2025-11-07 14:36:37.629077,-1,2025-11-07 14:36:41.096442077
2025-11-07 14:36:37.629077,-19,2025-11-07 14:36:41.104134385
2025-11-07 14:36:37.629077,-5121,2025-11-07 14:36:41.111826692
2025-11-07 14:36:37.629077,-1,2025-11-07 14:36:41.119519000
2025-11-07 14:36:37.629077,-29,2025-11-07 14:36:41.127211308
2025-11-07 14:36:37.629077,-10241,2025-11-07 14:36:41.134903615
2025-11-07 14:36:37.629077,-1,2025-11-07 14:36:41.142595923
2025-11-07 14:36:37.629077,-46,2025-11-07 14:36:41.150288231
2025-11-07 14:36:37.629077,-11521,2025-11-07 14:36:41.157980538
2025-11-07 14:36:37.629077,-1,2025-11-07 14:36:41.165672846
2025-11-07 14:36:37.629077,-53,2025-11-07 14:36:41.173365154
2025-11-07 14:36:37.629077,-13313,2025-11-07 14:36:41.181057462
2025-11-07 14:36:37.629077,-1,2025-11-07 14:36:41.188749769
2025-11-07 14:36:37.629077,-34,2025-11-07 14:36:41.196442077
2025-11-07 14:36:37.629077,-769,2025-11-07 14:36:41.204134385
2025-11-07 14:36:37.629077,-1,2025-11-07 14:36:41.211826692
2025-11-07 14:36:37.629077,19,2025-11-07 14:36:41.219519000
2025-11-07 14:36:37.629077,5376,2025-11-07 14:36:41.227211308
2025-11-07 14:36:37.629077,0,2025-11-07 14:36:41.234903615
2025-11-07 14:36:37.629077,2,2025-11-07 14:36:41.242595923
2025-11-07 14:36:37.629077,0,2025-11-07 14:36:41.250288231
2025-11-07 14:36:37.629077,0,2025-11-07 14:36:41.257980538
2025-11-07 14:36:37.629077,7,2025-11-07 14:36:41.265672846
2025-11-07 14:36:37.629077,1792,2025-11-07 14:36:41.273365154
2025-11-07 14:36:37.629077,0,2025-11-07 14:36:41.281057462
2025-11-07 14:36:37.629077,2,2025-11-07 14:36:41.288749769
2025-11-07 14:36:37.629077,-3584,2025-11-07 14:36:41.296442077
2025-11-07 14:36:37.629077,-1,2025-11-07 14:36:41.304134385
2025-11-07 14:36:37.629077,-65,2025-11-07 14:36:41.311826692
2025-11-07 14:36:37.629077,-769,2025-11-07 14:36:41.319519000
2025-11-07 14:36:37.629077,-1,2025-11-07 14:36:41.327211308
2025-11-07 14:36:37.629077,484,2025-11-07 14:36:41.334903615
2025-11-07 14:36:37.629077,-5120,2025-11-07 14:36:41.342595923
2025-11-07 14:36:37.629077,4,2025-11-07 14:36:41.350288231
2025-11-07 14:36:37.629077,1486,2025-11-07 14:36:41.357980538
2025-11-07 14:36:37.629077,-28672,2025-11-07 14:36:41.365672846
2025-11-07 14:36:37.629077,3,2025-11-07 14:36:41.373365154
2025-11-07 14:36:37.629077,296,2025-11-07 14:36:41.381057462
2025-11-07 14:36:37.629077,14848,2025-11-07 14:36:41.388749769
2025-11-07 14:36:37.629077,0,2025-11-07 14:36:41.396442077
2025-11-07 14:36:37.629077,-51,2025-11-07 14:36:41.404134385
2025-11-07 14:36:37.629077,29183,2025-11-07 14:36:41.411826692
2025-11-07 14:36:37.629077,-1,2025-11-07 14:36:41.419519000
2025-11-07 14:36:37.629077,-153,2025-11-07 14:36:41.427211308
2025-11-07 14:36:37.629077,30463,2025-11-07 14:36:41.434903615
2025-11-07 14:36:37.629077,-1,2025-11-07 14:36:41.442595923
2025-11-07 14:36:37.629077,-153,2025-11-07 14:36:41.450288231
2025-11-07 14:36:37.629077,27391,2025-11-07 14:36:41.457980538
2025-11-07 14:36:37.629077,-1,2025-11-07 14:36:41.465672846
2025-11-07 14:36:37.629077,-136,2025-11-07 14:36:41.473365154
2025-11-07 14:36:38.168195,-126,2025-11-07 14:36:41.481057462
2025-11-07 14:36:38.168195,-29441,2025-11-07 14:36:41.488749769
2025-11-07 14:36:38.168195,-1,2025-11-07 14:36:41.496442077
2025-11-07 14:36:38.168195,-107,2025-11-07 14:36:41.504134385
2025-11-07 14:36:38.168195,-24577,2025-11-07 14:36:41.511826692
2025-11-07 14:36:38.168195,-1,2025-11-07 14:36:41.519519000
2025-11-07 14:36:38.168195,-90,2025-11-07 14:36:41.527211308
2025-11-07 14:36:38.168195,-20225,2025-11-07 14:36:41.534903615
2025-11-07 14:36:38.168195,-1,2025-11-07 14:36:41.542595923
2025-11-07 14:36:38.168195,-65,2025-11-07 14:36:41.550288231
2025-11-07 14:36:38.168195,-12801,2025-11-07 14:36:41.557980538
2025-11-07 14:36:38.168195,-1,2025-11-07 14:36:41.565672846
2025-11-07 14:36:38.168195,-38,2025-11-07 14:36:41.573365154
2025-11-07 14:36:38.168195,-5889,2025-11-07 14:36:41.581057462
2025-11-07 14:36:38.168195,-1,2025-11-07 14:36:41.588749769
2025-11-07 14:36:38.168195,-7,2025-11-07 14:36:41.596442077
2025-11-07 14:36:38.168195,3327,2025-11-07 14:36:41.604134385
2025-11-07 14:36:38.168195,0,2025-11-07 14:36:41.611826692
2025-11-07 14:36:38.168195,36,2025-11-07 14:36:41.619519000
2025-11-07 14:36:38.168195,17408,2025-11-07 14:36:41.627211308
2025-11-07 14:36:38.168195,0,2025-11-07 14:36:41.634903615
2025-11-07 14:36:38.168195,85,2025-11-07 14:36:41.642595923
2025-11-07 14:36:38.168195,20480,2025-11-07 14:36:41.650288231
2025-11-07 14:36:38.168195,0,2025-11-07 14:36:41.657980538
2025-11-07 14:36:38.168195,72,2025-11-07 14:36:41.665672846
2025-11-07 14:36:38.168195,13056,2025-11-07 14:36:41.673365154
2025-11-07 14:36:38.168195,0,2025-11-07 14:36:41.681057462
2025-11-07 14:36:38.168195,9,2025-11-07 14:36:41.688749769
2025-11-07 14:36:38.168195,-8704,2025-11-07 14:36:41.696442077
2025-11-07 14:36:38.168195,-1,2025-11-07 14:36:41.704134385
2025-11-07 14:36:38.168195,-65,2025-11-07 14:36:41.711826692
2025-11-07 14:36:38.168195,-21505,2025-11-07 14:36:41.719519000
2025-11-07 14:36:38.168195,-1,2025-11-07 14:36:41.727211308
2025-11-07 14:36:38.168195,-94,2025-11-07 14:36:41.734903615
2025-11-07 14:36:38.168195,-25857,2025-11-07 14:36:41.742595923
2025-11-07 14:36:38.168195,-1,2025-11-07 14:36:41.750288231
2025-11-07 14:36:38.168195,-94,2025-11-07 14:36:41.757980538
2025-11-07 14:36:38.168195,-21505,2025-11-07 14:36:41.765672846
2025-11-07 14:36:38.168195,-1,2025-11-07 14:36:41.773365154
2025-11-07 14:36:38.168195,-82,2025-11-07 14:36:41.781057462
2025-11-07 14:36:38.168195,-20737,2025-11-07 14:36:41.788749769
2025-11-07 14:36:38.168195,-1,2025-11-07 14:36:41.796442077
2025-11-07 14:36:38.168195,-77,2025-11-07 14:36:41.804134385
2025-11-07 14:36:38.168195,-18177,2025-11-07 14:36:41.811826692
2025-11-07 14:36:38.168195,-1,2025-11-07 14:36:41.819519000
2025-11-07 14:36:38.168195,-70,2025-11-07 14:36:41.827211308
2025-11-07 14:36:38.168195,-16385,2025-11-07 14:36:41.834903615
2025-11-07 14:36:38.168195,-1,2025-11-07 14:36:41.842595923
2025-11-07 14:36:38.168195,-60,2025-11-07 14:36:41.850288231
2025-11-07 14:36:38.168195,-15105,2025-11-07 14:36:41.857980538
2025-11-07 14:36:38.168195,-1,2025-11-07 14:36:41.865672846
2025-11-07 14:36:38.168195,-58,2025-11-07 14:36:41.873365154
2025-11-07 14:36:38.168195,-13825,2025-11-07 14:36:41.881057462
2025-11-07 14:36:38.168195,-1,2025-11-07 14:36:41.888749769
2025-11-07 14:36:38.168195,-51,2025-11-07 14:36:41.896442077
2025-11-07 14:36:38.168195,-11521,2025-11-07 14:36:41.904134385
2025-11-07 14:36:38.168195,-1,2025-11-07 14:36:41.911826692
2025-11-07 14:36:38.168195,-46,2025-11-07 14:36:41.919519000
2025-11-07 14:36:38.168195,-12033,2025-11-07 14:36:41.927211308
2025-11-07 14:36:38.168195,-1,2025-11-07 14:36:41.934903615
2025-11-07 14:36:38.168195,-43,2025-11-07 14:36:41.942595923
2025-11-07 14:36:38.168195,-7681,2025-11-07 14:36:41.950288230
2025-11-07 14:36:38.168195,-1,2025-11-07 14:36:41.957980538
2025-11-07 14:36:38.168195,-26,2025-11-07 14:36:41.965672846
2025-11-07 14:36:38.168195,-7681,2025-11-07 14:36:41.973365154
2025-11-07 14:36:38.168195,-1,2025-11-07 14:36:41.981057462
2025-11-07 14:36:38.168195,-31,2025-11-07 14:36:41.988749769
2025-11-07 14:36:38.168195,-5889,2025-11-07 14:36:41.996442077
2025-11-07 14:36:38.168195,-1,2025-11-07 14:36:42.004134385
2025-11-07 14:36:38.168195,-21,2025-11-07 14:36:42.011826692
2025-11-07 14:36:38.168195,-5121,2025-11-07 14:36:42.019519000
2025-11-07 14:36:38.168195,-1,2025-11-07 14:36:42.027211308
2025-11-07 14:36:38.168195,-17,2025-11-07 14:36:42.034903615
2025-11-07 14:36:38.168195,-2049,2025-11-07 14:36:42.042595923
2025-11-07 14:36:38.168195,-1,2025-11-07 14:36:42.050288231
2025-11-07 14:36:38.168195,-7,2025-11-07 14:36:42.057980538
2025-11-07 14:36:38.168195,-1537,2025-11-07 14:36:42.065672846
2025-11-07 14:36:38.168195,-1,2025-11-07 14:36:42.073365154
2025-11-07 14:36:38.168195,-9,2025-11-07 14:36:42.081057462
2025-11-07 14:36:38.168195,-2049,2025-11-07 14:36:42.088749769
2025-11-07 14:36:38.168195,-1,2025-11-07 14:36:42.096442077
2025-11-07 14:36:38.168195,-4,2025-11-07 14:36:42.104134385
2025-11-07 14:36:38.168195,-257,2025-11-07 14:36:42.111826692
2025-11-07 14:36:38.168195,-1,2025-11-07 14:36:42.119519000
2025-11-07 14:36:38.168195,-2,2025-11-07 14:36:42.127211308
2025-11-07 14:36:38.168195,255,2025-11-07 14:36:42.134903615
2025-11-07 14:36:38.168195,0,2025-11-07 14:36:42.142595923
2025-11-07 14:36:38.168195,0,2025-11-07 14:36:42.150288231
2025-11-07 14:36:38.168195,-1792,2025-11-07 14:36:42.157980538
2025-11-07 14:36:38.168195,-1,2025-11-07 14:36:42.165672846
2025-11-07 14:36:38.168195,-21,2025-11-07 14:36:42.173365154
2025-11-07 14:36:38.168195,-7169,2025-11-07 14:36:42.181057462
2025-11-07 14:36:38.168195,-1,2025-11-07 14:36:42.188749769
2025-11-07 14:36:38.168195,-34,2025-11-07 14:36:42.196442077
2025-11-07 14:36:38.168195,-9473,2025-11-07 14:36:42.204134385
2025-11-07 14:36:38.168195,-1,2025-11-07 14:36:42.211826692
2025-11-07 14:36:38.168195,-29,2025-11-07 14:36:42.219519000
2025-11-07 14:36:38.168195,255,2025-11-07 14:36:42.227211308
2025-11-07 14:36:38.168195,0,2025-11-07 14:36:42.234903615
2025-11-07 14:36:38.168195,31,2025-11-07 14:36:42.242595923
2025-11-07 14:36:38.168195,11008,2025-11-07 14:36:42.250288231
2025-11-07 14:36:38.168195,0,2025-11-07 14:36:42.257980538
2025-11-07 14:36:38.168195,26,2025-11-07 14:36:42.265672846
2025-11-07 14:36:38.168195,3072,2025-11-07 14:36:42.273365154
2025-11-07 14:36:38.168195,0,2025-11-07 14:36:42.281057462
2025-11-07 14:36:38.168195,19,2025-11-07 14:36:42.288749769
2025-11-07 14:36:38.168195,6656,2025-11-07 14:36:42.296442077
2025-11-07 14:36:38.168195,0,2025-11-07 14:36:42.304134385
2025-11-07 14:36:38.168195,19,2025-11-07 14:36:42.311826692
2025-11-07 14:36:38.753202,12,2025-11-07 14:36:42.319519000
2025-11-07 14:36:38.753202,-4352,2025-11-07 14:36:42.327211308
2025-11-07 14:36:38.753202,-1,2025-11-07 14:36:42.334903615
2025-11-07 14:36:38.753202,-53,2025-11-07 14:36:42.342595923
2025-11-07 14:36:38.753202,-27393,2025-11-07 14:36:42.350288231
2025-11-07 14:36:38.753202,0,2025-11-07 14:36:42.357980538
2025-11-07 14:36:38.753202,805,2025-11-07 14:36:42.365672846
2025-11-07 14:36:38.753202,-28416,2025-11-07 14:36:42.373365154
2025-11-07 14:36:38.753202,5,2025-11-07 14:36:42.381057462
2025-11-07 14:36:38.753202,1243,2025-11-07 14:36:42.388749769
2025-11-07 14:36:38.753202,12032,2025-11-07 14:36:42.396442077
2025-11-07 14:36:38.753202,2,2025-11-07 14:36:42.404134385
2025-11-07 14:36:38.753202,167,2025-11-07 14:36:42.411826692
2025-11-07 14:36:38.753202,14848,2025-11-07 14:36:42.419519000
2025-11-07 14:36:38.753202,0,2025-11-07 14:36:42.427211308
2025-11-07 14:36:38.753202,-53,2025-11-07 14:36:42.434903615
2025-11-07 14:36:38.753202,-28929,2025-11-07 14:36:42.442595923
2025-11-07 14:36:38.753202,-1,2025-11-07 14:36:42.450288231
2025-11-07 14:36:38.753202,-99,2025-11-07 14:36:42.457980538
2025-11-07 14:36:38.753202,-24577,2025-11-07 14:36:42.465672846
2025-11-07 14:36:38.753202,-1,2025-11-07 14:36:42.473365154
2025-11-07 14:36:38.753202,-109,2025-11-07 14:36:42.481057462
2025-11-07 14:36:38.753202,-24577,2025-11-07 14:36:42.488749769
2025-11-07 14:36:38.753202,-1,2025-11-07 14:36:42.496442077
2025-11-07 14:36:38.753202,-82,2025-11-07 14:36:42.504134385
2025-11-07 14:36:38.753202,-18945,2025-11-07 14:36:42.511826692
2025-11-07 14:36:38.753202,-1,2025-11-07 14:36:42.519519000
2025-11-07 14:36:38.753202,-63,2025-11-07 14:36:42.527211308
2025-11-07 14:36:38.753202,-13313,2025-11-07 14:36:42.534903615
2025-11-07 14:36:38.753202,-1,2025-11-07 14:36:42.542595923
2025-11-07 14:36:38.753202,-53,2025-11-07 14:36:42.550288231
2025-11-07 14:36:38.753202,-10753,2025-11-07 14:36:42.557980538
2025-11-07 14:36:38.753202,-1,2025-11-07 14:36:42.565672846
2025-11-07 14:36:38.753202,-26,2025-11-07 14:36:42.573365154
2025-11-07 14:36:38.753202,-4097,2025-11-07 14:36:42.581057462
2025-11-07 14:36:38.753202,-1,2025-11-07 14:36:42.588749769
2025-11-07 14:36:38.753202,-4,2025-11-07 14:36:42.596442077
2025-11-07 14:36:38.753202,3327,2025-11-07 14:36:42.604134385
2025-11-07 14:36:38.753202,0,2025-11-07 14:36:42.611826692
2025-11-07 14:36:38.753202,26,2025-11-07 14:36:42.619519000
2025-11-07 14:36:38.753202,11776,2025-11-07 14:36:42.627211308
2025-11-07 14:36:38.753202,0,2025-11-07 14:36:42.634903615
2025-11-07 14:36:38.753202,68,2025-11-07 14:36:42.642595923
2025-11-07 14:36:38.753202,21760,2025-11-07 14:36:42.650288231
2025-11-07 14:36:38.753202,0,2025-11-07 14:36:42.657980538
2025-11-07 14:36:38.753202,97,2025-11-07 14:36:42.665672846
2025-11-07 14:36:38.753202,26624,2025-11-07 14:36:42.673365154
2025-11-07 14:36:38.753202,0,2025-11-07 14:36:42.681057462
2025-11-07 14:36:38.753202,90,2025-11-07 14:36:42.688749769
2025-11-07 14:36:38.753202,16128,2025-11-07 14:36:42.696442077
2025-11-07 14:36:38.753202,0,2025-11-07 14:36:42.704134385
2025-11-07 14:36:38.753202,26,2025-11-07 14:36:42.711826692
2025-11-07 14:36:38.753202,-3584,2025-11-07 14:36:42.719519000
2025-11-07 14:36:38.753202,-1,2025-11-07 14:36:42.727211308
2025-11-07 14:36:38.753202,-48,2025-11-07 14:36:42.734903615
2025-11-07 14:36:38.753202,-17665,2025-11-07 14:36:42.742595923
2025-11-07 14:36:38.753202,-1,2025-11-07 14:36:42.750288231
2025-11-07 14:36:38.753202,-80,2025-11-07 14:36:42.757980538
2025-11-07 14:36:38.753202,-19457,2025-11-07 14:36:42.765672846
2025-11-07 14:36:38.753202,-1,2025-11-07 14:36:42.773365154
2025-11-07 14:36:38.753202,-72,2025-11-07 14:36:42.781057462
2025-11-07 14:36:38.753202,-18177,2025-11-07 14:36:42.788749769
2025-11-07 14:36:38.753202,-1,2025-11-07 14:36:42.796442077
2025-11-07 14:36:38.753202,-72,2025-11-07 14:36:42.804134385
2025-11-07 14:36:38.753202,-17153,2025-11-07 14:36:42.811826692
2025-11-07 14:36:38.753202,-1,2025-11-07 14:36:42.819519000
2025-11-07 14:36:38.753202,-63,2025-11-07 14:36:42.827211308
2025-11-07 14:36:38.753202,-14593,2025-11-07 14:36:42.834903615
2025-11-07 14:36:38.753202,-1,2025-11-07 14:36:42.842595923
2025-11-07 14:36:38.753202,-55,2025-11-07 14:36:42.850288231
2025-11-07 14:36:38.753202,-15105,2025-11-07 14:36:42.857980538
2025-11-07 14:36:38.753202,-1,2025-11-07 14:36:42.865672846
2025-11-07 14:36:38.753202,-58,2025-11-07 14:36:42.873365154
2025-11-07 14:36:38.753202,-11521,2025-11-07 14:36:42.881057462
2025-11-07 14:36:38.753202,-1,2025-11-07 14:36:42.888749769
2025-11-07 14:36:38.753202,-34,2025-11-07 14:36:42.896442077
2025-11-07 14:36:38.753202,-8961,2025-11-07 14:36:42.904134385
2025-11-07 14:36:38.753202,-1,2025-11-07 14:36:42.911826692
2025-11-07 14:36:38.753202,-34,2025-11-07 14:36:42.919519000
2025-11-07 14:36:38.753202,-7169,2025-11-07 14:36:42.927211308
2025-11-07 14:36:38.753202,-1,2025-11-07 14:36:42.934903615
2025-11-07 14:36:38.753202,-31,2025-11-07 14:36:42.942595923
2025-11-07 14:36:38.753202,-7681,2025-11-07 14:36:42.950288230
2025-11-07 14:36:38.753202,-1,2025-11-07 14:36:42.957980538
2025-11-07 14:36:38.753202,-24,2025-11-07 14:36:42.965672846
2025-11-07 14:36:38.753202,-3329,2025-11-07 14:36:42.973365154
2025-11-07 14:36:38.753202,-1,2025-11-07 14:36:42.981057462
2025-11-07 14:36:38.753202,-14,2025-11-07 14:36:42.988749769
2025-11-07 14:36:38.753202,-4097,2025-11-07 14:36:42.996442077
2025-11-07 14:36:38.753202,-1,2025-11-07 14:36:43.004134385
2025-11-07 14:36:38.753202,-12,2025-11-07 14:36:43.011826692
2025-11-07 14:36:38.753202,-1537,2025-11-07 14:36:43.019519000
2025-11-07 14:36:38.753202,-1,2025-11-07 14:36:43.027211308
2025-11-07 14:36:38.753202,-9,2025-11-07 14:36:43.034903615
2025-11-07 14:36:38.753202,-2049,2025-11-07 14:36:43.042595923
2025-11-07 14:36:38.753202,-1,2025-11-07 14:36:43.050288231
2025-11-07 14:36:38.753202,-7,2025-11-07 14:36:43.057980538
2025-11-07 14:36:38.753202,-1537,2025-11-07 14:36:43.065672846
2025-11-07 14:36:38.753202,-1,2025-11-07 14:36:43.073365154
2025-11-07 14:36:38.753202,-7,2025-11-07 14:36:43.081057462
2025-11-07 14:36:38.753202,-769,2025-11-07 14:36:43.088749769
2025-11-07 14:36:38.753202,-1,2025-11-07 14:36:43.096442077
2025-11-07 14:36:38.753202,-2,2025-11-07 14:36:43.104134385
2025-11-07 14:36:38.753202,767,2025-11-07 14:36:43.111826692
2025-11-07 14:36:38.753202,0,2025-11-07 14:36:43.119519000
2025-11-07 14:36:38.753202,2,2025-11-07 14:36:43.127211308
2025-11-07 14:36:38.753202,-1792,2025-11-07 14:36:43.134903615
2025-11-07 14:36:38.753202,-1,2025-11-07 14:36:43.142595923
2025-11-07 14:36:38.753202,-21,2025-11-07 14:36:43.150288231
2025-11-07 14:36:39.292617,-26,2025-11-07 14:36:43.157980538
2025-11-07 14:36:39.292617,-7169,2025-11-07 14:36:43.165672846
2025-11-07 14:36:39.292617,-1,2025-11-07 14:36:43.173365154
2025-11-07 14:36:39.292617,-31,2025-11-07 14:36:43.181057462
2025-11-07 14:36:39.292617,-5889,2025-11-07 14:36:43.188749769
2025-11-07 14:36:39.292617,-1,2025-11-07 14:36:43.196442077
2025-11-07 14:36:39.292617,-12,2025-11-07 14:36:43.204134385
2025-11-07 14:36:39.292617,2559,2025-11-07 14:36:43.211826692
2025-11-07 14:36:39.292617,0,2025-11-07 14:36:43.219519000
2025-11-07 14:36:39.292617,36,2025-11-07 14:36:43.227211308
2025-11-07 14:36:39.292617,10496,2025-11-07 14:36:43.234903615
2025-11-07 14:36:39.292617,0,2025-11-07 14:36:43.242595923
2025-11-07 14:36:39.292617,17,2025-11-07 14:36:43.250288231
2025-11-07 14:36:39.292617,2304,2025-11-07 14:36:43.257980538
2025-11-07 14:36:39.292617,0,2025-11-07 14:36:43.265672846
2025-11-07 14:36:39.292617,26,2025-11-07 14:36:43.273365154
2025-11-07 14:36:39.292617,7424,2025-11-07 14:36:43.281057462
2025-11-07 14:36:39.292617,0,2025-11-07 14:36:43.288749769
2025-11-07 14:36:39.292617,17,2025-11-07 14:36:43.296442077
2025-11-07 14:36:39.292617,2304,2025-11-07 14:36:43.304134385
2025-11-07 14:36:39.292617,0,2025-11-07 14:36:43.311826692
2025-11-07 14:36:39.292617,-17,2025-11-07 14:36:43.319519000
2025-11-07 14:36:39.292617,255,2025-11-07 14:36:43.327211308
2025-11-07 14:36:39.292617,0,2025-11-07 14:36:43.334903615
2025-11-07 14:36:39.292617,345,2025-11-07 14:36:43.342595923
2025-11-07 14:36:39.292617,4864,2025-11-07 14:36:43.350288231
2025-11-07 14:36:39.292617,4,2025-11-07 14:36:43.357980538
2025-11-07 14:36:39.292617,1355,2025-11-07 14:36:43.365672846
2025-11-07 14:36:39.292617,24320,2025-11-07 14:36:43.373365154
2025-11-07 14:36:39.292617,3,2025-11-07 14:36:43.381057462
2025-11-07 14:36:39.292617,299,2025-11-07 14:36:43.388749769
2025-11-07 14:36:39.292617,-32768,2025-11-07 14:36:43.396442077
2025-11-07 14:36:39.292617,0,2025-11-07 14:36:43.404134385
2025-11-07 14:36:39.292617,31,2025-11-07 14:36:43.411826692
2025-11-07 14:36:39.292617,-23552,2025-11-07 14:36:43.419519000
2025-11-07 14:36:39.292617,-1,2025-11-07 14:36:43.427211308
2025-11-07 14:36:39.292617,-111,2025-11-07 14:36:43.434903615
2025-11-07 14:36:39.292617,-24577,2025-11-07 14:36:43.442595923
2025-11-07 14:36:39.292617,-1,2025-11-07 14:36:43.450288231
2025-11-07 14:36:39.292617,-114,2025-11-07 14:36:43.457980538
2025-11-07 14:36:39.292617,-28929,2025-11-07 14:36:43.465672846
2025-11-07 14:36:39.292617,-1,2025-11-07 14:36:43.473365154
2025-11-07 14:36:39.292617,-99,2025-11-07 14:36:43.481057462
2025-11-07 14:36:39.292617,-23297,2025-11-07 14:36:43.488749769
2025-11-07 14:36:39.292617,-1,2025-11-07 14:36:43.496442077
2025-11-07 14:36:39.292617,-80,2025-11-07 14:36:43.504134385
2025-11-07 14:36:39.292617,-16385,2025-11-07 14:36:43.511826692
2025-11-07 14:36:39.292617,-1,2025-11-07 14:36:43.519519000
2025-11-07 14:36:39.292617,-63,2025-11-07 14:36:43.527211308
2025-11-07 14:36:39.292617,-15105,2025-11-07 14:36:43.534903615
2025-11-07 14:36:39.292617,-1,2025-11-07 14:36:43.542595923
2025-11-07 14:36:39.292617,-48,2025-11-07 14:36:43.550288231
2025-11-07 14:36:39.292617,-9473,2025-11-07 14:36:43.557980538
2025-11-07 14:36:39.292617,-1,2025-11-07 14:36:43.565672846
2025-11-07 14:36:39.292617,-29,2025-11-07 14:36:43.573365154
2025-11-07 14:36:39.292617,-2049,2025-11-07 14:36:43.581057462
2025-11-07 14:36:39.292617,-1,2025-11-07 14:36:43.588749769
2025-11-07 14:36:39.292617,4,2025-11-07 14:36:43.596442077
2025-11-07 14:36:39.292617,3584,2025-11-07 14:36:43.604134385
2025-11-07 14:36:39.292617,0,2025-11-07 14:36:43.611826692
2025-11-07 14:36:39.292617,31,2025-11-07 14:36:43.619519000
2025-11-07 14:36:39.292617,13056,2025-11-07 14:36:43.627211308
2025-11-07 14:36:39.292617,0,2025-11-07 14:36:43.634903615
2025-11-07 14:36:39.292617,60,2025-11-07 14:36:43.642595923
2025-11-07 14:36:39.292617,17408,2025-11-07 14:36:43.650288231
2025-11-07 14:36:39.292617,0,2025-11-07 14:36:43.657980538
2025-11-07 14:36:39.292617,68,2025-11-07 14:36:43.665672846
2025-11-07 14:36:39.292617,13056,2025-11-07 14:36:43.673365154
2025-11-07 14:36:39.292617,0,2025-11-07 14:36:43.681057462
2025-11-07 14:36:39.292617,19,2025-11-07 14:36:43.688749769
2025-11-07 14:36:39.292617,-4352,2025-11-07 14:36:43.696442077
2025-11-07 14:36:39.292617,-1,2025-11-07 14:36:43.704134385
2025-11-07 14:36:39.292617,-55,2025-11-07 14:36:43.711826692
2025-11-07 14:36:39.292617,-23297,2025-11-07 14:36:43.719519000
2025-11-07 14:36:39.292617,-1,2025-11-07 14:36:43.727211308
2025-11-07 14:36:39.292617,-109,2025-11-07 14:36:43.734903615
2025-11-07 14:36:39.292617,-28929,2025-11-07 14:36:43.742595923
2025-11-07 14:36:39.292617,-1,2025-11-07 14:36:43.750288231
2025-11-07 14:36:39.292617,-111,2025-11-07 14:36:43.757980538
2025-11-07 14:36:39.292617,-27137,2025-11-07 14:36:43.765672846
2025-11-07 14:36:39.292617,-1,2025-11-07 14:36:43.773365154
2025-11-07 14:36:39.292617,-102,2025-11-07 14:36:43.781057462
2025-11-07 14:36:39.292617,-24577,2025-11-07 14:36:43.788749769
2025-11-07 14:36:39.292617,-1,2025-11-07 14:36:43.796442077
2025-11-07 14:36:39.292617,-102,2025-11-07 14:36:43.804134385
2025-11-07 14:36:39.292617,-25089,2025-11-07 14:36:43.811826692
2025-11-07 14:36:39.292617,-1,2025-11-07 14:36:43.819519000
2025-11-07 14:36:39.292617,-90,2025-11-07 14:36:43.827211308
2025-11-07 14:36:39.292617,-21505,2025-11-07 14:36:43.834903615
2025-11-07 14:36:39.292617,-1,2025-11-07 14:36:43.842595923
2025-11-07 14:36:39.292617,-87,2025-11-07 14:36:43.850288231
2025-11-07 14:36:39.292617,-21505,2025-11-07 14:36:43.857980538
2025-11-07 14:36:39.292617,-1,2025-11-07 14:36:43.865672846
2025-11-07 14:36:39.292617,-80,2025-11-07 14:36:43.873365154
2025-11-07 14:36:39.292617,-18945,2025-11-07 14:36:43.881057462
2025-11-07 14:36:39.292617,-1,2025-11-07 14:36:43.888749769
2025-11-07 14:36:39.292617,-72,2025-11-07 14:36:43.896442077
2025-11-07 14:36:39.292617,-17153,2025-11-07 14:36:43.904134385
2025-11-07 14:36:39.292617,-1,2025-11-07 14:36:43.911826692
2025-11-07 14:36:39.292617,-63,2025-11-07 14:36:43.919519000
2025-11-07 14:36:39.292617,-15873,2025-11-07 14:36:43.927211308
2025-11-07 14:36:39.292617,-1,2025-11-07 14:36:43.934903615
2025-11-07 14:36:39.292617,-60,2025-11-07 14:36:43.942595923
2025-11-07 14:36:39.292617,-13825,2025-11-07 14:36:43.950288230
2025-11-07 14:36:39.292617,-1,2025-11-07 14:36:43.957980538
2025-11-07 14:36:39.292617,-53,2025-11-07 14:36:43.965672846
2025-11-07 14:36:39.292617,-12033,2025-11-07 14:36:43.973365154
2025-11-07 14:36:39.292617,-1,2025-11-07 14:36:43.981057462
2025-11-07 14:36:39.292617,-46,2025-11-07 14:36:43.988749769
2025-11-07 14:36:39.832616,-41,2025-11-07 14:36:43.996442077
2025-11-07 14:36:39.832616,-9473,2025-11-07 14:36:44.004134385
2025-11-07 14:36:39.832616,-1,2025-11-07 14:36:44.011826692
2025-11-07 14:36:39.832616,-38,2025-11-07 14:36:44.019519000
2025-11-07 14:36:39.832616,-10241,2025-11-07 14:36:44.027211308
2025-11-07 14:36:39.832616,-1,2025-11-07 14:36:44.034903615
2025-11-07 14:36:39.832616,-36,2025-11-07 14:36:44.042595923
2025-11-07 14:36:39.832616,-7169,2025-11-07 14:36:44.050288231
2025-11-07 14:36:39.832616,-1,2025-11-07 14:36:44.057980538
2025-11-07 14:36:39.832616,-31,2025-11-07 14:36:44.065672846
2025-11-07 14:36:39.832616,-8961,2025-11-07 14:36:44.073365154
2025-11-07 14:36:39.832616,-1,2025-11-07 14:36:44.081057462
2025-11-07 14:36:39.832616,-34,2025-11-07 14:36:44.088749769
2025-11-07 14:36:39.832616,-7681,2025-11-07 14:36:44.096442077
2025-11-07 14:36:39.832616,-1,2025-11-07 14:36:44.104134385
2025-11-07 14:36:39.832616,-29,2025-11-07 14:36:44.111826692
2025-11-07 14:36:39.832616,-5889,2025-11-07 14:36:44.119519000
2025-11-07 14:36:39.832616,-1,2025-11-07 14:36:44.127211308
2025-11-07 14:36:39.832616,-36,2025-11-07 14:36:44.134903615
2025-11-07 14:36:39.832616,-11521,2025-11-07 14:36:44.142595923
2025-11-07 14:36:39.832616,-1,2025-11-07 14:36:44.150288231
2025-11-07 14:36:39.832616,-51,2025-11-07 14:36:44.157980538
2025-11-07 14:36:39.832616,-13313,2025-11-07 14:36:44.165672846
2025-11-07 14:36:39.832616,-1,2025-11-07 14:36:44.173365154
2025-11-07 14:36:39.832616,-43,2025-11-07 14:36:44.181057462
2025-11-07 14:36:39.832616,-4097,2025-11-07 14:36:44.188749769
2025-11-07 14:36:39.832616,-1,2025-11-07 14:36:44.196442077
2025-11-07 14:36:39.832616,7,2025-11-07 14:36:44.204134385
2025-11-07 14:36:39.832616,6144,2025-11-07 14:36:44.211826692
2025-11-07 14:36:39.832616,0,2025-11-07 14:36:44.219519000
2025-11-07 14:36:39.832616,12,2025-11-07 14:36:44.227211308
2025-11-07 14:36:39.832616,-2304,2025-11-07 14:36:44.234903615
2025-11-07 14:36:39.832616,-1,2025-11-07 14:36:44.242595923
2025-11-07 14:36:39.832616,-2,2025-11-07 14:36:44.250288231
2025-11-07 14:36:39.832616,2559,2025-11-07 14:36:44.257980538
2025-11-07 14:36:39.832616,0,2025-11-07 14:36:44.265672846
2025-11-07 14:36:39.832616,4,2025-11-07 14:36:44.273365154
2025-11-07 14:36:39.832616,-512,2025-11-07 14:36:44.281057462
2025-11-07 14:36:39.832616,-1,2025-11-07 14:36:44.288749769
2025-11-07 14:36:39.832616,-29,2025-11-07 14:36:44.296442077
2025-11-07 14:36:39.832616,-20225,2025-11-07 14:36:44.304134385
2025-11-07 14:36:39.832616,-1,2025-11-07 14:36:44.311826692
2025-11-07 14:36:39.832616,51,2025-11-07 14:36:44.319519000
2025-11-07 14:36:39.832616,-23552,2025-11-07 14:36:44.327211308
2025-11-07 14:36:39.832616,2,2025-11-07 14:36:44.334903615
2025-11-07 14:36:39.832616,1442,2025-11-07 14:36:44.342595923
2025-11-07 14:36:39.832616,-22784,2025-11-07 14:36:44.350288231
2025-11-07 14:36:39.832616,5,2025-11-07 14:36:44.357980538
2025-11-07 14:36:39.832616,751,2025-11-07 14:36:44.365672846
2025-11-07 14:36:39.832616,-10752,2025-11-07 14:36:44.373365154
2025-11-07 14:36:39.832616,0,2025-11-07 14:36:44.381057462
2025-11-07 14:36:39.832616,31,2025-11-07 14:36:44.388749769
2025-11-07 14:36:39.832616,-21760,2025-11-07 14:36:44.396442077
2025-11-07 14:36:39.832616,-1,2025-11-07 14:36:44.404134385
2025-11-07 14:36:39.832616,-167,2025-11-07 14:36:44.411826692
2025-11-07 14:36:39.832616,24063,2025-11-07 14:36:44.419519000
2025-11-07 14:36:39.832616,-1,2025-11-07 14:36:44.427211308
2025-11-07 14:36:39.832616,-155,2025-11-07 14:36:44.434903615
2025-11-07 14:36:39.832616,23039,2025-11-07 14:36:44.442595923
2025-11-07 14:36:39.832616,-1,2025-11-07 14:36:44.450288231
2025-11-07 14:36:39.832616,-158,2025-11-07 14:36:44.457980538
2025-11-07 14:36:39.832616,29695,2025-11-07 14:36:44.465672846
2025-11-07 14:36:39.832616,-1,2025-11-07 14:36:44.473365154
2025-11-07 14:36:39.832616,-138,2025-11-07 14:36:44.481057462
2025-11-07 14:36:39.832616,31743,2025-11-07 14:36:44.488749769
2025-11-07 14:36:39.832616,-1,2025-11-07 14:36:44.496442077
2025-11-07 14:36:39.832616,-124,2025-11-07 14:36:44.504134385
2025-11-07 14:36:39.832616,-28929,2025-11-07 14:36:44.511826692
2025-11-07 14:36:39.832616,-1,2025-11-07 14:36:44.519519000
2025-11-07 14:36:39.832616,-104,2025-11-07 14:36:44.527211308
2025-11-07 14:36:39.832616,-23297,2025-11-07 14:36:44.534903615
2025-11-07 14:36:39.832616,-1,2025-11-07 14:36:44.542595923
2025-11-07 14:36:39.832616,-77,2025-11-07 14:36:44.550288231
2025-11-07 14:36:39.832616,-17153,2025-11-07 14:36:44.557980538
2025-11-07 14:36:39.832616,-1,2025-11-07 14:36:44.565672846
2025-11-07 14:36:39.832616,-55,2025-11-07 14:36:44.573365154
2025-11-07 14:36:39.832616,-8961,2025-11-07 14:36:44.581057462
2025-11-07 14:36:39.832616,-1,2025-11-07 14:36:44.588749769
2025-11-07 14:36:39.832616,-17,2025-11-07 14:36:44.596442077
2025-11-07 14:36:39.832616,-257,2025-11-07 14:36:44.604134385
2025-11-07 14:36:39.832616,-1,2025-11-07 14:36:44.611826692
2025-11-07 14:36:39.832616,12,2025-11-07 14:36:44.619519000
2025-11-07 14:36:39.832616,6656,2025-11-07 14:36:44.627211308
2025-11-07 14:36:39.832616,0,2025-11-07 14:36:44.634903615
2025-11-07 14:36:39.832616,31,2025-11-07 14:36:44.642595923
2025-11-07 14:36:39.832616,7424,2025-11-07 14:36:44.650288231
2025-11-07 14:36:39.832616,0,2025-11-07 14:36:44.657980538
2025-11-07 14:36:39.832616,17,2025-11-07 14:36:44.665672846
2025-11-07 14:36:39.832616,-3072,2025-11-07 14:36:44.673365154
2025-11-07 14:36:39.832616,-1,2025-11-07 14:36:44.681057462
2025-11-07 14:36:39.832616,-55,2025-11-07 14:36:44.688749769
2025-11-07 14:36:39.832616,-23809,2025-11-07 14:36:44.696442077
2025-11-07 14:36:39.832616,-1,2025-11-07 14:36:44.704134385
2025-11-07 14:36:39.832616,-116,2025-11-07 14:36:44.711826692
2025-11-07 14:36:39.832616,-31489,2025-11-07 14:36:44.719519000
2025-11-07 14:36:39.832616,-1,2025-11-07 14:36:44.727211308
2025-11-07 14:36:39.832616,-124,2025-11-07 14:36:44.734903615
2025-11-07 14:36:39.832616,-30721,2025-11-07 14:36:44.742595923
2025-11-07 14:36:39.832616,-1,2025-11-07 14:36:44.750288231
2025-11-07 14:36:39.832616,-116,2025-11-07 14:36:44.757980538
2025-11-07 14:36:39.832616,-29441,2025-11-07 14:36:44.765672846
2025-11-07 14:36:39.832616,-1,2025-11-07 14:36:44.773365154
2025-11-07 14:36:39.832616,-114,2025-11-07 14:36:44.781057462
2025-11-07 14:36:39.832616,-27649,2025-11-07 14:36:44.788749769
2025-11-07 14:36:39.832616,-1,2025-11-07 14:36:44.796442077
2025-11-07 14:36:39.832616,-102,2025-11-07 14:36:44.804134385
2025-11-07 14:36:39.832616,-25089,2025-11-07 14:36:44.811826692
2025-11-07 14:36:39.832616,-1,2025-11-07 14:36:44.819519000
2025-11-07 14:36:39.832616,-97,2025-11-07 14:36:44.827211308
2025-11-07 14:36:40.374353,-94,2025-11-07 14:36:44.834903615
2025-11-07 14:36:40.374353,-22785,2025-11-07 14:36:44.842595923
2025-11-07 14:36:40.374353,-1,2025-11-07 14:36:44.850288231
2025-11-07 14:36:40.374353,-85,2025-11-07 14:36:44.857980538
2025-11-07 14:36:40.374353,-20225,2025-11-07 14:36:44.865672846
2025-11-07 14:36:40.374353,-1,2025-11-07 14:36:44.873365154
2025-11-07 14:36:40.374353,-75,2025-11-07 14:36:44.881057462
2025-11-07 14:36:40.374353,-17665,2025-11-07 14:36:44.888749769
2025-11-07 14:36:40.374353,-1,2025-11-07 14:36:44.896442077
2025-11-07 14:36:40.374353,-68,2025-11-07 14:36:44.904134385
2025-11-07 14:36:40.374353,-15873,2025-11-07 14:36:44.911826692
2025-11-07 14:36:40.374353,-1,2025-11-07 14:36:44.919519000
2025-11-07 14:36:40.374353,-51,2025-11-07 14:36:44.927211308
2025-11-07 14:36:40.374353,-10241,2025-11-07 14:36:44.934903615
2025-11-07 14:36:40.374353,-1,2025-11-07 14:36:44.942595923
2025-11-07 14:36:40.374353,-41,2025-11-07 14:36:44.950288230
2025-11-07 14:36:40.374353,-10241,2025-11-07 14:36:44.957980538
2025-11-07 14:36:40.374353,-1,2025-11-07 14:36:44.965672846
2025-11-07 14:36:40.374353,-41,2025-11-07 14:36:44.973365154
2025-11-07 14:36:40.374353,-9473,2025-11-07 14:36:44.981057462
2025-11-07 14:36:40.374353,-1,2025-11-07 14:36:44.988749769
2025-11-07 14:36:40.374353,-36,2025-11-07 14:36:44.996442077
2025-11-07 14:36:40.374353,-7681,2025-11-07 14:36:45.004134385
2025-11-07 14:36:40.374353,-1,2025-11-07 14:36:45.011826692
2025-11-07 14:36:40.374353,-26,2025-11-07 14:36:45.019519000
2025-11-07 14:36:40.374353,-5889,2025-11-07 14:36:45.027211308
2025-11-07 14:36:40.374353,-1,2025-11-07 14:36:45.034903615
2025-11-07 14:36:40.374353,-21,2025-11-07 14:36:45.042595923
2025-11-07 14:36:40.374353,-4609,2025-11-07 14:36:45.050288231
2025-11-07 14:36:40.374353,-1,2025-11-07 14:36:45.057980538
2025-11-07 14:36:40.374353,-19,2025-11-07 14:36:45.065672846
2025-11-07 14:36:40.374353,-4609,2025-11-07 14:36:45.073365154
2025-11-07 14:36:40.374353,-1,2025-11-07 14:36:45.081057462
2025-11-07 14:36:40.374353,-24,2025-11-07 14:36:45.088749769
2025-11-07 14:36:40.374353,-9473,2025-11-07 14:36:45.096442077
2025-11-07 14:36:40.374353,-1,2025-11-07 14:36:45.104134385
2025-11-07 14:36:40.374353,-46,2025-11-07 14:36:45.111826692
2025-11-07 14:36:40.374353,-11521,2025-11-07 14:36:45.119519000
2025-11-07 14:36:40.374353,-1,2025-11-07 14:36:45.127211308
2025-11-07 14:36:40.374353,-51,2025-11-07 14:36:45.134903615
2025-11-07 14:36:40.374353,-12033,2025-11-07 14:36:45.142595923
2025-11-07 14:36:40.374353,-1,2025-11-07 14:36:45.150288231
2025-11-07 14:36:40.374353,-24,2025-11-07 14:36:45.157980538
2025-11-07 14:36:40.374353,767,2025-11-07 14:36:45.165672846
2025-11-07 14:36:40.374353,0,2025-11-07 14:36:45.173365154
2025-11-07 14:36:40.374353,24,2025-11-07 14:36:45.181057462
2025-11-07 14:36:40.374353,6144,2025-11-07 14:36:45.188749769
2025-11-07 14:36:40.374353,0,2025-11-07 14:36:45.196442077
2025-11-07 14:36:40.374353,2,2025-11-07 14:36:45.204134385
2025-11-07 14:36:40.374353,-1024,2025-11-07 14:36:45.211826692
2025-11-07 14:36:40.374353,-1,2025-11-07 14:36:45.219519000
2025-11-07 14:36:40.374353,9,2025-11-07 14:36:45.227211308
2025-11-07 14:36:40.374353,1792,2025-11-07 14:36:45.234903615
2025-11-07 14:36:40.374353,0,2025-11-07 14:36:45.242595923
2025-11-07 14:36:40.374353,-2,2025-11-07 14:36:45.250288231
2025-11-07 14:36:40.374353,-3329,2025-11-07 14:36:45.257980538
2025-11-07 14:36:40.374353,-1,2025-11-07 14:36:45.265672846
2025-11-07 14:36:40.374353,-60,2025-11-07 14:36:45.273365154
2025-11-07 14:36:40.374353,-9473,2025-11-07 14:36:45.281057462
2025-11-07 14:36:40.374353,-1,2025-11-07 14:36:45.288749769
2025-11-07 14:36:40.374353,377,2025-11-07 14:36:45.296442077
2025-11-07 14:36:40.374353,-26880,2025-11-07 14:36:45.304134385
2025-11-07 14:36:40.374353,4,2025-11-07 14:36:45.311826692
2025-11-07 14:36:40.374353,1537,2025-11-07 14:36:45.319519000
2025-11-07 14:36:40.374353,-1280,2025-11-07 14:36:45.327211308
2025-11-07 14:36:40.374353,3,2025-11-07 14:36:45.334903615
2025-11-07 14:36:40.374353,352,2025-11-07 14:36:45.342595923
2025-11-07 14:36:40.374353,19712,2025-11-07 14:36:45.350288231
2025-11-07 14:36:40.374353,0,2025-11-07 14:36:45.357980538
2025-11-07 14:36:40.374353,-36,2025-11-07 14:36:45.365672846
2025-11-07 14:36:40.374353,28671,2025-11-07 14:36:45.373365154
2025-11-07 14:36:40.374353,-1,2025-11-07 14:36:45.381057462
2025-11-07 14:36:40.374353,-163,2025-11-07 14:36:45.388749769
2025-11-07 14:36:40.374353,28671,2025-11-07 14:36:45.396442077
2025-11-07 14:36:40.374353,-1,2025-11-07 14:36:45.404134385
2025-11-07 14:36:40.374353,-158,2025-11-07 14:36:45.411826692
2025-11-07 14:36:40.374353,25343,2025-11-07 14:36:45.419519000
2025-11-07 14:36:40.374353,-1,2025-11-07 14:36:45.427211308
2025-11-07 14:36:40.374353,-138,2025-11-07 14:36:45.434903615
2025-11-07 14:36:40.374353,32255,2025-11-07 14:36:45.442595923
2025-11-07 14:36:40.374353,-1,2025-11-07 14:36:45.450288231
2025-11-07 14:36:40.374353,-126,2025-11-07 14:36:45.457980538
2025-11-07 14:36:40.374353,-28161,2025-11-07 14:36:45.465672846
2025-11-07 14:36:40.374353,-1,2025-11-07 14:36:45.473365154
2025-11-07 14:36:40.374353,-102,2025-11-07 14:36:45.481057462
2025-11-07 14:36:40.374353,-23297,2025-11-07 14:36:45.488749769
2025-11-07 14:36:40.374353,-1,2025-11-07 14:36:45.496442077
2025-11-07 14:36:40.374353,-80,2025-11-07 14:36:45.504134385
2025-11-07 14:36:40.374353,-17153,2025-11-07 14:36:45.511826692
2025-11-07 14:36:40.374353,-1,2025-11-07 14:36:45.519519000
2025-11-07 14:36:40.374353,-55,2025-11-07 14:36:45.527211308
2025-11-07 14:36:40.374353,-10241,2025-11-07 14:36:45.534903615
2025-11-07 14:36:40.374353,-1,2025-11-07 14:36:45.542595923
2025-11-07 14:36:40.374353,-24,2025-11-07 14:36:45.550288231
2025-11-07 14:36:40.374353,-1537,2025-11-07 14:36:45.557980538
2025-11-07 14:36:40.374353,-1,2025-11-07 14:36:45.565672846
2025-11-07 14:36:40.374353,9,2025-11-07 14:36:45.573365154
2025-11-07 14:36:40.374353,7424,2025-11-07 14:36:45.581057462
2025-11-07 14:36:40.374353,0,2025-11-07 14:36:45.588749769
2025-11-07 14:36:40.374353,43,2025-11-07 14:36:45.596442077
2025-11-07 14:36:40.374353,12288,2025-11-07 14:36:45.604134385
2025-11-07 14:36:40.374353,0,2025-11-07 14:36:45.611826692
2025-11-07 14:36:40.374353,51,2025-11-07 14:36:45.619519000
2025-11-07 14:36:40.374353,10496,2025-11-07 14:36:45.627211308
2025-11-07 14:36:40.374353,0,2025-11-07 14:36:45.634903615
2025-11-07 14:36:40.374353,12,2025-11-07 14:36:45.642595923
2025-11-07 14:36:40.374353,-7936,2025-11-07 14:36:45.650288231
2025-11-07 14:36:40.374353,-1,2025-11-07 14:36:45.657980538
2025-11-07 14:36:40.374353,-70,2025-11-07 14:36:45.665672846
2025-11-07 14:36:40.960365,-94,2025-11-07 14:36:45.673365154
2025-11-07 14:36:40.960365,-27649,2025-11-07 14:36:45.681057462
2025-11-07 14:36:40.960365,-1,2025-11-07 14:36:45.688749769
2025-11-07 14:36:40.960365,-114,2025-11-07 14:36:45.696442077
2025-11-07 14:36:40.960365,-28929,2025-11-07 14:36:45.704134385
2025-11-07 14:36:40.960365,-1,2025-11-07 14:36:45.711826692
2025-11-07 14:36:40.960365,-114,2025-11-07 14:36:45.719519000
2025-11-07 14:36:40.960365,-25089,2025-11-07 14:36:45.727211308
2025-11-07 14:36:40.960365,-1,2025-11-07 14:36:45.734903615
2025-11-07 14:36:40.960365,-85,2025-11-07 14:36:45.742595923
2025-11-07 14:36:40.960365,-20737,2025-11-07 14:36:45.750288231
2025-11-07 14:36:40.960365,-1,2025-11-07 14:36:45.757980538
2025-11-07 14:36:40.960365,-82,2025-11-07 14:36:45.765672846
2025-11-07 14:36:40.960365,-18177,2025-11-07 14:36:45.773365154
2025-11-07 14:36:40.960365,-1,2025-11-07 14:36:45.781057462
2025-11-07 14:36:40.960365,-70,2025-11-07 14:36:45.788749769
2025-11-07 14:36:40.960365,-17153,2025-11-07 14:36:45.796442077
2025-11-07 14:36:40.960365,-1,2025-11-07 14:36:45.804134385
2025-11-07 14:36:40.960365,-63,2025-11-07 14:36:45.811826692
2025-11-07 14:36:40.960365,-14593,2025-11-07 14:36:45.819519000
2025-11-07 14:36:40.960365,-1,2025-11-07 14:36:45.827211308
2025-11-07 14:36:40.960365,-55,2025-11-07 14:36:45.834903615
2025-11-07 14:36:40.960365,-13313,2025-11-07 14:36:45.842595923
2025-11-07 14:36:40.960365,-1,2025-11-07 14:36:45.850288231
2025-11-07 14:36:40.960365,-51,2025-11-07 14:36:45.857980538
2025-11-07 14:36:40.960365,-12033,2025-11-07 14:36:45.865672846
2025-11-07 14:36:40.960365,-1,2025-11-07 14:36:45.873365154
2025-11-07 14:36:40.960365,-46,2025-11-07 14:36:45.881057462
2025-11-07 14:36:40.960365,-10753,2025-11-07 14:36:45.888749769
2025-11-07 14:36:40.960365,-1,2025-11-07 14:36:45.896442077
2025-11-07 14:36:40.960365,-41,2025-11-07 14:36:45.904134385
2025-11-07 14:36:40.960365,-8961,2025-11-07 14:36:45.911826692
2025-11-07 14:36:40.960365,-1,2025-11-07 14:36:45.919519000
2025-11-07 14:36:40.960365,-36,2025-11-07 14:36:45.927211308
2025-11-07 14:36:40.960365,-8961,2025-11-07 14:36:45.934903615
2025-11-07 14:36:40.960365,-1,2025-11-07 14:36:45.942595923
2025-11-07 14:36:40.960365,-34,2025-11-07 14:36:45.950288230
2025-11-07 14:36:40.960365,-7681,2025-11-07 14:36:45.957980538
2025-11-07 14:36:40.960365,-1,2025-11-07 14:36:45.965672846
2025-11-07 14:36:40.960365,-31,2025-11-07 14:36:45.973365154
2025-11-07 14:36:40.960365,-6401,2025-11-07 14:36:45.981057462
2025-11-07 14:36:40.960365,-1,2025-11-07 14:36:45.988749769
2025-11-07 14:36:40.960365,-21,2025-11-07 14:36:45.996442077
2025-11-07 14:36:40.960365,-5121,2025-11-07 14:36:46.004134385
2025-11-07 14:36:40.960365,-1,2025-11-07 14:36:46.011826692
2025-11-07 14:36:40.960365,-19,2025-11-07 14:36:46.019519000
2025-11-07 14:36:40.960365,-4097,2025-11-07 14:36:46.027211308
2025-11-07 14:36:40.960365,-1,2025-11-07 14:36:46.034903615
2025-11-07 14:36:40.960365,-14,2025-11-07 14:36:46.042595923
2025-11-07 14:36:40.960365,-3329,2025-11-07 14:36:46.050288231
2025-11-07 14:36:40.960365,-1,2025-11-07 14:36:46.057980538
2025-11-07 14:36:40.960365,-17,2025-11-07 14:36:46.065672846
2025-11-07 14:36:40.960365,-5889,2025-11-07 14:36:46.073365154
2025-11-07 14:36:40.960365,-1,2025-11-07 14:36:46.081057462
2025-11-07 14:36:40.960365,-36,2025-11-07 14:36:46.088749769
2025-11-07 14:36:40.960365,-10753,2025-11-07 14:36:46.096442077
2025-11-07 14:36:40.960365,-1,2025-11-07 14:36:46.104134385
2025-11-07 14:36:40.960365,-48,2025-11-07 14:36:46.111826692
2025-11-07 14:36:40.960365,-13313,2025-11-07 14:36:46.119519000
2025-11-07 14:36:40.960365,-1,2025-11-07 14:36:46.127211308
2025-11-07 14:36:40.960365,-41,2025-11-07 14:36:46.134903615
2025-11-07 14:36:40.960365,-4097,2025-11-07 14:36:46.142595923
2025-11-07 14:36:40.960365,-1,2025-11-07 14:36:46.150288231
2025-11-07 14:36:40.960365,7,2025-11-07 14:36:46.157980538
2025-11-07 14:36:40.960365,6144,2025-11-07 14:36:46.165672846
2025-11-07 14:36:40.960365,0,2025-11-07 14:36:46.173365154
2025-11-07 14:36:40.960365,21,2025-11-07 14:36:46.181057462
2025-11-07 14:36:40.960365,-512,2025-11-07 14:36:46.188749769
2025-11-07 14:36:40.960365,-1,2025-11-07 14:36:46.196442077
2025-11-07 14:36:40.960365,-7,2025-11-07 14:36:46.204134385
2025-11-07 14:36:40.960365,1279,2025-11-07 14:36:46.211826692
2025-11-07 14:36:40.960365,0,2025-11-07 14:36:46.219519000
2025-11-07 14:36:40.960365,4,2025-11-07 14:36:46.227211308
2025-11-07 14:36:40.960365,512,2025-11-07 14:36:46.234903615
2025-11-07 14:36:40.960365,0,2025-11-07 14:36:46.242595923
2025-11-07 14:36:40.960365,-12,2025-11-07 14:36:46.250288231
2025-11-07 14:36:40.960365,-16385,2025-11-07 14:36:46.257980538
2025-11-07 14:36:40.960365,-1,2025-11-07 14:36:46.265672846
2025-11-07 14:36:40.960365,0,2025-11-07 14:36:46.273365154
2025-11-07 14:36:40.960365,2048,2025-11-07 14:36:46.281057462
2025-11-07 14:36:40.960365,2,2025-11-07 14:36:46.288749769
2025-11-07 14:36:40.960365,1309,2025-11-07 14:36:46.296442077
2025-11-07 14:36:40.960365,-15360,2025-11-07 14:36:46.304134385
2025-11-07 14:36:40.960365,5,2025-11-07 14:36:46.311826692
2025-11-07 14:36:40.960365,851,2025-11-07 14:36:46.319519000
2025-11-07 14:36:40.960365,3584,2025-11-07 14:36:46.327211308
2025-11-07 14:36:40.960365,1,2025-11-07 14:36:46.334903615
2025-11-07 14:36:40.960365,70,2025-11-07 14:36:46.342595923
2025-11-07 14:36:40.960365,-12288,2025-11-07 14:36:46.350288231
2025-11-07 14:36:40.960365,-1,2025-11-07 14:36:46.357980538
2025-11-07 14:36:40.960365,-145,2025-11-07 14:36:46.365672846
2025-11-07 14:36:40.960365,29183,2025-11-07 14:36:46.373365154
2025-11-07 14:36:40.960365,-1,2025-11-07 14:36:46.381057462
2025-11-07 14:36:40.960365,-131,2025-11-07 14:36:46.388749769
2025-11-07 14:36:40.960365,27391,2025-11-07 14:36:46.396442077
2025-11-07 14:36:40.960365,-1,2025-11-07 14:36:46.404134385
2025-11-07 14:36:40.960365,-145,2025-11-07 14:36:46.411826692
2025-11-07 14:36:40.960365,-31489,2025-11-07 14:36:46.419519000
2025-11-07 14:36:40.960365,-1,2025-11-07 14:36:46.427211308
2025-11-07 14:36:40.960365,-119,2025-11-07 14:36:46.434903615
2025-11-07 14:36:40.960365,-28161,2025-11-07 14:36:46.442595923
2025-11-07 14:36:40.960365,-1,2025-11-07 14:36:46.450288231
2025-11-07 14:36:40.960365,-97,2025-11-07 14:36:46.457980538
2025-11-07 14:36:40.960365,-21505,2025-11-07 14:36:46.465672846
2025-11-07 14:36:40.960365,-1,2025-11-07 14:36:46.473365154
