timestamp,ecg
14:35:04.932469,16
14:35:04.932469,4096
14:35:04.932469,0
14:35:04.932469,19
14:35:04.932469,4864
14:35:04.932469,0
14:35:04.932469,21
14:35:04.932469,5376
14:35:04.932469,0
14:35:04.932469,19
14:35:04.932469,4096
14:35:04.932469,0
14:35:04.932469,16
14:35:04.932469,5376
14:35:04.932469,0
14:35:04.932469,28
14:35:04.932469,7168
14:35:04.932469,0
14:35:04.932469,35
14:35:04.932469,13312
14:35:04.932469,0
14:35:04.932469,64
14:35:04.932469,16384
14:35:04.932469,0
14:35:04.932469,62
14:35:04.932469,13824
14:35:04.932469,0
14:35:04.932469,40
14:35:04.932469,7936
14:35:04.932469,0
14:35:04.932469,35
14:35:04.932469,10240
14:35:04.932469,0
14:35:04.932469,40
14:35:04.932469,10240
14:35:04.932469,0
14:35:04.932469,33
14:35:04.932469,2816
14:35:04.932469,0
14:35:04.932469,71
14:35:04.932469,31488
14:35:04.932469,1
14:35:04.932469,967
14:35:04.932469,12544
14:35:04.932469,6
14:35:04.932469,1540
14:35:04.932469,16896
14:35:04.932469,2
14:35:04.932469,-181
14:35:04.932469,-25345
14:35:04.932469,-1
14:35:04.932469,-16
14:35:04.932469,16895
14:35:04.932469,-1
14:35:04.932469,-183
14:35:04.932469,-28417
14:35:04.932469,-1
14:35:04.932469,-143
14:35:04.932469,29183
14:35:04.932469,-1
14:35:04.932469,-100
14:35:04.932469,-24065
14:35:04.932469,-1
14:35:04.932469,-97
14:35:04.932469,-19713
14:35:04.932469,-1
14:35:04.932469,-64
14:35:04.932469,-13569
14:35:04.932469,-1
14:35:04.932469,-42
14:35:04.932469,-7681
14:35:04.932469,-1
14:35:04.932469,-14
14:35:04.932469,1279
14:35:04.932469,0
14:35:04.932469,26
14:35:04.932469,11520
14:35:04.932469,0
14:35:04.932469,69
14:35:04.932469,24832
14:35:04.932469,0
14:35:04.932469,121
14:35:04.932469,-32000
14:35:04.932469,0
14:35:04.932469,131
14:35:04.932469,30464
14:35:04.932469,0
14:35:04.932469,95
14:35:04.932469,16384
14:35:04.932469,0
14:35:04.932469,28
14:35:04.932469,-2816
14:35:04.932469,-1
14:35:04.932469,-42
14:35:04.932469,-14849
14:35:04.932469,-1
14:35:04.932469,-74
14:35:04.932469,-20481
14:35:04.932469,-1
14:35:04.932469,-81
14:35:04.932469,-19201
14:35:04.932469,-1
14:35:04.932469,-74
14:35:04.932469,-16641
14:35:04.932469,-1
14:35:04.932469,-59
14:35:04.932469,-13569
14:35:04.932469,-1
14:35:04.932469,-50
14:35:05.472547,-42
14:35:05.472547,-7681
14:35:05.472547,-1
14:35:05.472547,-19
14:35:05.472547,-3329
14:35:05.472547,-1
14:35:05.472547,-14
14:35:05.472547,-3329
14:35:05.472547,-1
14:35:05.472547,-11
14:35:05.472547,-769
14:35:05.472547,-1
14:35:05.472547,0
14:35:05.472547,1024
14:35:05.472547,0
14:35:05.472547,9
14:35:05.472547,2816
14:35:05.472547,0
14:35:05.472547,16
14:35:05.472547,7936
14:35:05.472547,0
14:35:05.472547,42
14:35:05.472547,9728
14:35:05.472547,0
14:35:05.472547,33
14:35:05.472547,9728
14:35:05.472547,0
14:35:05.472547,42
14:35:05.472547,10240
14:35:05.472547,0
14:35:05.472547,38
14:35:05.472547,8960
14:35:05.472547,0
14:35:05.472547,38
14:35:05.472547,10752
14:35:05.472547,0
14:35:05.472547,42
14:35:05.472547,9728
14:35:05.472547,0
14:35:05.472547,35
14:35:05.472547,8960
14:35:05.472547,0
14:35:05.472547,40
14:35:05.472547,11520
14:35:05.472547,0
14:35:05.472547,42
14:35:05.472547,10240
14:35:05.472547,0
14:35:05.472547,40
14:35:05.472547,10752
14:35:05.472547,0
14:35:05.472547,45
14:35:05.472547,12800
14:35:05.472547,0
14:35:05.472547,42
14:35:05.472547,7936
14:35:05.472547,0
14:35:05.472547,33
14:35:05.472547,8448
14:35:05.472547,0
14:35:05.472547,31
14:35:05.472547,12032
14:35:05.472547,0
14:35:05.472547,69
14:35:05.472547,18944
14:35:05.472547,0
14:35:05.472547,71
14:35:05.472547,18176
14:35:05.472547,0
14:35:05.472547,64
14:35:05.472547,13312
14:35:05.472547,0
14:35:05.472547,52
14:35:05.472547,14592
14:35:05.472547,0
14:35:05.472547,52
14:35:05.472547,12800
14:35:05.472547,0
14:35:05.472547,54
14:35:05.472547,13312
14:35:05.472547,0
14:35:05.472547,33
14:35:05.472547,-24064
14:35:05.472547,0
14:35:05.472547,578
14:35:05.472547,-28928
14:35:05.472547,4
14:35:05.472547,1588
14:35:05.472547,-12288
14:35:05.472547,4
14:35:05.472547,253
14:35:05.472547,20480
14:35:05.472547,-1
14:35:05.472547,7
14:35:05.472547,-8448
14:35:05.472547,-1
14:35:05.472547,-174
14:35:05.472547,-26625
14:35:05.472547,-1
14:35:05.472547,-69
14:35:05.472547,-28417
14:35:05.472547,-1
14:35:05.472547,-90
14:35:05.472547,-13569
14:35:05.472547,-1
14:35:05.472547,-54
14:35:05.472547,-11265
14:35:05.472547,-1
14:35:05.472547,-26
14:35:06.026649,-16
14:35:06.026649,-1537
14:35:06.026649,-1
14:35:06.026649,7
14:35:06.026649,5376
14:35:06.026649,0
14:35:06.026649,40
14:35:06.026649,16384
14:35:06.026649,0
14:35:06.026649,90
14:35:06.026649,29952
14:35:06.026649,0
14:35:06.026649,148
14:35:06.026649,-19200
14:35:06.026649,0
14:35:06.026649,210
14:35:06.026649,-8704
14:35:06.026649,0
14:35:06.026649,210
14:35:06.026649,-17408
14:35:06.026649,0
14:35:06.026649,155
14:35:06.026649,26112
14:35:06.026649,0
14:35:06.026649,45
14:35:06.026649,0
14:35:06.026649,0
14:35:06.026649,-31
14:35:06.026649,-12545
14:35:06.026649,-1
14:35:06.026649,-62
14:35:06.026649,-17921
14:35:06.026649,-1
14:35:06.026649,-71
14:35:06.026649,-17409
14:35:06.026649,-1
14:35:06.026649,-69
14:35:06.026649,-16641
14:35:06.026649,-1
14:35:06.026649,-57
14:35:06.026649,-12545
14:35:06.026649,-1
14:35:06.026649,-47
14:35:06.026649,-10497
14:35:06.026649,-1
14:35:06.026649,-35
14:35:06.026649,-6401
14:35:06.026649,-1
14:35:06.026649,-19
14:35:06.026649,-3329
14:35:06.026649,-1
14:35:06.026649,-11
14:35:06.026649,-1537
14:35:06.026649,-1
14:35:06.026649,-2
14:35:06.026649,2559
14:35:06.026649,0
14:35:06.026649,19
14:35:06.026649,5376
14:35:06.026649,0
14:35:06.026649,19
14:35:06.026649,3584
14:35:06.026649,0
14:35:06.026649,16
14:35:06.026649,4864
14:35:06.026649,0
14:35:06.026649,14
14:35:06.026649,3584
14:35:06.026649,0
14:35:06.026649,14
14:35:06.026649,2816
14:35:06.026649,0
14:35:06.026649,11
14:35:06.026649,3584
14:35:06.026649,0
14:35:06.026649,16
14:35:06.026649,4864
14:35:06.026649,0
14:35:06.026649,16
14:35:06.026649,4096
14:35:06.026649,0
14:35:06.026649,19
14:35:06.026649,6656
14:35:06.026649,0
14:35:06.026649,26
14:35:06.026649,5888
14:35:06.026649,0
14:35:06.026649,23
14:35:06.026649,4864
14:35:06.026649,0
14:35:06.026649,11
14:35:06.026649,1792
14:35:06.026649,0
14:35:06.026649,7
14:35:06.026649,512
14:35:06.026649,0
14:35:06.026649,4
14:35:06.026649,5376
14:35:06.026649,0
14:35:06.026649,40
14:35:06.026649,11520
14:35:06.026649,0
14:35:06.026649,42
14:35:06.026649,10240
14:35:06.026649,0
14:35:06.026649,33
14:35:06.026649,4864
14:35:06.026649,0
14:35:06.026649,14
14:35:06.597644,19
14:35:06.597644,5376
14:35:06.597644,0
14:35:06.597644,19
14:35:06.597644,4096
14:35:06.597644,0
14:35:06.597644,-2
14:35:06.597644,255
14:35:06.597644,0
14:35:06.597644,193
14:35:06.597644,-19968
14:35:06.597644,2
14:35:06.597644,1368
14:35:06.597644,-23552
14:35:06.597644,6
14:35:06.597644,1060
14:35:06.597644,11520
14:35:06.597644,0
14:35:06.597644,-188
14:35:06.597644,-2049
14:35:06.597644,-1
14:35:06.597644,-126
14:35:06.597644,9727
14:35:06.597644,-1
14:35:06.597644,-136
14:35:06.597644,-32513
14:35:06.597644,-1
14:35:06.597644,-157
14:35:06.597644,-31489
14:35:06.597644,-1
14:35:06.597644,-105
14:35:06.597644,-27649
14:35:06.597644,-1
14:35:06.597644,-97
14:35:06.597644,-19713
14:35:06.597644,-1
14:35:06.597644,-66
14:35:06.597644,-13569
14:35:06.597644,-1
14:35:06.597644,-35
14:35:06.597644,-5121
14:35:06.597644,-1
14:35:06.597644,-9
14:35:06.597644,3839
14:35:06.597644,0
14:35:06.597644,45
14:35:06.597644,17664
14:35:06.597644,0
14:35:06.597644,93
14:35:06.597644,29952
14:35:06.597644,0
14:35:06.597644,133
14:35:06.597644,-30720
14:35:06.597644,0
14:35:06.597644,128
14:35:06.597644,27904
14:35:06.597644,0
14:35:06.597644,76
14:35:06.597644,7936
14:35:06.597644,0
14:35:06.597644,-14
14:35:06.597644,-13057
14:35:06.597644,-1
14:35:06.597644,-74
14:35:06.597644,-20993
14:35:06.597644,-1
14:35:06.597644,-93
14:35:06.597644,-24065
14:35:06.597644,-1
14:35:06.597644,-90
14:35:06.597644,-20993
14:35:06.597644,-1
14:35:06.597644,-78
14:35:06.597644,-18689
14:35:06.597644,-1
14:35:06.597644,-69
14:35:06.597644,-16129
14:35:06.597644,-1
14:35:06.597644,-59
14:35:06.597644,-13569
14:35:06.597644,-1
14:35:06.597644,-47
14:35:06.597644,-9985
14:35:06.597644,-1
14:35:06.597644,-35
14:35:06.597644,-8193
14:35:06.597644,-1
14:35:06.597644,-31
14:35:06.597644,-5633
14:35:06.597644,-1
14:35:06.597644,-19
14:35:06.597644,-3841
14:35:06.597644,-1
14:35:06.597644,-14
14:35:06.597644,-2561
14:35:06.597644,-1
14:35:06.597644,-9
14:35:06.597644,-2049
14:35:06.597644,-1
14:35:06.597644,-7
14:35:06.597644,-769
14:35:06.597644,-1
14:35:06.597644,-4
14:35:06.597644,-769
14:35:06.597644,-1
14:35:06.597644,-4
14:35:06.597644,-257
14:35:06.597644,-1
14:35:06.597644,0
14:35:07.138648,0
14:35:07.138648,0
14:35:07.138648,0
14:35:07.138648,0
14:35:07.138648,0
14:35:07.138648,0
14:35:07.138648,2
14:35:07.138648,1024
14:35:07.138648,0
14:35:07.138648,7
14:35:07.138648,1792
14:35:07.138648,0
14:35:07.138648,4
14:35:07.138648,1792
14:35:07.138648,0
14:35:07.138648,16
14:35:07.138648,7936
14:35:07.138648,0
14:35:07.138648,33
14:35:07.138648,5888
14:35:07.138648,0
14:35:07.138648,19
14:35:07.138648,3584
14:35:07.138648,0
14:35:07.138648,9
14:35:07.138648,2304
14:35:07.138648,0
14:35:07.138648,19
14:35:07.138648,9728
14:35:07.138648,0
14:35:07.138648,45
14:35:07.138648,12032
14:35:07.138648,0
14:35:07.138648,54
14:35:07.138648,12800
14:35:07.138648,0
14:35:07.138648,33
14:35:07.138648,5376
14:35:07.138648,0
14:35:07.138648,26
14:35:07.138648,7168
14:35:07.138648,0
14:35:07.138648,28
14:35:07.138648,7168
14:35:07.138648,0
14:35:07.138648,26
14:35:07.138648,1024
14:35:07.138648,0
14:35:07.138648,40
14:35:07.138648,12032
14:35:07.138648,1
14:35:07.138648,878
14:35:07.138648,10240
14:35:07.138648,6
14:35:07.138648,1686
14:35:07.138648,768
14:35:07.138648,3
14:35:07.138648,-143
14:35:07.138648,25599
14:35:07.138648,-1
14:35:07.138648,-19
14:35:07.138648,17663
14:35:07.138648,-1
14:35:07.138648,-217
14:35:07.138648,-32513
14:35:07.138648,-1
14:35:07.138648,-152
14:35:07.138648,22527
14:35:07.138648,-1
14:35:07.138648,-126
14:35:07.138648,-29697
14:35:07.138648,-1
14:35:07.138648,-119
14:35:07.138648,-25857
14:35:07.138648,-1
14:35:07.138648,-88
14:35:07.138648,-20481
14:35:07.138648,-1
14:35:07.138648,-66
14:35:07.138648,-12545
14:35:07.138648,-1
14:35:07.138648,-38
14:35:07.138648,-5121
14:35:07.138648,-1
14:35:07.138648,0
14:35:07.138648,5888
14:35:07.138648,0
14:35:07.138648,47
14:35:07.138648,18944
14:35:07.138648,0
14:35:07.138648,95
14:35:07.138648,27392
14:35:07.138648,0
14:35:07.138648,109
14:35:07.138648,26112
14:35:07.138648,0
14:35:07.138648,81
14:35:07.138648,12800
14:35:07.138648,0
14:35:07.138648,9
14:35:07.138648,-8448
14:35:07.138648,-1
14:35:07.138648,-62
14:35:07.138648,-20481
14:35:07.138648,-1
14:35:07.138648,-88
14:35:07.138648,-22785
14:35:07.138648,-1
14:35:07.138648,-90
14:35:07.677448,-85
14:35:07.677448,-20481
14:35:07.677448,-1
14:35:07.677448,-74
14:35:07.677448,-16129
14:35:07.677448,-1
14:35:07.677448,-57
14:35:07.677448,-13057
14:35:07.677448,-1
14:35:07.677448,-45
14:35:07.677448,-8705
14:35:07.677448,-1
14:35:07.677448,-16
14:35:07.677448,-257
14:35:07.677448,-1
14:35:07.677448,-4
14:35:07.677448,-769
14:35:07.677448,-1
14:35:07.677448,2
14:35:07.677448,512
14:35:07.677448,0
14:35:07.677448,7
14:35:07.677448,4096
14:35:07.677448,0
14:35:07.677448,21
14:35:07.677448,4864
14:35:07.677448,0
14:35:07.677448,21
14:35:07.677448,6656
14:35:07.677448,0
14:35:07.677448,26
14:35:07.677448,6656
14:35:07.677448,0
14:35:07.677448,26
14:35:07.677448,6656
14:35:07.677448,0
14:35:07.677448,26
14:35:07.677448,6656
14:35:07.677448,0
14:35:07.677448,26
14:35:07.677448,6656
14:35:07.677448,0
14:35:07.677448,28
14:35:07.677448,7936
14:35:07.677448,0
14:35:07.677448,31
14:35:07.677448,7936
14:35:07.677448,0
14:35:07.677448,31
14:35:07.677448,7936
14:35:07.677448,0
14:35:07.677448,31
14:35:07.677448,7936
14:35:07.677448,0
14:35:07.677448,28
14:35:07.677448,7168
14:35:07.677448,0
14:35:07.677448,31
14:35:07.677448,7936
14:35:07.677448,0
14:35:07.677448,31
14:35:07.677448,6656
14:35:07.677448,0
14:35:07.677448,21
14:35:07.677448,4864
14:35:07.677448,0
14:35:07.677448,16
14:35:07.677448,4096
14:35:07.677448,0
14:35:07.677448,33
14:35:07.677448,13312
14:35:07.677448,0
14:35:07.677448,57
14:35:07.677448,12800
14:35:07.677448,0
14:35:07.677448,52
14:35:07.677448,12800
14:35:07.677448,0
14:35:07.677448,35
14:35:07.677448,8448
14:35:07.677448,0
14:35:07.677448,42
14:35:07.677448,8448
14:35:07.677448,0
14:35:07.677448,21
14:35:07.677448,5888
14:35:07.677448,0
14:35:07.677448,26
14:35:07.677448,512
14:35:07.677448,0
14:35:07.677448,50
14:35:07.677448,22272
14:35:07.677448,1
14:35:07.677448,936
14:35:07.677448,15104
14:35:07.677448,6
14:35:07.677448,1607
14:35:07.677448,-31744
14:35:07.677448,2
14:35:07.677448,-181
14:35:07.677448,31743
14:35:07.677448,-1
14:35:07.677448,-31
14:35:07.677448,14591
14:35:07.677448,-1
14:35:07.677448,-207
14:35:07.677448,31743
14:35:07.677448,-1
14:35:07.677448,-162
14:35:08.262933,-164
14:35:08.262933,-30209
14:35:08.262933,-1
14:35:08.262933,-114
14:35:08.262933,-28929
14:35:08.262933,-1
14:35:08.262933,-95
14:35:08.262933,-19201
14:35:08.262933,-1
14:35:08.262933,-59
14:35:08.262933,-11265
14:35:08.262933,-1
14:35:08.262933,-28
14:35:08.262933,-1537
14:35:08.262933,-1
14:35:08.262933,7
14:35:08.262933,5888
14:35:08.262933,0
14:35:08.262933,50
14:35:08.262933,19968
14:35:08.262933,0
14:35:08.262933,102
14:35:08.262933,30464
14:35:08.262933,0
14:35:08.262933,126
14:35:08.262933,29952
14:35:08.262933,0
14:35:08.262933,105
14:35:08.262933,23808
14:35:08.262933,0
14:35:08.262933,59
14:35:08.262933,1792
14:35:08.262933,0
14:35:08.262933,-26
14:35:08.262933,-10497
14:35:08.262933,-1
14:35:08.262933,-66
14:35:08.262933,-22273
14:35:08.262933,-1
14:35:08.262933,-90
14:35:08.262933,-19713
14:35:08.262933,-1
14:35:08.262933,-69
14:35:08.262933,-18689
14:35:08.262933,-1
14:35:08.262933,-90
14:35:08.262933,-20993
14:35:08.262933,-1
14:35:08.262933,-59
14:35:08.262933,-14337
14:35:08.262933,-1
14:35:08.262933,-64
14:35:08.262933,-12545
14:35:08.262933,-1
14:35:08.262933,-28
14:35:08.262933,-6913
14:35:08.262933,-1
14:35:08.262933,-40
14:35:08.262933,-10497
14:35:08.262933,-1
14:35:08.262933,-33
14:35:08.262933,-8193
14:35:08.262933,-1
14:35:08.262933,-33
14:35:08.262933,-4609
14:35:08.262933,-1
14:35:08.262933,-9
14:35:08.262933,-3841
14:35:08.262933,-1
14:35:08.262933,-16
14:35:08.262933,1279
14:35:08.262933,0
14:35:08.262933,19
14:35:08.262933,1792
14:35:08.262933,0
14:35:08.262933,-9
14:35:08.262933,-769
14:35:08.262933,-1
14:35:08.262933,21
14:35:08.262933,6656
14:35:08.262933,0
14:35:08.262933,4
14:35:08.262933,-512
14:35:08.262933,-1
14:35:08.262933,11
14:35:08.262933,5376
14:35:08.262933,0
14:35:08.262933,19
14:35:08.262933,5888
14:35:08.262933,0
14:35:08.262933,26
14:35:08.262933,5888
14:35:08.262933,0
14:35:08.262933,33
14:35:08.262933,12800
14:35:08.262933,0
14:35:08.262933,38
14:35:08.262933,2304
14:35:08.262933,0
14:35:08.262933,16
14:35:08.262933,9728
14:35:08.262933,0
14:35:08.262933,31
14:35:08.262933,5376
14:35:08.262933,0
14:35:08.262933,31
14:35:08.262933,10240
14:35:08.262933,0
14:35:08.262933,45
14:35:08.847371,40
14:35:08.847371,8960
14:35:08.847371,0
14:35:08.847371,31
14:35:08.847371,4864
14:35:08.847371,0
14:35:08.847371,19
14:35:08.847371,7936
14:35:08.847371,0
14:35:08.847371,40
14:35:08.847371,15872
14:35:08.847371,0
14:35:08.847371,93
14:35:08.847371,24832
14:35:08.847371,0
14:35:08.847371,90
14:35:08.847371,20736
14:35:08.847371,0
14:35:08.847371,62
14:35:08.847371,14592
14:35:08.847371,0
14:35:08.847371,74
14:35:08.847371,19456
14:35:08.847371,0
14:35:08.847371,66
14:35:08.847371,17664
14:35:08.847371,0
14:35:08.847371,59
14:35:08.847371,7168
14:35:08.847371,0
14:35:08.847371,148
14:35:08.847371,10752
14:35:08.847371,2
14:35:08.847371,1170
14:35:08.847371,32256
14:35:08.847371,6
14:35:08.847371,1342
14:35:08.847371,13824
14:35:08.847371,1
14:35:08.847371,-179
14:35:08.847371,1279
14:35:08.847371,0
14:35:08.847371,-23
14:35:08.847371,16383
14:35:08.847371,-1
14:35:08.847371,-150
14:35:08.847371,-23553
14:35:08.847371,-1
14:35:08.847371,-117
14:35:08.847371,-29697
14:35:08.847371,-1
14:35:08.847371,-97
14:35:08.847371,-20993
14:35:08.847371,-1
14:35:08.847371,-81
14:35:08.847371,-20993
14:35:08.847371,-1
14:35:08.847371,-57
14:35:08.847371,-6401
14:35:08.847371,-1
14:35:08.847371,-16
14:35:08.847371,-257
14:35:08.847371,-1
14:35:08.847371,21
14:35:08.847371,7936
14:35:08.847371,0
14:35:08.847371,57
14:35:08.847371,24320
14:35:08.847371,0
14:35:08.847371,102
14:35:08.847371,27904
14:35:08.847371,0
14:35:08.847371,143
14:35:08.847371,-23552
14:35:08.847371,0
14:35:08.847371,155
14:35:08.847371,-30720
14:35:08.847371,0
14:35:08.847371,117
14:35:08.847371,20736
14:35:08.847371,0
14:35:08.847371,23
14:35:08.847371,-7168
14:35:08.847371,-1
14:35:08.847371,-52
14:35:08.847371,-17921
14:35:08.847371,-1
14:35:08.847371,-85
14:35:08.847371,-20481
14:35:08.847371,-1
14:35:08.847371,-78
14:35:08.847371,-20481
14:35:08.847371,-1
14:35:08.847371,-83
14:35:08.847371,-22273
14:35:08.847371,-1
14:35:08.847371,-81
14:35:08.847371,-16641
14:35:08.847371,-1
14:35:08.847371,-62
14:35:08.847371,-13057
14:35:08.847371,-1
14:35:08.847371,-33
14:35:08.847371,-7681
14:35:08.847371,-1
14:35:08.847371,-42
14:35:08.847371,-6913
14:35:08.847371,-1
14:35:08.847371,-4
14:35:09.387446,-7
14:35:09.387446,-2561
14:35:09.387446,-1
14:35:09.387446,0
14:35:09.387446,1024
14:35:09.387446,0
14:35:09.387446,4
14:35:09.387446,4096
14:35:09.387446,0
14:35:09.387446,16
14:35:09.387446,2816
14:35:09.387446,0
14:35:09.387446,14
14:35:09.387446,3584
14:35:09.387446,0
14:35:09.387446,31
14:35:09.387446,11520
14:35:09.387446,0
14:35:09.387446,31
14:35:09.387446,5888
14:35:09.387446,0
14:35:09.387446,42
14:35:09.387446,10752
14:35:09.387446,0
14:35:09.387446,28
14:35:09.387446,9728
14:35:09.387446,0
14:35:09.387446,54
14:35:09.387446,13312
14:35:09.387446,0
14:35:09.387446,38
14:35:09.387446,8960
14:35:09.387446,0
14:35:09.387446,21
14:35:09.387446,3584
14:35:09.387446,0
14:35:09.387446,38
14:35:09.387446,12032
14:35:09.387446,0
14:35:09.387446,26
14:35:09.387446,1024
14:35:09.387446,0
14:35:09.387446,2
14:35:09.387446,2304
14:35:09.387446,0
14:35:09.387446,21
14:35:09.387446,10240
14:35:09.387446,0
14:35:09.387446,57
14:35:09.387446,11520
14:35:09.387446,0
14:35:09.387446,40
14:35:09.387446,12032
14:35:09.387446,0
14:35:09.387446,33
14:35:09.387446,5376
14:35:09.387446,0
14:35:09.387446,26
14:35:09.387446,7168
14:35:09.387446,0
14:35:09.387446,28
14:35:09.387446,5376
14:35:09.387446,0
14:35:09.387446,7
14:35:09.387446,0
14:35:09.387446,0
14:35:09.387446,109
14:35:09.387446,-3328
14:35:09.387446,1
14:35:09.387446,1158
14:35:09.387446,-32000
14:35:09.387446,6
14:35:09.387446,1275
14:35:09.387446,-8704
14:35:09.387446,0
14:35:09.387446,-231
14:35:09.387446,-9985
14:35:09.387446,-1
14:35:09.387446,-78
14:35:09.387446,4095
14:35:09.387446,-1
14:35:09.387446,-186
14:35:09.387446,32255
14:35:09.387446,-1
14:35:09.387446,-167
14:35:09.387446,24831
14:35:09.387446,-1
14:35:09.387446,-126
14:35:09.387446,-29697
14:35:09.387446,-1
14:35:09.387446,-95
14:35:09.387446,-20481
14:35:09.387446,-1
14:35:09.387446,-85
14:35:09.387446,-19713
14:35:09.387446,-1
14:35:09.387446,-57
14:35:09.387446,-9985
14:35:09.387446,-1
14:35:09.387446,-21
14:35:09.387446,-2049
14:35:09.387446,-1
14:35:09.387446,2
14:35:09.387446,8960
14:35:09.387446,0
14:35:09.387446,74
14:35:09.387446,20736
14:35:09.387446,0
14:35:09.387446,93
14:35:09.927634,114
14:35:09.927634,29952
14:35:09.927634,0
14:35:09.927634,97
14:35:09.927634,17664
14:35:09.927634,0
14:35:09.927634,28
14:35:09.927634,-4096
14:35:09.927634,-1
14:35:09.927634,-57
14:35:09.927634,-20993
14:35:09.927634,-1
14:35:09.927634,-88
14:35:09.927634,-20481
14:35:09.927634,-1
14:35:09.927634,-85
14:35:09.927634,-22785
14:35:09.927634,-1
14:35:09.927634,-83
14:35:09.927634,-20481
14:35:09.927634,-1
14:35:09.927634,-83
14:35:09.927634,-19713
14:35:09.927634,-1
14:35:09.927634,-69
14:35:09.927634,-16129
14:35:09.927634,-1
14:35:09.927634,-57
14:35:09.927634,-12545
14:35:09.927634,-1
14:35:09.927634,-45
14:35:09.927634,-9473
14:35:09.927634,-1
14:35:09.927634,-26
14:35:09.927634,-4609
14:35:09.927634,-1
14:35:09.927634,-16
14:35:09.927634,-2561
14:35:09.927634,-1
14:35:09.927634,-4
14:35:09.927634,255
14:35:09.927634,0
14:35:09.927634,4
14:35:09.927634,1792
14:35:09.927634,0
14:35:09.927634,11
14:35:09.927634,2816
14:35:09.927634,0
14:35:09.927634,11
14:35:09.927634,2816
14:35:09.927634,0
14:35:09.927634,4
14:35:09.927634,512
14:35:09.927634,0
14:35:09.927634,9
14:35:09.927634,3584
14:35:09.927634,0
14:35:09.927634,9
14:35:09.927634,2304
14:35:09.927634,0
14:35:09.927634,11
14:35:09.927634,2816
14:35:09.927634,0
14:35:09.927634,14
14:35:09.927634,3584
14:35:09.927634,0
14:35:09.927634,11
14:35:09.927634,4096
14:35:09.927634,0
14:35:09.927634,19
14:35:09.927634,2304
14:35:09.927634,0
14:35:09.927634,9
14:35:09.927634,2816
14:35:09.927634,0
14:35:09.927634,4
14:35:09.927634,1024
14:35:09.927634,0
14:35:09.927634,11
14:35:09.927634,4096
14:35:09.927634,0
14:35:09.927634,11
14:35:09.927634,0
14:35:09.927634,0
14:35:09.927634,2
14:35:09.927634,6656
14:35:09.927634,0
14:35:09.927634,38
14:35:09.927634,8448
14:35:09.927634,0
14:35:09.927634,35
14:35:09.927634,10240
14:35:09.927634,0
14:35:09.927634,26
14:35:09.927634,1792
14:35:09.927634,0
14:35:09.927634,9
14:35:09.927634,4864
14:35:09.927634,0
14:35:09.927634,19
14:35:09.927634,5888
14:35:09.927634,0
14:35:09.927634,21
14:35:09.927634,-4096
14:35:09.927634,-1
14:35:09.927634,-19
14:35:09.927634,-18945
14:35:09.927634,0
14:35:09.927634,683
14:35:10.512624,1385
14:35:10.512624,-21760
14:35:10.512624,6
14:35:10.512624,996
14:35:10.512624,-4864
14:35:10.512624,-1
14:35:10.512624,-210
14:35:10.512624,-9985
14:35:10.512624,-1
14:35:10.512624,-155
14:35:10.512624,8447
14:35:10.512624,-1
14:35:10.512624,-150
14:35:10.512624,29183
14:35:10.512624,-1
14:35:10.512624,-160
14:35:10.512624,29951
14:35:10.512624,-1
14:35:10.512624,-124
14:35:10.512624,-28929
14:35:10.512624,-1
14:35:10.512624,-112
14:35:10.512624,-27649
14:35:10.512624,-1
14:35:10.512624,-95
14:35:10.512624,-18689
14:35:10.512624,-1
14:35:10.512624,-54
14:35:10.512624,-12545
14:35:10.512624,-1
14:35:10.512624,-45
14:35:10.512624,-5633
14:35:10.512624,-1
14:35:10.512624,9
14:35:10.512624,8448
14:35:10.512624,0
14:35:10.512624,42
14:35:10.512624,18176
14:35:10.512624,0
14:35:10.512624,97
14:35:10.512624,24832
14:35:10.512624,0
14:35:10.512624,88
14:35:10.512624,19968
14:35:10.512624,0
14:35:10.512624,62
14:35:10.512624,7936
14:35:10.512624,0
14:35:10.512624,-19
14:35:10.512624,-17409
14:35:10.512624,-1
14:35:10.512624,-76
14:35:10.512624,-14849
14:35:10.512624,-1
14:35:10.512624,-66
14:35:10.512624,-21505
14:35:10.512624,-1
14:35:10.512624,-90
14:35:10.512624,-22785
14:35:10.512624,-1
14:35:10.512624,-78
14:35:10.512624,-13569
14:35:10.512624,-1
14:35:10.512624,-50
14:35:10.512624,-15617
14:35:10.512624,-1
14:35:10.512624,-57
14:35:10.512624,-9985
14:35:10.512624,-1
14:35:10.512624,-31
14:35:10.512624,-6401
14:35:10.512624,-1
14:35:10.512624,-23
14:35:10.512624,-6401
14:35:10.512624,-1
14:35:10.512624,-26
14:35:10.512624,-3329
14:35:10.512624,-1
14:35:10.512624,-2
14:35:10.512624,-257
14:35:10.512624,-1
14:35:10.512624,-7
14:35:10.512624,2047
14:35:10.512624,0
14:35:10.512624,23
14:35:10.512624,5376
14:35:10.512624,0
14:35:10.512624,21
14:35:10.512624,5888
14:35:10.512624,0
14:35:10.512624,21
14:35:10.512624,7936
14:35:10.512624,0
14:35:10.512624,33
14:35:10.512624,6656
14:35:10.512624,0
14:35:10.512624,23
14:35:10.512624,4864
14:35:10.512624,0
14:35:10.512624,21
14:35:10.512624,8448
14:35:10.512624,0
14:35:10.512624,28
14:35:10.512624,3584
14:35:10.512624,0
14:35:10.512624,31
14:35:10.512624,12032
14:35:10.512624,0
14:35:10.512624,40
14:35:11.052639,35
14:35:11.052639,10240
14:35:11.052639,0
14:35:11.052639,40
14:35:11.052639,9728
14:35:11.052639,0
14:35:11.052639,42
14:35:11.052639,8448
14:35:11.052639,0
14:35:11.052639,23
14:35:11.052639,9728
14:35:11.052639,0
14:35:11.052639,54
14:35:11.052639,19456
14:35:11.052639,0
14:35:11.052639,100
14:35:11.052639,23808
14:35:11.052639,0
14:35:11.052639,78
14:35:11.052639,19456
14:35:11.052639,0
14:35:11.052639,69
14:35:11.052639,16384
14:35:11.052639,0
14:35:11.052639,66
14:35:11.052639,18176
14:35:11.052639,0
14:35:11.052639,66
14:35:11.052639,15872
14:35:11.052639,0
14:35:11.052639,54
14:35:11.052639,4096
14:35:11.052639,0
14:35:11.052639,90
14:35:11.052639,-10240
14:35:11.052639,1
14:35:11.052639,1124
14:35:11.052639,-24832
14:35:11.052639,6
14:35:11.052639,1452
14:35:11.052639,-23552
14:35:11.052639,1
14:35:11.052639,-162
14:35:11.052639,-3841
14:35:11.052639,-1
14:35:11.052639,-21
14:35:11.052639,18175
14:35:11.052639,-1
14:35:11.052639,-136
14:35:11.052639,-20481
14:35:11.052639,-1
14:35:11.052639,-121
14:35:11.052639,-26625
14:35:11.052639,-1
14:35:11.052639,-62
14:35:11.052639,-16129
14:35:11.052639,-1
14:35:11.052639,-66
14:35:11.052639,-10497
14:35:11.052639,-1
14:35:11.052639,-31
14:35:11.052639,-3841
14:35:11.052639,-1
14:35:11.052639,7
14:35:11.052639,5888
14:35:11.052639,0
14:35:11.052639,33
14:35:11.052639,14592
14:35:11.052639,0
14:35:11.052639,83
14:35:11.052639,28672
14:35:11.052639,0
14:35:11.052639,145
14:35:11.052639,-22272
14:35:11.052639,0
14:35:11.052639,188
14:35:11.052639,-12544
14:35:11.052639,0
14:35:11.052639,212
14:35:11.052639,-16128
14:35:11.052639,0
14:35:11.052639,162
14:35:11.052639,-32768
14:35:11.052639,0
14:35:11.052639,74
14:35:11.052639,3584
14:35:11.052639,0
14:35:11.052639,-16
14:35:11.052639,-6401
14:35:11.052639,-1
14:35:11.052639,-38
14:35:11.052639,-11265
14:35:11.052639,-1
14:35:11.052639,-50
14:35:11.052639,-11777
14:35:11.052639,-1
14:35:11.052639,-40
14:35:11.052639,-8705
14:35:11.052639,-1
14:35:11.052639,-38
14:35:11.052639,-8705
14:35:11.052639,-1
14:35:11.052639,-26
14:35:11.052639,-5633
14:35:11.052639,-1
14:35:11.052639,-21
14:35:11.052639,-2049
14:35:11.052639,-1
14:35:11.052639,2
14:35:11.637620,14
14:35:11.637620,4096
14:35:11.637620,0
14:35:11.637620,23
14:35:11.637620,8448
14:35:11.637620,0
14:35:11.637620,35
14:35:11.637620,9728
14:35:11.637620,0
14:35:11.637620,52
14:35:11.637620,16384
14:35:11.637620,0
14:35:11.637620,66
14:35:11.637620,15104
14:35:11.637620,0
14:35:11.637620,59
14:35:11.637620,16896
14:35:11.637620,0
14:35:11.637620,66
14:35:11.637620,16384
14:35:11.637620,0
14:35:11.637620,62
14:35:11.637620,15104
14:35:11.637620,0
14:35:11.637620,62
14:35:11.637620,15104
14:35:11.637620,0
14:35:11.637620,59
14:35:11.637620,15104
14:35:11.637620,0
14:35:11.637620,54
14:35:11.637620,13312
14:35:11.637620,0
14:35:11.637620,52
14:35:11.637620,13312
14:35:11.637620,0
14:35:11.637620,45
14:35:11.637620,8960
14:35:11.637620,0
14:35:11.637620,35
14:35:11.637620,10240
14:35:11.637620,0
14:35:11.637620,57
14:35:11.637620,19456
14:35:11.637620,0
14:35:11.637620,83
14:35:11.637620,19968
14:35:11.637620,0
14:35:11.637620,76
14:35:11.637620,18176
14:35:11.637620,0
14:35:11.637620,62
14:35:11.637620,14592
14:35:11.637620,0
14:35:11.637620,64
14:35:11.637620,16896
14:35:11.637620,0
14:35:11.637620,62
14:35:11.637620,15872
14:35:11.637620,0
14:35:11.637620,47
14:35:11.637620,5888
14:35:11.637620,0
14:35:11.637620,162
14:35:11.637620,28928
14:35:11.637620,2
14:35:11.637620,1359
14:35:11.637620,8192
14:35:11.637620,7
14:35:11.637620,1256
14:35:11.637620,-29696
14:35:11.637620,0
14:35:11.637620,-210
14:35:11.637620,-257
14:35:11.637620,-1
14:35:11.637620,-90
14:35:11.637620,8959
14:35:11.637620,-1
14:35:11.637620,-138
14:35:11.637620,-28929
14:35:11.637620,-1
14:35:11.637620,-152
14:35:11.637620,-31489
14:35:11.637620,-1
14:35:11.637620,-100
14:35:11.637620,-28417
14:35:11.637620,-1
14:35:11.637620,-100
14:35:11.637620,-19201
14:35:11.637620,-1
14:35:11.637620,-69
14:35:11.637620,-15617
14:35:11.637620,-1
14:35:11.637620,-45
14:35:11.637620,-6913
14:35:11.637620,-1
14:35:11.637620,-19
14:35:11.637620,767
14:35:11.637620,0
14:35:11.637620,23
14:35:11.637620,12032
14:35:11.637620,0
14:35:11.637620,76
14:35:11.637620,26880
14:35:11.637620,0
14:35:11.637620,124
14:35:11.637620,-31488
14:35:11.637620,0
14:35:11.637620,131
14:35:12.178033,114
14:35:12.178033,22528
14:35:12.178033,0
14:35:12.178033,42
14:35:12.178033,-2304
14:35:12.178033,-1
14:35:12.178033,-45
14:35:12.178033,-16641
14:35:12.178033,-1
14:35:12.178033,-85
14:35:12.178033,-23553
14:35:12.178033,-1
14:35:12.178033,-90
14:35:12.178033,-20481
14:35:12.178033,-1
14:35:12.178033,-62
14:35:12.178033,-14849
14:35:12.178033,-1
14:35:12.178033,-69
14:35:12.178033,-14849
14:35:12.178033,-1
14:35:12.178033,-47
14:35:12.178033,-12545
14:35:12.178033,-1
14:35:12.178033,-40
14:35:12.178033,-8193
14:35:12.178033,-1
14:35:12.178033,-33
14:35:12.178033,-8705
14:35:12.178033,-1
14:35:12.178033,-31
14:35:12.178033,-4609
14:35:12.178033,-1
14:35:12.178033,-14
14:35:12.178033,-2561
14:35:12.178033,-1
14:35:12.178033,-4
14:35:12.178033,767
14:35:12.178033,0
14:35:12.178033,0
14:35:12.178033,-1024
14:35:12.178033,-1
14:35:12.178033,0
14:35:12.178033,2816
14:35:12.178033,0
14:35:12.178033,9
14:35:12.178033,512
14:35:12.178033,0
14:35:12.178033,4
14:35:12.178033,2816
14:35:12.178033,0
14:35:12.178033,9
14:35:12.178033,1792
14:35:12.178033,0
14:35:12.178033,11
14:35:12.178033,2816
14:35:12.178033,0
14:35:12.178033,9
14:35:12.178033,2816
14:35:12.178033,0
14:35:12.178033,19
14:35:12.178033,5376
14:35:12.178033,0
14:35:12.178033,21
14:35:12.178033,5376
14:35:12.178033,0
14:35:12.178033,28
14:35:12.178033,7168
14:35:12.178033,0
14:35:12.178033,31
14:35:12.178033,8960
14:35:12.178033,0
14:35:12.178033,28
14:35:12.178033,6656
14:35:12.178033,0
14:35:12.178033,28
14:35:12.178033,7936
14:35:12.178033,0
14:35:12.178033,33
14:35:12.178033,7936
14:35:12.178033,0
14:35:12.178033,31
14:35:12.178033,6656
14:35:12.178033,0
14:35:12.178033,14
14:35:12.178033,1024
14:35:12.178033,0
14:35:12.178033,9
14:35:12.178033,6656
14:35:12.178033,0
14:35:12.178033,42
14:35:12.178033,13312
14:35:12.178033,0
14:35:12.178033,54
14:35:12.178033,14592
14:35:12.178033,0
14:35:12.178033,52
14:35:12.178033,9728
14:35:12.178033,0
14:35:12.178033,33
14:35:12.178033,10752
14:35:12.178033,0
14:35:12.178033,45
14:35:12.178033,10752
14:35:12.178033,0
14:35:12.178033,40
14:35:12.178033,8448
14:35:12.178033,0
14:35:12.178033,9
14:35:12.762620,64
14:35:12.762620,-24320
14:35:12.762620,1
14:35:12.762620,1148
14:35:12.762620,18688
14:35:12.762620,7
14:35:12.762620,1686
14:35:12.762620,5120
14:35:12.762620,2
14:35:12.762620,-231
14:35:12.762620,-20481
14:35:12.762620,-1
14:35:12.762620,-14
14:35:12.762620,11007
14:35:12.762620,-1
14:35:12.762620,-191
14:35:12.762620,-28417
14:35:12.762620,-1
14:35:12.762620,-152
14:35:12.762620,27391
14:35:12.762620,-1
14:35:12.762620,-109
14:35:12.762620,-27137
14:35:12.762620,-1
14:35:12.762620,-102
14:35:12.762620,-22273
14:35:12.762620,-1
14:35:12.762620,-83
14:35:12.762620,-18689
14:35:12.762620,-1
14:35:12.762620,-52
14:35:12.762620,-11777
14:35:12.762620,-1
14:35:12.762620,-50
14:35:12.762620,-7681
14:35:12.762620,-1
14:35:12.762620,-9
14:35:12.762620,1279
14:35:12.762620,0
14:35:12.762620,28
14:35:12.762620,13824
14:35:12.762620,0
14:35:12.762620,74
14:35:12.762620,23808
14:35:12.762620,0
14:35:12.762620,102
14:35:12.762620,25600
14:35:12.762620,0
14:35:12.762620,88
14:35:12.762620,15872
14:35:12.762620,0
14:35:12.762620,28
14:35:12.762620,-2816
14:35:12.762620,-1
14:35:12.762620,-40
14:35:12.762620,-12545
14:35:12.762620,-1
14:35:12.762620,-59
14:35:12.762620,-17921
14:35:12.762620,-1
14:35:12.762620,-69
14:35:12.762620,-17409
14:35:12.762620,-1
14:35:12.762620,-66
14:35:12.762620,-13569
14:35:12.762620,-1
14:35:12.762620,-40
14:35:12.762620,-9473
14:35:12.762620,-1
14:35:12.762620,-42
14:35:12.762620,-8705
14:35:12.762620,-1
14:35:12.762620,-28
14:35:12.762620,-6401
14:35:12.762620,-1
14:35:12.762620,-23
14:35:12.762620,-5121
14:35:12.762620,-1
14:35:12.762620,-21
14:35:12.762620,-4609
14:35:12.762620,-1
14:35:12.762620,-14
14:35:12.762620,-769
14:35:12.762620,-1
14:35:12.762620,-4
14:35:12.762620,-2049
14:35:12.762620,-1
14:35:12.762620,-4
14:35:12.762620,255
14:35:12.762620,0
14:35:12.762620,4
14:35:12.762620,1024
14:35:12.762620,0
14:35:12.762620,7
14:35:12.762620,1792
14:35:12.762620,0
14:35:12.762620,9
14:35:12.762620,2816
14:35:12.762620,0
14:35:12.762620,14
14:35:12.762620,4096
14:35:12.762620,0
14:35:12.762620,23
14:35:12.762620,7168
14:35:12.762620,0
14:35:12.762620,23
14:35:12.762620,4864
14:35:12.762620,0
14:35:12.762620,26
14:35:13.302637,31
14:35:13.302637,5888
14:35:13.302637,0
14:35:13.302637,23
14:35:13.302637,7936
14:35:13.302637,0
14:35:13.302637,31
14:35:13.302637,8448
14:35:13.302637,0
14:35:13.302637,33
14:35:13.302637,7936
14:35:13.302637,0
14:35:13.302637,35
14:35:13.302637,10752
14:35:13.302637,0
14:35:13.302637,47
14:35:13.302637,12032
14:35:13.302637,0
14:35:13.302637,35
14:35:13.302637,6656
14:35:13.302637,0
14:35:13.302637,28
14:35:13.302637,10752
14:35:13.302637,0
14:35:13.302637,62
14:35:13.302637,16896
14:35:13.302637,0
14:35:13.302637,64
14:35:13.302637,15104
14:35:13.302637,0
14:35:13.302637,57
14:35:13.302637,10752
14:35:13.302637,0
14:35:13.302637,33
14:35:13.302637,12032
14:35:13.302637,0
14:35:13.302637,54
14:35:13.302637,10240
14:35:13.302637,0
14:35:13.302637,33
14:35:13.302637,5888
14:35:13.302637,0
14:35:13.302637,-4
14:35:13.302637,21503
14:35:13.302637,0
14:35:13.302637,503
14:35:13.302637,-12800
14:35:13.302637,4
14:35:13.302637,1798
14:35:13.302637,-30208
14:35:13.302637,5
14:35:13.302637,296
14:35:13.302637,4608
14:35:13.302637,-1
14:35:13.302637,-52
14:35:13.302637,-19713
14:35:13.302637,-1
14:35:13.302637,-243
14:35:13.302637,20735
14:35:13.302637,-1
14:35:13.302637,-126
14:35:13.302637,23039
14:35:13.302637,-1
14:35:13.302637,-152
14:35:13.302637,-30209
14:35:13.302637,-1
14:35:13.302637,-121
14:35:13.302637,-28417
14:35:13.302637,-1
14:35:13.302637,-90
14:35:13.302637,-20481
14:35:13.302637,-1
14:35:13.302637,-71
14:35:13.302637,-13569
14:35:13.302637,-1
14:35:13.302637,-42
14:35:13.302637,-7681
14:35:13.302637,-1
14:35:13.302637,-7
14:35:13.302637,4351
14:35:13.302637,0
14:35:13.302637,38
14:35:13.302637,16384
14:35:13.302637,0
14:35:13.302637,90
14:35:13.302637,29184
14:35:13.302637,0
14:35:13.302637,128
14:35:13.302637,-32768
14:35:13.302637,0
14:35:13.302637,117
14:35:13.302637,23808
14:35:13.302637,0
14:35:13.302637,54
14:35:13.302637,1792
14:35:13.302637,0
14:35:13.302637,-38
14:35:13.302637,-16641
14:35:13.302637,-1
14:35:13.302637,-85
14:35:13.302637,-24065
14:35:13.302637,-1
14:35:13.302637,-95
14:35:13.302637,-22785
14:35:13.302637,-1
14:35:13.302637,-88
14:35:13.302637,-22273
14:35:13.302637,-1
14:35:13.302637,-85
14:35:13.842634,-69
14:35:13.842634,-14337
14:35:13.842634,-1
14:35:13.842634,-57
14:35:13.842634,-14337
14:35:13.842634,-1
14:35:13.842634,-50
14:35:13.842634,-10497
14:35:13.842634,-1
14:35:13.842634,-40
14:35:13.842634,-6401
14:35:13.842634,-1
14:35:13.842634,-4
14:35:13.842634,-257
14:35:13.842634,-1
14:35:13.842634,-7
14:35:13.842634,1279
14:35:13.842634,0
14:35:13.842634,14
14:35:13.842634,2816
14:35:13.842634,0
14:35:13.842634,14
14:35:13.842634,4096
14:35:13.842634,0
14:35:13.842634,7
14:35:13.842634,1792
14:35:13.842634,0
14:35:13.842634,19
14:35:13.842634,5888
14:35:13.842634,0
14:35:13.842634,19
14:35:13.842634,5888
14:35:13.842634,0
14:35:13.842634,26
14:35:13.842634,5376
14:35:13.842634,0
14:35:13.842634,23
14:35:13.842634,7936
14:35:13.842634,0
14:35:13.842634,31
14:35:13.842634,7168
14:35:13.842634,0
14:35:13.842634,31
14:35:13.842634,8448
14:35:13.842634,0
14:35:13.842634,33
14:35:13.842634,8448
14:35:13.842634,0
14:35:13.842634,26
14:35:13.842634,5376
14:35:13.842634,0
14:35:13.842634,26
14:35:13.842634,8448
14:35:13.842634,0
14:35:13.842634,26
14:35:13.842634,3584
14:35:13.842634,0
14:35:13.842634,9
14:35:13.842634,1792
14:35:13.842634,0
14:35:13.842634,-2
14:35:13.842634,767
14:35:13.842634,0
14:35:13.842634,23
14:35:13.842634,8448
14:35:13.842634,0
14:35:13.842634,35
14:35:13.842634,10240
14:35:13.842634,0
14:35:13.842634,35
14:35:13.842634,6656
14:35:13.842634,0
14:35:13.842634,19
14:35:13.842634,4864
14:35:13.842634,0
14:35:13.842634,26
14:35:13.842634,5888
14:35:13.842634,0
14:35:13.842634,21
14:35:13.842634,5376
14:35:13.842634,0
14:35:13.842634,4
14:35:13.842634,-2816
14:35:13.842634,-1
14:35:13.842634,131
14:35:13.842634,26624
14:35:13.842634,2
14:35:13.842634,1351
14:35:13.842634,1536
14:35:13.842634,7
14:35:13.842634,1220
14:35:13.842634,26880
14:35:13.842634,0
14:35:13.842634,-231
14:35:13.842634,-3841
14:35:13.842634,-1
14:35:13.842634,-114
14:35:13.842634,4095
14:35:13.842634,-1
14:35:13.842634,-148
14:35:13.842634,-32001
14:35:13.842634,-1
14:35:13.842634,-176
14:35:13.842634,27903
14:35:13.842634,-1
14:35:13.842634,-114
14:35:13.842634,-32001
14:35:13.842634,-1
14:35:13.842634,-117
14:35:14.471916,-90
14:35:14.471916,-21505
14:35:14.471916,-1
14:35:14.471916,-83
14:35:14.471916,-16641
14:35:14.471916,-1
14:35:14.471916,-47
14:35:14.471916,-5121
14:35:14.471916,-1
14:35:14.471916,0
14:35:14.471916,4864
14:35:14.471916,0
14:35:14.471916,42
14:35:14.471916,17664
14:35:14.471916,0
14:35:14.471916,95
14:35:14.471916,29952
14:35:14.471916,0
14:35:14.471916,124
14:35:14.471916,30976
14:35:14.471916,0
14:35:14.471916,112
14:35:14.471916,21760
14:35:14.471916,0
14:35:14.471916,50
14:35:14.471916,1024
14:35:14.471916,0
14:35:14.471916,-35
14:35:14.471916,-14849
14:35:14.471916,-1
14:35:14.471916,-74
14:35:14.471916,-20481
14:35:14.471916,-1
14:35:14.471916,-85
14:35:14.471916,-22273
14:35:14.471916,-1
14:35:14.471916,-83
14:35:14.471916,-19713
14:35:14.471916,-1
14:35:14.471916,-78
14:35:14.471916,-19201
14:35:14.471916,-1
14:35:14.471916,-69
14:35:14.471916,-14337
14:35:14.471916,-1
14:35:14.471916,-54
14:35:14.471916,-13057
14:35:14.471916,-1
14:35:14.471916,-45
14:35:14.471916,-9985
14:35:14.471916,-1
14:35:14.471916,-38
14:35:14.471916,-8193
14:35:14.471916,-1
14:35:14.471916,-23
14:35:14.471916,-4609
14:35:14.471916,-1
14:35:14.471916,-11
14:35:14.471916,-2049
14:35:14.471916,-1
14:35:14.471916,-9
14:35:14.471916,-2049
14:35:14.471916,-1
14:35:14.471916,-9
14:35:14.471916,-2049
14:35:14.471916,-1
14:35:14.471916,-4
14:35:14.471916,-257
14:35:14.471916,-1
14:35:14.471916,0
14:35:14.471916,512
14:35:14.471916,0
14:35:14.471916,4
14:35:14.471916,1024
14:35:14.471916,0
14:35:14.471916,7
14:35:14.471916,2816
14:35:14.471916,0
14:35:14.471916,16
14:35:14.471916,2816
14:35:14.471916,0
14:35:14.471916,11
14:35:14.471916,3584
14:35:14.471916,0
14:35:14.471916,16
14:35:14.471916,4096
14:35:14.471916,0
14:35:14.471916,21
14:35:14.471916,7168
14:35:14.471916,0
14:35:14.471916,28
14:35:14.471916,5376
14:35:14.471916,0
14:35:14.471916,21
14:35:14.471916,5888
14:35:14.471916,0
14:35:14.471916,26
14:35:14.471916,5376
14:35:14.471916,0
14:35:14.471916,16
14:35:14.471916,5888
14:35:14.471916,0
14:35:14.471916,21
14:35:14.471916,1792
14:35:14.471916,0
14:35:14.471916,2
14:35:14.471916,0
14:35:14.471916,0
14:35:14.471916,-4
14:35:15.012617,7
14:35:15.012617,7168
14:35:15.012617,0
14:35:15.012617,35
14:35:15.012617,8448
14:35:15.012617,0
14:35:15.012617,38
14:35:15.012617,8448
14:35:15.012617,0
14:35:15.012617,19
14:35:15.012617,3584
14:35:15.012617,0
14:35:15.012617,26
14:35:15.012617,8960
14:35:15.012617,0
14:35:15.012617,38
14:35:15.012617,8448
14:35:15.012617,0
14:35:15.012617,23
14:35:15.012617,512
14:35:15.012617,0
14:35:15.012617,66
14:35:15.012617,-24320
14:35:15.012617,1
14:35:15.012617,1129
14:35:15.012617,9984
14:35:15.012617,7
14:35:15.012617,1655
14:35:15.012617,1536
14:35:15.012617,2
14:35:15.012617,-231
14:35:15.012617,-22273
14:35:15.012617,-1
14:35:15.012617,-28
14:35:15.012617,8959
14:35:15.012617,-1
14:35:15.012617,-198
14:35:15.012617,-30721
14:35:15.012617,-1
14:35:15.012617,-160
14:35:15.012617,23807
14:35:15.012617,-1
14:35:15.012617,-126
14:35:15.012617,-30721
14:35:15.012617,-1
14:35:15.012617,-124
14:35:15.012617,-27137
14:35:15.012617,-1
14:35:15.012617,-90
14:35:15.012617,-21505
14:35:15.012617,-1
14:35:15.012617,-81
14:35:15.012617,-17921
14:35:15.012617,-1
14:35:15.012617,-50
14:35:15.012617,-8193
14:35:15.012617,-1
14:35:15.012617,-21
14:35:15.012617,255
14:35:15.012617,0
14:35:15.012617,26
14:35:15.012617,12032
14:35:15.012617,0
14:35:15.012617,69
14:35:15.012617,23808
14:35:15.012617,0
14:35:15.012617,105
14:35:15.012617,23040
14:35:15.012617,0
14:35:15.012617,69
14:35:15.012617,12800
14:35:15.012617,0
14:35:15.012617,21
14:35:15.012617,-4864
14:35:15.012617,-1
14:35:15.012617,-52
14:35:15.012617,-17409
14:35:15.012617,-1
14:35:15.012617,-71
14:35:15.012617,-18689
14:35:15.012617,-1
14:35:15.012617,-76
14:35:15.012617,-17921
14:35:15.012617,-1
14:35:15.012617,-69
14:35:15.012617,-14849
14:35:15.012617,-1
14:35:15.012617,-57
14:35:15.012617,-14337
14:35:15.012617,-1
14:35:15.012617,-47
14:35:15.012617,-9473
14:35:15.012617,-1
14:35:15.012617,-33
14:35:15.012617,-7681
14:35:15.012617,-1
14:35:15.012617,-23
14:35:15.012617,-4609
14:35:15.012617,-1
14:35:15.012617,-16
14:35:15.012617,-2049
14:35:15.012617,-1
14:35:15.012617,-9
14:35:15.012617,-1537
14:35:15.012617,-1
14:35:15.012617,-4
14:35:15.012617,-257
14:35:15.012617,-1
14:35:15.012617,4
14:35:15.552539,9
14:35:15.552539,2304
14:35:15.552539,0
14:35:15.552539,7
14:35:15.552539,2304
14:35:15.552539,0
14:35:15.552539,11
14:35:15.552539,3584
14:35:15.552539,0
14:35:15.552539,11
14:35:15.552539,3584
14:35:15.552539,0
14:35:15.552539,9
14:35:15.552539,1792
14:35:15.552539,0
14:35:15.552539,16
14:35:15.552539,8448
14:35:15.552539,0
14:35:15.552539,42
14:35:15.552539,9728
14:35:15.552539,0
14:35:15.552539,33
14:35:15.552539,8960
14:35:15.552539,0
14:35:15.552539,35
14:35:15.552539,8448
14:35:15.552539,0
14:35:15.552539,38
14:35:15.552539,8960
14:35:15.552539,0
14:35:15.552539,31
14:35:15.552539,6656
14:35:15.552539,0
14:35:15.552539,26
14:35:15.552539,7168
14:35:15.552539,0
14:35:15.552539,28
14:35:15.552539,7168
14:35:15.552539,0
14:35:15.552539,28
14:35:15.552539,4096
14:35:15.552539,0
14:35:15.552539,9
14:35:15.552539,2304
14:35:15.552539,0
14:35:15.552539,4
14:35:15.552539,1024
14:35:15.552539,0
14:35:15.552539,23
14:35:15.552539,12800
14:35:15.552539,0
14:35:15.552539,54
14:35:15.552539,13312
14:35:15.552539,0
14:35:15.552539,52
14:35:15.552539,12032
14:35:15.552539,0
14:35:15.552539,26
14:35:15.552539,5888
14:35:15.552539,0
14:35:15.552539,38
14:35:15.552539,10240
14:35:15.552539,0
14:35:15.552539,33
14:35:15.552539,8448
14:35:15.552539,0
14:35:15.552539,14
14:35:15.552539,2304
14:35:15.552539,0
14:35:15.552539,207
14:35:15.552539,-5376
14:35:15.552539,2
14:35:15.552539,1509
14:35:15.552539,15616
14:35:15.552539,7
14:35:15.552539,1089
14:35:15.552539,-2304
14:35:15.552539,-1
14:35:15.552539,-207
14:35:15.552539,-1537
14:35:15.552539,-1
14:35:15.552539,-145
14:35:15.552539,5375
14:35:15.552539,-1
14:35:15.552539,-143
14:35:15.552539,29183
14:35:15.552539,-1
14:35:15.552539,-169
14:35:15.552539,-32513
14:35:15.552539,-1
14:35:15.552539,-114
14:35:15.552539,-31489
14:35:15.552539,-1
14:35:15.552539,-107
14:35:15.552539,-23553
14:35:15.552539,-1
14:35:15.552539,-83
14:35:15.552539,-17921
14:35:15.552539,-1
14:35:15.552539,-52
14:35:15.552539,-8705
14:35:15.552539,-1
14:35:15.552539,-28
14:35:15.552539,-3841
14:35:15.552539,-1
14:35:15.552539,9
14:35:15.552539,9728
14:35:15.552539,0
14:35:15.552539,54
14:35:16.138638,76
14:35:16.138638,26880
14:35:16.138638,0
14:35:16.138638,114
14:35:16.138638,25600
14:35:16.138638,0
14:35:16.138638,90
14:35:16.138638,19456
14:35:16.138638,0
14:35:16.138638,40
14:35:16.138638,-1024
14:35:16.138638,-1
14:35:16.138638,-28
14:35:16.138638,-7681
14:35:16.138638,-1
14:35:16.138638,-40
14:35:16.138638,-16129
14:35:16.138638,-1
14:35:16.138638,-69
14:35:16.138638,-16129
14:35:16.138638,-1
14:35:16.138638,-57
14:35:16.138638,-12545
14:35:16.138638,-1
14:35:16.138638,-50
14:35:16.138638,-13057
14:35:16.138638,-1
14:35:16.138638,-42
14:35:16.138638,-6401
14:35:16.138638,-1
14:35:16.138638,-16
14:35:16.138638,-4609
14:35:16.138638,-1
14:35:16.138638,-16
14:35:16.138638,255
14:35:16.138638,0
14:35:16.138638,4
14:35:16.138638,1024
14:35:16.138638,0
14:35:16.138638,7
14:35:16.138638,2304
14:35:16.138638,0
14:35:16.138638,16
14:35:16.138638,6656
14:35:16.138638,0
14:35:16.138638,23
14:35:16.138638,5888
14:35:16.138638,0
14:35:16.138638,28
14:35:16.138638,7168
14:35:16.138638,0
14:35:16.138638,23
14:35:16.138638,5888
14:35:16.138638,0
14:35:16.138638,26
14:35:16.138638,8960
14:35:16.138638,0
14:35:16.138638,38
14:35:16.138638,7936
14:35:16.138638,0
14:35:16.138638,31
14:35:16.138638,8960
14:35:16.138638,0
14:35:16.138638,35
14:35:16.138638,9728
14:35:16.138638,0
14:35:16.138638,40
14:35:16.138638,8960
14:35:16.138638,0
14:35:16.138638,31
14:35:16.138638,8960
14:35:16.138638,0
14:35:16.138638,40
14:35:16.138638,9728
14:35:16.138638,0
14:35:16.138638,33
14:35:16.138638,8960
14:35:16.138638,0
14:35:16.138638,35
14:35:16.138638,7936
14:35:16.138638,0
14:35:16.138638,33
14:35:16.138638,9728
14:35:16.138638,0
14:35:16.138638,38
14:35:16.138638,8448
14:35:16.138638,0
14:35:16.138638,33
14:35:16.138638,8960
14:35:16.138638,0
14:35:16.138638,33
14:35:16.138638,7168
14:35:16.138638,0
14:35:16.138638,23
14:35:16.138638,4864
14:35:16.138638,0
14:35:16.138638,19
14:35:16.138638,2816
14:35:16.138638,0
14:35:16.138638,11
14:35:16.138638,9728
14:35:16.138638,0
14:35:16.138638,50
14:35:16.138638,12032
14:35:16.138638,0
14:35:16.138638,52
14:35:16.138638,13312
14:35:16.138638,0
14:35:16.138638,35
14:35:16.678613,26
14:35:16.678613,9728
14:35:16.678613,0
14:35:16.678613,42
14:35:16.678613,8448
14:35:16.678613,0
14:35:16.678613,28
14:35:16.678613,7936
14:35:16.678613,0
14:35:16.678613,7
14:35:16.678613,9728
14:35:16.678613,0
14:35:16.678613,315
14:35:16.678613,-24320
14:35:16.678613,3
14:35:16.678613,1655
14:35:16.678613,-14336
14:35:16.678613,6
14:35:16.678613,761
14:35:16.678613,26624
14:35:16.678613,-1
14:35:16.678613,-114
14:35:16.678613,6143
14:35:16.678613,0
14:35:16.678613,-174
14:35:16.678613,15871
14:35:16.678613,-1
14:35:16.678613,-100
14:35:16.678613,31743
14:35:16.678613,-1
14:35:16.678613,-148
14:35:16.678613,-27137
14:35:16.678613,-1
14:35:16.678613,-100
14:35:16.678613,-25345
14:35:16.678613,-1
14:35:16.678613,-76
14:35:16.678613,-17409
14:35:16.678613,-1
14:35:16.678613,-66
14:35:16.678613,-13569
14:35:16.678613,-1
14:35:16.678613,-42
14:35:16.678613,-6913
14:35:16.678613,-1
14:35:16.678613,0
14:35:16.678613,4096
14:35:16.678613,0
14:35:16.678613,28
14:35:16.678613,12800
14:35:16.678613,0
14:35:16.678613,76
14:35:16.678613,24832
14:35:16.678613,0
14:35:16.678613,109
14:35:16.678613,29952
14:35:16.678613,0
14:35:16.678613,114
14:35:16.678613,25600
14:35:16.678613,0
14:35:16.678613,71
14:35:16.678613,9728
14:35:16.678613,0
14:35:16.678613,4
14:35:16.678613,-6656
14:35:16.678613,-1
14:35:16.678613,-47
14:35:16.678613,-13569
14:35:16.678613,-1
14:35:16.678613,-59
14:35:16.678613,-14849
14:35:16.678613,-1
14:35:16.678613,-57
14:35:16.678613,-13569
14:35:16.678613,-1
14:35:16.678613,-52
14:35:16.678613,-11265
14:35:16.678613,-1
14:35:16.678613,-40
14:35:16.678613,-8705
14:35:16.678613,-1
14:35:16.678613,-23
14:35:16.678613,-4609
14:35:16.678613,-1
14:35:16.678613,-16
14:35:16.678613,-1537
14:35:16.678613,-1
14:35:16.678613,-4
14:35:16.678613,-2049
14:35:16.678613,-1
14:35:16.678613,-9
14:35:16.678613,1279
14:35:16.678613,0
14:35:16.678613,9
14:35:16.678613,512
14:35:16.678613,0
14:35:16.678613,2
14:35:16.678613,2816
14:35:16.678613,0
14:35:16.678613,11
14:35:16.678613,2304
14:35:16.678613,0
14:35:16.678613,14
14:35:16.678613,3584
14:35:16.678613,0
14:35:16.678613,11
14:35:16.678613,3584
14:35:16.678613,0
14:35:16.678613,16
14:35:17.218073,11
14:35:17.218073,2304
14:35:17.218073,0
14:35:17.218073,16
14:35:17.218073,4864
14:35:17.218073,0
14:35:17.218073,21
14:35:17.218073,5888
14:35:17.218073,0
14:35:17.218073,28
14:35:17.218073,8448
14:35:17.218073,0
14:35:17.218073,35
14:35:17.218073,10752
14:35:17.218073,0
14:35:17.218073,50
14:35:17.218073,11520
14:35:17.218073,0
14:35:17.218073,38
14:35:17.218073,10240
14:35:17.218073,0
14:35:17.218073,42
14:35:17.218073,9728
14:35:17.218073,0
14:35:17.218073,31
14:35:17.218073,8960
14:35:17.218073,0
14:35:17.218073,42
14:35:17.218073,9728
14:35:17.218073,0
14:35:17.218073,31
14:35:17.218073,7936
14:35:17.218073,0
14:35:17.218073,33
14:35:17.218073,9728
14:35:17.218073,0
14:35:17.218073,38
14:35:17.218073,7936
14:35:17.218073,0
14:35:17.218073,28
14:35:17.218073,5888
14:35:17.218073,0
14:35:17.218073,11
14:35:17.218073,1792
14:35:17.218073,0
14:35:17.218073,16
14:35:17.218073,8448
14:35:17.218073,0
14:35:17.218073,42
14:35:17.218073,12032
14:35:17.218073,0
14:35:17.218073,50
14:35:17.218073,12032
14:35:17.218073,0
14:35:17.218073,38
14:35:17.218073,7168
14:35:17.218073,0
14:35:17.218073,31
14:35:17.218073,8960
14:35:17.218073,0
14:35:17.218073,33
14:35:17.218073,8448
14:35:17.218073,0
14:35:17.218073,26
14:35:17.218073,512
14:35:17.218073,0
14:35:17.218073,28
14:35:17.218073,4608
14:35:17.218073,1
14:35:17.218073,843
14:35:17.218073,8448
14:35:17.218073,6
14:35:17.218073,1743
14:35:17.218073,21504
14:35:17.218073,3
14:35:17.218073,-119
14:35:17.218073,23807
14:35:17.218073,-1
14:35:17.218073,-9
14:35:17.218073,18175
14:35:17.218073,-1
14:35:17.218073,-224
14:35:17.218073,-31489
14:35:17.218073,-1
14:35:17.218073,-145
14:35:17.218073,21247
14:35:17.218073,-1
14:35:17.218073,-136
14:35:17.218073,-30721
14:35:17.218073,-1
14:35:17.218073,-121
14:35:17.218073,-26625
14:35:17.218073,-1
14:35:17.218073,-93
14:35:17.218073,-22273
14:35:17.218073,-1
14:35:17.218073,-76
14:35:17.218073,-16129
14:35:17.218073,-1
14:35:17.218073,-52
14:35:17.218073,-8705
14:35:17.218073,-1
14:35:17.218073,-19
14:35:17.218073,255
14:35:17.218073,0
14:35:17.218073,21
14:35:17.218073,11520
14:35:17.218073,0
14:35:17.218073,69
14:35:17.757560,85
14:35:17.757560,21760
14:35:17.757560,0
14:35:17.757560,78
14:35:17.757560,18944
14:35:17.757560,0
14:35:17.757560,59
14:35:17.757560,7936
14:35:17.757560,0
14:35:17.757560,4
14:35:17.757560,-2304
14:35:17.757560,-1
14:35:17.757560,-31
14:35:17.757560,-12545
14:35:17.757560,-1
14:35:17.757560,-54
14:35:17.757560,-14849
14:35:17.757560,-1
14:35:17.757560,-62
14:35:17.757560,-14849
14:35:17.757560,-1
14:35:17.757560,-57
14:35:17.757560,-11265
14:35:17.757560,-1
14:35:17.757560,-33
14:35:17.757560,-8193
14:35:17.757560,-1
14:35:17.757560,-33
14:35:17.757560,-5121
14:35:17.757560,-1
14:35:17.757560,-14
14:35:17.757560,-3329
14:35:17.757560,-1
14:35:17.757560,-11
14:35:17.757560,-2049
14:35:17.757560,-1
14:35:17.757560,-9
14:35:17.757560,-1537
14:35:17.757560,-1
14:35:17.757560,-4
14:35:17.757560,-257
14:35:17.757560,-1
14:35:17.757560,4
14:35:17.757560,3584
14:35:17.757560,0
14:35:17.757560,9
14:35:17.757560,512
14:35:17.757560,0
14:35:17.757560,4
14:35:17.757560,1024
14:35:17.757560,0
14:35:17.757560,-2
14:35:17.757560,1279
14:35:17.757560,0
14:35:17.757560,9
14:35:17.757560,512
14:35:17.757560,0
14:35:17.757560,-2
14:35:17.757560,255
14:35:17.757560,0
14:35:17.757560,2
14:35:17.757560,1024
14:35:17.757560,0
14:35:17.757560,4
14:35:17.757560,1792
14:35:17.757560,0
14:35:17.757560,7
14:35:17.757560,1024
14:35:17.757560,0
14:35:17.757560,2
14:35:17.757560,1024
14:35:17.757560,0
14:35:17.757560,2
14:35:17.757560,1024
14:35:17.757560,0
14:35:17.757560,9
14:35:17.757560,2304
14:35:17.757560,0
14:35:17.757560,7
14:35:17.757560,2304
14:35:17.757560,0
14:35:17.757560,7
14:35:17.757560,512
14:35:17.757560,0
14:35:17.757560,7
14:35:17.757560,1792
14:35:17.757560,0
14:35:17.757560,2
14:35:17.757560,0
14:35:17.757560,0
14:35:17.757560,-4
14:35:17.757560,-2049
14:35:17.757560,-1
14:35:17.757560,-9
14:35:17.757560,255
14:35:17.757560,0
14:35:17.757560,16
14:35:17.757560,7936
14:35:17.757560,0
14:35:17.757560,33
14:35:17.757560,6656
14:35:17.757560,0
14:35:17.757560,14
14:35:17.757560,1024
14:35:17.757560,0
14:35:17.757560,2
14:35:17.757560,2816
14:35:17.757560,0
14:35:17.757560,14
14:35:18.387591,9
14:35:18.387591,2304
14:35:18.387591,0
14:35:18.387591,2
14:35:18.387591,-3584
14:35:18.387591,-1
14:35:18.387591,114
14:35:18.387591,6912
14:35:18.387591,2
14:35:18.387591,1227
14:35:18.387591,-11776
14:35:18.387591,6
14:35:18.387591,1328
14:35:18.387591,-5120
14:35:18.387591,0
14:35:18.387591,-222
14:35:18.387591,-8193
14:35:18.387591,-1
14:35:18.387591,-83
14:35:18.387591,5375
14:35:18.387591,-1
14:35:18.387591,-164
14:35:18.387591,-31489
14:35:18.387591,-1
14:35:18.387591,-167
14:35:18.387591,28671
14:35:18.387591,-1
14:35:18.387591,-119
14:35:18.387591,-31489
14:35:18.387591,-1
14:35:18.387591,-112
14:35:18.387591,-23553
14:35:18.387591,-1
14:35:18.387591,-88
14:35:18.387591,-20481
14:35:18.387591,-1
14:35:18.387591,-66
14:35:18.387591,-14337
14:35:18.387591,-1
14:35:18.387591,-47
14:35:18.387591,-6913
14:35:18.387591,-1
14:35:18.387591,-9
14:35:18.387591,2559
14:35:18.387591,0
14:35:18.387591,31
14:35:18.387591,12800
14:35:18.387591,0
14:35:18.387591,66
14:35:18.387591,19968
14:35:18.387591,0
14:35:18.387591,74
14:35:18.387591,16384
14:35:18.387591,0
14:35:18.387591,50
14:35:18.387591,5888
14:35:18.387591,0
14:35:18.387591,-4
14:35:18.387591,-8705
14:35:18.387591,-1
14:35:18.387591,-66
14:35:18.387591,-20481
14:35:18.387591,-1
14:35:18.387591,-85
14:35:18.387591,-23553
14:35:18.387591,-1
14:35:18.387591,-90
14:35:18.387591,-20993
14:35:18.387591,-1
14:35:18.387591,-85
14:35:18.387591,-20481
14:35:18.387591,-1
14:35:18.387591,-74
14:35:18.387591,-16641
14:35:18.387591,-1
14:35:18.387591,-59
14:35:18.387591,-13057
14:35:18.387591,-1
14:35:18.387591,-45
14:35:18.387591,-9473
14:35:18.387591,-1
14:35:18.387591,-35
14:35:18.387591,-7681
14:35:18.387591,-1
14:35:18.387591,-21
14:35:18.387591,-5633
14:35:18.387591,-1
14:35:18.387591,-28
14:35:18.387591,-5121
14:35:18.387591,-1
14:35:18.387591,-16
14:35:18.387591,-5121
14:35:18.387591,-1
14:35:18.387591,-19
14:35:18.387591,-2561
14:35:18.387591,-1
14:35:18.387591,-9
14:35:18.387591,-2561
14:35:18.387591,-1
14:35:18.387591,-16
14:35:18.387591,-3329
14:35:18.387591,-1
14:35:18.387591,-11
14:35:18.387591,-3329
14:35:18.387591,-1
14:35:18.387591,-14
14:35:18.387591,-3329
14:35:18.387591,-1
14:35:18.387591,-9
14:35:18.928028,2
14:35:18.928028,1792
14:35:18.928028,0
14:35:18.928028,0
14:35:18.928028,0
14:35:18.928028,0
14:35:18.928028,4
14:35:18.928028,1024
14:35:18.928028,0
14:35:18.928028,0
14:35:18.928028,1792
14:35:18.928028,0
14:35:18.928028,9
14:35:18.928028,512
14:35:18.928028,0
14:35:18.928028,0
14:35:18.928028,3584
14:35:18.928028,0
14:35:18.928028,23
14:35:18.928028,5888
14:35:18.928028,0
14:35:18.928028,26
14:35:18.928028,4096
14:35:18.928028,0
14:35:18.928028,7
14:35:18.928028,1024
14:35:18.928028,0
14:35:18.928028,2
14:35:18.928028,4096
14:35:18.928028,0
14:35:18.928028,42
14:35:18.928028,13824
14:35:18.928028,0
14:35:18.928028,47
14:35:18.928028,10240
14:35:18.928028,0
14:35:18.928028,31
14:35:18.928028,4096
14:35:18.928028,0
14:35:18.928028,23
14:35:18.928028,8960
14:35:18.928028,0
14:35:18.928028,33
14:35:18.928028,6656
14:35:18.928028,0
14:35:18.928028,21
14:35:18.928028,-1792
14:35:18.928028,-1
14:35:18.928028,28
14:35:18.928028,16896
14:35:18.928028,1
14:35:18.928028,929
14:35:18.928028,15104
14:35:18.928028,6
14:35:18.928028,1609
14:35:18.928028,-29184
14:35:18.928028,2
14:35:18.928028,-169
14:35:18.928028,-32001
14:35:18.928028,-1
14:35:18.928028,-31
14:35:18.928028,13823
14:35:18.928028,-1
14:35:18.928028,-200
14:35:18.928028,-30209
14:35:18.928028,-1
14:35:18.928028,-150
14:35:18.928028,24831
14:35:18.928028,-1
14:35:18.928028,-124
14:35:18.928028,-29697
14:35:18.928028,-1
14:35:18.928028,-112
14:35:18.928028,-24577
14:35:18.928028,-1
14:35:18.928028,-88
14:35:18.928028,-18689
14:35:18.928028,-1
14:35:18.928028,-59
14:35:18.928028,-13057
14:35:18.928028,-1
14:35:18.928028,-40
14:35:18.928028,-5633
14:35:18.928028,-1
14:35:18.928028,-4
14:35:18.928028,4351
14:35:18.928028,0
14:35:18.928028,40
14:35:18.928028,15104
14:35:18.928028,0
14:35:18.928028,74
14:35:18.928028,23040
14:35:18.928028,0
14:35:18.928028,95
14:35:18.928028,21760
14:35:18.928028,0
14:35:18.928028,76
14:35:18.928028,16384
14:35:18.928028,0
14:35:18.928028,31
14:35:18.928028,-1024
14:35:18.928028,-1
14:35:18.928028,-23
14:35:18.928028,-9473
14:35:18.928028,-1
14:35:18.928028,-54
14:35:18.928028,-14849
14:35:18.928028,-1
14:35:18.928028,-59
14:35:19.467608,-59
14:35:19.467608,-13569
14:35:19.467608,-1
14:35:19.467608,-45
14:35:19.467608,-9985
14:35:19.467608,-1
14:35:19.467608,-35
14:35:19.467608,-6401
14:35:19.467608,-1
14:35:19.467608,-21
14:35:19.467608,-3841
14:35:19.467608,-1
14:35:19.467608,-11
14:35:19.467608,-769
14:35:19.467608,-1
14:35:19.467608,14
14:35:19.467608,5888
14:35:19.467608,0
14:35:19.467608,19
14:35:19.467608,4096
14:35:19.467608,0
14:35:19.467608,23
14:35:19.467608,6656
14:35:19.467608,0
14:35:19.467608,21
14:35:19.467608,5376
14:35:19.467608,0
14:35:19.467608,21
14:35:19.467608,5888
14:35:19.467608,0
14:35:19.467608,26
14:35:19.467608,5888
14:35:19.467608,0
14:35:19.467608,26
14:35:19.467608,5376
14:35:19.467608,0
14:35:19.467608,14
14:35:19.467608,4864
14:35:19.467608,0
14:35:19.467608,28
14:35:19.467608,7168
14:35:19.467608,0
14:35:19.467608,31
14:35:19.467608,8448
14:35:19.467608,0
14:35:19.467608,33
14:35:19.467608,8448
14:35:19.467608,0
14:35:19.467608,33
14:35:19.467608,7936
14:35:19.467608,0
14:35:19.467608,35
14:35:19.467608,10240
14:35:19.467608,0
14:35:19.467608,31
14:35:19.467608,5888
14:35:19.467608,0
14:35:19.467608,21
14:35:19.467608,3584
14:35:19.467608,0
14:35:19.467608,19
14:35:19.467608,10752
14:35:19.467608,0
14:35:19.467608,57
14:35:19.467608,16384
14:35:19.467608,0
14:35:19.467608,64
14:35:19.467608,15104
14:35:19.467608,0
14:35:19.467608,45
14:35:19.467608,7936
14:35:19.467608,0
14:35:19.467608,38
14:35:19.467608,13312
14:35:19.467608,0
14:35:19.467608,47
14:35:19.467608,9728
14:35:19.467608,0
14:35:19.467608,33
14:35:19.467608,1024
14:35:19.467608,0
14:35:19.467608,35
14:35:19.467608,17408
14:35:19.467608,1
14:35:19.467608,921
14:35:19.467608,12544
14:35:19.467608,6
14:35:19.467608,1631
14:35:19.467608,-16896
14:35:19.467608,2
14:35:19.467608,-133
14:35:19.467608,-23553
14:35:19.467608,-1
14:35:19.467608,9
14:35:19.467608,20992
14:35:19.467608,-1
14:35:19.467608,-183
14:35:19.467608,-25345
14:35:19.467608,-1
14:35:19.467608,-128
14:35:19.467608,30463
14:35:19.467608,-1
14:35:19.467608,-97
14:35:19.467608,-22273
14:35:19.467608,-1
14:35:19.467608,-90
14:35:19.467608,-18689
14:35:19.467608,-1
14:35:19.467608,-62
14:35:20.052606,-54
14:35:20.052606,-9473
14:35:20.052606,-1
14:35:20.052606,-21
14:35:20.052606,-2049
14:35:20.052606,-1
14:35:20.052606,7
14:35:20.052606,7936
14:35:20.052606,0
14:35:20.052606,57
14:35:20.052606,22528
14:35:20.052606,0
14:35:20.052606,117
14:35:20.052606,-30208
14:35:20.052606,0
14:35:20.052606,145
14:35:20.052606,-27648
14:35:20.052606,0
14:35:20.052606,138
14:35:20.052606,28672
14:35:20.052606,0
14:35:20.052606,78
14:35:20.052606,11520
14:35:20.052606,0
14:35:20.052606,4
14:35:20.052606,-7936
14:35:20.052606,-1
14:35:20.052606,-47
14:35:20.052606,-11777
14:35:20.052606,-1
14:35:20.052606,-54
14:35:20.052606,-14849
14:35:20.052606,-1
14:35:20.052606,-54
14:35:20.052606,-13057
14:35:20.052606,-1
14:35:20.052606,-47
14:35:20.052606,-9985
14:35:20.052606,-1
14:35:20.052606,-35
14:35:20.052606,-8193
14:35:20.052606,-1
14:35:20.052606,-26
14:35:20.052606,-3329
14:35:20.052606,-1
14:35:20.052606,0
14:35:20.052606,1792
14:35:20.052606,0
14:35:20.052606,9
14:35:20.052606,2816
14:35:20.052606,0
14:35:20.052606,19
14:35:20.052606,7168
14:35:20.052606,0
14:35:20.052606,28
14:35:20.052606,6656
14:35:20.052606,0
14:35:20.052606,28
14:35:20.052606,7168
14:35:20.052606,0
14:35:20.052606,28
14:35:20.052606,7936
14:35:20.052606,0
14:35:20.052606,28
14:35:20.052606,7936
14:35:20.052606,0
14:35:20.052606,31
14:35:20.052606,7168
14:35:20.052606,0
14:35:20.052606,23
14:35:20.052606,6656
14:35:20.052606,0
14:35:20.052606,26
14:35:20.052606,5376
14:35:20.052606,0
14:35:20.052606,26
14:35:20.052606,8960
14:35:20.052606,0
14:35:20.052606,28
14:35:20.052606,5376
14:35:20.052606,0
14:35:20.052606,19
14:35:20.052606,2304
14:35:20.052606,0
14:35:20.052606,4
14:35:20.052606,4096
14:35:20.052606,0
14:35:20.052606,38
14:35:20.052606,13312
14:35:20.052606,0
14:35:20.052606,54
14:35:20.052606,13312
14:35:20.052606,0
14:35:20.052606,47
14:35:20.052606,10240
14:35:20.052606,0
14:35:20.052606,33
14:35:20.052606,8448
14:35:20.052606,0
14:35:20.052606,35
14:35:20.052606,8448
14:35:20.052606,0
14:35:20.052606,33
14:35:20.052606,8448
14:35:20.052606,0
14:35:20.052606,0
14:35:20.052606,15872
14:35:20.052606,0
14:35:20.052606,429
14:35:20.637613,1089
14:35:20.637613,-28416
14:35:20.637613,6
14:35:20.637613,1468
14:35:20.637613,-23552
14:35:20.637613,1
14:35:20.637613,-212
14:35:20.637613,-14849
14:35:20.637613,-1
14:35:20.637613,-40
14:35:20.637613,8447
14:35:20.637613,-1
14:35:20.637613,-183
14:35:20.637613,-30209
14:35:20.637613,-1
14:35:20.637613,-150
14:35:20.637613,32255
14:35:20.637613,-1
14:35:20.637613,-95
14:35:20.637613,-26625
14:35:20.637613,-1
14:35:20.637613,-100
14:35:20.637613,-20481
14:35:20.637613,-1
14:35:20.637613,-74
14:35:20.637613,-16641
14:35:20.637613,-1
14:35:20.637613,-54
14:35:20.637613,-9473
14:35:20.637613,-1
14:35:20.637613,-21
14:35:20.637613,-1537
14:35:20.637613,-1
14:35:20.637613,9
14:35:20.637613,7936
14:35:20.637613,0
14:35:20.637613,52
14:35:20.637613,18176
14:35:20.637613,0
14:35:20.637613,90
14:35:20.637613,25600
14:35:20.637613,0
14:35:20.637613,97
14:35:20.637613,23040
14:35:20.637613,0
14:35:20.637613,69
14:35:20.637613,7936
14:35:20.637613,0
14:35:20.637613,-4
14:35:20.637613,-9473
14:35:20.637613,-1
14:35:20.637613,-64
14:35:20.637613,-19201
14:35:20.637613,-1
14:35:20.637613,-81
14:35:20.637613,-21505
14:35:20.637613,-1
14:35:20.637613,-83
14:35:20.637613,-20481
14:35:20.637613,-1
14:35:20.637613,-81
14:35:20.637613,-19201
14:35:20.637613,-1
14:35:20.637613,-66
14:35:20.637613,-14337
14:35:20.637613,-1
14:35:20.637613,-54
14:35:20.637613,-11777
14:35:20.637613,-1
14:35:20.637613,-33
14:35:20.637613,-6913
14:35:20.637613,-1
14:35:20.637613,-28
14:35:20.637613,-5633
14:35:20.637613,-1
14:35:20.637613,-19
14:35:20.637613,-3329
14:35:20.637613,-1
14:35:20.637613,-11
14:35:20.637613,-1537
14:35:20.637613,-1
14:35:20.637613,0
14:35:20.637613,0
14:35:20.637613,0
14:35:20.637613,-4
14:35:20.637613,-769
14:35:20.637613,-1
14:35:20.637613,2
14:35:20.637613,0
14:35:20.637613,0
14:35:20.637613,-4
14:35:20.637613,255
14:35:20.637613,0
14:35:20.637613,2
14:35:20.637613,0
14:35:20.637613,0
14:35:20.637613,2
14:35:20.637613,1792
14:35:20.637613,0
14:35:20.637613,9
14:35:20.637613,2816
14:35:20.637613,0
14:35:20.637613,14
14:35:20.637613,4096
14:35:20.637613,0
14:35:20.637613,16
14:35:20.637613,2304
14:35:20.637613,0
14:35:20.637613,0
14:35:21.132606,-9
14:35:21.132606,-1537
14:35:21.132606,-1
14:35:21.132606,2
14:35:21.132606,5376
14:35:21.132606,0
14:35:21.132606,35
14:35:21.132606,9728
14:35:21.132606,0
14:35:21.132606,42
14:35:21.132606,10752
14:35:21.132606,0
14:35:21.132606,31
14:35:21.132606,5376
14:35:21.132606,0
14:35:21.132606,23
14:35:21.132606,7168
14:35:21.132606,0
14:35:21.132606,31
14:35:21.132606,10240
14:35:21.132606,0
14:35:21.132606,50
14:35:21.132606,5888
14:35:21.132606,0
14:35:21.132606,45
14:35:21.132606,15104
14:35:21.132606,1
14:35:21.132606,929
14:35:21.132606,-31488
14:35:21.132606,6
14:35:21.132606,1750
14:35:21.132606,256
14:35:21.132606,3
14:35:21.132606,-148
14:35:21.132606,30975
14:35:21.132606,-1
14:35:21.132606,-11
14:35:21.132606,16895
14:35:21.132606,-1
14:35:21.132606,-207
14:35:21.132606,-31489
14:35:21.132606,-1
14:35:21.132606,-152
14:35:21.132606,23807
14:35:21.132606,-1
14:35:21.132606,-124
14:35:21.132606,-29697
14:35:21.132606,-1
14:35:21.132606,-119
14:35:21.132606,-25857
14:35:21.132606,-1
14:35:21.132606,-93
14:35:21.132606,-20993
14:35:21.132606,-1
14:35:21.132606,-69
14:35:21.132606,-14337
14:35:21.132606,-1
14:35:21.132606,-45
14:35:21.132606,-5633
14:35:21.132606,-1
14:35:21.132606,-4
14:35:21.132606,2047
14:35:21.132606,0
14:35:21.132606,31
14:35:21.132606,15104
14:35:21.132606,0
14:35:21.132606,76
14:35:21.132606,21760
14:35:21.132606,0
14:35:21.132606,93
14:35:21.132606,22528
14:35:21.132606,0
14:35:21.132606,71
14:35:21.132606,10752
14:35:21.132606,0
14:35:21.132606,4
14:35:21.132606,-6656
14:35:21.132606,-1
14:35:21.132606,-52
14:35:21.132606,-17409
14:35:21.132606,-1
14:35:21.132606,-78
14:35:21.132606,-20481
14:35:21.132606,-1
14:35:21.132606,-76
14:35:21.132606,-18689
14:35:21.132606,-1
14:35:21.132606,-71
14:35:21.132606,-16641
14:35:21.132606,-1
14:35:21.132606,-62
14:35:21.132606,-14337
14:35:21.132606,-1
14:35:21.132606,-52
14:35:21.132606,-12545
14:35:21.132606,-1
14:35:21.132606,-42
14:35:21.132606,-8705
14:35:21.132606,-1
14:35:21.132606,-33
14:35:21.132606,-7681
14:35:21.132606,-1
14:35:21.132606,-23
14:35:21.132606,-4609
14:35:21.132606,-1
14:35:21.132606,-19
14:35:21.132606,-2561
14:35:21.132606,-1
14:35:21.132606,-4
14:35:21.763608,-4
14:35:21.763608,-257
14:35:21.763608,-1
14:35:21.763608,0
14:35:21.763608,0
14:35:21.763608,0
14:35:21.763608,4
14:35:21.763608,4864
14:35:21.763608,0
14:35:21.763608,23
14:35:21.763608,4864
14:35:21.763608,0
14:35:21.763608,21
14:35:21.763608,5376
14:35:21.763608,0
14:35:21.763608,23
14:35:21.763608,7936
14:35:21.763608,0
14:35:21.763608,26
14:35:21.763608,4864
14:35:21.763608,0
14:35:21.763608,21
14:35:21.763608,5888
14:35:21.763608,0
14:35:21.763608,21
14:35:21.763608,5888
14:35:21.763608,0
14:35:21.763608,26
14:35:21.763608,5376
14:35:21.763608,0
14:35:21.763608,11
14:35:21.763608,1024
14:35:21.763608,0
14:35:21.763608,2
14:35:21.763608,2304
14:35:21.763608,0
14:35:21.763608,31
14:35:21.763608,12032
14:35:21.763608,0
14:35:21.763608,52
14:35:21.763608,13312
14:35:21.763608,0
14:35:21.763608,52
14:35:21.763608,13312
14:35:21.763608,0
14:35:21.763608,45
14:35:21.763608,12032
14:35:21.763608,0
14:35:21.763608,57
14:35:21.763608,13824
14:35:21.763608,0
14:35:21.763608,50
14:35:21.763608,12800
14:35:21.763608,0
14:35:21.763608,26
14:35:21.763608,7168
14:35:21.763608,0
14:35:21.763608,246
14:35:21.763608,10496
14:35:21.763608,3
14:35:21.763608,1569
14:35:21.763608,7168
14:35:21.763608,7
14:35:21.763608,974
14:35:21.763608,-14592
14:35:21.763608,-1
14:35:21.763608,-169
14:35:21.763608,767
14:35:21.763608,0
14:35:21.763608,-162
14:35:21.763608,7935
14:35:21.763608,-1
14:35:21.763608,-131
14:35:21.763608,29183
14:35:21.763608,-1
14:35:21.763608,-167
14:35:21.763608,-32513
14:35:21.763608,-1
14:35:21.763608,-117
14:35:21.763608,-30721
14:35:21.763608,-1
14:35:21.763608,-105
14:35:21.763608,-23553
14:35:21.763608,-1
14:35:21.763608,-90
14:35:21.763608,-19201
14:35:21.763608,-1
14:35:21.763608,-59
14:35:21.763608,-12545
14:35:21.763608,-1
14:35:21.763608,-35
14:35:21.763608,-3841
14:35:21.763608,-1
14:35:21.763608,0
14:35:21.763608,5888
14:35:21.763608,0
14:35:21.763608,47
14:35:21.763608,16896
14:35:21.763608,0
14:35:21.763608,81
14:35:21.763608,22528
14:35:21.763608,0
14:35:21.763608,81
14:35:21.763608,17664
14:35:21.763608,0
14:35:21.763608,45
14:35:21.763608,2304
14:35:21.763608,0
14:35:21.763608,-28
14:35:22.302590,-59
14:35:22.302590,-18689
14:35:22.302590,-1
14:35:22.302590,-83
14:35:22.302590,-22273
14:35:22.302590,-1
14:35:22.302590,-90
14:35:22.302590,-22273
14:35:22.302590,-1
14:35:22.302590,-81
14:35:22.302590,-19201
14:35:22.302590,-1
14:35:22.302590,-76
14:35:22.302590,-17409
14:35:22.302590,-1
14:35:22.302590,-59
14:35:22.302590,-14849
14:35:22.302590,-1
14:35:22.302590,-54
14:35:22.302590,-9473
14:35:22.302590,-1
14:35:22.302590,-16
14:35:22.302590,-2561
14:35:22.302590,-1
14:35:22.302590,-19
14:35:22.302590,-3329
14:35:22.302590,-1
14:35:22.302590,-7
14:35:22.302590,-1537
14:35:22.302590,-1
14:35:22.302590,-2
14:35:22.302590,1279
14:35:22.302590,0
14:35:22.302590,9
14:35:22.302590,2304
14:35:22.302590,0
14:35:22.302590,9
14:35:22.302590,3584
14:35:22.302590,0
14:35:22.302590,19
14:35:22.302590,4864
14:35:22.302590,0
14:35:22.302590,11
14:35:22.302590,2816
14:35:22.302590,0
14:35:22.302590,14
14:35:22.302590,4096
14:35:22.302590,0
14:35:22.302590,21
14:35:22.302590,5888
14:35:22.302590,0
14:35:22.302590,21
14:35:22.302590,5376
14:35:22.302590,0
14:35:22.302590,21
14:35:22.302590,5376
14:35:22.302590,0
14:35:22.302590,23
14:35:22.302590,5888
14:35:22.302590,0
14:35:22.302590,19
14:35:22.302590,4864
14:35:22.302590,0
14:35:22.302590,21
14:35:22.302590,5376
14:35:22.302590,0
14:35:22.302590,21
14:35:22.302590,5376
14:35:22.302590,0
14:35:22.302590,21
14:35:22.302590,4864
14:35:22.302590,0
14:35:22.302590,23
14:35:22.302590,7168
14:35:22.302590,0
14:35:22.302590,26
14:35:22.302590,4864
14:35:22.302590,0
14:35:22.302590,16
14:35:22.302590,4864
14:35:22.302590,0
14:35:22.302590,21
14:35:22.302590,4096
14:35:22.302590,0
14:35:22.302590,14
14:35:22.302590,6656
14:35:22.302590,0
14:35:22.302590,47
14:35:22.302590,14592
14:35:22.302590,0
14:35:22.302590,59
14:35:22.302590,16384
14:35:22.302590,0
14:35:22.302590,59
14:35:22.302590,10752
14:35:22.302590,0
14:35:22.302590,38
14:35:22.302590,11520
14:35:22.302590,0
14:35:22.302590,52
14:35:22.302590,13312
14:35:22.302590,0
14:35:22.302590,50
14:35:22.302590,10240
14:35:22.302590,0
14:35:22.302590,7
14:35:22.302590,12032
14:35:22.302590,0
14:35:22.302590,360
14:35:22.842602,1007
14:35:22.842602,-24832
14:35:22.842602,6
14:35:22.842602,1655
14:35:22.842602,29696
14:35:22.842602,2
14:35:22.842602,-188
14:35:22.842602,-25857
14:35:22.842602,-1
14:35:22.842602,-14
14:35:22.842602,13311
14:35:22.842602,-1
14:35:22.842602,-195
14:35:22.842602,-29697
14:35:22.842602,-1
14:35:22.842602,-152
14:35:22.842602,29183
14:35:22.842602,-1
14:35:22.842602,-90
14:35:22.842602,-22785
14:35:22.842602,-1
14:35:22.842602,-90
14:35:22.842602,-17409
14:35:22.842602,-1
14:35:22.842602,-59
14:35:22.842602,-14337
14:35:22.842602,-1
14:35:22.842602,-40
14:35:22.842602,-6913
14:35:22.842602,-1
14:35:22.842602,-21
14:35:22.842602,-1537
14:35:22.842602,-1
14:35:22.842602,14
14:35:22.842602,8960
14:35:22.842602,0
14:35:22.842602,57
14:35:22.842602,19456
14:35:22.842602,0
14:35:22.842602,97
14:35:22.842602,28672
14:35:22.842602,0
14:35:22.842602,114
14:35:22.842602,27392
14:35:22.842602,0
14:35:22.842602,93
14:35:22.842602,16384
14:35:22.842602,0
14:35:22.842602,28
14:35:22.842602,-3584
14:35:22.842602,-1
14:35:22.842602,-45
14:35:22.842602,-13569
14:35:22.842602,-1
14:35:22.842602,-66
14:35:22.842602,-19713
14:35:22.842602,-1
14:35:22.842602,-83
14:35:22.842602,-19713
14:35:22.842602,-1
14:35:22.842602,-71
14:35:22.842602,-18689
14:35:22.842602,-1
14:35:22.842602,-76
14:35:22.842602,-16129
14:35:22.842602,-1
14:35:22.842602,-50
14:35:22.842602,-11777
14:35:22.842602,-1
14:35:22.842602,-50
14:35:22.842602,-9985
14:35:22.842602,-1
14:35:22.842602,-33
14:35:22.842602,-9473
14:35:22.842602,-1
14:35:22.842602,-33
14:35:22.842602,-5633
14:35:22.842602,-1
14:35:22.842602,-21
14:35:22.842602,-3329
14:35:22.842602,-1
14:35:22.842602,-11
14:35:22.842602,-2561
14:35:22.842602,-1
14:35:22.842602,-9
14:35:22.842602,-1537
14:35:22.842602,-1
14:35:22.842602,-2
14:35:22.842602,767
14:35:22.842602,0
14:35:22.842602,0
14:35:22.842602,-512
14:35:22.842602,-1
14:35:22.842602,-4
14:35:22.842602,-769
14:35:22.842602,-1
14:35:22.842602,-2
14:35:22.842602,255
14:35:22.842602,0
14:35:22.842602,2
14:35:22.842602,-512
14:35:22.842602,-1
14:35:22.842602,-2
14:35:22.842602,1279
14:35:22.842602,0
14:35:22.842602,9
14:35:22.842602,1792
14:35:22.842602,0
14:35:22.842602,4
14:35:23.382593,7
14:35:23.382593,3584
14:35:23.382593,0
14:35:23.382593,16
14:35:23.382593,4864
14:35:23.382593,0
14:35:23.382593,19
14:35:23.382593,5376
14:35:23.382593,0
14:35:23.382593,28
14:35:23.382593,8960
14:35:23.382593,0
14:35:23.382593,50
14:35:23.382593,15104
14:35:23.382593,0
14:35:23.382593,52
14:35:23.382593,11520
14:35:23.382593,0
14:35:23.382593,47
14:35:23.382593,12800
14:35:23.382593,0
14:35:23.382593,54
14:35:23.382593,12800
14:35:23.382593,0
14:35:23.382593,38
14:35:23.382593,8448
14:35:23.382593,0
14:35:23.382593,31
14:35:23.382593,5888
14:35:23.382593,0
14:35:23.382593,11
14:35:23.382593,5376
14:35:23.382593,0
14:35:23.382593,42
14:35:23.382593,13312
14:35:23.382593,0
14:35:23.382593,57
14:35:23.382593,15104
14:35:23.382593,0
14:35:23.382593,54
14:35:23.382593,10752
14:35:23.382593,0
14:35:23.382593,35
14:35:23.382593,10240
14:35:23.382593,0
14:35:23.382593,42
14:35:23.382593,10240
14:35:23.382593,0
14:35:23.382593,42
14:35:23.382593,9728
14:35:23.382593,0
14:35:23.382593,9
14:35:23.382593,1792
14:35:23.382593,0
14:35:23.382593,203
14:35:23.382593,-4864
14:35:23.382593,2
14:35:23.382593,1535
14:35:23.382593,24064
14:35:23.382593,7
14:35:23.382593,1105
14:35:23.382593,-1024
14:35:23.382593,-1
14:35:23.382593,-207
14:35:23.382593,-2561
14:35:23.382593,-1
14:35:23.382593,-152
14:35:23.382593,4863
14:35:23.382593,-1
14:35:23.382593,-148
14:35:23.382593,26879
14:35:23.382593,-1
14:35:23.382593,-181
14:35:23.382593,28671
14:35:23.382593,-1
14:35:23.382593,-128
14:35:23.382593,30463
14:35:23.382593,-1
14:35:23.382593,-124
14:35:23.382593,-25857
14:35:23.382593,-1
14:35:23.382593,-95
14:35:23.382593,-21505
14:35:23.382593,-1
14:35:23.382593,-74
14:35:23.382593,-16129
14:35:23.382593,-1
14:35:23.382593,-54
14:35:23.382593,-8705
14:35:23.382593,-1
14:35:23.382593,-14
14:35:23.382593,2047
14:35:23.382593,0
14:35:23.382593,33
14:35:23.382593,14592
14:35:23.382593,0
14:35:23.382593,76
14:35:23.382593,21760
14:35:23.382593,0
14:35:23.382593,88
14:35:23.382593,20736
14:35:23.382593,0
14:35:23.382593,59
14:35:23.382593,6656
14:35:23.382593,0
14:35:23.382593,-11
14:35:23.382593,-11265
14:35:23.382593,-1
14:35:23.382593,-69
14:35:23.967588,-78
14:35:23.967588,-20993
14:35:23.967588,-1
14:35:23.967588,-88
14:35:23.967588,-22273
14:35:23.967588,-1
14:35:23.967588,-83
14:35:23.967588,-17409
14:35:23.967588,-1
14:35:23.967588,-47
14:35:23.967588,-10497
14:35:23.967588,-1
14:35:23.967588,-45
14:35:23.967588,-10497
14:35:23.967588,-1
14:35:23.967588,-40
14:35:23.967588,-8193
14:35:23.967588,-1
14:35:23.967588,-26
14:35:23.967588,-6401
14:35:23.967588,-1
14:35:23.967588,-26
14:35:23.967588,-6401
14:35:23.967588,-1
14:35:23.967588,-21
14:35:23.967588,-2049
14:35:23.967588,-1
14:35:23.967588,0
14:35:23.967588,512
14:35:23.967588,0
14:35:23.967588,2
14:35:23.967588,2304
14:35:23.967588,0
14:35:23.967588,16
14:35:23.967588,4096
14:35:23.967588,0
14:35:23.967588,16
14:35:23.967588,2816
14:35:23.967588,0
14:35:23.967588,11
14:35:23.967588,4864
14:35:23.967588,0
14:35:23.967588,21
14:35:23.967588,4864
14:35:23.967588,0
14:35:23.967588,21
14:35:23.967588,6656
14:35:23.967588,0
14:35:23.967588,23
14:35:23.967588,5376
14:35:23.967588,0
14:35:23.967588,23
14:35:23.967588,6656
14:35:23.967588,0
14:35:23.967588,23
14:35:23.967588,5376
14:35:23.967588,0
14:35:23.967588,21
14:35:23.967588,5888
14:35:23.967588,0
14:35:23.967588,26
14:35:23.967588,6656
14:35:23.967588,0
14:35:23.967588,26
14:35:23.967588,6656
14:35:23.967588,0
14:35:23.967588,23
14:35:23.967588,5888
14:35:23.967588,0
14:35:23.967588,26
14:35:23.967588,7936
14:35:23.967588,0
14:35:23.967588,31
14:35:23.967588,7168
14:35:23.967588,0
14:35:23.967588,26
14:35:23.967588,5888
14:35:23.967588,0
14:35:23.967588,26
14:35:23.967588,7168
14:35:23.967588,0
14:35:23.967588,33
14:35:23.967588,7936
14:35:23.967588,0
14:35:23.967588,26
14:35:23.967588,5376
14:35:23.967588,0
14:35:23.967588,19
14:35:23.967588,4096
14:35:23.967588,0
14:35:23.967588,14
14:35:23.967588,2304
14:35:23.967588,0
14:35:23.967588,14
14:35:23.967588,8960
14:35:23.967588,0
14:35:23.967588,57
14:35:23.967588,15872
14:35:23.967588,0
14:35:23.967588,64
14:35:23.967588,14592
14:35:23.967588,0
14:35:23.967588,40
14:35:23.967588,8960
14:35:23.967588,0
14:35:23.967588,45
14:35:23.967588,12800
14:35:23.967588,0
14:35:23.967588,45
14:35:24.507606,40
14:35:24.507606,6656
14:35:24.507606,0
14:35:24.507606,0
14:35:24.507606,25600
14:35:24.507606,0
14:35:24.507606,518
14:35:24.507606,-6144
14:35:24.507606,4
14:35:24.507606,1874
14:35:24.507606,-768
14:35:24.507606,5
14:35:24.507606,374
14:35:24.507606,10752
14:35:24.507606,-1
14:35:24.507606,-31
14:35:24.507606,-12545
14:35:24.507606,-1
14:35:24.507606,-229
14:35:24.507606,24319
14:35:24.507606,-1
14:35:24.507606,-107
14:35:24.507606,26111
14:35:24.507606,-1
14:35:24.507606,-138
14:35:24.507606,-25857
14:35:24.507606,-1
14:35:24.507606,-107
14:35:24.507606,-24065
14:35:24.507606,-1
14:35:24.507606,-74
14:35:24.507606,-16641
14:35:24.507606,-1
14:35:24.507606,-59
14:35:24.507606,-11265
14:35:24.507606,-1
14:35:24.507606,-40
14:35:24.507606,-7681
14:35:24.507606,-1
14:35:24.507606,-2
14:35:24.507606,5119
14:35:24.507606,0
14:35:24.507606,31
14:35:24.507606,13824
14:35:24.507606,0
14:35:24.507606,88
14:35:24.507606,29184
14:35:24.507606,0
14:35:24.507606,131
14:35:24.507606,-30720
14:35:24.507606,0
14:35:24.507606,131
14:35:24.507606,29184
14:35:24.507606,0
14:35:24.507606,76
14:35:24.507606,8448
14:35:24.507606,0
14:35:24.507606,4
14:35:24.507606,-5376
14:35:24.507606,-1
14:35:24.507606,-45
14:35:24.507606,-14849
14:35:24.507606,-1
14:35:24.507606,-66
14:35:24.507606,-16641
14:35:24.507606,-1
14:35:24.507606,-66
14:35:24.507606,-15617
14:35:24.507606,-1
14:35:24.507606,-50
14:35:24.507606,-11265
14:35:24.507606,-1
14:35:24.507606,-54
14:35:24.507606,-13057
14:35:24.507606,-1
14:35:24.507606,-38
14:35:24.507606,-7681
14:35:24.507606,-1
14:35:24.507606,-31
14:35:24.507606,-6913
14:35:24.507606,-1
14:35:24.507606,-23
14:35:24.507606,-2561
14:35:24.507606,-1
14:35:24.507606,-2
14:35:24.507606,1279
14:35:24.507606,0
14:35:24.507606,14
14:35:24.507606,4096
14:35:24.507606,0
14:35:24.507606,21
14:35:24.507606,7168
14:35:24.507606,0
14:35:24.507606,33
14:35:24.507606,8448
14:35:24.507606,0
14:35:24.507606,26
14:35:24.507606,5376
14:35:24.507606,0
14:35:24.507606,26
14:35:24.507606,7936
14:35:24.507606,0
14:35:24.507606,31
14:35:24.507606,8448
14:35:24.507606,0
14:35:24.507606,26
14:35:24.507606,5888
14:35:24.507606,0
14:35:24.507606,31
14:35:25.092602,23
14:35:25.092602,4864
14:35:25.092602,0
14:35:25.092602,26
14:35:25.092602,7936
14:35:25.092602,0
14:35:25.092602,26
14:35:25.092602,7168
14:35:25.092602,0
14:35:25.092602,40
14:35:25.092602,12800
14:35:25.092602,0
14:35:25.092602,47
14:35:25.092602,12032
14:35:25.092602,0
14:35:25.092602,50
14:35:25.092602,12032
14:35:25.092602,0
14:35:25.092602,40
14:35:25.092602,8448
14:35:25.092602,0
14:35:25.092602,23
14:35:25.092602,4096
14:35:25.092602,0
14:35:25.092602,16
14:35:25.092602,7168
14:35:25.092602,0
14:35:25.092602,45
14:35:25.092602,14592
14:35:25.092602,0
14:35:25.092602,64
14:35:25.092602,15104
14:35:25.092602,0
14:35:25.092602,47
14:35:25.092602,9728
14:35:25.092602,0
14:35:25.092602,38
14:35:25.092602,10240
14:35:25.092602,0
14:35:25.092602,45
14:35:25.092602,12032
14:35:25.092602,0
14:35:25.092602,40
14:35:25.092602,5888
14:35:25.092602,0
14:35:25.092602,2
14:35:25.092602,31744
14:35:25.092602,0
14:35:25.092602,578
14:35:25.092602,11520
14:35:25.092602,5
14:35:25.092602,1853
14:35:25.092602,23296
14:35:25.092602,5
14:35:25.092602,226
14:35:25.092602,6400
14:35:25.092602,-1
14:35:25.092602,-33
14:35:25.092602,-23553
14:35:25.092602,-1
14:35:25.092602,-243
14:35:25.092602,23807
14:35:25.092602,-1
14:35:25.092602,-126
14:35:25.092602,21247
14:35:25.092602,-1
14:35:25.092602,-150
14:35:25.092602,-28417
14:35:25.092602,-1
14:35:25.092602,-119
14:35:25.092602,-30209
14:35:25.092602,-1
14:35:25.092602,-97
14:35:25.092602,-22273
14:35:25.092602,-1
14:35:25.092602,-81
14:35:25.092602,-16641
14:35:25.092602,-1
14:35:25.092602,-47
14:35:25.092602,-6913
14:35:25.092602,-1
14:35:25.092602,-14
14:35:25.092602,767
14:35:25.092602,0
14:35:25.092602,33
14:35:25.092602,15872
14:35:25.092602,0
14:35:25.092602,85
14:35:25.092602,27904
14:35:25.092602,0
14:35:25.092602,128
14:35:25.092602,-31488
14:35:25.092602,0
14:35:25.092602,131
14:35:25.092602,27392
14:35:25.092602,0
14:35:25.092602,62
14:35:25.092602,4864
14:35:25.092602,0
14:35:25.092602,-26
14:35:25.092602,-16129
14:35:25.092602,-1
14:35:25.092602,-81
14:35:25.092602,-20993
14:35:25.092602,-1
14:35:25.092602,-88
14:35:25.092602,-22273
14:35:25.092602,-1
14:35:25.092602,-83
14:35:25.677502,-78
14:35:25.677502,-18689
14:35:25.677502,-1
14:35:25.677502,-64
14:35:25.677502,-15617
14:35:25.677502,-1
14:35:25.677502,-64
14:35:25.677502,-14849
14:35:25.677502,-1
14:35:25.677502,-54
14:35:25.677502,-13569
14:35:25.677502,-1
14:35:25.677502,-38
14:35:25.677502,-4609
14:35:25.677502,-1
14:35:25.677502,-2
14:35:25.677502,255
14:35:25.677502,0
14:35:25.677502,0
14:35:25.677502,1792
14:35:25.677502,0
14:35:25.677502,14
14:35:25.677502,3584
14:35:25.677502,0
14:35:25.677502,19
14:35:25.677502,5888
14:35:25.677502,0
14:35:25.677502,19
14:35:25.677502,2304
14:35:25.677502,0
14:35:25.677502,16
14:35:25.677502,6656
14:35:25.677502,0
14:35:25.677502,14
14:35:25.677502,1024
14:35:25.677502,0
14:35:25.677502,11
14:35:25.677502,4096
14:35:25.677502,0
14:35:25.677502,16
14:35:25.677502,4096
14:35:25.677502,0
14:35:25.677502,16
14:35:25.677502,3584
14:35:25.677502,0
14:35:25.677502,11
14:35:25.677502,4096
14:35:25.677502,0
14:35:25.677502,19
14:35:25.677502,4096
14:35:25.677502,0
14:35:25.677502,19
14:35:25.677502,4096
14:35:25.677502,0
14:35:25.677502,11
14:35:25.677502,3584
14:35:25.677502,0
14:35:25.677502,21
14:35:25.677502,4096
14:35:25.677502,0
14:35:25.677502,4
14:35:25.677502,0
14:35:25.677502,0
14:35:25.677502,-4
14:35:25.677502,-769
14:35:25.677502,-1
14:35:25.677502,7
14:35:25.677502,6656
14:35:25.677502,0
14:35:25.677502,35
14:35:25.677502,10752
14:35:25.677502,0
14:35:25.677502,45
14:35:25.677502,9728
14:35:25.677502,0
14:35:25.677502,28
14:35:25.677502,5376
14:35:25.677502,0
14:35:25.677502,26
14:35:25.677502,7168
14:35:25.677502,0
14:35:25.677502,26
14:35:25.677502,7168
14:35:25.677502,0
14:35:25.677502,19
14:35:25.677502,-3584
14:35:25.677502,-1
14:35:25.677502,52
14:35:25.677502,-25344
14:35:25.677502,1
14:35:25.677502,1134
14:35:25.677502,11264
14:35:25.677502,7
14:35:25.677502,1643
14:35:25.677502,-4608
14:35:25.677502,1
14:35:25.677502,-243
14:35:25.677502,-25345
14:35:25.677502,-1
14:35:25.677502,-54
14:35:25.677502,4095
14:35:25.677502,-1
14:35:25.677502,-203
14:35:25.677502,32255
14:35:25.677502,-1
14:35:25.677502,-174
14:35:25.677502,21247
14:35:25.677502,-1
14:35:25.677502,-143
14:35:26.218016,-140
14:35:26.218016,-32001
14:35:26.218016,-1
14:35:26.218016,-105
14:35:26.218016,-25857
14:35:26.218016,-1
14:35:26.218016,-100
14:35:26.218016,-22273
14:35:26.218016,-1
14:35:26.218016,-71
14:35:26.218016,-14337
14:35:26.218016,-1
14:35:26.218016,-45
14:35:26.218016,-6913
14:35:26.218016,-1
14:35:26.218016,-9
14:35:26.218016,5119
14:35:26.218016,0
14:35:26.218016,64
14:35:26.218016,27904
14:35:26.218016,0
14:35:26.218016,126
14:35:26.218016,31744
14:35:26.218016,0
14:35:26.218016,124
14:35:26.218016,27904
14:35:26.218016,0
14:35:26.218016,74
14:35:26.218016,8448
14:35:26.218016,0
14:35:26.218016,-7
14:35:26.218016,-10497
14:35:26.218016,-1
14:35:26.218016,-62
14:35:26.218016,-16641
14:35:26.218016,-1
14:35:26.218016,-71
14:35:26.218016,-18689
14:35:26.218016,-1
14:35:26.218016,-71
14:35:26.218016,-17409
14:35:26.218016,-1
14:35:26.218016,-64
14:35:26.218016,-14337
14:35:26.218016,-1
14:35:26.218016,-52
14:35:26.218016,-13057
14:35:26.218016,-1
14:35:26.218016,-50
14:35:26.218016,-12545
14:35:26.218016,-1
14:35:26.218016,-42
14:35:26.218016,-8193
14:35:26.218016,-1
14:35:26.218016,-28
14:35:26.218016,-5121
14:35:26.218016,-1
14:35:26.218016,-9
14:35:26.218016,-2049
14:35:26.218016,-1
14:35:26.218016,-16
14:35:26.218016,-1537
14:35:26.218016,-1
14:35:26.218016,7
14:35:26.218016,1792
14:35:26.218016,0
14:35:26.218016,4
14:35:26.218016,1792
14:35:26.218016,0
14:35:26.218016,4
14:35:26.218016,1792
14:35:26.218016,0
14:35:26.218016,9
14:35:26.218016,2816
14:35:26.218016,0
14:35:26.218016,9
14:35:26.218016,1792
14:35:26.218016,0
14:35:26.218016,9
14:35:26.218016,2816
14:35:26.218016,0
14:35:26.218016,14
14:35:26.218016,4096
14:35:26.218016,0
14:35:26.218016,16
14:35:26.218016,4864
14:35:26.218016,0
14:35:26.218016,21
14:35:26.218016,4864
14:35:26.218016,0
14:35:26.218016,21
14:35:26.218016,4864
14:35:26.218016,0
14:35:26.218016,16
14:35:26.218016,5376
14:35:26.218016,0
14:35:26.218016,21
14:35:26.218016,4096
14:35:26.218016,0
14:35:26.218016,16
14:35:26.218016,2816
14:35:26.218016,0
14:35:26.218016,2
14:35:26.218016,-512
14:35:26.218016,-1
14:35:26.218016,-2
14:35:26.218016,1279
14:35:26.218016,0
14:35:26.218016,19
14:35:26.757584,35
14:35:26.757584,9728
14:35:26.757584,0
14:35:26.757584,35
14:35:26.757584,10240
14:35:26.757584,0
14:35:26.757584,38
14:35:26.757584,6656
14:35:26.757584,0
14:35:26.757584,21
14:35:26.757584,6656
14:35:26.757584,0
14:35:26.757584,35
14:35:26.757584,11520
14:35:26.757584,0
14:35:26.757584,57
14:35:26.757584,9728
14:35:26.757584,0
14:35:26.757584,23
14:35:26.757584,-8192
14:35:26.757584,0
14:35:26.757584,790
14:35:26.757584,10752
14:35:26.757584,6
14:35:26.757584,1894
14:35:26.757584,12288
14:35:26.757584,4
14:35:26.757584,-14
14:35:26.757584,21247
14:35:26.757584,-1
14:35:26.757584,2
14:35:26.757584,26624
14:35:26.757584,-1
14:35:26.757584,-224
14:35:26.757584,-32513
14:35:26.757584,-1
14:35:26.757584,-140
14:35:26.757584,22527
14:35:26.757584,-1
14:35:26.757584,-126
14:35:26.757584,-28929
14:35:26.757584,-1
14:35:26.757584,-128
14:35:26.757584,-27649
14:35:26.757584,-1
14:35:26.757584,-85
14:35:26.757584,-19201
14:35:26.757584,-1
14:35:26.757584,-64
14:35:26.757584,-12545
14:35:26.757584,-1
14:35:26.757584,-42
14:35:26.757584,-6401
14:35:26.757584,-1
14:35:26.757584,-2
14:35:26.757584,3071
14:35:26.757584,0
14:35:26.757584,31
14:35:26.757584,16384
14:35:26.757584,0
14:35:26.757584,97
14:35:26.757584,30976
14:35:26.757584,0
14:35:26.757584,131
14:35:26.757584,31744
14:35:26.757584,0
14:35:26.757584,112
14:35:26.757584,21760
14:35:26.757584,0
14:35:26.757584,42
14:35:26.757584,-1024
14:35:26.757584,-1
14:35:26.757584,-45
14:35:26.757584,-17409
14:35:26.757584,-1
14:35:26.757584,-71
14:35:26.757584,-18689
14:35:26.757584,-1
14:35:26.757584,-85
14:35:26.757584,-22273
14:35:26.757584,-1
14:35:26.757584,-74
14:35:26.757584,-16129
14:35:26.757584,-1
14:35:26.757584,-69
14:35:26.757584,-16641
14:35:26.757584,-1
14:35:26.757584,-57
14:35:26.757584,-13057
14:35:26.757584,-1
14:35:26.757584,-52
14:35:26.757584,-11777
14:35:26.757584,-1
14:35:26.757584,-33
14:35:26.757584,-4609
14:35:26.757584,-1
14:35:26.757584,-21
14:35:26.757584,-5121
14:35:26.757584,-1
14:35:26.757584,-11
14:35:26.757584,-1537
14:35:26.757584,-1
14:35:26.757584,-7
14:35:26.757584,255
14:35:26.757584,0
14:35:26.757584,9
14:35:26.757584,4096
14:35:26.757584,0
14:35:26.757584,19
14:35:27.298605,16
14:35:27.298605,2816
14:35:27.298605,0
14:35:27.298605,14
14:35:27.298605,4096
14:35:27.298605,0
14:35:27.298605,14
14:35:27.298605,5376
14:35:27.298605,0
14:35:27.298605,28
14:35:27.298605,9728
14:35:27.298605,0
14:35:27.298605,45
14:35:27.298605,12800
14:35:27.298605,0
14:35:27.298605,50
14:35:27.298605,10752
14:35:27.298605,0
14:35:27.298605,35
14:35:27.298605,10240
14:35:27.298605,0
14:35:27.298605,42
14:35:27.298605,10240
14:35:27.298605,0
14:35:27.298605,35
14:35:27.298605,8448
14:35:27.298605,0
14:35:27.298605,23
14:35:27.298605,3584
14:35:27.298605,0
14:35:27.298605,14
14:35:27.298605,5888
14:35:27.298605,0
14:35:27.298605,35
14:35:27.298605,13824
14:35:27.298605,0
14:35:27.298605,64
14:35:27.298605,15872
14:35:27.298605,0
14:35:27.298605,59
14:35:27.298605,12032
14:35:27.298605,0
14:35:27.298605,33
14:35:27.298605,9728
14:35:27.298605,0
14:35:27.298605,45
14:35:27.298605,12032
14:35:27.298605,0
14:35:27.298605,38
14:35:27.298605,8448
14:35:27.298605,0
14:35:27.298605,16
14:35:27.298605,3584
14:35:27.298605,0
14:35:27.298605,226
14:35:27.298605,5632
14:35:27.298605,3
14:35:27.298605,1526
14:35:27.298605,-7680
14:35:27.298605,6
14:35:27.298605,936
14:35:27.298605,-18176
14:35:27.298605,-1
14:35:27.298605,-164
14:35:27.298605,1279
14:35:27.298605,0
14:35:27.298605,-167
14:35:27.298605,8447
14:35:27.298605,-1
14:35:27.298605,-126
14:35:27.298605,30463
14:35:27.298605,-1
14:35:27.298605,-164
14:35:27.298605,-32001
14:35:27.298605,-1
14:35:27.298605,-117
14:35:27.298605,-31489
14:35:27.298605,-1
14:35:27.298605,-107
14:35:27.298605,-22785
14:35:27.298605,-1
14:35:27.298605,-85
14:35:27.298605,-17409
14:35:27.298605,-1
14:35:27.298605,-54
14:35:27.298605,-11777
14:35:27.298605,-1
14:35:27.298605,-31
14:35:27.298605,-769
14:35:27.298605,-1
14:35:27.298605,14
14:35:27.298605,9728
14:35:27.298605,0
14:35:27.298605,69
14:35:27.298605,23808
14:35:27.298605,0
14:35:27.298605,117
14:35:27.298605,-30208
14:35:27.298605,0
14:35:27.298605,136
14:35:27.298605,29952
14:35:27.298605,0
14:35:27.298605,81
14:35:27.298605,7936
14:35:27.298605,0
14:35:27.298605,-11
14:35:27.298605,-9985
14:35:27.298605,-1
14:35:27.298605,-76
14:35:27.882823,-93
14:35:27.882823,-22785
14:35:27.882823,-1
14:35:27.882823,-93
14:35:27.882823,-23553
14:35:27.882823,-1
14:35:27.882823,-76
14:35:27.882823,-14337
14:35:27.882823,-1
14:35:27.882823,-57
14:35:27.882823,-15617
14:35:27.882823,-1
14:35:27.882823,-57
14:35:27.882823,-13057
14:35:27.882823,-1
14:35:27.882823,-47
14:35:27.882823,-11265
14:35:27.882823,-1
14:35:27.882823,-42
14:35:27.882823,-8705
14:35:27.882823,-1
14:35:27.882823,-26
14:35:27.882823,-3841
14:35:27.882823,-1
14:35:27.882823,-9
14:35:27.882823,-257
14:35:27.882823,-1
14:35:27.882823,7
14:35:27.882823,2304
14:35:27.882823,0
14:35:27.882823,9
14:35:27.882823,2816
14:35:27.882823,0
14:35:27.882823,11
14:35:27.882823,2304
14:35:27.882823,0
14:35:27.882823,9
14:35:27.882823,1792
14:35:27.882823,0
14:35:27.882823,14
14:35:27.882823,5888
14:35:27.882823,0
14:35:27.882823,21
14:35:27.882823,4096
14:35:27.882823,0
14:35:27.882823,23
14:35:27.882823,7936
14:35:27.882823,0
14:35:27.882823,19
14:35:27.882823,2304
14:35:27.882823,0
14:35:27.882823,19
14:35:27.882823,7168
14:35:27.882823,0
14:35:27.882823,28
14:35:27.882823,5888
14:35:27.882823,0
14:35:27.882823,23
14:35:27.882823,5888
14:35:27.882823,0
14:35:27.882823,21
14:35:27.882823,5888
14:35:27.882823,0
14:35:27.882823,23
14:35:27.882823,4864
14:35:27.882823,0
14:35:27.882823,14
14:35:27.882823,2304
14:35:27.882823,0
14:35:27.882823,0
14:35:27.882823,-1792
14:35:27.882823,-1
14:35:27.882823,4
14:35:27.882823,6656
14:35:27.882823,0
14:35:27.882823,38
14:35:27.882823,10240
14:35:27.882823,0
14:35:27.882823,40
14:35:27.882823,9728
14:35:27.882823,0
14:35:27.882823,28
14:35:27.882823,6656
14:35:27.882823,0
14:35:27.882823,28
14:35:27.882823,8448
14:35:27.882823,0
14:35:27.882823,33
14:35:27.882823,7936
14:35:27.882823,0
14:35:27.882823,19
14:35:27.882823,-1024
14:35:27.882823,-1
14:35:27.882823,50
14:35:27.882823,31488
14:35:27.882823,1
14:35:27.882823,1072
14:35:27.882823,3328
14:35:27.882823,7
14:35:27.882823,1703
14:35:27.882823,17408
14:35:27.882823,2
14:35:27.882823,-226
14:35:27.882823,-27137
14:35:27.882823,-1
14:35:27.882823,-31
14:35:27.882823,6655
14:35:27.882823,-1
14:35:27.882823,-212
14:35:28.512423,-131
14:35:28.512423,22527
14:35:28.512423,-1
14:35:28.512423,-171
14:35:28.512423,-32513
14:35:28.512423,-1
14:35:28.512423,-126
14:35:28.512423,-32513
14:35:28.512423,-1
14:35:28.512423,-114
14:35:28.512423,-25345
14:35:28.512423,-1
14:35:28.512423,-76
14:35:28.512423,-13057
14:35:28.512423,-1
14:35:28.512423,-42
14:35:28.512423,-8193
14:35:28.512423,-1
14:35:28.512423,-21
14:35:28.512423,-769
14:35:28.512423,-1
14:35:28.512423,16
14:35:28.512423,9728
14:35:28.512423,0
14:35:28.512423,59
14:35:28.512423,22528
14:35:28.512423,0
14:35:28.512423,109
14:35:28.512423,30464
14:35:28.512423,0
14:35:28.512423,121
14:35:28.512423,28672
14:35:28.512423,0
14:35:28.512423,78
14:35:28.512423,7936
14:35:28.512423,0
14:35:28.512423,-9
14:35:28.512423,-9473
14:35:28.512423,-1
14:35:28.512423,-57
14:35:28.512423,-19201
14:35:28.512423,-1
14:35:28.512423,-81
14:35:28.512423,-18689
14:35:28.512423,-1
14:35:28.512423,-74
14:35:28.512423,-18689
14:35:28.512423,-1
14:35:28.512423,-66
14:35:28.512423,-14849
14:35:28.512423,-1
14:35:28.512423,-64
14:35:28.512423,-14849
14:35:28.512423,-1
14:35:28.512423,-54
14:35:28.512423,-13057
14:35:28.512423,-1
14:35:28.512423,-50
14:35:28.512423,-11777
14:35:28.512423,-1
14:35:28.512423,-42
14:35:28.512423,-8705
14:35:28.512423,-1
14:35:28.512423,-33
14:35:28.512423,-8705
14:35:28.512423,-1
14:35:28.512423,-31
14:35:28.512423,-5633
14:35:28.512423,-1
14:35:28.512423,-16
14:35:28.512423,-3329
14:35:28.512423,-1
14:35:28.512423,-11
14:35:28.512423,-257
14:35:28.512423,-1
14:35:28.512423,0
14:35:28.512423,-1024
14:35:28.512423,-1
14:35:28.512423,-2
14:35:28.512423,1279
14:35:28.512423,0
14:35:28.512423,9
14:35:28.512423,3584
14:35:28.512423,0
14:35:28.512423,19
14:35:28.512423,4864
14:35:28.512423,0
14:35:28.512423,9
14:35:28.512423,2816
14:35:28.512423,0
14:35:28.512423,21
14:35:28.512423,6656
14:35:28.512423,0
14:35:28.512423,21
14:35:28.512423,5376
14:35:28.512423,0
14:35:28.512423,23
14:35:28.512423,5376
14:35:28.512423,0
14:35:28.512423,19
14:35:28.512423,5376
14:35:28.512423,0
14:35:28.512423,21
14:35:28.512423,6656
14:35:28.512423,0
14:35:28.512423,26
14:35:28.512423,5376
14:35:28.512423,0
14:35:28.512423,26
14:35:29.007405,28
14:35:29.007405,4096
14:35:29.007405,0
14:35:29.007405,9
14:35:29.007405,2816
14:35:29.007405,0
14:35:29.007405,7
14:35:29.007405,1024
14:35:29.007405,0
14:35:29.007405,16
14:35:29.007405,8960
14:35:29.007405,0
14:35:29.007405,45
14:35:29.007405,12032
14:35:29.007405,0
14:35:29.007405,50
14:35:29.007405,12032
14:35:29.007405,0
14:35:29.007405,38
14:35:29.007405,8448
14:35:29.007405,0
14:35:29.007405,35
14:35:29.007405,8960
14:35:29.007405,0
14:35:29.007405,45
14:35:29.007405,15104
14:35:29.007405,0
14:35:29.007405,42
14:35:29.007405,1024
14:35:29.007405,0
14:35:29.007405,107
14:35:29.007405,5120
14:35:29.007405,2
14:35:29.007405,1275
14:35:29.007405,20992
14:35:29.007405,7
14:35:29.007405,1473
14:35:29.007405,12032
14:35:29.007405,1
14:35:29.007405,-236
14:35:29.007405,-9473
14:35:29.007405,-1
14:35:29.007405,-59
14:35:29.007405,7935
14:35:29.007405,-1
14:35:29.007405,-167
14:35:29.007405,-32001
14:35:29.007405,-1
14:35:29.007405,-176
14:35:29.007405,24831
14:35:29.007405,-1
14:35:29.007405,-117
14:35:29.007405,-31489
14:35:29.007405,-1
14:35:29.007405,-124
14:35:29.007405,-24577
14:35:29.007405,-1
14:35:29.007405,-83
14:35:29.007405,-19713
14:35:29.007405,-1
14:35:29.007405,-66
14:35:29.007405,-13569
14:35:29.007405,-1
14:35:29.007405,-40
14:35:29.007405,-5121
14:35:29.007405,-1
14:35:29.007405,0
14:35:29.007405,5376
14:35:29.007405,0
14:35:29.007405,47
14:35:29.007405,18176
14:35:29.007405,0
14:35:29.007405,95
14:35:29.007405,28672
14:35:29.007405,0
14:35:29.007405,114
14:35:29.007405,26880
14:35:29.007405,0
14:35:29.007405,93
14:35:29.007405,14592
14:35:29.007405,0
14:35:29.007405,9
14:35:29.007405,-8448
14:35:29.007405,-1
14:35:29.007405,-66
14:35:29.007405,-19201
14:35:29.007405,-1
14:35:29.007405,-81
14:35:29.007405,-23553
14:35:29.007405,-1
14:35:29.007405,-93
14:35:29.007405,-22273
14:35:29.007405,-1
14:35:29.007405,-85
14:35:29.007405,-21505
14:35:29.007405,-1
14:35:29.007405,-83
14:35:29.007405,-19201
14:35:29.007405,-1
14:35:29.007405,-69
14:35:29.007405,-13569
14:35:29.007405,-1
14:35:29.007405,-45
14:35:29.007405,-11265
14:35:29.007405,-1
14:35:29.007405,-40
14:35:29.007405,-8705
14:35:29.007405,-1
14:35:29.007405,-38
14:35:29.593255,-31
14:35:29.593255,-3329
14:35:29.593255,-1
14:35:29.593255,-7
14:35:29.593255,-1537
14:35:29.593255,-1
14:35:29.593255,-4
14:35:29.593255,255
14:35:29.593255,0
14:35:29.593255,2
14:35:29.593255,2304
14:35:29.593255,0
14:35:29.593255,21
14:35:29.593255,7936
14:35:29.593255,0
14:35:29.593255,35
14:35:29.593255,7168
14:35:29.593255,0
14:35:29.593255,21
14:35:29.593255,7936
14:35:29.593255,0
14:35:29.593255,40
14:35:29.593255,8448
14:35:29.593255,0
14:35:29.593255,28
14:35:29.593255,6656
14:35:29.593255,0
14:35:29.593255,28
14:35:29.593255,7936
14:35:29.593255,0
14:35:29.593255,33
14:35:29.593255,7168
14:35:29.593255,0
14:35:29.593255,23
14:35:29.593255,5888
14:35:29.593255,0
14:35:29.593255,31
14:35:29.593255,8448
14:35:29.593255,0
14:35:29.593255,26
14:35:29.593255,5888
14:35:29.593255,0
14:35:29.593255,31
14:35:29.593255,7936
14:35:29.593255,0
14:35:29.593255,26
14:35:29.593255,5888
14:35:29.593255,0
14:35:29.593255,21
14:35:29.593255,3584
14:35:29.593255,0
14:35:29.593255,7
14:35:29.593255,512
14:35:29.593255,0
14:35:29.593255,19
14:35:29.593255,10752
14:35:29.593255,0
14:35:29.593255,50
14:35:29.593255,11520
14:35:29.593255,0
14:35:29.593255,45
14:35:29.593255,10752
14:35:29.593255,0
14:35:29.593255,31
14:35:29.593255,5888
14:35:29.593255,0
14:35:29.593255,31
14:35:29.593255,8448
14:35:29.593255,0
14:35:29.593255,33
14:35:29.593255,8448
14:35:29.593255,0
14:35:29.593255,23
14:35:29.593255,-1792
14:35:29.593255,-1
14:35:29.593255,54
14:35:29.593255,-26624
14:35:29.593255,1
14:35:29.593255,1084
14:35:29.593255,-11776
14:35:29.593255,6
14:35:29.593255,1581
14:35:29.593255,-7680
14:35:29.593255,1
14:35:29.593255,-234
14:35:29.593255,-21505
14:35:29.593255,-1
14:35:29.593255,-45
14:35:29.593255,5887
14:35:29.593255,-1
14:35:29.593255,-188
14:35:29.593255,-29697
14:35:29.593255,-1
14:35:29.593255,-162
14:35:29.593255,25599
14:35:29.593255,-1
14:35:29.593255,-117
14:35:29.593255,-30721
14:35:29.593255,-1
14:35:29.593255,-124
14:35:29.593255,-24065
14:35:29.593255,-1
14:35:29.593255,-83
14:35:29.593255,-20993
14:35:29.593255,-1
14:35:29.593255,-74
14:35:29.593255,-15617
14:35:29.593255,-1
14:35:29.593255,-45
14:35:30.133578,-23
14:35:30.133578,-1537
14:35:30.133578,-1
14:35:30.133578,4
14:35:30.133578,7936
14:35:30.133578,0
14:35:30.133578,62
14:35:30.133578,22528
14:35:30.133578,0
14:35:30.133578,109
14:35:30.133578,30976
14:35:30.133578,0
14:35:30.133578,109
14:35:30.133578,22528
14:35:30.133578,0
14:35:30.133578,69
14:35:30.133578,11520
14:35:30.133578,0
14:35:30.133578,4
14:35:30.133578,-8960
14:35:30.133578,-1
14:35:30.133578,-57
14:35:30.133578,-15617
14:35:30.133578,-1
14:35:30.133578,-69
14:35:30.133578,-17921
14:35:30.133578,-1
14:35:30.133578,-69
14:35:30.133578,-17409
14:35:30.133578,-1
14:35:30.133578,-66
14:35:30.133578,-14849
14:35:30.133578,-1
14:35:30.133578,-57
14:35:30.133578,-13569
14:35:30.133578,-1
14:35:30.133578,-47
14:35:30.133578,-10497
14:35:30.133578,-1
14:35:30.133578,-38
14:35:30.133578,-7681
14:35:30.133578,-1
14:35:30.133578,-19
14:35:30.133578,-3329
14:35:30.133578,-1
14:35:30.133578,-16
14:35:30.133578,-3329
14:35:30.133578,-1
14:35:30.133578,-4
14:35:30.133578,767
14:35:30.133578,0
14:35:30.133578,7
14:35:30.133578,2816
14:35:30.133578,0
14:35:30.133578,16
14:35:30.133578,4096
14:35:30.133578,0
14:35:30.133578,14
14:35:30.133578,2816
14:35:30.133578,0
14:35:30.133578,11
14:35:30.133578,4864
14:35:30.133578,0
14:35:30.133578,19
14:35:30.133578,4096
14:35:30.133578,0
14:35:30.133578,14
14:35:30.133578,4096
14:35:30.133578,0
14:35:30.133578,21
14:35:30.133578,5888
14:35:30.133578,0
14:35:30.133578,19
14:35:30.133578,4864
14:35:30.133578,0
14:35:30.133578,26
14:35:30.133578,5888
14:35:30.133578,0
14:35:30.133578,19
14:35:30.133578,5888
14:35:30.133578,0
14:35:30.133578,28
14:35:30.133578,6656
14:35:30.133578,0
14:35:30.133578,26
14:35:30.133578,7168
14:35:30.133578,0
14:35:30.133578,33
14:35:30.133578,6656
14:35:30.133578,0
14:35:30.133578,19
14:35:30.133578,5376
14:35:30.133578,0
14:35:30.133578,16
14:35:30.133578,1024
14:35:30.133578,0
14:35:30.133578,0
14:35:30.133578,1792
14:35:30.133578,0
14:35:30.133578,21
14:35:30.133578,8960
14:35:30.133578,0
14:35:30.133578,40
14:35:30.133578,10752
14:35:30.133578,0
14:35:30.133578,47
14:35:30.133578,10240
14:35:30.133578,0
14:35:30.133578,23
14:35:30.672829,23
14:35:30.672829,8448
14:35:30.672829,0
14:35:30.672829,28
14:35:30.672829,7168
14:35:30.672829,0
14:35:30.672829,31
14:35:30.672829,2304
14:35:30.672829,0
14:35:30.672829,-9
14:35:30.672829,-26881
14:35:30.672829,0
14:35:30.672829,661
14:35:30.672829,-19712
14:35:30.672829,5
14:35:30.672829,1906
14:35:30.672829,-9216
14:35:30.672829,4
14:35:30.672829,102
14:35:30.672829,11264
14:35:30.672829,-1
14:35:30.672829,-14
14:35:30.672829,-30209
14:35:30.672829,-1
14:35:30.672829,-231
14:35:30.672829,29951
14:35:30.672829,-1
14:35:30.672829,-124
14:35:30.672829,24831
14:35:30.672829,-1
14:35:30.672829,-131
14:35:30.672829,-28929
14:35:30.672829,-1
14:35:30.672829,-121
14:35:30.672829,-25857
14:35:30.672829,-1
14:35:30.672829,-90
14:35:30.672829,-23553
14:35:30.672829,-1
14:35:30.672829,-76
14:35:30.672829,-14337
14:35:30.672829,-1
14:35:30.672829,-54
14:35:30.672829,-11777
14:35:30.672829,-1
14:35:30.672829,-23
14:35:30.672829,255
14:35:30.672829,0
14:35:30.672829,11
14:35:30.672829,8448
14:35:30.672829,0
14:35:30.672829,64
14:35:30.672829,21760
14:35:30.672829,0
14:35:30.672829,95
14:35:30.672829,26880
14:35:30.672829,0
14:35:30.672829,105
14:35:30.672829,20736
14:35:30.672829,0
14:35:30.672829,42
14:35:30.672829,1024
14:35:30.672829,0
14:35:30.672829,-28
14:35:30.672829,-13569
14:35:30.672829,-1
14:35:30.672829,-74
14:35:30.672829,-20481
14:35:30.672829,-1
14:35:30.672829,-81
14:35:30.672829,-20481
14:35:30.672829,-1
14:35:30.672829,-76
14:35:30.672829,-17409
14:35:30.672829,-1
14:35:30.672829,-62
14:35:30.672829,-14849
14:35:30.672829,-1
14:35:30.672829,-59
14:35:30.672829,-13057
14:35:30.672829,-1
14:35:30.672829,-42
14:35:30.672829,-10497
14:35:30.672829,-1
14:35:30.672829,-38
14:35:30.672829,-7681
14:35:30.672829,-1
14:35:30.672829,-28
14:35:30.672829,-5633
14:35:30.672829,-1
14:35:30.672829,-16
14:35:30.672829,-3841
14:35:30.672829,-1
14:35:30.672829,-14
14:35:30.672829,-769
14:35:30.672829,-1
14:35:30.672829,7
14:35:30.672829,1024
14:35:30.672829,0
14:35:30.672829,4
14:35:30.672829,2816
14:35:30.672829,0
14:35:30.672829,14
14:35:30.672829,1024
14:35:30.672829,0
14:35:30.672829,9
14:35:30.672829,4864
14:35:30.672829,0
14:35:30.672829,21
14:35:31.212597,11
14:35:31.212597,1792
14:35:31.212597,0
14:35:31.212597,11
14:35:31.212597,3584
14:35:31.212597,0
14:35:31.212597,19
14:35:31.212597,8448
14:35:31.212597,0
14:35:31.212597,45
14:35:31.212597,11520
14:35:31.212597,0
14:35:31.212597,47
14:35:31.212597,13312
14:35:31.212597,0
14:35:31.212597,50
14:35:31.212597,10752
14:35:31.212597,0
14:35:31.212597,40
14:35:31.212597,8448
14:35:31.212597,0
14:35:31.212597,23
14:35:31.212597,4864
14:35:31.212597,0
14:35:31.212597,16
14:35:31.212597,3584
14:35:31.212597,0
14:35:31.212597,14
14:35:31.212597,7168
14:35:31.212597,0
14:35:31.212597,45
14:35:31.212597,14592
14:35:31.212597,0
14:35:31.212597,52
14:35:31.212597,12800
14:35:31.212597,0
14:35:31.212597,54
14:35:31.212597,10752
14:35:31.212597,0
14:35:31.212597,31
14:35:31.212597,9728
14:35:31.212597,0
14:35:31.212597,40
14:35:31.212597,10240
14:35:31.212597,0
14:35:31.212597,47
14:35:31.212597,7936
14:35:31.212597,0
14:35:31.212597,-11
14:35:31.212597,23295
14:35:31.212597,0
14:35:31.212597,515
14:35:31.212597,-13568
14:35:31.212597,4
14:35:31.212597,1817
14:35:31.212597,-16640
14:35:31.212597,5
14:35:31.212597,324
14:35:31.212597,5632
14:35:31.212597,-1
14:35:31.212597,-31
14:35:31.212597,-12545
14:35:31.212597,-1
14:35:31.212597,-229
14:35:31.212597,21247
14:35:31.212597,-1
14:35:31.212597,-124
14:35:31.212597,24319
14:35:31.212597,-1
14:35:31.212597,-140
14:35:31.212597,-27649
14:35:31.212597,-1
14:35:31.212597,-119
14:35:31.212597,-27649
14:35:31.212597,-1
14:35:31.212597,-93
14:35:31.212597,-21505
14:35:31.212597,-1
14:35:31.212597,-64
14:35:31.212597,-11265
14:35:31.212597,-1
14:35:31.212597,-45
14:35:31.212597,-9473
14:35:31.212597,-1
14:35:31.212597,-11
14:35:31.212597,4351
14:35:31.212597,0
14:35:31.212597,38
14:35:31.212597,16384
14:35:31.212597,0
14:35:31.212597,88
14:35:31.212597,28672
14:35:31.212597,0
14:35:31.212597,128
14:35:31.212597,-31488
14:35:31.212597,0
14:35:31.212597,126
14:35:31.212597,25600
14:35:31.212597,0
14:35:31.212597,57
14:35:31.212597,2816
14:35:31.212597,0
14:35:31.212597,-35
14:35:31.212597,-16641
14:35:31.212597,-1
14:35:31.212597,-81
14:35:31.212597,-22273
14:35:31.212597,-1
14:35:31.212597,-93
14:35:31.842500,-93
14:35:31.842500,-22785
14:35:31.842500,-1
14:35:31.842500,-81
14:35:31.842500,-17409
14:35:31.842500,-1
14:35:31.842500,-57
14:35:31.842500,-14337
14:35:31.842500,-1
14:35:31.842500,-54
14:35:31.842500,-12545
14:35:31.842500,-1
14:35:31.842500,-45
14:35:31.842500,-8193
14:35:31.842500,-1
14:35:31.842500,-21
14:35:31.842500,-5121
14:35:31.842500,-1
14:35:31.842500,-16
14:35:31.842500,-257
14:35:31.842500,-1
14:35:31.842500,7
14:35:31.842500,2816
14:35:31.842500,0
14:35:31.842500,14
14:35:31.842500,3584
14:35:31.842500,0
14:35:31.842500,9
14:35:31.842500,1792
14:35:31.842500,0
14:35:31.842500,11
14:35:31.842500,2816
14:35:31.842500,0
14:35:31.842500,9
14:35:31.842500,2304
14:35:31.842500,0
14:35:31.842500,11
14:35:31.842500,2816
14:35:31.842500,0
14:35:31.842500,7
14:35:31.842500,1792
14:35:31.842500,0
14:35:31.842500,9
14:35:31.842500,2816
14:35:31.842500,0
14:35:31.842500,19
14:35:31.842500,5888
14:35:31.842500,0
14:35:31.842500,19
14:35:31.842500,3584
14:35:31.842500,0
14:35:31.842500,9
14:35:31.842500,1024
14:35:31.842500,0
14:35:31.842500,-4
14:35:31.842500,-2049
14:35:31.842500,-1
14:35:31.842500,4
14:35:31.842500,6656
14:35:31.842500,0
14:35:31.842500,35
14:35:31.842500,8448
14:35:31.842500,0
14:35:31.842500,35
14:35:31.842500,9728
14:35:31.842500,0
14:35:31.842500,19
14:35:31.842500,2304
14:35:31.842500,0
14:35:31.842500,21
14:35:31.842500,6656
14:35:31.842500,0
14:35:31.842500,19
14:35:31.842500,5376
14:35:31.842500,0
14:35:31.842500,9
14:35:31.842500,-5376
14:35:31.842500,-1
14:35:31.842500,64
14:35:31.842500,-13312
14:35:31.842500,1
14:35:31.842500,1187
14:35:31.842500,4608
14:35:31.842500,7
14:35:31.842500,1478
14:35:31.842500,18176
14:35:31.842500,1
14:35:31.842500,-260
14:35:31.842500,-17921
14:35:31.842500,-1
14:35:31.842500,-83
14:35:31.842500,-1
14:35:31.842500,-2
14:35:31.842500,-195
14:35:31.842500,29183
14:35:31.842500,-1
14:35:31.842500,-186
14:35:31.842500,22015
14:35:31.842500,-1
14:35:31.842500,-138
14:35:31.842500,29183
14:35:31.842500,-1
14:35:31.842500,-133
14:35:31.842500,-28417
14:35:31.842500,-1
14:35:31.842500,-112
14:35:31.842500,-27649
14:35:31.842500,-1
14:35:31.842500,-88
14:35:32.383604,-71
14:35:32.383604,-15617
14:35:32.383604,-1
14:35:32.383604,-47
14:35:32.383604,-6913
14:35:32.383604,-1
14:35:32.383604,-9
14:35:32.383604,3839
14:35:32.383604,0
14:35:32.383604,45
14:35:32.383604,18944
14:35:32.383604,0
14:35:32.383604,85
14:35:32.383604,23040
14:35:32.383604,0
14:35:32.383604,85
14:35:32.383604,16896
14:35:32.383604,0
14:35:32.383604,45
14:35:32.383604,2304
14:35:32.383604,0
14:35:32.383604,-35
14:35:32.383604,-15617
14:35:32.383604,-1
14:35:32.383604,-74
14:35:32.383604,-21505
14:35:32.383604,-1
14:35:32.383604,-88
14:35:32.383604,-21505
14:35:32.383604,-1
14:35:32.383604,-81
14:35:32.383604,-19713
14:35:32.383604,-1
14:35:32.383604,-76
14:35:32.383604,-16129
14:35:32.383604,-1
14:35:32.383604,-57
14:35:32.383604,-13569
14:35:32.383604,-1
14:35:32.383604,-54
14:35:32.383604,-13569
14:35:32.383604,-1
14:35:32.383604,-50
14:35:32.383604,-9985
14:35:32.383604,-1
14:35:32.383604,-33
14:35:32.383604,-6913
14:35:32.383604,-1
14:35:32.383604,-31
14:35:32.383604,-6401
14:35:32.383604,-1
14:35:32.383604,-16
14:35:32.383604,-2049
14:35:32.383604,-1
14:35:32.383604,-14
14:35:32.383604,-2561
14:35:32.383604,-1
14:35:32.383604,-2
14:35:32.383604,-769
14:35:32.383604,-1
14:35:32.383604,-9
14:35:32.383604,-1537
14:35:32.383604,-1
14:35:32.383604,-2
14:35:32.383604,767
14:35:32.383604,0
14:35:32.383604,7
14:35:32.383604,512
14:35:32.383604,0
14:35:32.383604,0
14:35:32.383604,1792
14:35:32.383604,0
14:35:32.383604,11
14:35:32.383604,2816
14:35:32.383604,0
14:35:32.383604,11
14:35:32.383604,2816
14:35:32.383604,0
14:35:32.383604,11
14:35:32.383604,3584
14:35:32.383604,0
14:35:32.383604,16
14:35:32.383604,2304
14:35:32.383604,0
14:35:32.383604,-2
14:35:32.383604,-769
14:35:32.383604,-1
14:35:32.383604,-7
14:35:32.383604,-769
14:35:32.383604,-1
14:35:32.383604,11
14:35:32.383604,8448
14:35:32.383604,0
14:35:32.383604,38
14:35:32.383604,7936
14:35:32.383604,0
14:35:32.383604,35
14:35:32.383604,7936
14:35:32.383604,0
14:35:32.383604,9
14:35:32.383604,2304
14:35:32.383604,0
14:35:32.383604,23
14:35:32.383604,5376
14:35:32.383604,0
14:35:32.383604,16
14:35:32.383604,5376
14:35:32.383604,0
14:35:32.383604,2
14:35:32.922469,-2
14:35:32.922469,-14593
14:35:32.922469,0
14:35:32.922469,764
14:35:32.922469,5888
14:35:32.922469,6
14:35:32.922469,1848
14:35:32.922469,-9728
14:35:32.922469,3
14:35:32.922469,-85
14:35:32.922469,13311
14:35:32.922469,-1
14:35:32.922469,-26
14:35:32.922469,21247
14:35:32.922469,-1
14:35:32.922469,-222
14:35:32.922469,-32001
14:35:32.922469,-1
14:35:32.922469,-145
14:35:32.922469,23039
14:35:32.922469,-1
14:35:32.922469,-124
14:35:32.922469,-27649
14:35:32.922469,-1
14:35:32.922469,-117
14:35:32.922469,-25345
14:35:32.922469,-1
14:35:32.922469,-88
14:35:32.922469,-21505
14:35:32.922469,-1
14:35:32.922469,-71
14:35:32.922469,-15617
14:35:32.922469,-1
14:35:32.922469,-59
14:35:32.922469,-10497
14:35:32.922469,-1
14:35:32.922469,-23
14:35:32.922469,-769
14:35:32.922469,-1
14:35:32.922469,21
14:35:32.922469,12032
14:35:32.922469,0
14:35:32.922469,64
14:35:32.922469,20736
14:35:32.922469,0
14:35:32.922469,97
14:35:32.922469,24832
14:35:32.922469,0
14:35:32.922469,83
14:35:32.922469,16384
14:35:32.922469,0
14:35:32.922469,26
14:35:32.922469,-4864
14:35:32.922469,-1
14:35:32.922469,-54
14:35:32.922469,-19713
14:35:32.922469,-1
14:35:32.922469,-83
14:35:32.922469,-22273
14:35:32.922469,-1
14:35:32.922469,-95
14:35:32.922469,-23553
14:35:32.922469,-1
14:35:32.922469,-85
14:35:32.922469,-20481
14:35:32.922469,-1
14:35:32.922469,-76
14:35:32.922469,-17921
14:35:32.922469,-1
14:35:32.922469,-66
14:35:32.922469,-15617
14:35:32.922469,-1
14:35:32.922469,-57
14:35:32.922469,-13569
14:35:32.922469,-1
14:35:32.922469,-50
14:35:32.922469,-11777
14:35:32.922469,-1
14:35:32.922469,-50
14:35:32.922469,-11265
14:35:32.922469,-1
14:35:32.922469,-40
14:35:32.922469,-9473
14:35:32.922469,-1
14:35:32.922469,-28
14:35:32.922469,-5633
14:35:32.922469,-1
14:35:32.922469,-21
14:35:32.922469,-3841
14:35:32.922469,-1
14:35:32.922469,-19
14:35:32.922469,-4609
14:35:32.922469,-1
14:35:32.922469,-14
14:35:32.922469,-1537
14:35:32.922469,-1
14:35:32.922469,-4
14:35:32.922469,-1537
14:35:32.922469,-1
14:35:32.922469,-4
14:35:32.922469,-769
14:35:32.922469,-1
14:35:32.922469,0
14:35:32.922469,512
14:35:32.922469,0
14:35:32.922469,2
14:35:32.922469,1024
14:35:32.922469,0
14:35:32.922469,11
14:35:33.507577,16
14:35:33.507577,4096
14:35:33.507577,0
14:35:33.507577,9
14:35:33.507577,512
14:35:33.507577,0
14:35:33.507577,-2
14:35:33.507577,-1537
14:35:33.507577,-1
14:35:33.507577,14
14:35:33.507577,13824
14:35:33.507577,0
14:35:33.507577,71
14:35:33.507577,17664
14:35:33.507577,0
14:35:33.507577,64
14:35:33.507577,16384
14:35:33.507577,0
14:35:33.507577,62
14:35:33.507577,13312
14:35:33.507577,0
14:35:33.507577,50
14:35:33.507577,13824
14:35:33.507577,0
14:35:33.507577,50
14:35:33.507577,12800
14:35:33.507577,0
14:35:33.507577,52
14:35:33.507577,4864
14:35:33.507577,0
14:35:33.507577,19
14:35:33.507577,-3328
14:35:33.507577,0
14:35:33.507577,821
14:35:33.507577,13312
14:35:33.507577,6
14:35:33.507577,1834
14:35:33.507577,-17152
14:35:33.507577,3
14:35:33.507577,-78
14:35:33.507577,23039
14:35:33.507577,-1
14:35:33.507577,4
14:35:33.507577,22272
14:35:33.507577,-1
14:35:33.507577,-224
14:35:33.507577,-32001
14:35:33.507577,-1
14:35:33.507577,-143
14:35:33.507577,23039
14:35:33.507577,-1
14:35:33.507577,-126
14:35:33.507577,-28417
14:35:33.507577,-1
14:35:33.507577,-119
14:35:33.507577,-26625
14:35:33.507577,-1
14:35:33.507577,-90
14:35:33.507577,-20993
14:35:33.507577,-1
14:35:33.507577,-66
14:35:33.507577,-11777
14:35:33.507577,-1
14:35:33.507577,-38
14:35:33.507577,-5633
14:35:33.507577,-1
14:35:33.507577,-4
14:35:33.507577,3071
14:35:33.507577,0
14:35:33.507577,35
14:35:33.507577,15104
14:35:33.507577,0
14:35:33.507577,85
14:35:33.507577,26880
14:35:33.507577,0
14:35:33.507577,107
14:35:33.507577,25600
14:35:33.507577,0
14:35:33.507577,90
14:35:33.507577,16896
14:35:33.507577,0
14:35:33.507577,26
14:35:33.507577,-4864
14:35:33.507577,-1
14:35:33.507577,-54
14:35:33.507577,-19713
14:35:33.507577,-1
14:35:33.507577,-90
14:35:33.507577,-24065
14:35:33.507577,-1
14:35:33.507577,-95
14:35:33.507577,-21505
14:35:33.507577,-1
14:35:33.507577,-81
14:35:33.507577,-20993
14:35:33.507577,-1
14:35:33.507577,-78
14:35:33.507577,-17409
14:35:33.507577,-1
14:35:33.507577,-64
14:35:33.507577,-16129
14:35:33.507577,-1
14:35:33.507577,-62
14:35:33.507577,-13057
14:35:33.507577,-1
14:35:33.507577,-42
14:35:33.507577,-8705
14:35:33.507577,-1
14:35:33.507577,-28
14:35:34.047578,-26
14:35:34.047578,-3841
14:35:34.047578,-1
14:35:34.047578,-2
14:35:34.047578,-257
14:35:34.047578,-1
14:35:34.047578,0
14:35:34.047578,1024
14:35:34.047578,0
14:35:34.047578,4
14:35:34.047578,2816
14:35:34.047578,0
14:35:34.047578,14
14:35:34.047578,4096
14:35:34.047578,0
14:35:34.047578,28
14:35:34.047578,7936
14:35:34.047578,0
14:35:34.047578,26
14:35:34.047578,7936
14:35:34.047578,0
14:35:34.047578,33
14:35:34.047578,7168
14:35:34.047578,0
14:35:34.047578,26
14:35:34.047578,7936
14:35:34.047578,0
14:35:34.047578,31
14:35:34.047578,7168
14:35:34.047578,0
14:35:34.047578,26
14:35:34.047578,6656
14:35:34.047578,0
14:35:34.047578,26
14:35:34.047578,5376
14:35:34.047578,0
14:35:34.047578,14
14:35:34.047578,1792
14:35:34.047578,0
14:35:34.047578,4
14:35:34.047578,5888
14:35:34.047578,0
14:35:34.047578,50
14:35:34.047578,15104
14:35:34.047578,0
14:35:34.047578,54
14:35:34.047578,13312
14:35:34.047578,0
14:35:34.047578,50
14:35:34.047578,10240
14:35:34.047578,0
14:35:34.047578,38
14:35:34.047578,10752
14:35:34.047578,0
14:35:34.047578,45
14:35:34.047578,10752
14:35:34.047578,0
14:35:34.047578,40
14:35:34.047578,5376
14:35:34.047578,0
14:35:34.047578,0
14:35:34.047578,-28928
14:35:34.047578,0
14:35:34.047578,625
14:35:34.047578,20224
14:35:34.047578,5
14:35:34.047578,1800
14:35:34.047578,-15872
14:35:34.047578,4
14:35:34.047578,107
14:35:34.047578,9472
14:35:34.047578,-1
14:35:34.047578,-4
14:35:34.047578,-25857
14:35:34.047578,-1
14:35:34.047578,-236
14:35:34.047578,26879
14:35:34.047578,-1
14:35:34.047578,-124
14:35:34.047578,24831
14:35:34.047578,-1
14:35:34.047578,-136
14:35:34.047578,-28929
14:35:34.047578,-1
14:35:34.047578,-117
14:35:34.047578,-27649
14:35:34.047578,-1
14:35:34.047578,-95
14:35:34.047578,-20993
14:35:34.047578,-1
14:35:34.047578,-71
14:35:34.047578,-13569
14:35:34.047578,-1
14:35:34.047578,-45
14:35:34.047578,-8705
14:35:34.047578,-1
14:35:34.047578,-14
14:35:34.047578,2559
14:35:34.047578,0
14:35:34.047578,33
14:35:34.047578,15872
14:35:34.047578,0
14:35:34.047578,88
14:35:34.047578,26880
14:35:34.047578,0
14:35:34.047578,117
14:35:34.047578,30464
14:35:34.047578,0
14:35:34.047578,107
14:35:34.587489,78
14:35:34.587489,9728
14:35:34.587489,0
14:35:34.587489,-4
14:35:34.587489,-10497
14:35:34.587489,-1
14:35:34.587489,-66
14:35:34.587489,-21505
14:35:34.587489,-1
14:35:34.587489,-90
14:35:34.587489,-18689
14:35:34.587489,-1
14:35:34.587489,-64
14:35:34.587489,-17409
14:35:34.587489,-1
14:35:34.587489,-64
14:35:34.587489,-14849
14:35:34.587489,-1
14:35:34.587489,-62
14:35:34.587489,-15617
14:35:34.587489,-1
14:35:34.587489,-54
14:35:34.587489,-11777
14:35:34.587489,-1
14:35:34.587489,-42
14:35:34.587489,-9473
14:35:34.587489,-1
14:35:34.587489,-33
14:35:34.587489,-5121
14:35:34.587489,-1
14:35:34.587489,-16
14:35:34.587489,-4609
14:35:34.587489,-1
14:35:34.587489,-9
14:35:34.587489,-769
14:35:34.587489,-1
14:35:34.587489,-4
14:35:34.587489,1279
14:35:34.587489,0
14:35:34.587489,4
14:35:34.587489,512
14:35:34.587489,0
14:35:34.587489,4
14:35:34.587489,512
14:35:34.587489,0
14:35:34.587489,0
14:35:34.587489,0
14:35:34.587489,0
14:35:34.587489,0
14:35:34.587489,1792
14:35:34.587489,0
14:35:34.587489,4
14:35:34.587489,512
14:35:34.587489,0
14:35:34.587489,9
14:35:34.587489,1792
14:35:34.587489,0
14:35:34.587489,2
14:35:34.587489,1792
14:35:34.587489,0
14:35:34.587489,9
14:35:34.587489,1024
14:35:34.587489,0
14:35:34.587489,2
14:35:34.587489,1024
14:35:34.587489,0
14:35:34.587489,7
14:35:34.587489,1792
14:35:34.587489,0
14:35:34.587489,7
14:35:34.587489,0
14:35:34.587489,0
14:35:34.587489,-2
14:35:34.587489,-2049
14:35:34.587489,-1
14:35:34.587489,-14
14:35:34.587489,-1537
14:35:34.587489,-1
14:35:34.587489,11
14:35:34.587489,7168
14:35:34.587489,0
14:35:34.587489,35
14:35:34.587489,10752
14:35:34.587489,0
14:35:34.587489,42
14:35:34.587489,7936
14:35:34.587489,0
14:35:34.587489,26
14:35:34.587489,8448
14:35:34.587489,0
14:35:34.587489,38
14:35:34.587489,10240
14:35:34.587489,0
14:35:34.587489,40
14:35:34.587489,9728
14:35:34.587489,0
14:35:34.587489,16
14:35:34.587489,1792
14:35:34.587489,0
14:35:34.587489,183
14:35:34.587489,-9728
14:35:34.587489,2
14:35:34.587489,1542
14:35:34.587489,30208
14:35:34.587489,7
14:35:34.587489,1108
14:35:34.587489,-4096
14:35:34.587489,-1
14:35:34.587489,-212
14:35:35.218439,-16
14:35:35.218439,25599
14:35:35.218439,-1
14:35:35.218439,-246
14:35:35.218439,27903
14:35:35.218439,-1
14:35:35.218439,-136
14:35:35.218439,24831
14:35:35.218439,-1
14:35:35.218439,-126
14:35:35.218439,-28417
14:35:35.218439,-1
14:35:35.218439,-117
14:35:35.218439,-24577
14:35:35.218439,-1
14:35:35.218439,-81
14:35:35.218439,-20481
14:35:35.218439,-1
14:35:35.218439,-69
14:35:35.218439,-14337
14:35:35.218439,-1
14:35:35.218439,-52
14:35:35.218439,-9985
14:35:35.218439,-1
14:35:35.218439,-23
14:35:35.218439,-1537
14:35:35.218439,-1
14:35:35.218439,14
14:35:35.218439,8448
14:35:35.218439,0
14:35:35.218439,52
14:35:35.218439,19968
14:35:35.218439,0
14:35:35.218439,100
14:35:35.218439,25600
14:35:35.218439,0
14:35:35.218439,83
14:35:35.218439,15104
14:35:35.218439,0
14:35:35.218439,28
14:35:35.218439,-2304
14:35:35.218439,-1
14:35:35.218439,-47
14:35:35.218439,-17921
14:35:35.218439,-1
14:35:35.218439,-81
14:35:35.218439,-22785
14:35:35.218439,-1
14:35:35.218439,-90
14:35:35.218439,-20481
14:35:35.218439,-1
14:35:35.218439,-76
14:35:35.218439,-19713
14:35:35.218439,-1
14:35:35.218439,-76
14:35:35.218439,-17409
14:35:35.218439,-1
14:35:35.218439,-66
14:35:35.218439,-15617
14:35:35.218439,-1
14:35:35.218439,-54
14:35:35.218439,-13569
14:35:35.218439,-1
14:35:35.218439,-50
14:35:35.218439,-10497
14:35:35.218439,-1
14:35:35.218439,-40
14:35:35.218439,-10497
14:35:35.218439,-1
14:35:35.218439,-35
14:35:35.218439,-6913
14:35:35.218439,-1
14:35:35.218439,-23
14:35:35.218439,-6913
14:35:35.218439,-1
14:35:35.218439,-28
14:35:35.218439,-3841
14:35:35.218439,-1
14:35:35.218439,-4
14:35:35.218439,-257
14:35:35.218439,-1
14:35:35.218439,-2
14:35:35.218439,-257
14:35:35.218439,-1
14:35:35.218439,0
14:35:35.218439,512
14:35:35.218439,0
14:35:35.218439,2
14:35:35.218439,0
14:35:35.218439,0
14:35:35.218439,0
14:35:35.218439,512
14:35:35.218439,0
14:35:35.218439,0
14:35:35.218439,512
14:35:35.218439,0
14:35:35.218439,9
14:35:35.218439,2816
14:35:35.218439,0
14:35:35.218439,7
14:35:35.218439,2304
14:35:35.218439,0
14:35:35.218439,14
14:35:35.218439,4096
14:35:35.218439,0
14:35:35.218439,11
14:35:35.218439,2304
14:35:35.218439,0
14:35:35.218439,14
14:35:35.757499,16
14:35:35.757499,5376
14:35:35.757499,0
14:35:35.757499,21
14:35:35.757499,4096
14:35:35.757499,0
14:35:35.757499,11
14:35:35.757499,1024
14:35:35.757499,0
14:35:35.757499,0
14:35:35.757499,3584
14:35:35.757499,0
14:35:35.757499,38
14:35:35.757499,12032
14:35:35.757499,0
14:35:35.757499,45
14:35:35.757499,12032
14:35:35.757499,0
14:35:35.757499,52
14:35:35.757499,12032
14:35:35.757499,0
14:35:35.757499,57
14:35:35.757499,16896
14:35:35.757499,0
14:35:35.757499,59
14:35:35.757499,14592
14:35:35.757499,0
14:35:35.757499,59
14:35:35.757499,13312
14:35:35.757499,0
14:35:35.757499,19
14:35:35.757499,15104
14:35:35.757499,0
14:35:35.757499,370
14:35:35.757499,2560
14:35:35.757499,4
14:35:35.757499,1777
14:35:35.757499,-11776
