timestamp,ecg,reconstructed_time
2025-11-07 14:35:04.932469,16,2025-11-07 14:35:04.932469000
2025-11-07 14:35:04.932469,4096,2025-11-07 14:35:04.940161308
2025-11-07 14:35:04.932469,0,2025-11-07 14:35:04.947853615
2025-11-07 14:35:04.932469,19,2025-11-07 14:35:04.955545923
2025-11-07 14:35:04.932469,4864,2025-11-07 14:35:04.963238231
2025-11-07 14:35:04.932469,0,2025-11-07 14:35:04.970930538
2025-11-07 14:35:04.932469,21,2025-11-07 14:35:04.978622846
2025-11-07 14:35:04.932469,5376,2025-11-07 14:35:04.986315154
2025-11-07 14:35:04.932469,0,2025-11-07 14:35:04.994007462
2025-11-07 14:35:04.932469,19,2025-11-07 14:35:05.001699769
2025-11-07 14:35:04.932469,4096,2025-11-07 14:35:05.009392077
2025-11-07 14:35:04.932469,0,2025-11-07 14:35:05.017084385
2025-11-07 14:35:04.932469,16,2025-11-07 14:35:05.024776692
2025-11-07 14:35:04.932469,5376,2025-11-07 14:35:05.032469000
2025-11-07 14:35:04.932469,0,2025-11-07 14:35:05.040161308
2025-11-07 14:35:04.932469,28,2025-11-07 14:35:05.047853615
2025-11-07 14:35:04.932469,7168,2025-11-07 14:35:05.055545923
2025-11-07 14:35:04.932469,0,2025-11-07 14:35:05.063238231
2025-11-07 14:35:04.932469,35,2025-11-07 14:35:05.070930538
2025-11-07 14:35:04.932469,13312,2025-11-07 14:35:05.078622846
2025-11-07 14:35:04.932469,0,2025-11-07 14:35:05.086315154
2025-11-07 14:35:04.932469,64,2025-11-07 14:35:05.094007462
2025-11-07 14:35:04.932469,16384,2025-11-07 14:35:05.101699769
2025-11-07 14:35:04.932469,0,2025-11-07 14:35:05.109392077
2025-11-07 14:35:04.932469,62,2025-11-07 14:35:05.117084385
2025-11-07 14:35:04.932469,13824,2025-11-07 14:35:05.124776692
2025-11-07 14:35:04.932469,0,2025-11-07 14:35:05.132469000
2025-11-07 14:35:04.932469,40,2025-11-07 14:35:05.140161308
2025-11-07 14:35:04.932469,7936,2025-11-07 14:35:05.147853615
2025-11-07 14:35:04.932469,0,2025-11-07 14:35:05.155545923
2025-11-07 14:35:04.932469,35,2025-11-07 14:35:05.163238231
2025-11-07 14:35:04.932469,10240,2025-11-07 14:35:05.170930538
2025-11-07 14:35:04.932469,0,2025-11-07 14:35:05.178622846
2025-11-07 14:35:04.932469,40,2025-11-07 14:35:05.186315154
2025-11-07 14:35:04.932469,10240,2025-11-07 14:35:05.194007462
2025-11-07 14:35:04.932469,0,2025-11-07 14:35:05.201699769
2025-11-07 14:35:04.932469,33,2025-11-07 14:35:05.209392077
2025-11-07 14:35:04.932469,2816,2025-11-07 14:35:05.217084385
2025-11-07 14:35:04.932469,0,2025-11-07 14:35:05.224776692
2025-11-07 14:35:04.932469,71,2025-11-07 14:35:05.232469000
2025-11-07 14:35:04.932469,31488,2025-11-07 14:35:05.240161308
2025-11-07 14:35:04.932469,1,2025-11-07 14:35:05.247853615
2025-11-07 14:35:04.932469,967,2025-11-07 14:35:05.255545923
2025-11-07 14:35:04.932469,12544,2025-11-07 14:35:05.263238231
2025-11-07 14:35:04.932469,6,2025-11-07 14:35:05.270930538
2025-11-07 14:35:04.932469,1540,2025-11-07 14:35:05.278622846
2025-11-07 14:35:04.932469,16896,2025-11-07 14:35:05.286315154
2025-11-07 14:35:04.932469,2,2025-11-07 14:35:05.294007462
2025-11-07 14:35:04.932469,-181,2025-11-07 14:35:05.301699769
2025-11-07 14:35:04.932469,-25345,2025-11-07 14:35:05.309392077
2025-11-07 14:35:04.932469,-1,2025-11-07 14:35:05.317084385
2025-11-07 14:35:04.932469,-16,2025-11-07 14:35:05.324776692
2025-11-07 14:35:04.932469,16895,2025-11-07 14:35:05.332469000
2025-11-07 14:35:04.932469,-1,2025-11-07 14:35:05.340161308
2025-11-07 14:35:04.932469,-183,2025-11-07 14:35:05.347853615
2025-11-07 14:35:04.932469,-28417,2025-11-07 14:35:05.355545923
2025-11-07 14:35:04.932469,-1,2025-11-07 14:35:05.363238231
2025-11-07 14:35:04.932469,-143,2025-11-07 14:35:05.370930538
2025-11-07 14:35:04.932469,29183,2025-11-07 14:35:05.378622846
2025-11-07 14:35:04.932469,-1,2025-11-07 14:35:05.386315154
2025-11-07 14:35:04.932469,-100,2025-11-07 14:35:05.394007462
2025-11-07 14:35:04.932469,-24065,2025-11-07 14:35:05.401699769
2025-11-07 14:35:04.932469,-1,2025-11-07 14:35:05.409392077
2025-11-07 14:35:04.932469,-97,2025-11-07 14:35:05.417084385
2025-11-07 14:35:04.932469,-19713,2025-11-07 14:35:05.424776692
2025-11-07 14:35:04.932469,-1,2025-11-07 14:35:05.432469000
2025-11-07 14:35:04.932469,-64,2025-11-07 14:35:05.440161308
2025-11-07 14:35:04.932469,-13569,2025-11-07 14:35:05.447853615
2025-11-07 14:35:04.932469,-1,2025-11-07 14:35:05.455545923
2025-11-07 14:35:04.932469,-42,2025-11-07 14:35:05.463238230
2025-11-07 14:35:04.932469,-7681,2025-11-07 14:35:05.470930538
2025-11-07 14:35:04.932469,-1,2025-11-07 14:35:05.478622846
2025-11-07 14:35:04.932469,-14,2025-11-07 14:35:05.486315154
2025-11-07 14:35:04.932469,1279,2025-11-07 14:35:05.494007462
2025-11-07 14:35:04.932469,0,2025-11-07 14:35:05.501699769
2025-11-07 14:35:04.932469,26,2025-11-07 14:35:05.509392077
2025-11-07 14:35:04.932469,11520,2025-11-07 14:35:05.517084385
2025-11-07 14:35:04.932469,0,2025-11-07 14:35:05.524776692
2025-11-07 14:35:04.932469,69,2025-11-07 14:35:05.532469000
2025-11-07 14:35:04.932469,24832,2025-11-07 14:35:05.540161308
2025-11-07 14:35:04.932469,0,2025-11-07 14:35:05.547853615
2025-11-07 14:35:04.932469,121,2025-11-07 14:35:05.555545923
2025-11-07 14:35:04.932469,-32000,2025-11-07 14:35:05.563238231
2025-11-07 14:35:04.932469,0,2025-11-07 14:35:05.570930538
2025-11-07 14:35:04.932469,131,2025-11-07 14:35:05.578622846
2025-11-07 14:35:04.932469,30464,2025-11-07 14:35:05.586315154
2025-11-07 14:35:04.932469,0,2025-11-07 14:35:05.594007462
2025-11-07 14:35:04.932469,95,2025-11-07 14:35:05.601699769
2025-11-07 14:35:04.932469,16384,2025-11-07 14:35:05.609392077
2025-11-07 14:35:04.932469,0,2025-11-07 14:35:05.617084385
2025-11-07 14:35:04.932469,28,2025-11-07 14:35:05.624776692
2025-11-07 14:35:04.932469,-2816,2025-11-07 14:35:05.632469000
2025-11-07 14:35:04.932469,-1,2025-11-07 14:35:05.640161308
2025-11-07 14:35:04.932469,-42,2025-11-07 14:35:05.647853615
2025-11-07 14:35:04.932469,-14849,2025-11-07 14:35:05.655545923
2025-11-07 14:35:04.932469,-1,2025-11-07 14:35:05.663238231
2025-11-07 14:35:04.932469,-74,2025-11-07 14:35:05.670930538
2025-11-07 14:35:04.932469,-20481,2025-11-07 14:35:05.678622846
2025-11-07 14:35:04.932469,-1,2025-11-07 14:35:05.686315154
2025-11-07 14:35:04.932469,-81,2025-11-07 14:35:05.694007462
2025-11-07 14:35:04.932469,-19201,2025-11-07 14:35:05.701699769
2025-11-07 14:35:04.932469,-1,2025-11-07 14:35:05.709392077
2025-11-07 14:35:04.932469,-74,2025-11-07 14:35:05.717084385
2025-11-07 14:35:04.932469,-16641,2025-11-07 14:35:05.724776692
2025-11-07 14:35:04.932469,-1,2025-11-07 14:35:05.732469000
2025-11-07 14:35:04.932469,-59,2025-11-07 14:35:05.740161308
2025-11-07 14:35:04.932469,-13569,2025-11-07 14:35:05.747853615
2025-11-07 14:35:04.932469,-1,2025-11-07 14:35:05.755545923
2025-11-07 14:35:04.932469,-50,2025-11-07 14:35:05.763238231
2025-11-07 14:35:05.472547,-42,2025-11-07 14:35:05.770930538
2025-11-07 14:35:05.472547,-7681,2025-11-07 14:35:05.778622846
2025-11-07 14:35:05.472547,-1,2025-11-07 14:35:05.786315154
2025-11-07 14:35:05.472547,-19,2025-11-07 14:35:05.794007462
2025-11-07 14:35:05.472547,-3329,2025-11-07 14:35:05.801699769
2025-11-07 14:35:05.472547,-1,2025-11-07 14:35:05.809392077
2025-11-07 14:35:05.472547,-14,2025-11-07 14:35:05.817084385
2025-11-07 14:35:05.472547,-3329,2025-11-07 14:35:05.824776692
2025-11-07 14:35:05.472547,-1,2025-11-07 14:35:05.832469000
2025-11-07 14:35:05.472547,-11,2025-11-07 14:35:05.840161308
2025-11-07 14:35:05.472547,-769,2025-11-07 14:35:05.847853615
2025-11-07 14:35:05.472547,-1,2025-11-07 14:35:05.855545923
2025-11-07 14:35:05.472547,0,2025-11-07 14:35:05.863238231
2025-11-07 14:35:05.472547,1024,2025-11-07 14:35:05.870930538
2025-11-07 14:35:05.472547,0,2025-11-07 14:35:05.878622846
2025-11-07 14:35:05.472547,9,2025-11-07 14:35:05.886315154
2025-11-07 14:35:05.472547,2816,2025-11-07 14:35:05.894007462
2025-11-07 14:35:05.472547,0,2025-11-07 14:35:05.901699769
2025-11-07 14:35:05.472547,16,2025-11-07 14:35:05.909392077
2025-11-07 14:35:05.472547,7936,2025-11-07 14:35:05.917084385
2025-11-07 14:35:05.472547,0,2025-11-07 14:35:05.924776692
2025-11-07 14:35:05.472547,42,2025-11-07 14:35:05.932469000
2025-11-07 14:35:05.472547,9728,2025-11-07 14:35:05.940161308
2025-11-07 14:35:05.472547,0,2025-11-07 14:35:05.947853615
2025-11-07 14:35:05.472547,33,2025-11-07 14:35:05.955545923
2025-11-07 14:35:05.472547,9728,2025-11-07 14:35:05.963238231
2025-11-07 14:35:05.472547,0,2025-11-07 14:35:05.970930538
2025-11-07 14:35:05.472547,42,2025-11-07 14:35:05.978622846
2025-11-07 14:35:05.472547,10240,2025-11-07 14:35:05.986315154
2025-11-07 14:35:05.472547,0,2025-11-07 14:35:05.994007462
2025-11-07 14:35:05.472547,38,2025-11-07 14:35:06.001699769
2025-11-07 14:35:05.472547,8960,2025-11-07 14:35:06.009392077
2025-11-07 14:35:05.472547,0,2025-11-07 14:35:06.017084385
2025-11-07 14:35:05.472547,38,2025-11-07 14:35:06.024776692
2025-11-07 14:35:05.472547,10752,2025-11-07 14:35:06.032469000
2025-11-07 14:35:05.472547,0,2025-11-07 14:35:06.040161308
2025-11-07 14:35:05.472547,42,2025-11-07 14:35:06.047853615
2025-11-07 14:35:05.472547,9728,2025-11-07 14:35:06.055545923
2025-11-07 14:35:05.472547,0,2025-11-07 14:35:06.063238231
2025-11-07 14:35:05.472547,35,2025-11-07 14:35:06.070930538
2025-11-07 14:35:05.472547,8960,2025-11-07 14:35:06.078622846
2025-11-07 14:35:05.472547,0,2025-11-07 14:35:06.086315154
2025-11-07 14:35:05.472547,40,2025-11-07 14:35:06.094007462
2025-11-07 14:35:05.472547,11520,2025-11-07 14:35:06.101699769
2025-11-07 14:35:05.472547,0,2025-11-07 14:35:06.109392077
2025-11-07 14:35:05.472547,42,2025-11-07 14:35:06.117084385
2025-11-07 14:35:05.472547,10240,2025-11-07 14:35:06.124776692
2025-11-07 14:35:05.472547,0,2025-11-07 14:35:06.132469000
2025-11-07 14:35:05.472547,40,2025-11-07 14:35:06.140161308
2025-11-07 14:35:05.472547,10752,2025-11-07 14:35:06.147853615
2025-11-07 14:35:05.472547,0,2025-11-07 14:35:06.155545923
2025-11-07 14:35:05.472547,45,2025-11-07 14:35:06.163238231
2025-11-07 14:35:05.472547,12800,2025-11-07 14:35:06.170930538
2025-11-07 14:35:05.472547,0,2025-11-07 14:35:06.178622846
2025-11-07 14:35:05.472547,42,2025-11-07 14:35:06.186315154
2025-11-07 14:35:05.472547,7936,2025-11-07 14:35:06.194007462
2025-11-07 14:35:05.472547,0,2025-11-07 14:35:06.201699769
2025-11-07 14:35:05.472547,33,2025-11-07 14:35:06.209392077
2025-11-07 14:35:05.472547,8448,2025-11-07 14:35:06.217084385
2025-11-07 14:35:05.472547,0,2025-11-07 14:35:06.224776692
2025-11-07 14:35:05.472547,31,2025-11-07 14:35:06.232469000
2025-11-07 14:35:05.472547,12032,2025-11-07 14:35:06.240161308
2025-11-07 14:35:05.472547,0,2025-11-07 14:35:06.247853615
2025-11-07 14:35:05.472547,69,2025-11-07 14:35:06.255545923
2025-11-07 14:35:05.472547,18944,2025-11-07 14:35:06.263238231
2025-11-07 14:35:05.472547,0,2025-11-07 14:35:06.270930538
2025-11-07 14:35:05.472547,71,2025-11-07 14:35:06.278622846
2025-11-07 14:35:05.472547,18176,2025-11-07 14:35:06.286315154
2025-11-07 14:35:05.472547,0,2025-11-07 14:35:06.294007462
2025-11-07 14:35:05.472547,64,2025-11-07 14:35:06.301699769
2025-11-07 14:35:05.472547,13312,2025-11-07 14:35:06.309392077
2025-11-07 14:35:05.472547,0,2025-11-07 14:35:06.317084385
2025-11-07 14:35:05.472547,52,2025-11-07 14:35:06.324776692
2025-11-07 14:35:05.472547,14592,2025-11-07 14:35:06.332469000
2025-11-07 14:35:05.472547,0,2025-11-07 14:35:06.340161308
2025-11-07 14:35:05.472547,52,2025-11-07 14:35:06.347853615
2025-11-07 14:35:05.472547,12800,2025-11-07 14:35:06.355545923
2025-11-07 14:35:05.472547,0,2025-11-07 14:35:06.363238231
2025-11-07 14:35:05.472547,54,2025-11-07 14:35:06.370930538
2025-11-07 14:35:05.472547,13312,2025-11-07 14:35:06.378622846
2025-11-07 14:35:05.472547,0,2025-11-07 14:35:06.386315154
2025-11-07 14:35:05.472547,33,2025-11-07 14:35:06.394007462
2025-11-07 14:35:05.472547,-24064,2025-11-07 14:35:06.401699769
2025-11-07 14:35:05.472547,0,2025-11-07 14:35:06.409392077
2025-11-07 14:35:05.472547,578,2025-11-07 14:35:06.417084385
2025-11-07 14:35:05.472547,-28928,2025-11-07 14:35:06.424776692
2025-11-07 14:35:05.472547,4,2025-11-07 14:35:06.432469000
2025-11-07 14:35:05.472547,1588,2025-11-07 14:35:06.440161308
2025-11-07 14:35:05.472547,-12288,2025-11-07 14:35:06.447853615
2025-11-07 14:35:05.472547,4,2025-11-07 14:35:06.455545923
2025-11-07 14:35:05.472547,253,2025-11-07 14:35:06.463238230
2025-11-07 14:35:05.472547,20480,2025-11-07 14:35:06.470930538
2025-11-07 14:35:05.472547,-1,2025-11-07 14:35:06.478622846
2025-11-07 14:35:05.472547,7,2025-11-07 14:35:06.486315154
2025-11-07 14:35:05.472547,-8448,2025-11-07 14:35:06.494007462
2025-11-07 14:35:05.472547,-1,2025-11-07 14:35:06.501699769
2025-11-07 14:35:05.472547,-174,2025-11-07 14:35:06.509392077
2025-11-07 14:35:05.472547,-26625,2025-11-07 14:35:06.517084385
2025-11-07 14:35:05.472547,-1,2025-11-07 14:35:06.524776692
2025-11-07 14:35:05.472547,-69,2025-11-07 14:35:06.532469000
2025-11-07 14:35:05.472547,-28417,2025-11-07 14:35:06.540161308
2025-11-07 14:35:05.472547,-1,2025-11-07 14:35:06.547853615
2025-11-07 14:35:05.472547,-90,2025-11-07 14:35:06.555545923
2025-11-07 14:35:05.472547,-13569,2025-11-07 14:35:06.563238231
2025-11-07 14:35:05.472547,-1,2025-11-07 14:35:06.570930538
2025-11-07 14:35:05.472547,-54,2025-11-07 14:35:06.578622846
2025-11-07 14:35:05.472547,-11265,2025-11-07 14:35:06.586315154
2025-11-07 14:35:05.472547,-1,2025-11-07 14:35:06.594007462
2025-11-07 14:35:05.472547,-26,2025-11-07 14:35:06.601699769
2025-11-07 14:35:06.026649,-16,2025-11-07 14:35:06.609392077
2025-11-07 14:35:06.026649,-1537,2025-11-07 14:35:06.617084385
2025-11-07 14:35:06.026649,-1,2025-11-07 14:35:06.624776692
2025-11-07 14:35:06.026649,7,2025-11-07 14:35:06.632469000
2025-11-07 14:35:06.026649,5376,2025-11-07 14:35:06.640161308
2025-11-07 14:35:06.026649,0,2025-11-07 14:35:06.647853615
2025-11-07 14:35:06.026649,40,2025-11-07 14:35:06.655545923
2025-11-07 14:35:06.026649,16384,2025-11-07 14:35:06.663238231
2025-11-07 14:35:06.026649,0,2025-11-07 14:35:06.670930538
2025-11-07 14:35:06.026649,90,2025-11-07 14:35:06.678622846
2025-11-07 14:35:06.026649,29952,2025-11-07 14:35:06.686315154
2025-11-07 14:35:06.026649,0,2025-11-07 14:35:06.694007462
2025-11-07 14:35:06.026649,148,2025-11-07 14:35:06.701699769
2025-11-07 14:35:06.026649,-19200,2025-11-07 14:35:06.709392077
2025-11-07 14:35:06.026649,0,2025-11-07 14:35:06.717084385
2025-11-07 14:35:06.026649,210,2025-11-07 14:35:06.724776692
2025-11-07 14:35:06.026649,-8704,2025-11-07 14:35:06.732469000
2025-11-07 14:35:06.026649,0,2025-11-07 14:35:06.740161308
2025-11-07 14:35:06.026649,210,2025-11-07 14:35:06.747853615
2025-11-07 14:35:06.026649,-17408,2025-11-07 14:35:06.755545923
2025-11-07 14:35:06.026649,0,2025-11-07 14:35:06.763238231
2025-11-07 14:35:06.026649,155,2025-11-07 14:35:06.770930538
2025-11-07 14:35:06.026649,26112,2025-11-07 14:35:06.778622846
2025-11-07 14:35:06.026649,0,2025-11-07 14:35:06.786315154
2025-11-07 14:35:06.026649,45,2025-11-07 14:35:06.794007462
2025-11-07 14:35:06.026649,0,2025-11-07 14:35:06.801699769
2025-11-07 14:35:06.026649,0,2025-11-07 14:35:06.809392077
2025-11-07 14:35:06.026649,-31,2025-11-07 14:35:06.817084385
2025-11-07 14:35:06.026649,-12545,2025-11-07 14:35:06.824776692
2025-11-07 14:35:06.026649,-1,2025-11-07 14:35:06.832469000
2025-11-07 14:35:06.026649,-62,2025-11-07 14:35:06.840161308
2025-11-07 14:35:06.026649,-17921,2025-11-07 14:35:06.847853615
2025-11-07 14:35:06.026649,-1,2025-11-07 14:35:06.855545923
2025-11-07 14:35:06.026649,-71,2025-11-07 14:35:06.863238231
2025-11-07 14:35:06.026649,-17409,2025-11-07 14:35:06.870930538
2025-11-07 14:35:06.026649,-1,2025-11-07 14:35:06.878622846
2025-11-07 14:35:06.026649,-69,2025-11-07 14:35:06.886315154
2025-11-07 14:35:06.026649,-16641,2025-11-07 14:35:06.894007462
2025-11-07 14:35:06.026649,-1,2025-11-07 14:35:06.901699769
2025-11-07 14:35:06.026649,-57,2025-11-07 14:35:06.909392077
2025-11-07 14:35:06.026649,-12545,2025-11-07 14:35:06.917084385
2025-11-07 14:35:06.026649,-1,2025-11-07 14:35:06.924776692
2025-11-07 14:35:06.026649,-47,2025-11-07 14:35:06.932469000
2025-11-07 14:35:06.026649,-10497,2025-11-07 14:35:06.940161308
2025-11-07 14:35:06.026649,-1,2025-11-07 14:35:06.947853615
2025-11-07 14:35:06.026649,-35,2025-11-07 14:35:06.955545923
2025-11-07 14:35:06.026649,-6401,2025-11-07 14:35:06.963238231
2025-11-07 14:35:06.026649,-1,2025-11-07 14:35:06.970930538
2025-11-07 14:35:06.026649,-19,2025-11-07 14:35:06.978622846
2025-11-07 14:35:06.026649,-3329,2025-11-07 14:35:06.986315154
2025-11-07 14:35:06.026649,-1,2025-11-07 14:35:06.994007462
2025-11-07 14:35:06.026649,-11,2025-11-07 14:35:07.001699769
2025-11-07 14:35:06.026649,-1537,2025-11-07 14:35:07.009392077
2025-11-07 14:35:06.026649,-1,2025-11-07 14:35:07.017084385
2025-11-07 14:35:06.026649,-2,2025-11-07 14:35:07.024776692
2025-11-07 14:35:06.026649,2559,2025-11-07 14:35:07.032469000
2025-11-07 14:35:06.026649,0,2025-11-07 14:35:07.040161308
2025-11-07 14:35:06.026649,19,2025-11-07 14:35:07.047853615
2025-11-07 14:35:06.026649,5376,2025-11-07 14:35:07.055545923
2025-11-07 14:35:06.026649,0,2025-11-07 14:35:07.063238231
2025-11-07 14:35:06.026649,19,2025-11-07 14:35:07.070930538
2025-11-07 14:35:06.026649,3584,2025-11-07 14:35:07.078622846
2025-11-07 14:35:06.026649,0,2025-11-07 14:35:07.086315154
2025-11-07 14:35:06.026649,16,2025-11-07 14:35:07.094007462
2025-11-07 14:35:06.026649,4864,2025-11-07 14:35:07.101699769
2025-11-07 14:35:06.026649,0,2025-11-07 14:35:07.109392077
2025-11-07 14:35:06.026649,14,2025-11-07 14:35:07.117084385
2025-11-07 14:35:06.026649,3584,2025-11-07 14:35:07.124776692
2025-11-07 14:35:06.026649,0,2025-11-07 14:35:07.132469000
2025-11-07 14:35:06.026649,14,2025-11-07 14:35:07.140161308
2025-11-07 14:35:06.026649,2816,2025-11-07 14:35:07.147853615
2025-11-07 14:35:06.026649,0,2025-11-07 14:35:07.155545923
2025-11-07 14:35:06.026649,11,2025-11-07 14:35:07.163238231
2025-11-07 14:35:06.026649,3584,2025-11-07 14:35:07.170930538
2025-11-07 14:35:06.026649,0,2025-11-07 14:35:07.178622846
2025-11-07 14:35:06.026649,16,2025-11-07 14:35:07.186315154
2025-11-07 14:35:06.026649,4864,2025-11-07 14:35:07.194007462
2025-11-07 14:35:06.026649,0,2025-11-07 14:35:07.201699769
2025-11-07 14:35:06.026649,16,2025-11-07 14:35:07.209392077
2025-11-07 14:35:06.026649,4096,2025-11-07 14:35:07.217084385
2025-11-07 14:35:06.026649,0,2025-11-07 14:35:07.224776692
2025-11-07 14:35:06.026649,19,2025-11-07 14:35:07.232469000
2025-11-07 14:35:06.026649,6656,2025-11-07 14:35:07.240161308
2025-11-07 14:35:06.026649,0,2025-11-07 14:35:07.247853615
2025-11-07 14:35:06.026649,26,2025-11-07 14:35:07.255545923
2025-11-07 14:35:06.026649,5888,2025-11-07 14:35:07.263238231
2025-11-07 14:35:06.026649,0,2025-11-07 14:35:07.270930538
2025-11-07 14:35:06.026649,23,2025-11-07 14:35:07.278622846
2025-11-07 14:35:06.026649,4864,2025-11-07 14:35:07.286315154
2025-11-07 14:35:06.026649,0,2025-11-07 14:35:07.294007462
2025-11-07 14:35:06.026649,11,2025-11-07 14:35:07.301699769
2025-11-07 14:35:06.026649,1792,2025-11-07 14:35:07.309392077
2025-11-07 14:35:06.026649,0,2025-11-07 14:35:07.317084385
2025-11-07 14:35:06.026649,7,2025-11-07 14:35:07.324776692
2025-11-07 14:35:06.026649,512,2025-11-07 14:35:07.332469000
2025-11-07 14:35:06.026649,0,2025-11-07 14:35:07.340161308
2025-11-07 14:35:06.026649,4,2025-11-07 14:35:07.347853615
2025-11-07 14:35:06.026649,5376,2025-11-07 14:35:07.355545923
2025-11-07 14:35:06.026649,0,2025-11-07 14:35:07.363238231
2025-11-07 14:35:06.026649,40,2025-11-07 14:35:07.370930538
2025-11-07 14:35:06.026649,11520,2025-11-07 14:35:07.378622846
2025-11-07 14:35:06.026649,0,2025-11-07 14:35:07.386315154
2025-11-07 14:35:06.026649,42,2025-11-07 14:35:07.394007462
2025-11-07 14:35:06.026649,10240,2025-11-07 14:35:07.401699769
2025-11-07 14:35:06.026649,0,2025-11-07 14:35:07.409392077
2025-11-07 14:35:06.026649,33,2025-11-07 14:35:07.417084385
2025-11-07 14:35:06.026649,4864,2025-11-07 14:35:07.424776692
2025-11-07 14:35:06.026649,0,2025-11-07 14:35:07.432469000
2025-11-07 14:35:06.026649,14,2025-11-07 14:35:07.440161308
2025-11-07 14:35:06.597644,19,2025-11-07 14:35:07.447853615
2025-11-07 14:35:06.597644,5376,2025-11-07 14:35:07.455545923
2025-11-07 14:35:06.597644,0,2025-11-07 14:35:07.463238230
2025-11-07 14:35:06.597644,19,2025-11-07 14:35:07.470930538
2025-11-07 14:35:06.597644,4096,2025-11-07 14:35:07.478622846
2025-11-07 14:35:06.597644,0,2025-11-07 14:35:07.486315154
2025-11-07 14:35:06.597644,-2,2025-11-07 14:35:07.494007462
2025-11-07 14:35:06.597644,255,2025-11-07 14:35:07.501699769
2025-11-07 14:35:06.597644,0,2025-11-07 14:35:07.509392077
2025-11-07 14:35:06.597644,193,2025-11-07 14:35:07.517084385
2025-11-07 14:35:06.597644,-19968,2025-11-07 14:35:07.524776692
2025-11-07 14:35:06.597644,2,2025-11-07 14:35:07.532469000
2025-11-07 14:35:06.597644,1368,2025-11-07 14:35:07.540161308
2025-11-07 14:35:06.597644,-23552,2025-11-07 14:35:07.547853615
2025-11-07 14:35:06.597644,6,2025-11-07 14:35:07.555545923
2025-11-07 14:35:06.597644,1060,2025-11-07 14:35:07.563238231
2025-11-07 14:35:06.597644,11520,2025-11-07 14:35:07.570930538
2025-11-07 14:35:06.597644,0,2025-11-07 14:35:07.578622846
2025-11-07 14:35:06.597644,-188,2025-11-07 14:35:07.586315154
2025-11-07 14:35:06.597644,-2049,2025-11-07 14:35:07.594007462
2025-11-07 14:35:06.597644,-1,2025-11-07 14:35:07.601699769
2025-11-07 14:35:06.597644,-126,2025-11-07 14:35:07.609392077
2025-11-07 14:35:06.597644,9727,2025-11-07 14:35:07.617084385
2025-11-07 14:35:06.597644,-1,2025-11-07 14:35:07.624776692
2025-11-07 14:35:06.597644,-136,2025-11-07 14:35:07.632469000
2025-11-07 14:35:06.597644,-32513,2025-11-07 14:35:07.640161308
2025-11-07 14:35:06.597644,-1,2025-11-07 14:35:07.647853615
2025-11-07 14:35:06.597644,-157,2025-11-07 14:35:07.655545923
2025-11-07 14:35:06.597644,-31489,2025-11-07 14:35:07.663238231
2025-11-07 14:35:06.597644,-1,2025-11-07 14:35:07.670930538
2025-11-07 14:35:06.597644,-105,2025-11-07 14:35:07.678622846
2025-11-07 14:35:06.597644,-27649,2025-11-07 14:35:07.686315154
2025-11-07 14:35:06.597644,-1,2025-11-07 14:35:07.694007462
2025-11-07 14:35:06.597644,-97,2025-11-07 14:35:07.701699769
2025-11-07 14:35:06.597644,-19713,2025-11-07 14:35:07.709392077
2025-11-07 14:35:06.597644,-1,2025-11-07 14:35:07.717084385
2025-11-07 14:35:06.597644,-66,2025-11-07 14:35:07.724776692
2025-11-07 14:35:06.597644,-13569,2025-11-07 14:35:07.732469000
2025-11-07 14:35:06.597644,-1,2025-11-07 14:35:07.740161308
2025-11-07 14:35:06.597644,-35,2025-11-07 14:35:07.747853615
2025-11-07 14:35:06.597644,-5121,2025-11-07 14:35:07.755545923
2025-11-07 14:35:06.597644,-1,2025-11-07 14:35:07.763238231
2025-11-07 14:35:06.597644,-9,2025-11-07 14:35:07.770930538
2025-11-07 14:35:06.597644,3839,2025-11-07 14:35:07.778622846
2025-11-07 14:35:06.597644,0,2025-11-07 14:35:07.786315154
2025-11-07 14:35:06.597644,45,2025-11-07 14:35:07.794007462
2025-11-07 14:35:06.597644,17664,2025-11-07 14:35:07.801699769
2025-11-07 14:35:06.597644,0,2025-11-07 14:35:07.809392077
2025-11-07 14:35:06.597644,93,2025-11-07 14:35:07.817084385
2025-11-07 14:35:06.597644,29952,2025-11-07 14:35:07.824776692
2025-11-07 14:35:06.597644,0,2025-11-07 14:35:07.832469000
2025-11-07 14:35:06.597644,133,2025-11-07 14:35:07.840161308
2025-11-07 14:35:06.597644,-30720,2025-11-07 14:35:07.847853615
2025-11-07 14:35:06.597644,0,2025-11-07 14:35:07.855545923
2025-11-07 14:35:06.597644,128,2025-11-07 14:35:07.863238231
2025-11-07 14:35:06.597644,27904,2025-11-07 14:35:07.870930538
2025-11-07 14:35:06.597644,0,2025-11-07 14:35:07.878622846
2025-11-07 14:35:06.597644,76,2025-11-07 14:35:07.886315154
2025-11-07 14:35:06.597644,7936,2025-11-07 14:35:07.894007462
2025-11-07 14:35:06.597644,0,2025-11-07 14:35:07.901699769
2025-11-07 14:35:06.597644,-14,2025-11-07 14:35:07.909392077
2025-11-07 14:35:06.597644,-13057,2025-11-07 14:35:07.917084385
2025-11-07 14:35:06.597644,-1,2025-11-07 14:35:07.924776692
2025-11-07 14:35:06.597644,-74,2025-11-07 14:35:07.932469000
2025-11-07 14:35:06.597644,-20993,2025-11-07 14:35:07.940161308
2025-11-07 14:35:06.597644,-1,2025-11-07 14:35:07.947853615
2025-11-07 14:35:06.597644,-93,2025-11-07 14:35:07.955545923
2025-11-07 14:35:06.597644,-24065,2025-11-07 14:35:07.963238231
2025-11-07 14:35:06.597644,-1,2025-11-07 14:35:07.970930538
2025-11-07 14:35:06.597644,-90,2025-11-07 14:35:07.978622846
2025-11-07 14:35:06.597644,-20993,2025-11-07 14:35:07.986315154
2025-11-07 14:35:06.597644,-1,2025-11-07 14:35:07.994007462
2025-11-07 14:35:06.597644,-78,2025-11-07 14:35:08.001699769
2025-11-07 14:35:06.597644,-18689,2025-11-07 14:35:08.009392077
2025-11-07 14:35:06.597644,-1,2025-11-07 14:35:08.017084385
2025-11-07 14:35:06.597644,-69,2025-11-07 14:35:08.024776692
2025-11-07 14:35:06.597644,-16129,2025-11-07 14:35:08.032469000
2025-11-07 14:35:06.597644,-1,2025-11-07 14:35:08.040161308
2025-11-07 14:35:06.597644,-59,2025-11-07 14:35:08.047853615
2025-11-07 14:35:06.597644,-13569,2025-11-07 14:35:08.055545923
2025-11-07 14:35:06.597644,-1,2025-11-07 14:35:08.063238231
2025-11-07 14:35:06.597644,-47,2025-11-07 14:35:08.070930538
2025-11-07 14:35:06.597644,-9985,2025-11-07 14:35:08.078622846
2025-11-07 14:35:06.597644,-1,2025-11-07 14:35:08.086315154
2025-11-07 14:35:06.597644,-35,2025-11-07 14:35:08.094007462
2025-11-07 14:35:06.597644,-8193,2025-11-07 14:35:08.101699769
2025-11-07 14:35:06.597644,-1,2025-11-07 14:35:08.109392077
2025-11-07 14:35:06.597644,-31,2025-11-07 14:35:08.117084385
2025-11-07 14:35:06.597644,-5633,2025-11-07 14:35:08.124776692
2025-11-07 14:35:06.597644,-1,2025-11-07 14:35:08.132469000
2025-11-07 14:35:06.597644,-19,2025-11-07 14:35:08.140161308
2025-11-07 14:35:06.597644,-3841,2025-11-07 14:35:08.147853615
2025-11-07 14:35:06.597644,-1,2025-11-07 14:35:08.155545923
2025-11-07 14:35:06.597644,-14,2025-11-07 14:35:08.163238231
2025-11-07 14:35:06.597644,-2561,2025-11-07 14:35:08.170930538
2025-11-07 14:35:06.597644,-1,2025-11-07 14:35:08.178622846
2025-11-07 14:35:06.597644,-9,2025-11-07 14:35:08.186315154
2025-11-07 14:35:06.597644,-2049,2025-11-07 14:35:08.194007462
2025-11-07 14:35:06.597644,-1,2025-11-07 14:35:08.201699769
2025-11-07 14:35:06.597644,-7,2025-11-07 14:35:08.209392077
2025-11-07 14:35:06.597644,-769,2025-11-07 14:35:08.217084385
2025-11-07 14:35:06.597644,-1,2025-11-07 14:35:08.224776692
2025-11-07 14:35:06.597644,-4,2025-11-07 14:35:08.232469000
2025-11-07 14:35:06.597644,-769,2025-11-07 14:35:08.240161308
2025-11-07 14:35:06.597644,-1,2025-11-07 14:35:08.247853615
2025-11-07 14:35:06.597644,-4,2025-11-07 14:35:08.255545923
2025-11-07 14:35:06.597644,-257,2025-11-07 14:35:08.263238231
2025-11-07 14:35:06.597644,-1,2025-11-07 14:35:08.270930538
2025-11-07 14:35:06.597644,0,2025-11-07 14:35:08.278622846
2025-11-07 14:35:07.138648,0,2025-11-07 14:35:08.286315154
2025-11-07 14:35:07.138648,0,2025-11-07 14:35:08.294007462
2025-11-07 14:35:07.138648,0,2025-11-07 14:35:08.301699769
2025-11-07 14:35:07.138648,0,2025-11-07 14:35:08.309392077
2025-11-07 14:35:07.138648,0,2025-11-07 14:35:08.317084385
2025-11-07 14:35:07.138648,0,2025-11-07 14:35:08.324776692
2025-11-07 14:35:07.138648,2,2025-11-07 14:35:08.332469000
2025-11-07 14:35:07.138648,1024,2025-11-07 14:35:08.340161308
2025-11-07 14:35:07.138648,0,2025-11-07 14:35:08.347853615
2025-11-07 14:35:07.138648,7,2025-11-07 14:35:08.355545923
2025-11-07 14:35:07.138648,1792,2025-11-07 14:35:08.363238231
2025-11-07 14:35:07.138648,0,2025-11-07 14:35:08.370930538
2025-11-07 14:35:07.138648,4,2025-11-07 14:35:08.378622846
2025-11-07 14:35:07.138648,1792,2025-11-07 14:35:08.386315154
2025-11-07 14:35:07.138648,0,2025-11-07 14:35:08.394007462
2025-11-07 14:35:07.138648,16,2025-11-07 14:35:08.401699769
2025-11-07 14:35:07.138648,7936,2025-11-07 14:35:08.409392077
2025-11-07 14:35:07.138648,0,2025-11-07 14:35:08.417084385
2025-11-07 14:35:07.138648,33,2025-11-07 14:35:08.424776692
2025-11-07 14:35:07.138648,5888,2025-11-07 14:35:08.432469000
2025-11-07 14:35:07.138648,0,2025-11-07 14:35:08.440161308
2025-11-07 14:35:07.138648,19,2025-11-07 14:35:08.447853615
2025-11-07 14:35:07.138648,3584,2025-11-07 14:35:08.455545923
2025-11-07 14:35:07.138648,0,2025-11-07 14:35:08.463238230
2025-11-07 14:35:07.138648,9,2025-11-07 14:35:08.470930538
2025-11-07 14:35:07.138648,2304,2025-11-07 14:35:08.478622846
2025-11-07 14:35:07.138648,0,2025-11-07 14:35:08.486315154
2025-11-07 14:35:07.138648,19,2025-11-07 14:35:08.494007462
2025-11-07 14:35:07.138648,9728,2025-11-07 14:35:08.501699769
2025-11-07 14:35:07.138648,0,2025-11-07 14:35:08.509392077
2025-11-07 14:35:07.138648,45,2025-11-07 14:35:08.517084385
2025-11-07 14:35:07.138648,12032,2025-11-07 14:35:08.524776692
2025-11-07 14:35:07.138648,0,2025-11-07 14:35:08.532469000
2025-11-07 14:35:07.138648,54,2025-11-07 14:35:08.540161308
2025-11-07 14:35:07.138648,12800,2025-11-07 14:35:08.547853615
2025-11-07 14:35:07.138648,0,2025-11-07 14:35:08.555545923
2025-11-07 14:35:07.138648,33,2025-11-07 14:35:08.563238231
2025-11-07 14:35:07.138648,5376,2025-11-07 14:35:08.570930538
2025-11-07 14:35:07.138648,0,2025-11-07 14:35:08.578622846
2025-11-07 14:35:07.138648,26,2025-11-07 14:35:08.586315154
2025-11-07 14:35:07.138648,7168,2025-11-07 14:35:08.594007462
2025-11-07 14:35:07.138648,0,2025-11-07 14:35:08.601699769
2025-11-07 14:35:07.138648,28,2025-11-07 14:35:08.609392077
2025-11-07 14:35:07.138648,7168,2025-11-07 14:35:08.617084385
2025-11-07 14:35:07.138648,0,2025-11-07 14:35:08.624776692
2025-11-07 14:35:07.138648,26,2025-11-07 14:35:08.632469000
2025-11-07 14:35:07.138648,1024,2025-11-07 14:35:08.640161308
2025-11-07 14:35:07.138648,0,2025-11-07 14:35:08.647853615
2025-11-07 14:35:07.138648,40,2025-11-07 14:35:08.655545923
2025-11-07 14:35:07.138648,12032,2025-11-07 14:35:08.663238231
2025-11-07 14:35:07.138648,1,2025-11-07 14:35:08.670930538
2025-11-07 14:35:07.138648,878,2025-11-07 14:35:08.678622846
2025-11-07 14:35:07.138648,10240,2025-11-07 14:35:08.686315154
2025-11-07 14:35:07.138648,6,2025-11-07 14:35:08.694007462
2025-11-07 14:35:07.138648,1686,2025-11-07 14:35:08.701699769
2025-11-07 14:35:07.138648,768,2025-11-07 14:35:08.709392077
2025-11-07 14:35:07.138648,3,2025-11-07 14:35:08.717084385
2025-11-07 14:35:07.138648,-143,2025-11-07 14:35:08.724776692
2025-11-07 14:35:07.138648,25599,2025-11-07 14:35:08.732469000
2025-11-07 14:35:07.138648,-1,2025-11-07 14:35:08.740161308
2025-11-07 14:35:07.138648,-19,2025-11-07 14:35:08.747853615
2025-11-07 14:35:07.138648,17663,2025-11-07 14:35:08.755545923
2025-11-07 14:35:07.138648,-1,2025-11-07 14:35:08.763238231
2025-11-07 14:35:07.138648,-217,2025-11-07 14:35:08.770930538
2025-11-07 14:35:07.138648,-32513,2025-11-07 14:35:08.778622846
2025-11-07 14:35:07.138648,-1,2025-11-07 14:35:08.786315154
2025-11-07 14:35:07.138648,-152,2025-11-07 14:35:08.794007462
2025-11-07 14:35:07.138648,22527,2025-11-07 14:35:08.801699769
2025-11-07 14:35:07.138648,-1,2025-11-07 14:35:08.809392077
2025-11-07 14:35:07.138648,-126,2025-11-07 14:35:08.817084385
2025-11-07 14:35:07.138648,-29697,2025-11-07 14:35:08.824776692
2025-11-07 14:35:07.138648,-1,2025-11-07 14:35:08.832469000
2025-11-07 14:35:07.138648,-119,2025-11-07 14:35:08.840161308
2025-11-07 14:35:07.138648,-25857,2025-11-07 14:35:08.847853615
2025-11-07 14:35:07.138648,-1,2025-11-07 14:35:08.855545923
2025-11-07 14:35:07.138648,-88,2025-11-07 14:35:08.863238231
2025-11-07 14:35:07.138648,-20481,2025-11-07 14:35:08.870930538
2025-11-07 14:35:07.138648,-1,2025-11-07 14:35:08.878622846
2025-11-07 14:35:07.138648,-66,2025-11-07 14:35:08.886315154
2025-11-07 14:35:07.138648,-12545,2025-11-07 14:35:08.894007462
2025-11-07 14:35:07.138648,-1,2025-11-07 14:35:08.901699769
2025-11-07 14:35:07.138648,-38,2025-11-07 14:35:08.909392077
2025-11-07 14:35:07.138648,-5121,2025-11-07 14:35:08.917084385
2025-11-07 14:35:07.138648,-1,2025-11-07 14:35:08.924776692
2025-11-07 14:35:07.138648,0,2025-11-07 14:35:08.932469000
2025-11-07 14:35:07.138648,5888,2025-11-07 14:35:08.940161308
2025-11-07 14:35:07.138648,0,2025-11-07 14:35:08.947853615
2025-11-07 14:35:07.138648,47,2025-11-07 14:35:08.955545923
2025-11-07 14:35:07.138648,18944,2025-11-07 14:35:08.963238231
2025-11-07 14:35:07.138648,0,2025-11-07 14:35:08.970930538
2025-11-07 14:35:07.138648,95,2025-11-07 14:35:08.978622846
2025-11-07 14:35:07.138648,27392,2025-11-07 14:35:08.986315154
2025-11-07 14:35:07.138648,0,2025-11-07 14:35:08.994007462
2025-11-07 14:35:07.138648,109,2025-11-07 14:35:09.001699769
2025-11-07 14:35:07.138648,26112,2025-11-07 14:35:09.009392077
2025-11-07 14:35:07.138648,0,2025-11-07 14:35:09.017084385
2025-11-07 14:35:07.138648,81,2025-11-07 14:35:09.024776692
2025-11-07 14:35:07.138648,12800,2025-11-07 14:35:09.032469000
2025-11-07 14:35:07.138648,0,2025-11-07 14:35:09.040161308
2025-11-07 14:35:07.138648,9,2025-11-07 14:35:09.047853615
2025-11-07 14:35:07.138648,-8448,2025-11-07 14:35:09.055545923
2025-11-07 14:35:07.138648,-1,2025-11-07 14:35:09.063238231
2025-11-07 14:35:07.138648,-62,2025-11-07 14:35:09.070930538
2025-11-07 14:35:07.138648,-20481,2025-11-07 14:35:09.078622846
2025-11-07 14:35:07.138648,-1,2025-11-07 14:35:09.086315154
2025-11-07 14:35:07.138648,-88,2025-11-07 14:35:09.094007462
2025-11-07 14:35:07.138648,-22785,2025-11-07 14:35:09.101699769
2025-11-07 14:35:07.138648,-1,2025-11-07 14:35:09.109392077
2025-11-07 14:35:07.138648,-90,2025-11-07 14:35:09.117084385
2025-11-07 14:35:07.677448,-85,2025-11-07 14:35:09.124776692
2025-11-07 14:35:07.677448,-20481,2025-11-07 14:35:09.132469000
2025-11-07 14:35:07.677448,-1,2025-11-07 14:35:09.140161308
2025-11-07 14:35:07.677448,-74,2025-11-07 14:35:09.147853615
2025-11-07 14:35:07.677448,-16129,2025-11-07 14:35:09.155545923
2025-11-07 14:35:07.677448,-1,2025-11-07 14:35:09.163238231
2025-11-07 14:35:07.677448,-57,2025-11-07 14:35:09.170930538
2025-11-07 14:35:07.677448,-13057,2025-11-07 14:35:09.178622846
2025-11-07 14:35:07.677448,-1,2025-11-07 14:35:09.186315154
2025-11-07 14:35:07.677448,-45,2025-11-07 14:35:09.194007462
2025-11-07 14:35:07.677448,-8705,2025-11-07 14:35:09.201699769
2025-11-07 14:35:07.677448,-1,2025-11-07 14:35:09.209392077
2025-11-07 14:35:07.677448,-16,2025-11-07 14:35:09.217084385
2025-11-07 14:35:07.677448,-257,2025-11-07 14:35:09.224776692
2025-11-07 14:35:07.677448,-1,2025-11-07 14:35:09.232469000
2025-11-07 14:35:07.677448,-4,2025-11-07 14:35:09.240161308
2025-11-07 14:35:07.677448,-769,2025-11-07 14:35:09.247853615
2025-11-07 14:35:07.677448,-1,2025-11-07 14:35:09.255545923
2025-11-07 14:35:07.677448,2,2025-11-07 14:35:09.263238231
2025-11-07 14:35:07.677448,512,2025-11-07 14:35:09.270930538
2025-11-07 14:35:07.677448,0,2025-11-07 14:35:09.278622846
2025-11-07 14:35:07.677448,7,2025-11-07 14:35:09.286315154
2025-11-07 14:35:07.677448,4096,2025-11-07 14:35:09.294007462
2025-11-07 14:35:07.677448,0,2025-11-07 14:35:09.301699769
2025-11-07 14:35:07.677448,21,2025-11-07 14:35:09.309392077
2025-11-07 14:35:07.677448,4864,2025-11-07 14:35:09.317084385
2025-11-07 14:35:07.677448,0,2025-11-07 14:35:09.324776692
2025-11-07 14:35:07.677448,21,2025-11-07 14:35:09.332469000
2025-11-07 14:35:07.677448,6656,2025-11-07 14:35:09.340161308
2025-11-07 14:35:07.677448,0,2025-11-07 14:35:09.347853615
2025-11-07 14:35:07.677448,26,2025-11-07 14:35:09.355545923
2025-11-07 14:35:07.677448,6656,2025-11-07 14:35:09.363238231
2025-11-07 14:35:07.677448,0,2025-11-07 14:35:09.370930538
2025-11-07 14:35:07.677448,26,2025-11-07 14:35:09.378622846
2025-11-07 14:35:07.677448,6656,2025-11-07 14:35:09.386315154
2025-11-07 14:35:07.677448,0,2025-11-07 14:35:09.394007462
2025-11-07 14:35:07.677448,26,2025-11-07 14:35:09.401699769
2025-11-07 14:35:07.677448,6656,2025-11-07 14:35:09.409392077
2025-11-07 14:35:07.677448,0,2025-11-07 14:35:09.417084385
2025-11-07 14:35:07.677448,26,2025-11-07 14:35:09.424776692
2025-11-07 14:35:07.677448,6656,2025-11-07 14:35:09.432469000
2025-11-07 14:35:07.677448,0,2025-11-07 14:35:09.440161308
2025-11-07 14:35:07.677448,28,2025-11-07 14:35:09.447853615
2025-11-07 14:35:07.677448,7936,2025-11-07 14:35:09.455545923
2025-11-07 14:35:07.677448,0,2025-11-07 14:35:09.463238230
2025-11-07 14:35:07.677448,31,2025-11-07 14:35:09.470930538
2025-11-07 14:35:07.677448,7936,2025-11-07 14:35:09.478622846
2025-11-07 14:35:07.677448,0,2025-11-07 14:35:09.486315154
2025-11-07 14:35:07.677448,31,2025-11-07 14:35:09.494007462
2025-11-07 14:35:07.677448,7936,2025-11-07 14:35:09.501699769
2025-11-07 14:35:07.677448,0,2025-11-07 14:35:09.509392077
2025-11-07 14:35:07.677448,31,2025-11-07 14:35:09.517084385
2025-11-07 14:35:07.677448,7936,2025-11-07 14:35:09.524776692
2025-11-07 14:35:07.677448,0,2025-11-07 14:35:09.532469000
2025-11-07 14:35:07.677448,28,2025-11-07 14:35:09.540161308
2025-11-07 14:35:07.677448,7168,2025-11-07 14:35:09.547853615
2025-11-07 14:35:07.677448,0,2025-11-07 14:35:09.555545923
2025-11-07 14:35:07.677448,31,2025-11-07 14:35:09.563238231
2025-11-07 14:35:07.677448,7936,2025-11-07 14:35:09.570930538
2025-11-07 14:35:07.677448,0,2025-11-07 14:35:09.578622846
2025-11-07 14:35:07.677448,31,2025-11-07 14:35:09.586315154
2025-11-07 14:35:07.677448,6656,2025-11-07 14:35:09.594007462
2025-11-07 14:35:07.677448,0,2025-11-07 14:35:09.601699769
2025-11-07 14:35:07.677448,21,2025-11-07 14:35:09.609392077
2025-11-07 14:35:07.677448,4864,2025-11-07 14:35:09.617084385
2025-11-07 14:35:07.677448,0,2025-11-07 14:35:09.624776692
2025-11-07 14:35:07.677448,16,2025-11-07 14:35:09.632469000
2025-11-07 14:35:07.677448,4096,2025-11-07 14:35:09.640161308
2025-11-07 14:35:07.677448,0,2025-11-07 14:35:09.647853615
2025-11-07 14:35:07.677448,33,2025-11-07 14:35:09.655545923
2025-11-07 14:35:07.677448,13312,2025-11-07 14:35:09.663238231
2025-11-07 14:35:07.677448,0,2025-11-07 14:35:09.670930538
2025-11-07 14:35:07.677448,57,2025-11-07 14:35:09.678622846
2025-11-07 14:35:07.677448,12800,2025-11-07 14:35:09.686315154
2025-11-07 14:35:07.677448,0,2025-11-07 14:35:09.694007462
2025-11-07 14:35:07.677448,52,2025-11-07 14:35:09.701699769
2025-11-07 14:35:07.677448,12800,2025-11-07 14:35:09.709392077
2025-11-07 14:35:07.677448,0,2025-11-07 14:35:09.717084385
2025-11-07 14:35:07.677448,35,2025-11-07 14:35:09.724776692
2025-11-07 14:35:07.677448,8448,2025-11-07 14:35:09.732469000
2025-11-07 14:35:07.677448,0,2025-11-07 14:35:09.740161308
2025-11-07 14:35:07.677448,42,2025-11-07 14:35:09.747853615
2025-11-07 14:35:07.677448,8448,2025-11-07 14:35:09.755545923
2025-11-07 14:35:07.677448,0,2025-11-07 14:35:09.763238231
2025-11-07 14:35:07.677448,21,2025-11-07 14:35:09.770930538
2025-11-07 14:35:07.677448,5888,2025-11-07 14:35:09.778622846
2025-11-07 14:35:07.677448,0,2025-11-07 14:35:09.786315154
2025-11-07 14:35:07.677448,26,2025-11-07 14:35:09.794007462
2025-11-07 14:35:07.677448,512,2025-11-07 14:35:09.801699769
2025-11-07 14:35:07.677448,0,2025-11-07 14:35:09.809392077
2025-11-07 14:35:07.677448,50,2025-11-07 14:35:09.817084385
2025-11-07 14:35:07.677448,22272,2025-11-07 14:35:09.824776692
2025-11-07 14:35:07.677448,1,2025-11-07 14:35:09.832469000
2025-11-07 14:35:07.677448,936,2025-11-07 14:35:09.840161308
2025-11-07 14:35:07.677448,15104,2025-11-07 14:35:09.847853615
2025-11-07 14:35:07.677448,6,2025-11-07 14:35:09.855545923
2025-11-07 14:35:07.677448,1607,2025-11-07 14:35:09.863238231
2025-11-07 14:35:07.677448,-31744,2025-11-07 14:35:09.870930538
2025-11-07 14:35:07.677448,2,2025-11-07 14:35:09.878622846
2025-11-07 14:35:07.677448,-181,2025-11-07 14:35:09.886315154
2025-11-07 14:35:07.677448,31743,2025-11-07 14:35:09.894007462
2025-11-07 14:35:07.677448,-1,2025-11-07 14:35:09.901699769
2025-11-07 14:35:07.677448,-31,2025-11-07 14:35:09.909392077
2025-11-07 14:35:07.677448,14591,2025-11-07 14:35:09.917084385
2025-11-07 14:35:07.677448,-1,2025-11-07 14:35:09.924776692
2025-11-07 14:35:07.677448,-207,2025-11-07 14:35:09.932469000
2025-11-07 14:35:07.677448,31743,2025-11-07 14:35:09.940161308
2025-11-07 14:35:07.677448,-1,2025-11-07 14:35:09.947853615
2025-11-07 14:35:07.677448,-162,2025-11-07 14:35:09.955545923
2025-11-07 14:35:08.262933,-164,2025-11-07 14:35:09.963238231
2025-11-07 14:35:08.262933,-30209,2025-11-07 14:35:09.970930538
2025-11-07 14:35:08.262933,-1,2025-11-07 14:35:09.978622846
2025-11-07 14:35:08.262933,-114,2025-11-07 14:35:09.986315154
2025-11-07 14:35:08.262933,-28929,2025-11-07 14:35:09.994007462
2025-11-07 14:35:08.262933,-1,2025-11-07 14:35:10.001699769
2025-11-07 14:35:08.262933,-95,2025-11-07 14:35:10.009392077
2025-11-07 14:35:08.262933,-19201,2025-11-07 14:35:10.017084385
2025-11-07 14:35:08.262933,-1,2025-11-07 14:35:10.024776692
2025-11-07 14:35:08.262933,-59,2025-11-07 14:35:10.032469000
2025-11-07 14:35:08.262933,-11265,2025-11-07 14:35:10.040161308
2025-11-07 14:35:08.262933,-1,2025-11-07 14:35:10.047853615
2025-11-07 14:35:08.262933,-28,2025-11-07 14:35:10.055545923
2025-11-07 14:35:08.262933,-1537,2025-11-07 14:35:10.063238231
2025-11-07 14:35:08.262933,-1,2025-11-07 14:35:10.070930538
2025-11-07 14:35:08.262933,7,2025-11-07 14:35:10.078622846
2025-11-07 14:35:08.262933,5888,2025-11-07 14:35:10.086315154
2025-11-07 14:35:08.262933,0,2025-11-07 14:35:10.094007462
2025-11-07 14:35:08.262933,50,2025-11-07 14:35:10.101699769
2025-11-07 14:35:08.262933,19968,2025-11-07 14:35:10.109392077
2025-11-07 14:35:08.262933,0,2025-11-07 14:35:10.117084385
2025-11-07 14:35:08.262933,102,2025-11-07 14:35:10.124776692
2025-11-07 14:35:08.262933,30464,2025-11-07 14:35:10.132469000
2025-11-07 14:35:08.262933,0,2025-11-07 14:35:10.140161308
2025-11-07 14:35:08.262933,126,2025-11-07 14:35:10.147853615
2025-11-07 14:35:08.262933,29952,2025-11-07 14:35:10.155545923
2025-11-07 14:35:08.262933,0,2025-11-07 14:35:10.163238231
2025-11-07 14:35:08.262933,105,2025-11-07 14:35:10.170930538
2025-11-07 14:35:08.262933,23808,2025-11-07 14:35:10.178622846
2025-11-07 14:35:08.262933,0,2025-11-07 14:35:10.186315154
2025-11-07 14:35:08.262933,59,2025-11-07 14:35:10.194007462
2025-11-07 14:35:08.262933,1792,2025-11-07 14:35:10.201699769
2025-11-07 14:35:08.262933,0,2025-11-07 14:35:10.209392077
2025-11-07 14:35:08.262933,-26,2025-11-07 14:35:10.217084385
2025-11-07 14:35:08.262933,-10497,2025-11-07 14:35:10.224776692
2025-11-07 14:35:08.262933,-1,2025-11-07 14:35:10.232469000
2025-11-07 14:35:08.262933,-66,2025-11-07 14:35:10.240161308
2025-11-07 14:35:08.262933,-22273,2025-11-07 14:35:10.247853615
2025-11-07 14:35:08.262933,-1,2025-11-07 14:35:10.255545923
2025-11-07 14:35:08.262933,-90,2025-11-07 14:35:10.263238231
2025-11-07 14:35:08.262933,-19713,2025-11-07 14:35:10.270930538
2025-11-07 14:35:08.262933,-1,2025-11-07 14:35:10.278622846
2025-11-07 14:35:08.262933,-69,2025-11-07 14:35:10.286315154
2025-11-07 14:35:08.262933,-18689,2025-11-07 14:35:10.294007462
2025-11-07 14:35:08.262933,-1,2025-11-07 14:35:10.301699769
2025-11-07 14:35:08.262933,-90,2025-11-07 14:35:10.309392077
2025-11-07 14:35:08.262933,-20993,2025-11-07 14:35:10.317084385
2025-11-07 14:35:08.262933,-1,2025-11-07 14:35:10.324776692
2025-11-07 14:35:08.262933,-59,2025-11-07 14:35:10.332469000
2025-11-07 14:35:08.262933,-14337,2025-11-07 14:35:10.340161308
2025-11-07 14:35:08.262933,-1,2025-11-07 14:35:10.347853615
2025-11-07 14:35:08.262933,-64,2025-11-07 14:35:10.355545923
2025-11-07 14:35:08.262933,-12545,2025-11-07 14:35:10.363238231
2025-11-07 14:35:08.262933,-1,2025-11-07 14:35:10.370930538
2025-11-07 14:35:08.262933,-28,2025-11-07 14:35:10.378622846
2025-11-07 14:35:08.262933,-6913,2025-11-07 14:35:10.386315154
2025-11-07 14:35:08.262933,-1,2025-11-07 14:35:10.394007462
2025-11-07 14:35:08.262933,-40,2025-11-07 14:35:10.401699769
2025-11-07 14:35:08.262933,-10497,2025-11-07 14:35:10.409392077
2025-11-07 14:35:08.262933,-1,2025-11-07 14:35:10.417084385
2025-11-07 14:35:08.262933,-33,2025-11-07 14:35:10.424776692
2025-11-07 14:35:08.262933,-8193,2025-11-07 14:35:10.432469000
2025-11-07 14:35:08.262933,-1,2025-11-07 14:35:10.440161308
2025-11-07 14:35:08.262933,-33,2025-11-07 14:35:10.447853615
2025-11-07 14:35:08.262933,-4609,2025-11-07 14:35:10.455545923
2025-11-07 14:35:08.262933,-1,2025-11-07 14:35:10.463238230
2025-11-07 14:35:08.262933,-9,2025-11-07 14:35:10.470930538
2025-11-07 14:35:08.262933,-3841,2025-11-07 14:35:10.478622846
2025-11-07 14:35:08.262933,-1,2025-11-07 14:35:10.486315154
2025-11-07 14:35:08.262933,-16,2025-11-07 14:35:10.494007462
2025-11-07 14:35:08.262933,1279,2025-11-07 14:35:10.501699769
2025-11-07 14:35:08.262933,0,2025-11-07 14:35:10.509392077
2025-11-07 14:35:08.262933,19,2025-11-07 14:35:10.517084385
2025-11-07 14:35:08.262933,1792,2025-11-07 14:35:10.524776692
2025-11-07 14:35:08.262933,0,2025-11-07 14:35:10.532469000
2025-11-07 14:35:08.262933,-9,2025-11-07 14:35:10.540161308
2025-11-07 14:35:08.262933,-769,2025-11-07 14:35:10.547853615
2025-11-07 14:35:08.262933,-1,2025-11-07 14:35:10.555545923
2025-11-07 14:35:08.262933,21,2025-11-07 14:35:10.563238231
2025-11-07 14:35:08.262933,6656,2025-11-07 14:35:10.570930538
2025-11-07 14:35:08.262933,0,2025-11-07 14:35:10.578622846
2025-11-07 14:35:08.262933,4,2025-11-07 14:35:10.586315154
2025-11-07 14:35:08.262933,-512,2025-11-07 14:35:10.594007462
2025-11-07 14:35:08.262933,-1,2025-11-07 14:35:10.601699769
2025-11-07 14:35:08.262933,11,2025-11-07 14:35:10.609392077
2025-11-07 14:35:08.262933,5376,2025-11-07 14:35:10.617084385
2025-11-07 14:35:08.262933,0,2025-11-07 14:35:10.624776692
2025-11-07 14:35:08.262933,19,2025-11-07 14:35:10.632469000
2025-11-07 14:35:08.262933,5888,2025-11-07 14:35:10.640161308
2025-11-07 14:35:08.262933,0,2025-11-07 14:35:10.647853615
2025-11-07 14:35:08.262933,26,2025-11-07 14:35:10.655545923
2025-11-07 14:35:08.262933,5888,2025-11-07 14:35:10.663238231
2025-11-07 14:35:08.262933,0,2025-11-07 14:35:10.670930538
2025-11-07 14:35:08.262933,33,2025-11-07 14:35:10.678622846
2025-11-07 14:35:08.262933,12800,2025-11-07 14:35:10.686315154
2025-11-07 14:35:08.262933,0,2025-11-07 14:35:10.694007462
2025-11-07 14:35:08.262933,38,2025-11-07 14:35:10.701699769
2025-11-07 14:35:08.262933,2304,2025-11-07 14:35:10.709392077
2025-11-07 14:35:08.262933,0,2025-11-07 14:35:10.717084385
2025-11-07 14:35:08.262933,16,2025-11-07 14:35:10.724776692
2025-11-07 14:35:08.262933,9728,2025-11-07 14:35:10.732469000
2025-11-07 14:35:08.262933,0,2025-11-07 14:35:10.740161308
2025-11-07 14:35:08.262933,31,2025-11-07 14:35:10.747853615
2025-11-07 14:35:08.262933,5376,2025-11-07 14:35:10.755545923
2025-11-07 14:35:08.262933,0,2025-11-07 14:35:10.763238231
2025-11-07 14:35:08.262933,31,2025-11-07 14:35:10.770930538
2025-11-07 14:35:08.262933,10240,2025-11-07 14:35:10.778622846
2025-11-07 14:35:08.262933,0,2025-11-07 14:35:10.786315154
2025-11-07 14:35:08.262933,45,2025-11-07 14:35:10.794007462
2025-11-07 14:35:08.847371,40,2025-11-07 14:35:10.801699769
2025-11-07 14:35:08.847371,8960,2025-11-07 14:35:10.809392077
2025-11-07 14:35:08.847371,0,2025-11-07 14:35:10.817084385
2025-11-07 14:35:08.847371,31,2025-11-07 14:35:10.824776692
2025-11-07 14:35:08.847371,4864,2025-11-07 14:35:10.832469000
2025-11-07 14:35:08.847371,0,2025-11-07 14:35:10.840161308
2025-11-07 14:35:08.847371,19,2025-11-07 14:35:10.847853615
2025-11-07 14:35:08.847371,7936,2025-11-07 14:35:10.855545923
2025-11-07 14:35:08.847371,0,2025-11-07 14:35:10.863238231
2025-11-07 14:35:08.847371,40,2025-11-07 14:35:10.870930538
2025-11-07 14:35:08.847371,15872,2025-11-07 14:35:10.878622846
2025-11-07 14:35:08.847371,0,2025-11-07 14:35:10.886315154
2025-11-07 14:35:08.847371,93,2025-11-07 14:35:10.894007462
2025-11-07 14:35:08.847371,24832,2025-11-07 14:35:10.901699769
2025-11-07 14:35:08.847371,0,2025-11-07 14:35:10.909392077
2025-11-07 14:35:08.847371,90,2025-11-07 14:35:10.917084385
2025-11-07 14:35:08.847371,20736,2025-11-07 14:35:10.924776692
2025-11-07 14:35:08.847371,0,2025-11-07 14:35:10.932469000
2025-11-07 14:35:08.847371,62,2025-11-07 14:35:10.940161308
2025-11-07 14:35:08.847371,14592,2025-11-07 14:35:10.947853615
2025-11-07 14:35:08.847371,0,2025-11-07 14:35:10.955545923
2025-11-07 14:35:08.847371,74,2025-11-07 14:35:10.963238231
2025-11-07 14:35:08.847371,19456,2025-11-07 14:35:10.970930538
2025-11-07 14:35:08.847371,0,2025-11-07 14:35:10.978622846
2025-11-07 14:35:08.847371,66,2025-11-07 14:35:10.986315154
2025-11-07 14:35:08.847371,17664,2025-11-07 14:35:10.994007462
2025-11-07 14:35:08.847371,0,2025-11-07 14:35:11.001699769
2025-11-07 14:35:08.847371,59,2025-11-07 14:35:11.009392077
2025-11-07 14:35:08.847371,7168,2025-11-07 14:35:11.017084385
2025-11-07 14:35:08.847371,0,2025-11-07 14:35:11.024776692
2025-11-07 14:35:08.847371,148,2025-11-07 14:35:11.032469000
2025-11-07 14:35:08.847371,10752,2025-11-07 14:35:11.040161308
2025-11-07 14:35:08.847371,2,2025-11-07 14:35:11.047853615
2025-11-07 14:35:08.847371,1170,2025-11-07 14:35:11.055545923
2025-11-07 14:35:08.847371,32256,2025-11-07 14:35:11.063238231
2025-11-07 14:35:08.847371,6,2025-11-07 14:35:11.070930538
2025-11-07 14:35:08.847371,1342,2025-11-07 14:35:11.078622846
2025-11-07 14:35:08.847371,13824,2025-11-07 14:35:11.086315154
2025-11-07 14:35:08.847371,1,2025-11-07 14:35:11.094007462
2025-11-07 14:35:08.847371,-179,2025-11-07 14:35:11.101699769
2025-11-07 14:35:08.847371,1279,2025-11-07 14:35:11.109392077
2025-11-07 14:35:08.847371,0,2025-11-07 14:35:11.117084385
2025-11-07 14:35:08.847371,-23,2025-11-07 14:35:11.124776692
2025-11-07 14:35:08.847371,16383,2025-11-07 14:35:11.132469000
2025-11-07 14:35:08.847371,-1,2025-11-07 14:35:11.140161308
2025-11-07 14:35:08.847371,-150,2025-11-07 14:35:11.147853615
2025-11-07 14:35:08.847371,-23553,2025-11-07 14:35:11.155545923
2025-11-07 14:35:08.847371,-1,2025-11-07 14:35:11.163238231
2025-11-07 14:35:08.847371,-117,2025-11-07 14:35:11.170930538
2025-11-07 14:35:08.847371,-29697,2025-11-07 14:35:11.178622846
2025-11-07 14:35:08.847371,-1,2025-11-07 14:35:11.186315154
2025-11-07 14:35:08.847371,-97,2025-11-07 14:35:11.194007462
2025-11-07 14:35:08.847371,-20993,2025-11-07 14:35:11.201699769
2025-11-07 14:35:08.847371,-1,2025-11-07 14:35:11.209392077
2025-11-07 14:35:08.847371,-81,2025-11-07 14:35:11.217084385
2025-11-07 14:35:08.847371,-20993,2025-11-07 14:35:11.224776692
2025-11-07 14:35:08.847371,-1,2025-11-07 14:35:11.232469000
2025-11-07 14:35:08.847371,-57,2025-11-07 14:35:11.240161308
2025-11-07 14:35:08.847371,-6401,2025-11-07 14:35:11.247853615
2025-11-07 14:35:08.847371,-1,2025-11-07 14:35:11.255545923
2025-11-07 14:35:08.847371,-16,2025-11-07 14:35:11.263238231
2025-11-07 14:35:08.847371,-257,2025-11-07 14:35:11.270930538
2025-11-07 14:35:08.847371,-1,2025-11-07 14:35:11.278622846
2025-11-07 14:35:08.847371,21,2025-11-07 14:35:11.286315154
2025-11-07 14:35:08.847371,7936,2025-11-07 14:35:11.294007462
2025-11-07 14:35:08.847371,0,2025-11-07 14:35:11.301699769
2025-11-07 14:35:08.847371,57,2025-11-07 14:35:11.309392077
2025-11-07 14:35:08.847371,24320,2025-11-07 14:35:11.317084385
2025-11-07 14:35:08.847371,0,2025-11-07 14:35:11.324776692
2025-11-07 14:35:08.847371,102,2025-11-07 14:35:11.332469000
2025-11-07 14:35:08.847371,27904,2025-11-07 14:35:11.340161308
2025-11-07 14:35:08.847371,0,2025-11-07 14:35:11.347853615
2025-11-07 14:35:08.847371,143,2025-11-07 14:35:11.355545923
2025-11-07 14:35:08.847371,-23552,2025-11-07 14:35:11.363238231
2025-11-07 14:35:08.847371,0,2025-11-07 14:35:11.370930538
2025-11-07 14:35:08.847371,155,2025-11-07 14:35:11.378622846
2025-11-07 14:35:08.847371,-30720,2025-11-07 14:35:11.386315154
2025-11-07 14:35:08.847371,0,2025-11-07 14:35:11.394007462
2025-11-07 14:35:08.847371,117,2025-11-07 14:35:11.401699769
2025-11-07 14:35:08.847371,20736,2025-11-07 14:35:11.409392077
2025-11-07 14:35:08.847371,0,2025-11-07 14:35:11.417084385
2025-11-07 14:35:08.847371,23,2025-11-07 14:35:11.424776692
2025-11-07 14:35:08.847371,-7168,2025-11-07 14:35:11.432469000
2025-11-07 14:35:08.847371,-1,2025-11-07 14:35:11.440161308
2025-11-07 14:35:08.847371,-52,2025-11-07 14:35:11.447853615
2025-11-07 14:35:08.847371,-17921,2025-11-07 14:35:11.455545923
2025-11-07 14:35:08.847371,-1,2025-11-07 14:35:11.463238230
2025-11-07 14:35:08.847371,-85,2025-11-07 14:35:11.470930538
2025-11-07 14:35:08.847371,-20481,2025-11-07 14:35:11.478622846
2025-11-07 14:35:08.847371,-1,2025-11-07 14:35:11.486315154
2025-11-07 14:35:08.847371,-78,2025-11-07 14:35:11.494007462
2025-11-07 14:35:08.847371,-20481,2025-11-07 14:35:11.501699769
2025-11-07 14:35:08.847371,-1,2025-11-07 14:35:11.509392077
2025-11-07 14:35:08.847371,-83,2025-11-07 14:35:11.517084385
2025-11-07 14:35:08.847371,-22273,2025-11-07 14:35:11.524776692
2025-11-07 14:35:08.847371,-1,2025-11-07 14:35:11.532469000
2025-11-07 14:35:08.847371,-81,2025-11-07 14:35:11.540161308
2025-11-07 14:35:08.847371,-16641,2025-11-07 14:35:11.547853615
2025-11-07 14:35:08.847371,-1,2025-11-07 14:35:11.555545923
2025-11-07 14:35:08.847371,-62,2025-11-07 14:35:11.563238231
2025-11-07 14:35:08.847371,-13057,2025-11-07 14:35:11.570930538
2025-11-07 14:35:08.847371,-1,2025-11-07 14:35:11.578622846
2025-11-07 14:35:08.847371,-33,2025-11-07 14:35:11.586315154
2025-11-07 14:35:08.847371,-7681,2025-11-07 14:35:11.594007462
2025-11-07 14:35:08.847371,-1,2025-11-07 14:35:11.601699769
2025-11-07 14:35:08.847371,-42,2025-11-07 14:35:11.609392077
2025-11-07 14:35:08.847371,-6913,2025-11-07 14:35:11.617084385
2025-11-07 14:35:08.847371,-1,2025-11-07 14:35:11.624776692
2025-11-07 14:35:08.847371,-4,2025-11-07 14:35:11.632469000
2025-11-07 14:35:09.387446,-7,2025-11-07 14:35:11.640161308
2025-11-07 14:35:09.387446,-2561,2025-11-07 14:35:11.647853615
2025-11-07 14:35:09.387446,-1,2025-11-07 14:35:11.655545923
2025-11-07 14:35:09.387446,0,2025-11-07 14:35:11.663238231
2025-11-07 14:35:09.387446,1024,2025-11-07 14:35:11.670930538
2025-11-07 14:35:09.387446,0,2025-11-07 14:35:11.678622846
2025-11-07 14:35:09.387446,4,2025-11-07 14:35:11.686315154
2025-11-07 14:35:09.387446,4096,2025-11-07 14:35:11.694007462
2025-11-07 14:35:09.387446,0,2025-11-07 14:35:11.701699769
2025-11-07 14:35:09.387446,16,2025-11-07 14:35:11.709392077
2025-11-07 14:35:09.387446,2816,2025-11-07 14:35:11.717084385
2025-11-07 14:35:09.387446,0,2025-11-07 14:35:11.724776692
2025-11-07 14:35:09.387446,14,2025-11-07 14:35:11.732469000
2025-11-07 14:35:09.387446,3584,2025-11-07 14:35:11.740161308
2025-11-07 14:35:09.387446,0,2025-11-07 14:35:11.747853615
2025-11-07 14:35:09.387446,31,2025-11-07 14:35:11.755545923
2025-11-07 14:35:09.387446,11520,2025-11-07 14:35:11.763238231
2025-11-07 14:35:09.387446,0,2025-11-07 14:35:11.770930538
2025-11-07 14:35:09.387446,31,2025-11-07 14:35:11.778622846
2025-11-07 14:35:09.387446,5888,2025-11-07 14:35:11.786315154
2025-11-07 14:35:09.387446,0,2025-11-07 14:35:11.794007462
2025-11-07 14:35:09.387446,42,2025-11-07 14:35:11.801699769
2025-11-07 14:35:09.387446,10752,2025-11-07 14:35:11.809392077
2025-11-07 14:35:09.387446,0,2025-11-07 14:35:11.817084385
2025-11-07 14:35:09.387446,28,2025-11-07 14:35:11.824776692
2025-11-07 14:35:09.387446,9728,2025-11-07 14:35:11.832469000
2025-11-07 14:35:09.387446,0,2025-11-07 14:35:11.840161308
2025-11-07 14:35:09.387446,54,2025-11-07 14:35:11.847853615
2025-11-07 14:35:09.387446,13312,2025-11-07 14:35:11.855545923
2025-11-07 14:35:09.387446,0,2025-11-07 14:35:11.863238231
2025-11-07 14:35:09.387446,38,2025-11-07 14:35:11.870930538
2025-11-07 14:35:09.387446,8960,2025-11-07 14:35:11.878622846
2025-11-07 14:35:09.387446,0,2025-11-07 14:35:11.886315154
2025-11-07 14:35:09.387446,21,2025-11-07 14:35:11.894007462
2025-11-07 14:35:09.387446,3584,2025-11-07 14:35:11.901699769
2025-11-07 14:35:09.387446,0,2025-11-07 14:35:11.909392077
2025-11-07 14:35:09.387446,38,2025-11-07 14:35:11.917084385
2025-11-07 14:35:09.387446,12032,2025-11-07 14:35:11.924776692
2025-11-07 14:35:09.387446,0,2025-11-07 14:35:11.932469000
2025-11-07 14:35:09.387446,26,2025-11-07 14:35:11.940161308
2025-11-07 14:35:09.387446,1024,2025-11-07 14:35:11.947853615
2025-11-07 14:35:09.387446,0,2025-11-07 14:35:11.955545923
2025-11-07 14:35:09.387446,2,2025-11-07 14:35:11.963238231
2025-11-07 14:35:09.387446,2304,2025-11-07 14:35:11.970930538
2025-11-07 14:35:09.387446,0,2025-11-07 14:35:11.978622846
2025-11-07 14:35:09.387446,21,2025-11-07 14:35:11.986315154
2025-11-07 14:35:09.387446,10240,2025-11-07 14:35:11.994007462
2025-11-07 14:35:09.387446,0,2025-11-07 14:35:12.001699769
2025-11-07 14:35:09.387446,57,2025-11-07 14:35:12.009392077
2025-11-07 14:35:09.387446,11520,2025-11-07 14:35:12.017084385
2025-11-07 14:35:09.387446,0,2025-11-07 14:35:12.024776692
2025-11-07 14:35:09.387446,40,2025-11-07 14:35:12.032469000
2025-11-07 14:35:09.387446,12032,2025-11-07 14:35:12.040161308
2025-11-07 14:35:09.387446,0,2025-11-07 14:35:12.047853615
2025-11-07 14:35:09.387446,33,2025-11-07 14:35:12.055545923
2025-11-07 14:35:09.387446,5376,2025-11-07 14:35:12.063238231
2025-11-07 14:35:09.387446,0,2025-11-07 14:35:12.070930538
2025-11-07 14:35:09.387446,26,2025-11-07 14:35:12.078622846
2025-11-07 14:35:09.387446,7168,2025-11-07 14:35:12.086315154
2025-11-07 14:35:09.387446,0,2025-11-07 14:35:12.094007462
2025-11-07 14:35:09.387446,28,2025-11-07 14:35:12.101699769
2025-11-07 14:35:09.387446,5376,2025-11-07 14:35:12.109392077
2025-11-07 14:35:09.387446,0,2025-11-07 14:35:12.117084385
2025-11-07 14:35:09.387446,7,2025-11-07 14:35:12.124776692
2025-11-07 14:35:09.387446,0,2025-11-07 14:35:12.132469000
2025-11-07 14:35:09.387446,0,2025-11-07 14:35:12.140161308
2025-11-07 14:35:09.387446,109,2025-11-07 14:35:12.147853615
2025-11-07 14:35:09.387446,-3328,2025-11-07 14:35:12.155545923
2025-11-07 14:35:09.387446,1,2025-11-07 14:35:12.163238231
2025-11-07 14:35:09.387446,1158,2025-11-07 14:35:12.170930538
2025-11-07 14:35:09.387446,-32000,2025-11-07 14:35:12.178622846
2025-11-07 14:35:09.387446,6,2025-11-07 14:35:12.186315154
2025-11-07 14:35:09.387446,1275,2025-11-07 14:35:12.194007462
2025-11-07 14:35:09.387446,-8704,2025-11-07 14:35:12.201699769
2025-11-07 14:35:09.387446,0,2025-11-07 14:35:12.209392077
2025-11-07 14:35:09.387446,-231,2025-11-07 14:35:12.217084385
2025-11-07 14:35:09.387446,-9985,2025-11-07 14:35:12.224776692
2025-11-07 14:35:09.387446,-1,2025-11-07 14:35:12.232469000
2025-11-07 14:35:09.387446,-78,2025-11-07 14:35:12.240161308
2025-11-07 14:35:09.387446,4095,2025-11-07 14:35:12.247853615
2025-11-07 14:35:09.387446,-1,2025-11-07 14:35:12.255545923
2025-11-07 14:35:09.387446,-186,2025-11-07 14:35:12.263238231
2025-11-07 14:35:09.387446,32255,2025-11-07 14:35:12.270930538
2025-11-07 14:35:09.387446,-1,2025-11-07 14:35:12.278622846
2025-11-07 14:35:09.387446,-167,2025-11-07 14:35:12.286315154
2025-11-07 14:35:09.387446,24831,2025-11-07 14:35:12.294007462
2025-11-07 14:35:09.387446,-1,2025-11-07 14:35:12.301699769
2025-11-07 14:35:09.387446,-126,2025-11-07 14:35:12.309392077
2025-11-07 14:35:09.387446,-29697,2025-11-07 14:35:12.317084385
2025-11-07 14:35:09.387446,-1,2025-11-07 14:35:12.324776692
2025-11-07 14:35:09.387446,-95,2025-11-07 14:35:12.332469000
2025-11-07 14:35:09.387446,-20481,2025-11-07 14:35:12.340161308
2025-11-07 14:35:09.387446,-1,2025-11-07 14:35:12.347853615
2025-11-07 14:35:09.387446,-85,2025-11-07 14:35:12.355545923
2025-11-07 14:35:09.387446,-19713,2025-11-07 14:35:12.363238231
2025-11-07 14:35:09.387446,-1,2025-11-07 14:35:12.370930538
2025-11-07 14:35:09.387446,-57,2025-11-07 14:35:12.378622846
2025-11-07 14:35:09.387446,-9985,2025-11-07 14:35:12.386315154
2025-11-07 14:35:09.387446,-1,2025-11-07 14:35:12.394007462
2025-11-07 14:35:09.387446,-21,2025-11-07 14:35:12.401699769
2025-11-07 14:35:09.387446,-2049,2025-11-07 14:35:12.409392077
2025-11-07 14:35:09.387446,-1,2025-11-07 14:35:12.417084385
2025-11-07 14:35:09.387446,2,2025-11-07 14:35:12.424776692
2025-11-07 14:35:09.387446,8960,2025-11-07 14:35:12.432469000
2025-11-07 14:35:09.387446,0,2025-11-07 14:35:12.440161308
2025-11-07 14:35:09.387446,74,2025-11-07 14:35:12.447853615
2025-11-07 14:35:09.387446,20736,2025-11-07 14:35:12.455545923
2025-11-07 14:35:09.387446,0,2025-11-07 14:35:12.463238230
2025-11-07 14:35:09.387446,93,2025-11-07 14:35:12.470930538
2025-11-07 14:35:09.927634,114,2025-11-07 14:35:12.478622846
2025-11-07 14:35:09.927634,29952,2025-11-07 14:35:12.486315154
2025-11-07 14:35:09.927634,0,2025-11-07 14:35:12.494007462
2025-11-07 14:35:09.927634,97,2025-11-07 14:35:12.501699769
2025-11-07 14:35:09.927634,17664,2025-11-07 14:35:12.509392077
2025-11-07 14:35:09.927634,0,2025-11-07 14:35:12.517084385
2025-11-07 14:35:09.927634,28,2025-11-07 14:35:12.524776692
2025-11-07 14:35:09.927634,-4096,2025-11-07 14:35:12.532469000
2025-11-07 14:35:09.927634,-1,2025-11-07 14:35:12.540161308
2025-11-07 14:35:09.927634,-57,2025-11-07 14:35:12.547853615
2025-11-07 14:35:09.927634,-20993,2025-11-07 14:35:12.555545923
2025-11-07 14:35:09.927634,-1,2025-11-07 14:35:12.563238231
2025-11-07 14:35:09.927634,-88,2025-11-07 14:35:12.570930538
2025-11-07 14:35:09.927634,-20481,2025-11-07 14:35:12.578622846
2025-11-07 14:35:09.927634,-1,2025-11-07 14:35:12.586315154
2025-11-07 14:35:09.927634,-85,2025-11-07 14:35:12.594007462
2025-11-07 14:35:09.927634,-22785,2025-11-07 14:35:12.601699769
2025-11-07 14:35:09.927634,-1,2025-11-07 14:35:12.609392077
2025-11-07 14:35:09.927634,-83,2025-11-07 14:35:12.617084385
2025-11-07 14:35:09.927634,-20481,2025-11-07 14:35:12.624776692
2025-11-07 14:35:09.927634,-1,2025-11-07 14:35:12.632469000
2025-11-07 14:35:09.927634,-83,2025-11-07 14:35:12.640161308
2025-11-07 14:35:09.927634,-19713,2025-11-07 14:35:12.647853615
2025-11-07 14:35:09.927634,-1,2025-11-07 14:35:12.655545923
2025-11-07 14:35:09.927634,-69,2025-11-07 14:35:12.663238231
2025-11-07 14:35:09.927634,-16129,2025-11-07 14:35:12.670930538
2025-11-07 14:35:09.927634,-1,2025-11-07 14:35:12.678622846
2025-11-07 14:35:09.927634,-57,2025-11-07 14:35:12.686315154
2025-11-07 14:35:09.927634,-12545,2025-11-07 14:35:12.694007462
2025-11-07 14:35:09.927634,-1,2025-11-07 14:35:12.701699769
2025-11-07 14:35:09.927634,-45,2025-11-07 14:35:12.709392077
2025-11-07 14:35:09.927634,-9473,2025-11-07 14:35:12.717084385
2025-11-07 14:35:09.927634,-1,2025-11-07 14:35:12.724776692
2025-11-07 14:35:09.927634,-26,2025-11-07 14:35:12.732469000
2025-11-07 14:35:09.927634,-4609,2025-11-07 14:35:12.740161308
2025-11-07 14:35:09.927634,-1,2025-11-07 14:35:12.747853615
2025-11-07 14:35:09.927634,-16,2025-11-07 14:35:12.755545923
2025-11-07 14:35:09.927634,-2561,2025-11-07 14:35:12.763238231
2025-11-07 14:35:09.927634,-1,2025-11-07 14:35:12.770930538
2025-11-07 14:35:09.927634,-4,2025-11-07 14:35:12.778622846
2025-11-07 14:35:09.927634,255,2025-11-07 14:35:12.786315154
2025-11-07 14:35:09.927634,0,2025-11-07 14:35:12.794007462
2025-11-07 14:35:09.927634,4,2025-11-07 14:35:12.801699769
2025-11-07 14:35:09.927634,1792,2025-11-07 14:35:12.809392077
2025-11-07 14:35:09.927634,0,2025-11-07 14:35:12.817084385
2025-11-07 14:35:09.927634,11,2025-11-07 14:35:12.824776692
2025-11-07 14:35:09.927634,2816,2025-11-07 14:35:12.832469000
2025-11-07 14:35:09.927634,0,2025-11-07 14:35:12.840161308
2025-11-07 14:35:09.927634,11,2025-11-07 14:35:12.847853615
2025-11-07 14:35:09.927634,2816,2025-11-07 14:35:12.855545923
2025-11-07 14:35:09.927634,0,2025-11-07 14:35:12.863238231
2025-11-07 14:35:09.927634,4,2025-11-07 14:35:12.870930538
2025-11-07 14:35:09.927634,512,2025-11-07 14:35:12.878622846
2025-11-07 14:35:09.927634,0,2025-11-07 14:35:12.886315154
2025-11-07 14:35:09.927634,9,2025-11-07 14:35:12.894007462
2025-11-07 14:35:09.927634,3584,2025-11-07 14:35:12.901699769
2025-11-07 14:35:09.927634,0,2025-11-07 14:35:12.909392077
2025-11-07 14:35:09.927634,9,2025-11-07 14:35:12.917084385
2025-11-07 14:35:09.927634,2304,2025-11-07 14:35:12.924776692
2025-11-07 14:35:09.927634,0,2025-11-07 14:35:12.932469000
2025-11-07 14:35:09.927634,11,2025-11-07 14:35:12.940161308
2025-11-07 14:35:09.927634,2816,2025-11-07 14:35:12.947853615
2025-11-07 14:35:09.927634,0,2025-11-07 14:35:12.955545923
2025-11-07 14:35:09.927634,14,2025-11-07 14:35:12.963238231
2025-11-07 14:35:09.927634,3584,2025-11-07 14:35:12.970930538
2025-11-07 14:35:09.927634,0,2025-11-07 14:35:12.978622846
2025-11-07 14:35:09.927634,11,2025-11-07 14:35:12.986315154
2025-11-07 14:35:09.927634,4096,2025-11-07 14:35:12.994007462
2025-11-07 14:35:09.927634,0,2025-11-07 14:35:13.001699769
2025-11-07 14:35:09.927634,19,2025-11-07 14:35:13.009392077
2025-11-07 14:35:09.927634,2304,2025-11-07 14:35:13.017084385
2025-11-07 14:35:09.927634,0,2025-11-07 14:35:13.024776692
2025-11-07 14:35:09.927634,9,2025-11-07 14:35:13.032469000
2025-11-07 14:35:09.927634,2816,2025-11-07 14:35:13.040161308
2025-11-07 14:35:09.927634,0,2025-11-07 14:35:13.047853615
2025-11-07 14:35:09.927634,4,2025-11-07 14:35:13.055545923
2025-11-07 14:35:09.927634,1024,2025-11-07 14:35:13.063238231
2025-11-07 14:35:09.927634,0,2025-11-07 14:35:13.070930538
2025-11-07 14:35:09.927634,11,2025-11-07 14:35:13.078622846
2025-11-07 14:35:09.927634,4096,2025-11-07 14:35:13.086315154
2025-11-07 14:35:09.927634,0,2025-11-07 14:35:13.094007462
2025-11-07 14:35:09.927634,11,2025-11-07 14:35:13.101699769
2025-11-07 14:35:09.927634,0,2025-11-07 14:35:13.109392077
2025-11-07 14:35:09.927634,0,2025-11-07 14:35:13.117084385
2025-11-07 14:35:09.927634,2,2025-11-07 14:35:13.124776692
2025-11-07 14:35:09.927634,6656,2025-11-07 14:35:13.132469000
2025-11-07 14:35:09.927634,0,2025-11-07 14:35:13.140161308
2025-11-07 14:35:09.927634,38,2025-11-07 14:35:13.147853615
2025-11-07 14:35:09.927634,8448,2025-11-07 14:35:13.155545923
2025-11-07 14:35:09.927634,0,2025-11-07 14:35:13.163238231
2025-11-07 14:35:09.927634,35,2025-11-07 14:35:13.170930538
2025-11-07 14:35:09.927634,10240,2025-11-07 14:35:13.178622846
2025-11-07 14:35:09.927634,0,2025-11-07 14:35:13.186315154
2025-11-07 14:35:09.927634,26,2025-11-07 14:35:13.194007462
2025-11-07 14:35:09.927634,1792,2025-11-07 14:35:13.201699769
2025-11-07 14:35:09.927634,0,2025-11-07 14:35:13.209392077
2025-11-07 14:35:09.927634,9,2025-11-07 14:35:13.217084385
2025-11-07 14:35:09.927634,4864,2025-11-07 14:35:13.224776692
2025-11-07 14:35:09.927634,0,2025-11-07 14:35:13.232469000
2025-11-07 14:35:09.927634,19,2025-11-07 14:35:13.240161308
2025-11-07 14:35:09.927634,5888,2025-11-07 14:35:13.247853615
2025-11-07 14:35:09.927634,0,2025-11-07 14:35:13.255545923
2025-11-07 14:35:09.927634,21,2025-11-07 14:35:13.263238231
2025-11-07 14:35:09.927634,-4096,2025-11-07 14:35:13.270930538
2025-11-07 14:35:09.927634,-1,2025-11-07 14:35:13.278622846
2025-11-07 14:35:09.927634,-19,2025-11-07 14:35:13.286315154
2025-11-07 14:35:09.927634,-18945,2025-11-07 14:35:13.294007462
2025-11-07 14:35:09.927634,0,2025-11-07 14:35:13.301699769
2025-11-07 14:35:09.927634,683,2025-11-07 14:35:13.309392077
2025-11-07 14:35:10.512624,1385,2025-11-07 14:35:13.317084385
2025-11-07 14:35:10.512624,-21760,2025-11-07 14:35:13.324776692
2025-11-07 14:35:10.512624,6,2025-11-07 14:35:13.332469000
2025-11-07 14:35:10.512624,996,2025-11-07 14:35:13.340161308
2025-11-07 14:35:10.512624,-4864,2025-11-07 14:35:13.347853615
2025-11-07 14:35:10.512624,-1,2025-11-07 14:35:13.355545923
2025-11-07 14:35:10.512624,-210,2025-11-07 14:35:13.363238231
2025-11-07 14:35:10.512624,-9985,2025-11-07 14:35:13.370930538
2025-11-07 14:35:10.512624,-1,2025-11-07 14:35:13.378622846
2025-11-07 14:35:10.512624,-155,2025-11-07 14:35:13.386315154
2025-11-07 14:35:10.512624,8447,2025-11-07 14:35:13.394007462
2025-11-07 14:35:10.512624,-1,2025-11-07 14:35:13.401699769
2025-11-07 14:35:10.512624,-150,2025-11-07 14:35:13.409392077
2025-11-07 14:35:10.512624,29183,2025-11-07 14:35:13.417084385
2025-11-07 14:35:10.512624,-1,2025-11-07 14:35:13.424776692
2025-11-07 14:35:10.512624,-160,2025-11-07 14:35:13.432469000
2025-11-07 14:35:10.512624,29951,2025-11-07 14:35:13.440161308
2025-11-07 14:35:10.512624,-1,2025-11-07 14:35:13.447853615
2025-11-07 14:35:10.512624,-124,2025-11-07 14:35:13.455545923
2025-11-07 14:35:10.512624,-28929,2025-11-07 14:35:13.463238230
2025-11-07 14:35:10.512624,-1,2025-11-07 14:35:13.470930538
2025-11-07 14:35:10.512624,-112,2025-11-07 14:35:13.478622846
2025-11-07 14:35:10.512624,-27649,2025-11-07 14:35:13.486315154
2025-11-07 14:35:10.512624,-1,2025-11-07 14:35:13.494007462
2025-11-07 14:35:10.512624,-95,2025-11-07 14:35:13.501699769
2025-11-07 14:35:10.512624,-18689,2025-11-07 14:35:13.509392077
2025-11-07 14:35:10.512624,-1,2025-11-07 14:35:13.517084385
2025-11-07 14:35:10.512624,-54,2025-11-07 14:35:13.524776692
2025-11-07 14:35:10.512624,-12545,2025-11-07 14:35:13.532469000
2025-11-07 14:35:10.512624,-1,2025-11-07 14:35:13.540161308
2025-11-07 14:35:10.512624,-45,2025-11-07 14:35:13.547853615
2025-11-07 14:35:10.512624,-5633,2025-11-07 14:35:13.555545923
2025-11-07 14:35:10.512624,-1,2025-11-07 14:35:13.563238231
2025-11-07 14:35:10.512624,9,2025-11-07 14:35:13.570930538
2025-11-07 14:35:10.512624,8448,2025-11-07 14:35:13.578622846
2025-11-07 14:35:10.512624,0,2025-11-07 14:35:13.586315154
2025-11-07 14:35:10.512624,42,2025-11-07 14:35:13.594007462
2025-11-07 14:35:10.512624,18176,2025-11-07 14:35:13.601699769
2025-11-07 14:35:10.512624,0,2025-11-07 14:35:13.609392077
2025-11-07 14:35:10.512624,97,2025-11-07 14:35:13.617084385
2025-11-07 14:35:10.512624,24832,2025-11-07 14:35:13.624776692
2025-11-07 14:35:10.512624,0,2025-11-07 14:35:13.632469000
2025-11-07 14:35:10.512624,88,2025-11-07 14:35:13.640161308
2025-11-07 14:35:10.512624,19968,2025-11-07 14:35:13.647853615
2025-11-07 14:35:10.512624,0,2025-11-07 14:35:13.655545923
2025-11-07 14:35:10.512624,62,2025-11-07 14:35:13.663238231
2025-11-07 14:35:10.512624,7936,2025-11-07 14:35:13.670930538
2025-11-07 14:35:10.512624,0,2025-11-07 14:35:13.678622846
2025-11-07 14:35:10.512624,-19,2025-11-07 14:35:13.686315154
2025-11-07 14:35:10.512624,-17409,2025-11-07 14:35:13.694007462
2025-11-07 14:35:10.512624,-1,2025-11-07 14:35:13.701699769
2025-11-07 14:35:10.512624,-76,2025-11-07 14:35:13.709392077
2025-11-07 14:35:10.512624,-14849,2025-11-07 14:35:13.717084385
2025-11-07 14:35:10.512624,-1,2025-11-07 14:35:13.724776692
2025-11-07 14:35:10.512624,-66,2025-11-07 14:35:13.732469000
2025-11-07 14:35:10.512624,-21505,2025-11-07 14:35:13.740161308
2025-11-07 14:35:10.512624,-1,2025-11-07 14:35:13.747853615
2025-11-07 14:35:10.512624,-90,2025-11-07 14:35:13.755545923
2025-11-07 14:35:10.512624,-22785,2025-11-07 14:35:13.763238231
2025-11-07 14:35:10.512624,-1,2025-11-07 14:35:13.770930538
2025-11-07 14:35:10.512624,-78,2025-11-07 14:35:13.778622846
2025-11-07 14:35:10.512624,-13569,2025-11-07 14:35:13.786315154
2025-11-07 14:35:10.512624,-1,2025-11-07 14:35:13.794007462
2025-11-07 14:35:10.512624,-50,2025-11-07 14:35:13.801699769
2025-11-07 14:35:10.512624,-15617,2025-11-07 14:35:13.809392077
2025-11-07 14:35:10.512624,-1,2025-11-07 14:35:13.817084385
2025-11-07 14:35:10.512624,-57,2025-11-07 14:35:13.824776692
2025-11-07 14:35:10.512624,-9985,2025-11-07 14:35:13.832469000
2025-11-07 14:35:10.512624,-1,2025-11-07 14:35:13.840161308
2025-11-07 14:35:10.512624,-31,2025-11-07 14:35:13.847853615
2025-11-07 14:35:10.512624,-6401,2025-11-07 14:35:13.855545923
2025-11-07 14:35:10.512624,-1,2025-11-07 14:35:13.863238231
2025-11-07 14:35:10.512624,-23,2025-11-07 14:35:13.870930538
2025-11-07 14:35:10.512624,-6401,2025-11-07 14:35:13.878622846
2025-11-07 14:35:10.512624,-1,2025-11-07 14:35:13.886315154
2025-11-07 14:35:10.512624,-26,2025-11-07 14:35:13.894007462
2025-11-07 14:35:10.512624,-3329,2025-11-07 14:35:13.901699769
2025-11-07 14:35:10.512624,-1,2025-11-07 14:35:13.909392077
2025-11-07 14:35:10.512624,-2,2025-11-07 14:35:13.917084385
2025-11-07 14:35:10.512624,-257,2025-11-07 14:35:13.924776692
2025-11-07 14:35:10.512624,-1,2025-11-07 14:35:13.932469000
2025-11-07 14:35:10.512624,-7,2025-11-07 14:35:13.940161308
2025-11-07 14:35:10.512624,2047,2025-11-07 14:35:13.947853615
2025-11-07 14:35:10.512624,0,2025-11-07 14:35:13.955545923
2025-11-07 14:35:10.512624,23,2025-11-07 14:35:13.963238231
2025-11-07 14:35:10.512624,5376,2025-11-07 14:35:13.970930538
2025-11-07 14:35:10.512624,0,2025-11-07 14:35:13.978622846
2025-11-07 14:35:10.512624,21,2025-11-07 14:35:13.986315154
2025-11-07 14:35:10.512624,5888,2025-11-07 14:35:13.994007462
2025-11-07 14:35:10.512624,0,2025-11-07 14:35:14.001699769
2025-11-07 14:35:10.512624,21,2025-11-07 14:35:14.009392077
2025-11-07 14:35:10.512624,7936,2025-11-07 14:35:14.017084385
2025-11-07 14:35:10.512624,0,2025-11-07 14:35:14.024776692
2025-11-07 14:35:10.512624,33,2025-11-07 14:35:14.032469000
2025-11-07 14:35:10.512624,6656,2025-11-07 14:35:14.040161308
2025-11-07 14:35:10.512624,0,2025-11-07 14:35:14.047853615
2025-11-07 14:35:10.512624,23,2025-11-07 14:35:14.055545923
2025-11-07 14:35:10.512624,4864,2025-11-07 14:35:14.063238231
2025-11-07 14:35:10.512624,0,2025-11-07 14:35:14.070930538
2025-11-07 14:35:10.512624,21,2025-11-07 14:35:14.078622846
2025-11-07 14:35:10.512624,8448,2025-11-07 14:35:14.086315154
2025-11-07 14:35:10.512624,0,2025-11-07 14:35:14.094007462
2025-11-07 14:35:10.512624,28,2025-11-07 14:35:14.101699769
2025-11-07 14:35:10.512624,3584,2025-11-07 14:35:14.109392077
2025-11-07 14:35:10.512624,0,2025-11-07 14:35:14.117084385
2025-11-07 14:35:10.512624,31,2025-11-07 14:35:14.124776692
2025-11-07 14:35:10.512624,12032,2025-11-07 14:35:14.132469000
2025-11-07 14:35:10.512624,0,2025-11-07 14:35:14.140161308
2025-11-07 14:35:10.512624,40,2025-11-07 14:35:14.147853615
2025-11-07 14:35:11.052639,35,2025-11-07 14:35:14.155545923
2025-11-07 14:35:11.052639,10240,2025-11-07 14:35:14.163238231
2025-11-07 14:35:11.052639,0,2025-11-07 14:35:14.170930538
2025-11-07 14:35:11.052639,40,2025-11-07 14:35:14.178622846
2025-11-07 14:35:11.052639,9728,2025-11-07 14:35:14.186315154
2025-11-07 14:35:11.052639,0,2025-11-07 14:35:14.194007462
2025-11-07 14:35:11.052639,42,2025-11-07 14:35:14.201699769
2025-11-07 14:35:11.052639,8448,2025-11-07 14:35:14.209392077
2025-11-07 14:35:11.052639,0,2025-11-07 14:35:14.217084385
2025-11-07 14:35:11.052639,23,2025-11-07 14:35:14.224776692
2025-11-07 14:35:11.052639,9728,2025-11-07 14:35:14.232469000
2025-11-07 14:35:11.052639,0,2025-11-07 14:35:14.240161308
2025-11-07 14:35:11.052639,54,2025-11-07 14:35:14.247853615
2025-11-07 14:35:11.052639,19456,2025-11-07 14:35:14.255545923
2025-11-07 14:35:11.052639,0,2025-11-07 14:35:14.263238231
2025-11-07 14:35:11.052639,100,2025-11-07 14:35:14.270930538
2025-11-07 14:35:11.052639,23808,2025-11-07 14:35:14.278622846
2025-11-07 14:35:11.052639,0,2025-11-07 14:35:14.286315154
2025-11-07 14:35:11.052639,78,2025-11-07 14:35:14.294007462
2025-11-07 14:35:11.052639,19456,2025-11-07 14:35:14.301699769
2025-11-07 14:35:11.052639,0,2025-11-07 14:35:14.309392077
2025-11-07 14:35:11.052639,69,2025-11-07 14:35:14.317084385
2025-11-07 14:35:11.052639,16384,2025-11-07 14:35:14.324776692
2025-11-07 14:35:11.052639,0,2025-11-07 14:35:14.332469000
2025-11-07 14:35:11.052639,66,2025-11-07 14:35:14.340161308
2025-11-07 14:35:11.052639,18176,2025-11-07 14:35:14.347853615
2025-11-07 14:35:11.052639,0,2025-11-07 14:35:14.355545923
2025-11-07 14:35:11.052639,66,2025-11-07 14:35:14.363238231
2025-11-07 14:35:11.052639,15872,2025-11-07 14:35:14.370930538
2025-11-07 14:35:11.052639,0,2025-11-07 14:35:14.378622846
2025-11-07 14:35:11.052639,54,2025-11-07 14:35:14.386315154
2025-11-07 14:35:11.052639,4096,2025-11-07 14:35:14.394007462
2025-11-07 14:35:11.052639,0,2025-11-07 14:35:14.401699769
2025-11-07 14:35:11.052639,90,2025-11-07 14:35:14.409392077
2025-11-07 14:35:11.052639,-10240,2025-11-07 14:35:14.417084385
2025-11-07 14:35:11.052639,1,2025-11-07 14:35:14.424776692
2025-11-07 14:35:11.052639,1124,2025-11-07 14:35:14.432469000
2025-11-07 14:35:11.052639,-24832,2025-11-07 14:35:14.440161308
2025-11-07 14:35:11.052639,6,2025-11-07 14:35:14.447853615
2025-11-07 14:35:11.052639,1452,2025-11-07 14:35:14.455545923
2025-11-07 14:35:11.052639,-23552,2025-11-07 14:35:14.463238230
2025-11-07 14:35:11.052639,1,2025-11-07 14:35:14.470930538
2025-11-07 14:35:11.052639,-162,2025-11-07 14:35:14.478622846
2025-11-07 14:35:11.052639,-3841,2025-11-07 14:35:14.486315154
2025-11-07 14:35:11.052639,-1,2025-11-07 14:35:14.494007462
2025-11-07 14:35:11.052639,-21,2025-11-07 14:35:14.501699769
2025-11-07 14:35:11.052639,18175,2025-11-07 14:35:14.509392077
2025-11-07 14:35:11.052639,-1,2025-11-07 14:35:14.517084385
2025-11-07 14:35:11.052639,-136,2025-11-07 14:35:14.524776692
2025-11-07 14:35:11.052639,-20481,2025-11-07 14:35:14.532469000
2025-11-07 14:35:11.052639,-1,2025-11-07 14:35:14.540161308
2025-11-07 14:35:11.052639,-121,2025-11-07 14:35:14.547853615
2025-11-07 14:35:11.052639,-26625,2025-11-07 14:35:14.555545923
2025-11-07 14:35:11.052639,-1,2025-11-07 14:35:14.563238231
2025-11-07 14:35:11.052639,-62,2025-11-07 14:35:14.570930538
2025-11-07 14:35:11.052639,-16129,2025-11-07 14:35:14.578622846
2025-11-07 14:35:11.052639,-1,2025-11-07 14:35:14.586315154
2025-11-07 14:35:11.052639,-66,2025-11-07 14:35:14.594007462
2025-11-07 14:35:11.052639,-10497,2025-11-07 14:35:14.601699769
2025-11-07 14:35:11.052639,-1,2025-11-07 14:35:14.609392077
2025-11-07 14:35:11.052639,-31,2025-11-07 14:35:14.617084385
2025-11-07 14:35:11.052639,-3841,2025-11-07 14:35:14.624776692
2025-11-07 14:35:11.052639,-1,2025-11-07 14:35:14.632469000
2025-11-07 14:35:11.052639,7,2025-11-07 14:35:14.640161308
2025-11-07 14:35:11.052639,5888,2025-11-07 14:35:14.647853615
2025-11-07 14:35:11.052639,0,2025-11-07 14:35:14.655545923
2025-11-07 14:35:11.052639,33,2025-11-07 14:35:14.663238231
2025-11-07 14:35:11.052639,14592,2025-11-07 14:35:14.670930538
2025-11-07 14:35:11.052639,0,2025-11-07 14:35:14.678622846
2025-11-07 14:35:11.052639,83,2025-11-07 14:35:14.686315154
2025-11-07 14:35:11.052639,28672,2025-11-07 14:35:14.694007462
2025-11-07 14:35:11.052639,0,2025-11-07 14:35:14.701699769
2025-11-07 14:35:11.052639,145,2025-11-07 14:35:14.709392077
2025-11-07 14:35:11.052639,-22272,2025-11-07 14:35:14.717084385
2025-11-07 14:35:11.052639,0,2025-11-07 14:35:14.724776692
2025-11-07 14:35:11.052639,188,2025-11-07 14:35:14.732469000
2025-11-07 14:35:11.052639,-12544,2025-11-07 14:35:14.740161308
2025-11-07 14:35:11.052639,0,2025-11-07 14:35:14.747853615
2025-11-07 14:35:11.052639,212,2025-11-07 14:35:14.755545923
2025-11-07 14:35:11.052639,-16128,2025-11-07 14:35:14.763238231
2025-11-07 14:35:11.052639,0,2025-11-07 14:35:14.770930538
2025-11-07 14:35:11.052639,162,2025-11-07 14:35:14.778622846
2025-11-07 14:35:11.052639,-32768,2025-11-07 14:35:14.786315154
2025-11-07 14:35:11.052639,0,2025-11-07 14:35:14.794007462
2025-11-07 14:35:11.052639,74,2025-11-07 14:35:14.801699769
2025-11-07 14:35:11.052639,3584,2025-11-07 14:35:14.809392077
2025-11-07 14:35:11.052639,0,2025-11-07 14:35:14.817084385
2025-11-07 14:35:11.052639,-16,2025-11-07 14:35:14.824776692
2025-11-07 14:35:11.052639,-6401,2025-11-07 14:35:14.832469000
2025-11-07 14:35:11.052639,-1,2025-11-07 14:35:14.840161308
2025-11-07 14:35:11.052639,-38,2025-11-07 14:35:14.847853615
2025-11-07 14:35:11.052639,-11265,2025-11-07 14:35:14.855545923
2025-11-07 14:35:11.052639,-1,2025-11-07 14:35:14.863238231
2025-11-07 14:35:11.052639,-50,2025-11-07 14:35:14.870930538
2025-11-07 14:35:11.052639,-11777,2025-11-07 14:35:14.878622846
2025-11-07 14:35:11.052639,-1,2025-11-07 14:35:14.886315154
2025-11-07 14:35:11.052639,-40,2025-11-07 14:35:14.894007462
2025-11-07 14:35:11.052639,-8705,2025-11-07 14:35:14.901699769
2025-11-07 14:35:11.052639,-1,2025-11-07 14:35:14.909392077
2025-11-07 14:35:11.052639,-38,2025-11-07 14:35:14.917084385
2025-11-07 14:35:11.052639,-8705,2025-11-07 14:35:14.924776692
2025-11-07 14:35:11.052639,-1,2025-11-07 14:35:14.932469000
2025-11-07 14:35:11.052639,-26,2025-11-07 14:35:14.940161308
2025-11-07 14:35:11.052639,-5633,2025-11-07 14:35:14.947853615
2025-11-07 14:35:11.052639,-1,2025-11-07 14:35:14.955545923
2025-11-07 14:35:11.052639,-21,2025-11-07 14:35:14.963238231
2025-11-07 14:35:11.052639,-2049,2025-11-07 14:35:14.970930538
2025-11-07 14:35:11.052639,-1,2025-11-07 14:35:14.978622846
2025-11-07 14:35:11.052639,2,2025-11-07 14:35:14.986315154
2025-11-07 14:35:11.637620,14,2025-11-07 14:35:14.994007462
2025-11-07 14:35:11.637620,4096,2025-11-07 14:35:15.001699769
2025-11-07 14:35:11.637620,0,2025-11-07 14:35:15.009392077
2025-11-07 14:35:11.637620,23,2025-11-07 14:35:15.017084385
2025-11-07 14:35:11.637620,8448,2025-11-07 14:35:15.024776692
2025-11-07 14:35:11.637620,0,2025-11-07 14:35:15.032469000
2025-11-07 14:35:11.637620,35,2025-11-07 14:35:15.040161308
2025-11-07 14:35:11.637620,9728,2025-11-07 14:35:15.047853615
2025-11-07 14:35:11.637620,0,2025-11-07 14:35:15.055545923
2025-11-07 14:35:11.637620,52,2025-11-07 14:35:15.063238231
2025-11-07 14:35:11.637620,16384,2025-11-07 14:35:15.070930538
2025-11-07 14:35:11.637620,0,2025-11-07 14:35:15.078622846
2025-11-07 14:35:11.637620,66,2025-11-07 14:35:15.086315154
2025-11-07 14:35:11.637620,15104,2025-11-07 14:35:15.094007462
2025-11-07 14:35:11.637620,0,2025-11-07 14:35:15.101699769
2025-11-07 14:35:11.637620,59,2025-11-07 14:35:15.109392077
2025-11-07 14:35:11.637620,16896,2025-11-07 14:35:15.117084385
2025-11-07 14:35:11.637620,0,2025-11-07 14:35:15.124776692
2025-11-07 14:35:11.637620,66,2025-11-07 14:35:15.132469000
2025-11-07 14:35:11.637620,16384,2025-11-07 14:35:15.140161308
2025-11-07 14:35:11.637620,0,2025-11-07 14:35:15.147853615
2025-11-07 14:35:11.637620,62,2025-11-07 14:35:15.155545923
2025-11-07 14:35:11.637620,15104,2025-11-07 14:35:15.163238231
2025-11-07 14:35:11.637620,0,2025-11-07 14:35:15.170930538
2025-11-07 14:35:11.637620,62,2025-11-07 14:35:15.178622846
2025-11-07 14:35:11.637620,15104,2025-11-07 14:35:15.186315154
2025-11-07 14:35:11.637620,0,2025-11-07 14:35:15.194007462
2025-11-07 14:35:11.637620,59,2025-11-07 14:35:15.201699769
2025-11-07 14:35:11.637620,15104,2025-11-07 14:35:15.209392077
2025-11-07 14:35:11.637620,0,2025-11-07 14:35:15.217084385
2025-11-07 14:35:11.637620,54,2025-11-07 14:35:15.224776692
2025-11-07 14:35:11.637620,13312,2025-11-07 14:35:15.232469000
2025-11-07 14:35:11.637620,0,2025-11-07 14:35:15.240161308
2025-11-07 14:35:11.637620,52,2025-11-07 14:35:15.247853615
2025-11-07 14:35:11.637620,13312,2025-11-07 14:35:15.255545923
2025-11-07 14:35:11.637620,0,2025-11-07 14:35:15.263238231
2025-11-07 14:35:11.637620,45,2025-11-07 14:35:15.270930538
2025-11-07 14:35:11.637620,8960,2025-11-07 14:35:15.278622846
2025-11-07 14:35:11.637620,0,2025-11-07 14:35:15.286315154
2025-11-07 14:35:11.637620,35,2025-11-07 14:35:15.294007462
2025-11-07 14:35:11.637620,10240,2025-11-07 14:35:15.301699769
2025-11-07 14:35:11.637620,0,2025-11-07 14:35:15.309392077
2025-11-07 14:35:11.637620,57,2025-11-07 14:35:15.317084385
2025-11-07 14:35:11.637620,19456,2025-11-07 14:35:15.324776692
2025-11-07 14:35:11.637620,0,2025-11-07 14:35:15.332469000
2025-11-07 14:35:11.637620,83,2025-11-07 14:35:15.340161308
2025-11-07 14:35:11.637620,19968,2025-11-07 14:35:15.347853615
2025-11-07 14:35:11.637620,0,2025-11-07 14:35:15.355545923
2025-11-07 14:35:11.637620,76,2025-11-07 14:35:15.363238231
2025-11-07 14:35:11.637620,18176,2025-11-07 14:35:15.370930538
2025-11-07 14:35:11.637620,0,2025-11-07 14:35:15.378622846
2025-11-07 14:35:11.637620,62,2025-11-07 14:35:15.386315154
2025-11-07 14:35:11.637620,14592,2025-11-07 14:35:15.394007462
2025-11-07 14:35:11.637620,0,2025-11-07 14:35:15.401699769
2025-11-07 14:35:11.637620,64,2025-11-07 14:35:15.409392077
2025-11-07 14:35:11.637620,16896,2025-11-07 14:35:15.417084385
2025-11-07 14:35:11.637620,0,2025-11-07 14:35:15.424776692
2025-11-07 14:35:11.637620,62,2025-11-07 14:35:15.432469000
2025-11-07 14:35:11.637620,15872,2025-11-07 14:35:15.440161308
2025-11-07 14:35:11.637620,0,2025-11-07 14:35:15.447853615
2025-11-07 14:35:11.637620,47,2025-11-07 14:35:15.455545923
2025-11-07 14:35:11.637620,5888,2025-11-07 14:35:15.463238230
2025-11-07 14:35:11.637620,0,2025-11-07 14:35:15.470930538
2025-11-07 14:35:11.637620,162,2025-11-07 14:35:15.478622846
2025-11-07 14:35:11.637620,28928,2025-11-07 14:35:15.486315154
2025-11-07 14:35:11.637620,2,2025-11-07 14:35:15.494007462
2025-11-07 14:35:11.637620,1359,2025-11-07 14:35:15.501699769
2025-11-07 14:35:11.637620,8192,2025-11-07 14:35:15.509392077
2025-11-07 14:35:11.637620,7,2025-11-07 14:35:15.517084385
2025-11-07 14:35:11.637620,1256,2025-11-07 14:35:15.524776692
2025-11-07 14:35:11.637620,-29696,2025-11-07 14:35:15.532469000
2025-11-07 14:35:11.637620,0,2025-11-07 14:35:15.540161308
2025-11-07 14:35:11.637620,-210,2025-11-07 14:35:15.547853615
2025-11-07 14:35:11.637620,-257,2025-11-07 14:35:15.555545923
2025-11-07 14:35:11.637620,-1,2025-11-07 14:35:15.563238231
2025-11-07 14:35:11.637620,-90,2025-11-07 14:35:15.570930538
2025-11-07 14:35:11.637620,8959,2025-11-07 14:35:15.578622846
2025-11-07 14:35:11.637620,-1,2025-11-07 14:35:15.586315154
2025-11-07 14:35:11.637620,-138,2025-11-07 14:35:15.594007462
2025-11-07 14:35:11.637620,-28929,2025-11-07 14:35:15.601699769
2025-11-07 14:35:11.637620,-1,2025-11-07 14:35:15.609392077
2025-11-07 14:35:11.637620,-152,2025-11-07 14:35:15.617084385
2025-11-07 14:35:11.637620,-31489,2025-11-07 14:35:15.624776692
2025-11-07 14:35:11.637620,-1,2025-11-07 14:35:15.632469000
2025-11-07 14:35:11.637620,-100,2025-11-07 14:35:15.640161308
2025-11-07 14:35:11.637620,-28417,2025-11-07 14:35:15.647853615
2025-11-07 14:35:11.637620,-1,2025-11-07 14:35:15.655545923
2025-11-07 14:35:11.637620,-100,2025-11-07 14:35:15.663238231
2025-11-07 14:35:11.637620,-19201,2025-11-07 14:35:15.670930538
2025-11-07 14:35:11.637620,-1,2025-11-07 14:35:15.678622846
2025-11-07 14:35:11.637620,-69,2025-11-07 14:35:15.686315154
2025-11-07 14:35:11.637620,-15617,2025-11-07 14:35:15.694007462
2025-11-07 14:35:11.637620,-1,2025-11-07 14:35:15.701699769
2025-11-07 14:35:11.637620,-45,2025-11-07 14:35:15.709392077
2025-11-07 14:35:11.637620,-6913,2025-11-07 14:35:15.717084385
2025-11-07 14:35:11.637620,-1,2025-11-07 14:35:15.724776692
2025-11-07 14:35:11.637620,-19,2025-11-07 14:35:15.732469000
2025-11-07 14:35:11.637620,767,2025-11-07 14:35:15.740161308
2025-11-07 14:35:11.637620,0,2025-11-07 14:35:15.747853615
2025-11-07 14:35:11.637620,23,2025-11-07 14:35:15.755545923
2025-11-07 14:35:11.637620,12032,2025-11-07 14:35:15.763238231
2025-11-07 14:35:11.637620,0,2025-11-07 14:35:15.770930538
2025-11-07 14:35:11.637620,76,2025-11-07 14:35:15.778622846
2025-11-07 14:35:11.637620,26880,2025-11-07 14:35:15.786315154
2025-11-07 14:35:11.637620,0,2025-11-07 14:35:15.794007462
2025-11-07 14:35:11.637620,124,2025-11-07 14:35:15.801699769
2025-11-07 14:35:11.637620,-31488,2025-11-07 14:35:15.809392077
2025-11-07 14:35:11.637620,0,2025-11-07 14:35:15.817084385
2025-11-07 14:35:11.637620,131,2025-11-07 14:35:15.824776692
2025-11-07 14:35:12.178033,114,2025-11-07 14:35:15.832469000
2025-11-07 14:35:12.178033,22528,2025-11-07 14:35:15.840161308
2025-11-07 14:35:12.178033,0,2025-11-07 14:35:15.847853615
2025-11-07 14:35:12.178033,42,2025-11-07 14:35:15.855545923
2025-11-07 14:35:12.178033,-2304,2025-11-07 14:35:15.863238231
2025-11-07 14:35:12.178033,-1,2025-11-07 14:35:15.870930538
2025-11-07 14:35:12.178033,-45,2025-11-07 14:35:15.878622846
2025-11-07 14:35:12.178033,-16641,2025-11-07 14:35:15.886315154
2025-11-07 14:35:12.178033,-1,2025-11-07 14:35:15.894007462
2025-11-07 14:35:12.178033,-85,2025-11-07 14:35:15.901699769
2025-11-07 14:35:12.178033,-23553,2025-11-07 14:35:15.909392077
2025-11-07 14:35:12.178033,-1,2025-11-07 14:35:15.917084385
2025-11-07 14:35:12.178033,-90,2025-11-07 14:35:15.924776692
2025-11-07 14:35:12.178033,-20481,2025-11-07 14:35:15.932469000
2025-11-07 14:35:12.178033,-1,2025-11-07 14:35:15.940161308
2025-11-07 14:35:12.178033,-62,2025-11-07 14:35:15.947853615
2025-11-07 14:35:12.178033,-14849,2025-11-07 14:35:15.955545923
2025-11-07 14:35:12.178033,-1,2025-11-07 14:35:15.963238231
2025-11-07 14:35:12.178033,-69,2025-11-07 14:35:15.970930538
2025-11-07 14:35:12.178033,-14849,2025-11-07 14:35:15.978622846
2025-11-07 14:35:12.178033,-1,2025-11-07 14:35:15.986315154
2025-11-07 14:35:12.178033,-47,2025-11-07 14:35:15.994007462
2025-11-07 14:35:12.178033,-12545,2025-11-07 14:35:16.001699769
2025-11-07 14:35:12.178033,-1,2025-11-07 14:35:16.009392077
2025-11-07 14:35:12.178033,-40,2025-11-07 14:35:16.017084385
2025-11-07 14:35:12.178033,-8193,2025-11-07 14:35:16.024776692
2025-11-07 14:35:12.178033,-1,2025-11-07 14:35:16.032469000
2025-11-07 14:35:12.178033,-33,2025-11-07 14:35:16.040161308
2025-11-07 14:35:12.178033,-8705,2025-11-07 14:35:16.047853615
2025-11-07 14:35:12.178033,-1,2025-11-07 14:35:16.055545923
2025-11-07 14:35:12.178033,-31,2025-11-07 14:35:16.063238231
2025-11-07 14:35:12.178033,-4609,2025-11-07 14:35:16.070930538
2025-11-07 14:35:12.178033,-1,2025-11-07 14:35:16.078622846
2025-11-07 14:35:12.178033,-14,2025-11-07 14:35:16.086315154
2025-11-07 14:35:12.178033,-2561,2025-11-07 14:35:16.094007462
2025-11-07 14:35:12.178033,-1,2025-11-07 14:35:16.101699769
2025-11-07 14:35:12.178033,-4,2025-11-07 14:35:16.109392077
2025-11-07 14:35:12.178033,767,2025-11-07 14:35:16.117084385
2025-11-07 14:35:12.178033,0,2025-11-07 14:35:16.124776692
2025-11-07 14:35:12.178033,0,2025-11-07 14:35:16.132469000
2025-11-07 14:35:12.178033,-1024,2025-11-07 14:35:16.140161308
2025-11-07 14:35:12.178033,-1,2025-11-07 14:35:16.147853615
2025-11-07 14:35:12.178033,0,2025-11-07 14:35:16.155545923
2025-11-07 14:35:12.178033,2816,2025-11-07 14:35:16.163238231
2025-11-07 14:35:12.178033,0,2025-11-07 14:35:16.170930538
2025-11-07 14:35:12.178033,9,2025-11-07 14:35:16.178622846
2025-11-07 14:35:12.178033,512,2025-11-07 14:35:16.186315154
2025-11-07 14:35:12.178033,0,2025-11-07 14:35:16.194007462
2025-11-07 14:35:12.178033,4,2025-11-07 14:35:16.201699769
2025-11-07 14:35:12.178033,2816,2025-11-07 14:35:16.209392077
2025-11-07 14:35:12.178033,0,2025-11-07 14:35:16.217084385
2025-11-07 14:35:12.178033,9,2025-11-07 14:35:16.224776692
2025-11-07 14:35:12.178033,1792,2025-11-07 14:35:16.232469000
2025-11-07 14:35:12.178033,0,2025-11-07 14:35:16.240161308
2025-11-07 14:35:12.178033,11,2025-11-07 14:35:16.247853615
2025-11-07 14:35:12.178033,2816,2025-11-07 14:35:16.255545923
2025-11-07 14:35:12.178033,0,2025-11-07 14:35:16.263238231
2025-11-07 14:35:12.178033,9,2025-11-07 14:35:16.270930538
2025-11-07 14:35:12.178033,2816,2025-11-07 14:35:16.278622846
2025-11-07 14:35:12.178033,0,2025-11-07 14:35:16.286315154
2025-11-07 14:35:12.178033,19,2025-11-07 14:35:16.294007462
2025-11-07 14:35:12.178033,5376,2025-11-07 14:35:16.301699769
2025-11-07 14:35:12.178033,0,2025-11-07 14:35:16.309392077
2025-11-07 14:35:12.178033,21,2025-11-07 14:35:16.317084385
2025-11-07 14:35:12.178033,5376,2025-11-07 14:35:16.324776692
2025-11-07 14:35:12.178033,0,2025-11-07 14:35:16.332469000
2025-11-07 14:35:12.178033,28,2025-11-07 14:35:16.340161308
2025-11-07 14:35:12.178033,7168,2025-11-07 14:35:16.347853615
2025-11-07 14:35:12.178033,0,2025-11-07 14:35:16.355545923
2025-11-07 14:35:12.178033,31,2025-11-07 14:35:16.363238231
2025-11-07 14:35:12.178033,8960,2025-11-07 14:35:16.370930538
2025-11-07 14:35:12.178033,0,2025-11-07 14:35:16.378622846
2025-11-07 14:35:12.178033,28,2025-11-07 14:35:16.386315154
2025-11-07 14:35:12.178033,6656,2025-11-07 14:35:16.394007462
2025-11-07 14:35:12.178033,0,2025-11-07 14:35:16.401699769
2025-11-07 14:35:12.178033,28,2025-11-07 14:35:16.409392077
2025-11-07 14:35:12.178033,7936,2025-11-07 14:35:16.417084385
2025-11-07 14:35:12.178033,0,2025-11-07 14:35:16.424776692
2025-11-07 14:35:12.178033,33,2025-11-07 14:35:16.432469000
2025-11-07 14:35:12.178033,7936,2025-11-07 14:35:16.440161308
2025-11-07 14:35:12.178033,0,2025-11-07 14:35:16.447853615
2025-11-07 14:35:12.178033,31,2025-11-07 14:35:16.455545923
2025-11-07 14:35:12.178033,6656,2025-11-07 14:35:16.463238230
2025-11-07 14:35:12.178033,0,2025-11-07 14:35:16.470930538
2025-11-07 14:35:12.178033,14,2025-11-07 14:35:16.478622846
2025-11-07 14:35:12.178033,1024,2025-11-07 14:35:16.486315154
2025-11-07 14:35:12.178033,0,2025-11-07 14:35:16.494007462
2025-11-07 14:35:12.178033,9,2025-11-07 14:35:16.501699769
2025-11-07 14:35:12.178033,6656,2025-11-07 14:35:16.509392077
2025-11-07 14:35:12.178033,0,2025-11-07 14:35:16.517084385
2025-11-07 14:35:12.178033,42,2025-11-07 14:35:16.524776692
2025-11-07 14:35:12.178033,13312,2025-11-07 14:35:16.532469000
2025-11-07 14:35:12.178033,0,2025-11-07 14:35:16.540161308
2025-11-07 14:35:12.178033,54,2025-11-07 14:35:16.547853615
2025-11-07 14:35:12.178033,14592,2025-11-07 14:35:16.555545923
2025-11-07 14:35:12.178033,0,2025-11-07 14:35:16.563238231
2025-11-07 14:35:12.178033,52,2025-11-07 14:35:16.570930538
2025-11-07 14:35:12.178033,9728,2025-11-07 14:35:16.578622846
2025-11-07 14:35:12.178033,0,2025-11-07 14:35:16.586315154
2025-11-07 14:35:12.178033,33,2025-11-07 14:35:16.594007462
2025-11-07 14:35:12.178033,10752,2025-11-07 14:35:16.601699769
2025-11-07 14:35:12.178033,0,2025-11-07 14:35:16.609392077
2025-11-07 14:35:12.178033,45,2025-11-07 14:35:16.617084385
2025-11-07 14:35:12.178033,10752,2025-11-07 14:35:16.624776692
2025-11-07 14:35:12.178033,0,2025-11-07 14:35:16.632469000
2025-11-07 14:35:12.178033,40,2025-11-07 14:35:16.640161308
2025-11-07 14:35:12.178033,8448,2025-11-07 14:35:16.647853615
2025-11-07 14:35:12.178033,0,2025-11-07 14:35:16.655545923
2025-11-07 14:35:12.178033,9,2025-11-07 14:35:16.663238231
2025-11-07 14:35:12.762620,64,2025-11-07 14:35:16.670930538
2025-11-07 14:35:12.762620,-24320,2025-11-07 14:35:16.678622846
2025-11-07 14:35:12.762620,1,2025-11-07 14:35:16.686315154
2025-11-07 14:35:12.762620,1148,2025-11-07 14:35:16.694007462
2025-11-07 14:35:12.762620,18688,2025-11-07 14:35:16.701699769
2025-11-07 14:35:12.762620,7,2025-11-07 14:35:16.709392077
2025-11-07 14:35:12.762620,1686,2025-11-07 14:35:16.717084385
2025-11-07 14:35:12.762620,5120,2025-11-07 14:35:16.724776692
2025-11-07 14:35:12.762620,2,2025-11-07 14:35:16.732469000
2025-11-07 14:35:12.762620,-231,2025-11-07 14:35:16.740161308
2025-11-07 14:35:12.762620,-20481,2025-11-07 14:35:16.747853615
2025-11-07 14:35:12.762620,-1,2025-11-07 14:35:16.755545923
2025-11-07 14:35:12.762620,-14,2025-11-07 14:35:16.763238231
2025-11-07 14:35:12.762620,11007,2025-11-07 14:35:16.770930538
2025-11-07 14:35:12.762620,-1,2025-11-07 14:35:16.778622846
2025-11-07 14:35:12.762620,-191,2025-11-07 14:35:16.786315154
2025-11-07 14:35:12.762620,-28417,2025-11-07 14:35:16.794007462
2025-11-07 14:35:12.762620,-1,2025-11-07 14:35:16.801699769
2025-11-07 14:35:12.762620,-152,2025-11-07 14:35:16.809392077
2025-11-07 14:35:12.762620,27391,2025-11-07 14:35:16.817084385
2025-11-07 14:35:12.762620,-1,2025-11-07 14:35:16.824776692
2025-11-07 14:35:12.762620,-109,2025-11-07 14:35:16.832469000
2025-11-07 14:35:12.762620,-27137,2025-11-07 14:35:16.840161308
2025-11-07 14:35:12.762620,-1,2025-11-07 14:35:16.847853615
2025-11-07 14:35:12.762620,-102,2025-11-07 14:35:16.855545923
2025-11-07 14:35:12.762620,-22273,2025-11-07 14:35:16.863238231
2025-11-07 14:35:12.762620,-1,2025-11-07 14:35:16.870930538
2025-11-07 14:35:12.762620,-83,2025-11-07 14:35:16.878622846
2025-11-07 14:35:12.762620,-18689,2025-11-07 14:35:16.886315154
2025-11-07 14:35:12.762620,-1,2025-11-07 14:35:16.894007462
2025-11-07 14:35:12.762620,-52,2025-11-07 14:35:16.901699769
2025-11-07 14:35:12.762620,-11777,2025-11-07 14:35:16.909392077
2025-11-07 14:35:12.762620,-1,2025-11-07 14:35:16.917084385
2025-11-07 14:35:12.762620,-50,2025-11-07 14:35:16.924776692
2025-11-07 14:35:12.762620,-7681,2025-11-07 14:35:16.932469000
2025-11-07 14:35:12.762620,-1,2025-11-07 14:35:16.940161308
2025-11-07 14:35:12.762620,-9,2025-11-07 14:35:16.947853615
2025-11-07 14:35:12.762620,1279,2025-11-07 14:35:16.955545923
2025-11-07 14:35:12.762620,0,2025-11-07 14:35:16.963238231
2025-11-07 14:35:12.762620,28,2025-11-07 14:35:16.970930538
2025-11-07 14:35:12.762620,13824,2025-11-07 14:35:16.978622846
2025-11-07 14:35:12.762620,0,2025-11-07 14:35:16.986315154
2025-11-07 14:35:12.762620,74,2025-11-07 14:35:16.994007462
2025-11-07 14:35:12.762620,23808,2025-11-07 14:35:17.001699769
2025-11-07 14:35:12.762620,0,2025-11-07 14:35:17.009392077
2025-11-07 14:35:12.762620,102,2025-11-07 14:35:17.017084385
2025-11-07 14:35:12.762620,25600,2025-11-07 14:35:17.024776692
2025-11-07 14:35:12.762620,0,2025-11-07 14:35:17.032469000
2025-11-07 14:35:12.762620,88,2025-11-07 14:35:17.040161308
2025-11-07 14:35:12.762620,15872,2025-11-07 14:35:17.047853615
2025-11-07 14:35:12.762620,0,2025-11-07 14:35:17.055545923
2025-11-07 14:35:12.762620,28,2025-11-07 14:35:17.063238231
2025-11-07 14:35:12.762620,-2816,2025-11-07 14:35:17.070930538
2025-11-07 14:35:12.762620,-1,2025-11-07 14:35:17.078622846
2025-11-07 14:35:12.762620,-40,2025-11-07 14:35:17.086315154
2025-11-07 14:35:12.762620,-12545,2025-11-07 14:35:17.094007462
2025-11-07 14:35:12.762620,-1,2025-11-07 14:35:17.101699769
2025-11-07 14:35:12.762620,-59,2025-11-07 14:35:17.109392077
2025-11-07 14:35:12.762620,-17921,2025-11-07 14:35:17.117084385
2025-11-07 14:35:12.762620,-1,2025-11-07 14:35:17.124776692
2025-11-07 14:35:12.762620,-69,2025-11-07 14:35:17.132469000
2025-11-07 14:35:12.762620,-17409,2025-11-07 14:35:17.140161308
2025-11-07 14:35:12.762620,-1,2025-11-07 14:35:17.147853615
2025-11-07 14:35:12.762620,-66,2025-11-07 14:35:17.155545923
2025-11-07 14:35:12.762620,-13569,2025-11-07 14:35:17.163238231
2025-11-07 14:35:12.762620,-1,2025-11-07 14:35:17.170930538
2025-11-07 14:35:12.762620,-40,2025-11-07 14:35:17.178622846
2025-11-07 14:35:12.762620,-9473,2025-11-07 14:35:17.186315154
2025-11-07 14:35:12.762620,-1,2025-11-07 14:35:17.194007462
2025-11-07 14:35:12.762620,-42,2025-11-07 14:35:17.201699769
2025-11-07 14:35:12.762620,-8705,2025-11-07 14:35:17.209392077
2025-11-07 14:35:12.762620,-1,2025-11-07 14:35:17.217084385
2025-11-07 14:35:12.762620,-28,2025-11-07 14:35:17.224776692
2025-11-07 14:35:12.762620,-6401,2025-11-07 14:35:17.232469000
2025-11-07 14:35:12.762620,-1,2025-11-07 14:35:17.240161308
2025-11-07 14:35:12.762620,-23,2025-11-07 14:35:17.247853615
2025-11-07 14:35:12.762620,-5121,2025-11-07 14:35:17.255545923
2025-11-07 14:35:12.762620,-1,2025-11-07 14:35:17.263238231
2025-11-07 14:35:12.762620,-21,2025-11-07 14:35:17.270930538
2025-11-07 14:35:12.762620,-4609,2025-11-07 14:35:17.278622846
2025-11-07 14:35:12.762620,-1,2025-11-07 14:35:17.286315154
2025-11-07 14:35:12.762620,-14,2025-11-07 14:35:17.294007462
2025-11-07 14:35:12.762620,-769,2025-11-07 14:35:17.301699769
2025-11-07 14:35:12.762620,-1,2025-11-07 14:35:17.309392077
2025-11-07 14:35:12.762620,-4,2025-11-07 14:35:17.317084385
2025-11-07 14:35:12.762620,-2049,2025-11-07 14:35:17.324776692
2025-11-07 14:35:12.762620,-1,2025-11-07 14:35:17.332469000
2025-11-07 14:35:12.762620,-4,2025-11-07 14:35:17.340161308
2025-11-07 14:35:12.762620,255,2025-11-07 14:35:17.347853615
2025-11-07 14:35:12.762620,0,2025-11-07 14:35:17.355545923
2025-11-07 14:35:12.762620,4,2025-11-07 14:35:17.363238231
2025-11-07 14:35:12.762620,1024,2025-11-07 14:35:17.370930538
2025-11-07 14:35:12.762620,0,2025-11-07 14:35:17.378622846
2025-11-07 14:35:12.762620,7,2025-11-07 14:35:17.386315154
2025-11-07 14:35:12.762620,1792,2025-11-07 14:35:17.394007462
2025-11-07 14:35:12.762620,0,2025-11-07 14:35:17.401699769
2025-11-07 14:35:12.762620,9,2025-11-07 14:35:17.409392077
2025-11-07 14:35:12.762620,2816,2025-11-07 14:35:17.417084385
2025-11-07 14:35:12.762620,0,2025-11-07 14:35:17.424776692
2025-11-07 14:35:12.762620,14,2025-11-07 14:35:17.432469000
2025-11-07 14:35:12.762620,4096,2025-11-07 14:35:17.440161308
2025-11-07 14:35:12.762620,0,2025-11-07 14:35:17.447853615
2025-11-07 14:35:12.762620,23,2025-11-07 14:35:17.455545923
2025-11-07 14:35:12.762620,7168,2025-11-07 14:35:17.463238230
2025-11-07 14:35:12.762620,0,2025-11-07 14:35:17.470930538
2025-11-07 14:35:12.762620,23,2025-11-07 14:35:17.478622846
2025-11-07 14:35:12.762620,4864,2025-11-07 14:35:17.486315154
2025-11-07 14:35:12.762620,0,2025-11-07 14:35:17.494007462
2025-11-07 14:35:12.762620,26,2025-11-07 14:35:17.501699769
2025-11-07 14:35:13.302637,31,2025-11-07 14:35:17.509392077
2025-11-07 14:35:13.302637,5888,2025-11-07 14:35:17.517084385
2025-11-07 14:35:13.302637,0,2025-11-07 14:35:17.524776692
2025-11-07 14:35:13.302637,23,2025-11-07 14:35:17.532469000
2025-11-07 14:35:13.302637,7936,2025-11-07 14:35:17.540161308
2025-11-07 14:35:13.302637,0,2025-11-07 14:35:17.547853615
2025-11-07 14:35:13.302637,31,2025-11-07 14:35:17.555545923
2025-11-07 14:35:13.302637,8448,2025-11-07 14:35:17.563238231
2025-11-07 14:35:13.302637,0,2025-11-07 14:35:17.570930538
2025-11-07 14:35:13.302637,33,2025-11-07 14:35:17.578622846
2025-11-07 14:35:13.302637,7936,2025-11-07 14:35:17.586315154
2025-11-07 14:35:13.302637,0,2025-11-07 14:35:17.594007462
2025-11-07 14:35:13.302637,35,2025-11-07 14:35:17.601699769
2025-11-07 14:35:13.302637,10752,2025-11-07 14:35:17.609392077
2025-11-07 14:35:13.302637,0,2025-11-07 14:35:17.617084385
2025-11-07 14:35:13.302637,47,2025-11-07 14:35:17.624776692
2025-11-07 14:35:13.302637,12032,2025-11-07 14:35:17.632469000
2025-11-07 14:35:13.302637,0,2025-11-07 14:35:17.640161308
2025-11-07 14:35:13.302637,35,2025-11-07 14:35:17.647853615
2025-11-07 14:35:13.302637,6656,2025-11-07 14:35:17.655545923
2025-11-07 14:35:13.302637,0,2025-11-07 14:35:17.663238231
2025-11-07 14:35:13.302637,28,2025-11-07 14:35:17.670930538
2025-11-07 14:35:13.302637,10752,2025-11-07 14:35:17.678622846
2025-11-07 14:35:13.302637,0,2025-11-07 14:35:17.686315154
2025-11-07 14:35:13.302637,62,2025-11-07 14:35:17.694007462
2025-11-07 14:35:13.302637,16896,2025-11-07 14:35:17.701699769
2025-11-07 14:35:13.302637,0,2025-11-07 14:35:17.709392077
2025-11-07 14:35:13.302637,64,2025-11-07 14:35:17.717084385
2025-11-07 14:35:13.302637,15104,2025-11-07 14:35:17.724776692
2025-11-07 14:35:13.302637,0,2025-11-07 14:35:17.732469000
2025-11-07 14:35:13.302637,57,2025-11-07 14:35:17.740161308
2025-11-07 14:35:13.302637,10752,2025-11-07 14:35:17.747853615
2025-11-07 14:35:13.302637,0,2025-11-07 14:35:17.755545923
2025-11-07 14:35:13.302637,33,2025-11-07 14:35:17.763238231
2025-11-07 14:35:13.302637,12032,2025-11-07 14:35:17.770930538
2025-11-07 14:35:13.302637,0,2025-11-07 14:35:17.778622846
2025-11-07 14:35:13.302637,54,2025-11-07 14:35:17.786315154
2025-11-07 14:35:13.302637,10240,2025-11-07 14:35:17.794007462
2025-11-07 14:35:13.302637,0,2025-11-07 14:35:17.801699769
2025-11-07 14:35:13.302637,33,2025-11-07 14:35:17.809392077
2025-11-07 14:35:13.302637,5888,2025-11-07 14:35:17.817084385
2025-11-07 14:35:13.302637,0,2025-11-07 14:35:17.824776692
2025-11-07 14:35:13.302637,-4,2025-11-07 14:35:17.832469000
2025-11-07 14:35:13.302637,21503,2025-11-07 14:35:17.840161308
2025-11-07 14:35:13.302637,0,2025-11-07 14:35:17.847853615
2025-11-07 14:35:13.302637,503,2025-11-07 14:35:17.855545923
2025-11-07 14:35:13.302637,-12800,2025-11-07 14:35:17.863238231
2025-11-07 14:35:13.302637,4,2025-11-07 14:35:17.870930538
2025-11-07 14:35:13.302637,1798,2025-11-07 14:35:17.878622846
2025-11-07 14:35:13.302637,-30208,2025-11-07 14:35:17.886315154
2025-11-07 14:35:13.302637,5,2025-11-07 14:35:17.894007462
2025-11-07 14:35:13.302637,296,2025-11-07 14:35:17.901699769
2025-11-07 14:35:13.302637,4608,2025-11-07 14:35:17.909392077
2025-11-07 14:35:13.302637,-1,2025-11-07 14:35:17.917084385
2025-11-07 14:35:13.302637,-52,2025-11-07 14:35:17.924776692
2025-11-07 14:35:13.302637,-19713,2025-11-07 14:35:17.932469000
2025-11-07 14:35:13.302637,-1,2025-11-07 14:35:17.940161308
2025-11-07 14:35:13.302637,-243,2025-11-07 14:35:17.947853615
2025-11-07 14:35:13.302637,20735,2025-11-07 14:35:17.955545923
2025-11-07 14:35:13.302637,-1,2025-11-07 14:35:17.963238231
2025-11-07 14:35:13.302637,-126,2025-11-07 14:35:17.970930538
2025-11-07 14:35:13.302637,23039,2025-11-07 14:35:17.978622846
2025-11-07 14:35:13.302637,-1,2025-11-07 14:35:17.986315154
2025-11-07 14:35:13.302637,-152,2025-11-07 14:35:17.994007462
2025-11-07 14:35:13.302637,-30209,2025-11-07 14:35:18.001699769
2025-11-07 14:35:13.302637,-1,2025-11-07 14:35:18.009392077
2025-11-07 14:35:13.302637,-121,2025-11-07 14:35:18.017084385
2025-11-07 14:35:13.302637,-28417,2025-11-07 14:35:18.024776692
2025-11-07 14:35:13.302637,-1,2025-11-07 14:35:18.032469000
2025-11-07 14:35:13.302637,-90,2025-11-07 14:35:18.040161308
2025-11-07 14:35:13.302637,-20481,2025-11-07 14:35:18.047853615
2025-11-07 14:35:13.302637,-1,2025-11-07 14:35:18.055545923
2025-11-07 14:35:13.302637,-71,2025-11-07 14:35:18.063238231
2025-11-07 14:35:13.302637,-13569,2025-11-07 14:35:18.070930538
2025-11-07 14:35:13.302637,-1,2025-11-07 14:35:18.078622846
2025-11-07 14:35:13.302637,-42,2025-11-07 14:35:18.086315154
2025-11-07 14:35:13.302637,-7681,2025-11-07 14:35:18.094007462
2025-11-07 14:35:13.302637,-1,2025-11-07 14:35:18.101699769
2025-11-07 14:35:13.302637,-7,2025-11-07 14:35:18.109392077
2025-11-07 14:35:13.302637,4351,2025-11-07 14:35:18.117084385
2025-11-07 14:35:13.302637,0,2025-11-07 14:35:18.124776692
2025-11-07 14:35:13.302637,38,2025-11-07 14:35:18.132469000
2025-11-07 14:35:13.302637,16384,2025-11-07 14:35:18.140161308
2025-11-07 14:35:13.302637,0,2025-11-07 14:35:18.147853615
2025-11-07 14:35:13.302637,90,2025-11-07 14:35:18.155545923
2025-11-07 14:35:13.302637,29184,2025-11-07 14:35:18.163238231
2025-11-07 14:35:13.302637,0,2025-11-07 14:35:18.170930538
2025-11-07 14:35:13.302637,128,2025-11-07 14:35:18.178622846
2025-11-07 14:35:13.302637,-32768,2025-11-07 14:35:18.186315154
2025-11-07 14:35:13.302637,0,2025-11-07 14:35:18.194007462
2025-11-07 14:35:13.302637,117,2025-11-07 14:35:18.201699769
2025-11-07 14:35:13.302637,23808,2025-11-07 14:35:18.209392077
2025-11-07 14:35:13.302637,0,2025-11-07 14:35:18.217084385
2025-11-07 14:35:13.302637,54,2025-11-07 14:35:18.224776692
2025-11-07 14:35:13.302637,1792,2025-11-07 14:35:18.232469000
2025-11-07 14:35:13.302637,0,2025-11-07 14:35:18.240161308
2025-11-07 14:35:13.302637,-38,2025-11-07 14:35:18.247853615
2025-11-07 14:35:13.302637,-16641,2025-11-07 14:35:18.255545923
2025-11-07 14:35:13.302637,-1,2025-11-07 14:35:18.263238231
2025-11-07 14:35:13.302637,-85,2025-11-07 14:35:18.270930538
2025-11-07 14:35:13.302637,-24065,2025-11-07 14:35:18.278622846
2025-11-07 14:35:13.302637,-1,2025-11-07 14:35:18.286315154
2025-11-07 14:35:13.302637,-95,2025-11-07 14:35:18.294007462
2025-11-07 14:35:13.302637,-22785,2025-11-07 14:35:18.301699769
2025-11-07 14:35:13.302637,-1,2025-11-07 14:35:18.309392077
2025-11-07 14:35:13.302637,-88,2025-11-07 14:35:18.317084385
2025-11-07 14:35:13.302637,-22273,2025-11-07 14:35:18.324776692
2025-11-07 14:35:13.302637,-1,2025-11-07 14:35:18.332469000
2025-11-07 14:35:13.302637,-85,2025-11-07 14:35:18.340161308
2025-11-07 14:35:13.842634,-69,2025-11-07 14:35:18.347853615
2025-11-07 14:35:13.842634,-14337,2025-11-07 14:35:18.355545923
2025-11-07 14:35:13.842634,-1,2025-11-07 14:35:18.363238231
2025-11-07 14:35:13.842634,-57,2025-11-07 14:35:18.370930538
2025-11-07 14:35:13.842634,-14337,2025-11-07 14:35:18.378622846
2025-11-07 14:35:13.842634,-1,2025-11-07 14:35:18.386315154
2025-11-07 14:35:13.842634,-50,2025-11-07 14:35:18.394007462
2025-11-07 14:35:13.842634,-10497,2025-11-07 14:35:18.401699769
2025-11-07 14:35:13.842634,-1,2025-11-07 14:35:18.409392077
2025-11-07 14:35:13.842634,-40,2025-11-07 14:35:18.417084385
2025-11-07 14:35:13.842634,-6401,2025-11-07 14:35:18.424776692
2025-11-07 14:35:13.842634,-1,2025-11-07 14:35:18.432469000
2025-11-07 14:35:13.842634,-4,2025-11-07 14:35:18.440161308
2025-11-07 14:35:13.842634,-257,2025-11-07 14:35:18.447853615
2025-11-07 14:35:13.842634,-1,2025-11-07 14:35:18.455545923
2025-11-07 14:35:13.842634,-7,2025-11-07 14:35:18.463238230
2025-11-07 14:35:13.842634,1279,2025-11-07 14:35:18.470930538
2025-11-07 14:35:13.842634,0,2025-11-07 14:35:18.478622846
2025-11-07 14:35:13.842634,14,2025-11-07 14:35:18.486315154
2025-11-07 14:35:13.842634,2816,2025-11-07 14:35:18.494007462
2025-11-07 14:35:13.842634,0,2025-11-07 14:35:18.501699769
2025-11-07 14:35:13.842634,14,2025-11-07 14:35:18.509392077
2025-11-07 14:35:13.842634,4096,2025-11-07 14:35:18.517084385
2025-11-07 14:35:13.842634,0,2025-11-07 14:35:18.524776692
2025-11-07 14:35:13.842634,7,2025-11-07 14:35:18.532469000
2025-11-07 14:35:13.842634,1792,2025-11-07 14:35:18.540161308
2025-11-07 14:35:13.842634,0,2025-11-07 14:35:18.547853615
2025-11-07 14:35:13.842634,19,2025-11-07 14:35:18.555545923
2025-11-07 14:35:13.842634,5888,2025-11-07 14:35:18.563238231
2025-11-07 14:35:13.842634,0,2025-11-07 14:35:18.570930538
2025-11-07 14:35:13.842634,19,2025-11-07 14:35:18.578622846
2025-11-07 14:35:13.842634,5888,2025-11-07 14:35:18.586315154
2025-11-07 14:35:13.842634,0,2025-11-07 14:35:18.594007462
2025-11-07 14:35:13.842634,26,2025-11-07 14:35:18.601699769
2025-11-07 14:35:13.842634,5376,2025-11-07 14:35:18.609392077
2025-11-07 14:35:13.842634,0,2025-11-07 14:35:18.617084385
2025-11-07 14:35:13.842634,23,2025-11-07 14:35:18.624776692
2025-11-07 14:35:13.842634,7936,2025-11-07 14:35:18.632469000
2025-11-07 14:35:13.842634,0,2025-11-07 14:35:18.640161308
2025-11-07 14:35:13.842634,31,2025-11-07 14:35:18.647853615
2025-11-07 14:35:13.842634,7168,2025-11-07 14:35:18.655545923
2025-11-07 14:35:13.842634,0,2025-11-07 14:35:18.663238231
2025-11-07 14:35:13.842634,31,2025-11-07 14:35:18.670930538
2025-11-07 14:35:13.842634,8448,2025-11-07 14:35:18.678622846
2025-11-07 14:35:13.842634,0,2025-11-07 14:35:18.686315154
2025-11-07 14:35:13.842634,33,2025-11-07 14:35:18.694007462
2025-11-07 14:35:13.842634,8448,2025-11-07 14:35:18.701699769
2025-11-07 14:35:13.842634,0,2025-11-07 14:35:18.709392077
2025-11-07 14:35:13.842634,26,2025-11-07 14:35:18.717084385
2025-11-07 14:35:13.842634,5376,2025-11-07 14:35:18.724776692
2025-11-07 14:35:13.842634,0,2025-11-07 14:35:18.732469000
2025-11-07 14:35:13.842634,26,2025-11-07 14:35:18.740161308
2025-11-07 14:35:13.842634,8448,2025-11-07 14:35:18.747853615
2025-11-07 14:35:13.842634,0,2025-11-07 14:35:18.755545923
2025-11-07 14:35:13.842634,26,2025-11-07 14:35:18.763238231
2025-11-07 14:35:13.842634,3584,2025-11-07 14:35:18.770930538
2025-11-07 14:35:13.842634,0,2025-11-07 14:35:18.778622846
2025-11-07 14:35:13.842634,9,2025-11-07 14:35:18.786315154
2025-11-07 14:35:13.842634,1792,2025-11-07 14:35:18.794007462
2025-11-07 14:35:13.842634,0,2025-11-07 14:35:18.801699769
2025-11-07 14:35:13.842634,-2,2025-11-07 14:35:18.809392077
2025-11-07 14:35:13.842634,767,2025-11-07 14:35:18.817084385
2025-11-07 14:35:13.842634,0,2025-11-07 14:35:18.824776692
2025-11-07 14:35:13.842634,23,2025-11-07 14:35:18.832469000
2025-11-07 14:35:13.842634,8448,2025-11-07 14:35:18.840161308
2025-11-07 14:35:13.842634,0,2025-11-07 14:35:18.847853615
2025-11-07 14:35:13.842634,35,2025-11-07 14:35:18.855545923
2025-11-07 14:35:13.842634,10240,2025-11-07 14:35:18.863238231
2025-11-07 14:35:13.842634,0,2025-11-07 14:35:18.870930538
2025-11-07 14:35:13.842634,35,2025-11-07 14:35:18.878622846
2025-11-07 14:35:13.842634,6656,2025-11-07 14:35:18.886315154
2025-11-07 14:35:13.842634,0,2025-11-07 14:35:18.894007462
2025-11-07 14:35:13.842634,19,2025-11-07 14:35:18.901699769
2025-11-07 14:35:13.842634,4864,2025-11-07 14:35:18.909392077
2025-11-07 14:35:13.842634,0,2025-11-07 14:35:18.917084385
2025-11-07 14:35:13.842634,26,2025-11-07 14:35:18.924776692
2025-11-07 14:35:13.842634,5888,2025-11-07 14:35:18.932469000
2025-11-07 14:35:13.842634,0,2025-11-07 14:35:18.940161308
2025-11-07 14:35:13.842634,21,2025-11-07 14:35:18.947853615
2025-11-07 14:35:13.842634,5376,2025-11-07 14:35:18.955545923
2025-11-07 14:35:13.842634,0,2025-11-07 14:35:18.963238231
2025-11-07 14:35:13.842634,4,2025-11-07 14:35:18.970930538
2025-11-07 14:35:13.842634,-2816,2025-11-07 14:35:18.978622846
2025-11-07 14:35:13.842634,-1,2025-11-07 14:35:18.986315154
2025-11-07 14:35:13.842634,131,2025-11-07 14:35:18.994007462
2025-11-07 14:35:13.842634,26624,2025-11-07 14:35:19.001699769
2025-11-07 14:35:13.842634,2,2025-11-07 14:35:19.009392077
2025-11-07 14:35:13.842634,1351,2025-11-07 14:35:19.017084385
2025-11-07 14:35:13.842634,1536,2025-11-07 14:35:19.024776692
2025-11-07 14:35:13.842634,7,2025-11-07 14:35:19.032469000
2025-11-07 14:35:13.842634,1220,2025-11-07 14:35:19.040161308
2025-11-07 14:35:13.842634,26880,2025-11-07 14:35:19.047853615
2025-11-07 14:35:13.842634,0,2025-11-07 14:35:19.055545923
2025-11-07 14:35:13.842634,-231,2025-11-07 14:35:19.063238231
2025-11-07 14:35:13.842634,-3841,2025-11-07 14:35:19.070930538
2025-11-07 14:35:13.842634,-1,2025-11-07 14:35:19.078622846
2025-11-07 14:35:13.842634,-114,2025-11-07 14:35:19.086315154
2025-11-07 14:35:13.842634,4095,2025-11-07 14:35:19.094007462
2025-11-07 14:35:13.842634,-1,2025-11-07 14:35:19.101699769
2025-11-07 14:35:13.842634,-148,2025-11-07 14:35:19.109392077
2025-11-07 14:35:13.842634,-32001,2025-11-07 14:35:19.117084385
2025-11-07 14:35:13.842634,-1,2025-11-07 14:35:19.124776692
2025-11-07 14:35:13.842634,-176,2025-11-07 14:35:19.132469000
2025-11-07 14:35:13.842634,27903,2025-11-07 14:35:19.140161308
2025-11-07 14:35:13.842634,-1,2025-11-07 14:35:19.147853615
2025-11-07 14:35:13.842634,-114,2025-11-07 14:35:19.155545923
2025-11-07 14:35:13.842634,-32001,2025-11-07 14:35:19.163238231
2025-11-07 14:35:13.842634,-1,2025-11-07 14:35:19.170930538
2025-11-07 14:35:13.842634,-117,2025-11-07 14:35:19.178622846
2025-11-07 14:35:14.471916,-90,2025-11-07 14:35:19.186315154
2025-11-07 14:35:14.471916,-21505,2025-11-07 14:35:19.194007462
2025-11-07 14:35:14.471916,-1,2025-11-07 14:35:19.201699769
2025-11-07 14:35:14.471916,-83,2025-11-07 14:35:19.209392077
2025-11-07 14:35:14.471916,-16641,2025-11-07 14:35:19.217084385
2025-11-07 14:35:14.471916,-1,2025-11-07 14:35:19.224776692
2025-11-07 14:35:14.471916,-47,2025-11-07 14:35:19.232469000
2025-11-07 14:35:14.471916,-5121,2025-11-07 14:35:19.240161308
2025-11-07 14:35:14.471916,-1,2025-11-07 14:35:19.247853615
2025-11-07 14:35:14.471916,0,2025-11-07 14:35:19.255545923
2025-11-07 14:35:14.471916,4864,2025-11-07 14:35:19.263238231
2025-11-07 14:35:14.471916,0,2025-11-07 14:35:19.270930538
2025-11-07 14:35:14.471916,42,2025-11-07 14:35:19.278622846
2025-11-07 14:35:14.471916,17664,2025-11-07 14:35:19.286315154
2025-11-07 14:35:14.471916,0,2025-11-07 14:35:19.294007462
2025-11-07 14:35:14.471916,95,2025-11-07 14:35:19.301699769
2025-11-07 14:35:14.471916,29952,2025-11-07 14:35:19.309392077
2025-11-07 14:35:14.471916,0,2025-11-07 14:35:19.317084385
2025-11-07 14:35:14.471916,124,2025-11-07 14:35:19.324776692
2025-11-07 14:35:14.471916,30976,2025-11-07 14:35:19.332469000
2025-11-07 14:35:14.471916,0,2025-11-07 14:35:19.340161308
2025-11-07 14:35:14.471916,112,2025-11-07 14:35:19.347853615
2025-11-07 14:35:14.471916,21760,2025-11-07 14:35:19.355545923
2025-11-07 14:35:14.471916,0,2025-11-07 14:35:19.363238231
2025-11-07 14:35:14.471916,50,2025-11-07 14:35:19.370930538
2025-11-07 14:35:14.471916,1024,2025-11-07 14:35:19.378622846
2025-11-07 14:35:14.471916,0,2025-11-07 14:35:19.386315154
2025-11-07 14:35:14.471916,-35,2025-11-07 14:35:19.394007462
2025-11-07 14:35:14.471916,-14849,2025-11-07 14:35:19.401699769
2025-11-07 14:35:14.471916,-1,2025-11-07 14:35:19.409392077
2025-11-07 14:35:14.471916,-74,2025-11-07 14:35:19.417084385
2025-11-07 14:35:14.471916,-20481,2025-11-07 14:35:19.424776692
2025-11-07 14:35:14.471916,-1,2025-11-07 14:35:19.432469000
2025-11-07 14:35:14.471916,-85,2025-11-07 14:35:19.440161308
2025-11-07 14:35:14.471916,-22273,2025-11-07 14:35:19.447853615
2025-11-07 14:35:14.471916,-1,2025-11-07 14:35:19.455545923
2025-11-07 14:35:14.471916,-83,2025-11-07 14:35:19.463238230
2025-11-07 14:35:14.471916,-19713,2025-11-07 14:35:19.470930538
2025-11-07 14:35:14.471916,-1,2025-11-07 14:35:19.478622846
2025-11-07 14:35:14.471916,-78,2025-11-07 14:35:19.486315154
2025-11-07 14:35:14.471916,-19201,2025-11-07 14:35:19.494007462
2025-11-07 14:35:14.471916,-1,2025-11-07 14:35:19.501699769
2025-11-07 14:35:14.471916,-69,2025-11-07 14:35:19.509392077
2025-11-07 14:35:14.471916,-14337,2025-11-07 14:35:19.517084385
2025-11-07 14:35:14.471916,-1,2025-11-07 14:35:19.524776692
2025-11-07 14:35:14.471916,-54,2025-11-07 14:35:19.532469000
2025-11-07 14:35:14.471916,-13057,2025-11-07 14:35:19.540161308
2025-11-07 14:35:14.471916,-1,2025-11-07 14:35:19.547853615
2025-11-07 14:35:14.471916,-45,2025-11-07 14:35:19.555545923
2025-11-07 14:35:14.471916,-9985,2025-11-07 14:35:19.563238231
2025-11-07 14:35:14.471916,-1,2025-11-07 14:35:19.570930538
2025-11-07 14:35:14.471916,-38,2025-11-07 14:35:19.578622846
2025-11-07 14:35:14.471916,-8193,2025-11-07 14:35:19.586315154
2025-11-07 14:35:14.471916,-1,2025-11-07 14:35:19.594007462
2025-11-07 14:35:14.471916,-23,2025-11-07 14:35:19.601699769
2025-11-07 14:35:14.471916,-4609,2025-11-07 14:35:19.609392077
2025-11-07 14:35:14.471916,-1,2025-11-07 14:35:19.617084385
2025-11-07 14:35:14.471916,-11,2025-11-07 14:35:19.624776692
2025-11-07 14:35:14.471916,-2049,2025-11-07 14:35:19.632469000
2025-11-07 14:35:14.471916,-1,2025-11-07 14:35:19.640161308
2025-11-07 14:35:14.471916,-9,2025-11-07 14:35:19.647853615
2025-11-07 14:35:14.471916,-2049,2025-11-07 14:35:19.655545923
2025-11-07 14:35:14.471916,-1,2025-11-07 14:35:19.663238231
2025-11-07 14:35:14.471916,-9,2025-11-07 14:35:19.670930538
2025-11-07 14:35:14.471916,-2049,2025-11-07 14:35:19.678622846
2025-11-07 14:35:14.471916,-1,2025-11-07 14:35:19.686315154
2025-11-07 14:35:14.471916,-4,2025-11-07 14:35:19.694007462
2025-11-07 14:35:14.471916,-257,2025-11-07 14:35:19.701699769
2025-11-07 14:35:14.471916,-1,2025-11-07 14:35:19.709392077
2025-11-07 14:35:14.471916,0,2025-11-07 14:35:19.717084385
2025-11-07 14:35:14.471916,512,2025-11-07 14:35:19.724776692
2025-11-07 14:35:14.471916,0,2025-11-07 14:35:19.732469000
2025-11-07 14:35:14.471916,4,2025-11-07 14:35:19.740161308
2025-11-07 14:35:14.471916,1024,2025-11-07 14:35:19.747853615
2025-11-07 14:35:14.471916,0,2025-11-07 14:35:19.755545923
2025-11-07 14:35:14.471916,7,2025-11-07 14:35:19.763238231
2025-11-07 14:35:14.471916,2816,2025-11-07 14:35:19.770930538
2025-11-07 14:35:14.471916,0,2025-11-07 14:35:19.778622846
2025-11-07 14:35:14.471916,16,2025-11-07 14:35:19.786315154
2025-11-07 14:35:14.471916,2816,2025-11-07 14:35:19.794007462
2025-11-07 14:35:14.471916,0,2025-11-07 14:35:19.801699769
2025-11-07 14:35:14.471916,11,2025-11-07 14:35:19.809392077
2025-11-07 14:35:14.471916,3584,2025-11-07 14:35:19.817084385
2025-11-07 14:35:14.471916,0,2025-11-07 14:35:19.824776692
2025-11-07 14:35:14.471916,16,2025-11-07 14:35:19.832469000
2025-11-07 14:35:14.471916,4096,2025-11-07 14:35:19.840161308
2025-11-07 14:35:14.471916,0,2025-11-07 14:35:19.847853615
2025-11-07 14:35:14.471916,21,2025-11-07 14:35:19.855545923
2025-11-07 14:35:14.471916,7168,2025-11-07 14:35:19.863238231
2025-11-07 14:35:14.471916,0,2025-11-07 14:35:19.870930538
2025-11-07 14:35:14.471916,28,2025-11-07 14:35:19.878622846
2025-11-07 14:35:14.471916,5376,2025-11-07 14:35:19.886315154
2025-11-07 14:35:14.471916,0,2025-11-07 14:35:19.894007462
2025-11-07 14:35:14.471916,21,2025-11-07 14:35:19.901699769
2025-11-07 14:35:14.471916,5888,2025-11-07 14:35:19.909392077
2025-11-07 14:35:14.471916,0,2025-11-07 14:35:19.917084385
2025-11-07 14:35:14.471916,26,2025-11-07 14:35:19.924776692
2025-11-07 14:35:14.471916,5376,2025-11-07 14:35:19.932469000
2025-11-07 14:35:14.471916,0,2025-11-07 14:35:19.940161308
2025-11-07 14:35:14.471916,16,2025-11-07 14:35:19.947853615
2025-11-07 14:35:14.471916,5888,2025-11-07 14:35:19.955545923
2025-11-07 14:35:14.471916,0,2025-11-07 14:35:19.963238231
2025-11-07 14:35:14.471916,21,2025-11-07 14:35:19.970930538
2025-11-07 14:35:14.471916,1792,2025-11-07 14:35:19.978622846
2025-11-07 14:35:14.471916,0,2025-11-07 14:35:19.986315154
2025-11-07 14:35:14.471916,2,2025-11-07 14:35:19.994007462
2025-11-07 14:35:14.471916,0,2025-11-07 14:35:20.001699769
2025-11-07 14:35:14.471916,0,2025-11-07 14:35:20.009392077
2025-11-07 14:35:14.471916,-4,2025-11-07 14:35:20.017084385
2025-11-07 14:35:15.012617,7,2025-11-07 14:35:20.024776692
2025-11-07 14:35:15.012617,7168,2025-11-07 14:35:20.032469000
2025-11-07 14:35:15.012617,0,2025-11-07 14:35:20.040161308
2025-11-07 14:35:15.012617,35,2025-11-07 14:35:20.047853615
2025-11-07 14:35:15.012617,8448,2025-11-07 14:35:20.055545923
2025-11-07 14:35:15.012617,0,2025-11-07 14:35:20.063238231
2025-11-07 14:35:15.012617,38,2025-11-07 14:35:20.070930538
2025-11-07 14:35:15.012617,8448,2025-11-07 14:35:20.078622846
