timestamp,ecg,reconstructed_time
2025-11-07 16:00:00.713604,33,2025-11-07 16:00:00.713604000
2025-11-07 16:00:00.713604,-27648,2025-11-07 16:00:00.721296308
2025-11-07 16:00:00.713604,1,2025-11-07 16:00:00.728988615
2025-11-07 16:00:00.713604,859,2025-11-07 16:00:00.736680923
2025-11-07 16:00:00.713604,-31232,2025-11-07 16:00:00.744373231
2025-11-07 16:00:00.713604,3,2025-11-07 16:00:00.752065538
2025-11-07 16:00:00.713604,388,2025-11-07 16:00:00.759757846
2025-11-07 16:00:00.713604,-13312,2025-11-07 16:00:00.767450154
2025-11-07 16:00:00.713604,-1,2025-11-07 16:00:00.775142462
2025-11-07 16:00:00.713604,-75,2025-11-07 16:00:00.782834769
2025-11-07 16:00:00.713604,-15873,2025-11-07 16:00:00.790527077
2025-11-07 16:00:00.713604,-1,2025-11-07 16:00:00.798219385
2025-11-07 16:00:00.713604,-125,2025-11-07 16:00:00.805911692
2025-11-07 16:00:00.713604,-26881,2025-11-07 16:00:00.813604000
2025-11-07 16:00:00.713604,-1,2025-11-07 16:00:00.821296308
2025-11-07 16:00:00.713604,-80,2025-11-07 16:00:00.828988615
2025-11-07 16:00:00.713604,-22017,2025-11-07 16:00:00.836680923
2025-11-07 16:00:00.713604,-1,2025-11-07 16:00:00.844373231
2025-11-07 16:00:00.713604,-71,2025-11-07 16:00:00.852065538
2025-11-07 16:00:00.713604,-10497,2025-11-07 16:00:00.859757846
2025-11-07 16:00:00.713604,-1,2025-11-07 16:00:00.867450154
2025-11-07 16:00:00.713604,-47,2025-11-07 16:00:00.875142462
2025-11-07 16:00:00.713604,-14849,2025-11-07 16:00:00.882834769
2025-11-07 16:00:00.713604,-1,2025-11-07 16:00:00.890527077
2025-11-07 16:00:00.713604,-44,2025-11-07 16:00:00.898219385
2025-11-07 16:00:00.713604,-9985,2025-11-07 16:00:00.905911692
2025-11-07 16:00:00.713604,-1,2025-11-07 16:00:00.913604000
2025-11-07 16:00:00.713604,-44,2025-11-07 16:00:00.921296308
2025-11-07 16:00:00.713604,-8705,2025-11-07 16:00:00.928988615
2025-11-07 16:00:00.713604,-1,2025-11-07 16:00:00.936680923
2025-11-07 16:00:00.713604,-30,2025-11-07 16:00:00.944373231
2025-11-07 16:00:00.713604,-8193,2025-11-07 16:00:00.952065538
2025-11-07 16:00:00.713604,-1,2025-11-07 16:00:00.959757846
2025-11-07 16:00:00.713604,-28,2025-11-07 16:00:00.967450154
2025-11-07 16:00:00.713604,-6401,2025-11-07 16:00:00.975142462
2025-11-07 16:00:00.713604,-1,2025-11-07 16:00:00.982834769
2025-11-07 16:00:00.713604,-14,2025-11-07 16:00:00.990527077
2025-11-07 16:00:00.713604,-2561,2025-11-07 16:00:00.998219385
2025-11-07 16:00:00.713604,-1,2025-11-07 16:00:01.005911692
2025-11-07 16:00:00.713604,-11,2025-11-07 16:00:01.013604000
2025-11-07 16:00:00.713604,-257,2025-11-07 16:00:01.021296308
2025-11-07 16:00:00.713604,-1,2025-11-07 16:00:01.028988615
2025-11-07 16:00:00.713604,-2,2025-11-07 16:00:01.036680923
2025-11-07 16:00:00.713604,255,2025-11-07 16:00:01.044373231
2025-11-07 16:00:00.713604,0,2025-11-07 16:00:01.052065538
2025-11-07 16:00:00.713604,0,2025-11-07 16:00:01.059757846
2025-11-07 16:00:00.713604,-512,2025-11-07 16:00:01.067450154
2025-11-07 16:00:00.713604,-1,2025-11-07 16:00:01.075142462
2025-11-07 16:00:00.713604,4,2025-11-07 16:00:01.082834769
2025-11-07 16:00:00.713604,1792,2025-11-07 16:00:01.090527077
2025-11-07 16:00:00.713604,0,2025-11-07 16:00:01.098219385
2025-11-07 16:00:00.713604,2,2025-11-07 16:00:01.105911692
2025-11-07 16:00:00.713604,512,2025-11-07 16:00:01.113604000
2025-11-07 16:00:00.713604,0,2025-11-07 16:00:01.121296308
2025-11-07 16:00:00.713604,0,2025-11-07 16:00:01.128988615
2025-11-07 16:00:00.713604,-512,2025-11-07 16:00:01.136680923
2025-11-07 16:00:00.713604,-1,2025-11-07 16:00:01.144373231
2025-11-07 16:00:00.713604,0,2025-11-07 16:00:01.152065538
2025-11-07 16:00:00.713604,0,2025-11-07 16:00:01.159757846
2025-11-07 16:00:00.713604,0,2025-11-07 16:00:01.167450154
2025-11-07 16:00:00.713604,4,2025-11-07 16:00:01.175142462
2025-11-07 16:00:00.713604,1024,2025-11-07 16:00:01.182834769
2025-11-07 16:00:00.713604,0,2025-11-07 16:00:01.190527077
2025-11-07 16:00:00.713604,9,2025-11-07 16:00:01.198219385
2025-11-07 16:00:00.713604,2304,2025-11-07 16:00:01.205911692
2025-11-07 16:00:00.713604,0,2025-11-07 16:00:01.213604000
2025-11-07 16:00:00.713604,7,2025-11-07 16:00:01.221296308
2025-11-07 16:00:00.713604,3584,2025-11-07 16:00:01.228988615
2025-11-07 16:00:00.713604,0,2025-11-07 16:00:01.236680923
2025-11-07 16:00:00.713604,14,2025-11-07 16:00:01.244373230
2025-11-07 16:00:00.713604,2816,2025-11-07 16:00:01.252065538
2025-11-07 16:00:00.713604,0,2025-11-07 16:00:01.259757846
2025-11-07 16:00:00.713604,11,2025-11-07 16:00:01.267450154
2025-11-07 16:00:00.713604,1024,2025-11-07 16:00:01.275142462
2025-11-07 16:00:00.713604,0,2025-11-07 16:00:01.282834769
2025-11-07 16:00:00.713604,0,2025-11-07 16:00:01.290527077
2025-11-07 16:00:00.713604,0,2025-11-07 16:00:01.298219385
2025-11-07 16:00:00.713604,0,2025-11-07 16:00:01.305911692
2025-11-07 16:00:00.713604,16,2025-11-07 16:00:01.313604000
2025-11-07 16:00:00.713604,13312,2025-11-07 16:00:01.321296308
2025-11-07 16:00:00.713604,0,2025-11-07 16:00:01.328988615
2025-11-07 16:00:00.713604,66,2025-11-07 16:00:01.336680923
2025-11-07 16:00:00.713604,15104,2025-11-07 16:00:01.344373231
2025-11-07 16:00:00.713604,0,2025-11-07 16:00:01.352065538
2025-11-07 16:00:00.713604,49,2025-11-07 16:00:01.359757846
2025-11-07 16:00:00.713604,8448,2025-11-07 16:00:01.367450154
2025-11-07 16:00:00.713604,0,2025-11-07 16:00:01.375142462
2025-11-07 16:00:00.713604,21,2025-11-07 16:00:01.382834769
2025-11-07 16:00:00.713604,2816,2025-11-07 16:00:01.390527077
2025-11-07 16:00:00.713604,0,2025-11-07 16:00:01.398219385
2025-11-07 16:00:00.713604,9,2025-11-07 16:00:01.405911692
2025-11-07 16:00:00.713604,3584,2025-11-07 16:00:01.413604000
2025-11-07 16:00:00.713604,0,2025-11-07 16:00:01.421296308
2025-11-07 16:00:00.713604,14,2025-11-07 16:00:01.428988615
2025-11-07 16:00:00.713604,2816,2025-11-07 16:00:01.436680923
2025-11-07 16:00:00.713604,0,2025-11-07 16:00:01.444373231
2025-11-07 16:00:00.713604,2,2025-11-07 16:00:01.452065538
2025-11-07 16:00:00.713604,-8960,2025-11-07 16:00:01.459757846
2025-11-07 16:00:00.713604,-1,2025-11-07 16:00:01.467450154
2025-11-07 16:00:00.713604,-28,2025-11-07 16:00:01.475142462
2025-11-07 16:00:00.713604,-14593,2025-11-07 16:00:01.482834769
2025-11-07 16:00:00.713604,0,2025-11-07 16:00:01.490527077
2025-11-07 16:00:00.713604,677,2025-11-07 16:00:01.498219385
2025-11-07 16:00:00.713604,-4096,2025-11-07 16:00:01.505911692
2025-11-07 16:00:00.713604,3,2025-11-07 16:00:01.513604000
2025-11-07 16:00:00.713604,734,2025-11-07 16:00:01.521296308
2025-11-07 16:00:00.713604,-26880,2025-11-07 16:00:01.528988615
2025-11-07 16:00:00.713604,0,2025-11-07 16:00:01.536680923
2025-11-07 16:00:00.713604,-87,2025-11-07 16:00:01.544373231
2025-11-07 16:00:01.301102,-61,2025-11-07 16:00:01.552065538
2025-11-07 16:00:01.301102,-24577,2025-11-07 16:00:01.559757846
2025-11-07 16:00:01.301102,-1,2025-11-07 16:00:01.567450154
2025-11-07 16:00:01.301102,-125,2025-11-07 16:00:01.575142462
2025-11-07 16:00:01.301102,-22529,2025-11-07 16:00:01.582834769
2025-11-07 16:00:01.301102,-1,2025-11-07 16:00:01.590527077
2025-11-07 16:00:01.301102,-82,2025-11-07 16:00:01.598219385
2025-11-07 16:00:01.301102,-24577,2025-11-07 16:00:01.605911692
2025-11-07 16:00:01.301102,-1,2025-11-07 16:00:01.613604000
2025-11-07 16:00:01.301102,-82,2025-11-07 16:00:01.621296308
2025-11-07 16:00:01.301102,-18433,2025-11-07 16:00:01.628988615
2025-11-07 16:00:01.301102,-1,2025-11-07 16:00:01.636680923
2025-11-07 16:00:01.301102,-68,2025-11-07 16:00:01.644373231
2025-11-07 16:00:01.301102,-11777,2025-11-07 16:00:01.652065538
2025-11-07 16:00:01.301102,-1,2025-11-07 16:00:01.659757846
2025-11-07 16:00:01.301102,-23,2025-11-07 16:00:01.667450154
2025-11-07 16:00:01.301102,-5633,2025-11-07 16:00:01.675142462
2025-11-07 16:00:01.301102,-1,2025-11-07 16:00:01.682834769
2025-11-07 16:00:01.301102,-33,2025-11-07 16:00:01.690527077
2025-11-07 16:00:01.301102,-6401,2025-11-07 16:00:01.698219385
2025-11-07 16:00:01.301102,-1,2025-11-07 16:00:01.705911692
2025-11-07 16:00:01.301102,-18,2025-11-07 16:00:01.713604000
2025-11-07 16:00:01.301102,-5121,2025-11-07 16:00:01.721296308
2025-11-07 16:00:01.301102,-1,2025-11-07 16:00:01.728988615
2025-11-07 16:00:01.301102,-16,2025-11-07 16:00:01.736680923
2025-11-07 16:00:01.301102,-2561,2025-11-07 16:00:01.744373231
2025-11-07 16:00:01.301102,-1,2025-11-07 16:00:01.752065538
2025-11-07 16:00:01.301102,-14,2025-11-07 16:00:01.759757846
2025-11-07 16:00:01.301102,-1537,2025-11-07 16:00:01.767450154
2025-11-07 16:00:01.301102,-1,2025-11-07 16:00:01.775142462
2025-11-07 16:00:01.301102,2,2025-11-07 16:00:01.782834769
2025-11-07 16:00:01.301102,1792,2025-11-07 16:00:01.790527077
2025-11-07 16:00:01.301102,0,2025-11-07 16:00:01.798219385
2025-11-07 16:00:01.301102,2,2025-11-07 16:00:01.805911692
2025-11-07 16:00:01.301102,-1024,2025-11-07 16:00:01.813604000
2025-11-07 16:00:01.301102,-1,2025-11-07 16:00:01.821296308
2025-11-07 16:00:01.301102,4,2025-11-07 16:00:01.828988615
2025-11-07 16:00:01.301102,3584,2025-11-07 16:00:01.836680923
2025-11-07 16:00:01.301102,0,2025-11-07 16:00:01.844373231
2025-11-07 16:00:01.301102,16,2025-11-07 16:00:01.852065538
2025-11-07 16:00:01.301102,5376,2025-11-07 16:00:01.859757846
2025-11-07 16:00:01.301102,0,2025-11-07 16:00:01.867450154
2025-11-07 16:00:01.301102,16,2025-11-07 16:00:01.875142462
2025-11-07 16:00:01.301102,4608,2025-11-07 16:00:01.882834769
2025-11-07 16:00:01.301102,0,2025-11-07 16:00:01.890527077
2025-11-07 16:00:01.301102,21,2025-11-07 16:00:01.898219385
2025-11-07 16:00:01.301102,4608,2025-11-07 16:00:01.905911692
2025-11-07 16:00:01.301102,0,2025-11-07 16:00:01.913604000
2025-11-07 16:00:01.301102,21,2025-11-07 16:00:01.921296308
2025-11-07 16:00:01.301102,5376,2025-11-07 16:00:01.928988615
2025-11-07 16:00:01.301102,0,2025-11-07 16:00:01.936680923
2025-11-07 16:00:01.301102,18,2025-11-07 16:00:01.944373231
2025-11-07 16:00:01.301102,5376,2025-11-07 16:00:01.952065538
2025-11-07 16:00:01.301102,0,2025-11-07 16:00:01.959757846
2025-11-07 16:00:01.301102,18,2025-11-07 16:00:01.967450154
2025-11-07 16:00:01.301102,5888,2025-11-07 16:00:01.975142462
2025-11-07 16:00:01.301102,0,2025-11-07 16:00:01.982834769
2025-11-07 16:00:01.301102,26,2025-11-07 16:00:01.990527077
2025-11-07 16:00:01.301102,5888,2025-11-07 16:00:01.998219385
2025-11-07 16:00:01.301102,0,2025-11-07 16:00:02.005911692
2025-11-07 16:00:01.301102,23,2025-11-07 16:00:02.013604000
2025-11-07 16:00:01.301102,4096,2025-11-07 16:00:02.021296308
2025-11-07 16:00:01.301102,0,2025-11-07 16:00:02.028988615
2025-11-07 16:00:01.301102,11,2025-11-07 16:00:02.036680923
2025-11-07 16:00:01.301102,2304,2025-11-07 16:00:02.044373231
2025-11-07 16:00:01.301102,0,2025-11-07 16:00:02.052065538
2025-11-07 16:00:01.301102,4,2025-11-07 16:00:02.059757846
2025-11-07 16:00:01.301102,512,2025-11-07 16:00:02.067450154
2025-11-07 16:00:01.301102,0,2025-11-07 16:00:02.075142462
2025-11-07 16:00:01.301102,14,2025-11-07 16:00:02.082834769
2025-11-07 16:00:01.301102,11264,2025-11-07 16:00:02.090527077
2025-11-07 16:00:01.301102,0,2025-11-07 16:00:02.098219385
2025-11-07 16:00:01.301102,61,2025-11-07 16:00:02.105911692
2025-11-07 16:00:01.301102,13824,2025-11-07 16:00:02.113604000
2025-11-07 16:00:01.301102,0,2025-11-07 16:00:02.121296308
2025-11-07 16:00:01.301102,47,2025-11-07 16:00:02.128988615
2025-11-07 16:00:01.301102,7680,2025-11-07 16:00:02.136680923
2025-11-07 16:00:01.301102,0,2025-11-07 16:00:02.144373231
2025-11-07 16:00:01.301102,14,2025-11-07 16:00:02.152065538
2025-11-07 16:00:01.301102,1792,2025-11-07 16:00:02.159757846
2025-11-07 16:00:01.301102,0,2025-11-07 16:00:02.167450154
2025-11-07 16:00:01.301102,2,2025-11-07 16:00:02.175142462
2025-11-07 16:00:01.301102,1024,2025-11-07 16:00:02.182834769
2025-11-07 16:00:01.301102,0,2025-11-07 16:00:02.190527077
2025-11-07 16:00:01.301102,7,2025-11-07 16:00:02.198219385
2025-11-07 16:00:01.301102,512,2025-11-07 16:00:02.205911692
2025-11-07 16:00:01.301102,0,2025-11-07 16:00:02.213604000
2025-11-07 16:00:01.301102,-7,2025-11-07 16:00:02.221296308
2025-11-07 16:00:01.301102,-11009,2025-11-07 16:00:02.228988615
2025-11-07 16:00:01.301102,-1,2025-11-07 16:00:02.236680923
2025-11-07 16:00:01.301102,-42,2025-11-07 16:00:02.244373230
2025-11-07 16:00:01.301102,-19457,2025-11-07 16:00:02.252065538
2025-11-07 16:00:01.301102,0,2025-11-07 16:00:02.259757846
2025-11-07 16:00:01.301102,646,2025-11-07 16:00:02.267450154
2025-11-07 16:00:01.301102,-10752,2025-11-07 16:00:02.275142462
2025-11-07 16:00:01.301102,3,2025-11-07 16:00:02.282834769
2025-11-07 16:00:01.301102,734,2025-11-07 16:00:02.290527077
2025-11-07 16:00:01.301102,-25088,2025-11-07 16:00:02.298219385
2025-11-07 16:00:01.301102,0,2025-11-07 16:00:02.305911692
2025-11-07 16:00:01.301102,-92,2025-11-07 16:00:02.313604000
2025-11-07 16:00:01.301102,-18433,2025-11-07 16:00:02.321296308
2025-11-07 16:00:01.301102,-1,2025-11-07 16:00:02.328988615
2025-11-07 16:00:01.301102,-106,2025-11-07 16:00:02.336680923
2025-11-07 16:00:01.301102,31999,2025-11-07 16:00:02.344373231
2025-11-07 16:00:01.301102,-1,2025-11-07 16:00:02.352065538
2025-11-07 16:00:01.301102,-106,2025-11-07 16:00:02.359757846
2025-11-07 16:00:01.301102,-24577,2025-11-07 16:00:02.367450154
2025-11-07 16:00:01.301102,-1,2025-11-07 16:00:02.375142462
2025-11-07 16:00:01.301102,-106,2025-11-07 16:00:02.382834769
2025-11-07 16:00:01.839039,-94,2025-11-07 16:00:02.390527077
2025-11-07 16:00:01.839039,-20737,2025-11-07 16:00:02.398219385
2025-11-07 16:00:01.839039,-1,2025-11-07 16:00:02.405911692
2025-11-07 16:00:01.839039,-85,2025-11-07 16:00:02.413604000
2025-11-07 16:00:01.839039,-19713,2025-11-07 16:00:02.421296308
2025-11-07 16:00:01.839039,-1,2025-11-07 16:00:02.428988615
2025-11-07 16:00:01.839039,-71,2025-11-07 16:00:02.436680923
2025-11-07 16:00:01.839039,-17921,2025-11-07 16:00:02.444373231
2025-11-07 16:00:01.839039,-1,2025-11-07 16:00:02.452065538
2025-11-07 16:00:01.839039,-61,2025-11-07 16:00:02.459757846
2025-11-07 16:00:01.839039,-13569,2025-11-07 16:00:02.467450154
2025-11-07 16:00:01.839039,-1,2025-11-07 16:00:02.475142462
2025-11-07 16:00:01.839039,-54,2025-11-07 16:00:02.482834769
2025-11-07 16:00:01.839039,-12289,2025-11-07 16:00:02.490527077
2025-11-07 16:00:01.839039,-1,2025-11-07 16:00:02.498219385
2025-11-07 16:00:01.839039,-47,2025-11-07 16:00:02.505911692
2025-11-07 16:00:01.839039,-9985,2025-11-07 16:00:02.513604000
2025-11-07 16:00:01.839039,-1,2025-11-07 16:00:02.521296308
2025-11-07 16:00:01.839039,-23,2025-11-07 16:00:02.528988615
2025-11-07 16:00:01.839039,767,2025-11-07 16:00:02.536680923
2025-11-07 16:00:01.839039,0,2025-11-07 16:00:02.544373231
2025-11-07 16:00:01.839039,4,2025-11-07 16:00:02.552065538
2025-11-07 16:00:01.839039,-3584,2025-11-07 16:00:02.559757846
2025-11-07 16:00:01.839039,-1,2025-11-07 16:00:02.567450154
2025-11-07 16:00:01.839039,-14,2025-11-07 16:00:02.575142462
2025-11-07 16:00:01.839039,-1537,2025-11-07 16:00:02.582834769
2025-11-07 16:00:01.839039,-1,2025-11-07 16:00:02.590527077
2025-11-07 16:00:01.839039,-4,2025-11-07 16:00:02.598219385
2025-11-07 16:00:01.839039,1279,2025-11-07 16:00:02.605911692
2025-11-07 16:00:01.839039,0,2025-11-07 16:00:02.613604000
2025-11-07 16:00:01.839039,4,2025-11-07 16:00:02.621296308
2025-11-07 16:00:01.839039,1024,2025-11-07 16:00:02.628988615
2025-11-07 16:00:01.839039,0,2025-11-07 16:00:02.636680923
2025-11-07 16:00:01.839039,4,2025-11-07 16:00:02.644373231
2025-11-07 16:00:01.839039,-512,2025-11-07 16:00:02.652065538
2025-11-07 16:00:01.839039,-1,2025-11-07 16:00:02.659757846
2025-11-07 16:00:01.839039,-4,2025-11-07 16:00:02.667450154
2025-11-07 16:00:01.839039,-257,2025-11-07 16:00:02.675142462
2025-11-07 16:00:01.839039,-1,2025-11-07 16:00:02.682834769
2025-11-07 16:00:01.839039,-4,2025-11-07 16:00:02.690527077
2025-11-07 16:00:01.839039,255,2025-11-07 16:00:02.698219385
2025-11-07 16:00:01.839039,0,2025-11-07 16:00:02.705911692
2025-11-07 16:00:01.839039,-2,2025-11-07 16:00:02.713604000
2025-11-07 16:00:01.839039,-257,2025-11-07 16:00:02.721296308
2025-11-07 16:00:01.839039,-1,2025-11-07 16:00:02.728988615
2025-11-07 16:00:01.839039,-4,2025-11-07 16:00:02.736680923
2025-11-07 16:00:01.839039,-1537,2025-11-07 16:00:02.744373231
2025-11-07 16:00:01.839039,-1,2025-11-07 16:00:02.752065538
2025-11-07 16:00:01.839039,-2,2025-11-07 16:00:02.759757846
2025-11-07 16:00:01.839039,255,2025-11-07 16:00:02.767450154
2025-11-07 16:00:01.839039,0,2025-11-07 16:00:02.775142462
2025-11-07 16:00:01.839039,0,2025-11-07 16:00:02.782834769
2025-11-07 16:00:01.839039,0,2025-11-07 16:00:02.790527077
2025-11-07 16:00:01.839039,0,2025-11-07 16:00:02.798219385
2025-11-07 16:00:01.839039,-4,2025-11-07 16:00:02.805911692
2025-11-07 16:00:01.839039,-1537,2025-11-07 16:00:02.813604000
2025-11-07 16:00:01.839039,-1,2025-11-07 16:00:02.821296308
2025-11-07 16:00:01.839039,-11,2025-11-07 16:00:02.828988615
2025-11-07 16:00:01.839039,-4353,2025-11-07 16:00:02.836680923
2025-11-07 16:00:01.839039,-1,2025-11-07 16:00:02.844373231
2025-11-07 16:00:01.839039,-21,2025-11-07 16:00:02.852065538
2025-11-07 16:00:01.839039,-2561,2025-11-07 16:00:02.859757846
2025-11-07 16:00:01.839039,-1,2025-11-07 16:00:02.867450154
2025-11-07 16:00:01.839039,21,2025-11-07 16:00:02.875142462
2025-11-07 16:00:01.839039,10752,2025-11-07 16:00:02.882834769
2025-11-07 16:00:01.839039,0,2025-11-07 16:00:02.890527077
2025-11-07 16:00:01.839039,33,2025-11-07 16:00:02.898219385
2025-11-07 16:00:01.839039,4608,2025-11-07 16:00:02.905911692
2025-11-07 16:00:01.839039,0,2025-11-07 16:00:02.913604000
2025-11-07 16:00:01.839039,4,2025-11-07 16:00:02.921296308
2025-11-07 16:00:01.839039,-2304,2025-11-07 16:00:02.928988615
2025-11-07 16:00:01.839039,-1,2025-11-07 16:00:02.936680923
2025-11-07 16:00:01.839039,-14,2025-11-07 16:00:02.944373231
2025-11-07 16:00:01.839039,-3841,2025-11-07 16:00:02.952065538
2025-11-07 16:00:01.839039,-1,2025-11-07 16:00:02.959757846
2025-11-07 16:00:01.839039,-16,2025-11-07 16:00:02.967450154
2025-11-07 16:00:01.839039,-4353,2025-11-07 16:00:02.975142462
2025-11-07 16:00:01.839039,-1,2025-11-07 16:00:02.982834769
2025-11-07 16:00:01.839039,-14,2025-11-07 16:00:02.990527077
2025-11-07 16:00:01.839039,-3841,2025-11-07 16:00:02.998219385
2025-11-07 16:00:01.839039,-1,2025-11-07 16:00:03.005911692
2025-11-07 16:00:01.839039,-56,2025-11-07 16:00:03.013604000
2025-11-07 16:00:01.839039,-13057,2025-11-07 16:00:03.021296308
2025-11-07 16:00:01.839039,-1,2025-11-07 16:00:03.028988615
2025-11-07 16:00:01.839039,158,2025-11-07 16:00:03.036680923
2025-11-07 16:00:01.839039,17408,2025-11-07 16:00:03.044373231
2025-11-07 16:00:01.839039,2,2025-11-07 16:00:03.052065538
2025-11-07 16:00:01.839039,885,2025-11-07 16:00:03.059757846
2025-11-07 16:00:01.839039,-31232,2025-11-07 16:00:03.067450154
2025-11-07 16:00:01.839039,2,2025-11-07 16:00:03.075142462
2025-11-07 16:00:01.839039,113,2025-11-07 16:00:03.082834769
2025-11-07 16:00:01.839039,-25856,2025-11-07 16:00:03.090527077
2025-11-07 16:00:01.839039,-1,2025-11-07 16:00:03.098219385
2025-11-07 16:00:01.839039,-73,2025-11-07 16:00:03.105911692
2025-11-07 16:00:01.839039,-28673,2025-11-07 16:00:03.113604000
2025-11-07 16:00:01.839039,-1,2025-11-07 16:00:03.121296308
2025-11-07 16:00:01.839039,-146,2025-11-07 16:00:03.128988615
2025-11-07 16:00:01.839039,-29953,2025-11-07 16:00:03.136680923
2025-11-07 16:00:01.839039,-1,2025-11-07 16:00:03.144373231
2025-11-07 16:00:01.839039,-111,2025-11-07 16:00:03.152065538
2025-11-07 16:00:01.839039,-30465,2025-11-07 16:00:03.159757846
2025-11-07 16:00:01.839039,-1,2025-11-07 16:00:03.167450154
2025-11-07 16:00:01.839039,-104,2025-11-07 16:00:03.175142462
2025-11-07 16:00:01.839039,-24577,2025-11-07 16:00:03.182834769
2025-11-07 16:00:01.839039,-1,2025-11-07 16:00:03.190527077
2025-11-07 16:00:01.839039,-104,2025-11-07 16:00:03.198219385
2025-11-07 16:00:01.839039,-23809,2025-11-07 16:00:03.205911692
2025-11-07 16:00:01.839039,-1,2025-11-07 16:00:03.213604000
2025-11-07 16:00:01.839039,-80,2025-11-07 16:00:03.221296308
2025-11-07 16:00:02.378298,-75,2025-11-07 16:00:03.228988615
2025-11-07 16:00:02.378298,-18433,2025-11-07 16:00:03.236680923
2025-11-07 16:00:02.378298,-1,2025-11-07 16:00:03.244373230
2025-11-07 16:00:02.378298,-73,2025-11-07 16:00:03.252065538
2025-11-07 16:00:02.378298,-16641,2025-11-07 16:00:03.259757846
2025-11-07 16:00:02.378298,-1,2025-11-07 16:00:03.267450154
2025-11-07 16:00:02.378298,-66,2025-11-07 16:00:03.275142462
2025-11-07 16:00:02.378298,-14849,2025-11-07 16:00:03.282834769
2025-11-07 16:00:02.378298,-1,2025-11-07 16:00:03.290527077
2025-11-07 16:00:02.378298,-44,2025-11-07 16:00:03.298219385
2025-11-07 16:00:02.378298,-9217,2025-11-07 16:00:03.305911692
2025-11-07 16:00:02.378298,-1,2025-11-07 16:00:03.313604000
2025-11-07 16:00:02.378298,-30,2025-11-07 16:00:03.321296308
2025-11-07 16:00:02.378298,-6913,2025-11-07 16:00:03.328988615
2025-11-07 16:00:02.378298,-1,2025-11-07 16:00:03.336680923
2025-11-07 16:00:02.378298,-14,2025-11-07 16:00:03.344373231
2025-11-07 16:00:02.378298,1279,2025-11-07 16:00:03.352065538
2025-11-07 16:00:02.378298,0,2025-11-07 16:00:03.359757846
2025-11-07 16:00:02.378298,-2,2025-11-07 16:00:03.367450154
2025-11-07 16:00:02.378298,-1537,2025-11-07 16:00:03.375142462
2025-11-07 16:00:02.378298,-1,2025-11-07 16:00:03.382834769
2025-11-07 16:00:02.378298,2,2025-11-07 16:00:03.390527077
2025-11-07 16:00:02.378298,0,2025-11-07 16:00:03.398219385
2025-11-07 16:00:02.378298,0,2025-11-07 16:00:03.405911692
2025-11-07 16:00:02.378298,-4,2025-11-07 16:00:03.413604000
2025-11-07 16:00:02.378298,-1537,2025-11-07 16:00:03.421296308
2025-11-07 16:00:02.378298,-1,2025-11-07 16:00:03.428988615
2025-11-07 16:00:02.378298,-9,2025-11-07 16:00:03.436680923
2025-11-07 16:00:02.378298,-2561,2025-11-07 16:00:03.444373231
2025-11-07 16:00:02.378298,-1,2025-11-07 16:00:03.452065538
2025-11-07 16:00:02.378298,-18,2025-11-07 16:00:03.459757846
2025-11-07 16:00:02.378298,-3841,2025-11-07 16:00:03.467450154
2025-11-07 16:00:02.378298,-1,2025-11-07 16:00:03.475142462
2025-11-07 16:00:02.378298,-11,2025-11-07 16:00:03.482834769
2025-11-07 16:00:02.378298,-2561,2025-11-07 16:00:03.490527077
2025-11-07 16:00:02.378298,-1,2025-11-07 16:00:03.498219385
2025-11-07 16:00:02.378298,-4,2025-11-07 16:00:03.505911692
2025-11-07 16:00:02.378298,-257,2025-11-07 16:00:03.513604000
2025-11-07 16:00:02.378298,-1,2025-11-07 16:00:03.521296308
2025-11-07 16:00:02.378298,-7,2025-11-07 16:00:03.528988615
2025-11-07 16:00:02.378298,-769,2025-11-07 16:00:03.536680923
2025-11-07 16:00:02.378298,-1,2025-11-07 16:00:03.544373231
2025-11-07 16:00:02.378298,-4,2025-11-07 16:00:03.552065538
2025-11-07 16:00:02.378298,-257,2025-11-07 16:00:03.559757846
2025-11-07 16:00:02.378298,-1,2025-11-07 16:00:03.567450154
2025-11-07 16:00:02.378298,-2,2025-11-07 16:00:03.575142462
2025-11-07 16:00:02.378298,-1537,2025-11-07 16:00:03.582834769
2025-11-07 16:00:02.378298,-1,2025-11-07 16:00:03.590527077
2025-11-07 16:00:02.378298,-9,2025-11-07 16:00:03.598219385
2025-11-07 16:00:02.378298,-3841,2025-11-07 16:00:03.605911692
2025-11-07 16:00:02.378298,-1,2025-11-07 16:00:03.613604000
2025-11-07 16:00:02.378298,-23,2025-11-07 16:00:03.621296308
2025-11-07 16:00:02.378298,-5121,2025-11-07 16:00:03.628988615
2025-11-07 16:00:02.378298,-1,2025-11-07 16:00:03.636680923
2025-11-07 16:00:02.378298,2,2025-11-07 16:00:03.644373231
2025-11-07 16:00:02.378298,7680,2025-11-07 16:00:03.652065538
2025-11-07 16:00:02.378298,0,2025-11-07 16:00:03.659757846
2025-11-07 16:00:02.378298,37,2025-11-07 16:00:03.667450154
2025-11-07 16:00:02.378298,8448,2025-11-07 16:00:03.675142462
2025-11-07 16:00:02.378298,0,2025-11-07 16:00:03.682834769
2025-11-07 16:00:02.378298,16,2025-11-07 16:00:03.690527077
2025-11-07 16:00:02.378298,-1792,2025-11-07 16:00:03.698219385
2025-11-07 16:00:02.378298,-1,2025-11-07 16:00:03.705911692
2025-11-07 16:00:02.378298,-9,2025-11-07 16:00:03.713604000
2025-11-07 16:00:02.378298,-2561,2025-11-07 16:00:03.721296308
2025-11-07 16:00:02.378298,-1,2025-11-07 16:00:03.728988615
2025-11-07 16:00:02.378298,-14,2025-11-07 16:00:03.736680923
2025-11-07 16:00:02.378298,-1537,2025-11-07 16:00:03.744373231
2025-11-07 16:00:02.378298,-1,2025-11-07 16:00:03.752065538
2025-11-07 16:00:02.378298,-11,2025-11-07 16:00:03.759757846
2025-11-07 16:00:02.378298,-3841,2025-11-07 16:00:03.767450154
2025-11-07 16:00:02.378298,-1,2025-11-07 16:00:03.775142462
2025-11-07 16:00:02.378298,-28,2025-11-07 16:00:03.782834769
2025-11-07 16:00:02.378298,-15361,2025-11-07 16:00:03.790527077
2025-11-07 16:00:02.378298,-1,2025-11-07 16:00:03.798219385
2025-11-07 16:00:02.378298,-4,2025-11-07 16:00:03.805911692
2025-11-07 16:00:02.378298,7423,2025-11-07 16:00:03.813604000
2025-11-07 16:00:02.378298,1,2025-11-07 16:00:03.821296308
2025-11-07 16:00:02.378298,719,2025-11-07 16:00:03.828988615
2025-11-07 16:00:02.378298,25856,2025-11-07 16:00:03.836680923
2025-11-07 16:00:02.378298,3,2025-11-07 16:00:03.844373231
2025-11-07 16:00:02.378298,452,2025-11-07 16:00:03.852065538
2025-11-07 16:00:02.378298,-4608,2025-11-07 16:00:03.859757846
2025-11-07 16:00:02.378298,-1,2025-11-07 16:00:03.867450154
2025-11-07 16:00:02.378298,-97,2025-11-07 16:00:03.875142462
2025-11-07 16:00:02.378298,-18945,2025-11-07 16:00:03.882834769
2025-11-07 16:00:02.378298,-1,2025-11-07 16:00:03.890527077
2025-11-07 16:00:02.378298,-137,2025-11-07 16:00:03.898219385
2025-11-07 16:00:02.378298,30719,2025-11-07 16:00:03.905911692
2025-11-07 16:00:02.378298,-1,2025-11-07 16:00:03.913604000
2025-11-07 16:00:02.378298,-101,2025-11-07 16:00:03.921296308
2025-11-07 16:00:02.378298,-28673,2025-11-07 16:00:03.928988615
2025-11-07 16:00:02.378298,-1,2025-11-07 16:00:03.936680923
2025-11-07 16:00:02.378298,-118,2025-11-07 16:00:03.944373231
2025-11-07 16:00:02.378298,-25089,2025-11-07 16:00:03.952065538
2025-11-07 16:00:02.378298,-1,2025-11-07 16:00:03.959757846
2025-11-07 16:00:02.378298,-97,2025-11-07 16:00:03.967450154
2025-11-07 16:00:02.378298,-24577,2025-11-07 16:00:03.975142462
2025-11-07 16:00:02.378298,-1,2025-11-07 16:00:03.982834769
2025-11-07 16:00:02.378298,-87,2025-11-07 16:00:03.990527077
2025-11-07 16:00:02.378298,-22017,2025-11-07 16:00:03.998219385
2025-11-07 16:00:02.378298,-1,2025-11-07 16:00:04.005911692
2025-11-07 16:00:02.378298,-82,2025-11-07 16:00:04.013604000
2025-11-07 16:00:02.378298,-18433,2025-11-07 16:00:04.021296308
2025-11-07 16:00:02.378298,-1,2025-11-07 16:00:04.028988615
2025-11-07 16:00:02.378298,-73,2025-11-07 16:00:04.036680923
2025-11-07 16:00:02.378298,-16641,2025-11-07 16:00:04.044373231
2025-11-07 16:00:02.378298,-1,2025-11-07 16:00:04.052065538
2025-11-07 16:00:02.378298,-56,2025-11-07 16:00:04.059757846
2025-11-07 16:00:02.919672,-47,2025-11-07 16:00:04.067450154
2025-11-07 16:00:02.919672,-7425,2025-11-07 16:00:04.075142462
2025-11-07 16:00:02.919672,-1,2025-11-07 16:00:04.082834769
2025-11-07 16:00:02.919672,-26,2025-11-07 16:00:04.090527077
2025-11-07 16:00:02.919672,-5121,2025-11-07 16:00:04.098219385
2025-11-07 16:00:02.919672,-1,2025-11-07 16:00:04.105911692
2025-11-07 16:00:02.919672,-18,2025-11-07 16:00:04.113604000
2025-11-07 16:00:02.919672,-5633,2025-11-07 16:00:04.121296308
2025-11-07 16:00:02.919672,-1,2025-11-07 16:00:04.128988615
2025-11-07 16:00:02.919672,-18,2025-11-07 16:00:04.136680923
2025-11-07 16:00:02.919672,255,2025-11-07 16:00:04.144373231
2025-11-07 16:00:02.919672,0,2025-11-07 16:00:04.152065538
2025-11-07 16:00:02.919672,21,2025-11-07 16:00:04.159757846
2025-11-07 16:00:02.919672,3584,2025-11-07 16:00:04.167450154
2025-11-07 16:00:02.919672,0,2025-11-07 16:00:04.175142462
2025-11-07 16:00:02.919672,4,2025-11-07 16:00:04.182834769
2025-11-07 16:00:02.919672,2816,2025-11-07 16:00:04.190527077
2025-11-07 16:00:02.919672,0,2025-11-07 16:00:04.198219385
2025-11-07 16:00:02.919672,7,2025-11-07 16:00:04.205911692
2025-11-07 16:00:02.919672,0,2025-11-07 16:00:04.213604000
2025-11-07 16:00:02.919672,0,2025-11-07 16:00:04.221296308
2025-11-07 16:00:02.919672,0,2025-11-07 16:00:04.228988615
2025-11-07 16:00:02.919672,-1792,2025-11-07 16:00:04.236680923
2025-11-07 16:00:02.919672,-1,2025-11-07 16:00:04.244373230
2025-11-07 16:00:02.919672,-2,2025-11-07 16:00:04.252065538
2025-11-07 16:00:02.919672,255,2025-11-07 16:00:04.259757846
2025-11-07 16:00:02.919672,0,2025-11-07 16:00:04.267450154
2025-11-07 16:00:02.919672,2,2025-11-07 16:00:04.275142462
2025-11-07 16:00:02.919672,1792,2025-11-07 16:00:04.282834769
2025-11-07 16:00:02.919672,0,2025-11-07 16:00:04.290527077
2025-11-07 16:00:02.919672,7,2025-11-07 16:00:04.298219385
2025-11-07 16:00:02.919672,2816,2025-11-07 16:00:04.305911692
2025-11-07 16:00:02.919672,0,2025-11-07 16:00:04.313604000
2025-11-07 16:00:02.919672,14,2025-11-07 16:00:04.321296308
2025-11-07 16:00:02.919672,3584,2025-11-07 16:00:04.328988615
2025-11-07 16:00:02.919672,0,2025-11-07 16:00:04.336680923
2025-11-07 16:00:02.919672,16,2025-11-07 16:00:04.344373231
2025-11-07 16:00:02.919672,2816,2025-11-07 16:00:04.352065538
2025-11-07 16:00:02.919672,0,2025-11-07 16:00:04.359757846
2025-11-07 16:00:02.919672,7,2025-11-07 16:00:04.367450154
2025-11-07 16:00:02.919672,512,2025-11-07 16:00:04.375142462
2025-11-07 16:00:02.919672,0,2025-11-07 16:00:04.382834769
2025-11-07 16:00:02.919672,-4,2025-11-07 16:00:04.390527077
2025-11-07 16:00:02.919672,-1537,2025-11-07 16:00:04.398219385
2025-11-07 16:00:02.919672,-1,2025-11-07 16:00:04.405911692
2025-11-07 16:00:02.919672,2,2025-11-07 16:00:04.413604000
2025-11-07 16:00:02.919672,7680,2025-11-07 16:00:04.421296308
2025-11-07 16:00:02.919672,0,2025-11-07 16:00:04.428988615
2025-11-07 16:00:02.919672,52,2025-11-07 16:00:04.436680923
2025-11-07 16:00:02.919672,12032,2025-11-07 16:00:04.444373231
2025-11-07 16:00:02.919672,0,2025-11-07 16:00:04.452065538
2025-11-07 16:00:02.919672,40,2025-11-07 16:00:04.459757846
2025-11-07 16:00:02.919672,6656,2025-11-07 16:00:04.467450154
2025-11-07 16:00:02.919672,0,2025-11-07 16:00:04.475142462
2025-11-07 16:00:02.919672,11,2025-11-07 16:00:04.482834769
2025-11-07 16:00:02.919672,1792,2025-11-07 16:00:04.490527077
2025-11-07 16:00:02.919672,0,2025-11-07 16:00:04.498219385
2025-11-07 16:00:02.919672,2,2025-11-07 16:00:04.505911692
2025-11-07 16:00:02.919672,512,2025-11-07 16:00:04.513604000
2025-11-07 16:00:02.919672,0,2025-11-07 16:00:04.521296308
2025-11-07 16:00:02.919672,2,2025-11-07 16:00:04.528988615
2025-11-07 16:00:02.919672,512,2025-11-07 16:00:04.536680923
2025-11-07 16:00:02.919672,0,2025-11-07 16:00:04.544373231
2025-11-07 16:00:02.919672,-4,2025-11-07 16:00:04.552065538
2025-11-07 16:00:02.919672,-10497,2025-11-07 16:00:04.559757846
2025-11-07 16:00:02.919672,-1,2025-11-07 16:00:04.567450154
2025-11-07 16:00:02.919672,-52,2025-11-07 16:00:04.575142462
2025-11-07 16:00:02.919672,-27905,2025-11-07 16:00:04.582834769
2025-11-07 16:00:02.919672,0,2025-11-07 16:00:04.590527077
2025-11-07 16:00:02.919672,606,2025-11-07 16:00:04.598219385
2025-11-07 16:00:02.919672,-11776,2025-11-07 16:00:04.605911692
2025-11-07 16:00:02.919672,3,2025-11-07 16:00:04.613604000
2025-11-07 16:00:02.919672,767,2025-11-07 16:00:04.621296308
2025-11-07 16:00:02.919672,-19712,2025-11-07 16:00:04.628988615
2025-11-07 16:00:02.919672,0,2025-11-07 16:00:04.636680923
2025-11-07 16:00:02.919672,-92,2025-11-07 16:00:04.644373231
2025-11-07 16:00:02.919672,-17921,2025-11-07 16:00:04.652065538
2025-11-07 16:00:02.919672,-1,2025-11-07 16:00:04.659757846
2025-11-07 16:00:02.919672,-101,2025-11-07 16:00:04.667450154
2025-11-07 16:00:02.919672,31999,2025-11-07 16:00:04.675142462
2025-11-07 16:00:02.919672,-1,2025-11-07 16:00:04.682834769
2025-11-07 16:00:02.919672,-101,2025-11-07 16:00:04.690527077
2025-11-07 16:00:02.919672,-23297,2025-11-07 16:00:04.698219385
2025-11-07 16:00:02.919672,-1,2025-11-07 16:00:04.705911692
2025-11-07 16:00:02.919672,-104,2025-11-07 16:00:04.713604000
2025-11-07 16:00:02.919672,-23809,2025-11-07 16:00:04.721296308
2025-11-07 16:00:02.919672,-1,2025-11-07 16:00:04.728988615
2025-11-07 16:00:02.919672,-82,2025-11-07 16:00:04.736680923
2025-11-07 16:00:02.919672,-21505,2025-11-07 16:00:04.744373231
2025-11-07 16:00:02.919672,-1,2025-11-07 16:00:04.752065538
2025-11-07 16:00:02.919672,-75,2025-11-07 16:00:04.759757846
2025-11-07 16:00:02.919672,-17153,2025-11-07 16:00:04.767450154
2025-11-07 16:00:02.919672,-1,2025-11-07 16:00:04.775142462
2025-11-07 16:00:02.919672,-71,2025-11-07 16:00:04.782834769
2025-11-07 16:00:02.919672,-16641,2025-11-07 16:00:04.790527077
2025-11-07 16:00:02.919672,-1,2025-11-07 16:00:04.798219385
2025-11-07 16:00:02.919672,-61,2025-11-07 16:00:04.805911692
2025-11-07 16:00:02.919672,-14081,2025-11-07 16:00:04.813604000
2025-11-07 16:00:02.919672,-1,2025-11-07 16:00:04.821296308
2025-11-07 16:00:02.919672,-44,2025-11-07 16:00:04.828988615
2025-11-07 16:00:02.919672,-9985,2025-11-07 16:00:04.836680923
2025-11-07 16:00:02.919672,-1,2025-11-07 16:00:04.844373231
2025-11-07 16:00:02.919672,-37,2025-11-07 16:00:04.852065538
2025-11-07 16:00:02.919672,-8705,2025-11-07 16:00:04.859757846
2025-11-07 16:00:02.919672,-1,2025-11-07 16:00:04.867450154
2025-11-07 16:00:02.919672,-30,2025-11-07 16:00:04.875142462
2025-11-07 16:00:02.919672,-5633,2025-11-07 16:00:04.882834769
2025-11-07 16:00:02.919672,-1,2025-11-07 16:00:04.890527077
2025-11-07 16:00:02.919672,-26,2025-11-07 16:00:04.898219385
2025-11-07 16:00:03.503448,-26,2025-11-07 16:00:04.905911692
2025-11-07 16:00:03.503448,-5633,2025-11-07 16:00:04.913604000
2025-11-07 16:00:03.503448,-1,2025-11-07 16:00:04.921296308
2025-11-07 16:00:03.503448,-21,2025-11-07 16:00:04.928988615
2025-11-07 16:00:03.503448,-1537,2025-11-07 16:00:04.936680923
2025-11-07 16:00:03.503448,-1,2025-11-07 16:00:04.944373231
2025-11-07 16:00:03.503448,9,2025-11-07 16:00:04.952065538
2025-11-07 16:00:03.503448,7168,2025-11-07 16:00:04.959757846
2025-11-07 16:00:03.503448,0,2025-11-07 16:00:04.967450154
2025-11-07 16:00:03.503448,23,2025-11-07 16:00:04.975142462
2025-11-07 16:00:03.503448,2816,2025-11-07 16:00:04.982834769
2025-11-07 16:00:03.503448,0,2025-11-07 16:00:04.990527077
2025-11-07 16:00:03.503448,16,2025-11-07 16:00:04.998219385
2025-11-07 16:00:03.503448,5376,2025-11-07 16:00:05.005911692
2025-11-07 16:00:03.503448,0,2025-11-07 16:00:05.013604000
2025-11-07 16:00:03.503448,18,2025-11-07 16:00:05.021296308
2025-11-07 16:00:03.503448,5376,2025-11-07 16:00:05.028988615
2025-11-07 16:00:03.503448,0,2025-11-07 16:00:05.036680923
2025-11-07 16:00:03.503448,18,2025-11-07 16:00:05.044373231
2025-11-07 16:00:03.503448,5376,2025-11-07 16:00:05.052065538
2025-11-07 16:00:03.503448,0,2025-11-07 16:00:05.059757846
2025-11-07 16:00:03.503448,21,2025-11-07 16:00:05.067450154
2025-11-07 16:00:03.503448,5376,2025-11-07 16:00:05.075142462
2025-11-07 16:00:03.503448,0,2025-11-07 16:00:05.082834769
2025-11-07 16:00:03.503448,28,2025-11-07 16:00:05.090527077
2025-11-07 16:00:03.503448,6656,2025-11-07 16:00:05.098219385
2025-11-07 16:00:03.503448,0,2025-11-07 16:00:05.105911692
2025-11-07 16:00:03.503448,23,2025-11-07 16:00:05.113604000
2025-11-07 16:00:03.503448,5888,2025-11-07 16:00:05.121296308
2025-11-07 16:00:03.503448,0,2025-11-07 16:00:05.128988615
2025-11-07 16:00:03.503448,16,2025-11-07 16:00:05.136680923
2025-11-07 16:00:03.503448,4096,2025-11-07 16:00:05.144373231
2025-11-07 16:00:03.503448,0,2025-11-07 16:00:05.152065538
2025-11-07 16:00:03.503448,14,2025-11-07 16:00:05.159757846
2025-11-07 16:00:03.503448,1792,2025-11-07 16:00:05.167450154
2025-11-07 16:00:03.503448,0,2025-11-07 16:00:05.175142462
2025-11-07 16:00:03.503448,4,2025-11-07 16:00:05.182834769
2025-11-07 16:00:03.503448,7168,2025-11-07 16:00:05.190527077
2025-11-07 16:00:03.503448,0,2025-11-07 16:00:05.198219385
2025-11-07 16:00:03.503448,59,2025-11-07 16:00:05.205911692
2025-11-07 16:00:03.503448,18176,2025-11-07 16:00:05.213604000
2025-11-07 16:00:03.503448,0,2025-11-07 16:00:05.221296308
2025-11-07 16:00:03.503448,63,2025-11-07 16:00:05.228988615
2025-11-07 16:00:03.503448,12032,2025-11-07 16:00:05.236680923
2025-11-07 16:00:03.503448,0,2025-11-07 16:00:05.244373230
2025-11-07 16:00:03.503448,28,2025-11-07 16:00:05.252065538
2025-11-07 16:00:03.503448,4608,2025-11-07 16:00:05.259757846
2025-11-07 16:00:03.503448,0,2025-11-07 16:00:05.267450154
2025-11-07 16:00:03.503448,14,2025-11-07 16:00:05.275142462
2025-11-07 16:00:03.503448,2816,2025-11-07 16:00:05.282834769
2025-11-07 16:00:03.503448,0,2025-11-07 16:00:05.290527077
2025-11-07 16:00:03.503448,18,2025-11-07 16:00:05.298219385
2025-11-07 16:00:03.503448,3584,2025-11-07 16:00:05.305911692
2025-11-07 16:00:03.503448,0,2025-11-07 16:00:05.313604000
2025-11-07 16:00:03.503448,7,2025-11-07 16:00:05.321296308
2025-11-07 16:00:03.503448,-2816,2025-11-07 16:00:05.328988615
2025-11-07 16:00:03.503448,-1,2025-11-07 16:00:05.336680923
2025-11-07 16:00:03.503448,-52,2025-11-07 16:00:05.344373231
2025-11-07 16:00:03.503448,4351,2025-11-07 16:00:05.352065538
2025-11-07 16:00:03.503448,0,2025-11-07 16:00:05.359757846
2025-11-07 16:00:03.503448,355,2025-11-07 16:00:05.367450154
2025-11-07 16:00:03.503448,16640,2025-11-07 16:00:05.375142462
2025-11-07 16:00:03.503448,3,2025-11-07 16:00:05.382834769
2025-11-07 16:00:03.503448,966,2025-11-07 16:00:05.390527077
2025-11-07 16:00:03.503448,-1536,2025-11-07 16:00:05.398219385
2025-11-07 16:00:03.503448,1,2025-11-07 16:00:05.405911692
2025-11-07 16:00:03.503448,2,2025-11-07 16:00:05.413604000
2025-11-07 16:00:03.503448,-23552,2025-11-07 16:00:05.421296308
2025-11-07 16:00:03.503448,-1,2025-11-07 16:00:05.428988615
2025-11-07 16:00:03.503448,-73,2025-11-07 16:00:05.436680923
2025-11-07 16:00:03.503448,-31233,2025-11-07 16:00:05.444373231
2025-11-07 16:00:03.503448,-1,2025-11-07 16:00:05.452065538
2025-11-07 16:00:03.503448,-125,2025-11-07 16:00:05.459757846
2025-11-07 16:00:03.503448,-23809,2025-11-07 16:00:05.467450154
2025-11-07 16:00:03.503448,-1,2025-11-07 16:00:05.475142462
2025-11-07 16:00:03.503448,-94,2025-11-07 16:00:05.482834769
2025-11-07 16:00:03.503448,-24577,2025-11-07 16:00:05.490527077
2025-11-07 16:00:03.503448,-1,2025-11-07 16:00:05.498219385
2025-11-07 16:00:03.503448,-82,2025-11-07 16:00:05.505911692
2025-11-07 16:00:03.503448,-20225,2025-11-07 16:00:05.513604000
2025-11-07 16:00:03.503448,-1,2025-11-07 16:00:05.521296308
2025-11-07 16:00:03.503448,-85,2025-11-07 16:00:05.528988615
2025-11-07 16:00:03.503448,-18945,2025-11-07 16:00:05.536680923
2025-11-07 16:00:03.503448,-1,2025-11-07 16:00:05.544373231
2025-11-07 16:00:03.503448,-68,2025-11-07 16:00:05.552065538
2025-11-07 16:00:03.503448,-15873,2025-11-07 16:00:05.559757846
2025-11-07 16:00:03.503448,-1,2025-11-07 16:00:05.567450154
2025-11-07 16:00:03.503448,-52,2025-11-07 16:00:05.575142462
2025-11-07 16:00:03.503448,-11009,2025-11-07 16:00:05.582834769
2025-11-07 16:00:03.503448,-1,2025-11-07 16:00:05.590527077
2025-11-07 16:00:03.503448,-37,2025-11-07 16:00:05.598219385
2025-11-07 16:00:03.503448,-9985,2025-11-07 16:00:05.605911692
2025-11-07 16:00:03.503448,-1,2025-11-07 16:00:05.613604000
2025-11-07 16:00:03.503448,-37,2025-11-07 16:00:05.621296308
2025-11-07 16:00:03.503448,-6401,2025-11-07 16:00:05.628988615
2025-11-07 16:00:03.503448,-1,2025-11-07 16:00:05.636680923
2025-11-07 16:00:03.503448,-26,2025-11-07 16:00:05.644373231
2025-11-07 16:00:03.503448,-6401,2025-11-07 16:00:05.652065538
2025-11-07 16:00:03.503448,-1,2025-11-07 16:00:05.659757846
2025-11-07 16:00:03.503448,-23,2025-11-07 16:00:05.667450154
2025-11-07 16:00:03.503448,-5633,2025-11-07 16:00:05.675142462
2025-11-07 16:00:03.503448,-1,2025-11-07 16:00:05.682834769
2025-11-07 16:00:03.503448,-23,2025-11-07 16:00:05.690527077
2025-11-07 16:00:03.503448,-4353,2025-11-07 16:00:05.698219385
2025-11-07 16:00:03.503448,-1,2025-11-07 16:00:05.705911692
2025-11-07 16:00:03.503448,-11,2025-11-07 16:00:05.713604000
2025-11-07 16:00:03.503448,-769,2025-11-07 16:00:05.721296308
2025-11-07 16:00:03.503448,-1,2025-11-07 16:00:05.728988615
2025-11-07 16:00:03.503448,-4,2025-11-07 16:00:05.736680923
2025-11-07 16:00:04.088845,-4,2025-11-07 16:00:05.744373231
2025-11-07 16:00:04.088845,-769,2025-11-07 16:00:05.752065538
2025-11-07 16:00:04.088845,-1,2025-11-07 16:00:05.759757846
2025-11-07 16:00:04.088845,-7,2025-11-07 16:00:05.767450154
2025-11-07 16:00:04.088845,-257,2025-11-07 16:00:05.775142462
2025-11-07 16:00:04.088845,-1,2025-11-07 16:00:05.782834769
2025-11-07 16:00:04.088845,-4,2025-11-07 16:00:05.790527077
2025-11-07 16:00:04.088845,-257,2025-11-07 16:00:05.798219385
2025-11-07 16:00:04.088845,-1,2025-11-07 16:00:05.805911692
2025-11-07 16:00:04.088845,2,2025-11-07 16:00:05.813604000
2025-11-07 16:00:04.088845,3584,2025-11-07 16:00:05.821296308
2025-11-07 16:00:04.088845,0,2025-11-07 16:00:05.828988615
2025-11-07 16:00:04.088845,37,2025-11-07 16:00:05.836680923
2025-11-07 16:00:04.088845,9472,2025-11-07 16:00:05.844373231
2025-11-07 16:00:04.088845,0,2025-11-07 16:00:05.852065538
2025-11-07 16:00:04.088845,21,2025-11-07 16:00:05.859757846
2025-11-07 16:00:04.088845,5888,2025-11-07 16:00:05.867450154
2025-11-07 16:00:04.088845,0,2025-11-07 16:00:05.875142462
2025-11-07 16:00:04.088845,28,2025-11-07 16:00:05.882834769
2025-11-07 16:00:04.088845,7680,2025-11-07 16:00:05.890527077
2025-11-07 16:00:04.088845,0,2025-11-07 16:00:05.898219385
2025-11-07 16:00:04.088845,30,2025-11-07 16:00:05.905911692
2025-11-07 16:00:04.088845,6656,2025-11-07 16:00:05.913604000
2025-11-07 16:00:04.088845,0,2025-11-07 16:00:05.921296308
2025-11-07 16:00:04.088845,23,2025-11-07 16:00:05.928988615
2025-11-07 16:00:04.088845,4096,2025-11-07 16:00:05.936680923
2025-11-07 16:00:04.088845,0,2025-11-07 16:00:05.944373231
2025-11-07 16:00:04.088845,14,2025-11-07 16:00:05.952065538
2025-11-07 16:00:04.088845,2304,2025-11-07 16:00:05.959757846
2025-11-07 16:00:04.088845,0,2025-11-07 16:00:05.967450154
2025-11-07 16:00:04.088845,9,2025-11-07 16:00:05.975142462
2025-11-07 16:00:04.088845,10240,2025-11-07 16:00:05.982834769
2025-11-07 16:00:04.088845,0,2025-11-07 16:00:05.990527077
2025-11-07 16:00:04.088845,61,2025-11-07 16:00:05.998219385
2025-11-07 16:00:04.088845,15104,2025-11-07 16:00:06.005911692
2025-11-07 16:00:04.088845,0,2025-11-07 16:00:06.013604000
2025-11-07 16:00:04.088845,52,2025-11-07 16:00:06.021296308
2025-11-07 16:00:04.088845,8448,2025-11-07 16:00:06.028988615
2025-11-07 16:00:04.088845,0,2025-11-07 16:00:06.036680923
2025-11-07 16:00:04.088845,21,2025-11-07 16:00:06.044373231
2025-11-07 16:00:04.088845,2816,2025-11-07 16:00:06.052065538
2025-11-07 16:00:04.088845,0,2025-11-07 16:00:06.059757846
2025-11-07 16:00:04.088845,4,2025-11-07 16:00:06.067450154
2025-11-07 16:00:04.088845,2304,2025-11-07 16:00:06.075142462
2025-11-07 16:00:04.088845,0,2025-11-07 16:00:06.082834769
2025-11-07 16:00:04.088845,4,2025-11-07 16:00:06.090527077
2025-11-07 16:00:04.088845,512,2025-11-07 16:00:06.098219385
2025-11-07 16:00:04.088845,0,2025-11-07 16:00:06.105911692
2025-11-07 16:00:04.088845,-2,2025-11-07 16:00:06.113604000
2025-11-07 16:00:04.088845,-8193,2025-11-07 16:00:06.121296308
2025-11-07 16:00:04.088845,-1,2025-11-07 16:00:06.128988615
2025-11-07 16:00:04.088845,-49,2025-11-07 16:00:06.136680923
2025-11-07 16:00:04.088845,25599,2025-11-07 16:00:06.144373231
2025-11-07 16:00:04.088845,0,2025-11-07 16:00:06.152065538
2025-11-07 16:00:04.088845,509,2025-11-07 16:00:06.159757846
2025-11-07 16:00:04.088845,-29440,2025-11-07 16:00:06.167450154
2025-11-07 16:00:04.088845,3,2025-11-07 16:00:06.175142462
2025-11-07 16:00:04.088845,800,2025-11-07 16:00:06.182834769
2025-11-07 16:00:04.088845,-768,2025-11-07 16:00:06.190527077
2025-11-07 16:00:04.088845,0,2025-11-07 16:00:06.198219385
2025-11-07 16:00:04.088845,-80,2025-11-07 16:00:06.205911692
2025-11-07 16:00:04.088845,-19713,2025-11-07 16:00:06.213604000
2025-11-07 16:00:04.088845,-1,2025-11-07 16:00:06.221296308
2025-11-07 16:00:04.088845,-94,2025-11-07 16:00:06.228988615
2025-11-07 16:00:04.088845,29439,2025-11-07 16:00:06.236680923
2025-11-07 16:00:04.088845,-1,2025-11-07 16:00:06.244373230
2025-11-07 16:00:04.088845,-116,2025-11-07 16:00:06.252065538
2025-11-07 16:00:04.088845,-25089,2025-11-07 16:00:06.259757846
2025-11-07 16:00:04.088845,-1,2025-11-07 16:00:06.267450154
2025-11-07 16:00:04.088845,-113,2025-11-07 16:00:06.275142462
2025-11-07 16:00:04.088845,-26369,2025-11-07 16:00:06.282834769
2025-11-07 16:00:04.088845,-1,2025-11-07 16:00:06.290527077
2025-11-07 16:00:04.088845,-94,2025-11-07 16:00:06.298219385
2025-11-07 16:00:04.088845,-23809,2025-11-07 16:00:06.305911692
2025-11-07 16:00:04.088845,-1,2025-11-07 16:00:06.313604000
2025-11-07 16:00:04.088845,-85,2025-11-07 16:00:06.321296308
2025-11-07 16:00:04.088845,-18945,2025-11-07 16:00:06.328988615
2025-11-07 16:00:04.088845,-1,2025-11-07 16:00:06.336680923
2025-11-07 16:00:04.088845,-68,2025-11-07 16:00:06.344373231
2025-11-07 16:00:04.088845,-16641,2025-11-07 16:00:06.352065538
2025-11-07 16:00:04.088845,-1,2025-11-07 16:00:06.359757846
2025-11-07 16:00:04.088845,-71,2025-11-07 16:00:06.367450154
2025-11-07 16:00:04.088845,-15361,2025-11-07 16:00:06.375142462
2025-11-07 16:00:04.088845,-1,2025-11-07 16:00:06.382834769
2025-11-07 16:00:04.088845,-56,2025-11-07 16:00:06.390527077
2025-11-07 16:00:04.088845,-13057,2025-11-07 16:00:06.398219385
2025-11-07 16:00:04.088845,-1,2025-11-07 16:00:06.405911692
2025-11-07 16:00:04.088845,-49,2025-11-07 16:00:06.413604000
2025-11-07 16:00:04.088845,-11777,2025-11-07 16:00:06.421296308
2025-11-07 16:00:04.088845,-1,2025-11-07 16:00:06.428988615
2025-11-07 16:00:04.088845,-40,2025-11-07 16:00:06.436680923
2025-11-07 16:00:04.088845,-9217,2025-11-07 16:00:06.444373231
2025-11-07 16:00:04.088845,-1,2025-11-07 16:00:06.452065538
2025-11-07 16:00:04.088845,-40,2025-11-07 16:00:06.459757846
2025-11-07 16:00:04.088845,-9217,2025-11-07 16:00:06.467450154
2025-11-07 16:00:04.088845,-1,2025-11-07 16:00:06.475142462
2025-11-07 16:00:04.088845,-44,2025-11-07 16:00:06.482834769
2025-11-07 16:00:04.088845,-10497,2025-11-07 16:00:06.490527077
2025-11-07 16:00:04.088845,-1,2025-11-07 16:00:06.498219385
2025-11-07 16:00:04.088845,-30,2025-11-07 16:00:06.505911692
2025-11-07 16:00:04.088845,-6913,2025-11-07 16:00:06.513604000
2025-11-07 16:00:04.088845,-1,2025-11-07 16:00:06.521296308
2025-11-07 16:00:04.088845,-28,2025-11-07 16:00:06.528988615
2025-11-07 16:00:04.088845,-7425,2025-11-07 16:00:06.536680923
2025-11-07 16:00:04.088845,-1,2025-11-07 16:00:06.544373231
2025-11-07 16:00:04.088845,-28,2025-11-07 16:00:06.552065538
2025-11-07 16:00:04.088845,-6913,2025-11-07 16:00:06.559757846
2025-11-07 16:00:04.088845,-1,2025-11-07 16:00:06.567450154
2025-11-07 16:00:04.088845,-30,2025-11-07 16:00:06.575142462
2025-11-07 16:00:04.628531,-30,2025-11-07 16:00:06.582834769
2025-11-07 16:00:04.628531,-7425,2025-11-07 16:00:06.590527077
2025-11-07 16:00:04.628531,-1,2025-11-07 16:00:06.598219385
2025-11-07 16:00:04.628531,-23,2025-11-07 16:00:06.605911692
2025-11-07 16:00:04.628531,-3329,2025-11-07 16:00:06.613604000
2025-11-07 16:00:04.628531,-1,2025-11-07 16:00:06.621296308
2025-11-07 16:00:04.628531,-18,2025-11-07 16:00:06.628988615
2025-11-07 16:00:04.628531,-3841,2025-11-07 16:00:06.636680923
2025-11-07 16:00:04.628531,-1,2025-11-07 16:00:06.644373231
2025-11-07 16:00:04.628531,-11,2025-11-07 16:00:06.652065538
2025-11-07 16:00:04.628531,-2561,2025-11-07 16:00:06.659757846
2025-11-07 16:00:04.628531,-1,2025-11-07 16:00:06.667450154
2025-11-07 16:00:04.628531,-4,2025-11-07 16:00:06.675142462
2025-11-07 16:00:04.628531,255,2025-11-07 16:00:06.682834769
2025-11-07 16:00:04.628531,0,2025-11-07 16:00:06.690527077
2025-11-07 16:00:04.628531,9,2025-11-07 16:00:06.698219385
2025-11-07 16:00:04.628531,6656,2025-11-07 16:00:06.705911692
2025-11-07 16:00:04.628531,0,2025-11-07 16:00:06.713604000
2025-11-07 16:00:04.628531,21,2025-11-07 16:00:06.721296308
2025-11-07 16:00:04.628531,1024,2025-11-07 16:00:06.728988615
2025-11-07 16:00:04.628531,0,2025-11-07 16:00:06.736680923
2025-11-07 16:00:04.628531,4,2025-11-07 16:00:06.744373231
2025-11-07 16:00:04.628531,512,2025-11-07 16:00:06.752065538
2025-11-07 16:00:04.628531,0,2025-11-07 16:00:06.759757846
2025-11-07 16:00:04.628531,-4,2025-11-07 16:00:06.767450154
2025-11-07 16:00:04.628531,2047,2025-11-07 16:00:06.775142462
2025-11-07 16:00:04.628531,0,2025-11-07 16:00:06.782834769
2025-11-07 16:00:04.628531,33,2025-11-07 16:00:06.790527077
2025-11-07 16:00:04.628531,12032,2025-11-07 16:00:06.798219385
2025-11-07 16:00:04.628531,0,2025-11-07 16:00:06.805911692
2025-11-07 16:00:04.628531,42,2025-11-07 16:00:06.813604000
2025-11-07 16:00:04.628531,7680,2025-11-07 16:00:06.821296308
2025-11-07 16:00:04.628531,0,2025-11-07 16:00:06.828988615
2025-11-07 16:00:04.628531,14,2025-11-07 16:00:06.836680923
2025-11-07 16:00:04.628531,1024,2025-11-07 16:00:06.844373231
2025-11-07 16:00:04.628531,0,2025-11-07 16:00:06.852065538
2025-11-07 16:00:04.628531,0,2025-11-07 16:00:06.859757846
2025-11-07 16:00:04.628531,-1024,2025-11-07 16:00:06.867450154
2025-11-07 16:00:04.628531,-1,2025-11-07 16:00:06.875142462
2025-11-07 16:00:04.628531,-2,2025-11-07 16:00:06.882834769
2025-11-07 16:00:04.628531,-769,2025-11-07 16:00:06.890527077
2025-11-07 16:00:04.628531,-1,2025-11-07 16:00:06.898219385
2025-11-07 16:00:04.628531,-7,2025-11-07 16:00:06.905911692
2025-11-07 16:00:04.628531,-3841,2025-11-07 16:00:06.913604000
2025-11-07 16:00:04.628531,-1,2025-11-07 16:00:06.921296308
2025-11-07 16:00:04.628531,-52,2025-11-07 16:00:06.928988615
2025-11-07 16:00:04.628531,-257,2025-11-07 16:00:06.936680923
2025-11-07 16:00:04.628531,-1,2025-11-07 16:00:06.944373231
2025-11-07 16:00:04.628531,269,2025-11-07 16:00:06.952065538
2025-11-07 16:00:04.628531,-23296,2025-11-07 16:00:06.959757846
2025-11-07 16:00:04.628531,2,2025-11-07 16:00:06.967450154
2025-11-07 16:00:04.628531,840,2025-11-07 16:00:06.975142462
2025-11-07 16:00:04.628531,-11776,2025-11-07 16:00:06.982834769
2025-11-07 16:00:04.628531,1,2025-11-07 16:00:06.990527077
2025-11-07 16:00:04.628531,2,2025-11-07 16:00:06.998219385
2025-11-07 16:00:04.628531,-22272,2025-11-07 16:00:07.005911692
2025-11-07 16:00:04.628531,-1,2025-11-07 16:00:07.013604000
2025-11-07 16:00:04.628531,-68,2025-11-07 16:00:07.021296308
2025-11-07 16:00:04.628531,32511,2025-11-07 16:00:07.028988615
2025-11-07 16:00:04.628531,-1,2025-11-07 16:00:07.036680923
2025-11-07 16:00:04.628531,-132,2025-11-07 16:00:07.044373231
2025-11-07 16:00:04.628531,-23297,2025-11-07 16:00:07.052065538
2025-11-07 16:00:04.628531,-1,2025-11-07 16:00:07.059757846
2025-11-07 16:00:04.628531,-97,2025-11-07 16:00:07.067450154
2025-11-07 16:00:04.628531,-27393,2025-11-07 16:00:07.075142462
2025-11-07 16:00:04.628531,-1,2025-11-07 16:00:07.082834769
2025-11-07 16:00:04.628531,-89,2025-11-07 16:00:07.090527077
2025-11-07 16:00:04.628531,-18433,2025-11-07 16:00:07.098219385
2025-11-07 16:00:04.628531,-1,2025-11-07 16:00:07.105911692
2025-11-07 16:00:04.628531,-78,2025-11-07 16:00:07.113604000
2025-11-07 16:00:04.628531,-19713,2025-11-07 16:00:07.121296308
2025-11-07 16:00:04.628531,-1,2025-11-07 16:00:07.128988615
2025-11-07 16:00:04.628531,-71,2025-11-07 16:00:07.136680923
2025-11-07 16:00:04.628531,-16641,2025-11-07 16:00:07.144373231
2025-11-07 16:00:04.628531,-1,2025-11-07 16:00:07.152065538
2025-11-07 16:00:04.628531,-59,2025-11-07 16:00:07.159757846
2025-11-07 16:00:04.628531,-13569,2025-11-07 16:00:07.167450154
2025-11-07 16:00:04.628531,-1,2025-11-07 16:00:07.175142462
2025-11-07 16:00:04.628531,-54,2025-11-07 16:00:07.182834769
2025-11-07 16:00:04.628531,-13569,2025-11-07 16:00:07.190527077
2025-11-07 16:00:04.628531,-1,2025-11-07 16:00:07.198219385
2025-11-07 16:00:04.628531,-44,2025-11-07 16:00:07.205911692
2025-11-07 16:00:04.628531,-8193,2025-11-07 16:00:07.213604000
2025-11-07 16:00:04.628531,-1,2025-11-07 16:00:07.221296308
2025-11-07 16:00:04.628531,-33,2025-11-07 16:00:07.228988615
2025-11-07 16:00:04.628531,-6913,2025-11-07 16:00:07.236680923
2025-11-07 16:00:04.628531,-1,2025-11-07 16:00:07.244373230
2025-11-07 16:00:04.628531,-26,2025-11-07 16:00:07.252065538
2025-11-07 16:00:04.628531,-7425,2025-11-07 16:00:07.259757846
2025-11-07 16:00:04.628531,-1,2025-11-07 16:00:07.267450154
2025-11-07 16:00:04.628531,-26,2025-11-07 16:00:07.275142462
2025-11-07 16:00:04.628531,-5121,2025-11-07 16:00:07.282834769
2025-11-07 16:00:04.628531,-1,2025-11-07 16:00:07.290527077
2025-11-07 16:00:04.628531,-21,2025-11-07 16:00:07.298219385
2025-11-07 16:00:04.628531,-5121,2025-11-07 16:00:07.305911692
2025-11-07 16:00:04.628531,-1,2025-11-07 16:00:07.313604000
2025-11-07 16:00:04.628531,-21,2025-11-07 16:00:07.321296308
2025-11-07 16:00:04.628531,-5121,2025-11-07 16:00:07.328988615
2025-11-07 16:00:04.628531,-1,2025-11-07 16:00:07.336680923
2025-11-07 16:00:04.628531,-26,2025-11-07 16:00:07.344373231
2025-11-07 16:00:04.628531,-7425,2025-11-07 16:00:07.352065538
2025-11-07 16:00:04.628531,-1,2025-11-07 16:00:07.359757846
2025-11-07 16:00:04.628531,-30,2025-11-07 16:00:07.367450154
2025-11-07 16:00:04.628531,-8193,2025-11-07 16:00:07.375142462
2025-11-07 16:00:04.628531,-1,2025-11-07 16:00:07.382834769
2025-11-07 16:00:04.628531,-28,2025-11-07 16:00:07.390527077
2025-11-07 16:00:04.628531,-6401,2025-11-07 16:00:07.398219385
2025-11-07 16:00:04.628531,-1,2025-11-07 16:00:07.405911692
2025-11-07 16:00:04.628531,-30,2025-11-07 16:00:07.413604000
2025-11-07 16:00:05.214178,-21,2025-11-07 16:00:07.421296308
2025-11-07 16:00:05.214178,-2561,2025-11-07 16:00:07.428988615
2025-11-07 16:00:05.214178,-1,2025-11-07 16:00:07.436680923
2025-11-07 16:00:05.214178,-9,2025-11-07 16:00:07.444373231
2025-11-07 16:00:05.214178,-1537,2025-11-07 16:00:07.452065538
2025-11-07 16:00:05.214178,-1,2025-11-07 16:00:07.459757846
2025-11-07 16:00:05.214178,-9,2025-11-07 16:00:07.467450154
2025-11-07 16:00:05.214178,-1537,2025-11-07 16:00:07.475142462
2025-11-07 16:00:05.214178,-1,2025-11-07 16:00:07.482834769
2025-11-07 16:00:05.214178,-4,2025-11-07 16:00:07.490527077
2025-11-07 16:00:05.214178,255,2025-11-07 16:00:07.498219385
2025-11-07 16:00:05.214178,0,2025-11-07 16:00:07.505911692
2025-11-07 16:00:05.214178,18,2025-11-07 16:00:07.513604000
2025-11-07 16:00:05.214178,4608,2025-11-07 16:00:07.521296308
2025-11-07 16:00:05.214178,0,2025-11-07 16:00:07.528988615
2025-11-07 16:00:05.214178,-2,2025-11-07 16:00:07.536680923
2025-11-07 16:00:05.214178,-3329,2025-11-07 16:00:07.544373231
2025-11-07 16:00:05.214178,-1,2025-11-07 16:00:07.552065538
2025-11-07 16:00:05.214178,-14,2025-11-07 16:00:07.559757846
2025-11-07 16:00:05.214178,-257,2025-11-07 16:00:07.567450154
2025-11-07 16:00:05.214178,-1,2025-11-07 16:00:07.575142462
2025-11-07 16:00:05.214178,18,2025-11-07 16:00:07.582834769
2025-11-07 16:00:05.214178,8960,2025-11-07 16:00:07.590527077
2025-11-07 16:00:05.214178,0,2025-11-07 16:00:07.598219385
2025-11-07 16:00:05.214178,40,2025-11-07 16:00:07.605911692
2025-11-07 16:00:05.214178,8448,2025-11-07 16:00:07.613604000
2025-11-07 16:00:05.214178,0,2025-11-07 16:00:07.621296308
2025-11-07 16:00:05.214178,18,2025-11-07 16:00:07.628988615
2025-11-07 16:00:05.214178,1024,2025-11-07 16:00:07.636680923
2025-11-07 16:00:05.214178,0,2025-11-07 16:00:07.644373231
2025-11-07 16:00:05.214178,-2,2025-11-07 16:00:07.652065538
2025-11-07 16:00:05.214178,255,2025-11-07 16:00:07.659757846
2025-11-07 16:00:05.214178,0,2025-11-07 16:00:07.667450154
2025-11-07 16:00:05.214178,-4,2025-11-07 16:00:07.675142462
2025-11-07 16:00:05.214178,-1537,2025-11-07 16:00:07.682834769
2025-11-07 16:00:05.214178,-1,2025-11-07 16:00:07.690527077
2025-11-07 16:00:05.214178,-4,2025-11-07 16:00:07.698219385
2025-11-07 16:00:05.214178,-3841,2025-11-07 16:00:07.705911692
2025-11-07 16:00:05.214178,-1,2025-11-07 16:00:07.713604000
2025-11-07 16:00:05.214178,-47,2025-11-07 16:00:07.721296308
2025-11-07 16:00:05.214178,-14081,2025-11-07 16:00:07.728988615
2025-11-07 16:00:05.214178,-1,2025-11-07 16:00:07.736680923
2025-11-07 16:00:05.214178,108,2025-11-07 16:00:07.744373231
2025-11-07 16:00:05.214178,1536,2025-11-07 16:00:07.752065538
2025-11-07 16:00:05.214178,2,2025-11-07 16:00:07.759757846
2025-11-07 16:00:05.214178,888,2025-11-07 16:00:07.767450154
2025-11-07 16:00:05.214178,-5888,2025-11-07 16:00:07.775142462
2025-11-07 16:00:05.214178,2,2025-11-07 16:00:07.782834769
2025-11-07 16:00:05.214178,187,2025-11-07 16:00:07.790527077
2025-11-07 16:00:05.214178,-27136,2025-11-07 16:00:07.798219385
2025-11-07 16:00:05.214178,-1,2025-11-07 16:00:07.805911692
2025-11-07 16:00:05.214178,-75,2025-11-07 16:00:07.813604000
2025-11-07 16:00:05.214178,-28161,2025-11-07 16:00:07.821296308
2025-11-07 16:00:05.214178,-1,2025-11-07 16:00:07.828988615
2025-11-07 16:00:05.214178,-156,2025-11-07 16:00:07.836680923
2025-11-07 16:00:05.214178,-29953,2025-11-07 16:00:07.844373231
2025-11-07 16:00:05.214178,-1,2025-11-07 16:00:07.852065538
2025-11-07 16:00:05.214178,-106,2025-11-07 16:00:07.859757846
2025-11-07 16:00:05.214178,-32257,2025-11-07 16:00:07.867450154
2025-11-07 16:00:05.214178,-1,2025-11-07 16:00:07.875142462
2025-11-07 16:00:05.214178,-120,2025-11-07 16:00:07.882834769
2025-11-07 16:00:05.214178,-28673,2025-11-07 16:00:07.890527077
2025-11-07 16:00:05.214178,-1,2025-11-07 16:00:07.898219385
2025-11-07 16:00:05.214178,-113,2025-11-07 16:00:07.905911692
2025-11-07 16:00:05.214178,-27393,2025-11-07 16:00:07.913604000
2025-11-07 16:00:05.214178,-1,2025-11-07 16:00:07.921296308
2025-11-07 16:00:05.214178,-101,2025-11-07 16:00:07.928988615
2025-11-07 16:00:05.214178,-28161,2025-11-07 16:00:07.936680923
2025-11-07 16:00:05.214178,-1,2025-11-07 16:00:07.944373231
2025-11-07 16:00:05.214178,-120,2025-11-07 16:00:07.952065538
2025-11-07 16:00:05.214178,-29441,2025-11-07 16:00:07.959757846
2025-11-07 16:00:05.214178,-1,2025-11-07 16:00:07.967450154
2025-11-07 16:00:05.214178,-104,2025-11-07 16:00:07.975142462
2025-11-07 16:00:05.214178,-23809,2025-11-07 16:00:07.982834769
2025-11-07 16:00:05.214178,-1,2025-11-07 16:00:07.990527077
2025-11-07 16:00:05.214178,-94,2025-11-07 16:00:07.998219385
2025-11-07 16:00:05.214178,-26369,2025-11-07 16:00:08.005911692
2025-11-07 16:00:05.214178,-1,2025-11-07 16:00:08.013604000
2025-11-07 16:00:05.214178,-99,2025-11-07 16:00:08.021296308
2025-11-07 16:00:05.214178,-25089,2025-11-07 16:00:08.028988615
2025-11-07 16:00:05.214178,-1,2025-11-07 16:00:08.036680923
2025-11-07 16:00:05.214178,-97,2025-11-07 16:00:08.044373231
2025-11-07 16:00:05.214178,-24577,2025-11-07 16:00:08.052065538
2025-11-07 16:00:05.214178,-1,2025-11-07 16:00:08.059757846
2025-11-07 16:00:05.214178,-111,2025-11-07 16:00:08.067450154
2025-11-07 16:00:05.214178,-29441,2025-11-07 16:00:08.075142462
2025-11-07 16:00:05.214178,-1,2025-11-07 16:00:08.082834769
2025-11-07 16:00:05.214178,-111,2025-11-07 16:00:08.090527077
2025-11-07 16:00:05.214178,-27393,2025-11-07 16:00:08.098219385
2025-11-07 16:00:05.214178,-1,2025-11-07 16:00:08.105911692
2025-11-07 16:00:05.214178,-89,2025-11-07 16:00:08.113604000
2025-11-07 16:00:05.214178,-22017,2025-11-07 16:00:08.121296308
2025-11-07 16:00:05.214178,-1,2025-11-07 16:00:08.128988615
2025-11-07 16:00:05.214178,-101,2025-11-07 16:00:08.136680923
2025-11-07 16:00:05.214178,-25601,2025-11-07 16:00:08.144373231
2025-11-07 16:00:05.214178,-1,2025-11-07 16:00:08.152065538
2025-11-07 16:00:05.214178,-99,2025-11-07 16:00:08.159757846
2025-11-07 16:00:05.214178,-24577,2025-11-07 16:00:08.167450154
2025-11-07 16:00:05.214178,-1,2025-11-07 16:00:08.175142462
2025-11-07 16:00:05.214178,-97,2025-11-07 16:00:08.182834769
2025-11-07 16:00:05.214178,-25601,2025-11-07 16:00:08.190527077
2025-11-07 16:00:05.214178,-1,2025-11-07 16:00:08.198219385
2025-11-07 16:00:05.214178,-97,2025-11-07 16:00:08.205911692
2025-11-07 16:00:05.214178,-25089,2025-11-07 16:00:08.213604000
2025-11-07 16:00:05.214178,-1,2025-11-07 16:00:08.221296308
2025-11-07 16:00:05.214178,-104,2025-11-07 16:00:08.228988615
2025-11-07 16:00:05.214178,-25089,2025-11-07 16:00:08.236680923
2025-11-07 16:00:05.214178,-1,2025-11-07 16:00:08.244373230
2025-11-07 16:00:05.214178,-113,2025-11-07 16:00:08.252065538
2025-11-07 16:00:05.754198,-134,2025-11-07 16:00:08.259757846
2025-11-07 16:00:05.754198,-31233,2025-11-07 16:00:08.267450154
2025-11-07 16:00:05.754198,-1,2025-11-07 16:00:08.275142462
2025-11-07 16:00:05.754198,-120,2025-11-07 16:00:08.282834769
2025-11-07 16:00:05.754198,29439,2025-11-07 16:00:08.290527077
2025-11-07 16:00:05.754198,-1,2025-11-07 16:00:08.298219385
2025-11-07 16:00:05.754198,-139,2025-11-07 16:00:08.305911692
2025-11-07 16:00:05.754198,31487,2025-11-07 16:00:08.313604000
2025-11-07 16:00:05.754198,-1,2025-11-07 16:00:08.321296308
2025-11-07 16:00:05.754198,-158,2025-11-07 16:00:08.328988615
2025-11-07 16:00:05.754198,21759,2025-11-07 16:00:08.336680923
2025-11-07 16:00:05.754198,-1,2025-11-07 16:00:08.344373231
2025-11-07 16:00:05.754198,-156,2025-11-07 16:00:08.352065538
2025-11-07 16:00:05.754198,29439,2025-11-07 16:00:08.359757846
2025-11-07 16:00:05.754198,-1,2025-11-07 16:00:08.367450154
2025-11-07 16:00:05.754198,-120,2025-11-07 16:00:08.375142462
2025-11-07 16:00:05.754198,-26881,2025-11-07 16:00:08.382834769
2025-11-07 16:00:05.754198,-1,2025-11-07 16:00:08.390527077
2025-11-07 16:00:05.754198,-125,2025-11-07 16:00:08.398219385
2025-11-07 16:00:05.754198,24575,2025-11-07 16:00:08.405911692
2025-11-07 16:00:05.754198,-1,2025-11-07 16:00:08.413604000
2025-11-07 16:00:05.754198,-189,2025-11-07 16:00:08.421296308
2025-11-07 16:00:05.754198,12543,2025-11-07 16:00:08.428988615
2025-11-07 16:00:05.754198,-1,2025-11-07 16:00:08.436680923
2025-11-07 16:00:05.754198,-210,2025-11-07 16:00:08.444373231
2025-11-07 16:00:05.754198,14335,2025-11-07 16:00:08.452065538
2025-11-07 16:00:05.754198,-1,2025-11-07 16:00:08.459757846
2025-11-07 16:00:05.754198,-206,2025-11-07 16:00:08.467450154
2025-11-07 16:00:05.754198,10751,2025-11-07 16:00:08.475142462
2025-11-07 16:00:05.754198,-1,2025-11-07 16:00:08.482834769
2025-11-07 16:00:05.754198,-222,2025-11-07 16:00:08.490527077
2025-11-07 16:00:05.754198,2303,2025-11-07 16:00:08.498219385
2025-11-07 16:00:05.754198,-1,2025-11-07 16:00:08.505911692
2025-11-07 16:00:05.754198,-279,2025-11-07 16:00:08.513604000
2025-11-07 16:00:05.754198,30207,2025-11-07 16:00:08.521296308
2025-11-07 16:00:05.754198,-1,2025-11-07 16:00:08.528988615
2025-11-07 16:00:05.754198,284,2025-11-07 16:00:08.536680923
2025-11-07 16:00:05.754198,-16128,2025-11-07 16:00:08.544373231
2025-11-07 16:00:05.754198,2,2025-11-07 16:00:08.552065538
2025-11-07 16:00:05.754198,620,2025-11-07 16:00:08.559757846
2025-11-07 16:00:05.754198,19968,2025-11-07 16:00:08.567450154
2025-11-07 16:00:05.754198,0,2025-11-07 16:00:08.575142462
2025-11-07 16:00:05.754198,-267,2025-11-07 16:00:08.582834769
2025-11-07 16:00:05.754198,-5121,2025-11-07 16:00:08.590527077
2025-11-07 16:00:05.754198,-2,2025-11-07 16:00:08.598219385
2025-11-07 16:00:05.754198,-291,2025-11-07 16:00:08.605911692
2025-11-07 16:00:05.754198,-15361,2025-11-07 16:00:08.613604000
2025-11-07 16:00:05.754198,-2,2025-11-07 16:00:08.621296308
2025-11-07 16:00:05.754198,-286,2025-11-07 16:00:08.628988615
2025-11-07 16:00:05.754198,-6913,2025-11-07 16:00:08.636680923
2025-11-07 16:00:05.754198,-2,2025-11-07 16:00:08.644373231
2025-11-07 16:00:05.754198,-286,2025-11-07 16:00:08.652065538
2025-11-07 16:00:05.754198,1535,2025-11-07 16:00:08.659757846
2025-11-07 16:00:05.754198,-1,2025-11-07 16:00:08.667450154
2025-11-07 16:00:05.754198,-229,2025-11-07 16:00:08.675142462
2025-11-07 16:00:05.754198,8959,2025-11-07 16:00:08.682834769
2025-11-07 16:00:05.754198,-1,2025-11-07 16:00:08.690527077
2025-11-07 16:00:05.754198,-215,2025-11-07 16:00:08.698219385
2025-11-07 16:00:05.754198,12031,2025-11-07 16:00:08.705911692
2025-11-07 16:00:05.754198,-1,2025-11-07 16:00:08.713604000
2025-11-07 16:00:05.754198,-179,2025-11-07 16:00:08.721296308
2025-11-07 16:00:05.754198,26623,2025-11-07 16:00:08.728988615
2025-11-07 16:00:05.754198,-1,2025-11-07 16:00:08.736680923
2025-11-07 16:00:05.754198,-170,2025-11-07 16:00:08.744373231
2025-11-07 16:00:05.754198,19967,2025-11-07 16:00:08.752065538
2025-11-07 16:00:05.754198,-1,2025-11-07 16:00:08.759757846
2025-11-07 16:00:05.754198,-156,2025-11-07 16:00:08.767450154
2025-11-07 16:00:05.754198,30207,2025-11-07 16:00:08.775142462
2025-11-07 16:00:05.754198,-1,2025-11-07 16:00:08.782834769
2025-11-07 16:00:05.754198,-132,2025-11-07 16:00:08.790527077
2025-11-07 16:00:05.754198,32511,2025-11-07 16:00:08.798219385
2025-11-07 16:00:05.754198,-1,2025-11-07 16:00:08.805911692
2025-11-07 16:00:05.754198,-134,2025-11-07 16:00:08.813604000
2025-11-07 16:00:05.754198,-31745,2025-11-07 16:00:08.821296308
2025-11-07 16:00:05.754198,-1,2025-11-07 16:00:08.828988615
2025-11-07 16:00:05.754198,-116,2025-11-07 16:00:08.836680923
2025-11-07 16:00:05.754198,-30465,2025-11-07 16:00:08.844373231
2025-11-07 16:00:05.754198,-1,2025-11-07 16:00:08.852065538
2025-11-07 16:00:05.754198,-127,2025-11-07 16:00:08.859757846
2025-11-07 16:00:05.754198,32511,2025-11-07 16:00:08.867450154
2025-11-07 16:00:05.754198,-1,2025-11-07 16:00:08.875142462
2025-11-07 16:00:05.754198,-116,2025-11-07 16:00:08.882834769
2025-11-07 16:00:05.754198,-28161,2025-11-07 16:00:08.890527077
2025-11-07 16:00:05.754198,-1,2025-11-07 16:00:08.898219385
2025-11-07 16:00:05.754198,-137,2025-11-07 16:00:08.905911692
2025-11-07 16:00:05.754198,32511,2025-11-07 16:00:08.913604000
2025-11-07 16:00:05.754198,-1,2025-11-07 16:00:08.921296308
2025-11-07 16:00:05.754198,-104,2025-11-07 16:00:08.928988615
2025-11-07 16:00:05.754198,32511,2025-11-07 16:00:08.936680923
2025-11-07 16:00:05.754198,-1,2025-11-07 16:00:08.944373231
2025-11-07 16:00:05.754198,-158,2025-11-07 16:00:08.952065538
2025-11-07 16:00:05.754198,28927,2025-11-07 16:00:08.959757846
2025-11-07 16:00:05.754198,-1,2025-11-07 16:00:08.967450154
2025-11-07 16:00:05.754198,-134,2025-11-07 16:00:08.975142462
2025-11-07 16:00:05.754198,30207,2025-11-07 16:00:08.982834769
2025-11-07 16:00:05.754198,-1,2025-11-07 16:00:08.990527077
2025-11-07 16:00:05.754198,-132,2025-11-07 16:00:08.998219385
2025-11-07 16:00:05.754198,31999,2025-11-07 16:00:09.005911692
2025-11-07 16:00:05.754198,-1,2025-11-07 16:00:09.013604000
2025-11-07 16:00:05.754198,-144,2025-11-07 16:00:09.021296308
2025-11-07 16:00:05.754198,28927,2025-11-07 16:00:09.028988615
2025-11-07 16:00:05.754198,-1,2025-11-07 16:00:09.036680923
2025-11-07 16:00:05.754198,-132,2025-11-07 16:00:09.044373231
2025-11-07 16:00:05.754198,-32257,2025-11-07 16:00:09.052065538
2025-11-07 16:00:05.754198,-1,2025-11-07 16:00:09.059757846
2025-11-07 16:00:05.754198,-132,2025-11-07 16:00:09.067450154
2025-11-07 16:00:05.754198,-31745,2025-11-07 16:00:09.075142462
2025-11-07 16:00:05.754198,-1,2025-11-07 16:00:09.082834769
2025-11-07 16:00:05.754198,-108,2025-11-07 16:00:09.090527077
2025-11-07 16:00:06.293785,-127,2025-11-07 16:00:09.098219385
2025-11-07 16:00:06.293785,24063,2025-11-07 16:00:09.105911692
2025-11-07 16:00:06.293785,-1,2025-11-07 16:00:09.113604000
2025-11-07 16:00:06.293785,-134,2025-11-07 16:00:09.121296308
2025-11-07 16:00:06.293785,-18433,2025-11-07 16:00:09.128988615
2025-11-07 16:00:06.293785,-1,2025-11-07 16:00:09.136680923
2025-11-07 16:00:06.293785,-59,2025-11-07 16:00:09.144373231
2025-11-07 16:00:06.293785,-12289,2025-11-07 16:00:09.152065538
2025-11-07 16:00:06.293785,-1,2025-11-07 16:00:09.159757846
2025-11-07 16:00:06.293785,-16,2025-11-07 16:00:09.167450154
2025-11-07 16:00:06.293785,767,2025-11-07 16:00:09.175142462
2025-11-07 16:00:06.293785,0,2025-11-07 16:00:09.182834769
2025-11-07 16:00:06.293785,14,2025-11-07 16:00:09.190527077
2025-11-07 16:00:06.293785,12032,2025-11-07 16:00:09.198219385
2025-11-07 16:00:06.293785,0,2025-11-07 16:00:09.205911692
2025-11-07 16:00:06.293785,80,2025-11-07 16:00:09.213604000
2025-11-07 16:00:06.293785,21760,2025-11-07 16:00:09.221296308
2025-11-07 16:00:06.293785,0,2025-11-07 16:00:09.228988615
2025-11-07 16:00:06.293785,101,2025-11-07 16:00:09.236680923
2025-11-07 16:00:06.293785,-31232,2025-11-07 16:00:09.244373230
2025-11-07 16:00:06.293785,0,2025-11-07 16:00:09.252065538
2025-11-07 16:00:06.293785,139,2025-11-07 16:00:09.259757846
2025-11-07 16:00:06.293785,30720,2025-11-07 16:00:09.267450154
2025-11-07 16:00:06.293785,0,2025-11-07 16:00:09.275142462
2025-11-07 16:00:06.293785,130,2025-11-07 16:00:09.282834769
2025-11-07 16:00:06.293785,12032,2025-11-07 16:00:09.290527077
2025-11-07 16:00:06.293785,1,2025-11-07 16:00:09.298219385
2025-11-07 16:00:06.293785,698,2025-11-07 16:00:09.305911692
2025-11-07 16:00:06.293785,8704,2025-11-07 16:00:09.313604000
2025-11-07 16:00:06.293785,4,2025-11-07 16:00:09.321296308
2025-11-07 16:00:06.293785,949,2025-11-07 16:00:09.328988615
2025-11-07 16:00:06.293785,-14080,2025-11-07 16:00:09.336680923
2025-11-07 16:00:06.293785,1,2025-11-07 16:00:09.344373231
2025-11-07 16:00:06.293785,184,2025-11-07 16:00:09.352065538
2025-11-07 16:00:06.293785,-11776,2025-11-07 16:00:09.359757846
2025-11-07 16:00:06.293785,0,2025-11-07 16:00:09.367450154
2025-11-07 16:00:06.293785,189,2025-11-07 16:00:09.375142462
2025-11-07 16:00:06.293785,32512,2025-11-07 16:00:09.382834769
2025-11-07 16:00:06.293785,0,2025-11-07 16:00:09.390527077
2025-11-07 16:00:06.293785,120,2025-11-07 16:00:09.398219385
2025-11-07 16:00:06.293785,26624,2025-11-07 16:00:09.405911692
2025-11-07 16:00:06.293785,0,2025-11-07 16:00:09.413604000
2025-11-07 16:00:06.293785,73,2025-11-07 16:00:09.421296308
2025-11-07 16:00:06.293785,15104,2025-11-07 16:00:09.428988615
2025-11-07 16:00:06.293785,0,2025-11-07 16:00:09.436680923
2025-11-07 16:00:06.293785,44,2025-11-07 16:00:09.444373231
2025-11-07 16:00:06.293785,8960,2025-11-07 16:00:09.452065538
2025-11-07 16:00:06.293785,0,2025-11-07 16:00:09.459757846
2025-11-07 16:00:06.293785,37,2025-11-07 16:00:09.467450154
2025-11-07 16:00:06.293785,8960,2025-11-07 16:00:09.475142462
2025-11-07 16:00:06.293785,0,2025-11-07 16:00:09.482834769
2025-11-07 16:00:06.293785,18,2025-11-07 16:00:09.490527077
2025-11-07 16:00:06.293785,4096,2025-11-07 16:00:09.498219385
2025-11-07 16:00:06.293785,0,2025-11-07 16:00:09.505911692
2025-11-07 16:00:06.293785,16,2025-11-07 16:00:09.513604000
2025-11-07 16:00:06.293785,512,2025-11-07 16:00:09.521296308
2025-11-07 16:00:06.293785,0,2025-11-07 16:00:09.528988615
2025-11-07 16:00:06.293785,-18,2025-11-07 16:00:09.536680923
2025-11-07 16:00:06.293785,-8193,2025-11-07 16:00:09.544373231
2025-11-07 16:00:06.293785,-1,2025-11-07 16:00:09.552065538
2025-11-07 16:00:06.293785,-44,2025-11-07 16:00:09.559757846
2025-11-07 16:00:06.293785,-13057,2025-11-07 16:00:09.567450154
2025-11-07 16:00:06.293785,-1,2025-11-07 16:00:09.575142462
2025-11-07 16:00:06.293785,-56,2025-11-07 16:00:09.582834769
2025-11-07 16:00:06.293785,-14081,2025-11-07 16:00:09.590527077
2025-11-07 16:00:06.293785,-1,2025-11-07 16:00:09.598219385
2025-11-07 16:00:06.293785,-52,2025-11-07 16:00:09.605911692
2025-11-07 16:00:06.293785,-13057,2025-11-07 16:00:09.613604000
2025-11-07 16:00:06.293785,-1,2025-11-07 16:00:09.621296308
2025-11-07 16:00:06.293785,-54,2025-11-07 16:00:09.628988615
2025-11-07 16:00:06.293785,-12289,2025-11-07 16:00:09.636680923
2025-11-07 16:00:06.293785,-1,2025-11-07 16:00:09.644373231
2025-11-07 16:00:06.293785,-44,2025-11-07 16:00:09.652065538
2025-11-07 16:00:06.293785,-11009,2025-11-07 16:00:09.659757846
2025-11-07 16:00:06.293785,-1,2025-11-07 16:00:09.667450154
2025-11-07 16:00:06.293785,-37,2025-11-07 16:00:09.675142462
2025-11-07 16:00:06.293785,-8705,2025-11-07 16:00:09.682834769
2025-11-07 16:00:06.293785,-1,2025-11-07 16:00:09.690527077
2025-11-07 16:00:06.293785,-33,2025-11-07 16:00:09.698219385
2025-11-07 16:00:06.293785,-5633,2025-11-07 16:00:09.705911692
2025-11-07 16:00:06.293785,-1,2025-11-07 16:00:09.713604000
2025-11-07 16:00:06.293785,-16,2025-11-07 16:00:09.721296308
2025-11-07 16:00:06.293785,-4353,2025-11-07 16:00:09.728988615
2025-11-07 16:00:06.293785,-1,2025-11-07 16:00:09.736680923
2025-11-07 16:00:06.293785,-11,2025-11-07 16:00:09.744373231
2025-11-07 16:00:06.293785,-257,2025-11-07 16:00:09.752065538
2025-11-07 16:00:06.293785,-1,2025-11-07 16:00:09.759757846
2025-11-07 16:00:06.293785,2,2025-11-07 16:00:09.767450154
2025-11-07 16:00:06.293785,0,2025-11-07 16:00:09.775142462
2025-11-07 16:00:06.293785,0,2025-11-07 16:00:09.782834769
2025-11-07 16:00:06.293785,-2,2025-11-07 16:00:09.790527077
2025-11-07 16:00:06.293785,767,2025-11-07 16:00:09.798219385
2025-11-07 16:00:06.293785,0,2025-11-07 16:00:09.805911692
2025-11-07 16:00:06.293785,7,2025-11-07 16:00:09.813604000
2025-11-07 16:00:06.293785,1024,2025-11-07 16:00:09.821296308
2025-11-07 16:00:06.293785,0,2025-11-07 16:00:09.828988615
2025-11-07 16:00:06.293785,0,2025-11-07 16:00:09.836680923
2025-11-07 16:00:06.293785,-1024,2025-11-07 16:00:09.844373231
2025-11-07 16:00:06.293785,-1,2025-11-07 16:00:09.852065538
2025-11-07 16:00:06.293785,-11,2025-11-07 16:00:09.859757846
2025-11-07 16:00:06.293785,-3329,2025-11-07 16:00:09.867450154
2025-11-07 16:00:06.293785,-1,2025-11-07 16:00:09.875142462
2025-11-07 16:00:06.293785,-2,2025-11-07 16:00:09.882834769
2025-11-07 16:00:06.293785,7423,2025-11-07 16:00:09.890527077
2025-11-07 16:00:06.293785,0,2025-11-07 16:00:09.898219385
2025-11-07 16:00:06.293785,49,2025-11-07 16:00:09.905911692
2025-11-07 16:00:06.293785,14336,2025-11-07 16:00:09.913604000
2025-11-07 16:00:06.293785,0,2025-11-07 16:00:09.921296308
2025-11-07 16:00:06.293785,47,2025-11-07 16:00:09.928988615
2025-11-07 16:00:06.832985,28,2025-11-07 16:00:09.936680923
2025-11-07 16:00:06.832985,2816,2025-11-07 16:00:09.944373231
2025-11-07 16:00:06.832985,0,2025-11-07 16:00:09.952065538
2025-11-07 16:00:06.832985,2,2025-11-07 16:00:09.959757846
2025-11-07 16:00:06.832985,-512,2025-11-07 16:00:09.967450154
2025-11-07 16:00:06.832985,-1,2025-11-07 16:00:09.975142462
2025-11-07 16:00:06.832985,4,2025-11-07 16:00:09.982834769
2025-11-07 16:00:06.832985,3584,2025-11-07 16:00:09.990527077
2025-11-07 16:00:06.832985,0,2025-11-07 16:00:09.998219385
2025-11-07 16:00:06.832985,23,2025-11-07 16:00:10.005911692
2025-11-07 16:00:06.832985,3584,2025-11-07 16:00:10.013604000
2025-11-07 16:00:06.832985,0,2025-11-07 16:00:10.021296308
2025-11-07 16:00:06.832985,-35,2025-11-07 16:00:10.028988615
2025-11-07 16:00:06.832985,-11009,2025-11-07 16:00:10.036680923
2025-11-07 16:00:06.832985,-1,2025-11-07 16:00:10.044373231
2025-11-07 16:00:06.832985,137,2025-11-07 16:00:10.052065538
2025-11-07 16:00:06.832985,5120,2025-11-07 16:00:10.059757846
2025-11-07 16:00:06.832985,2,2025-11-07 16:00:10.067450154
2025-11-07 16:00:06.832985,871,2025-11-07 16:00:10.075142462
2025-11-07 16:00:06.832985,-11776,2025-11-07 16:00:10.082834769
2025-11-07 16:00:06.832985,2,2025-11-07 16:00:10.090527077
2025-11-07 16:00:06.832985,201,2025-11-07 16:00:10.098219385
2025-11-07 16:00:06.832985,-18688,2025-11-07 16:00:10.105911692
2025-11-07 16:00:06.832985,-1,2025-11-07 16:00:10.113604000
2025-11-07 16:00:06.832985,-61,2025-11-07 16:00:10.121296308
2025-11-07 16:00:06.832985,-25089,2025-11-07 16:00:10.128988615
2025-11-07 16:00:06.832985,-1,2025-11-07 16:00:10.136680923
2025-11-07 16:00:06.832985,-142,2025-11-07 16:00:10.144373231
2025-11-07 16:00:06.832985,-29441,2025-11-07 16:00:10.152065538
2025-11-07 16:00:06.832985,-1,2025-11-07 16:00:10.159757846
2025-11-07 16:00:06.832985,-106,2025-11-07 16:00:10.167450154
2025-11-07 16:00:06.832985,-29953,2025-11-07 16:00:10.175142462
2025-11-07 16:00:06.832985,-1,2025-11-07 16:00:10.182834769
2025-11-07 16:00:06.832985,-111,2025-11-07 16:00:10.190527077
2025-11-07 16:00:06.832985,-26369,2025-11-07 16:00:10.198219385
2025-11-07 16:00:06.832985,-1,2025-11-07 16:00:10.205911692
2025-11-07 16:00:06.832985,-101,2025-11-07 16:00:10.213604000
2025-11-07 16:00:06.832985,-24577,2025-11-07 16:00:10.221296308
2025-11-07 16:00:06.832985,-1,2025-11-07 16:00:10.228988615
2025-11-07 16:00:06.832985,-94,2025-11-07 16:00:10.236680923
2025-11-07 16:00:06.832985,-23809,2025-11-07 16:00:10.244373230
2025-11-07 16:00:06.832985,-1,2025-11-07 16:00:10.252065538
2025-11-07 16:00:06.832985,-92,2025-11-07 16:00:10.259757846
2025-11-07 16:00:06.832985,-23809,2025-11-07 16:00:10.267450154
2025-11-07 16:00:06.832985,-1,2025-11-07 16:00:10.275142462
2025-11-07 16:00:06.832985,-94,2025-11-07 16:00:10.282834769
2025-11-07 16:00:06.832985,-24577,2025-11-07 16:00:10.290527077
2025-11-07 16:00:06.832985,-1,2025-11-07 16:00:10.298219385
2025-11-07 16:00:06.832985,-99,2025-11-07 16:00:10.305911692
2025-11-07 16:00:06.832985,-23809,2025-11-07 16:00:10.313604000
2025-11-07 16:00:06.832985,-1,2025-11-07 16:00:10.321296308
2025-11-07 16:00:06.832985,-87,2025-11-07 16:00:10.328988615
2025-11-07 16:00:06.832985,-22017,2025-11-07 16:00:10.336680923
2025-11-07 16:00:06.832985,-1,2025-11-07 16:00:10.344373231
2025-11-07 16:00:06.832985,-92,2025-11-07 16:00:10.352065538
2025-11-07 16:00:06.832985,-22529,2025-11-07 16:00:10.359757846
2025-11-07 16:00:06.832985,-1,2025-11-07 16:00:10.367450154
2025-11-07 16:00:06.832985,-92,2025-11-07 16:00:10.375142462
2025-11-07 16:00:06.832985,-25601,2025-11-07 16:00:10.382834769
2025-11-07 16:00:06.832985,-1,2025-11-07 16:00:10.390527077
2025-11-07 16:00:06.832985,-99,2025-11-07 16:00:10.398219385
2025-11-07 16:00:06.832985,-25089,2025-11-07 16:00:10.405911692
2025-11-07 16:00:06.832985,-1,2025-11-07 16:00:10.413604000
2025-11-07 16:00:06.832985,-106,2025-11-07 16:00:10.421296308
2025-11-07 16:00:06.832985,-29441,2025-11-07 16:00:10.428988615
2025-11-07 16:00:06.832985,-1,2025-11-07 16:00:10.436680923
2025-11-07 16:00:06.832985,-123,2025-11-07 16:00:10.444373231
2025-11-07 16:00:06.832985,31999,2025-11-07 16:00:10.452065538
2025-11-07 16:00:06.832985,-1,2025-11-07 16:00:10.459757846
2025-11-07 16:00:06.832985,-139,2025-11-07 16:00:10.467450154
2025-11-07 16:00:06.832985,30719,2025-11-07 16:00:10.475142462
2025-11-07 16:00:06.832985,-1,2025-11-07 16:00:10.482834769
2025-11-07 16:00:06.832985,-134,2025-11-07 16:00:10.490527077
2025-11-07 16:00:06.832985,29439,2025-11-07 16:00:10.498219385
2025-11-07 16:00:06.832985,-1,2025-11-07 16:00:10.505911692
2025-11-07 16:00:06.832985,-146,2025-11-07 16:00:10.513604000
2025-11-07 16:00:06.832985,28927,2025-11-07 16:00:10.521296308
2025-11-07 16:00:06.832985,-1,2025-11-07 16:00:10.528988615
2025-11-07 16:00:06.832985,-144,2025-11-07 16:00:10.536680923
2025-11-07 16:00:06.832985,28927,2025-11-07 16:00:10.544373231
2025-11-07 16:00:06.832985,-1,2025-11-07 16:00:10.552065538
2025-11-07 16:00:06.832985,-142,2025-11-07 16:00:10.559757846
2025-11-07 16:00:06.832985,28927,2025-11-07 16:00:10.567450154
2025-11-07 16:00:06.832985,-1,2025-11-07 16:00:10.575142462
2025-11-07 16:00:06.832985,-149,2025-11-07 16:00:10.582834769
2025-11-07 16:00:06.832985,27135,2025-11-07 16:00:10.590527077
2025-11-07 16:00:06.832985,-1,2025-11-07 16:00:10.598219385
2025-11-07 16:00:06.832985,-149,2025-11-07 16:00:10.605911692
2025-11-07 16:00:06.832985,26623,2025-11-07 16:00:10.613604000
2025-11-07 16:00:06.832985,-1,2025-11-07 16:00:10.621296308
2025-11-07 16:00:06.832985,-153,2025-11-07 16:00:10.628988615
2025-11-07 16:00:06.832985,-31745,2025-11-07 16:00:10.636680923
2025-11-07 16:00:06.832985,-1,2025-11-07 16:00:10.644373231
2025-11-07 16:00:06.832985,-97,2025-11-07 16:00:10.652065538
2025-11-07 16:00:06.832985,-22529,2025-11-07 16:00:10.659757846
2025-11-07 16:00:06.832985,-1,2025-11-07 16:00:10.667450154
2025-11-07 16:00:06.832985,-92,2025-11-07 16:00:10.675142462
2025-11-07 16:00:06.832985,-26881,2025-11-07 16:00:10.682834769
2025-11-07 16:00:06.832985,-1,2025-11-07 16:00:10.690527077
2025-11-07 16:00:06.832985,-123,2025-11-07 16:00:10.698219385
2025-11-07 16:00:06.832985,30719,2025-11-07 16:00:10.705911692
2025-11-07 16:00:06.832985,-1,2025-11-07 16:00:10.713604000
2025-11-07 16:00:06.832985,-149,2025-11-07 16:00:10.721296308
2025-11-07 16:00:06.832985,29439,2025-11-07 16:00:10.728988615
2025-11-07 16:00:06.832985,-1,2025-11-07 16:00:10.736680923
2025-11-07 16:00:06.832985,-137,2025-11-07 16:00:10.744373231
2025-11-07 16:00:06.832985,28927,2025-11-07 16:00:10.752065538
2025-11-07 16:00:06.832985,-1,2025-11-07 16:00:10.759757846
2025-11-07 16:00:06.832985,-151,2025-11-07 16:00:10.767450154
2025-11-07 16:00:07.464114,-175,2025-11-07 16:00:10.775142462
2025-11-07 16:00:07.464114,13823,2025-11-07 16:00:10.782834769
2025-11-07 16:00:07.464114,-1,2025-11-07 16:00:10.790527077
2025-11-07 16:00:07.464114,-92,2025-11-07 16:00:10.798219385
2025-11-07 16:00:07.464114,7423,2025-11-07 16:00:10.805911692
2025-11-07 16:00:07.464114,1,2025-11-07 16:00:10.813604000
2025-11-07 16:00:07.464114,708,2025-11-07 16:00:10.821296308
2025-11-07 16:00:07.464114,-22016,2025-11-07 16:00:10.828988615
2025-11-07 16:00:07.464114,2,2025-11-07 16:00:10.836680923
2025-11-07 16:00:07.464114,184,2025-11-07 16:00:10.844373231
2025-11-07 16:00:07.464114,21504,2025-11-07 16:00:10.852065538
2025-11-07 16:00:07.464114,-1,2025-11-07 16:00:10.859757846
2025-11-07 16:00:07.464114,-201,2025-11-07 16:00:10.867450154
2025-11-07 16:00:07.464114,8447,2025-11-07 16:00:10.875142462
2025-11-07 16:00:07.464114,-1,2025-11-07 16:00:10.882834769
2025-11-07 16:00:07.464114,-274,2025-11-07 16:00:10.890527077
2025-11-07 16:00:07.464114,1023,2025-11-07 16:00:10.898219385
2025-11-07 16:00:07.464114,-1,2025-11-07 16:00:10.905911692
2025-11-07 16:00:07.464114,-234,2025-11-07 16:00:10.913604000
2025-11-07 16:00:07.464114,3583,2025-11-07 16:00:10.921296308
2025-11-07 16:00:07.464114,-1,2025-11-07 16:00:10.928988615
2025-11-07 16:00:07.464114,-234,2025-11-07 16:00:10.936680923
2025-11-07 16:00:07.464114,10751,2025-11-07 16:00:10.944373231
2025-11-07 16:00:07.464114,-1,2025-11-07 16:00:10.952065538
2025-11-07 16:00:07.464114,-217,2025-11-07 16:00:10.959757846
2025-11-07 16:00:07.464114,10751,2025-11-07 16:00:10.967450154
2025-11-07 16:00:07.464114,-1,2025-11-07 16:00:10.975142462
2025-11-07 16:00:07.464114,-201,2025-11-07 16:00:10.982834769
2025-11-07 16:00:07.464114,16127,2025-11-07 16:00:10.990527077
2025-11-07 16:00:07.464114,-1,2025-11-07 16:00:10.998219385
2025-11-07 16:00:07.464114,-189,2025-11-07 16:00:11.005911692
2025-11-07 16:00:07.464114,19967,2025-11-07 16:00:11.013604000
2025-11-07 16:00:07.464114,-1,2025-11-07 16:00:11.021296308
2025-11-07 16:00:07.464114,-177,2025-11-07 16:00:11.028988615
2025-11-07 16:00:07.464114,19967,2025-11-07 16:00:11.036680923
2025-11-07 16:00:07.464114,-1,2025-11-07 16:00:11.044373231
2025-11-07 16:00:07.464114,-172,2025-11-07 16:00:11.052065538
2025-11-07 16:00:07.464114,24575,2025-11-07 16:00:11.059757846
2025-11-07 16:00:07.464114,-1,2025-11-07 16:00:11.067450154
2025-11-07 16:00:07.464114,-149,2025-11-07 16:00:11.075142462
2025-11-07 16:00:07.464114,30719,2025-11-07 16:00:11.082834769
2025-11-07 16:00:07.464114,-1,2025-11-07 16:00:11.090527077
2025-11-07 16:00:07.464114,-127,2025-11-07 16:00:11.098219385
2025-11-07 16:00:07.464114,-31233,2025-11-07 16:00:11.105911692
2025-11-07 16:00:07.464114,-1,2025-11-07 16:00:11.113604000
2025-11-07 16:00:07.464114,-118,2025-11-07 16:00:11.121296308
2025-11-07 16:00:07.464114,-29953,2025-11-07 16:00:11.128988615
2025-11-07 16:00:07.464114,-1,2025-11-07 16:00:11.136680923
2025-11-07 16:00:07.464114,-113,2025-11-07 16:00:11.144373231
2025-11-07 16:00:07.464114,-28161,2025-11-07 16:00:11.152065538
2025-11-07 16:00:07.464114,-1,2025-11-07 16:00:11.159757846
2025-11-07 16:00:07.464114,-111,2025-11-07 16:00:11.167450154
2025-11-07 16:00:07.464114,-27393,2025-11-07 16:00:11.175142462
2025-11-07 16:00:07.464114,-1,2025-11-07 16:00:11.182834769
2025-11-07 16:00:07.464114,-113,2025-11-07 16:00:11.190527077
2025-11-07 16:00:07.464114,-29441,2025-11-07 16:00:11.198219385
2025-11-07 16:00:07.464114,-1,2025-11-07 16:00:11.205911692
2025-11-07 16:00:07.464114,-111,2025-11-07 16:00:11.213604000
2025-11-07 16:00:07.464114,-26369,2025-11-07 16:00:11.221296308
2025-11-07 16:00:07.464114,-1,2025-11-07 16:00:11.228988615
2025-11-07 16:00:07.464114,-101,2025-11-07 16:00:11.236680923
2025-11-07 16:00:07.464114,-24577,2025-11-07 16:00:11.244373230
2025-11-07 16:00:07.464114,-1,2025-11-07 16:00:11.252065538
2025-11-07 16:00:07.464114,-94,2025-11-07 16:00:11.259757846
2025-11-07 16:00:07.464114,-22529,2025-11-07 16:00:11.267450154
2025-11-07 16:00:07.464114,-1,2025-11-07 16:00:11.275142462
2025-11-07 16:00:07.464114,-85,2025-11-07 16:00:11.282834769
2025-11-07 16:00:07.464114,-19713,2025-11-07 16:00:11.290527077
2025-11-07 16:00:07.464114,-1,2025-11-07 16:00:11.298219385
2025-11-07 16:00:07.464114,-71,2025-11-07 16:00:11.305911692
2025-11-07 16:00:07.464114,-15361,2025-11-07 16:00:11.313604000
2025-11-07 16:00:07.464114,-1,2025-11-07 16:00:11.321296308
2025-11-07 16:00:07.464114,-54,2025-11-07 16:00:11.328988615
2025-11-07 16:00:07.464114,-14081,2025-11-07 16:00:11.336680923
2025-11-07 16:00:07.464114,-1,2025-11-07 16:00:11.344373231
2025-11-07 16:00:07.464114,-63,2025-11-07 16:00:11.352065538
2025-11-07 16:00:07.464114,-15361,2025-11-07 16:00:11.359757846
2025-11-07 16:00:07.464114,-1,2025-11-07 16:00:11.367450154
2025-11-07 16:00:07.464114,-56,2025-11-07 16:00:11.375142462
2025-11-07 16:00:07.464114,-8193,2025-11-07 16:00:11.382834769
2025-11-07 16:00:07.464114,-1,2025-11-07 16:00:11.390527077
2025-11-07 16:00:07.464114,-7,2025-11-07 16:00:11.398219385
2025-11-07 16:00:07.464114,255,2025-11-07 16:00:11.405911692
2025-11-07 16:00:07.464114,0,2025-11-07 16:00:11.413604000
2025-11-07 16:00:07.464114,-4,2025-11-07 16:00:11.421296308
2025-11-07 16:00:07.464114,-3841,2025-11-07 16:00:11.428988615
2025-11-07 16:00:07.464114,-1,2025-11-07 16:00:11.436680923
2025-11-07 16:00:07.464114,-23,2025-11-07 16:00:11.444373231
2025-11-07 16:00:07.464114,-6401,2025-11-07 16:00:11.452065538
2025-11-07 16:00:07.464114,-1,2025-11-07 16:00:11.459757846
2025-11-07 16:00:07.464114,-35,2025-11-07 16:00:11.467450154
2025-11-07 16:00:07.464114,-7425,2025-11-07 16:00:11.475142462
2025-11-07 16:00:07.464114,-1,2025-11-07 16:00:11.482834769
2025-11-07 16:00:07.464114,-30,2025-11-07 16:00:11.490527077
2025-11-07 16:00:07.464114,-9985,2025-11-07 16:00:11.498219385
2025-11-07 16:00:07.464114,-1,2025-11-07 16:00:11.505911692
2025-11-07 16:00:07.464114,-42,2025-11-07 16:00:11.513604000
2025-11-07 16:00:07.464114,-15873,2025-11-07 16:00:11.521296308
2025-11-07 16:00:07.464114,-1,2025-11-07 16:00:11.528988615
2025-11-07 16:00:07.464114,-89,2025-11-07 16:00:11.536680923
2025-11-07 16:00:07.464114,7935,2025-11-07 16:00:11.544373231
2025-11-07 16:00:07.464114,0,2025-11-07 16:00:11.552065538
2025-11-07 16:00:07.464114,407,2025-11-07 16:00:11.559757846
2025-11-07 16:00:07.464114,17152,2025-11-07 16:00:11.567450154
2025-11-07 16:00:07.464114,3,2025-11-07 16:00:11.575142462
2025-11-07 16:00:07.464114,845,2025-11-07 16:00:11.582834769
2025-11-07 16:00:07.464114,24576,2025-11-07 16:00:11.590527077
2025-11-07 16:00:07.464114,1,2025-11-07 16:00:11.598219385
2025-11-07 16:00:07.464114,-35,2025-11-07 16:00:11.605911692
2025-11-07 16:00:08.050309,-61,2025-11-07 16:00:11.613604000
2025-11-07 16:00:08.050309,-14849,2025-11-07 16:00:11.621296308
2025-11-07 16:00:08.050309,-1,2025-11-07 16:00:11.628988615
2025-11-07 16:00:08.050309,-111,2025-11-07 16:00:11.636680923
2025-11-07 16:00:08.050309,-22017,2025-11-07 16:00:11.644373231
2025-11-07 16:00:08.050309,-1,2025-11-07 16:00:11.652065538
2025-11-07 16:00:08.050309,-54,2025-11-07 16:00:11.659757846
2025-11-07 16:00:08.050309,-15361,2025-11-07 16:00:11.667450154
2025-11-07 16:00:08.050309,-1,2025-11-07 16:00:11.675142462
2025-11-07 16:00:08.050309,-42,2025-11-07 16:00:11.682834769
2025-11-07 16:00:08.050309,-3329,2025-11-07 16:00:11.690527077
2025-11-07 16:00:08.050309,-1,2025-11-07 16:00:11.698219385
2025-11-07 16:00:08.050309,-9,2025-11-07 16:00:11.705911692
2025-11-07 16:00:08.050309,1279,2025-11-07 16:00:11.713604000
2025-11-07 16:00:08.050309,0,2025-11-07 16:00:11.721296308
2025-11-07 16:00:08.050309,21,2025-11-07 16:00:11.728988615
2025-11-07 16:00:08.050309,6656,2025-11-07 16:00:11.736680923
2025-11-07 16:00:08.050309,0,2025-11-07 16:00:11.744373231
2025-11-07 16:00:08.050309,52,2025-11-07 16:00:11.752065538
2025-11-07 16:00:08.050309,18176,2025-11-07 16:00:11.759757846
2025-11-07 16:00:08.050309,0,2025-11-07 16:00:11.767450154
2025-11-07 16:00:08.050309,66,2025-11-07 16:00:11.775142462
2025-11-07 16:00:08.050309,16896,2025-11-07 16:00:11.782834769
2025-11-07 16:00:08.050309,0,2025-11-07 16:00:11.790527077
2025-11-07 16:00:08.050309,78,2025-11-07 16:00:11.798219385
2025-11-07 16:00:08.050309,20992,2025-11-07 16:00:11.805911692
2025-11-07 16:00:08.050309,0,2025-11-07 16:00:11.813604000
2025-11-07 16:00:08.050309,87,2025-11-07 16:00:11.821296308
2025-11-07 16:00:08.050309,25856,2025-11-07 16:00:11.828988615
2025-11-07 16:00:08.050309,0,2025-11-07 16:00:11.836680923
2025-11-07 16:00:08.050309,120,2025-11-07 16:00:11.844373231
2025-11-07 16:00:08.050309,-32256,2025-11-07 16:00:11.852065538
2025-11-07 16:00:08.050309,0,2025-11-07 16:00:11.859757846
2025-11-07 16:00:08.050309,134,2025-11-07 16:00:11.867450154
2025-11-07 16:00:08.050309,-27392,2025-11-07 16:00:11.875142462
2025-11-07 16:00:08.050309,0,2025-11-07 16:00:11.882834769
2025-11-07 16:00:08.050309,168,2025-11-07 16:00:11.890527077
2025-11-07 16:00:08.050309,-20224,2025-11-07 16:00:11.898219385
2025-11-07 16:00:08.050309,0,2025-11-07 16:00:11.905911692
2025-11-07 16:00:08.050309,184,2025-11-07 16:00:11.913604000
2025-11-07 16:00:08.050309,-15872,2025-11-07 16:00:11.921296308
2025-11-07 16:00:08.050309,0,2025-11-07 16:00:11.928988615
2025-11-07 16:00:08.050309,196,2025-11-07 16:00:11.936680923
2025-11-07 16:00:08.050309,-15360,2025-11-07 16:00:11.944373231
2025-11-07 16:00:08.050309,0,2025-11-07 16:00:11.952065538
2025-11-07 16:00:08.050309,206,2025-11-07 16:00:11.959757846
2025-11-07 16:00:08.050309,-11776,2025-11-07 16:00:11.967450154
2025-11-07 16:00:08.050309,0,2025-11-07 16:00:11.975142462
2025-11-07 16:00:08.050309,220,2025-11-07 16:00:11.982834769
2025-11-07 16:00:08.050309,-5632,2025-11-07 16:00:11.990527077
2025-11-07 16:00:08.050309,0,2025-11-07 16:00:11.998219385
2025-11-07 16:00:08.050309,241,2025-11-07 16:00:12.005911692
2025-11-07 16:00:08.050309,-2048,2025-11-07 16:00:12.013604000
2025-11-07 16:00:08.050309,0,2025-11-07 16:00:12.021296308
2025-11-07 16:00:08.050309,258,2025-11-07 16:00:12.028988615
2025-11-07 16:00:08.050309,4096,2025-11-07 16:00:12.036680923
2025-11-07 16:00:08.050309,1,2025-11-07 16:00:12.044373231
2025-11-07 16:00:08.050309,286,2025-11-07 16:00:12.052065538
2025-11-07 16:00:08.050309,8192,2025-11-07 16:00:12.059757846
2025-11-07 16:00:08.050309,1,2025-11-07 16:00:12.067450154
2025-11-07 16:00:08.050309,291,2025-11-07 16:00:12.075142462
2025-11-07 16:00:08.050309,8960,2025-11-07 16:00:12.082834769
2025-11-07 16:00:08.050309,1,2025-11-07 16:00:12.090527077
2025-11-07 16:00:08.050309,281,2025-11-07 16:00:12.098219385
2025-11-07 16:00:08.050309,4608,2025-11-07 16:00:12.105911692
2025-11-07 16:00:08.050309,1,2025-11-07 16:00:12.113604000
2025-11-07 16:00:08.050309,279,2025-11-07 16:00:12.121296308
2025-11-07 16:00:08.050309,12032,2025-11-07 16:00:12.128988615
2025-11-07 16:00:08.050309,1,2025-11-07 16:00:12.136680923
2025-11-07 16:00:08.050309,326,2025-11-07 16:00:12.144373231
2025-11-07 16:00:08.050309,17920,2025-11-07 16:00:12.152065538
2025-11-07 16:00:08.050309,1,2025-11-07 16:00:12.159757846
2025-11-07 16:00:08.050309,317,2025-11-07 16:00:12.167450154
2025-11-07 16:00:08.050309,13056,2025-11-07 16:00:12.175142462
2025-11-07 16:00:08.050309,1,2025-11-07 16:00:12.182834769
2025-11-07 16:00:08.050309,293,2025-11-07 16:00:12.190527077
2025-11-07 16:00:08.050309,5888,2025-11-07 16:00:12.198219385
2025-11-07 16:00:08.050309,1,2025-11-07 16:00:12.205911692
2025-11-07 16:00:08.050309,274,2025-11-07 16:00:12.213604000
2025-11-07 16:00:08.050309,4608,2025-11-07 16:00:12.221296308
2025-11-07 16:00:08.050309,1,2025-11-07 16:00:12.228988615
2025-11-07 16:00:08.050309,267,2025-11-07 16:00:12.236680923
2025-11-07 16:00:08.050309,1024,2025-11-07 16:00:12.244373230
2025-11-07 16:00:08.050309,1,2025-11-07 16:00:12.252065538
2025-11-07 16:00:08.050309,253,2025-11-07 16:00:12.259757846
2025-11-07 16:00:08.050309,-9984,2025-11-07 16:00:12.267450154
2025-11-07 16:00:08.050309,0,2025-11-07 16:00:12.275142462
2025-11-07 16:00:08.050309,184,2025-11-07 16:00:12.282834769
2025-11-07 16:00:08.050309,15616,2025-11-07 16:00:12.290527077
2025-11-07 16:00:08.050309,1,2025-11-07 16:00:12.298219385
2025-11-07 16:00:08.050309,698,2025-11-07 16:00:12.305911692
2025-11-07 16:00:08.050309,18432,2025-11-07 16:00:12.313604000
2025-11-07 16:00:08.050309,4,2025-11-07 16:00:12.321296308
2025-11-07 16:00:08.050309,1030,2025-11-07 16:00:12.328988615
2025-11-07 16:00:08.050309,-2560,2025-11-07 16:00:12.336680923
2025-11-07 16:00:08.050309,1,2025-11-07 16:00:12.344373231
2025-11-07 16:00:08.050309,151,2025-11-07 16:00:12.352065538
2025-11-07 16:00:08.050309,-30464,2025-11-07 16:00:12.359757846
2025-11-07 16:00:08.050309,0,2025-11-07 16:00:12.367450154
2025-11-07 16:00:08.050309,108,2025-11-07 16:00:12.375142462
2025-11-07 16:00:08.050309,12544,2025-11-07 16:00:12.382834769
2025-11-07 16:00:08.050309,0,2025-11-07 16:00:12.390527077
2025-11-07 16:00:08.050309,61,2025-11-07 16:00:12.398219385
2025-11-07 16:00:08.050309,19200,2025-11-07 16:00:12.405911692
2025-11-07 16:00:08.050309,0,2025-11-07 16:00:12.413604000
2025-11-07 16:00:08.050309,54,2025-11-07 16:00:12.421296308
2025-11-07 16:00:08.050309,12544,2025-11-07 16:00:12.428988615
2025-11-07 16:00:08.050309,0,2025-11-07 16:00:12.436680923
2025-11-07 16:00:08.050309,56,2025-11-07 16:00:12.444373231
2025-11-07 16:00:08.544987,52,2025-11-07 16:00:12.452065538
2025-11-07 16:00:08.544987,13312,2025-11-07 16:00:12.459757846
2025-11-07 16:00:08.544987,0,2025-11-07 16:00:12.467450154
2025-11-07 16:00:08.544987,52,2025-11-07 16:00:12.475142462
2025-11-07 16:00:08.544987,12032,2025-11-07 16:00:12.482834769
2025-11-07 16:00:08.544987,0,2025-11-07 16:00:12.490527077
2025-11-07 16:00:08.544987,47,2025-11-07 16:00:12.498219385
2025-11-07 16:00:08.544987,11264,2025-11-07 16:00:12.505911692
2025-11-07 16:00:08.544987,0,2025-11-07 16:00:12.513604000
2025-11-07 16:00:08.544987,37,2025-11-07 16:00:12.521296308
2025-11-07 16:00:08.544987,10752,2025-11-07 16:00:12.528988615
2025-11-07 16:00:08.544987,0,2025-11-07 16:00:12.536680923
2025-11-07 16:00:08.544987,40,2025-11-07 16:00:12.544373231
2025-11-07 16:00:08.544987,8448,2025-11-07 16:00:12.552065538
2025-11-07 16:00:08.544987,0,2025-11-07 16:00:12.559757846
2025-11-07 16:00:08.544987,42,2025-11-07 16:00:12.567450154
2025-11-07 16:00:08.544987,14336,2025-11-07 16:00:12.575142462
2025-11-07 16:00:08.544987,0,2025-11-07 16:00:12.582834769
2025-11-07 16:00:08.544987,54,2025-11-07 16:00:12.590527077
2025-11-07 16:00:08.544987,10240,2025-11-07 16:00:12.598219385
2025-11-07 16:00:08.544987,0,2025-11-07 16:00:12.605911692
2025-11-07 16:00:08.544987,42,2025-11-07 16:00:12.613604000
2025-11-07 16:00:08.544987,15616,2025-11-07 16:00:12.621296308
2025-11-07 16:00:08.544987,0,2025-11-07 16:00:12.628988615
2025-11-07 16:00:08.544987,73,2025-11-07 16:00:12.636680923
2025-11-07 16:00:08.544987,16128,2025-11-07 16:00:12.644373231
2025-11-07 16:00:08.544987,0,2025-11-07 16:00:12.652065538
2025-11-07 16:00:08.544987,52,2025-11-07 16:00:12.659757846
2025-11-07 16:00:08.544987,12544,2025-11-07 16:00:12.667450154
2025-11-07 16:00:08.544987,0,2025-11-07 16:00:12.675142462
2025-11-07 16:00:08.544987,44,2025-11-07 16:00:12.682834769
2025-11-07 16:00:08.544987,8960,2025-11-07 16:00:12.690527077
2025-11-07 16:00:08.544987,0,2025-11-07 16:00:12.698219385
2025-11-07 16:00:08.544987,35,2025-11-07 16:00:12.705911692
2025-11-07 16:00:08.544987,8448,2025-11-07 16:00:12.713604000
2025-11-07 16:00:08.544987,0,2025-11-07 16:00:12.721296308
2025-11-07 16:00:08.544987,23,2025-11-07 16:00:12.728988615
2025-11-07 16:00:08.544987,5376,2025-11-07 16:00:12.736680923
2025-11-07 16:00:08.544987,0,2025-11-07 16:00:12.744373231
2025-11-07 16:00:08.544987,26,2025-11-07 16:00:12.752065538
2025-11-07 16:00:08.544987,6656,2025-11-07 16:00:12.759757846
2025-11-07 16:00:08.544987,0,2025-11-07 16:00:12.767450154
2025-11-07 16:00:08.544987,18,2025-11-07 16:00:12.775142462
2025-11-07 16:00:08.544987,5376,2025-11-07 16:00:12.782834769
2025-11-07 16:00:08.544987,0,2025-11-07 16:00:12.790527077
2025-11-07 16:00:08.544987,30,2025-11-07 16:00:12.798219385
2025-11-07 16:00:08.544987,6656,2025-11-07 16:00:12.805911692
2025-11-07 16:00:08.544987,0,2025-11-07 16:00:12.813604000
2025-11-07 16:00:08.544987,16,2025-11-07 16:00:12.821296308
2025-11-07 16:00:08.544987,3584,2025-11-07 16:00:12.828988615
2025-11-07 16:00:08.544987,0,2025-11-07 16:00:12.836680923
2025-11-07 16:00:08.544987,7,2025-11-07 16:00:12.844373231
2025-11-07 16:00:08.544987,-512,2025-11-07 16:00:12.852065538
2025-11-07 16:00:08.544987,-1,2025-11-07 16:00:12.859757846
2025-11-07 16:00:08.544987,0,2025-11-07 16:00:12.867450154
2025-11-07 16:00:08.544987,4608,2025-11-07 16:00:12.875142462
2025-11-07 16:00:08.544987,0,2025-11-07 16:00:12.882834769
2025-11-07 16:00:08.544987,40,2025-11-07 16:00:12.890527077
2025-11-07 16:00:08.544987,12544,2025-11-07 16:00:12.898219385
2025-11-07 16:00:08.544987,0,2025-11-07 16:00:12.905911692
2025-11-07 16:00:08.544987,44,2025-11-07 16:00:12.913604000
2025-11-07 16:00:08.544987,5376,2025-11-07 16:00:12.921296308
2025-11-07 16:00:08.544987,0,2025-11-07 16:00:12.928988615
2025-11-07 16:00:08.544987,4,2025-11-07 16:00:12.936680923
2025-11-07 16:00:08.544987,512,2025-11-07 16:00:12.944373231
2025-11-07 16:00:08.544987,0,2025-11-07 16:00:12.952065538
2025-11-07 16:00:08.544987,-7,2025-11-07 16:00:12.959757846
2025-11-07 16:00:08.544987,-3329,2025-11-07 16:00:12.967450154
2025-11-07 16:00:08.544987,-1,2025-11-07 16:00:12.975142462
2025-11-07 16:00:08.544987,-14,2025-11-07 16:00:12.982834769
2025-11-07 16:00:08.544987,-4353,2025-11-07 16:00:12.990527077
2025-11-07 16:00:08.544987,-1,2025-11-07 16:00:12.998219385
2025-11-07 16:00:08.544987,-26,2025-11-07 16:00:13.005911692
2025-11-07 16:00:08.544987,-12289,2025-11-07 16:00:13.013604000
2025-11-07 16:00:08.544987,-1,2025-11-07 16:00:13.021296308
2025-11-07 16:00:08.544987,-78,2025-11-07 16:00:13.028988615
2025-11-07 16:00:08.544987,1279,2025-11-07 16:00:13.036680923
2025-11-07 16:00:08.544987,0,2025-11-07 16:00:13.044373231
2025-11-07 16:00:08.544987,326,2025-11-07 16:00:13.052065538
2025-11-07 16:00:08.544987,-2048,2025-11-07 16:00:13.059757846
2025-11-07 16:00:08.544987,2,2025-11-07 16:00:13.067450154
2025-11-07 16:00:08.544987,828,2025-11-07 16:00:13.075142462
2025-11-07 16:00:08.544987,26368,2025-11-07 16:00:13.082834769
2025-11-07 16:00:08.544987,1,2025-11-07 16:00:13.090527077
2025-11-07 16:00:08.544987,-56,2025-11-07 16:00:13.098219385
2025-11-07 16:00:08.544987,-23809,2025-11-07 16:00:13.105911692
2025-11-07 16:00:08.544987,-1,2025-11-07 16:00:13.113604000
2025-11-07 16:00:08.544987,-99,2025-11-07 16:00:13.121296308
2025-11-07 16:00:08.544987,23551,2025-11-07 16:00:13.128988615
2025-11-07 16:00:08.544987,-1,2025-11-07 16:00:13.136680923
2025-11-07 16:00:08.544987,-153,2025-11-07 16:00:13.144373231
2025-11-07 16:00:08.544987,31999,2025-11-07 16:00:13.152065538
2025-11-07 16:00:08.544987,-1,2025-11-07 16:00:13.159757846
2025-11-07 16:00:08.544987,-153,2025-11-07 16:00:13.167450154
2025-11-07 16:00:08.544987,27135,2025-11-07 16:00:13.175142462
2025-11-07 16:00:08.544987,-1,2025-11-07 16:00:13.182834769
2025-11-07 16:00:08.544987,-134,2025-11-07 16:00:13.190527077
2025-11-07 16:00:08.544987,30719,2025-11-07 16:00:13.198219385
2025-11-07 16:00:08.544987,-1,2025-11-07 16:00:13.205911692
2025-11-07 16:00:08.544987,-134,2025-11-07 16:00:13.213604000
2025-11-07 16:00:08.544987,-32257,2025-11-07 16:00:13.221296308
2025-11-07 16:00:08.544987,-1,2025-11-07 16:00:13.228988615
2025-11-07 16:00:08.544987,-127,2025-11-07 16:00:13.236680923
2025-11-07 16:00:08.544987,-29441,2025-11-07 16:00:13.244373230
2025-11-07 16:00:08.544987,-1,2025-11-07 16:00:13.252065538
2025-11-07 16:00:08.544987,-123,2025-11-07 16:00:13.259757846
2025-11-07 16:00:08.544987,27647,2025-11-07 16:00:13.267450154
2025-11-07 16:00:08.544987,-1,2025-11-07 16:00:13.275142462
2025-11-07 16:00:08.544987,-127,2025-11-07 16:00:13.282834769
2025-11-07 16:00:09.131739,-89,2025-11-07 16:00:13.290527077
2025-11-07 16:00:09.131739,-24577,2025-11-07 16:00:13.298219385
2025-11-07 16:00:09.131739,-1,2025-11-07 16:00:13.305911692
2025-11-07 16:00:09.131739,-111,2025-11-07 16:00:13.313604000
2025-11-07 16:00:09.131739,-23297,2025-11-07 16:00:13.321296308
2025-11-07 16:00:09.131739,-1,2025-11-07 16:00:13.328988615
2025-11-07 16:00:09.131739,-73,2025-11-07 16:00:13.336680923
2025-11-07 16:00:09.131739,-25089,2025-11-07 16:00:13.344373231
2025-11-07 16:00:09.131739,-1,2025-11-07 16:00:13.352065538
2025-11-07 16:00:09.131739,-97,2025-11-07 16:00:13.359757846
2025-11-07 16:00:09.131739,-11777,2025-11-07 16:00:13.367450154
2025-11-07 16:00:09.131739,-1,2025-11-07 16:00:13.375142462
2025-11-07 16:00:09.131739,-49,2025-11-07 16:00:13.382834769
2025-11-07 16:00:09.131739,-20737,2025-11-07 16:00:13.390527077
2025-11-07 16:00:09.131739,-1,2025-11-07 16:00:13.398219385
2025-11-07 16:00:09.131739,-80,2025-11-07 16:00:13.405911692
2025-11-07 16:00:09.131739,-18945,2025-11-07 16:00:13.413604000
2025-11-07 16:00:09.131739,-1,2025-11-07 16:00:13.421296308
2025-11-07 16:00:09.131739,-89,2025-11-07 16:00:13.428988615
2025-11-07 16:00:09.131739,-25601,2025-11-07 16:00:13.436680923
2025-11-07 16:00:09.131739,-1,2025-11-07 16:00:13.444373231
2025-11-07 16:00:09.131739,-101,2025-11-07 16:00:13.452065538
2025-11-07 16:00:09.131739,-26369,2025-11-07 16:00:13.459757846
2025-11-07 16:00:09.131739,-1,2025-11-07 16:00:13.467450154
2025-11-07 16:00:09.131739,-130,2025-11-07 16:00:13.475142462
2025-11-07 16:00:09.131739,32511,2025-11-07 16:00:13.482834769
2025-11-07 16:00:09.131739,-1,2025-11-07 16:00:13.490527077
2025-11-07 16:00:09.131739,-92,2025-11-07 16:00:13.498219385
2025-11-07 16:00:09.131739,-21505,2025-11-07 16:00:13.505911692
2025-11-07 16:00:09.131739,-1,2025-11-07 16:00:13.513604000
2025-11-07 16:00:09.131739,-104,2025-11-07 16:00:13.521296308
2025-11-07 16:00:09.131739,-25089,2025-11-07 16:00:13.528988615
2025-11-07 16:00:09.131739,-1,2025-11-07 16:00:13.536680923
2025-11-07 16:00:09.131739,-85,2025-11-07 16:00:13.544373231
2025-11-07 16:00:09.131739,-21505,2025-11-07 16:00:13.552065538
2025-11-07 16:00:09.131739,-1,2025-11-07 16:00:13.559757846
2025-11-07 16:00:09.131739,-82,2025-11-07 16:00:13.567450154
2025-11-07 16:00:09.131739,-19713,2025-11-07 16:00:13.575142462
2025-11-07 16:00:09.131739,-1,2025-11-07 16:00:13.582834769
2025-11-07 16:00:09.131739,-82,2025-11-07 16:00:13.590527077
2025-11-07 16:00:09.131739,-22529,2025-11-07 16:00:13.598219385
2025-11-07 16:00:09.131739,-1,2025-11-07 16:00:13.605911692
2025-11-07 16:00:09.131739,-87,2025-11-07 16:00:13.613604000
2025-11-07 16:00:09.131739,-15873,2025-11-07 16:00:13.621296308
2025-11-07 16:00:09.131739,-1,2025-11-07 16:00:13.628988615
2025-11-07 16:00:09.131739,-30,2025-11-07 16:00:13.636680923
2025-11-07 16:00:09.131739,-3841,2025-11-07 16:00:13.644373231
2025-11-07 16:00:09.131739,-1,2025-11-07 16:00:13.652065538
2025-11-07 16:00:09.131739,-23,2025-11-07 16:00:13.659757846
2025-11-07 16:00:09.131739,-8193,2025-11-07 16:00:13.667450154
2025-11-07 16:00:09.131739,-1,2025-11-07 16:00:13.675142462
2025-11-07 16:00:09.131739,-44,2025-11-07 16:00:13.682834769
2025-11-07 16:00:09.131739,-13569,2025-11-07 16:00:13.690527077
2025-11-07 16:00:09.131739,-1,2025-11-07 16:00:13.698219385
2025-11-07 16:00:09.131739,-63,2025-11-07 16:00:13.705911692
2025-11-07 16:00:09.131739,-17921,2025-11-07 16:00:13.713604000
2025-11-07 16:00:09.131739,-1,2025-11-07 16:00:13.721296308
2025-11-07 16:00:09.131739,-71,2025-11-07 16:00:13.728988615
2025-11-07 16:00:09.131739,-18945,2025-11-07 16:00:13.736680923
2025-11-07 16:00:09.131739,-1,2025-11-07 16:00:13.744373231
2025-11-07 16:00:09.131739,-80,2025-11-07 16:00:13.752065538
2025-11-07 16:00:09.131739,-25601,2025-11-07 16:00:13.759757846
2025-11-07 16:00:09.131739,-1,2025-11-07 16:00:13.767450154
2025-11-07 16:00:09.131739,-139,2025-11-07 16:00:13.775142462
2025-11-07 16:00:09.131739,-18433,2025-11-07 16:00:13.782834769
2025-11-07 16:00:09.131739,-1,2025-11-07 16:00:13.790527077
2025-11-07 16:00:09.131739,243,2025-11-07 16:00:13.798219385
2025-11-07 16:00:09.131739,-19712,2025-11-07 16:00:13.805911692
2025-11-07 16:00:09.131739,2,2025-11-07 16:00:13.813604000
2025-11-07 16:00:09.131739,812,2025-11-07 16:00:13.821296308
2025-11-07 16:00:09.131739,29440,2025-11-07 16:00:13.828988615
2025-11-07 16:00:09.131739,1,2025-11-07 16:00:13.836680923
2025-11-07 16:00:09.131739,-82,2025-11-07 16:00:13.844373231
2025-11-07 16:00:09.131739,27135,2025-11-07 16:00:13.852065538
2025-11-07 16:00:09.131739,-1,2025-11-07 16:00:13.859757846
2025-11-07 16:00:09.131739,-144,2025-11-07 16:00:13.867450154
2025-11-07 16:00:09.131739,12543,2025-11-07 16:00:13.875142462
2025-11-07 16:00:09.131739,-1,2025-11-07 16:00:13.882834769
2025-11-07 16:00:09.131739,-194,2025-11-07 16:00:13.890527077
2025-11-07 16:00:09.131739,26623,2025-11-07 16:00:13.898219385
2025-11-07 16:00:09.131739,-1,2025-11-07 16:00:13.905911692
2025-11-07 16:00:09.131739,-168,2025-11-07 16:00:13.913604000
2025-11-07 16:00:09.131739,20991,2025-11-07 16:00:13.921296308
2025-11-07 16:00:09.131739,-1,2025-11-07 16:00:13.928988615
2025-11-07 16:00:09.131739,-156,2025-11-07 16:00:13.936680923
2025-11-07 16:00:09.131739,25855,2025-11-07 16:00:13.944373231
2025-11-07 16:00:09.131739,-1,2025-11-07 16:00:13.952065538
2025-11-07 16:00:09.131739,-156,2025-11-07 16:00:13.959757846
2025-11-07 16:00:09.131739,29439,2025-11-07 16:00:13.967450154
2025-11-07 16:00:09.131739,-1,2025-11-07 16:00:13.975142462
2025-11-07 16:00:09.131739,-134,2025-11-07 16:00:13.982834769
2025-11-07 16:00:09.131739,30719,2025-11-07 16:00:13.990527077
2025-11-07 16:00:09.131739,-1,2025-11-07 16:00:13.998219385
2025-11-07 16:00:09.131739,-134,2025-11-07 16:00:14.005911692
2025-11-07 16:00:09.131739,-32257,2025-11-07 16:00:14.013604000
2025-11-07 16:00:09.131739,-1,2025-11-07 16:00:14.021296308
2025-11-07 16:00:09.131739,-125,2025-11-07 16:00:14.028988615
2025-11-07 16:00:09.131739,-31745,2025-11-07 16:00:14.036680923
2025-11-07 16:00:09.131739,-1,2025-11-07 16:00:14.044373231
2025-11-07 16:00:09.131739,-118,2025-11-07 16:00:14.052065538
2025-11-07 16:00:09.131739,-28673,2025-11-07 16:00:14.059757846
2025-11-07 16:00:09.131739,-1,2025-11-07 16:00:14.067450154
2025-11-07 16:00:09.131739,-113,2025-11-07 16:00:14.075142462
2025-11-07 16:00:09.131739,-26369,2025-11-07 16:00:14.082834769
2025-11-07 16:00:09.131739,-1,2025-11-07 16:00:14.090527077
2025-11-07 16:00:09.131739,-101,2025-11-07 16:00:14.098219385
2025-11-07 16:00:09.131739,-25089,2025-11-07 16:00:14.105911692
2025-11-07 16:00:09.131739,-1,2025-11-07 16:00:14.113604000
2025-11-07 16:00:09.131739,-99,2025-11-07 16:00:14.121296308
2025-11-07 16:00:09.670846,-99,2025-11-07 16:00:14.128988615
2025-11-07 16:00:09.670846,-23809,2025-11-07 16:00:14.136680923
2025-11-07 16:00:09.670846,-1,2025-11-07 16:00:14.144373231
2025-11-07 16:00:09.670846,-87,2025-11-07 16:00:14.152065538
2025-11-07 16:00:09.670846,-21505,2025-11-07 16:00:14.159757846
2025-11-07 16:00:09.670846,-1,2025-11-07 16:00:14.167450154
2025-11-07 16:00:09.670846,-85,2025-11-07 16:00:14.175142462
2025-11-07 16:00:09.670846,-22017,2025-11-07 16:00:14.182834769
2025-11-07 16:00:09.670846,-1,2025-11-07 16:00:14.190527077
2025-11-07 16:00:09.670846,-87,2025-11-07 16:00:14.198219385
2025-11-07 16:00:09.670846,-22017,2025-11-07 16:00:14.205911692
2025-11-07 16:00:09.670846,-1,2025-11-07 16:00:14.213604000
2025-11-07 16:00:09.670846,-87,2025-11-07 16:00:14.221296308
2025-11-07 16:00:09.670846,-19713,2025-11-07 16:00:14.228988615
2025-11-07 16:00:09.670846,-1,2025-11-07 16:00:14.236680923
2025-11-07 16:00:09.670846,-52,2025-11-07 16:00:14.244373230
2025-11-07 16:00:09.670846,-9217,2025-11-07 16:00:14.252065538
2025-11-07 16:00:09.670846,-1,2025-11-07 16:00:14.259757846
2025-11-07 16:00:09.670846,-49,2025-11-07 16:00:14.267450154
2025-11-07 16:00:09.670846,-13569,2025-11-07 16:00:14.275142462
2025-11-07 16:00:09.670846,-1,2025-11-07 16:00:14.282834769
2025-11-07 16:00:09.670846,-40,2025-11-07 16:00:14.290527077
2025-11-07 16:00:09.670846,-9217,2025-11-07 16:00:14.298219385
2025-11-07 16:00:09.670846,-1,2025-11-07 16:00:14.305911692
2025-11-07 16:00:09.670846,-37,2025-11-07 16:00:14.313604000
2025-11-07 16:00:09.670846,-9217,2025-11-07 16:00:14.321296308
2025-11-07 16:00:09.670846,-1,2025-11-07 16:00:14.328988615
2025-11-07 16:00:09.670846,-47,2025-11-07 16:00:14.336680923
2025-11-07 16:00:09.670846,-13569,2025-11-07 16:00:14.344373231
2025-11-07 16:00:09.670846,-1,2025-11-07 16:00:14.352065538
2025-11-07 16:00:09.670846,-44,2025-11-07 16:00:14.359757846
2025-11-07 16:00:09.670846,-3841,2025-11-07 16:00:14.367450154
2025-11-07 16:00:09.670846,-1,2025-11-07 16:00:14.375142462
2025-11-07 16:00:09.670846,14,2025-11-07 16:00:14.382834769
2025-11-07 16:00:09.670846,4096,2025-11-07 16:00:14.390527077
2025-11-07 16:00:09.670846,0,2025-11-07 16:00:14.398219385
2025-11-07 16:00:09.670846,9,2025-11-07 16:00:14.405911692
2025-11-07 16:00:09.670846,512,2025-11-07 16:00:14.413604000
2025-11-07 16:00:09.670846,0,2025-11-07 16:00:14.421296308
2025-11-07 16:00:09.670846,-11,2025-11-07 16:00:14.428988615
2025-11-07 16:00:09.670846,-6401,2025-11-07 16:00:14.436680923
2025-11-07 16:00:09.670846,-1,2025-11-07 16:00:14.444373231
2025-11-07 16:00:09.670846,-33,2025-11-07 16:00:14.452065538
2025-11-07 16:00:09.670846,-7425,2025-11-07 16:00:14.459757846
2025-11-07 16:00:09.670846,-1,2025-11-07 16:00:14.467450154
2025-11-07 16:00:09.670846,-28,2025-11-07 16:00:14.475142462
2025-11-07 16:00:09.670846,-8705,2025-11-07 16:00:14.482834769
2025-11-07 16:00:09.670846,-1,2025-11-07 16:00:14.490527077
2025-11-07 16:00:09.670846,-42,2025-11-07 16:00:14.498219385
2025-11-07 16:00:09.670846,-17153,2025-11-07 16:00:14.505911692
2025-11-07 16:00:09.670846,-1,2025-11-07 16:00:14.513604000
2025-11-07 16:00:09.670846,-97,2025-11-07 16:00:14.521296308
2025-11-07 16:00:09.670846,11007,2025-11-07 16:00:14.528988615
2025-11-07 16:00:09.670846,0,2025-11-07 16:00:14.536680923
2025-11-07 16:00:09.670846,457,2025-11-07 16:00:14.544373231
2025-11-07 16:00:09.670846,32512,2025-11-07 16:00:14.552065538
2025-11-07 16:00:09.670846,3,2025-11-07 16:00:14.559757846
2025-11-07 16:00:09.670846,847,2025-11-07 16:00:14.567450154
2025-11-07 16:00:09.670846,10752,2025-11-07 16:00:14.575142462
2025-11-07 16:00:09.670846,1,2025-11-07 16:00:14.582834769
2025-11-07 16:00:09.670846,-92,2025-11-07 16:00:14.590527077
2025-11-07 16:00:09.670846,-29441,2025-11-07 16:00:14.598219385
2025-11-07 16:00:09.670846,-1,2025-11-07 16:00:14.605911692
2025-11-07 16:00:09.670846,-127,2025-11-07 16:00:14.613604000
2025-11-07 16:00:09.670846,20991,2025-11-07 16:00:14.621296308
2025-11-07 16:00:09.670846,-1,2025-11-07 16:00:14.628988615
2025-11-07 16:00:09.670846,-146,2025-11-07 16:00:14.636680923
2025-11-07 16:00:09.670846,-29953,2025-11-07 16:00:14.644373231
2025-11-07 16:00:09.670846,-1,2025-11-07 16:00:14.652065538
2025-11-07 16:00:09.670846,-132,2025-11-07 16:00:14.659757846
2025-11-07 16:00:09.670846,32511,2025-11-07 16:00:14.667450154
2025-11-07 16:00:09.670846,-1,2025-11-07 16:00:14.675142462
2025-11-07 16:00:09.670846,-113,2025-11-07 16:00:14.682834769
2025-11-07 16:00:09.670846,-28673,2025-11-07 16:00:14.690527077
2025-11-07 16:00:09.670846,-1,2025-11-07 16:00:14.698219385
2025-11-07 16:00:09.670846,-111,2025-11-07 16:00:14.705911692
2025-11-07 16:00:09.670846,-25601,2025-11-07 16:00:14.713604000
2025-11-07 16:00:09.670846,-1,2025-11-07 16:00:14.721296308
2025-11-07 16:00:09.670846,-97,2025-11-07 16:00:14.728988615
2025-11-07 16:00:09.670846,-23297,2025-11-07 16:00:14.736680923
2025-11-07 16:00:09.670846,-1,2025-11-07 16:00:14.744373231
2025-11-07 16:00:09.670846,-87,2025-11-07 16:00:14.752065538
2025-11-07 16:00:09.670846,-22017,2025-11-07 16:00:14.759757846
2025-11-07 16:00:09.670846,-1,2025-11-07 16:00:14.767450154
2025-11-07 16:00:09.670846,-82,2025-11-07 16:00:14.775142462
2025-11-07 16:00:09.670846,-18945,2025-11-07 16:00:14.782834769
2025-11-07 16:00:09.670846,-1,2025-11-07 16:00:14.790527077
2025-11-07 16:00:09.670846,-68,2025-11-07 16:00:14.798219385
2025-11-07 16:00:09.670846,-16641,2025-11-07 16:00:14.805911692
2025-11-07 16:00:09.670846,-1,2025-11-07 16:00:14.813604000
2025-11-07 16:00:09.670846,-61,2025-11-07 16:00:14.821296308
2025-11-07 16:00:09.670846,-13057,2025-11-07 16:00:14.828988615
2025-11-07 16:00:09.670846,-1,2025-11-07 16:00:14.836680923
2025-11-07 16:00:09.670846,-49,2025-11-07 16:00:14.844373231
2025-11-07 16:00:09.670846,-11777,2025-11-07 16:00:14.852065538
2025-11-07 16:00:09.670846,-1,2025-11-07 16:00:14.859757846
2025-11-07 16:00:09.670846,-42,2025-11-07 16:00:14.867450154
2025-11-07 16:00:09.670846,-9985,2025-11-07 16:00:14.875142462
2025-11-07 16:00:09.670846,-1,2025-11-07 16:00:14.882834769
2025-11-07 16:00:09.670846,-37,2025-11-07 16:00:14.890527077
2025-11-07 16:00:09.670846,-8705,2025-11-07 16:00:14.898219385
2025-11-07 16:00:09.670846,-1,2025-11-07 16:00:14.905911692
2025-11-07 16:00:09.670846,-33,2025-11-07 16:00:14.913604000
2025-11-07 16:00:09.670846,-8193,2025-11-07 16:00:14.921296308
2025-11-07 16:00:09.670846,-1,2025-11-07 16:00:14.928988615
2025-11-07 16:00:09.670846,-35,2025-11-07 16:00:14.936680923
2025-11-07 16:00:09.670846,-8705,2025-11-07 16:00:14.944373231
2025-11-07 16:00:09.670846,-1,2025-11-07 16:00:14.952065538
2025-11-07 16:00:09.670846,-40,2025-11-07 16:00:14.959757846
2025-11-07 16:00:10.210021,-40,2025-11-07 16:00:14.967450154
2025-11-07 16:00:10.210021,-8193,2025-11-07 16:00:14.975142462
2025-11-07 16:00:10.210021,-1,2025-11-07 16:00:14.982834769
2025-11-07 16:00:10.210021,-33,2025-11-07 16:00:14.990527077
2025-11-07 16:00:10.210021,-8193,2025-11-07 16:00:14.998219385
2025-11-07 16:00:10.210021,-1,2025-11-07 16:00:15.005911692
2025-11-07 16:00:10.210021,-28,2025-11-07 16:00:15.013604000
2025-11-07 16:00:10.210021,-6913,2025-11-07 16:00:15.021296308
2025-11-07 16:00:10.210021,-1,2025-11-07 16:00:15.028988615
2025-11-07 16:00:10.210021,-23,2025-11-07 16:00:15.036680923
2025-11-07 16:00:10.210021,-769,2025-11-07 16:00:15.044373231
2025-11-07 16:00:10.210021,-1,2025-11-07 16:00:15.052065538
2025-11-07 16:00:10.210021,7,2025-11-07 16:00:15.059757846
2025-11-07 16:00:10.210021,-1024,2025-11-07 16:00:15.067450154
2025-11-07 16:00:10.210021,-1,2025-11-07 16:00:15.075142462
2025-11-07 16:00:10.210021,-16,2025-11-07 16:00:15.082834769
2025-11-07 16:00:10.210021,-3329,2025-11-07 16:00:15.090527077
2025-11-07 16:00:10.210021,-1,2025-11-07 16:00:15.098219385
2025-11-07 16:00:10.210021,-16,2025-11-07 16:00:15.105911692
2025-11-07 16:00:10.210021,-769,2025-11-07 16:00:15.113604000
2025-11-07 16:00:10.210021,-1,2025-11-07 16:00:15.121296308
2025-11-07 16:00:10.210021,28,2025-11-07 16:00:15.128988615
2025-11-07 16:00:10.210021,12032,2025-11-07 16:00:15.136680923
2025-11-07 16:00:10.210021,0,2025-11-07 16:00:15.144373231
2025-11-07 16:00:10.210021,49,2025-11-07 16:00:15.152065538
2025-11-07 16:00:10.210021,11264,2025-11-07 16:00:15.159757846
2025-11-07 16:00:10.210021,0,2025-11-07 16:00:15.167450154
2025-11-07 16:00:10.210021,28,2025-11-07 16:00:15.175142462
2025-11-07 16:00:10.210021,4608,2025-11-07 16:00:15.182834769
2025-11-07 16:00:10.210021,0,2025-11-07 16:00:15.190527077
2025-11-07 16:00:10.210021,11,2025-11-07 16:00:15.198219385
2025-11-07 16:00:10.210021,1024,2025-11-07 16:00:15.205911692
2025-11-07 16:00:10.210021,0,2025-11-07 16:00:15.213604000
2025-11-07 16:00:10.210021,9,2025-11-07 16:00:15.221296308
2025-11-07 16:00:10.210021,1024,2025-11-07 16:00:15.228988615
2025-11-07 16:00:10.210021,0,2025-11-07 16:00:15.236680923
2025-11-07 16:00:10.210021,0,2025-11-07 16:00:15.244373230
2025-11-07 16:00:10.210021,-2304,2025-11-07 16:00:15.252065538
2025-11-07 16:00:10.210021,-1,2025-11-07 16:00:15.259757846
2025-11-07 16:00:10.210021,-49,2025-11-07 16:00:15.267450154
2025-11-07 16:00:10.210021,-9985,2025-11-07 16:00:15.275142462
2025-11-07 16:00:10.210021,-1,2025-11-07 16:00:15.282834769
2025-11-07 16:00:10.210021,191,2025-11-07 16:00:15.290527077
2025-11-07 16:00:10.210021,-29952,2025-11-07 16:00:15.298219385
2025-11-07 16:00:10.210021,2,2025-11-07 16:00:15.305911692
2025-11-07 16:00:10.210021,973,2025-11-07 16:00:15.313604000
2025-11-07 16:00:10.210021,-11776,2025-11-07 16:00:15.321296308
2025-11-07 16:00:10.210021,2,2025-11-07 16:00:15.328988615
2025-11-07 16:00:10.210021,156,2025-11-07 16:00:15.336680923
2025-11-07 16:00:10.210021,-22784,2025-11-07 16:00:15.344373231
2025-11-07 16:00:10.210021,-1,2025-11-07 16:00:15.352065538
2025-11-07 16:00:10.210021,-71,2025-11-07 16:00:15.359757846
2025-11-07 16:00:10.210021,-27393,2025-11-07 16:00:15.367450154
2025-11-07 16:00:10.210021,-1,2025-11-07 16:00:15.375142462
2025-11-07 16:00:10.210021,-134,2025-11-07 16:00:15.382834769
2025-11-07 16:00:10.210021,-23297,2025-11-07 16:00:15.390527077
2025-11-07 16:00:10.210021,-1,2025-11-07 16:00:15.398219385
2025-11-07 16:00:10.210021,-80,2025-11-07 16:00:15.405911692
2025-11-07 16:00:10.210021,-25089,2025-11-07 16:00:15.413604000
2025-11-07 16:00:10.210021,-1,2025-11-07 16:00:15.421296308
2025-11-07 16:00:10.210021,-92,2025-11-07 16:00:15.428988615
2025-11-07 16:00:10.210021,-20737,2025-11-07 16:00:15.436680923
2025-11-07 16:00:10.210021,-1,2025-11-07 16:00:15.444373231
2025-11-07 16:00:10.210021,-78,2025-11-07 16:00:15.452065538
2025-11-07 16:00:10.210021,-17921,2025-11-07 16:00:15.459757846
2025-11-07 16:00:10.210021,-1,2025-11-07 16:00:15.467450154
2025-11-07 16:00:10.210021,-68,2025-11-07 16:00:15.475142462
2025-11-07 16:00:10.210021,-15361,2025-11-07 16:00:15.482834769
2025-11-07 16:00:10.210021,-1,2025-11-07 16:00:15.490527077
2025-11-07 16:00:10.210021,-54,2025-11-07 16:00:15.498219385
2025-11-07 16:00:10.210021,-13057,2025-11-07 16:00:15.505911692
2025-11-07 16:00:10.210021,-1,2025-11-07 16:00:15.513604000
2025-11-07 16:00:10.210021,-42,2025-11-07 16:00:15.521296308
2025-11-07 16:00:10.210021,-9217,2025-11-07 16:00:15.528988615
2025-11-07 16:00:10.210021,-1,2025-11-07 16:00:15.536680923
2025-11-07 16:00:10.210021,-40,2025-11-07 16:00:15.544373231
2025-11-07 16:00:10.210021,-8193,2025-11-07 16:00:15.552065538
2025-11-07 16:00:10.210021,-1,2025-11-07 16:00:15.559757846
2025-11-07 16:00:10.210021,-28,2025-11-07 16:00:15.567450154
2025-11-07 16:00:10.210021,-5633,2025-11-07 16:00:15.575142462
2025-11-07 16:00:10.210021,-1,2025-11-07 16:00:15.582834769
2025-11-07 16:00:10.210021,-18,2025-11-07 16:00:15.590527077
2025-11-07 16:00:10.210021,-4353,2025-11-07 16:00:15.598219385
2025-11-07 16:00:10.210021,-1,2025-11-07 16:00:15.605911692
2025-11-07 16:00:10.210021,-23,2025-11-07 16:00:15.613604000
2025-11-07 16:00:10.210021,-4353,2025-11-07 16:00:15.621296308
2025-11-07 16:00:10.210021,-1,2025-11-07 16:00:15.628988615
2025-11-07 16:00:10.210021,-7,2025-11-07 16:00:15.636680923
2025-11-07 16:00:10.210021,-769,2025-11-07 16:00:15.644373231
2025-11-07 16:00:10.210021,-1,2025-11-07 16:00:15.652065538
2025-11-07 16:00:10.210021,-9,2025-11-07 16:00:15.659757846
2025-11-07 16:00:10.210021,-1537,2025-11-07 16:00:15.667450154
2025-11-07 16:00:10.210021,-1,2025-11-07 16:00:15.675142462
2025-11-07 16:00:10.210021,-9,2025-11-07 16:00:15.682834769
2025-11-07 16:00:10.210021,-2561,2025-11-07 16:00:15.690527077
2025-11-07 16:00:10.210021,-1,2025-11-07 16:00:15.698219385
2025-11-07 16:00:10.210021,-11,2025-11-07 16:00:15.705911692
2025-11-07 16:00:10.210021,-3329,2025-11-07 16:00:15.713604000
2025-11-07 16:00:10.210021,-1,2025-11-07 16:00:15.721296308
2025-11-07 16:00:10.210021,-9,2025-11-07 16:00:15.728988615
2025-11-07 16:00:10.210021,-2049,2025-11-07 16:00:15.736680923
2025-11-07 16:00:10.210021,-1,2025-11-07 16:00:15.744373231
2025-11-07 16:00:10.210021,-11,2025-11-07 16:00:15.752065538
2025-11-07 16:00:10.210021,-2561,2025-11-07 16:00:15.759757846
2025-11-07 16:00:10.210021,-1,2025-11-07 16:00:15.767450154
2025-11-07 16:00:10.210021,-11,2025-11-07 16:00:15.775142462
2025-11-07 16:00:10.210021,-2561,2025-11-07 16:00:15.782834769
2025-11-07 16:00:10.210021,-1,2025-11-07 16:00:15.790527077
