timestamp,ecg
16:00:00.713604,33
16:00:00.713604,-27648
16:00:00.713604,1
16:00:00.713604,859
16:00:00.713604,-31232
16:00:00.713604,3
16:00:00.713604,388
16:00:00.713604,-13312
16:00:00.713604,-1
16:00:00.713604,-75
16:00:00.713604,-15873
16:00:00.713604,-1
16:00:00.713604,-125
16:00:00.713604,-26881
16:00:00.713604,-1
16:00:00.713604,-80
16:00:00.713604,-22017
16:00:00.713604,-1
16:00:00.713604,-71
16:00:00.713604,-10497
16:00:00.713604,-1
16:00:00.713604,-47
16:00:00.713604,-14849
16:00:00.713604,-1
16:00:00.713604,-44
16:00:00.713604,-9985
16:00:00.713604,-1
16:00:00.713604,-44
16:00:00.713604,-8705
16:00:00.713604,-1
16:00:00.713604,-30
16:00:00.713604,-8193
16:00:00.713604,-1
16:00:00.713604,-28
16:00:00.713604,-6401
16:00:00.713604,-1
16:00:00.713604,-14
16:00:00.713604,-2561
16:00:00.713604,-1
16:00:00.713604,-11
16:00:00.713604,-257
16:00:00.713604,-1
16:00:00.713604,-2
16:00:00.713604,255
16:00:00.713604,0
16:00:00.713604,0
16:00:00.713604,-512
16:00:00.713604,-1
16:00:00.713604,4
16:00:00.713604,1792
16:00:00.713604,0
16:00:00.713604,2
16:00:00.713604,512
16:00:00.713604,0
16:00:00.713604,0
16:00:00.713604,-512
16:00:00.713604,-1
16:00:00.713604,0
16:00:00.713604,0
16:00:00.713604,0
16:00:00.713604,4
16:00:00.713604,1024
16:00:00.713604,0
16:00:00.713604,9
16:00:00.713604,2304
16:00:00.713604,0
16:00:00.713604,7
16:00:00.713604,3584
16:00:00.713604,0
16:00:00.713604,14
16:00:00.713604,2816
16:00:00.713604,0
16:00:00.713604,11
16:00:00.713604,1024
16:00:00.713604,0
16:00:00.713604,0
16:00:00.713604,0
16:00:00.713604,0
16:00:00.713604,16
16:00:00.713604,13312
16:00:00.713604,0
16:00:00.713604,66
16:00:00.713604,15104
16:00:00.713604,0
16:00:00.713604,49
16:00:00.713604,8448
16:00:00.713604,0
16:00:00.713604,21
16:00:00.713604,2816
16:00:00.713604,0
16:00:00.713604,9
16:00:00.713604,3584
16:00:00.713604,0
16:00:00.713604,14
16:00:00.713604,2816
16:00:00.713604,0
16:00:00.713604,2
16:00:00.713604,-8960
16:00:00.713604,-1
16:00:00.713604,-28
16:00:00.713604,-14593
16:00:00.713604,0
16:00:00.713604,677
16:00:00.713604,-4096
16:00:00.713604,3
16:00:00.713604,734
16:00:00.713604,-26880
16:00:00.713604,0
16:00:00.713604,-87
16:00:01.301102,-61
16:00:01.301102,-24577
16:00:01.301102,-1
16:00:01.301102,-125
16:00:01.301102,-22529
16:00:01.301102,-1
16:00:01.301102,-82
16:00:01.301102,-24577
16:00:01.301102,-1
16:00:01.301102,-82
16:00:01.301102,-18433
16:00:01.301102,-1
16:00:01.301102,-68
16:00:01.301102,-11777
16:00:01.301102,-1
16:00:01.301102,-23
16:00:01.301102,-5633
16:00:01.301102,-1
16:00:01.301102,-33
16:00:01.301102,-6401
16:00:01.301102,-1
16:00:01.301102,-18
16:00:01.301102,-5121
16:00:01.301102,-1
16:00:01.301102,-16
16:00:01.301102,-2561
16:00:01.301102,-1
16:00:01.301102,-14
16:00:01.301102,-1537
16:00:01.301102,-1
16:00:01.301102,2
16:00:01.301102,1792
16:00:01.301102,0
16:00:01.301102,2
16:00:01.301102,-1024
16:00:01.301102,-1
16:00:01.301102,4
16:00:01.301102,3584
16:00:01.301102,0
16:00:01.301102,16
16:00:01.301102,5376
16:00:01.301102,0
16:00:01.301102,16
16:00:01.301102,4608
16:00:01.301102,0
16:00:01.301102,21
16:00:01.301102,4608
16:00:01.301102,0
16:00:01.301102,21
16:00:01.301102,5376
16:00:01.301102,0
16:00:01.301102,18
16:00:01.301102,5376
16:00:01.301102,0
16:00:01.301102,18
16:00:01.301102,5888
16:00:01.301102,0
16:00:01.301102,26
16:00:01.301102,5888
16:00:01.301102,0
16:00:01.301102,23
16:00:01.301102,4096
16:00:01.301102,0
16:00:01.301102,11
16:00:01.301102,2304
16:00:01.301102,0
16:00:01.301102,4
16:00:01.301102,512
16:00:01.301102,0
16:00:01.301102,14
16:00:01.301102,11264
16:00:01.301102,0
16:00:01.301102,61
16:00:01.301102,13824
16:00:01.301102,0
16:00:01.301102,47
16:00:01.301102,7680
16:00:01.301102,0
16:00:01.301102,14
16:00:01.301102,1792
16:00:01.301102,0
16:00:01.301102,2
16:00:01.301102,1024
16:00:01.301102,0
16:00:01.301102,7
16:00:01.301102,512
16:00:01.301102,0
16:00:01.301102,-7
16:00:01.301102,-11009
16:00:01.301102,-1
16:00:01.301102,-42
16:00:01.301102,-19457
16:00:01.301102,0
16:00:01.301102,646
16:00:01.301102,-10752
16:00:01.301102,3
16:00:01.301102,734
16:00:01.301102,-25088
16:00:01.301102,0
16:00:01.301102,-92
16:00:01.301102,-18433
16:00:01.301102,-1
16:00:01.301102,-106
16:00:01.301102,31999
16:00:01.301102,-1
16:00:01.301102,-106
16:00:01.301102,-24577
16:00:01.301102,-1
16:00:01.301102,-106
16:00:01.839039,-94
16:00:01.839039,-20737
16:00:01.839039,-1
16:00:01.839039,-85
16:00:01.839039,-19713
16:00:01.839039,-1
16:00:01.839039,-71
16:00:01.839039,-17921
16:00:01.839039,-1
16:00:01.839039,-61
16:00:01.839039,-13569
16:00:01.839039,-1
16:00:01.839039,-54
16:00:01.839039,-12289
16:00:01.839039,-1
16:00:01.839039,-47
16:00:01.839039,-9985
16:00:01.839039,-1
16:00:01.839039,-23
16:00:01.839039,767
16:00:01.839039,0
16:00:01.839039,4
16:00:01.839039,-3584
16:00:01.839039,-1
16:00:01.839039,-14
16:00:01.839039,-1537
16:00:01.839039,-1
16:00:01.839039,-4
16:00:01.839039,1279
16:00:01.839039,0
16:00:01.839039,4
16:00:01.839039,1024
16:00:01.839039,0
16:00:01.839039,4
16:00:01.839039,-512
16:00:01.839039,-1
16:00:01.839039,-4
16:00:01.839039,-257
16:00:01.839039,-1
16:00:01.839039,-4
16:00:01.839039,255
16:00:01.839039,0
16:00:01.839039,-2
16:00:01.839039,-257
16:00:01.839039,-1
16:00:01.839039,-4
16:00:01.839039,-1537
16:00:01.839039,-1
16:00:01.839039,-2
16:00:01.839039,255
16:00:01.839039,0
16:00:01.839039,0
16:00:01.839039,0
16:00:01.839039,0
16:00:01.839039,-4
16:00:01.839039,-1537
16:00:01.839039,-1
16:00:01.839039,-11
16:00:01.839039,-4353
16:00:01.839039,-1
16:00:01.839039,-21
16:00:01.839039,-2561
16:00:01.839039,-1
16:00:01.839039,21
16:00:01.839039,10752
16:00:01.839039,0
16:00:01.839039,33
16:00:01.839039,4608
16:00:01.839039,0
16:00:01.839039,4
16:00:01.839039,-2304
16:00:01.839039,-1
16:00:01.839039,-14
16:00:01.839039,-3841
16:00:01.839039,-1
16:00:01.839039,-16
16:00:01.839039,-4353
16:00:01.839039,-1
16:00:01.839039,-14
16:00:01.839039,-3841
16:00:01.839039,-1
16:00:01.839039,-56
16:00:01.839039,-13057
16:00:01.839039,-1
16:00:01.839039,158
16:00:01.839039,17408
16:00:01.839039,2
16:00:01.839039,885
16:00:01.839039,-31232
16:00:01.839039,2
16:00:01.839039,113
16:00:01.839039,-25856
16:00:01.839039,-1
16:00:01.839039,-73
16:00:01.839039,-28673
16:00:01.839039,-1
16:00:01.839039,-146
16:00:01.839039,-29953
16:00:01.839039,-1
16:00:01.839039,-111
16:00:01.839039,-30465
16:00:01.839039,-1
16:00:01.839039,-104
16:00:01.839039,-24577
16:00:01.839039,-1
16:00:01.839039,-104
16:00:01.839039,-23809
16:00:01.839039,-1
16:00:01.839039,-80
16:00:02.378298,-75
16:00:02.378298,-18433
16:00:02.378298,-1
16:00:02.378298,-73
16:00:02.378298,-16641
16:00:02.378298,-1
16:00:02.378298,-66
16:00:02.378298,-14849
16:00:02.378298,-1
16:00:02.378298,-44
16:00:02.378298,-9217
16:00:02.378298,-1
16:00:02.378298,-30
16:00:02.378298,-6913
16:00:02.378298,-1
16:00:02.378298,-14
16:00:02.378298,1279
16:00:02.378298,0
16:00:02.378298,-2
16:00:02.378298,-1537
16:00:02.378298,-1
16:00:02.378298,2
16:00:02.378298,0
16:00:02.378298,0
16:00:02.378298,-4
16:00:02.378298,-1537
16:00:02.378298,-1
16:00:02.378298,-9
16:00:02.378298,-2561
16:00:02.378298,-1
16:00:02.378298,-18
16:00:02.378298,-3841
16:00:02.378298,-1
16:00:02.378298,-11
16:00:02.378298,-2561
16:00:02.378298,-1
16:00:02.378298,-4
16:00:02.378298,-257
16:00:02.378298,-1
16:00:02.378298,-7
16:00:02.378298,-769
16:00:02.378298,-1
16:00:02.378298,-4
16:00:02.378298,-257
16:00:02.378298,-1
16:00:02.378298,-2
16:00:02.378298,-1537
16:00:02.378298,-1
16:00:02.378298,-9
16:00:02.378298,-3841
16:00:02.378298,-1
16:00:02.378298,-23
16:00:02.378298,-5121
16:00:02.378298,-1
16:00:02.378298,2
16:00:02.378298,7680
16:00:02.378298,0
16:00:02.378298,37
16:00:02.378298,8448
16:00:02.378298,0
16:00:02.378298,16
16:00:02.378298,-1792
16:00:02.378298,-1
16:00:02.378298,-9
16:00:02.378298,-2561
16:00:02.378298,-1
16:00:02.378298,-14
16:00:02.378298,-1537
16:00:02.378298,-1
16:00:02.378298,-11
16:00:02.378298,-3841
16:00:02.378298,-1
16:00:02.378298,-28
16:00:02.378298,-15361
16:00:02.378298,-1
16:00:02.378298,-4
16:00:02.378298,7423
16:00:02.378298,1
16:00:02.378298,719
16:00:02.378298,25856
16:00:02.378298,3
16:00:02.378298,452
16:00:02.378298,-4608
16:00:02.378298,-1
16:00:02.378298,-97
16:00:02.378298,-18945
16:00:02.378298,-1
16:00:02.378298,-137
16:00:02.378298,30719
16:00:02.378298,-1
16:00:02.378298,-101
16:00:02.378298,-28673
16:00:02.378298,-1
16:00:02.378298,-118
16:00:02.378298,-25089
16:00:02.378298,-1
16:00:02.378298,-97
16:00:02.378298,-24577
16:00:02.378298,-1
16:00:02.378298,-87
16:00:02.378298,-22017
16:00:02.378298,-1
16:00:02.378298,-82
16:00:02.378298,-18433
16:00:02.378298,-1
16:00:02.378298,-73
16:00:02.378298,-16641
16:00:02.378298,-1
16:00:02.378298,-56
16:00:02.919672,-47
16:00:02.919672,-7425
16:00:02.919672,-1
16:00:02.919672,-26
16:00:02.919672,-5121
16:00:02.919672,-1
16:00:02.919672,-18
16:00:02.919672,-5633
16:00:02.919672,-1
16:00:02.919672,-18
16:00:02.919672,255
16:00:02.919672,0
16:00:02.919672,21
16:00:02.919672,3584
16:00:02.919672,0
16:00:02.919672,4
16:00:02.919672,2816
16:00:02.919672,0
16:00:02.919672,7
16:00:02.919672,0
16:00:02.919672,0
16:00:02.919672,0
16:00:02.919672,-1792
16:00:02.919672,-1
16:00:02.919672,-2
16:00:02.919672,255
16:00:02.919672,0
16:00:02.919672,2
16:00:02.919672,1792
16:00:02.919672,0
16:00:02.919672,7
16:00:02.919672,2816
16:00:02.919672,0
16:00:02.919672,14
16:00:02.919672,3584
16:00:02.919672,0
16:00:02.919672,16
16:00:02.919672,2816
16:00:02.919672,0
16:00:02.919672,7
16:00:02.919672,512
16:00:02.919672,0
16:00:02.919672,-4
16:00:02.919672,-1537
16:00:02.919672,-1
16:00:02.919672,2
16:00:02.919672,7680
16:00:02.919672,0
16:00:02.919672,52
16:00:02.919672,12032
16:00:02.919672,0
16:00:02.919672,40
16:00:02.919672,6656
16:00:02.919672,0
16:00:02.919672,11
16:00:02.919672,1792
16:00:02.919672,0
16:00:02.919672,2
16:00:02.919672,512
16:00:02.919672,0
16:00:02.919672,2
16:00:02.919672,512
16:00:02.919672,0
16:00:02.919672,-4
16:00:02.919672,-10497
16:00:02.919672,-1
16:00:02.919672,-52
16:00:02.919672,-27905
16:00:02.919672,0
16:00:02.919672,606
16:00:02.919672,-11776
16:00:02.919672,3
16:00:02.919672,767
16:00:02.919672,-19712
16:00:02.919672,0
16:00:02.919672,-92
16:00:02.919672,-17921
16:00:02.919672,-1
16:00:02.919672,-101
16:00:02.919672,31999
16:00:02.919672,-1
16:00:02.919672,-101
16:00:02.919672,-23297
16:00:02.919672,-1
16:00:02.919672,-104
16:00:02.919672,-23809
16:00:02.919672,-1
16:00:02.919672,-82
16:00:02.919672,-21505
16:00:02.919672,-1
16:00:02.919672,-75
16:00:02.919672,-17153
16:00:02.919672,-1
16:00:02.919672,-71
16:00:02.919672,-16641
16:00:02.919672,-1
16:00:02.919672,-61
16:00:02.919672,-14081
16:00:02.919672,-1
16:00:02.919672,-44
16:00:02.919672,-9985
16:00:02.919672,-1
16:00:02.919672,-37
16:00:02.919672,-8705
16:00:02.919672,-1
16:00:02.919672,-30
16:00:02.919672,-5633
16:00:02.919672,-1
16:00:02.919672,-26
16:00:03.503448,-26
16:00:03.503448,-5633
16:00:03.503448,-1
16:00:03.503448,-21
16:00:03.503448,-1537
16:00:03.503448,-1
16:00:03.503448,9
16:00:03.503448,7168
16:00:03.503448,0
16:00:03.503448,23
16:00:03.503448,2816
16:00:03.503448,0
16:00:03.503448,16
16:00:03.503448,5376
16:00:03.503448,0
16:00:03.503448,18
16:00:03.503448,5376
16:00:03.503448,0
16:00:03.503448,18
16:00:03.503448,5376
16:00:03.503448,0
16:00:03.503448,21
16:00:03.503448,5376
16:00:03.503448,0
16:00:03.503448,28
16:00:03.503448,6656
16:00:03.503448,0
16:00:03.503448,23
16:00:03.503448,5888
16:00:03.503448,0
16:00:03.503448,16
16:00:03.503448,4096
16:00:03.503448,0
16:00:03.503448,14
16:00:03.503448,1792
16:00:03.503448,0
16:00:03.503448,4
16:00:03.503448,7168
16:00:03.503448,0
16:00:03.503448,59
16:00:03.503448,18176
16:00:03.503448,0
16:00:03.503448,63
16:00:03.503448,12032
16:00:03.503448,0
16:00:03.503448,28
16:00:03.503448,4608
16:00:03.503448,0
16:00:03.503448,14
16:00:03.503448,2816
16:00:03.503448,0
16:00:03.503448,18
16:00:03.503448,3584
16:00:03.503448,0
16:00:03.503448,7
16:00:03.503448,-2816
16:00:03.503448,-1
16:00:03.503448,-52
16:00:03.503448,4351
16:00:03.503448,0
16:00:03.503448,355
16:00:03.503448,16640
16:00:03.503448,3
16:00:03.503448,966
16:00:03.503448,-1536
16:00:03.503448,1
16:00:03.503448,2
16:00:03.503448,-23552
16:00:03.503448,-1
16:00:03.503448,-73
16:00:03.503448,-31233
16:00:03.503448,-1
16:00:03.503448,-125
16:00:03.503448,-23809
16:00:03.503448,-1
16:00:03.503448,-94
16:00:03.503448,-24577
16:00:03.503448,-1
16:00:03.503448,-82
16:00:03.503448,-20225
16:00:03.503448,-1
16:00:03.503448,-85
16:00:03.503448,-18945
16:00:03.503448,-1
16:00:03.503448,-68
16:00:03.503448,-15873
16:00:03.503448,-1
16:00:03.503448,-52
16:00:03.503448,-11009
16:00:03.503448,-1
16:00:03.503448,-37
16:00:03.503448,-9985
16:00:03.503448,-1
16:00:03.503448,-37
16:00:03.503448,-6401
16:00:03.503448,-1
16:00:03.503448,-26
16:00:03.503448,-6401
16:00:03.503448,-1
16:00:03.503448,-23
16:00:03.503448,-5633
16:00:03.503448,-1
16:00:03.503448,-23
16:00:03.503448,-4353
16:00:03.503448,-1
16:00:03.503448,-11
16:00:03.503448,-769
16:00:03.503448,-1
16:00:03.503448,-4
16:00:04.088845,-4
16:00:04.088845,-769
16:00:04.088845,-1
16:00:04.088845,-7
16:00:04.088845,-257
16:00:04.088845,-1
16:00:04.088845,-4
16:00:04.088845,-257
16:00:04.088845,-1
16:00:04.088845,2
16:00:04.088845,3584
16:00:04.088845,0
16:00:04.088845,37
16:00:04.088845,9472
16:00:04.088845,0
16:00:04.088845,21
16:00:04.088845,5888
16:00:04.088845,0
16:00:04.088845,28
16:00:04.088845,7680
16:00:04.088845,0
16:00:04.088845,30
16:00:04.088845,6656
16:00:04.088845,0
16:00:04.088845,23
16:00:04.088845,4096
16:00:04.088845,0
16:00:04.088845,14
16:00:04.088845,2304
16:00:04.088845,0
16:00:04.088845,9
16:00:04.088845,10240
16:00:04.088845,0
16:00:04.088845,61
16:00:04.088845,15104
16:00:04.088845,0
16:00:04.088845,52
16:00:04.088845,8448
16:00:04.088845,0
16:00:04.088845,21
16:00:04.088845,2816
16:00:04.088845,0
16:00:04.088845,4
16:00:04.088845,2304
16:00:04.088845,0
16:00:04.088845,4
16:00:04.088845,512
16:00:04.088845,0
16:00:04.088845,-2
16:00:04.088845,-8193
16:00:04.088845,-1
16:00:04.088845,-49
16:00:04.088845,25599
16:00:04.088845,0
16:00:04.088845,509
16:00:04.088845,-29440
16:00:04.088845,3
16:00:04.088845,800
16:00:04.088845,-768
16:00:04.088845,0
16:00:04.088845,-80
16:00:04.088845,-19713
16:00:04.088845,-1
16:00:04.088845,-94
16:00:04.088845,29439
16:00:04.088845,-1
16:00:04.088845,-116
16:00:04.088845,-25089
16:00:04.088845,-1
16:00:04.088845,-113
16:00:04.088845,-26369
16:00:04.088845,-1
16:00:04.088845,-94
16:00:04.088845,-23809
16:00:04.088845,-1
16:00:04.088845,-85
16:00:04.088845,-18945
16:00:04.088845,-1
16:00:04.088845,-68
16:00:04.088845,-16641
16:00:04.088845,-1
16:00:04.088845,-71
16:00:04.088845,-15361
16:00:04.088845,-1
16:00:04.088845,-56
16:00:04.088845,-13057
16:00:04.088845,-1
16:00:04.088845,-49
16:00:04.088845,-11777
16:00:04.088845,-1
16:00:04.088845,-40
16:00:04.088845,-9217
16:00:04.088845,-1
16:00:04.088845,-40
16:00:04.088845,-9217
16:00:04.088845,-1
16:00:04.088845,-44
16:00:04.088845,-10497
16:00:04.088845,-1
16:00:04.088845,-30
16:00:04.088845,-6913
16:00:04.088845,-1
16:00:04.088845,-28
16:00:04.088845,-7425
16:00:04.088845,-1
16:00:04.088845,-28
16:00:04.088845,-6913
16:00:04.088845,-1
16:00:04.088845,-30
16:00:04.628531,-30
16:00:04.628531,-7425
16:00:04.628531,-1
16:00:04.628531,-23
16:00:04.628531,-3329
16:00:04.628531,-1
16:00:04.628531,-18
16:00:04.628531,-3841
16:00:04.628531,-1
16:00:04.628531,-11
16:00:04.628531,-2561
16:00:04.628531,-1
16:00:04.628531,-4
16:00:04.628531,255
16:00:04.628531,0
16:00:04.628531,9
16:00:04.628531,6656
16:00:04.628531,0
16:00:04.628531,21
16:00:04.628531,1024
16:00:04.628531,0
16:00:04.628531,4
16:00:04.628531,512
16:00:04.628531,0
16:00:04.628531,-4
16:00:04.628531,2047
16:00:04.628531,0
16:00:04.628531,33
16:00:04.628531,12032
16:00:04.628531,0
16:00:04.628531,42
16:00:04.628531,7680
16:00:04.628531,0
16:00:04.628531,14
16:00:04.628531,1024
16:00:04.628531,0
16:00:04.628531,0
16:00:04.628531,-1024
16:00:04.628531,-1
16:00:04.628531,-2
16:00:04.628531,-769
16:00:04.628531,-1
16:00:04.628531,-7
16:00:04.628531,-3841
16:00:04.628531,-1
16:00:04.628531,-52
16:00:04.628531,-257
16:00:04.628531,-1
16:00:04.628531,269
16:00:04.628531,-23296
16:00:04.628531,2
16:00:04.628531,840
16:00:04.628531,-11776
16:00:04.628531,1
16:00:04.628531,2
16:00:04.628531,-22272
16:00:04.628531,-1
16:00:04.628531,-68
16:00:04.628531,32511
16:00:04.628531,-1
16:00:04.628531,-132
16:00:04.628531,-23297
16:00:04.628531,-1
16:00:04.628531,-97
16:00:04.628531,-27393
16:00:04.628531,-1
16:00:04.628531,-89
16:00:04.628531,-18433
16:00:04.628531,-1
16:00:04.628531,-78
16:00:04.628531,-19713
16:00:04.628531,-1
16:00:04.628531,-71
16:00:04.628531,-16641
16:00:04.628531,-1
16:00:04.628531,-59
16:00:04.628531,-13569
16:00:04.628531,-1
16:00:04.628531,-54
16:00:04.628531,-13569
16:00:04.628531,-1
16:00:04.628531,-44
16:00:04.628531,-8193
16:00:04.628531,-1
16:00:04.628531,-33
16:00:04.628531,-6913
16:00:04.628531,-1
16:00:04.628531,-26
16:00:04.628531,-7425
16:00:04.628531,-1
16:00:04.628531,-26
16:00:04.628531,-5121
16:00:04.628531,-1
16:00:04.628531,-21
16:00:04.628531,-5121
16:00:04.628531,-1
16:00:04.628531,-21
16:00:04.628531,-5121
16:00:04.628531,-1
16:00:04.628531,-26
16:00:04.628531,-7425
16:00:04.628531,-1
16:00:04.628531,-30
16:00:04.628531,-8193
16:00:04.628531,-1
16:00:04.628531,-28
16:00:04.628531,-6401
16:00:04.628531,-1
16:00:04.628531,-30
16:00:05.214178,-21
16:00:05.214178,-2561
16:00:05.214178,-1
16:00:05.214178,-9
16:00:05.214178,-1537
16:00:05.214178,-1
16:00:05.214178,-9
16:00:05.214178,-1537
16:00:05.214178,-1
16:00:05.214178,-4
16:00:05.214178,255
16:00:05.214178,0
16:00:05.214178,18
16:00:05.214178,4608
16:00:05.214178,0
16:00:05.214178,-2
16:00:05.214178,-3329
16:00:05.214178,-1
16:00:05.214178,-14
16:00:05.214178,-257
16:00:05.214178,-1
16:00:05.214178,18
16:00:05.214178,8960
16:00:05.214178,0
16:00:05.214178,40
16:00:05.214178,8448
16:00:05.214178,0
16:00:05.214178,18
16:00:05.214178,1024
16:00:05.214178,0
16:00:05.214178,-2
16:00:05.214178,255
16:00:05.214178,0
16:00:05.214178,-4
16:00:05.214178,-1537
16:00:05.214178,-1
16:00:05.214178,-4
16:00:05.214178,-3841
16:00:05.214178,-1
16:00:05.214178,-47
16:00:05.214178,-14081
16:00:05.214178,-1
16:00:05.214178,108
16:00:05.214178,1536
16:00:05.214178,2
16:00:05.214178,888
16:00:05.214178,-5888
16:00:05.214178,2
16:00:05.214178,187
16:00:05.214178,-27136
16:00:05.214178,-1
16:00:05.214178,-75
16:00:05.214178,-28161
16:00:05.214178,-1
16:00:05.214178,-156
16:00:05.214178,-29953
16:00:05.214178,-1
16:00:05.214178,-106
16:00:05.214178,-32257
16:00:05.214178,-1
16:00:05.214178,-120
16:00:05.214178,-28673
16:00:05.214178,-1
16:00:05.214178,-113
16:00:05.214178,-27393
16:00:05.214178,-1
16:00:05.214178,-101
16:00:05.214178,-28161
16:00:05.214178,-1
16:00:05.214178,-120
16:00:05.214178,-29441
16:00:05.214178,-1
16:00:05.214178,-104
16:00:05.214178,-23809
16:00:05.214178,-1
16:00:05.214178,-94
16:00:05.214178,-26369
16:00:05.214178,-1
16:00:05.214178,-99
16:00:05.214178,-25089
16:00:05.214178,-1
16:00:05.214178,-97
16:00:05.214178,-24577
16:00:05.214178,-1
16:00:05.214178,-111
16:00:05.214178,-29441
16:00:05.214178,-1
16:00:05.214178,-111
16:00:05.214178,-27393
16:00:05.214178,-1
16:00:05.214178,-89
16:00:05.214178,-22017
16:00:05.214178,-1
16:00:05.214178,-101
16:00:05.214178,-25601
16:00:05.214178,-1
16:00:05.214178,-99
16:00:05.214178,-24577
16:00:05.214178,-1
16:00:05.214178,-97
16:00:05.214178,-25601
16:00:05.214178,-1
16:00:05.214178,-97
16:00:05.214178,-25089
16:00:05.214178,-1
16:00:05.214178,-104
16:00:05.214178,-25089
16:00:05.214178,-1
16:00:05.214178,-113
16:00:05.754198,-134
16:00:05.754198,-31233
16:00:05.754198,-1
16:00:05.754198,-120
16:00:05.754198,29439
16:00:05.754198,-1
16:00:05.754198,-139
16:00:05.754198,31487
16:00:05.754198,-1
16:00:05.754198,-158
16:00:05.754198,21759
16:00:05.754198,-1
16:00:05.754198,-156
16:00:05.754198,29439
16:00:05.754198,-1
16:00:05.754198,-120
16:00:05.754198,-26881
16:00:05.754198,-1
16:00:05.754198,-125
16:00:05.754198,24575
16:00:05.754198,-1
16:00:05.754198,-189
16:00:05.754198,12543
16:00:05.754198,-1
16:00:05.754198,-210
16:00:05.754198,14335
16:00:05.754198,-1
16:00:05.754198,-206
16:00:05.754198,10751
16:00:05.754198,-1
16:00:05.754198,-222
16:00:05.754198,2303
16:00:05.754198,-1
16:00:05.754198,-279
16:00:05.754198,30207
16:00:05.754198,-1
16:00:05.754198,284
16:00:05.754198,-16128
16:00:05.754198,2
16:00:05.754198,620
16:00:05.754198,19968
16:00:05.754198,0
16:00:05.754198,-267
16:00:05.754198,-5121
16:00:05.754198,-2
16:00:05.754198,-291
16:00:05.754198,-15361
16:00:05.754198,-2
16:00:05.754198,-286
16:00:05.754198,-6913
16:00:05.754198,-2
16:00:05.754198,-286
16:00:05.754198,1535
16:00:05.754198,-1
16:00:05.754198,-229
16:00:05.754198,8959
16:00:05.754198,-1
16:00:05.754198,-215
16:00:05.754198,12031
16:00:05.754198,-1
16:00:05.754198,-179
16:00:05.754198,26623
16:00:05.754198,-1
16:00:05.754198,-170
16:00:05.754198,19967
16:00:05.754198,-1
16:00:05.754198,-156
16:00:05.754198,30207
16:00:05.754198,-1
16:00:05.754198,-132
16:00:05.754198,32511
16:00:05.754198,-1
16:00:05.754198,-134
16:00:05.754198,-31745
16:00:05.754198,-1
16:00:05.754198,-116
16:00:05.754198,-30465
16:00:05.754198,-1
16:00:05.754198,-127
16:00:05.754198,32511
16:00:05.754198,-1
16:00:05.754198,-116
16:00:05.754198,-28161
16:00:05.754198,-1
16:00:05.754198,-137
16:00:05.754198,32511
16:00:05.754198,-1
16:00:05.754198,-104
16:00:05.754198,32511
16:00:05.754198,-1
16:00:05.754198,-158
16:00:05.754198,28927
16:00:05.754198,-1
16:00:05.754198,-134
16:00:05.754198,30207
16:00:05.754198,-1
16:00:05.754198,-132
16:00:05.754198,31999
16:00:05.754198,-1
16:00:05.754198,-144
16:00:05.754198,28927
16:00:05.754198,-1
16:00:05.754198,-132
16:00:05.754198,-32257
16:00:05.754198,-1
16:00:05.754198,-132
16:00:05.754198,-31745
16:00:05.754198,-1
16:00:05.754198,-108
16:00:06.293785,-127
16:00:06.293785,24063
16:00:06.293785,-1
16:00:06.293785,-134
16:00:06.293785,-18433
16:00:06.293785,-1
16:00:06.293785,-59
16:00:06.293785,-12289
16:00:06.293785,-1
16:00:06.293785,-16
16:00:06.293785,767
16:00:06.293785,0
16:00:06.293785,14
16:00:06.293785,12032
16:00:06.293785,0
16:00:06.293785,80
16:00:06.293785,21760
16:00:06.293785,0
16:00:06.293785,101
16:00:06.293785,-31232
16:00:06.293785,0
16:00:06.293785,139
16:00:06.293785,30720
16:00:06.293785,0
16:00:06.293785,130
16:00:06.293785,12032
16:00:06.293785,1
16:00:06.293785,698
16:00:06.293785,8704
16:00:06.293785,4
16:00:06.293785,949
16:00:06.293785,-14080
16:00:06.293785,1
16:00:06.293785,184
16:00:06.293785,-11776
16:00:06.293785,0
16:00:06.293785,189
16:00:06.293785,32512
16:00:06.293785,0
16:00:06.293785,120
16:00:06.293785,26624
16:00:06.293785,0
16:00:06.293785,73
16:00:06.293785,15104
16:00:06.293785,0
16:00:06.293785,44
16:00:06.293785,8960
16:00:06.293785,0
16:00:06.293785,37
16:00:06.293785,8960
16:00:06.293785,0
16:00:06.293785,18
16:00:06.293785,4096
16:00:06.293785,0
16:00:06.293785,16
16:00:06.293785,512
16:00:06.293785,0
16:00:06.293785,-18
16:00:06.293785,-8193
16:00:06.293785,-1
16:00:06.293785,-44
16:00:06.293785,-13057
16:00:06.293785,-1
16:00:06.293785,-56
16:00:06.293785,-14081
16:00:06.293785,-1
16:00:06.293785,-52
16:00:06.293785,-13057
16:00:06.293785,-1
16:00:06.293785,-54
16:00:06.293785,-12289
16:00:06.293785,-1
16:00:06.293785,-44
16:00:06.293785,-11009
16:00:06.293785,-1
16:00:06.293785,-37
16:00:06.293785,-8705
16:00:06.293785,-1
16:00:06.293785,-33
16:00:06.293785,-5633
16:00:06.293785,-1
16:00:06.293785,-16
16:00:06.293785,-4353
16:00:06.293785,-1
16:00:06.293785,-11
16:00:06.293785,-257
16:00:06.293785,-1
16:00:06.293785,2
16:00:06.293785,0
16:00:06.293785,0
16:00:06.293785,-2
16:00:06.293785,767
16:00:06.293785,0
16:00:06.293785,7
16:00:06.293785,1024
16:00:06.293785,0
16:00:06.293785,0
16:00:06.293785,-1024
16:00:06.293785,-1
16:00:06.293785,-11
16:00:06.293785,-3329
16:00:06.293785,-1
16:00:06.293785,-2
16:00:06.293785,7423
16:00:06.293785,0
16:00:06.293785,49
16:00:06.293785,14336
16:00:06.293785,0
16:00:06.293785,47
16:00:06.832985,28
16:00:06.832985,2816
16:00:06.832985,0
16:00:06.832985,2
16:00:06.832985,-512
16:00:06.832985,-1
16:00:06.832985,4
16:00:06.832985,3584
16:00:06.832985,0
16:00:06.832985,23
16:00:06.832985,3584
16:00:06.832985,0
16:00:06.832985,-35
16:00:06.832985,-11009
16:00:06.832985,-1
16:00:06.832985,137
16:00:06.832985,5120
16:00:06.832985,2
16:00:06.832985,871
16:00:06.832985,-11776
16:00:06.832985,2
16:00:06.832985,201
16:00:06.832985,-18688
16:00:06.832985,-1
16:00:06.832985,-61
16:00:06.832985,-25089
16:00:06.832985,-1
16:00:06.832985,-142
16:00:06.832985,-29441
16:00:06.832985,-1
16:00:06.832985,-106
16:00:06.832985,-29953
16:00:06.832985,-1
16:00:06.832985,-111
16:00:06.832985,-26369
16:00:06.832985,-1
16:00:06.832985,-101
16:00:06.832985,-24577
16:00:06.832985,-1
16:00:06.832985,-94
16:00:06.832985,-23809
16:00:06.832985,-1
16:00:06.832985,-92
16:00:06.832985,-23809
16:00:06.832985,-1
16:00:06.832985,-94
16:00:06.832985,-24577
16:00:06.832985,-1
16:00:06.832985,-99
16:00:06.832985,-23809
16:00:06.832985,-1
16:00:06.832985,-87
16:00:06.832985,-22017
16:00:06.832985,-1
16:00:06.832985,-92
16:00:06.832985,-22529
16:00:06.832985,-1
16:00:06.832985,-92
16:00:06.832985,-25601
16:00:06.832985,-1
16:00:06.832985,-99
16:00:06.832985,-25089
16:00:06.832985,-1
16:00:06.832985,-106
16:00:06.832985,-29441
16:00:06.832985,-1
16:00:06.832985,-123
16:00:06.832985,31999
16:00:06.832985,-1
16:00:06.832985,-139
16:00:06.832985,30719
16:00:06.832985,-1
16:00:06.832985,-134
16:00:06.832985,29439
16:00:06.832985,-1
16:00:06.832985,-146
16:00:06.832985,28927
16:00:06.832985,-1
16:00:06.832985,-144
16:00:06.832985,28927
16:00:06.832985,-1
16:00:06.832985,-142
16:00:06.832985,28927
16:00:06.832985,-1
16:00:06.832985,-149
16:00:06.832985,27135
16:00:06.832985,-1
16:00:06.832985,-149
16:00:06.832985,26623
16:00:06.832985,-1
16:00:06.832985,-153
16:00:06.832985,-31745
16:00:06.832985,-1
16:00:06.832985,-97
16:00:06.832985,-22529
16:00:06.832985,-1
16:00:06.832985,-92
16:00:06.832985,-26881
16:00:06.832985,-1
16:00:06.832985,-123
16:00:06.832985,30719
16:00:06.832985,-1
16:00:06.832985,-149
16:00:06.832985,29439
16:00:06.832985,-1
16:00:06.832985,-137
16:00:06.832985,28927
16:00:06.832985,-1
16:00:06.832985,-151
16:00:07.464114,-175
16:00:07.464114,13823
16:00:07.464114,-1
16:00:07.464114,-92
16:00:07.464114,7423
16:00:07.464114,1
16:00:07.464114,708
16:00:07.464114,-22016
16:00:07.464114,2
16:00:07.464114,184
16:00:07.464114,21504
16:00:07.464114,-1
16:00:07.464114,-201
16:00:07.464114,8447
16:00:07.464114,-1
16:00:07.464114,-274
16:00:07.464114,1023
16:00:07.464114,-1
16:00:07.464114,-234
16:00:07.464114,3583
16:00:07.464114,-1
16:00:07.464114,-234
16:00:07.464114,10751
16:00:07.464114,-1
16:00:07.464114,-217
16:00:07.464114,10751
16:00:07.464114,-1
16:00:07.464114,-201
16:00:07.464114,16127
16:00:07.464114,-1
16:00:07.464114,-189
16:00:07.464114,19967
16:00:07.464114,-1
16:00:07.464114,-177
16:00:07.464114,19967
16:00:07.464114,-1
16:00:07.464114,-172
16:00:07.464114,24575
16:00:07.464114,-1
16:00:07.464114,-149
16:00:07.464114,30719
16:00:07.464114,-1
16:00:07.464114,-127
16:00:07.464114,-31233
16:00:07.464114,-1
16:00:07.464114,-118
16:00:07.464114,-29953
16:00:07.464114,-1
16:00:07.464114,-113
16:00:07.464114,-28161
16:00:07.464114,-1
16:00:07.464114,-111
16:00:07.464114,-27393
16:00:07.464114,-1
16:00:07.464114,-113
16:00:07.464114,-29441
16:00:07.464114,-1
16:00:07.464114,-111
16:00:07.464114,-26369
16:00:07.464114,-1
16:00:07.464114,-101
16:00:07.464114,-24577
16:00:07.464114,-1
16:00:07.464114,-94
16:00:07.464114,-22529
16:00:07.464114,-1
16:00:07.464114,-85
16:00:07.464114,-19713
16:00:07.464114,-1
16:00:07.464114,-71
16:00:07.464114,-15361
16:00:07.464114,-1
16:00:07.464114,-54
16:00:07.464114,-14081
16:00:07.464114,-1
16:00:07.464114,-63
16:00:07.464114,-15361
16:00:07.464114,-1
16:00:07.464114,-56
16:00:07.464114,-8193
16:00:07.464114,-1
16:00:07.464114,-7
16:00:07.464114,255
16:00:07.464114,0
16:00:07.464114,-4
16:00:07.464114,-3841
16:00:07.464114,-1
16:00:07.464114,-23
16:00:07.464114,-6401
16:00:07.464114,-1
16:00:07.464114,-35
16:00:07.464114,-7425
16:00:07.464114,-1
16:00:07.464114,-30
16:00:07.464114,-9985
16:00:07.464114,-1
16:00:07.464114,-42
16:00:07.464114,-15873
16:00:07.464114,-1
16:00:07.464114,-89
16:00:07.464114,7935
16:00:07.464114,0
16:00:07.464114,407
16:00:07.464114,17152
16:00:07.464114,3
16:00:07.464114,845
16:00:07.464114,24576
16:00:07.464114,1
16:00:07.464114,-35
16:00:08.050309,-61
16:00:08.050309,-14849
16:00:08.050309,-1
16:00:08.050309,-111
16:00:08.050309,-22017
16:00:08.050309,-1
16:00:08.050309,-54
16:00:08.050309,-15361
16:00:08.050309,-1
16:00:08.050309,-42
16:00:08.050309,-3329
16:00:08.050309,-1
16:00:08.050309,-9
16:00:08.050309,1279
16:00:08.050309,0
16:00:08.050309,21
16:00:08.050309,6656
16:00:08.050309,0
16:00:08.050309,52
16:00:08.050309,18176
16:00:08.050309,0
16:00:08.050309,66
16:00:08.050309,16896
16:00:08.050309,0
16:00:08.050309,78
16:00:08.050309,20992
16:00:08.050309,0
16:00:08.050309,87
16:00:08.050309,25856
16:00:08.050309,0
16:00:08.050309,120
16:00:08.050309,-32256
16:00:08.050309,0
16:00:08.050309,134
16:00:08.050309,-27392
16:00:08.050309,0
16:00:08.050309,168
16:00:08.050309,-20224
16:00:08.050309,0
16:00:08.050309,184
16:00:08.050309,-15872
16:00:08.050309,0
16:00:08.050309,196
16:00:08.050309,-15360
16:00:08.050309,0
16:00:08.050309,206
16:00:08.050309,-11776
16:00:08.050309,0
16:00:08.050309,220
16:00:08.050309,-5632
16:00:08.050309,0
16:00:08.050309,241
16:00:08.050309,-2048
16:00:08.050309,0
16:00:08.050309,258
16:00:08.050309,4096
16:00:08.050309,1
16:00:08.050309,286
16:00:08.050309,8192
16:00:08.050309,1
16:00:08.050309,291
16:00:08.050309,8960
16:00:08.050309,1
16:00:08.050309,281
16:00:08.050309,4608
16:00:08.050309,1
16:00:08.050309,279
16:00:08.050309,12032
16:00:08.050309,1
16:00:08.050309,326
16:00:08.050309,17920
16:00:08.050309,1
16:00:08.050309,317
16:00:08.050309,13056
16:00:08.050309,1
16:00:08.050309,293
16:00:08.050309,5888
16:00:08.050309,1
16:00:08.050309,274
16:00:08.050309,4608
16:00:08.050309,1
16:00:08.050309,267
16:00:08.050309,1024
16:00:08.050309,1
16:00:08.050309,253
16:00:08.050309,-9984
16:00:08.050309,0
16:00:08.050309,184
16:00:08.050309,15616
16:00:08.050309,1
16:00:08.050309,698
16:00:08.050309,18432
16:00:08.050309,4
16:00:08.050309,1030
16:00:08.050309,-2560
16:00:08.050309,1
16:00:08.050309,151
16:00:08.050309,-30464
16:00:08.050309,0
16:00:08.050309,108
16:00:08.050309,12544
16:00:08.050309,0
16:00:08.050309,61
16:00:08.050309,19200
16:00:08.050309,0
16:00:08.050309,54
16:00:08.050309,12544
16:00:08.050309,0
16:00:08.050309,56
16:00:08.544987,52
16:00:08.544987,13312
16:00:08.544987,0
16:00:08.544987,52
16:00:08.544987,12032
16:00:08.544987,0
16:00:08.544987,47
16:00:08.544987,11264
16:00:08.544987,0
16:00:08.544987,37
16:00:08.544987,10752
16:00:08.544987,0
16:00:08.544987,40
16:00:08.544987,8448
16:00:08.544987,0
16:00:08.544987,42
16:00:08.544987,14336
16:00:08.544987,0
16:00:08.544987,54
16:00:08.544987,10240
16:00:08.544987,0
16:00:08.544987,42
16:00:08.544987,15616
16:00:08.544987,0
16:00:08.544987,73
16:00:08.544987,16128
16:00:08.544987,0
16:00:08.544987,52
16:00:08.544987,12544
16:00:08.544987,0
16:00:08.544987,44
16:00:08.544987,8960
16:00:08.544987,0
16:00:08.544987,35
16:00:08.544987,8448
16:00:08.544987,0
16:00:08.544987,23
16:00:08.544987,5376
16:00:08.544987,0
16:00:08.544987,26
16:00:08.544987,6656
16:00:08.544987,0
16:00:08.544987,18
16:00:08.544987,5376
16:00:08.544987,0
16:00:08.544987,30
16:00:08.544987,6656
16:00:08.544987,0
16:00:08.544987,16
16:00:08.544987,3584
16:00:08.544987,0
16:00:08.544987,7
16:00:08.544987,-512
16:00:08.544987,-1
16:00:08.544987,0
16:00:08.544987,4608
16:00:08.544987,0
16:00:08.544987,40
16:00:08.544987,12544
16:00:08.544987,0
16:00:08.544987,44
16:00:08.544987,5376
16:00:08.544987,0
16:00:08.544987,4
16:00:08.544987,512
16:00:08.544987,0
16:00:08.544987,-7
16:00:08.544987,-3329
16:00:08.544987,-1
16:00:08.544987,-14
16:00:08.544987,-4353
16:00:08.544987,-1
16:00:08.544987,-26
16:00:08.544987,-12289
16:00:08.544987,-1
16:00:08.544987,-78
16:00:08.544987,1279
16:00:08.544987,0
16:00:08.544987,326
16:00:08.544987,-2048
16:00:08.544987,2
16:00:08.544987,828
16:00:08.544987,26368
16:00:08.544987,1
16:00:08.544987,-56
16:00:08.544987,-23809
16:00:08.544987,-1
16:00:08.544987,-99
16:00:08.544987,23551
16:00:08.544987,-1
16:00:08.544987,-153
16:00:08.544987,31999
16:00:08.544987,-1
16:00:08.544987,-153
16:00:08.544987,27135
16:00:08.544987,-1
16:00:08.544987,-134
16:00:08.544987,30719
16:00:08.544987,-1
16:00:08.544987,-134
16:00:08.544987,-32257
16:00:08.544987,-1
16:00:08.544987,-127
16:00:08.544987,-29441
16:00:08.544987,-1
16:00:08.544987,-123
16:00:08.544987,27647
16:00:08.544987,-1
16:00:08.544987,-127
16:00:09.131739,-89
16:00:09.131739,-24577
16:00:09.131739,-1
16:00:09.131739,-111
16:00:09.131739,-23297
16:00:09.131739,-1
16:00:09.131739,-73
16:00:09.131739,-25089
16:00:09.131739,-1
16:00:09.131739,-97
16:00:09.131739,-11777
16:00:09.131739,-1
16:00:09.131739,-49
16:00:09.131739,-20737
16:00:09.131739,-1
16:00:09.131739,-80
16:00:09.131739,-18945
16:00:09.131739,-1
16:00:09.131739,-89
16:00:09.131739,-25601
16:00:09.131739,-1
16:00:09.131739,-101
16:00:09.131739,-26369
16:00:09.131739,-1
16:00:09.131739,-130
16:00:09.131739,32511
16:00:09.131739,-1
16:00:09.131739,-92
16:00:09.131739,-21505
16:00:09.131739,-1
16:00:09.131739,-104
16:00:09.131739,-25089
16:00:09.131739,-1
16:00:09.131739,-85
16:00:09.131739,-21505
16:00:09.131739,-1
16:00:09.131739,-82
16:00:09.131739,-19713
16:00:09.131739,-1
16:00:09.131739,-82
16:00:09.131739,-22529
16:00:09.131739,-1
16:00:09.131739,-87
16:00:09.131739,-15873
16:00:09.131739,-1
16:00:09.131739,-30
16:00:09.131739,-3841
16:00:09.131739,-1
16:00:09.131739,-23
16:00:09.131739,-8193
16:00:09.131739,-1
16:00:09.131739,-44
16:00:09.131739,-13569
16:00:09.131739,-1
16:00:09.131739,-63
16:00:09.131739,-17921
16:00:09.131739,-1
16:00:09.131739,-71
16:00:09.131739,-18945
16:00:09.131739,-1
16:00:09.131739,-80
16:00:09.131739,-25601
16:00:09.131739,-1
16:00:09.131739,-139
16:00:09.131739,-18433
16:00:09.131739,-1
16:00:09.131739,243
16:00:09.131739,-19712
16:00:09.131739,2
16:00:09.131739,812
16:00:09.131739,29440
16:00:09.131739,1
16:00:09.131739,-82
16:00:09.131739,27135
16:00:09.131739,-1
16:00:09.131739,-144
16:00:09.131739,12543
16:00:09.131739,-1
16:00:09.131739,-194
16:00:09.131739,26623
16:00:09.131739,-1
16:00:09.131739,-168
16:00:09.131739,20991
16:00:09.131739,-1
16:00:09.131739,-156
16:00:09.131739,25855
16:00:09.131739,-1
16:00:09.131739,-156
16:00:09.131739,29439
16:00:09.131739,-1
16:00:09.131739,-134
16:00:09.131739,30719
16:00:09.131739,-1
16:00:09.131739,-134
16:00:09.131739,-32257
16:00:09.131739,-1
16:00:09.131739,-125
16:00:09.131739,-31745
16:00:09.131739,-1
16:00:09.131739,-118
16:00:09.131739,-28673
16:00:09.131739,-1
16:00:09.131739,-113
16:00:09.131739,-26369
16:00:09.131739,-1
16:00:09.131739,-101
16:00:09.131739,-25089
16:00:09.131739,-1
16:00:09.131739,-99
16:00:09.670846,-99
16:00:09.670846,-23809
16:00:09.670846,-1
16:00:09.670846,-87
16:00:09.670846,-21505
16:00:09.670846,-1
16:00:09.670846,-85
16:00:09.670846,-22017
16:00:09.670846,-1
16:00:09.670846,-87
16:00:09.670846,-22017
16:00:09.670846,-1
16:00:09.670846,-87
16:00:09.670846,-19713
16:00:09.670846,-1
16:00:09.670846,-52
16:00:09.670846,-9217
16:00:09.670846,-1
16:00:09.670846,-49
16:00:09.670846,-13569
16:00:09.670846,-1
16:00:09.670846,-40
16:00:09.670846,-9217
16:00:09.670846,-1
16:00:09.670846,-37
16:00:09.670846,-9217
16:00:09.670846,-1
16:00:09.670846,-47
16:00:09.670846,-13569
16:00:09.670846,-1
16:00:09.670846,-44
16:00:09.670846,-3841
16:00:09.670846,-1
16:00:09.670846,14
16:00:09.670846,4096
16:00:09.670846,0
16:00:09.670846,9
16:00:09.670846,512
16:00:09.670846,0
16:00:09.670846,-11
16:00:09.670846,-6401
16:00:09.670846,-1
16:00:09.670846,-33
16:00:09.670846,-7425
16:00:09.670846,-1
16:00:09.670846,-28
16:00:09.670846,-8705
16:00:09.670846,-1
16:00:09.670846,-42
16:00:09.670846,-17153
16:00:09.670846,-1
16:00:09.670846,-97
16:00:09.670846,11007
16:00:09.670846,0
16:00:09.670846,457
16:00:09.670846,32512
16:00:09.670846,3
16:00:09.670846,847
16:00:09.670846,10752
16:00:09.670846,1
16:00:09.670846,-92
16:00:09.670846,-29441
16:00:09.670846,-1
16:00:09.670846,-127
16:00:09.670846,20991
16:00:09.670846,-1
16:00:09.670846,-146
16:00:09.670846,-29953
16:00:09.670846,-1
16:00:09.670846,-132
16:00:09.670846,32511
16:00:09.670846,-1
16:00:09.670846,-113
16:00:09.670846,-28673
16:00:09.670846,-1
16:00:09.670846,-111
16:00:09.670846,-25601
16:00:09.670846,-1
16:00:09.670846,-97
16:00:09.670846,-23297
16:00:09.670846,-1
16:00:09.670846,-87
16:00:09.670846,-22017
16:00:09.670846,-1
16:00:09.670846,-82
16:00:09.670846,-18945
16:00:09.670846,-1
16:00:09.670846,-68
16:00:09.670846,-16641
16:00:09.670846,-1
16:00:09.670846,-61
16:00:09.670846,-13057
16:00:09.670846,-1
16:00:09.670846,-49
16:00:09.670846,-11777
16:00:09.670846,-1
16:00:09.670846,-42
16:00:09.670846,-9985
16:00:09.670846,-1
16:00:09.670846,-37
16:00:09.670846,-8705
16:00:09.670846,-1
16:00:09.670846,-33
16:00:09.670846,-8193
16:00:09.670846,-1
16:00:09.670846,-35
16:00:09.670846,-8705
16:00:09.670846,-1
16:00:09.670846,-40
16:00:10.210021,-40
16:00:10.210021,-8193
16:00:10.210021,-1
16:00:10.210021,-33
16:00:10.210021,-8193
16:00:10.210021,-1
16:00:10.210021,-28
16:00:10.210021,-6913
16:00:10.210021,-1
16:00:10.210021,-23
16:00:10.210021,-769
16:00:10.210021,-1
16:00:10.210021,7
16:00:10.210021,-1024
16:00:10.210021,-1
16:00:10.210021,-16
16:00:10.210021,-3329
16:00:10.210021,-1
16:00:10.210021,-16
16:00:10.210021,-769
16:00:10.210021,-1
16:00:10.210021,28
16:00:10.210021,12032
16:00:10.210021,0
16:00:10.210021,49
16:00:10.210021,11264
16:00:10.210021,0
16:00:10.210021,28
16:00:10.210021,4608
16:00:10.210021,0
16:00:10.210021,11
16:00:10.210021,1024
16:00:10.210021,0
16:00:10.210021,9
16:00:10.210021,1024
16:00:10.210021,0
16:00:10.210021,0
16:00:10.210021,-2304
16:00:10.210021,-1
16:00:10.210021,-49
16:00:10.210021,-9985
16:00:10.210021,-1
16:00:10.210021,191
16:00:10.210021,-29952
16:00:10.210021,2
16:00:10.210021,973
16:00:10.210021,-11776
16:00:10.210021,2
16:00:10.210021,156
16:00:10.210021,-22784
16:00:10.210021,-1
16:00:10.210021,-71
16:00:10.210021,-27393
16:00:10.210021,-1
16:00:10.210021,-134
16:00:10.210021,-23297
16:00:10.210021,-1
16:00:10.210021,-80
16:00:10.210021,-25089
16:00:10.210021,-1
16:00:10.210021,-92
16:00:10.210021,-20737
16:00:10.210021,-1
16:00:10.210021,-78
16:00:10.210021,-17921
16:00:10.210021,-1
16:00:10.210021,-68
16:00:10.210021,-15361
16:00:10.210021,-1
16:00:10.210021,-54
16:00:10.210021,-13057
16:00:10.210021,-1
16:00:10.210021,-42
16:00:10.210021,-9217
16:00:10.210021,-1
16:00:10.210021,-40
16:00:10.210021,-8193
16:00:10.210021,-1
16:00:10.210021,-28
16:00:10.210021,-5633
16:00:10.210021,-1
16:00:10.210021,-18
16:00:10.210021,-4353
16:00:10.210021,-1
16:00:10.210021,-23
16:00:10.210021,-4353
16:00:10.210021,-1
16:00:10.210021,-7
16:00:10.210021,-769
16:00:10.210021,-1
16:00:10.210021,-9
16:00:10.210021,-1537
16:00:10.210021,-1
16:00:10.210021,-9
16:00:10.210021,-2561
16:00:10.210021,-1
16:00:10.210021,-11
16:00:10.210021,-3329
16:00:10.210021,-1
16:00:10.210021,-9
16:00:10.210021,-2049
16:00:10.210021,-1
16:00:10.210021,-11
16:00:10.210021,-2561
16:00:10.210021,-1
16:00:10.210021,-11
16:00:10.210021,-2561
16:00:10.210021,-1
16:00:10.210021,-9
16:00:10.840541,-11
16:00:10.840541,-2049
16:00:10.840541,-1
16:00:10.840541,-11
16:00:10.840541,-3329
16:00:10.840541,-1
16:00:10.840541,-2
16:00:10.840541,2559
16:00:10.840541,0
16:00:10.840541,2
16:00:10.840541,-512
16:00:10.840541,-1
16:00:10.840541,26
16:00:10.840541,12544
16:00:10.840541,0
16:00:10.840541,49
16:00:10.840541,12032
16:00:10.840541,0
16:00:10.840541,30
16:00:10.840541,2304
16:00:10.840541,0
16:00:10.840541,4
16:00:10.840541,512
16:00:10.840541,0
16:00:10.840541,2
16:00:10.840541,512
16:00:10.840541,0
16:00:10.840541,-2
16:00:10.840541,-1537
16:00:10.840541,-1
16:00:10.840541,-35
16:00:10.840541,-14849
16:00:10.840541,-1
16:00:10.840541,75
16:00:10.840541,-14848
16:00:10.840541,1
16:00:10.840541,859
16:00:10.840541,13568
16:00:10.840541,3
16:00:10.840541,310
16:00:10.840541,-16128
16:00:10.840541,-1
16:00:10.840541,-87
16:00:10.840541,-23809
16:00:10.840541,-1
16:00:10.840541,-137
16:00:10.840541,-31233
16:00:10.840541,-1
16:00:10.840541,-101
16:00:10.840541,-27393
16:00:10.840541,-1
16:00:10.840541,-101
16:00:10.840541,-23297
16:00:10.840541,-1
16:00:10.840541,-99
16:00:10.840541,-25089
16:00:10.840541,-1
16:00:10.840541,-85
16:00:10.840541,-18945
16:00:10.840541,-1
16:00:10.840541,-75
16:00:10.840541,-18945
16:00:10.840541,-1
16:00:10.840541,-68
16:00:10.840541,-15873
16:00:10.840541,-1
16:00:10.840541,-63
16:00:10.840541,-14081
16:00:10.840541,-1
16:00:10.840541,-47
16:00:10.840541,-10497
16:00:10.840541,-1
16:00:10.840541,-47
16:00:10.840541,-13569
16:00:10.840541,-1
16:00:10.840541,-47
16:00:10.840541,-9985
16:00:10.840541,-1
16:00:10.840541,-42
16:00:10.840541,-9217
16:00:10.840541,-1
16:00:10.840541,-35
16:00:10.840541,-8705
16:00:10.840541,-1
16:00:10.840541,-37
16:00:10.840541,-9217
16:00:10.840541,-1
16:00:10.840541,-42
16:00:10.840541,-11009
16:00:10.840541,-1
16:00:10.840541,-40
16:00:10.840541,-9217
16:00:10.840541,-1
16:00:10.840541,-37
16:00:10.840541,-8193
16:00:10.840541,-1
16:00:10.840541,-33
16:00:10.840541,-9217
16:00:10.840541,-1
16:00:10.840541,-37
16:00:10.840541,-9217
16:00:10.840541,-1
16:00:10.840541,-33
16:00:10.840541,-6401
16:00:10.840541,-1
16:00:10.840541,-28
16:00:10.840541,-7425
16:00:10.840541,-1
16:00:10.840541,-30
16:00:11.380017,-35
16:00:11.380017,-9217
16:00:11.380017,-1
16:00:11.380017,-37
16:00:11.380017,-3841
16:00:11.380017,-1
16:00:11.380017,11
16:00:11.380017,5376
16:00:11.380017,0
16:00:11.380017,16
16:00:11.380017,1024
16:00:11.380017,0
16:00:11.380017,-7
16:00:11.380017,-4353
16:00:11.380017,-1
16:00:11.380017,-28
16:00:11.380017,-6401
16:00:11.380017,-1
16:00:11.380017,-23
16:00:11.380017,-2561
16:00:11.380017,-1
16:00:11.380017,7
16:00:11.380017,-5376
16:00:11.380017,-1
16:00:11.380017,-63
16:00:11.380017,9727
16:00:11.380017,0
16:00:11.380017,378
16:00:11.380017,3328
16:00:11.380017,3
16:00:11.380017,805
16:00:11.380017,20992
16:00:11.380017,1
16:00:11.380017,-30
16:00:11.380017,-13057
16:00:11.380017,-1
16:00:11.380017,-66
16:00:11.380017,31487
16:00:11.380017,-1
16:00:11.380017,-116
16:00:11.380017,-23297
16:00:11.380017,-1
16:00:11.380017,-111
16:00:11.380017,-28161
16:00:11.380017,-1
16:00:11.380017,-92
16:00:11.380017,-22017
16:00:11.380017,-1
16:00:11.380017,-82
16:00:11.380017,-19713
16:00:11.380017,-1
16:00:11.380017,-78
16:00:11.380017,-18945
16:00:11.380017,-1
16:00:11.380017,-71
16:00:11.380017,-14849
16:00:11.380017,-1
16:00:11.380017,-56
16:00:11.380017,-14849
16:00:11.380017,-1
16:00:11.380017,-52
16:00:11.380017,-11009
16:00:11.380017,-1
16:00:11.380017,-37
16:00:11.380017,-7425
16:00:11.380017,-1
16:00:11.380017,-28
16:00:11.380017,-8193
16:00:11.380017,-1
16:00:11.380017,-37
16:00:11.380017,-8705
16:00:11.380017,-1
16:00:11.380017,-30
16:00:11.380017,-7425
16:00:11.380017,-1
16:00:11.380017,-30
16:00:11.380017,-8705
16:00:11.380017,-1
16:00:11.380017,-40
16:00:11.380017,-10497
16:00:11.380017,-1
16:00:11.380017,-44
16:00:11.380017,-10497
16:00:11.380017,-1
16:00:11.380017,-40
16:00:11.380017,-9985
16:00:11.380017,-1
16:00:11.380017,-33
16:00:11.380017,-7425
16:00:11.380017,-1
16:00:11.380017,-28
16:00:11.380017,-4353
16:00:11.380017,-1
16:00:11.380017,-11
16:00:11.380017,-2049
16:00:11.380017,-1
16:00:11.380017,-11
16:00:11.380017,-2561
16:00:11.380017,-1
16:00:11.380017,-11
16:00:11.380017,-4353
16:00:11.380017,-1
16:00:11.380017,-23
16:00:11.380017,-5121
16:00:11.380017,-1
16:00:11.380017,-23
16:00:11.380017,-3841
16:00:11.380017,-1
16:00:11.380017,7
16:00:11.964983,23
16:00:11.964983,7680
16:00:11.964983,0
16:00:11.964983,30
16:00:11.964983,3584
16:00:11.964983,0
16:00:11.964983,-4
16:00:11.964983,-2561
16:00:11.964983,-1
16:00:11.964983,-9
16:00:11.964983,-1537
16:00:11.964983,-1
16:00:11.964983,-7
16:00:11.964983,-2049
16:00:11.964983,-1
16:00:11.964983,-9
16:00:11.964983,-5121
16:00:11.964983,-1
16:00:11.964983,-37
16:00:11.964983,27391
16:00:11.964983,0
16:00:11.964983,506
16:00:11.964983,-32000
16:00:11.964983,3
16:00:11.964983,812
16:00:11.964983,7680
16:00:11.964983,1
16:00:11.964983,-35
16:00:11.964983,-7425
16:00:11.964983,-1
16:00:11.964983,-56
16:00:11.964983,-25601
16:00:11.964983,-1
16:00:11.964983,-75
16:00:11.964983,-16641
16:00:11.964983,-1
16:00:11.964983,-75
16:00:11.964983,-15873
16:00:11.964983,-1
16:00:11.964983,-56
16:00:11.964983,-14081
16:00:11.964983,-1
16:00:11.964983,-47
16:00:11.964983,-9985
16:00:11.964983,-1
16:00:11.964983,-37
16:00:11.964983,-8705
16:00:11.964983,-1
16:00:11.964983,-33
16:00:11.964983,-7425
16:00:11.964983,-1
16:00:11.964983,-21
16:00:11.964983,-4353
16:00:11.964983,-1
16:00:11.964983,-18
16:00:11.964983,-2561
16:00:11.964983,-1
16:00:11.964983,-7
16:00:11.964983,-257
16:00:11.964983,-1
16:00:11.964983,4
16:00:11.964983,0
16:00:11.964983,0
16:00:11.964983,-7
16:00:11.964983,-257
16:00:11.964983,-1
16:00:11.964983,2
16:00:11.964983,1024
16:00:11.964983,0
16:00:11.964983,2
16:00:11.964983,512
16:00:11.964983,0
16:00:11.964983,4
16:00:11.964983,0
16:00:11.964983,0
16:00:11.964983,-2
16:00:11.964983,-257
16:00:11.964983,-1
16:00:11.964983,-2
16:00:11.964983,255
16:00:11.964983,0
16:00:11.964983,4
16:00:11.964983,1792
16:00:11.964983,0
16:00:11.964983,7
16:00:11.964983,2304
16:00:11.964983,0
16:00:11.964983,14
16:00:11.964983,2816
16:00:11.964983,0
16:00:11.964983,14
16:00:11.964983,4608
16:00:11.964983,0
16:00:11.964983,16
16:00:11.964983,3584
16:00:11.964983,0
16:00:11.964983,7
16:00:11.964983,-1024
16:00:11.964983,-1
16:00:11.964983,-4
16:00:11.964983,-769
16:00:11.964983,-1
16:00:11.964983,7
16:00:11.964983,8960
16:00:11.964983,0
16:00:11.964983,49
16:00:11.964983,12032
16:00:11.964983,0
16:00:11.964983,33
16:00:12.460001,18
16:00:12.460001,2304
16:00:12.460001,0
16:00:12.460001,0
16:00:12.460001,512
16:00:12.460001,0
16:00:12.460001,4
16:00:12.460001,512
16:00:12.460001,0
16:00:12.460001,2
16:00:12.460001,-4608
16:00:12.460001,-1
16:00:12.460001,-56
16:00:12.460001,-4353
16:00:12.460001,-1
16:00:12.460001,260
16:00:12.460001,-10496
16:00:12.460001,2
16:00:12.460001,952
16:00:12.460001,24064
16:00:12.460001,2
16:00:12.460001,99
16:00:12.460001,-14336
16:00:12.460001,-1
16:00:12.460001,-44
16:00:12.460001,-24577
16:00:12.460001,-1
16:00:12.460001,-106
16:00:12.460001,-19713
16:00:12.460001,-1
16:00:12.460001,-87
16:00:12.460001,-22529
16:00:12.460001,-1
16:00:12.460001,-73
16:00:12.460001,-17921
16:00:12.460001,-1
16:00:12.460001,-71
16:00:12.460001,-15361
16:00:12.460001,-1
16:00:12.460001,-54
16:00:12.460001,-14849
16:00:12.460001,-1
16:00:12.460001,-59
16:00:12.460001,-11777
16:00:12.460001,-1
16:00:12.460001,-42
16:00:12.460001,-9985
16:00:12.460001,-1
16:00:12.460001,-35
16:00:12.460001,-7425
16:00:12.460001,-1
16:00:12.460001,-23
16:00:12.460001,-3329
16:00:12.460001,-1
16:00:12.460001,-11
16:00:12.460001,-3329
16:00:12.460001,-1
16:00:12.460001,-21
16:00:12.460001,-4353
16:00:12.460001,-1
16:00:12.460001,-11
16:00:12.460001,-2049
16:00:12.460001,-1
16:00:12.460001,-4
16:00:12.460001,-1537
16:00:12.460001,-1
16:00:12.460001,-7
16:00:12.460001,-257
16:00:12.460001,-1
16:00:12.460001,-4
16:00:12.460001,-257
16:00:12.460001,-1
16:00:12.460001,0
16:00:12.460001,0
16:00:12.460001,0
16:00:12.460001,2
16:00:12.460001,512
16:00:12.460001,0
16:00:12.460001,4
16:00:12.460001,2304
16:00:12.460001,0
16:00:12.460001,11
16:00:12.460001,3584
16:00:12.460001,0
16:00:12.460001,16
16:00:12.460001,4096
16:00:12.460001,0
16:00:12.460001,18
16:00:12.460001,3584
16:00:12.460001,0
16:00:12.460001,14
16:00:12.460001,2304
16:00:12.460001,0
16:00:12.460001,0
16:00:12.460001,-1792
16:00:12.460001,-1
16:00:12.460001,-2
16:00:12.460001,5631
16:00:12.460001,0
16:00:12.460001,49
16:00:12.460001,14336
16:00:12.460001,0
16:00:12.460001,47
16:00:12.460001,7680
16:00:12.460001,0
16:00:12.460001,14
16:00:12.460001,1024
16:00:12.460001,0
16:00:12.460001,2
16:00:13.044996,7
16:00:13.044996,2816
16:00:13.044996,0
16:00:13.044996,9
16:00:13.044996,1792
16:00:13.044996,0
16:00:13.044996,-14
16:00:13.044996,-8705
16:00:13.044996,-1
16:00:13.044996,59
16:00:13.044996,-32256
16:00:13.044996,1
16:00:13.044996,821
16:00:13.044996,-27648
16:00:13.044996,3
16:00:13.044996,471
16:00:13.044996,2816
16:00:13.044996,0
16:00:13.044996,-73
16:00:13.044996,-15361
16:00:13.044996,-1
16:00:13.044996,-113
16:00:13.044996,-29441
16:00:13.044996,-1
16:00:13.044996,-85
16:00:13.044996,-22017
16:00:13.044996,-1
16:00:13.044996,-92
16:00:13.044996,-22017
16:00:13.044996,-1
16:00:13.044996,-87
16:00:13.044996,-20737
16:00:13.044996,-1
16:00:13.044996,-71
16:00:13.044996,-16641
16:00:13.044996,-1
16:00:13.044996,-63
16:00:13.044996,-15873
16:00:13.044996,-1
16:00:13.044996,-59
16:00:13.044996,-13569
16:00:13.044996,-1
16:00:13.044996,-47
16:00:13.044996,-9985
16:00:13.044996,-1
16:00:13.044996,-44
16:00:13.044996,-11777
16:00:13.044996,-1
16:00:13.044996,-35
16:00:13.044996,-7425
16:00:13.044996,-1
16:00:13.044996,-30
16:00:13.044996,-7425
16:00:13.044996,-1
16:00:13.044996,-28
16:00:13.044996,-6401
16:00:13.044996,-1
16:00:13.044996,-23
16:00:13.044996,-5633
16:00:13.044996,-1
16:00:13.044996,-23
16:00:13.044996,-6913
16:00:13.044996,-1
16:00:13.044996,-30
16:00:13.044996,-7425
16:00:13.044996,-1
16:00:13.044996,-28
16:00:13.044996,-6401
16:00:13.044996,-1
16:00:13.044996,-21
16:00:13.044996,-3841
16:00:13.044996,-1
16:00:13.044996,-16
16:00:13.044996,-4353
16:00:13.044996,-1
16:00:13.044996,-11
16:00:13.044996,-2561
16:00:13.044996,-1
16:00:13.044996,-9
16:00:13.044996,-769
16:00:13.044996,-1
16:00:13.044996,-7
16:00:13.044996,-1537
16:00:13.044996,-1
16:00:13.044996,-11
16:00:13.044996,-3841
16:00:13.044996,-1
16:00:13.044996,-16
16:00:13.044996,-4353
16:00:13.044996,-1
16:00:13.044996,-28
16:00:13.044996,-8705
16:00:13.044996,-1
16:00:13.044996,-21
16:00:13.044996,2559
16:00:13.044996,0
16:00:13.044996,30
16:00:13.044996,7168
16:00:13.044996,0
16:00:13.044996,18
16:00:13.044996,2304
16:00:13.044996,0
16:00:13.044996,0
16:00:13.044996,-2816
16:00:13.044996,-1
16:00:13.044996,-14
16:00:13.044996,-2049
16:00:13.044996,-1
16:00:13.044996,-14
16:00:13.585745,-16
16:00:13.585745,-8705
16:00:13.585745,-1
16:00:13.585745,-75
16:00:13.585745,-6401
16:00:13.585745,-1
16:00:13.585745,246
16:00:13.585745,-25088
16:00:13.585745,2
16:00:13.585745,852
16:00:13.585745,-3328
16:00:13.585745,1
16:00:13.585745,40
16:00:13.585745,-15104
16:00:13.585745,-1
16:00:13.585745,-47
16:00:13.585745,-31233
16:00:13.585745,-1
16:00:13.585745,-132
16:00:13.585745,-25089
16:00:13.585745,-1
16:00:13.585745,-101
16:00:13.585745,-26881
16:00:13.585745,-1
16:00:13.585745,-92
16:00:13.585745,-22529
16:00:13.585745,-1
16:00:13.585745,-92
16:00:13.585745,-21505
16:00:13.585745,-1
16:00:13.585745,-80
16:00:13.585745,-18433
16:00:13.585745,-1
16:00:13.585745,-66
16:00:13.585745,-16641
16:00:13.585745,-1
16:00:13.585745,-63
16:00:13.585745,-15361
16:00:13.585745,-1
16:00:13.585745,-52
16:00:13.585745,-9217
16:00:13.585745,-1
16:00:13.585745,-35
16:00:13.585745,-8705
16:00:13.585745,-1
16:00:13.585745,-30
16:00:13.585745,-5633
16:00:13.585745,-1
16:00:13.585745,-26
16:00:13.585745,-8193
16:00:13.585745,-1
16:00:13.585745,-30
16:00:13.585745,-7425
16:00:13.585745,-1
16:00:13.585745,-33
16:00:13.585745,-7425
16:00:13.585745,-1
16:00:13.585745,-35
16:00:13.585745,-9985
16:00:13.585745,-1
16:00:13.585745,-40
16:00:13.585745,-10497
16:00:13.585745,-1
16:00:13.585745,-42
16:00:13.585745,-8705
16:00:13.585745,-1
16:00:13.585745,-28
16:00:13.585745,-6401
16:00:13.585745,-1
16:00:13.585745,-28
16:00:13.585745,-6913
16:00:13.585745,-1
16:00:13.585745,-28
16:00:13.585745,-4353
16:00:13.585745,-1
16:00:13.585745,-11
16:00:13.585745,-5633
16:00:13.585745,-1
16:00:13.585745,-23
16:00:13.585745,-4353
16:00:13.585745,-1
16:00:13.585745,-26
16:00:13.585745,-9217
16:00:13.585745,-1
16:00:13.585745,-44
16:00:13.585745,-10497
16:00:13.585745,-1
16:00:13.585745,-30
16:00:13.585745,-1537
16:00:13.585745,-1
16:00:13.585745,23
16:00:13.585745,7680
16:00:13.585745,0
16:00:13.585745,14
16:00:13.585745,0
16:00:13.585745,0
16:00:13.585745,-14
16:00:13.585745,-6401
16:00:13.585745,-1
16:00:13.585745,-26
16:00:13.585745,-5121
16:00:13.585745,-1
16:00:13.585745,-21
16:00:13.585745,-6401
16:00:13.585745,-1
16:00:13.585745,-33
16:00:13.585745,-17921
16:00:13.585745,-1
16:00:13.585745,-78
16:00:14.215334,106
16:00:14.215334,-1536
16:00:14.215334,1
16:00:14.215334,838
16:00:14.215334,-25856
16:00:14.215334,2
16:00:14.215334,139
16:00:14.215334,-22272
16:00:14.215334,-1
16:00:14.215334,-33
16:00:14.215334,-22017
16:00:14.215334,-1
16:00:14.215334,-144
16:00:14.215334,-27393
16:00:14.215334,-1
16:00:14.215334,-99
16:00:14.215334,-29441
16:00:14.215334,-1
16:00:14.215334,-108
16:00:14.215334,-25089
16:00:14.215334,-1
16:00:14.215334,-97
16:00:14.215334,-22529
16:00:14.215334,-1
16:00:14.215334,-82
16:00:14.215334,-20737
16:00:14.215334,-1
16:00:14.215334,-75
16:00:14.215334,-17921
16:00:14.215334,-1
16:00:14.215334,-66
16:00:14.215334,-14081
16:00:14.215334,-1
16:00:14.215334,-44
16:00:14.215334,-9217
16:00:14.215334,-1
16:00:14.215334,-33
16:00:14.215334,-8705
16:00:14.215334,-1
16:00:14.215334,-33
16:00:14.215334,-6913
16:00:14.215334,-1
16:00:14.215334,-28
16:00:14.215334,-8193
16:00:14.215334,-1
16:00:14.215334,-37
16:00:14.215334,-8193
16:00:14.215334,-1
16:00:14.215334,-28
16:00:14.215334,-6913
16:00:14.215334,-1
16:00:14.215334,-28
16:00:14.215334,-9217
16:00:14.215334,-1
16:00:14.215334,-44
16:00:14.215334,-10497
16:00:14.215334,-1
16:00:14.215334,-47
16:00:14.215334,-12289
16:00:14.215334,-1
16:00:14.215334,-40
16:00:14.215334,-6913
16:00:14.215334,-1
16:00:14.215334,-23
16:00:14.215334,-5633
16:00:14.215334,-1
16:00:14.215334,-18
16:00:14.215334,-3329
16:00:14.215334,-1
16:00:14.215334,-14
16:00:14.215334,-2561
16:00:14.215334,-1
16:00:14.215334,-14
16:00:14.215334,-5633
16:00:14.215334,-1
16:00:14.215334,-26
16:00:14.215334,-6913
16:00:14.215334,-1
16:00:14.215334,-23
16:00:14.215334,-1537
16:00:14.215334,-1
16:00:14.215334,14
16:00:14.215334,6656
16:00:14.215334,0
16:00:14.215334,23
16:00:14.215334,2816
16:00:14.215334,0
16:00:14.215334,-7
16:00:14.215334,-5633
16:00:14.215334,-1
16:00:14.215334,-26
16:00:14.215334,-5121
16:00:14.215334,-1
16:00:14.215334,-23
16:00:14.215334,-6913
16:00:14.215334,-1
16:00:14.215334,-28
16:00:14.215334,-10497
16:00:14.215334,-1
16:00:14.215334,-80
16:00:14.215334,-8705
16:00:14.215334,-1
16:00:14.215334,253
16:00:14.215334,-15360
16:00:14.215334,2
16:00:14.215334,890
16:00:14.215334,-3328
16:00:14.215334,1
16:00:14.215334,0
16:00:14.755035,-101
16:00:14.755035,-18945
16:00:14.755035,-1
16:00:14.755035,-144
16:00:14.755035,28415
16:00:14.755035,-1
16:00:14.755035,-113
16:00:14.755035,-31745
16:00:14.755035,-1
16:00:14.755035,-127
16:00:14.755035,-27393
16:00:14.755035,-1
16:00:14.755035,-101
16:00:14.755035,-25089
16:00:14.755035,-1
16:00:14.755035,-92
16:00:14.755035,-22529
16:00:14.755035,-1
16:00:14.755035,-89
16:00:14.755035,-20225
16:00:14.755035,-1
16:00:14.755035,-61
16:00:14.755035,-9217
16:00:14.755035,-1
16:00:14.755035,-26
16:00:14.755035,-8705
16:00:14.755035,-1
16:00:14.755035,-28
16:00:14.755035,-2049
16:00:14.755035,-1
16:00:14.755035,-7
16:00:14.755035,-2049
16:00:14.755035,-1
16:00:14.755035,-14
16:00:14.755035,-3329
16:00:14.755035,-1
16:00:14.755035,-14
16:00:14.755035,-2561
16:00:14.755035,-1
16:00:14.755035,-7
16:00:14.755035,-1537
16:00:14.755035,-1
16:00:14.755035,-9
16:00:14.755035,-2561
16:00:14.755035,-1
16:00:14.755035,-16
16:00:14.755035,-4353
16:00:14.755035,-1
16:00:14.755035,-16
16:00:14.755035,-3841
16:00:14.755035,-1
16:00:14.755035,-14
16:00:14.755035,-3841
16:00:14.755035,-1
16:00:14.755035,-16
16:00:14.755035,-2049
16:00:14.755035,-1
16:00:14.755035,0
16:00:14.755035,512
16:00:14.755035,0
16:00:14.755035,0
16:00:14.755035,512
16:00:14.755035,0
16:00:14.755035,0
16:00:14.755035,-1024
16:00:14.755035,-1
16:00:14.755035,-2
16:00:14.755035,255
16:00:14.755035,0
16:00:14.755035,9
16:00:14.755035,9472
16:00:14.755035,0
16:00:14.755035,49
16:00:14.755035,10752
16:00:14.755035,0
16:00:14.755035,33
16:00:14.755035,3584
16:00:14.755035,0
16:00:14.755035,0
16:00:14.755035,-1792
16:00:14.755035,-1
16:00:14.755035,-7
16:00:14.755035,-257
16:00:14.755035,-1
16:00:14.755035,-4
16:00:14.755035,-1537
16:00:14.755035,-1
16:00:14.755035,-26
16:00:14.755035,-17921
16:00:14.755035,-1
16:00:14.755035,-23
16:00:14.755035,6143
16:00:14.755035,1
16:00:14.755035,753
16:00:14.755035,-20480
16:00:14.755035,3
16:00:14.755035,551
16:00:14.755035,8960
16:00:14.755035,0
16:00:14.755035,-99
16:00:14.755035,-19713
16:00:14.755035,-1
16:00:14.755035,-130
16:00:14.755035,30207
16:00:14.755035,-1
16:00:14.755035,-106
16:00:14.755035,-28161
16:00:14.755035,-1
16:00:14.755035,-118
16:00:15.295156,-94
16:00:15.295156,-22529
16:00:15.295156,-1
16:00:15.295156,-97
16:00:15.295156,-21505
16:00:15.295156,-1
16:00:15.295156,-75
16:00:15.295156,-17921
16:00:15.295156,-1
16:00:15.295156,-63
16:00:15.295156,-14081
16:00:15.295156,-1
16:00:15.295156,-54
16:00:15.295156,-12289
16:00:15.295156,-1
16:00:15.295156,-40
16:00:15.295156,-5121
16:00:15.295156,-1
16:00:15.295156,-2
16:00:15.295156,3071
16:00:15.295156,0
16:00:15.295156,4
16:00:15.295156,0
16:00:15.295156,0
16:00:15.295156,7
16:00:15.295156,1792
16:00:15.295156,0
16:00:15.295156,14
16:00:15.295156,4608
16:00:15.295156,0
16:00:15.295156,14
16:00:15.295156,2304
16:00:15.295156,0
16:00:15.295156,4
16:00:15.295156,1792
16:00:15.295156,0
16:00:15.295156,9
16:00:15.295156,1024
16:00:15.295156,0
16:00:15.295156,7
16:00:15.295156,1792
16:00:15.295156,0
16:00:15.295156,7
16:00:15.295156,2816
16:00:15.295156,0
16:00:15.295156,11
16:00:15.295156,2816
16:00:15.295156,0
16:00:15.295156,18
16:00:15.295156,5888
16:00:15.295156,0
16:00:15.295156,16
16:00:15.295156,3584
16:00:15.295156,0
16:00:15.295156,16
16:00:15.295156,4096
16:00:15.295156,0
16:00:15.295156,7
16:00:15.295156,2304
16:00:15.295156,0
16:00:15.295156,33
16:00:15.295156,14336
16:00:15.295156,0
16:00:15.295156,63
16:00:15.295156,13824
16:00:15.295156,0
16:00:15.295156,37
16:00:15.295156,5888
16:00:15.295156,0
16:00:15.295156,14
16:00:15.295156,2304
16:00:15.295156,0
16:00:15.295156,9
16:00:15.295156,2816
16:00:15.295156,0
16:00:15.295156,9
16:00:15.295156,0
16:00:15.295156,0
16:00:15.295156,-28
16:00:15.295156,-15873
16:00:15.295156,-1
16:00:15.295156,30
16:00:15.295156,-32256
16:00:15.295156,1
16:00:15.295156,831
16:00:15.295156,-32000
16:00:15.295156,3
16:00:15.295156,433
16:00:15.295156,-4096
16:00:15.295156,-1
16:00:15.295156,-85
16:00:15.295156,-19713
16:00:15.295156,-1
16:00:15.295156,-134
16:00:15.295156,-31745
16:00:15.295156,-1
16:00:15.295156,-94
16:00:15.295156,-25089
16:00:15.295156,-1
16:00:15.295156,-104
16:00:15.295156,-23297
16:00:15.295156,-1
16:00:15.295156,-85
16:00:15.295156,-21505
16:00:15.295156,-1
16:00:15.295156,-75
16:00:15.295156,-17153
16:00:15.295156,-1
16:00:15.295156,-66
16:00:15.835921,-61
16:00:15.835921,-14849
16:00:15.835921,-1
16:00:15.835921,-52
16:00:15.835921,-11009
16:00:15.835921,-1
16:00:15.835921,-35
16:00:15.835921,-5633
16:00:15.835921,-1
16:00:15.835921,-18
16:00:15.835921,-3329
16:00:15.835921,-1
16:00:15.835921,-11
16:00:15.835921,255
16:00:15.835921,0
16:00:15.835921,18
16:00:15.835921,4096
16:00:15.835921,0
16:00:15.835921,9
16:00:15.835921,4608
16:00:15.835921,0
16:00:15.835921,18
16:00:15.835921,3584
16:00:15.835921,0
16:00:15.835921,11
16:00:15.835921,3584
16:00:15.835921,0
16:00:15.835921,16
16:00:15.835921,2816
16:00:15.835921,0
16:00:15.835921,9
16:00:15.835921,3584
16:00:15.835921,0
16:00:15.835921,16
16:00:15.835921,4608
16:00:15.835921,0
16:00:15.835921,23
16:00:15.835921,4608
16:00:15.835921,0
16:00:15.835921,18
16:00:15.835921,5376
16:00:15.835921,0
16:00:15.835921,21
16:00:15.835921,5376
16:00:15.835921,0
16:00:15.835921,18
16:00:15.835921,4096
16:00:15.835921,0
16:00:15.835921,9
16:00:15.835921,1792
16:00:15.835921,0
16:00:15.835921,30
16:00:15.835921,14336
16:00:15.835921,0
16:00:15.835921,66
16:00:15.835921,15104
16:00:15.835921,0
16:00:15.835921,49
16:00:15.835921,8960
16:00:15.835921,0
16:00:15.835921,18
16:00:15.835921,2304
16:00:15.835921,0
16:00:15.835921,14
16:00:15.835921,2304
16:00:15.835921,0
16:00:15.835921,7
16:00:15.835921,1792
16:00:15.835921,0
16:00:15.835921,-16
16:00:15.835921,-13569
16:00:15.835921,-1
16:00:15.835921,11
16:00:15.835921,19200
16:00:15.835921,1
16:00:15.835921,783
16:00:15.835921,-27136
16:00:15.835921,3
16:00:15.835921,504
16:00:15.835921,5376
16:00:15.835921,0
16:00:15.835921,-87
16:00:15.835921,-18433
16:00:15.835921,-1
16:00:15.835921,-125
16:00:15.835921,-31745
16:00:15.835921,-1
16:00:15.835921,-97
16:00:15.835921,-26369
16:00:15.835921,-1
16:00:15.835921,-101
16:00:15.835921,-22017
16:00:15.835921,-1
16:00:15.835921,-85
16:00:15.835921,-21505
16:00:15.835921,-1
16:00:15.835921,-78
16:00:15.835921,-18433
16:00:15.835921,-1
16:00:15.835921,-68
16:00:15.835921,-15361
16:00:15.835921,-1
16:00:15.835921,-54
16:00:15.835921,-14849
16:00:15.835921,-1
16:00:15.835921,-54
16:00:15.835921,-11009
16:00:15.835921,-1
16:00:15.835921,-33
16:00:16.375056,-26
16:00:16.375056,-5633
16:00:16.375056,-1
16:00:16.375056,-23
16:00:16.375056,-5633
16:00:16.375056,-1
16:00:16.375056,-23
16:00:16.375056,-5121
16:00:16.375056,-1
16:00:16.375056,-9
16:00:16.375056,3839
16:00:16.375056,0
16:00:16.375056,18
16:00:16.375056,0
16:00:16.375056,0
16:00:16.375056,-2
16:00:16.375056,767
16:00:16.375056,0
16:00:16.375056,-2
16:00:16.375056,255
16:00:16.375056,0
16:00:16.375056,2
16:00:16.375056,512
16:00:16.375056,0
16:00:16.375056,2
16:00:16.375056,512
16:00:16.375056,0
16:00:16.375056,4
16:00:16.375056,1024
16:00:16.375056,0
16:00:16.375056,7
16:00:16.375056,2816
16:00:16.375056,0
16:00:16.375056,14
16:00:16.375056,2816
16:00:16.375056,0
16:00:16.375056,4
16:00:16.375056,-512
16:00:16.375056,-1
16:00:16.375056,-7
16:00:16.375056,-2561
16:00:16.375056,-1
16:00:16.375056,2
16:00:16.375056,8448
16:00:16.375056,0
16:00:16.375056,49
16:00:16.375056,12544
16:00:16.375056,0
16:00:16.375056,35
16:00:16.375056,4096
16:00:16.375056,0
16:00:16.375056,2
16:00:16.375056,-2304
16:00:16.375056,-1
16:00:16.375056,-9
16:00:16.375056,-1537
16:00:16.375056,-1
16:00:16.375056,-11
16:00:16.375056,-3841
16:00:16.375056,-1
16:00:16.375056,-28
16:00:16.375056,-15361
16:00:16.375056,-1
16:00:16.375056,-40
16:00:16.375056,-15617
16:00:16.375056,0
16:00:16.375056,622
16:00:16.375056,28672
16:00:16.375056,3
16:00:16.375056,608
16:00:16.375056,23552
16:00:16.375056,0
16:00:16.375056,-97
16:00:16.375056,-18945
16:00:16.375056,-1
16:00:16.375056,-125
16:00:16.375056,28415
16:00:16.375056,-1
16:00:16.375056,-111
16:00:16.375056,-27393
16:00:16.375056,-1
16:00:16.375056,-116
16:00:16.375056,-26881
16:00:16.375056,-1
16:00:16.375056,-101
16:00:16.375056,-25601
16:00:16.375056,-1
16:00:16.375056,-94
16:00:16.375056,-22017
16:00:16.375056,-1
16:00:16.375056,-85
16:00:16.375056,-20737
16:00:16.375056,-1
16:00:16.375056,-73
16:00:16.375056,-17153
16:00:16.375056,-1
16:00:16.375056,-63
16:00:16.375056,-13569
16:00:16.375056,-1
16:00:16.375056,-42
16:00:16.375056,-8193
16:00:16.375056,-1
16:00:16.375056,-30
16:00:16.375056,-8705
16:00:16.375056,-1
16:00:16.375056,-33
16:00:16.375056,-6913
16:00:16.375056,-1
16:00:16.375056,-28
16:00:17.005899,-30
16:00:17.005899,-7425
16:00:17.005899,-1
16:00:17.005899,-28
16:00:17.005899,-5121
16:00:17.005899,-1
16:00:17.005899,-4
16:00:17.005899,255
16:00:17.005899,0
16:00:17.005899,-11
16:00:17.005899,-5121
16:00:17.005899,-1
16:00:17.005899,-18
16:00:17.005899,-3841
16:00:17.005899,-1
16:00:17.005899,-11
16:00:17.005899,-2561
16:00:17.005899,-1
16:00:17.005899,-4
16:00:17.005899,-257
16:00:17.005899,-1
16:00:17.005899,0
16:00:17.005899,2816
16:00:17.005899,0
16:00:17.005899,14
16:00:17.005899,0
16:00:17.005899,0
16:00:17.005899,-9
16:00:17.005899,-4353
16:00:17.005899,-1
16:00:17.005899,-23
16:00:17.005899,-3841
16:00:17.005899,-1
16:00:17.005899,-9
16:00:17.005899,3071
16:00:17.005899,0
16:00:17.005899,30
16:00:17.005899,10752
16:00:17.005899,0
16:00:17.005899,40
16:00:17.005899,4608
16:00:17.005899,0
16:00:17.005899,-4
16:00:17.005899,-3329
16:00:17.005899,-1
16:00:17.005899,-18
16:00:17.005899,-3841
16:00:17.005899,-1
16:00:17.005899,-14
16:00:17.005899,-2561
16:00:17.005899,-1
16:00:17.005899,-16
16:00:17.005899,-12289
16:00:17.005899,-1
16:00:17.005899,-66
16:00:17.005899,18943
16:00:17.005899,0
16:00:17.005899,442
16:00:17.005899,13568
16:00:17.005899,3
16:00:17.005899,760
16:00:17.005899,1536
16:00:17.005899,1
16:00:17.005899,-61
16:00:17.005899,-16641
16:00:17.005899,-1
16:00:17.005899,-99
16:00:17.005899,26623
16:00:17.005899,-1
16:00:17.005899,-123
16:00:17.005899,-25601
16:00:17.005899,-1
16:00:17.005899,-120
16:00:17.005899,-29953
16:00:17.005899,-1
16:00:17.005899,-104
16:00:17.005899,-24577
16:00:17.005899,-1
16:00:17.005899,-92
16:00:17.005899,-22017
16:00:17.005899,-1
16:00:17.005899,-82
16:00:17.005899,-18433
16:00:17.005899,-1
16:00:17.005899,-66
16:00:17.005899,-13569
16:00:17.005899,-1
16:00:17.005899,-47
16:00:17.005899,-9985
16:00:17.005899,-1
16:00:17.005899,-30
16:00:17.005899,-5121
16:00:17.005899,-1
16:00:17.005899,-14
16:00:17.005899,-2049
16:00:17.005899,-1
16:00:17.005899,-11
16:00:17.005899,-2049
16:00:17.005899,-1
16:00:17.005899,-11
16:00:17.005899,-3329
16:00:17.005899,-1
16:00:17.005899,-14
16:00:17.005899,-3841
16:00:17.005899,-1
16:00:17.005899,-21
16:00:17.005899,-5121
16:00:17.005899,-1
16:00:17.005899,-21
16:00:17.545058,-23
16:00:17.545058,-6401
16:00:17.545058,-1
16:00:17.545058,-18
16:00:17.545058,-3329
16:00:17.545058,-1
16:00:17.545058,-18
16:00:17.545058,-3841
16:00:17.545058,-1
16:00:17.545058,-9
16:00:17.545058,-257
16:00:17.545058,-1
16:00:17.545058,4
16:00:17.545058,0
16:00:17.545058,0
16:00:17.545058,0
16:00:17.545058,512
16:00:17.545058,0
16:00:17.545058,9
16:00:17.545058,5376
16:00:17.545058,0
16:00:17.545058,21
16:00:17.545058,2304
16:00:17.545058,0
16:00:17.545058,0
16:00:17.545058,1792
16:00:17.545058,0
16:00:17.545058,33
16:00:17.545058,14336
16:00:17.545058,0
16:00:17.545058,61
16:00:17.545058,12544
16:00:17.545058,0
16:00:17.545058,30
16:00:17.545058,4608
16:00:17.545058,0
16:00:17.545058,9
16:00:17.545058,1024
16:00:17.545058,0
16:00:17.545058,9
16:00:17.545058,1024
16:00:17.545058,0
16:00:17.545058,2
16:00:17.545058,0
16:00:17.545058,0
16:00:17.545058,-33
16:00:17.545058,-13569
16:00:17.545058,-1
16:00:17.545058,99
16:00:17.545058,-2560
16:00:17.545058,1
16:00:17.545058,897
16:00:17.545058,11776
16:00:17.545058,3
16:00:17.545058,286
16:00:17.545058,-14336
16:00:17.545058,-1
16:00:17.545058,-73
16:00:17.545058,-24577
16:00:17.545058,-1
16:00:17.545058,-144
16:00:17.545058,-29953
16:00:17.545058,-1
16:00:17.545058,-97
16:00:17.545058,-28161
16:00:17.545058,-1
16:00:17.545058,-104
16:00:17.545058,-22529
16:00:17.545058,-1
16:00:17.545058,-89
16:00:17.545058,-22017
16:00:17.545058,-1
16:00:17.545058,-78
16:00:17.545058,-18433
16:00:17.545058,-1
16:00:17.545058,-73
16:00:17.545058,-16641
16:00:17.545058,-1
16:00:17.545058,-59
16:00:17.545058,-14081
16:00:17.545058,-1
16:00:17.545058,-47
16:00:17.545058,-9217
16:00:17.545058,-1
16:00:17.545058,-33
16:00:17.545058,-5121
16:00:17.545058,-1
16:00:17.545058,-18
16:00:17.545058,-4353
16:00:17.545058,-1
16:00:17.545058,-14
16:00:17.545058,-2561
16:00:17.545058,-1
16:00:17.545058,-11
16:00:17.545058,-2049
16:00:17.545058,-1
16:00:17.545058,-7
16:00:17.545058,-1537
16:00:17.545058,-1
16:00:17.545058,-9
16:00:17.545058,-2561
16:00:17.545058,-1
16:00:17.545058,-11
16:00:17.545058,-2561
16:00:17.545058,-1
16:00:17.545058,-9
16:00:17.545058,-2049
16:00:17.545058,-1
16:00:17.545058,-2
16:00:18.130990,4
16:00:18.130990,2304
16:00:18.130990,0
16:00:18.130990,11
16:00:18.130990,2304
16:00:18.130990,0
16:00:18.130990,7
16:00:18.130990,3584
16:00:18.130990,0
16:00:18.130990,14
16:00:18.130990,3584
16:00:18.130990,0
16:00:18.130990,11
16:00:18.130990,1024
16:00:18.130990,0
16:00:18.130990,16
16:00:18.130990,10240
16:00:18.130990,0
16:00:18.130990,54
16:00:18.130990,17408
16:00:18.130990,0
16:00:18.130990,75
16:00:18.130990,15616
16:00:18.130990,0
16:00:18.130990,40
16:00:18.130990,8448
16:00:18.130990,0
16:00:18.130990,23
16:00:18.130990,3584
16:00:18.130990,0
16:00:18.130990,21
16:00:18.130990,6656
16:00:18.130990,0
16:00:18.130990,21
16:00:18.130990,3584
16:00:18.130990,0
16:00:18.130990,-21
16:00:18.130990,-10497
16:00:18.130990,-1
16:00:18.130990,111
16:00:18.130990,256
16:00:18.130990,2
16:00:18.130990,921
16:00:18.130990,20224
16:00:18.130990,3
16:00:18.130990,312
16:00:18.130990,-11264
16:00:18.130990,-1
16:00:18.130990,-66
16:00:18.130990,-20737
16:00:18.130990,-1
16:00:18.130990,-127
16:00:18.130990,-26881
16:00:18.130990,-1
16:00:18.130990,-87
16:00:18.130990,-25089
16:00:18.130990,-1
16:00:18.130990,-92
16:00:18.130990,-19713
16:00:18.130990,-1
16:00:18.130990,-78
16:00:18.130990,-18433
16:00:18.130990,-1
16:00:18.130990,-66
16:00:18.130990,-17153
16:00:18.130990,-1
16:00:18.130990,-63
16:00:18.130990,-13569
16:00:18.130990,-1
16:00:18.130990,-47
16:00:18.130990,-11009
16:00:18.130990,-1
16:00:18.130990,-40
16:00:18.130990,-7425
16:00:18.130990,-1
16:00:18.130990,-26
16:00:18.130990,-3841
16:00:18.130990,-1
16:00:18.130990,-7
16:00:18.130990,-1537
16:00:18.130990,-1
16:00:18.130990,-11
16:00:18.130990,-2561
16:00:18.130990,-1
16:00:18.130990,-9
16:00:18.130990,-769
16:00:18.130990,-1
16:00:18.130990,-4
16:00:18.130990,-1537
16:00:18.130990,-1
16:00:18.130990,-9
16:00:18.130990,-2561
16:00:18.130990,-1
16:00:18.130990,-9
16:00:18.130990,-2049
16:00:18.130990,-1
16:00:18.130990,-9
16:00:18.130990,-2561
16:00:18.130990,-1
16:00:18.130990,-7
16:00:18.130990,2047
16:00:18.130990,0
16:00:18.130990,14
16:00:18.130990,2816
16:00:18.130990,0
16:00:18.130990,11
16:00:18.130990,3584
16:00:18.130990,0
16:00:18.130990,14
16:00:18.670941,14
16:00:18.670941,3584
16:00:18.670941,0
16:00:18.670941,11
16:00:18.670941,512
16:00:18.670941,0
16:00:18.670941,-2
16:00:18.670941,767
16:00:18.670941,0
16:00:18.670941,16
16:00:18.670941,12032
16:00:18.670941,0
16:00:18.670941,59
16:00:18.670941,12544
16:00:18.670941,0
16:00:18.670941,40
16:00:18.670941,7680
16:00:18.670941,0
16:00:18.670941,21
16:00:18.670941,6656
16:00:18.670941,0
16:00:18.670941,42
16:00:18.670941,9472
16:00:18.670941,0
16:00:18.670941,21
16:00:18.670941,5376
16:00:18.670941,0
16:00:18.670941,9
16:00:18.670941,-10240
16:00:18.670941,-1
16:00:18.670941,-4
16:00:18.670941,4351
16:00:18.670941,1
16:00:18.670941,724
16:00:18.670941,-19200
16:00:18.670941,3
16:00:18.670941,610
16:00:18.670941,22784
16:00:18.670941,0
16:00:18.670941,-78
16:00:18.670941,-16641
16:00:18.670941,-1
16:00:18.670941,-113
16:00:18.670941,-32257
16:00:18.670941,-1
16:00:18.670941,-94
16:00:18.670941,-23809
16:00:18.670941,-1
16:00:18.670941,-104
16:00:18.670941,-23297
16:00:18.670941,-1
16:00:18.670941,-85
16:00:18.670941,-22529
16:00:18.670941,-1
16:00:18.670941,-80
16:00:18.670941,-17153
16:00:18.670941,-1
16:00:18.670941,-71
16:00:18.670941,-17921
16:00:18.670941,-1
16:00:18.670941,-66
16:00:18.670941,-14849
16:00:18.670941,-1
16:00:18.670941,-52
16:00:18.670941,-10497
16:00:18.670941,-1
16:00:18.670941,-33
16:00:18.670941,-6913
16:00:18.670941,-1
16:00:18.670941,-23
16:00:18.670941,-5121
16:00:18.670941,-1
16:00:18.670941,-21
16:00:18.670941,-5121
16:00:18.670941,-1
16:00:18.670941,-26
16:00:18.670941,-6913
16:00:18.670941,-1
16:00:18.670941,-26
16:00:18.670941,-6913
16:00:18.670941,-1
16:00:18.670941,-28
16:00:18.670941,-8193
16:00:18.670941,-1
16:00:18.670941,-37
16:00:18.670941,-9985
16:00:18.670941,-1
16:00:18.670941,-37
16:00:18.670941,-8193
16:00:18.670941,-1
16:00:18.670941,-26
16:00:18.670941,-4353
16:00:18.670941,-1
16:00:18.670941,-18
16:00:18.670941,-5633
16:00:18.670941,-1
16:00:18.670941,-16
16:00:18.670941,-2049
16:00:18.670941,-1
16:00:18.670941,-14
16:00:18.670941,-3329
16:00:18.670941,-1
16:00:18.670941,-14
16:00:18.670941,-3841
16:00:18.670941,-1
16:00:18.670941,-16
16:00:18.670941,-5121
16:00:18.670941,-1
16:00:18.670941,-26
16:00:19.209993,-16
16:00:19.209993,2559
16:00:19.209993,0
16:00:19.209993,33
16:00:19.209993,8960
16:00:19.209993,0
16:00:19.209993,26
16:00:19.209993,3584
16:00:19.209993,0
16:00:19.209993,-2
16:00:19.209993,-4353
16:00:19.209993,-1
16:00:19.209993,-28
16:00:19.209993,-5121
16:00:19.209993,-1
16:00:19.209993,-4
16:00:19.209993,3071
16:00:19.209993,0
16:00:19.209993,9
16:00:19.209993,-8960
16:00:19.209993,-1
16:00:19.209993,-59
16:00:19.209993,25087
16:00:19.209993,0
16:00:19.209993,476
16:00:19.209993,20992
16:00:19.209993,3
16:00:19.209993,767
16:00:19.209993,-2560
16:00:19.209993,0
16:00:19.209993,-73
16:00:19.209993,-16641
16:00:19.209993,-1
16:00:19.209993,-89
16:00:19.209993,29439
16:00:19.209993,-1
16:00:19.209993,-118
16:00:19.209993,-26881
16:00:19.209993,-1
16:00:19.209993,-120
16:00:19.209993,-27393
16:00:19.209993,-1
16:00:19.209993,-94
16:00:19.209993,-23809
16:00:19.209993,-1
16:00:19.209993,-89
16:00:19.209993,-20737
16:00:19.209993,-1
16:00:19.209993,-82
16:00:19.209993,-18945
16:00:19.209993,-1
16:00:19.209993,-66
16:00:19.209993,-16641
16:00:19.209993,-1
16:00:19.209993,-59
16:00:19.209993,-12289
16:00:19.209993,-1
16:00:19.209993,-47
16:00:19.209993,-9985
16:00:19.209993,-1
16:00:19.209993,-26
16:00:19.209993,-5121
16:00:19.209993,-1
16:00:19.209993,-26
16:00:19.209993,-6401
16:00:19.209993,-1
16:00:19.209993,-28
16:00:19.209993,-8705
16:00:19.209993,-1
16:00:19.209993,-26
16:00:19.209993,-5633
16:00:19.209993,-1
16:00:19.209993,-37
16:00:19.209993,-11777
16:00:19.209993,-1
16:00:19.209993,-42
16:00:19.209993,-9985
16:00:19.209993,-1
16:00:19.209993,-42
16:00:19.209993,-8193
16:00:19.209993,-1
16:00:19.209993,-23
16:00:19.209993,-6913
16:00:19.209993,-1
16:00:19.209993,-28
16:00:19.209993,-2561
16:00:19.209993,-1
16:00:19.209993,-11
16:00:19.209993,-3841
16:00:19.209993,-1
16:00:19.209993,-11
16:00:19.209993,-2561
16:00:19.209993,-1
16:00:19.209993,-11
16:00:19.209993,-2561
16:00:19.209993,-1
16:00:19.209993,-9
16:00:19.209993,-3841
16:00:19.209993,-1
16:00:19.209993,-16
16:00:19.209993,-3841
16:00:19.209993,-1
16:00:19.209993,-14
16:00:19.209993,3071
16:00:19.209993,0
16:00:19.209993,35
16:00:19.209993,8960
16:00:19.209993,0
16:00:19.209993,33
16:00:19.749996,16
16:00:19.749996,-1792
16:00:19.749996,-1
16:00:19.749996,-11
16:00:19.749996,-1537
16:00:19.749996,-1
16:00:19.749996,-7
16:00:19.749996,-2561
16:00:19.749996,-1
16:00:19.749996,-11
16:00:19.749996,-2049
16:00:19.749996,-1
16:00:19.749996,-26
16:00:19.749996,-8193
16:00:19.749996,-1
16:00:19.749996,113
16:00:19.749996,-3840
16:00:19.749996,1
16:00:19.749996,873
16:00:19.749996,2048
16:00:19.749996,3
16:00:19.749996,253
16:00:19.749996,-13824
16:00:19.749996,-1
16:00:19.749996,-52
16:00:19.749996,-21505
16:00:19.749996,-1
16:00:19.749996,-134
16:00:19.749996,-27393
16:00:19.749996,-1
16:00:19.749996,-94
16:00:19.749996,-28161
16:00:19.749996,-1
16:00:19.749996,-106
16:00:19.749996,-22529
16:00:19.749996,-1
16:00:19.749996,-87
16:00:19.749996,-20225
16:00:19.749996,-1
16:00:19.749996,-73
16:00:19.749996,-17153
16:00:19.749996,-1
16:00:19.749996,-63
16:00:19.749996,-15361
16:00:19.749996,-1
16:00:19.749996,-56
16:00:19.749996,-12289
16:00:19.749996,-1
16:00:19.749996,-42
16:00:19.749996,-8705
16:00:19.749996,-1
16:00:19.749996,-28
16:00:19.749996,-4353
16:00:19.749996,-1
16:00:19.749996,-14
16:00:19.749996,-2561
16:00:19.749996,-1
16:00:19.749996,-11
16:00:19.749996,-4353
16:00:19.749996,-1
16:00:19.749996,-21
16:00:19.749996,-3841
16:00:19.749996,-1
16:00:19.749996,-16
16:00:19.749996,-4353
16:00:19.749996,-1
16:00:19.749996,-21
16:00:19.749996,-5121
16:00:19.749996,-1
16:00:19.749996,-16
16:00:19.749996,-3841
16:00:19.749996,-1
16:00:19.749996,-21
16:00:19.749996,-3841
16:00:19.749996,-1
16:00:19.749996,-11
16:00:19.749996,-2049
16:00:19.749996,-1
16:00:19.749996,-4
16:00:19.749996,-257
16:00:19.749996,-1
16:00:19.749996,4
16:00:19.749996,1792
16:00:19.749996,0
16:00:19.749996,9
16:00:19.749996,3584
16:00:19.749996,0
16:00:19.749996,14
16:00:19.749996,3584
16:00:19.749996,0
16:00:19.749996,7
16:00:19.749996,0
16:00:19.749996,0
16:00:19.749996,-4
16:00:19.749996,-769
16:00:19.749996,-1
16:00:19.749996,14
16:00:19.749996,9472
16:00:19.749996,0
16:00:19.749996,47
16:00:19.749996,12032
16:00:19.749996,0
16:00:19.749996,28
16:00:19.749996,3584
16:00:19.749996,0
16:00:19.749996,9
16:00:19.749996,512
16:00:19.749996,0
16:00:19.749996,0
16:00:20.338969,2
16:00:20.338969,1024
16:00:20.338969,0
16:00:20.338969,2
16:00:20.338969,-6656
16:00:20.338969,-1
16:00:20.338969,-66
16:00:20.338969,4351
16:00:20.338969,0
16:00:20.338969,355
16:00:20.338969,11264
16:00:20.338969,3
16:00:20.338969,954
16:00:20.338969,6912
16:00:20.338969,2
16:00:20.338969,40
16:00:20.338969,-19200
16:00:20.338969,-1
16:00:20.338969,-56
16:00:20.338969,-30465
16:00:20.338969,-1
16:00:20.338969,-127
16:00:20.338969,-22017
16:00:20.338969,-1
16:00:20.338969,-89
16:00:20.338969,-22529
16:00:20.338969,-1
16:00:20.338969,-78
16:00:20.338969,-19713
16:00:20.338969,-1
16:00:20.338969,-75
16:00:20.338969,-17921
16:00:20.338969,-1
16:00:20.338969,-63
16:00:20.338969,-14081
16:00:20.338969,-1
16:00:20.338969,-56
16:00:20.338969,-13057
16:00:20.338969,-1
16:00:20.338969,-47
16:00:20.338969,-9985
16:00:20.338969,-1
16:00:20.338969,-28
16:00:20.338969,-5121
16:00:20.338969,-1
16:00:20.338969,-16
16:00:20.338969,-2049
16:00:20.338969,-1
16:00:20.338969,-4
16:00:20.338969,-257
16:00:20.338969,-1
16:00:20.338969,0
16:00:20.338969,1024
16:00:20.338969,0
16:00:20.338969,7
16:00:20.338969,512
16:00:20.338969,0
16:00:20.338969,2
16:00:20.338969,1792
16:00:20.338969,0
16:00:20.338969,4
16:00:20.338969,-512
16:00:20.338969,-1
16:00:20.338969,-2
16:00:20.338969,255
16:00:20.338969,0
16:00:20.338969,2
16:00:20.338969,1792
16:00:20.338969,0
16:00:20.338969,11
16:00:20.338969,2816
16:00:20.338969,0
16:00:20.338969,14
16:00:20.338969,5376
16:00:20.338969,0
16:00:20.338969,18
16:00:20.338969,4608
16:00:20.338969,0
16:00:20.338969,23
16:00:20.338969,5888
16:00:20.338969,0
16:00:20.338969,21
16:00:20.338969,4096
16:00:20.338969,0
16:00:20.338969,14
16:00:20.338969,3584
16:00:20.338969,0
16:00:20.338969,9
16:00:20.338969,1024
16:00:20.338969,0
16:00:20.338969,4
16:00:20.338969,5888
16:00:20.338969,0
16:00:20.338969,52
16:00:20.338969,16128
16:00:20.338969,0
16:00:20.338969,59
16:00:20.338969,10240
16:00:20.338969,0
16:00:20.338969,21
16:00:20.338969,2816
16:00:20.338969,0
16:00:20.338969,4
16:00:20.338969,2304
16:00:20.338969,0
16:00:20.338969,11
16:00:20.338969,1024
16:00:20.338969,0
16:00:20.338969,0
16:00:20.920767,-26
16:00:20.920767,-16641
16:00:20.920767,-1
16:00:20.920767,23
16:00:20.920767,30720
16:00:20.920767,1
16:00:20.920767,833
16:00:20.920767,-24576
16:00:20.920767,3
16:00:20.920767,476
16:00:20.920767,1792
16:00:20.920767,0
16:00:20.920767,-73
16:00:20.920767,-10497
16:00:20.920767,-1
16:00:20.920767,-101
16:00:20.920767,-28161
16:00:20.920767,-1
16:00:20.920767,-78
16:00:20.920767,-20737
16:00:20.920767,-1
16:00:20.920767,-87
16:00:20.920767,-17921
16:00:20.920767,-1
16:00:20.920767,-66
16:00:20.920767,-16641
16:00:20.920767,-1
16:00:20.920767,-61
16:00:20.920767,-15361
16:00:20.920767,-1
16:00:20.920767,-52
16:00:20.920767,-11777
16:00:20.920767,-1
16:00:20.920767,-44
16:00:20.920767,-10497
16:00:20.920767,-1
16:00:20.920767,-37
16:00:20.920767,-6913
16:00:20.920767,-1
16:00:20.920767,-18
16:00:20.920767,-2049
16:00:20.920767,-1
16:00:20.920767,-2
16:00:20.920767,-257
16:00:20.920767,-1
16:00:20.920767,0
16:00:20.920767,1024
16:00:20.920767,0
16:00:20.920767,7
16:00:20.920767,512
16:00:20.920767,0
16:00:20.920767,-2
16:00:20.920767,-769
16:00:20.920767,-1
16:00:20.920767,-7
16:00:20.920767,-2049
16:00:20.920767,-1
16:00:20.920767,-4
16:00:20.920767,-257
16:00:20.920767,-1
16:00:20.920767,-2
16:00:20.920767,-769
16:00:20.920767,-1
16:00:20.920767,-9
16:00:20.920767,-1537
16:00:20.920767,-1
16:00:20.920767,-2
16:00:20.920767,-769
16:00:20.920767,-1
16:00:20.920767,-4
16:00:20.920767,-769
16:00:20.920767,-1
16:00:20.920767,0
16:00:20.920767,512
16:00:20.920767,0
16:00:20.920767,0
16:00:20.920767,1024
16:00:20.920767,0
16:00:20.920767,4
16:00:20.920767,0
16:00:20.920767,0
16:00:20.920767,-2
16:00:20.920767,-2049
16:00:20.920767,-1
16:00:20.920767,-14
16:00:20.920767,-3841
16:00:20.920767,-1
16:00:20.920767,-21
16:00:20.920767,-4353
16:00:20.920767,-1
16:00:20.920767,2
16:00:20.920767,7168
16:00:20.920767,0
16:00:20.920767,35
16:00:20.920767,7168
16:00:20.920767,0
16:00:20.920767,14
16:00:20.920767,-1792
16:00:20.920767,-1
16:00:20.920767,-16
16:00:20.920767,-3841
16:00:20.920767,-1
16:00:20.920767,-18
16:00:20.920767,-4353
16:00:20.920767,-1
16:00:20.920767,-18
16:00:20.920767,-6401
16:00:20.920767,-1
16:00:20.920767,-47
16:00:21.460075,-80
16:00:21.460075,6911
16:00:21.460075,0
16:00:21.460075,386
16:00:21.460075,12544
16:00:21.460075,3
16:00:21.460075,864
16:00:21.460075,-32256
16:00:21.460075,1
16:00:21.460075,-47
16:00:21.460075,-25601
16:00:21.460075,-1
16:00:21.460075,-99
16:00:21.460075,26623
16:00:21.460075,-1
16:00:21.460075,-144
16:00:21.460075,-27393
16:00:21.460075,-1
16:00:21.460075,-97
16:00:21.460075,-23809
16:00:21.460075,-1
16:00:21.460075,-89
16:00:21.460075,-22529
16:00:21.460075,-1
16:00:21.460075,-87
16:00:21.460075,-18945
16:00:21.460075,-1
16:00:21.460075,-73
16:00:21.460075,-20225
16:00:21.460075,-1
16:00:21.460075,-73
16:00:21.460075,-15873
16:00:21.460075,-1
16:00:21.460075,-59
16:00:21.460075,-12289
16:00:21.460075,-1
16:00:21.460075,-35
16:00:21.460075,-5633
16:00:21.460075,-1
16:00:21.460075,-18
16:00:21.460075,-3329
16:00:21.460075,-1
16:00:21.460075,-9
16:00:21.460075,-3329
16:00:21.460075,-1
16:00:21.460075,-14
16:00:21.460075,-2049
16:00:21.460075,-1
16:00:21.460075,-4
16:00:21.460075,-1537
16:00:21.460075,-1
16:00:21.460075,-14
16:00:21.460075,-3329
16:00:21.460075,-1
16:00:21.460075,-18
16:00:21.460075,-5121
16:00:21.460075,-1
16:00:21.460075,-26
16:00:21.460075,-8193
16:00:21.460075,-1
16:00:21.460075,-30
16:00:21.460075,-5121
16:00:21.460075,-1
16:00:21.460075,-26
16:00:21.460075,-5633
16:00:21.460075,-1
16:00:21.460075,-14
16:00:21.460075,-3841
16:00:21.460075,-1
16:00:21.460075,-21
16:00:21.460075,-3329
16:00:21.460075,-1
16:00:21.460075,-4
16:00:21.460075,-1537
16:00:21.460075,-1
16:00:21.460075,-11
16:00:21.460075,-1537
16:00:21.460075,-1
16:00:21.460075,-7
16:00:21.460075,-2049
16:00:21.460075,-1
16:00:21.460075,-9
16:00:21.460075,-3329
16:00:21.460075,-1
16:00:21.460075,-18
16:00:21.460075,-6913
16:00:21.460075,-1
16:00:21.460075,-33
16:00:21.460075,-8193
16:00:21.460075,-1
16:00:21.460075,-33
16:00:21.460075,-2561
16:00:21.460075,-1
16:00:21.460075,16
16:00:21.460075,5888
16:00:21.460075,0
16:00:21.460075,23
16:00:21.460075,2816
16:00:21.460075,0
16:00:21.460075,-4
16:00:21.460075,-2561
16:00:21.460075,-1
16:00:21.460075,-14
16:00:21.460075,-3841
16:00:21.460075,-1
16:00:21.460075,-14
16:00:21.460075,-3841
16:00:21.460075,-1
16:00:21.460075,-23
16:00:21.999834,-47
16:00:21.999834,-19713
16:00:21.999834,-1
16:00:21.999834,9
16:00:21.999834,20992
16:00:21.999834,1
16:00:21.999834,767
16:00:21.999834,21504
16:00:21.999834,3
16:00:21.999834,407
16:00:21.999834,-7680
16:00:21.999834,-1
16:00:21.999834,-80
16:00:21.999834,-12289
16:00:21.999834,-1
16:00:21.999834,-116
16:00:21.999834,32511
16:00:21.999834,-1
16:00:21.999834,-97
16:00:21.999834,-24577
16:00:21.999834,-1
16:00:21.999834,-104
16:00:21.999834,-23297
16:00:21.999834,-1
16:00:21.999834,-80
16:00:21.999834,-18433
16:00:21.999834,-1
16:00:21.999834,-71
16:00:21.999834,-16641
16:00:21.999834,-1
16:00:21.999834,-61
16:00:21.999834,-14081
16:00:21.999834,-1
16:00:21.999834,-47
16:00:21.999834,-10497
16:00:21.999834,-1
16:00:21.999834,-37
16:00:21.999834,-6401
16:00:21.999834,-1
16:00:21.999834,-11
16:00:21.999834,255
16:00:21.999834,0
16:00:21.999834,4
16:00:21.999834,1792
16:00:21.999834,0
16:00:21.999834,9
16:00:21.999834,1024
16:00:21.999834,0
16:00:21.999834,-2
16:00:21.999834,-1537
16:00:21.999834,-1
16:00:21.999834,-7
16:00:21.999834,-2049
16:00:21.999834,-1
16:00:21.999834,-14
16:00:21.999834,-5121
16:00:21.999834,-1
16:00:21.999834,-23
16:00:21.999834,-6401
16:00:21.999834,-1
16:00:21.999834,-30
16:00:21.999834,-7425
16:00:21.999834,-1
16:00:21.999834,-23
16:00:21.999834,-4353
16:00:21.999834,-1
16:00:21.999834,-21
16:00:21.999834,-5121
16:00:21.999834,-1
16:00:21.999834,-14
16:00:21.999834,-3329
16:00:21.999834,-1
16:00:21.999834,-7
16:00:21.999834,255
16:00:21.999834,0
16:00:21.999834,2
16:00:21.999834,0
16:00:21.999834,0
16:00:21.999834,-2
16:00:21.999834,767
16:00:21.999834,0
16:00:21.999834,4
16:00:21.999834,512
16:00:21.999834,0
16:00:21.999834,0
16:00:21.999834,-1792
16:00:21.999834,-1
16:00:21.999834,-11
16:00:21.999834,-2561
16:00:21.999834,-1
16:00:21.999834,-18
16:00:21.999834,-6401
16:00:21.999834,-1
16:00:21.999834,-18
16:00:21.999834,1279
16:00:21.999834,0
16:00:21.999834,26
16:00:21.999834,8448
16:00:21.999834,0
16:00:21.999834,28
16:00:21.999834,2816
16:00:21.999834,0
16:00:21.999834,-2
16:00:21.999834,-769
16:00:21.999834,-1
16:00:21.999834,-11
16:00:21.999834,-3841
16:00:21.999834,-1
16:00:21.999834,-7
16:00:22.585085,-4
16:00:22.585085,-3841
16:00:22.585085,-1
16:00:22.585085,-52
16:00:22.585085,-17153
16:00:22.585085,-1
16:00:22.585085,94
16:00:22.585085,1024
16:00:22.585085,2
16:00:22.585085,947
16:00:22.585085,27648
16:00:22.585085,3
16:00:22.585085,312
16:00:22.585085,-12032
16:00:22.585085,-1
16:00:22.585085,-52
16:00:22.585085,-18945
16:00:22.585085,-1
16:00:22.585085,-127
16:00:22.585085,-25601
16:00:22.585085,-1
16:00:22.585085,-80
16:00:22.585085,-23809
16:00:22.585085,-1
16:00:22.585085,-87
16:00:22.585085,-18433
16:00:22.585085,-1
16:00:22.585085,-73
16:00:22.585085,-17921
16:00:22.585085,-1
16:00:22.585085,-59
16:00:22.585085,-13569
16:00:22.585085,-1
16:00:22.585085,-47
16:00:22.585085,-9985
16:00:22.585085,-1
16:00:22.585085,-35
16:00:22.585085,-7425
16:00:22.585085,-1
16:00:22.585085,-28
16:00:22.585085,-4353
16:00:22.585085,-1
16:00:22.585085,-4
16:00:22.585085,2047
16:00:22.585085,0
16:00:22.585085,14
16:00:22.585085,2816
16:00:22.585085,0
16:00:22.585085,9
16:00:22.585085,1792
16:00:22.585085,0
16:00:22.585085,4
16:00:22.585085,1792
16:00:22.585085,0
16:00:22.585085,7
16:00:22.585085,-1024
16:00:22.585085,-1
16:00:22.585085,-11
16:00:22.585085,-3329
16:00:22.585085,-1
16:00:22.585085,-14
16:00:22.585085,-3329
16:00:22.585085,-1
16:00:22.585085,-14
16:00:22.585085,-3329
16:00:22.585085,-1
16:00:22.585085,-11
16:00:22.585085,-2049
16:00:22.585085,-1
16:00:22.585085,-11
16:00:22.585085,-2049
16:00:22.585085,-1
16:00:22.585085,0
16:00:22.585085,-512
16:00:22.585085,-1
16:00:22.585085,-4
16:00:22.585085,255
16:00:22.585085,0
16:00:22.585085,4
16:00:22.585085,2304
16:00:22.585085,0
16:00:22.585085,9
16:00:22.585085,1024
16:00:22.585085,0
16:00:22.585085,2
16:00:22.585085,1024
16:00:22.585085,0
16:00:22.585085,4
16:00:22.585085,512
16:00:22.585085,0
16:00:22.585085,-11
16:00:22.585085,-4353
16:00:22.585085,-1
16:00:22.585085,-18
16:00:22.585085,-3841
16:00:22.585085,-1
16:00:22.585085,4
16:00:22.585085,7168
16:00:22.585085,0
16:00:22.585085,42
16:00:22.585085,10240
16:00:22.585085,0
16:00:22.585085,23
16:00:22.585085,1792
16:00:22.585085,0
16:00:22.585085,-2
16:00:22.585085,-257
16:00:22.585085,-1
16:00:22.585085,2
16:00:23.127023,2
16:00:23.127023,1792
16:00:23.127023,0
16:00:23.127023,4
16:00:23.127023,-4608
16:00:23.127023,-1
16:00:23.127023,-56
16:00:23.127023,3839
16:00:23.127023,0
16:00:23.127023,341
16:00:23.127023,10496
16:00:23.127023,3
16:00:23.127023,975
16:00:23.127023,17920
16:00:23.127023,2
16:00:23.127023,78
16:00:23.127023,-17408
16:00:23.127023,-1
16:00:23.127023,-56
16:00:23.127023,-25601
16:00:23.127023,-1
16:00:23.127023,-104
16:00:23.127023,-18433
16:00:23.127023,-1
16:00:23.127023,-78
16:00:23.127023,-19713
16:00:23.127023,-1
16:00:23.127023,-63
16:00:23.127023,-14849
16:00:23.127023,-1
16:00:23.127023,-56
16:00:23.127023,-12289
16:00:23.127023,-1
16:00:23.127023,-42
16:00:23.127023,-11009
16:00:23.127023,-1
16:00:23.127023,-42
16:00:23.127023,-8705
16:00:23.127023,-1
16:00:23.127023,-33
16:00:23.127023,-6401
16:00:23.127023,-1
16:00:23.127023,-14
16:00:23.127023,-1537
16:00:23.127023,-1
16:00:23.127023,2
16:00:23.127023,1792
16:00:23.127023,0
16:00:23.127023,14
16:00:23.127023,4096
16:00:23.127023,0
16:00:23.127023,14
16:00:23.127023,4096
16:00:23.127023,0
16:00:23.127023,16
16:00:23.127023,2816
16:00:23.127023,0
16:00:23.127023,7
16:00:23.127023,1024
16:00:23.127023,0
16:00:23.127023,0
16:00:23.127023,-1024
16:00:23.127023,-1
16:00:23.127023,-4
16:00:23.127023,-769
16:00:23.127023,-1
16:00:23.127023,-7
16:00:23.127023,-769
16:00:23.127023,-1
16:00:23.127023,0
16:00:23.127023,0
16:00:23.127023,0
16:00:23.127023,0
16:00:23.127023,0
16:00:23.127023,0
16:00:23.127023,-2
16:00:23.127023,767
16:00:23.127023,0
16:00:23.127023,4
16:00:23.127023,1024
16:00:23.127023,0
16:00:23.127023,4
16:00:23.127023,1024
16:00:23.127023,0
16:00:23.127023,7
16:00:23.127023,1024
16:00:23.127023,0
16:00:23.127023,7
16:00:23.127023,1024
16:00:23.127023,0
16:00:23.127023,-4
16:00:23.127023,-1537
16:00:23.127023,-1
16:00:23.127023,-14
16:00:23.127023,-5121
16:00:23.127023,-1
16:00:23.127023,-23
16:00:23.127023,-1537
16:00:23.127023,-1
16:00:23.127023,26
16:00:23.127023,12032
16:00:23.127023,0
16:00:23.127023,47
16:00:23.127023,8448
16:00:23.127023,0
16:00:23.127023,16
16:00:23.127023,1024
16:00:23.127023,0
16:00:23.127023,-4
16:00:23.665241,-4
16:00:23.665241,767
16:00:23.665241,0
16:00:23.665241,0
16:00:23.665241,-512
16:00:23.665241,-1
16:00:23.665241,-14
16:00:23.665241,-15361
16:00:23.665241,-1
16:00:23.665241,-30
16:00:23.665241,-3073
16:00:23.665241,0
16:00:23.665241,708
16:00:23.665241,-7680
16:00:23.665241,3
16:00:23.665241,727
16:00:23.665241,-22016
16:00:23.665241,0
16:00:23.665241,-71
16:00:23.665241,-13569
16:00:23.665241,-1
16:00:23.665241,-94
16:00:23.665241,-31233
16:00:23.665241,-1
16:00:23.665241,-89
16:00:23.665241,-21505
16:00:23.665241,-1
16:00:23.665241,-99
16:00:23.665241,-22017
16:00:23.665241,-1
16:00:23.665241,-78
16:00:23.665241,-19713
16:00:23.665241,-1
16:00:23.665241,-71
16:00:23.665241,-16641
16:00:23.665241,-1
16:00:23.665241,-63
16:00:23.665241,-14849
16:00:23.665241,-1
16:00:23.665241,-54
16:00:23.665241,-9985
16:00:23.665241,-1
16:00:23.665241,-33
16:00:23.665241,-8193
16:00:23.665241,-1
16:00:23.665241,-21
16:00:23.665241,-3841
16:00:23.665241,-1
16:00:23.665241,-9
16:00:23.665241,-257
16:00:23.665241,-1
16:00:23.665241,2
16:00:23.665241,0
16:00:23.665241,0
16:00:23.665241,-4
16:00:23.665241,-2049
16:00:23.665241,-1
16:00:23.665241,-11
16:00:23.665241,-2561
16:00:23.665241,-1
16:00:23.665241,-21
16:00:23.665241,-6913
16:00:23.665241,-1
16:00:23.665241,-26
16:00:23.665241,-5121
16:00:23.665241,-1
16:00:23.665241,-28
16:00:23.665241,-7425
16:00:23.665241,-1
16:00:23.665241,-26
16:00:23.665241,-6401
16:00:23.665241,-1
16:00:23.665241,-26
16:00:23.665241,-6401
16:00:23.665241,-1
16:00:23.665241,-23
16:00:23.665241,-5121
16:00:23.665241,-1
16:00:23.665241,-26
16:00:23.665241,-5121
16:00:23.665241,-1
16:00:23.665241,-11
16:00:23.665241,-2049
16:00:23.665241,-1
16:00:23.665241,-16
16:00:23.665241,-3841
16:00:23.665241,-1
16:00:23.665241,-7
16:00:23.665241,-769
16:00:23.665241,-1
16:00:23.665241,-14
16:00:23.665241,-3841
16:00:23.665241,-1
16:00:23.665241,-21
16:00:23.665241,-6913
16:00:23.665241,-1
16:00:23.665241,-35
16:00:23.665241,-5121
16:00:23.665241,-1
16:00:23.665241,9
16:00:23.665241,6656
16:00:23.665241,0
16:00:23.665241,21
16:00:23.665241,3584
16:00:23.665241,0
16:00:23.665241,0
16:00:23.665241,-2304
16:00:23.665241,-1
16:00:23.665241,-16
16:00:24.296630,-18
16:00:24.296630,-2049
16:00:24.296630,-1
16:00:24.296630,-7
16:00:24.296630,-1537
16:00:24.296630,-1
16:00:24.296630,-2
16:00:24.296630,-7425
16:00:24.296630,-1
16:00:24.296630,-21
16:00:24.296630,-10241
16:00:24.296630,0
16:00:24.296630,660
16:00:24.296630,-24576
16:00:24.296630,3
16:00:24.296630,648
16:00:24.296630,30720
16:00:24.296630,0
16:00:24.296630,-73
16:00:24.296630,-12289
16:00:24.296630,-1
16:00:24.296630,-101
16:00:24.296630,-31745
16:00:24.296630,-1
16:00:24.296630,-92
16:00:24.296630,-23809
16:00:24.296630,-1
16:00:24.296630,-104
16:00:24.296630,-20737
16:00:24.296630,-1
16:00:24.296630,-73
16:00:24.296630,-18945
16:00:24.296630,-1
16:00:24.296630,-68
16:00:24.296630,-15873
16:00:24.296630,-1
16:00:24.296630,-59
16:00:24.296630,-14081
16:00:24.296630,-1
16:00:24.296630,-54
16:00:24.296630,-11777
16:00:24.296630,-1
16:00:24.296630,-42
16:00:24.296630,-8705
16:00:24.296630,-1
16:00:24.296630,-21
16:00:24.296630,-2561
16:00:24.296630,-1
16:00:24.296630,0
16:00:24.296630,1024
16:00:24.296630,0
16:00:24.296630,0
16:00:24.296630,-1024
16:00:24.296630,-1
16:00:24.296630,-9
16:00:24.296630,-2561
16:00:24.296630,-1
16:00:24.296630,-14
16:00:24.296630,-5633
16:00:24.296630,-1
16:00:24.296630,-33
16:00:24.296630,-9985
16:00:24.296630,-1
16:00:24.296630,-42
16:00:24.296630,-9985
16:00:24.296630,-1
16:00:24.296630,-40
16:00:24.296630,-9217
16:00:24.296630,-1
16:00:24.296630,-40
16:00:24.296630,-11777
16:00:24.296630,-1
16:00:24.296630,-40
16:00:24.296630,-7425
16:00:24.296630,-1
16:00:24.296630,-23
16:00:24.296630,-3841
16:00:24.296630,-1
16:00:24.296630,-11
16:00:24.296630,-2561
16:00:24.296630,-1
16:00:24.296630,-16
16:00:24.296630,-3329
16:00:24.296630,-1
16:00:24.296630,-4
16:00:24.296630,-257
16:00:24.296630,-1
16:00:24.296630,-9
16:00:24.296630,-3841
16:00:24.296630,-1
16:00:24.296630,-23
16:00:24.296630,-6913
16:00:24.296630,-1
16:00:24.296630,-30
16:00:24.296630,-8193
16:00:24.296630,-1
16:00:24.296630,-30
16:00:24.296630,-2561
16:00:24.296630,-1
16:00:24.296630,16
16:00:24.296630,7168
16:00:24.296630,0
16:00:24.296630,28
16:00:24.296630,3584
16:00:24.296630,0
16:00:24.296630,-9
16:00:24.296630,-3329
16:00:24.296630,-1
16:00:24.296630,-9
16:00:24.833973,-9
16:00:24.833973,-1537
16:00:24.833973,-1
16:00:24.833973,-9
16:00:24.833973,-2561
16:00:24.833973,-1
16:00:24.833973,-37
16:00:24.833973,-18433
16:00:24.833973,-1
16:00:24.833973,18
16:00:24.833973,28416
16:00:24.833973,1
16:00:24.833973,817
16:00:24.833973,-30720
16:00:24.833973,3
16:00:24.833973,442
16:00:24.833973,-2816
16:00:24.833973,-1
16:00:24.833973,-73
16:00:24.833973,-11777
16:00:24.833973,-1
16:00:24.833973,-101
16:00:24.833973,-28161
16:00:24.833973,-1
16:00:24.833973,-85
16:00:24.833973,-22529
16:00:24.833973,-1
16:00:24.833973,-94
16:00:24.833973,-20225
16:00:24.833973,-1
16:00:24.833973,-75
16:00:24.833973,-18945
16:00:24.833973,-1
16:00:24.833973,-68
16:00:24.833973,-15873
16:00:24.833973,-1
16:00:24.833973,-61
16:00:24.833973,-13569
16:00:24.833973,-1
16:00:24.833973,-47
16:00:24.833973,-11009
16:00:24.833973,-1
16:00:24.833973,-40
16:00:24.833973,-6913
16:00:24.833973,-1
16:00:24.833973,-11
16:00:24.833973,255
16:00:24.833973,0
16:00:24.833973,4
16:00:24.833973,512
16:00:24.833973,0
16:00:24.833973,0
16:00:24.833973,0
16:00:24.833973,0
16:00:24.833973,-2
16:00:24.833973,-257
16:00:24.833973,-1
16:00:24.833973,-4
16:00:24.833973,-3841
16:00:24.833973,-1
16:00:24.833973,-21
16:00:24.833973,-4353
16:00:24.833973,-1
16:00:24.833973,-16
16:00:24.833973,-5121
16:00:24.833973,-1
16:00:24.833973,-23
16:00:24.833973,-3841
16:00:24.833973,-1
16:00:24.833973,-11
16:00:24.833973,-2561
16:00:24.833973,-1
16:00:24.833973,-7
16:00:24.833973,-769
16:00:24.833973,-1
16:00:24.833973,0
16:00:24.833973,512
16:00:24.833973,0
16:00:24.833973,0
16:00:24.833973,1024
16:00:24.833973,0
16:00:24.833973,7
16:00:24.833973,1792
16:00:24.833973,0
16:00:24.833973,7
16:00:24.833973,0
16:00:24.833973,0
16:00:24.833973,-7
16:00:24.833973,-2049
16:00:24.833973,-1
16:00:24.833973,-14
16:00:24.833973,-3841
16:00:24.833973,-1
16:00:24.833973,-2
16:00:24.833973,6143
16:00:24.833973,0
16:00:24.833973,42
16:00:24.833973,12032
16:00:24.833973,0
16:00:24.833973,42
16:00:24.833973,5376
16:00:24.833973,0
16:00:24.833973,9
16:00:24.833973,1792
16:00:24.833973,0
16:00:24.833973,2
16:00:24.833973,1792
16:00:24.833973,0
16:00:24.833973,11
16:00:25.374955,11
16:00:25.374955,1792
16:00:25.374955,0
16:00:25.374955,-28
16:00:25.374955,-14081
16:00:25.374955,-1
16:00:25.374955,87
16:00:25.374955,-3840
16:00:25.374955,1
16:00:25.374955,937
16:00:25.374955,-29440
16:00:25.374955,3
16:00:25.374955,371
16:00:25.374955,-9472
16:00:25.374955,-1
16:00:25.374955,-56
16:00:25.374955,-11009
16:00:25.374955,-1
16:00:25.374955,-108
16:00:25.374955,-25089
16:00:25.374955,-1
16:00:25.374955,-68
16:00:25.374955,-20737
16:00:25.374955,-1
16:00:25.374955,-82
16:00:25.374955,-15873
16:00:25.374955,-1
16:00:25.374955,-63
16:00:25.374955,-15361
16:00:25.374955,-1
16:00:25.374955,-54
16:00:25.374955,-12289
16:00:25.374955,-1
16:00:25.374955,-44
16:00:25.374955,-10497
16:00:25.374955,-1
16:00:25.374955,-37
16:00:25.374955,-8193
16:00:25.374955,-1
16:00:25.374955,-26
16:00:25.374955,-3841
16:00:25.374955,-1
16:00:25.374955,-4
16:00:25.374955,767
16:00:25.374955,0
16:00:25.374955,9
16:00:25.374955,2816
16:00:25.374955,0
16:00:25.374955,14
16:00:25.374955,3584
16:00:25.374955,0
16:00:25.374955,11
16:00:25.374955,1792
16:00:25.374955,0
16:00:25.374955,2
16:00:25.374955,1792
16:00:25.374955,0
16:00:25.374955,4
16:00:25.374955,0
16:00:25.374955,0
16:00:25.374955,-4
16:00:25.374955,-1537
16:00:25.374955,-1
16:00:25.374955,-7
16:00:25.374955,-1537
16:00:25.374955,-1
16:00:25.374955,-7
16:00:25.374955,-257
16:00:25.374955,-1
16:00:25.374955,-2
16:00:25.374955,-257
16:00:25.374955,-1
16:00:25.374955,2
16:00:25.374955,512
16:00:25.374955,0
16:00:25.374955,0
16:00:25.374955,512
16:00:25.374955,0
16:00:25.374955,4
16:00:25.374955,1792
16:00:25.374955,0
16:00:25.374955,4
16:00:25.374955,1024
16:00:25.374955,0
16:00:25.374955,2
16:00:25.374955,-1792
16:00:25.374955,-1
16:00:25.374955,-9
16:00:25.374955,-3329
16:00:25.374955,-1
16:00:25.374955,-9
16:00:25.374955,3839
16:00:25.374955,0
16:00:25.374955,42
16:00:25.374955,13824
16:00:25.374955,0
16:00:25.374955,49
16:00:25.374955,8960
16:00:25.374955,0
16:00:25.374955,23
16:00:25.374955,2304
16:00:25.374955,0
16:00:25.374955,7
16:00:25.374955,3584
16:00:25.374955,0
16:00:25.374955,11
16:00:25.374955,3584
16:00:25.374955,0
16:00:25.374955,16
16:00:25.915002,-9
16:00:25.915002,-14081
16:00:25.915002,-1
16:00:25.915002,-2
16:00:25.915002,14079
16:00:25.915002,1
16:00:25.915002,783
16:00:25.915002,-11776
16:00:25.915002,3
16:00:25.915002,599
16:00:25.915002,20480
16:00:25.915002,0
16:00:25.915002,-56
16:00:25.915002,-9217
16:00:25.915002,-1
16:00:25.915002,-101
16:00:25.915002,-28161
16:00:25.915002,-1
16:00:25.915002,-75
16:00:25.915002,-20225
16:00:25.915002,-1
16:00:25.915002,-85
16:00:25.915002,-17921
16:00:25.915002,-1
16:00:25.915002,-66
16:00:25.915002,-17153
16:00:25.915002,-1
16:00:25.915002,-61
16:00:25.915002,-13057
16:00:25.915002,-1
16:00:25.915002,-49
16:00:25.915002,-11777
16:00:25.915002,-1
16:00:25.915002,-42
16:00:25.915002,-8705
16:00:25.915002,-1
16:00:25.915002,-23
16:00:25.915002,-4353
16:00:25.915002,-1
16:00:25.915002,-14
16:00:25.915002,255
16:00:25.915002,0
16:00:25.915002,4
16:00:25.915002,2304
16:00:25.915002,0
16:00:25.915002,14
16:00:25.915002,2816
16:00:25.915002,0
16:00:25.915002,7
16:00:25.915002,1024
16:00:25.915002,0
16:00:25.915002,2
16:00:25.915002,-512
16:00:25.915002,-1
16:00:25.915002,-9
16:00:25.915002,-2561
16:00:25.915002,-1
16:00:25.915002,-14
16:00:25.915002,-4353
16:00:25.915002,-1
16:00:25.915002,-18
16:00:25.915002,-4353
16:00:25.915002,-1
16:00:25.915002,-14
16:00:25.915002,-3329
16:00:25.915002,-1
16:00:25.915002,-18
16:00:25.915002,-4353
16:00:25.915002,-1
16:00:25.915002,-18
16:00:25.915002,-3329
16:00:25.915002,-1
16:00:25.915002,-4
16:00:25.915002,-2049
16:00:25.915002,-1
16:00:25.915002,-9
16:00:25.915002,-1537
16:00:25.915002,-1
16:00:25.915002,-7
16:00:25.915002,-1537
16:00:25.915002,-1
16:00:25.915002,-4
16:00:25.915002,-257
16:00:25.915002,-1
16:00:25.915002,-7
16:00:25.915002,-4353
16:00:25.915002,-1
16:00:25.915002,-21
16:00:25.915002,-5633
16:00:25.915002,-1
16:00:25.915002,-23
16:00:25.915002,-2561
16:00:25.915002,-1
16:00:25.915002,14
16:00:25.915002,9472
16:00:25.915002,0
16:00:25.915002,40
16:00:25.915002,6656
16:00:25.915002,0
16:00:25.915002,9
16:00:25.915002,-1024
16:00:25.915002,-1
16:00:25.915002,-9
16:00:25.915002,-769
16:00:25.915002,-1
16:00:25.915002,-2
16:00:25.915002,-257
16:00:25.915002,-1
16:00:25.915002,-2
16:00:26.545328,-11
16:00:26.545328,-13057
16:00:26.545328,-1
16:00:26.545328,-52
16:00:26.545328,-24065
16:00:26.545328,0
16:00:26.545328,610
16:00:26.545328,-14336
16:00:26.545328,3
16:00:26.545328,774
16:00:26.545328,-13568
16:00:26.545328,0
16:00:26.545328,-68
16:00:26.545328,-11777
16:00:26.545328,-1
16:00:26.545328,-87
16:00:26.545328,-31745
16:00:26.545328,-1
16:00:26.545328,-97
16:00:26.545328,-22529
16:00:26.545328,-1
16:00:26.545328,-97
16:00:26.545328,-20737
16:00:26.545328,-1
16:00:26.545328,-71
16:00:26.545328,-18945
16:00:26.545328,-1
16:00:26.545328,-73
16:00:26.545328,-14849
16:00:26.545328,-1
16:00:26.545328,-56
16:00:26.545328,-14081
16:00:26.545328,-1
16:00:26.545328,-49
16:00:26.545328,-9217
16:00:26.545328,-1
16:00:26.545328,-33
16:00:26.545328,-8193
16:00:26.545328,-1
16:00:26.545328,-23
16:00:26.545328,-1537
16:00:26.545328,-1
16:00:26.545328,2
16:00:26.545328,1792
16:00:26.545328,0
16:00:26.545328,4
16:00:26.545328,512
16:00:26.545328,0
16:00:26.545328,0
16:00:26.545328,-1024
16:00:26.545328,-1
16:00:26.545328,-2
16:00:26.545328,-1537
16:00:26.545328,-1
16:00:26.545328,-23
16:00:26.545328,-6401
16:00:26.545328,-1
16:00:26.545328,-26
16:00:26.545328,-6913
16:00:26.545328,-1
16:00:26.545328,-26
16:00:26.545328,-6913
16:00:26.545328,-1
16:00:26.545328,-30
16:00:26.545328,-7425
16:00:26.545328,-1
16:00:26.545328,-28
16:00:26.545328,-5633
16:00:26.545328,-1
16:00:26.545328,-18
16:00:26.545328,-2049
16:00:26.545328,-1
16:00:26.545328,-7
16:00:26.545328,-2561
16:00:26.545328,-1
16:00:26.545328,-11
16:00:26.545328,-2561
16:00:26.545328,-1
16:00:26.545328,-7
16:00:26.545328,255
16:00:26.545328,0
16:00:26.545328,-4
16:00:26.545328,-2049
16:00:26.545328,-1
16:00:26.545328,-9
16:00:26.545328,-2049
16:00:26.545328,-1
16:00:26.545328,-14
16:00:26.545328,-5633
16:00:26.545328,-1
16:00:26.545328,-26
16:00:26.545328,-7425
16:00:26.545328,-1
16:00:26.545328,-28
16:00:26.545328,-769
16:00:26.545328,-1
16:00:26.545328,23
16:00:26.545328,9472
16:00:26.545328,0
16:00:26.545328,33
16:00:26.545328,2304
16:00:26.545328,0
16:00:26.545328,-2
16:00:26.545328,-769
16:00:26.545328,-1
16:00:26.545328,-7
16:00:26.545328,-769
16:00:26.545328,-1
16:00:26.545328,-2
16:00:27.038309,-4
16:00:27.038309,-2049
16:00:27.038309,-1
16:00:27.038309,-35
16:00:27.038309,-15361
16:00:27.038309,-1
16:00:27.038309,61
16:00:27.038309,-19712
16:00:27.038309,1
16:00:27.038309,854
16:00:27.038309,21504
16:00:27.038309,3
16:00:27.038309,359
16:00:27.038309,-7680
16:00:27.038309,-1
16:00:27.038309,-61
16:00:27.038309,-17921
16:00:27.038309,-1
16:00:27.038309,-132
16:00:27.038309,-26881
16:00:27.038309,-1
16:00:27.038309,-61
16:00:27.038309,-16641
16:00:27.038309,-1
16:00:27.038309,-68
16:00:27.038309,-15361
16:00:27.038309,-1
16:00:27.038309,-59
16:00:27.038309,-14849
16:00:27.038309,-1
16:00:27.038309,-54
16:00:27.038309,-11777
16:00:27.038309,-1
16:00:27.038309,-42
16:00:27.038309,-9217
16:00:27.038309,-1
16:00:27.038309,-30
16:00:27.038309,-5633
16:00:27.038309,-1
16:00:27.038309,-14
16:00:27.038309,-769
16:00:27.038309,-1
16:00:27.038309,2
16:00:27.038309,2816
16:00:27.038309,0
16:00:27.038309,16
16:00:27.038309,5376
16:00:27.038309,0
16:00:27.038309,21
16:00:27.038309,2816
16:00:27.038309,0
16:00:27.038309,7
16:00:27.038309,1024
16:00:27.038309,0
16:00:27.038309,2
16:00:27.038309,0
16:00:27.038309,0
16:00:27.038309,-4
16:00:27.038309,-2049
16:00:27.038309,-1
16:00:27.038309,-11
16:00:27.038309,-4353
16:00:27.038309,-1
16:00:27.038309,-21
16:00:27.038309,-5121
16:00:27.038309,-1
16:00:27.038309,-16
16:00:27.038309,-2561
16:00:27.038309,-1
16:00:27.038309,-11
16:00:27.038309,-2049
16:00:27.038309,-1
16:00:27.038309,-2
16:00:27.038309,255
16:00:27.038309,0
16:00:27.038309,4
16:00:27.038309,1024
16:00:27.038309,0
16:00:27.038309,9
16:00:27.038309,2304
16:00:27.038309,0
16:00:27.038309,7
16:00:27.038309,2816
16:00:27.038309,0
16:00:27.038309,11
16:00:27.038309,2304
16:00:27.038309,0
16:00:27.038309,7
16:00:27.038309,-512
16:00:27.038309,-1
16:00:27.038309,-11
16:00:27.038309,-2561
16:00:27.038309,-1
16:00:27.038309,-14
16:00:27.038309,-2561
16:00:27.038309,-1
16:00:27.038309,9
16:00:27.038309,8960
16:00:27.038309,0
16:00:27.038309,47
16:00:27.038309,10752
16:00:27.038309,0
16:00:27.038309,26
16:00:27.038309,4096
16:00:27.038309,0
16:00:27.038309,16
16:00:27.038309,2816
16:00:27.038309,0
16:00:27.038309,9
16:00:27.624694,16
16:00:27.624694,3584
16:00:27.624694,0
16:00:27.624694,11
16:00:27.624694,-512
16:00:27.624694,-1
16:00:27.624694,-47
16:00:27.624694,6911
16:00:27.624694,0
16:00:27.624694,364
16:00:27.624694,19712
16:00:27.624694,3
16:00:27.624694,1039
16:00:27.624694,-32512
16:00:27.624694,2
16:00:27.624694,94
16:00:27.624694,-15104
16:00:27.624694,-1
16:00:27.624694,-37
16:00:27.624694,-23297
16:00:27.624694,-1
16:00:27.624694,-101
16:00:27.624694,-17153
16:00:27.624694,-1
16:00:27.624694,-71
16:00:27.624694,-19713
16:00:27.624694,-1
16:00:27.624694,-61
16:00:27.624694,-14849
16:00:27.624694,-1
16:00:27.624694,-61
16:00:27.624694,-11777
16:00:27.624694,-1
16:00:27.624694,-40
16:00:27.624694,-9985
16:00:27.624694,-1
16:00:27.624694,-35
16:00:27.624694,-8705
16:00:27.624694,-1
16:00:27.624694,-28
16:00:27.624694,-5121
16:00:27.624694,-1
16:00:27.624694,-14
16:00:27.624694,255
16:00:27.624694,0
16:00:27.624694,9
16:00:27.624694,4096
16:00:27.624694,0
16:00:27.624694,23
16:00:27.624694,6656
16:00:27.624694,0
16:00:27.624694,26
16:00:27.624694,5376
16:00:27.624694,0
16:00:27.624694,18
16:00:27.624694,3584
16:00:27.624694,0
16:00:27.624694,9
16:00:27.624694,512
16:00:27.624694,0
16:00:27.624694,0
16:00:27.624694,-1024
16:00:27.624694,-1
16:00:27.624694,-4
16:00:27.624694,-1537
16:00:27.624694,-1
16:00:27.624694,-4
16:00:27.624694,-257
16:00:27.624694,-1
16:00:27.624694,-2
16:00:27.624694,-257
16:00:27.624694,-1
16:00:27.624694,0
16:00:27.624694,0
16:00:27.624694,0
16:00:27.624694,2
16:00:27.624694,512
16:00:27.624694,0
16:00:27.624694,7
16:00:27.624694,1792
16:00:27.624694,0
16:00:27.624694,4
16:00:27.624694,2304
16:00:27.624694,0
16:00:27.624694,11
16:00:27.624694,2816
16:00:27.624694,0
16:00:27.624694,14
16:00:27.624694,3584
16:00:27.624694,0
16:00:27.624694,9
16:00:27.624694,1024
16:00:27.624694,0
16:00:27.624694,0
16:00:27.624694,-512
16:00:27.624694,-1
16:00:27.624694,-4
16:00:27.624694,2047
16:00:27.624694,0
16:00:27.624694,30
16:00:27.624694,13312
16:00:27.624694,0
16:00:27.624694,59
16:00:27.624694,12544
16:00:27.624694,0
16:00:27.624694,30
16:00:27.624694,4608
16:00:27.624694,0
16:00:27.624694,11
16:00:28.255008,16
16:00:28.255008,7168
16:00:28.255008,0
16:00:28.255008,28
16:00:28.255008,7168
16:00:28.255008,0
16:00:28.255008,16
16:00:28.255008,-4608
16:00:28.255008,-1
16:00:28.255008,-37
16:00:28.255008,32255
16:00:28.255008,0
16:00:28.255008,570
16:00:28.255008,-4096
16:00:28.255008,3
16:00:28.255008,930
16:00:28.255008,28928
16:00:28.255008,1
16:00:28.255008,-18
16:00:28.255008,-11777
16:00:28.255008,-1
16:00:28.255008,-61
16:00:28.255008,-28161
16:00:28.255008,-1
16:00:28.255008,-94
16:00:28.255008,-18945
16:00:28.255008,-1
16:00:28.255008,-82
16:00:28.255008,-18945
16:00:28.255008,-1
16:00:28.255008,-66
16:00:28.255008,-15361
16:00:28.255008,-1
16:00:28.255008,-61
16:00:28.255008,-14081
16:00:28.255008,-1
16:00:28.255008,-52
16:00:28.255008,-12289
16:00:28.255008,-1
16:00:28.255008,-42
16:00:28.255008,-9985
16:00:28.255008,-1
16:00:28.255008,-40
16:00:28.255008,-7425
16:00:28.255008,-1
16:00:28.255008,-23
16:00:28.255008,-2561
16:00:28.255008,-1
16:00:28.255008,0
16:00:28.255008,1024
16:00:28.255008,0
16:00:28.255008,11
16:00:28.255008,3584
16:00:28.255008,0
16:00:28.255008,7
16:00:28.255008,1024
16:00:28.255008,0
16:00:28.255008,0
16:00:28.255008,-1024
16:00:28.255008,-1
16:00:28.255008,-14
16:00:28.255008,-4353
16:00:28.255008,-1
16:00:28.255008,-21
16:00:28.255008,-5121
16:00:28.255008,-1
16:00:28.255008,-18
16:00:28.255008,-5121
16:00:28.255008,-1
16:00:28.255008,-21
16:00:28.255008,-5633
16:00:28.255008,-1
16:00:28.255008,-28
16:00:28.255008,-5633
16:00:28.255008,-1
16:00:28.255008,-18
16:00:28.255008,-5121
16:00:28.255008,-1
16:00:28.255008,-16
16:00:28.255008,-3329
16:00:28.255008,-1
16:00:28.255008,-21
16:00:28.255008,-3841
16:00:28.255008,-1
16:00:28.255008,-7
16:00:28.255008,-1537
16:00:28.255008,-1
16:00:28.255008,-9
16:00:28.255008,-1537
16:00:28.255008,-1
16:00:28.255008,-9
16:00:28.255008,-2561
16:00:28.255008,-1
16:00:28.255008,-11
16:00:28.255008,-3329
16:00:28.255008,-1
16:00:28.255008,-23
16:00:28.255008,-5633
16:00:28.255008,-1
16:00:28.255008,-18
16:00:28.255008,-4353
16:00:28.255008,-1
16:00:28.255008,-11
16:00:28.255008,2559
16:00:28.255008,0
16:00:28.255008,30
16:00:28.255008,9472
16:00:28.255008,0
16:00:28.255008,23
16:00:28.751088,9
16:00:28.751088,512
16:00:28.751088,0
16:00:28.751088,-2
16:00:28.751088,-257
16:00:28.751088,-1
16:00:28.751088,0
16:00:28.751088,512
16:00:28.751088,0
16:00:28.751088,4
16:00:28.751088,-1024
16:00:28.751088,-1
16:00:28.751088,-42
16:00:28.751088,-15361
16:00:28.751088,-1
16:00:28.751088,106
16:00:28.751088,2048
16:00:28.751088,2
16:00:28.751088,914
16:00:28.751088,14336
16:00:28.751088,3
16:00:28.751088,281
16:00:28.751088,-17408
16:00:28.751088,-1
16:00:28.751088,-68
16:00:28.751088,-18945
16:00:28.751088,-1
16:00:28.751088,-111
16:00:28.751088,-23809
16:00:28.751088,-1
16:00:28.751088,-87
16:00:28.751088,-23809
16:00:28.751088,-1
16:00:28.751088,-87
16:00:28.751088,-19713
16:00:28.751088,-1
16:00:28.751088,-75
16:00:28.751088,-18945
16:00:28.751088,-1
16:00:28.751088,-68
16:00:28.751088,-15361
16:00:28.751088,-1
16:00:28.751088,-56
16:00:28.751088,-13057
16:00:28.751088,-1
16:00:28.751088,-49
16:00:28.751088,-11009
16:00:28.751088,-1
16:00:28.751088,-37
16:00:28.751088,-6913
16:00:28.751088,-1
16:00:28.751088,-9
16:00:28.751088,-257
16:00:28.751088,-1
16:00:28.751088,0
16:00:28.751088,1024
16:00:28.751088,0
16:00:28.751088,4
16:00:28.751088,0
16:00:28.751088,0
16:00:28.751088,-4
16:00:28.751088,-2049
16:00:28.751088,-1
16:00:28.751088,-9
16:00:28.751088,-3329
16:00:28.751088,-1
16:00:28.751088,-21
16:00:28.751088,-6913
16:00:28.751088,-1
16:00:28.751088,-30
16:00:28.751088,-6913
16:00:28.751088,-1
16:00:28.751088,-37
16:00:28.751088,-9217
16:00:28.751088,-1
16:00:28.751088,-30
16:00:28.751088,-8705
16:00:28.751088,-1
16:00:28.751088,-30
16:00:28.751088,-5121
16:00:28.751088,-1
16:00:28.751088,-16
16:00:28.751088,-3841
16:00:28.751088,-1
16:00:28.751088,-16
16:00:28.751088,-2049
16:00:28.751088,-1
16:00:28.751088,0
16:00:28.751088,0
16:00:28.751088,0
16:00:28.751088,2
16:00:28.751088,0
16:00:28.751088,0
16:00:28.751088,-7
16:00:28.751088,-769
16:00:28.751088,-1
16:00:28.751088,2
16:00:28.751088,-512
16:00:28.751088,-1
16:00:28.751088,-7
16:00:28.751088,-1537
16:00:28.751088,-1
16:00:28.751088,-11
16:00:28.751088,-5121
16:00:28.751088,-1
16:00:28.751088,-18
16:00:28.751088,-4353
16:00:28.751088,-1
16:00:28.751088,-18
16:00:29.289975,9
16:00:29.289975,9472
16:00:29.289975,0
16:00:29.289975,44
16:00:29.289975,9472
16:00:29.289975,0
16:00:29.289975,18
16:00:29.289975,1792
16:00:29.289975,0
16:00:29.289975,7
16:00:29.289975,1024
16:00:29.289975,0
16:00:29.289975,11
16:00:29.289975,7168
16:00:29.289975,0
16:00:29.289975,33
16:00:29.289975,1792
16:00:29.289975,0
16:00:29.289975,-35
16:00:29.289975,-4353
16:00:29.289975,-1
16:00:29.289975,210
16:00:29.289975,-27648
16:00:29.289975,2
16:00:29.289975,968
16:00:29.289975,-13568
16:00:29.289975,2
16:00:29.289975,165
16:00:29.289975,-17408
16:00:29.289975,-1
16:00:29.289975,-47
16:00:29.289975,-23297
16:00:29.289975,-1
16:00:29.289975,-130
16:00:29.289975,-23809
16:00:29.289975,-1
16:00:29.289975,-82
16:00:29.289975,-24577
16:00:29.289975,-1
16:00:29.289975,-85
16:00:29.289975,-17921
16:00:29.289975,-1
16:00:29.289975,-75
16:00:29.289975,-18433
16:00:29.289975,-1
16:00:29.289975,-66
16:00:29.289975,-15361
16:00:29.289975,-1
16:00:29.289975,-54
16:00:29.289975,-12289
16:00:29.289975,-1
16:00:29.289975,-42
16:00:29.289975,-8193
16:00:29.289975,-1
16:00:29.289975,-23
16:00:29.289975,-3841
16:00:29.289975,-1
16:00:29.289975,-2
16:00:29.289975,2559
16:00:29.289975,0
16:00:29.289975,14
16:00:29.289975,3584
16:00:29.289975,0
16:00:29.289975,7
16:00:29.289975,1024
16:00:29.289975,0
16:00:29.289975,11
16:00:29.289975,2304
16:00:29.289975,0
16:00:29.289975,0
16:00:29.289975,-1024
16:00:29.289975,-1
16:00:29.289975,-11
16:00:29.289975,-3841
16:00:29.289975,-1
16:00:29.289975,-14
16:00:29.289975,-769
16:00:29.289975,-1
16:00:29.289975,-7
16:00:29.289975,-4353
16:00:29.289975,-1
16:00:29.289975,-11
16:00:29.289975,-257
16:00:29.289975,-1
16:00:29.289975,-9
16:00:29.289975,-2049
16:00:29.289975,-1
16:00:29.289975,2
16:00:29.289975,2304
16:00:29.289975,0
16:00:29.289975,9
16:00:29.289975,1024
16:00:29.289975,0
16:00:29.289975,9
16:00:29.289975,3584
16:00:29.289975,0
16:00:29.289975,18
16:00:29.289975,5888
16:00:29.289975,0
16:00:29.289975,28
16:00:29.289975,7168
16:00:29.289975,0
16:00:29.289975,23
16:00:29.289975,3584
16:00:29.289975,0
16:00:29.289975,18
16:00:29.289975,5888
16:00:29.289975,0
16:00:29.289975,21
16:00:29.875272,18
16:00:29.875272,4096
16:00:29.875272,0
16:00:29.875272,11
16:00:29.875272,1024
16:00:29.875272,0
16:00:29.875272,7
16:00:29.875272,8960
16:00:29.875272,0
16:00:29.875272,75
16:00:29.875272,24064
16:00:29.875272,0
16:00:29.875272,80
16:00:29.875272,15616
16:00:29.875272,0
16:00:29.875272,54
16:00:29.875272,12544
16:00:29.875272,0
16:00:29.875272,42
16:00:29.875272,10240
16:00:29.875272,0
16:00:29.875272,40
16:00:29.875272,9472
16:00:29.875272,0
16:00:29.875272,35
16:00:29.875272,3584
16:00:29.875272,0
16:00:29.875272,-23
16:00:29.875272,10495
16:00:29.875272,0
16:00:29.875272,364
16:00:29.875272,19712
16:00:29.875272,3
16:00:29.875272,1020
16:00:29.875272,24064
16:00:29.875272,2
16:00:29.875272,73
16:00:29.875272,-17408
16:00:29.875272,-1
16:00:29.875272,-42
16:00:29.875272,-25089
16:00:29.875272,-1
16:00:29.875272,-106
16:00:29.875272,-16641
16:00:29.875272,-1
16:00:29.875272,-73
16:00:29.875272,-20737
16:00:29.875272,-1
16:00:29.875272,-71
16:00:29.875272,-16641
16:00:29.875272,-1
16:00:29.875272,-59
16:00:29.875272,-11777
16:00:29.875272,-1
16:00:29.875272,-42
16:00:29.875272,-10497
16:00:29.875272,-1
16:00:29.875272,-35
16:00:29.875272,-6913
16:00:29.875272,-1
16:00:29.875272,-30
16:00:29.875272,-5633
16:00:29.875272,-1
16:00:29.875272,-14
16:00:29.875272,-769
16:00:29.875272,-1
16:00:29.875272,16
16:00:29.875272,8448
16:00:29.875272,0
16:00:29.875272,33
16:00:29.875272,10240
16:00:29.875272,0
16:00:29.875272,37
16:00:29.875272,7680
16:00:29.875272,0
16:00:29.875272,30
16:00:29.875272,7168
16:00:29.875272,0
16:00:29.875272,23
16:00:29.875272,5376
16:00:29.875272,0
16:00:29.875272,14
16:00:29.875272,1024
16:00:29.875272,0
16:00:29.875272,0
16:00:29.875272,1792
16:00:29.875272,0
16:00:29.875272,16
16:00:29.875272,4096
16:00:29.875272,0
16:00:29.875272,14
16:00:29.875272,3584
16:00:29.875272,0
16:00:29.875272,16
16:00:29.875272,4096
16:00:29.875272,0
16:00:29.875272,18
16:00:29.875272,5888
16:00:29.875272,0
16:00:29.875272,21
16:00:29.875272,4096
16:00:29.875272,0
16:00:29.875272,23
16:00:29.875272,6656
16:00:29.875272,0
16:00:29.875272,28
16:00:29.875272,8448
16:00:29.875272,0
16:00:29.875272,37
16:00:30.413912,35
16:00:30.413912,7680
16:00:30.413912,0
16:00:30.413912,30
16:00:30.413912,7680
16:00:30.413912,0
16:00:30.413912,23
16:00:30.413912,4096
16:00:30.413912,0
16:00:30.413912,14
16:00:30.413912,2816
16:00:30.413912,0
16:00:30.413912,9
16:00:30.413912,4608
16:00:30.413912,0
16:00:30.413912,33
16:00:30.413912,7168
16:00:30.413912,0
16:00:30.413912,40
16:00:30.413912,16128
16:00:30.413912,0
16:00:30.413912,68
16:00:30.413912,15104
16:00:30.413912,0
16:00:30.413912,47
16:00:30.413912,7680
16:00:30.413912,0
16:00:30.413912,16
16:00:30.413912,2304
16:00:30.413912,0
16:00:30.413912,16
16:00:30.413912,5888
16:00:30.413912,0
16:00:30.413912,16
16:00:30.413912,512
16:00:30.413912,0
16:00:30.413912,-37
16:00:30.413912,-13057
16:00:30.413912,-1
16:00:30.413912,144
16:00:30.413912,20992
16:00:30.413912,2
16:00:30.413912,980
16:00:30.413912,20224
16:00:30.413912,3
16:00:30.413912,279
16:00:30.413912,-18688
16:00:30.413912,-1
16:00:30.413912,-87
16:00:30.413912,-25089
16:00:30.413912,-1
16:00:30.413912,-144
16:00:30.413912,-31745
16:00:30.413912,-1
16:00:30.413912,-106
16:00:30.413912,-28161
16:00:30.413912,-1
16:00:30.413912,-99
16:00:30.413912,-21505
16:00:30.413912,-1
16:00:30.413912,-92
16:00:30.413912,-23809
16:00:30.413912,-1
16:00:30.413912,-87
16:00:30.413912,-20737
16:00:30.413912,-1
16:00:30.413912,-73
16:00:30.413912,-17153
16:00:30.413912,-1
16:00:30.413912,-66
16:00:30.413912,-15873
16:00:30.413912,-1
16:00:30.413912,-54
16:00:30.413912,-9985
16:00:30.413912,-1
16:00:30.413912,-28
16:00:30.413912,-5121
16:00:30.413912,-1
16:00:30.413912,-14
16:00:30.413912,-2561
16:00:30.413912,-1
16:00:30.413912,-16
16:00:30.413912,-5121
16:00:30.413912,-1
16:00:30.413912,-21
16:00:30.413912,-4353
16:00:30.413912,-1
16:00:30.413912,-26
16:00:30.413912,-8705
16:00:30.413912,-1
16:00:30.413912,-40
16:00:30.413912,-10497
16:00:30.413912,-1
16:00:30.413912,-42
16:00:30.413912,-10497
16:00:30.413912,-1
16:00:30.413912,-42
16:00:30.413912,-10497
16:00:30.413912,-1
16:00:30.413912,-44
16:00:30.413912,-10497
16:00:30.413912,-1
16:00:30.413912,-44
16:00:30.413912,-10497
16:00:30.413912,-1
16:00:30.413912,-33
16:00:30.413912,-8193
16:00:30.413912,-1
16:00:30.413912,-33
16:00:31.001923,-26
16:00:31.001923,-5121
16:00:31.001923,-1
16:00:31.001923,-18
16:00:31.001923,-3841
16:00:31.001923,-1
16:00:31.001923,-16
16:00:31.001923,-2561
16:00:31.001923,-1
16:00:31.001923,-7
16:00:31.001923,2047
16:00:31.001923,0
16:00:31.001923,9
16:00:31.001923,0
16:00:31.001923,0
16:00:31.001923,-4
16:00:31.001923,-2049
16:00:31.001923,-1
16:00:31.001923,-21
16:00:31.001923,-5121
16:00:31.001923,-1
16:00:31.001923,-21
16:00:31.001923,-3329
16:00:31.001923,-1
16:00:31.001923,4
16:00:31.001923,5376
16:00:31.001923,0
16:00:31.001923,28
16:00:31.001923,5888
16:00:31.001923,0
16:00:31.001923,2
16:00:31.001923,-2304
16:00:31.001923,-1
16:00:31.001923,-14
16:00:31.001923,-3841
16:00:31.001923,-1
16:00:31.001923,-11
16:00:31.001923,-2561
16:00:31.001923,-1
16:00:31.001923,-14
16:00:31.001923,-5121
16:00:31.001923,-1
16:00:31.001923,-54
16:00:31.001923,-17153
16:00:31.001923,-1
16:00:31.001923,101
16:00:31.001923,-256
16:00:31.001923,1
16:00:31.001923,895
16:00:31.001923,8704
16:00:31.001923,3
16:00:31.001923,260
16:00:31.001923,-20480
16:00:31.001923,-1
16:00:31.001923,-71
16:00:31.001923,-25089
16:00:31.001923,-1
16:00:31.001923,-161
16:00:31.001923,32511
16:00:31.001923,-1
16:00:31.001923,-106
16:00:31.001923,-31233
16:00:31.001923,-1
16:00:31.001923,-118
16:00:31.001923,-25601
16:00:31.001923,-1
16:00:31.001923,-99
16:00:31.001923,-25089
16:00:31.001923,-1
16:00:31.001923,-94
16:00:31.001923,-22529
16:00:31.001923,-1
16:00:31.001923,-89
16:00:31.001923,-18945
16:00:31.001923,-1
16:00:31.001923,-71
16:00:31.001923,-18433
16:00:31.001923,-1
16:00:31.001923,-63
16:00:31.001923,-12289
16:00:31.001923,-1
16:00:31.001923,-42
16:00:31.001923,-8705
16:00:31.001923,-1
16:00:31.001923,-23
16:00:31.001923,-3841
16:00:31.001923,-1
16:00:31.001923,-21
16:00:31.001923,-6913
16:00:31.001923,-1
16:00:31.001923,-37
16:00:31.001923,-11777
16:00:31.001923,-1
16:00:31.001923,-49
16:00:31.001923,-13569
16:00:31.001923,-1
16:00:31.001923,-66
