timestamp,ecg
17:26:18.948011,9
17:26:18.948011,1024
17:26:18.948011,0
17:26:18.948011,-26
17:26:18.948011,-3841
17:26:18.948011,-1
17:26:18.948011,7
17:26:18.948011,1792
17:26:18.948011,0
17:26:18.948011,2
17:26:18.948011,1024
17:26:18.948011,0
17:26:18.948011,0
17:26:18.948011,2816
17:26:18.948011,0
17:26:18.948011,35
17:26:18.948011,8960
17:26:18.948011,0
17:26:18.948011,7
17:26:18.948011,5376
17:26:18.948011,0
17:26:18.948011,73
17:26:18.948011,14336
17:26:18.948011,0
17:26:18.948011,37
17:26:18.948011,16896
17:26:18.948011,0
17:26:18.948011,61
17:26:18.948011,10752
17:26:18.948011,0
17:26:18.948011,35
17:26:18.948011,4608
17:26:18.948011,0
17:26:18.948011,28
17:26:18.948011,13312
17:26:18.948011,0
17:26:18.948011,23
17:26:18.948011,5888
17:26:18.948011,0
17:26:18.948011,78
17:26:18.948011,17408
17:26:18.948011,0
17:26:18.948011,35
17:26:18.948011,10240
17:26:18.948011,0
17:26:18.948011,30
17:26:18.948011,-1024
17:26:18.948011,-1
17:26:18.948011,-16
17:26:18.948011,-1537
17:26:18.948011,-1
17:26:18.948011,-26
17:26:18.948011,-6401
17:26:18.948011,-1
17:26:18.948011,37
17:26:18.948011,18176
17:26:18.948011,0
17:26:18.948011,33
17:26:18.948011,512
17:26:18.948011,0
17:26:18.948011,28
17:26:18.948011,12032
17:26:18.948011,0
17:26:18.948011,21
17:26:18.948011,1024
17:26:18.948011,0
17:26:18.948011,9
17:26:18.948011,2304
17:26:18.948011,0
17:26:18.948011,-23
17:26:18.948011,22271
17:26:18.948011,-1
17:26:18.948011,-291
17:26:18.948011,-3329
17:26:18.948011,-1
17:26:18.948011,658
17:26:18.948011,14080
17:26:18.948011,4
17:26:18.948011,753
17:26:18.948011,-16640
17:26:18.948011,0
17:26:18.948011,35
17:26:18.948011,10240
17:26:18.948011,0
17:26:18.948011,-42
17:26:18.948011,-17921
17:26:18.948011,-1
17:26:18.948011,-49
17:26:18.948011,-14081
17:26:18.948011,-1
17:26:18.948011,-73
17:26:18.948011,-18945
17:26:18.948011,-1
17:26:18.948011,-44
17:26:18.948011,-4353
17:26:18.948011,-1
17:26:18.948011,-30
17:26:18.948011,-9217
17:26:18.948011,-1
17:26:18.948011,-26
17:26:18.948011,-4353
17:26:18.948011,-1
17:26:18.948011,-28
17:26:18.948011,-8705
17:26:18.948011,-1
17:26:18.948011,-11
17:26:18.948011,8703
17:26:18.948011,0
17:26:18.948011,59
17:26:19.345697,54
17:26:19.345697,13824
17:26:19.345697,0
17:26:19.345697,71
17:26:19.345697,19968
17:26:19.345697,0
17:26:19.345697,71
17:26:19.345697,20992
17:26:19.345697,0
17:26:19.345697,118
17:26:19.345697,31488
17:26:19.345697,0
17:26:19.345697,94
17:26:19.345697,24832
17:26:19.345697,0
17:26:19.345697,92
17:26:19.345697,10752
17:26:19.345697,0
17:26:19.345697,16
17:26:19.345697,2816
17:26:19.345697,0
17:26:19.345697,-9
17:26:19.345697,-4353
17:26:19.345697,-1
17:26:19.345697,-11
17:26:19.345697,-1537
17:26:19.345697,-1
17:26:19.345697,-9
17:26:19.345697,255
17:26:19.345697,0
17:26:19.345697,18
17:26:19.345697,8448
17:26:19.345697,0
17:26:19.345697,37
17:26:19.345697,8960
17:26:19.345697,0
17:26:19.345697,49
17:26:19.345697,19968
17:26:19.345697,0
17:26:19.345697,82
17:26:19.345697,19200
17:26:19.345697,0
17:26:19.345697,92
17:26:19.345697,32000
17:26:19.345697,0
17:26:19.345697,149
17:26:19.345697,-32256
17:26:19.345697,0
17:26:19.345697,108
17:26:19.345697,28416
17:26:19.345697,0
17:26:19.345697,101
17:26:19.345697,24064
17:26:19.345697,0
17:26:19.345697,104
17:26:19.345697,27136
17:26:19.345697,0
17:26:19.345697,111
17:26:19.345697,27648
17:26:19.345697,0
17:26:19.345697,87
17:26:19.345697,21760
17:26:19.345697,0
17:26:19.345697,106
17:26:19.345697,24832
17:26:19.345697,0
17:26:19.345697,71
17:26:19.345697,19200
17:26:19.345697,0
17:26:19.345697,82
17:26:19.345697,13312
17:26:19.345697,0
17:26:19.345697,30
17:26:19.345697,10752
17:26:19.345697,0
17:26:19.345697,42
17:26:19.345697,4608
17:26:19.345697,0
17:26:19.345697,28
17:26:19.345697,17408
17:26:19.345697,0
17:26:19.345697,89
17:26:19.345697,20480
17:26:19.345697,0
17:26:19.345697,66
17:26:19.345697,12544
17:26:19.345697,0
17:26:19.345697,44
17:26:19.345697,13824
17:26:19.345697,0
17:26:19.345697,59
17:26:19.345697,13312
17:26:19.345697,0
17:26:19.345697,44
17:26:19.345697,10240
17:26:19.345697,0
17:26:19.345697,-9
17:26:19.345697,21759
17:26:19.345697,-1
17:26:19.345697,-241
17:26:19.345697,-31489
17:26:19.345697,0
17:26:19.345697,779
17:26:19.345697,-11776
17:26:19.345697,3
17:26:19.345697,523
17:26:19.345697,32512
17:26:19.345697,0
17:26:19.345697,89
17:26:19.886733,37
17:26:19.886733,-10240
17:26:19.886733,-1
17:26:19.886733,-33
17:26:19.886733,-8705
17:26:19.886733,-1
17:26:19.886733,-59
17:26:19.886733,-15361
17:26:19.886733,-1
17:26:19.886733,-44
17:26:19.886733,-8705
17:26:19.886733,-1
17:26:19.886733,-37
17:26:19.886733,-8705
17:26:19.886733,-1
17:26:19.886733,-16
17:26:19.886733,-769
17:26:19.886733,-1
17:26:19.886733,-7
17:26:19.886733,255
17:26:19.886733,0
17:26:19.886733,11
17:26:19.886733,4608
17:26:19.886733,0
17:26:19.886733,18
17:26:19.886733,7680
17:26:19.886733,0
17:26:19.886733,49
17:26:19.886733,15616
17:26:19.886733,0
17:26:19.886733,66
17:26:19.886733,20480
17:26:19.886733,0
17:26:19.886733,104
17:26:19.886733,29696
17:26:19.886733,0
17:26:19.886733,111
17:26:19.886733,28416
17:26:19.886733,0
17:26:19.886733,116
17:26:19.886733,23552
17:26:19.886733,0
17:26:19.886733,54
17:26:19.886733,5888
17:26:19.886733,0
17:26:19.886733,2
17:26:19.886733,-5376
17:26:19.886733,-1
17:26:19.886733,-40
17:26:19.886733,-10497
17:26:19.886733,-1
17:26:19.886733,-37
17:26:19.886733,-7425
17:26:19.886733,-1
17:26:19.886733,-30
17:26:19.886733,-8705
17:26:19.886733,-1
17:26:19.886733,-40
17:26:19.886733,-10497
17:26:19.886733,-1
17:26:19.886733,-33
17:26:19.886733,-3841
17:26:19.886733,-1
17:26:19.886733,-7
17:26:19.886733,-3329
17:26:19.886733,-1
17:26:19.886733,-26
17:26:19.886733,-2561
17:26:19.886733,-1
17:26:19.886733,14
17:26:19.886733,2304
17:26:19.886733,0
17:26:19.886733,-4
17:26:19.886733,2047
17:26:19.886733,0
17:26:19.886733,18
17:26:19.886733,4608
17:26:19.886733,0
17:26:19.886733,21
17:26:19.886733,4608
17:26:19.886733,0
17:26:19.886733,9
17:26:19.886733,3584
17:26:19.886733,0
17:26:19.886733,28
17:26:19.886733,3584
17:26:19.886733,0
17:26:19.886733,-4
17:26:19.886733,2047
17:26:19.886733,0
17:26:19.886733,18
17:26:19.886733,3584
17:26:19.886733,0
17:26:19.886733,26
17:26:19.886733,10240
17:26:19.886733,0
17:26:19.886733,18
17:26:19.886733,2304
17:26:19.886733,0
17:26:19.886733,35
17:26:19.886733,4096
17:26:19.886733,0
17:26:19.886733,-26
17:26:19.886733,-2561
17:26:19.886733,-1
17:26:19.886733,-2
17:26:19.886733,2047
17:26:19.886733,0
17:26:19.886733,59
17:26:20.428667,47
17:26:20.428667,-11264
17:26:20.428667,-1
17:26:20.428667,-127
17:26:20.428667,-29953
17:26:20.428667,-1
17:26:20.428667,-33
17:26:20.428667,767
17:26:20.428667,0
17:26:20.428667,0
17:26:20.428667,8960
17:26:20.428667,0
17:26:20.428667,66
17:26:20.428667,512
17:26:20.428667,0
17:26:20.428667,-201
17:26:20.428667,-11777
17:26:20.428667,-2
17:26:20.428667,106
17:26:20.428667,-32000
17:26:20.428667,3
17:26:20.428667,1252
17:26:20.428667,-5120
17:26:20.428667,2
17:26:20.428667,158
17:26:20.428667,16128
17:26:20.428667,0
17:26:20.428667,54
17:26:20.428667,-13824
17:26:20.428667,-1
17:26:20.428667,-59
17:26:20.428667,-3841
17:26:20.428667,-1
17:26:20.428667,-42
17:26:20.428667,-16641
17:26:20.428667,-1
17:26:20.428667,-54
17:26:20.428667,-11009
17:26:20.428667,-1
17:26:20.428667,-47
17:26:20.428667,-11009
17:26:20.428667,-1
17:26:20.428667,-44
17:26:20.428667,-12289
17:26:20.428667,-1
17:26:20.428667,-44
17:26:20.428667,-8193
17:26:20.428667,-1
17:26:20.428667,-26
17:26:20.428667,-8193
17:26:20.428667,-1
17:26:20.428667,-21
17:26:20.428667,767
17:26:20.428667,0
17:26:20.428667,-2
17:26:20.428667,-257
17:26:20.428667,-1
17:26:20.428667,23
17:26:20.428667,9472
17:26:20.428667,0
17:26:20.428667,30
17:26:20.428667,12544
17:26:20.428667,0
17:26:20.428667,78
17:26:20.428667,18688
17:26:20.428667,0
17:26:20.428667,56
17:26:20.428667,10752
17:26:20.428667,0
17:26:20.428667,7
17:26:20.428667,-5376
17:26:20.428667,-1
17:26:20.428667,-28
17:26:20.428667,-13057
17:26:20.428667,-1
17:26:20.428667,-73
17:26:20.428667,-18945
17:26:20.428667,-1
17:26:20.428667,-89
17:26:20.428667,-25601
17:26:20.428667,-1
17:26:20.428667,-89
17:26:20.428667,-21505
17:26:20.428667,-1
17:26:20.428667,-94
17:26:20.428667,-23297
17:26:20.428667,-1
17:26:20.428667,-78
17:26:20.428667,-17153
17:26:20.428667,-1
17:26:20.428667,-54
17:26:20.428667,-11009
17:26:20.428667,-1
17:26:20.428667,-44
17:26:20.428667,-9985
17:26:20.428667,-1
17:26:20.428667,-23
17:26:20.428667,-6913
17:26:20.428667,-1
17:26:20.428667,-26
17:26:20.428667,-2049
17:26:20.428667,-1
17:26:20.428667,-2
17:26:20.428667,255
17:26:20.428667,0
17:26:20.428667,4
17:26:20.428667,1792
17:26:20.428667,0
17:26:20.428667,9
17:26:21.014827,11
17:26:21.014827,4096
17:26:21.014827,0
17:26:21.014827,18
17:26:21.014827,5376
17:26:21.014827,0
17:26:21.014827,33
17:26:21.014827,13312
17:26:21.014827,0
17:26:21.014827,61
17:26:21.014827,15104
17:26:21.014827,0
17:26:21.014827,49
17:26:21.014827,13312
17:26:21.014827,0
17:26:21.014827,54
17:26:21.014827,10752
17:26:21.014827,0
17:26:21.014827,23
17:26:21.014827,1792
17:26:21.014827,0
17:26:21.014827,-2
17:26:21.014827,2047
17:26:21.014827,0
17:26:21.014827,42
17:26:21.014827,19200
17:26:21.014827,0
17:26:21.014827,63
17:26:21.014827,5888
17:26:21.014827,0
17:26:21.014827,4
17:26:21.014827,512
17:26:21.014827,0
17:26:21.014827,-4
17:26:21.014827,-3841
17:26:21.014827,-1
17:26:21.014827,-16
17:26:21.014827,-5633
17:26:21.014827,-1
17:26:21.014827,-33
17:26:21.014827,-15361
17:26:21.014827,-1
17:26:21.014827,-194
17:26:21.014827,-15873
17:26:21.014827,-2
17:26:21.014827,-54
17:26:21.014827,32255
17:26:21.014827,2
17:26:21.014827,1129
17:26:21.014827,17152
17:26:21.014827,3
17:26:21.014827,191
17:26:21.014827,-10240
17:26:21.014827,-1
17:26:21.014827,-2
17:26:21.014827,-19713
17:26:21.014827,-1
17:26:21.014827,-134
17:26:21.014827,-25089
17:26:21.014827,-1
17:26:21.014827,-99
17:26:21.014827,-29953
17:26:21.014827,-1
17:26:21.014827,-108
17:26:21.014827,-24577
17:26:21.014827,-1
17:26:21.014827,-104
17:26:21.014827,-25601
17:26:21.014827,-1
17:26:21.014827,-89
17:26:21.014827,-20737
17:26:21.014827,-1
17:26:21.014827,-82
17:26:21.014827,-19713
17:26:21.014827,-1
17:26:21.014827,-66
17:26:21.014827,-13569
17:26:21.014827,-1
17:26:21.014827,-44
17:26:21.014827,-7425
17:26:21.014827,-1
17:26:21.014827,-18
17:26:21.014827,-2049
17:26:21.014827,-1
17:26:21.014827,9
17:26:21.014827,6656
17:26:21.014827,0
17:26:21.014827,30
17:26:21.014827,10240
17:26:21.014827,0
17:26:21.014827,49
17:26:21.014827,13312
17:26:21.014827,0
17:26:21.014827,42
17:26:21.014827,5888
17:26:21.014827,0
17:26:21.014827,-2
17:26:21.014827,-8705
17:26:21.014827,-1
17:26:21.014827,-63
17:26:21.014827,-19713
17:26:21.014827,-1
17:26:21.014827,-87
17:26:21.014827,-23297
17:26:21.014827,-1
17:26:21.014827,-97
17:26:21.014827,-23809
17:26:21.014827,-1
17:26:21.014827,-89
17:26:21.595134,-92
17:26:21.595134,-23297
17:26:21.595134,-1
17:26:21.595134,-82
17:26:21.595134,-17153
17:26:21.595134,-1
17:26:21.595134,-66
17:26:21.595134,-16641
17:26:21.595134,-1
17:26:21.595134,-54
17:26:21.595134,-9985
17:26:21.595134,-1
17:26:21.595134,-28
17:26:21.595134,-3841
17:26:21.595134,-1
17:26:21.595134,-14
17:26:21.595134,-3841
17:26:21.595134,-1
17:26:21.595134,-16
17:26:21.595134,-5633
17:26:21.595134,-1
17:26:21.595134,-30
17:26:21.595134,-8193
17:26:21.595134,-1
17:26:21.595134,-37
17:26:21.595134,-10497
17:26:21.595134,-1
17:26:21.595134,-44
17:26:21.595134,-9217
17:26:21.595134,-1
17:26:21.595134,-28
17:26:21.595134,-5633
17:26:21.595134,-1
17:26:21.595134,-23
17:26:21.595134,-5633
17:26:21.595134,-1
17:26:21.595134,-21
17:26:21.595134,-4353
17:26:21.595134,-1
17:26:21.595134,-26
17:26:21.595134,-11777
17:26:21.595134,-1
17:26:21.595134,-75
17:26:21.595134,-21505
17:26:21.595134,-1
17:26:21.595134,-68
17:26:21.595134,-9217
17:26:21.595134,-1
17:26:21.595134,-7
17:26:21.595134,-2049
17:26:21.595134,-1
17:26:21.595134,-33
17:26:21.595134,-8705
17:26:21.595134,-1
17:26:21.595134,-26
17:26:21.595134,-6913
17:26:21.595134,-1
17:26:21.595134,-23
17:26:21.595134,-5121
17:26:21.595134,-1
17:26:21.595134,-26
17:26:21.595134,-11777
17:26:21.595134,-1
17:26:21.595134,-165
17:26:21.595134,-23809
17:26:21.595134,-2
17:26:21.595134,-269
17:26:21.595134,24831
17:26:21.595134,1
17:26:21.595134,1089
17:26:21.595134,18944
17:26:21.595134,4
17:26:21.595134,431
17:26:21.595134,1024
17:26:21.595134,0
17:26:21.595134,2
17:26:21.595134,-10752
17:26:21.595134,-1
17:26:21.595134,-127
17:26:21.595134,-25601
17:26:21.595134,-1
17:26:21.595134,-87
17:26:21.595134,-27393
17:26:21.595134,-1
17:26:21.595134,-101
17:26:21.595134,-23297
17:26:21.595134,-1
17:26:21.595134,-97
17:26:21.595134,-24577
17:26:21.595134,-1
17:26:21.595134,-97
17:26:21.595134,-24577
17:26:21.595134,-1
17:26:21.595134,-97
17:26:21.595134,-20737
17:26:21.595134,-1
17:26:21.595134,-66
17:26:21.595134,-16641
17:26:21.595134,-1
17:26:21.595134,-63
17:26:21.595134,-12289
17:26:21.595134,-1
17:26:21.595134,-37
17:26:21.595134,-6401
17:26:21.595134,-1
17:26:21.595134,-11
17:26:21.595134,767
17:26:21.595134,0
17:26:21.595134,11
17:26:22.138932,23
17:26:22.138932,9472
17:26:22.138932,0
17:26:22.138932,44
17:26:22.138932,11264
17:26:22.138932,0
17:26:22.138932,37
17:26:22.138932,3584
17:26:22.138932,0
17:26:22.138932,-18
17:26:22.138932,-8705
17:26:22.138932,-1
17:26:22.138932,-42
17:26:22.138932,-13057
17:26:22.138932,-1
17:26:22.138932,-56
17:26:22.138932,-9985
17:26:22.138932,-1
17:26:22.138932,-26
17:26:22.138932,-8193
17:26:22.138932,-1
17:26:22.138932,-33
17:26:22.138932,-5633
17:26:22.138932,-1
17:26:22.138932,-21
17:26:22.138932,-5121
17:26:22.138932,-1
17:26:22.138932,-23
17:26:22.138932,-6401
17:26:22.138932,-1
17:26:22.138932,-26
17:26:22.138932,-6401
17:26:22.138932,-1
17:26:22.138932,-23
17:26:22.138932,-4353
17:26:22.138932,-1
17:26:22.138932,-16
17:26:22.138932,-3329
17:26:22.138932,-1
17:26:22.138932,-11
17:26:22.138932,-1537
17:26:22.138932,-1
17:26:22.138932,-11
17:26:22.138932,-3329
17:26:22.138932,-1
17:26:22.138932,-11
17:26:22.138932,-3841
17:26:22.138932,-1
17:26:22.138932,-16
17:26:22.138932,-5121
17:26:22.138932,-1
17:26:22.138932,-28
17:26:22.138932,-6913
17:26:22.138932,-1
17:26:22.138932,-23
17:26:22.138932,-3841
17:26:22.138932,-1
17:26:22.138932,-11
17:26:22.138932,-3841
17:26:22.138932,-1
17:26:22.138932,-23
17:26:22.138932,-10497
17:26:22.138932,-1
17:26:22.138932,-68
17:26:22.138932,-18433
17:26:22.138932,-1
17:26:22.138932,-49
17:26:22.138932,-3329
17:26:22.138932,-1
17:26:22.138932,4
17:26:22.138932,-512
17:26:22.138932,-1
17:26:22.138932,-16
17:26:22.138932,-3841
17:26:22.138932,-1
17:26:22.138932,-11
17:26:22.138932,-769
17:26:22.138932,-1
17:26:22.138932,-2
17:26:22.138932,255
17:26:22.138932,0
17:26:22.138932,-9
17:26:22.138932,-15873
17:26:22.138932,-1
17:26:22.138932,-246
17:26:22.138932,30207
17:26:22.138932,-2
17:26:22.138932,-42
17:26:22.138932,26111
17:26:22.138932,3
17:26:22.138932,1442
17:26:22.138932,-13824
17:26:22.138932,3
17:26:22.138932,170
17:26:22.138932,-14336
17:26:22.138932,-1
17:26:22.138932,-7
17:26:22.138932,-23809
17:26:22.138932,-1
17:26:22.138932,-137
17:26:22.138932,-25089
17:26:22.138932,-1
17:26:22.138932,-108
17:26:22.138932,-31233
17:26:22.138932,-1
17:26:22.138932,-108
17:26:22.138932,-26369
17:26:22.138932,-1
17:26:22.138932,-104
17:26:22.901835,-97
17:26:22.901835,-23297
17:26:22.901835,-1
17:26:22.901835,-89
17:26:22.901835,-21505
17:26:22.901835,-1
17:26:22.901835,-82
17:26:22.901835,-20225
17:26:22.901835,-1
17:26:22.901835,-68
17:26:22.901835,-14081
17:26:22.901835,-1
17:26:22.901835,-44
17:26:22.901835,-5633
17:26:22.901835,-1
17:26:22.901835,-14
17:26:22.901835,-2049
17:26:22.901835,-1
17:26:22.901835,4
17:26:22.901835,4608
17:26:22.901835,0
17:26:22.901835,30
17:26:22.901835,10240
17:26:22.901835,0
17:26:22.901835,49
17:26:22.901835,13824
17:26:22.901835,0
17:26:22.901835,40
17:26:22.901835,5376
17:26:22.901835,0
17:26:22.901835,0
17:26:22.901835,-4608
17:26:22.901835,-1
17:26:22.901835,-26
17:26:22.901835,-8193
17:26:22.901835,-1
17:26:22.901835,-40
17:26:22.901835,-9985
17:26:22.901835,-1
17:26:22.901835,-37
17:26:22.901835,-8193
17:26:22.901835,-1
17:26:22.901835,-30
17:26:22.901835,-7425
17:26:22.901835,-1
17:26:22.901835,-21
17:26:22.901835,-3841
17:26:22.901835,-1
17:26:22.901835,-16
17:26:22.901835,-4353
17:26:22.901835,-1
17:26:22.901835,-26
17:26:22.901835,-5633
17:26:22.901835,-1
17:26:22.901835,-21
17:26:22.901835,-3841
17:26:22.901835,-1
17:26:22.901835,-14
17:26:22.901835,-3841
17:26:22.901835,-1
17:26:22.901835,-14
17:26:22.901835,-2561
17:26:22.901835,-1
17:26:22.901835,-11
17:26:22.901835,-2049
17:26:22.901835,-1
17:26:22.901835,-9
17:26:22.901835,-1537
17:26:22.901835,-1
17:26:22.901835,-4
17:26:22.901835,-1537
17:26:22.901835,-1
17:26:22.901835,-7
17:26:22.901835,-257
17:26:22.901835,-1
17:26:22.901835,-2
17:26:22.901835,-257
17:26:22.901835,-1
17:26:22.901835,-4
17:26:22.901835,-769
17:26:22.901835,-1
17:26:22.901835,-16
17:26:22.901835,-9217
17:26:22.901835,-1
17:26:22.901835,-40
17:26:22.901835,-3841
17:26:22.901835,-1
17:26:22.901835,11
17:26:22.901835,6656
17:26:22.901835,0
17:26:22.901835,23
17:26:22.901835,2816
17:26:22.901835,0
17:26:22.901835,4
17:26:22.901835,2304
17:26:22.901835,0
17:26:22.901835,11
17:26:22.901835,1792
17:26:22.901835,0
17:26:22.901835,7
17:26:22.901835,512
17:26:22.901835,0
17:26:22.901835,-49
17:26:22.901835,11263
17:26:22.901835,-1
17:26:22.901835,-348
17:26:22.901835,-5121
17:26:22.901835,-1
17:26:22.901835,857
17:26:23.264054,1475
17:26:23.264054,2048
17:26:23.264054,4
17:26:23.264054,163
17:26:23.264054,-24064
17:26:23.264054,-1
17:26:23.264054,-4
17:26:23.264054,-21505
17:26:23.264054,-1
17:26:23.264054,-139
17:26:23.264054,-22529
17:26:23.264054,-1
17:26:23.264054,-97
17:26:23.264054,-30465
17:26:23.264054,-1
17:26:23.264054,-101
17:26:23.264054,-22017
17:26:23.264054,-1
17:26:23.264054,-92
17:26:23.264054,-22017
17:26:23.264054,-1
17:26:23.264054,-78
17:26:23.264054,-19713
17:26:23.264054,-1
17:26:23.264054,-71
17:26:23.264054,-13569
17:26:23.264054,-1
17:26:23.264054,-49
17:26:23.264054,-9985
17:26:23.264054,-1
17:26:23.264054,-28
17:26:23.264054,-5121
17:26:23.264054,-1
17:26:23.264054,-4
17:26:23.264054,3839
17:26:23.264054,0
17:26:23.264054,33
17:26:23.264054,12544
17:26:23.264054,0
17:26:23.264054,63
17:26:23.264054,19968
17:26:23.264054,0
17:26:23.264054,85
17:26:23.264054,22784
17:26:23.264054,0
17:26:23.264054,87
17:26:23.264054,18688
17:26:23.264054,0
17:26:23.264054,44
17:26:23.264054,2304
17:26:23.264054,0
17:26:23.264054,-9
17:26:23.264054,-1537
17:26:23.264054,-1
17:26:23.264054,-11
17:26:23.264054,-6913
17:26:23.264054,-1
17:26:23.264054,-30
17:26:23.264054,-5633
17:26:23.264054,-1
17:26:23.264054,-23
17:26:23.264054,-6401
17:26:23.264054,-1
17:26:23.264054,-23
17:26:23.264054,-5121
17:26:23.264054,-1
17:26:23.264054,-18
17:26:23.264054,-3841
17:26:23.264054,-1
17:26:23.264054,-21
17:26:23.264054,-3841
17:26:23.264054,-1
17:26:23.264054,-4
17:26:23.264054,-2049
17:26:23.264054,-1
17:26:23.264054,-16
17:26:23.264054,-2561
17:26:23.264054,-1
17:26:23.264054,-7
17:26:23.264054,-1537
17:26:23.264054,-1
17:26:23.264054,-7
17:26:23.264054,-257
17:26:23.264054,-1
17:26:23.264054,2
17:26:23.264054,-512
17:26:23.264054,-1
17:26:23.264054,2
17:26:23.264054,2816
17:26:23.264054,0
17:26:23.264054,9
17:26:23.264054,2304
17:26:23.264054,0
17:26:23.264054,14
17:26:23.264054,3584
17:26:23.264054,0
17:26:23.264054,14
17:26:23.264054,2816
17:26:23.264054,0
17:26:23.264054,4
17:26:23.264054,-2304
17:26:23.264054,-1
17:26:23.264054,-26
17:26:23.264054,-5121
17:26:23.264054,-1
17:26:23.264054,4
17:26:23.264054,7168
17:26:23.264054,0
17:26:23.264054,28
17:26:23.805149,18
17:26:23.805149,1792
17:26:23.805149,0
17:26:23.805149,7
17:26:23.805149,4096
17:26:23.805149,0
17:26:23.805149,18
17:26:23.805149,4608
17:26:23.805149,0
17:26:23.805149,23
17:26:23.805149,3584
17:26:23.805149,0
17:26:23.805149,-56
17:26:23.805149,9471
17:26:23.805149,-1
17:26:23.805149,-234
17:26:23.805149,-4097
17:26:23.805149,0
17:26:23.805149,1015
17:26:23.805149,3328
17:26:23.805149,5
17:26:23.805149,710
17:26:23.805149,22784
17:26:23.805149,0
17:26:23.805149,23
17:26:23.805149,13824
17:26:23.805149,0
17:26:23.805149,-47
17:26:23.805149,-14081
17:26:23.805149,-1
17:26:23.805149,-18
17:26:23.805149,-9217
17:26:23.805149,-1
17:26:23.805149,-42
17:26:23.805149,-4353
17:26:23.805149,-1
17:26:23.805149,-14
17:26:23.805149,-4353
17:26:23.805149,-1
17:26:23.805149,-14
17:26:23.805149,-769
17:26:23.805149,-1
17:26:23.805149,-2
17:26:23.805149,-769
17:26:23.805149,-1
17:26:23.805149,4
17:26:23.805149,3584
17:26:23.805149,0
17:26:23.805149,23
17:26:23.805149,8960
17:26:23.805149,0
17:26:23.805149,49
17:26:23.805149,17408
17:26:23.805149,0
17:26:23.805149,82
17:26:23.805149,24832
17:26:23.805149,0
17:26:23.805149,111
17:26:23.805149,30720
17:26:23.805149,0
17:26:23.805149,120
17:26:23.805149,30208
17:26:23.805149,0
17:26:23.805149,116
17:26:23.805149,28928
17:26:23.805149,0
17:26:23.805149,104
17:26:23.805149,19200
17:26:23.805149,0
17:26:23.805149,33
17:26:23.805149,1792
17:26:23.805149,0
17:26:23.805149,-2
17:26:23.805149,-2049
17:26:23.805149,-1
17:26:23.805149,-21
17:26:23.805149,-8193
17:26:23.805149,-1
17:26:23.805149,-40
17:26:23.805149,-7425
17:26:23.805149,-1
17:26:23.805149,-11
17:26:23.805149,-769
17:26:23.805149,-1
17:26:23.805149,-9
17:26:23.805149,255
17:26:23.805149,0
17:26:23.805149,21
17:26:23.805149,4096
17:26:23.805149,0
17:26:23.805149,2
17:26:23.805149,1024
17:26:23.805149,0
17:26:23.805149,4
17:26:23.805149,512
17:26:23.805149,0
17:26:23.805149,-2
17:26:23.805149,-257
17:26:23.805149,-1
17:26:23.805149,14
17:26:23.805149,-4608
17:26:23.805149,-1
17:26:23.805149,-87
17:26:23.805149,-8705
17:26:23.805149,-1
17:26:23.805149,35
17:26:23.805149,-5376
17:26:23.805149,-1
17:26:23.805149,-14
17:26:24.341158,87
17:26:24.341158,27136
17:26:24.341158,0
17:26:24.341158,54
17:26:24.341158,6656
17:26:24.341158,0
17:26:24.341158,30
17:26:24.341158,6656
17:26:24.341158,0
17:26:24.341158,-11
17:26:24.341158,-14081
17:26:24.341158,-1
17:26:24.341158,-33
17:26:24.341158,15359
17:26:24.341158,0
17:26:24.341158,49
17:26:24.341158,-4608
17:26:24.341158,-1
17:26:24.341158,18
17:26:24.341158,15104
17:26:24.341158,0
17:26:24.341158,26
17:26:24.341158,10240
17:26:24.341158,0
17:26:24.341158,66
17:26:24.341158,2816
17:26:24.341158,0
17:26:24.341158,-18
17:26:24.341158,-1537
17:26:24.341158,-1
17:26:24.341158,-7
17:26:24.341158,3839
17:26:24.341158,0
17:26:24.341158,-52
17:26:24.341158,-8705
17:26:24.341158,-2
17:26:24.341158,-333
17:26:24.341158,-13825
17:26:24.341158,0
17:26:24.341158,973
17:26:24.341158,-22784
17:26:24.341158,4
17:26:24.341158,637
17:26:24.341158,15104
17:26:24.341158,0
17:26:24.341158,-30
17:26:24.341158,255
17:26:24.341158,0
17:26:24.341158,-68
17:26:24.341158,-22529
17:26:24.341158,-1
17:26:24.341158,-87
17:26:24.341158,-30465
17:26:24.341158,-1
17:26:24.341158,-123
17:26:24.341158,-31745
17:26:24.341158,-1
17:26:24.341158,-104
17:26:24.341158,-7425
17:26:24.341158,-1
17:26:24.341158,-26
17:26:24.341158,-13569
17:26:24.341158,-1
17:26:24.341158,-30
17:26:24.341158,-9985
17:26:24.341158,-1
17:26:24.341158,-75
17:26:24.341158,-12289
17:26:24.341158,-1
17:26:24.341158,0
17:26:24.341158,-1792
17:26:24.341158,-1
17:26:24.341158,-44
17:26:24.341158,-9217
17:26:24.341158,-1
17:26:24.341158,47
17:26:24.341158,24064
17:26:24.341158,0
17:26:24.341158,21
17:26:24.341158,5376
17:26:24.341158,0
17:26:24.341158,142
17:26:24.341158,-25600
17:26:24.341158,0
17:26:24.341158,78
17:26:24.341158,20480
17:26:24.341158,0
17:26:24.341158,85
17:26:24.341158,8448
17:26:24.341158,0
17:26:24.341158,2
17:26:24.341158,-4096
17:26:24.341158,-1
17:26:24.341158,-14
17:26:24.341158,-769
17:26:24.341158,-1
17:26:24.341158,-47
17:26:24.341158,-12289
17:26:24.341158,-1
17:26:24.341158,-11
17:26:24.341158,-11009
17:26:24.341158,-1
17:26:24.341158,-97
17:26:24.341158,-16641
17:26:24.341158,-1
17:26:24.341158,-16
17:26:24.341158,-14849
17:26:24.341158,-1
17:26:24.341158,-104
17:26:24.978421,-52
17:26:24.978421,-2049
17:26:24.978421,-1
17:26:24.978421,-40
17:26:24.978421,-13569
17:26:24.978421,-1
17:26:24.978421,-37
17:26:24.978421,-11777
17:26:24.978421,-1
17:26:24.978421,-59
17:26:24.978421,-11777
17:26:24.978421,-1
17:26:24.978421,-52
17:26:24.978421,-18433
17:26:24.978421,-1
17:26:24.978421,-54
17:26:24.978421,-7425
17:26:24.978421,-1
17:26:24.978421,-47
17:26:24.978421,-9985
17:26:24.978421,-1
17:26:24.978421,-23
17:26:24.978421,-14849
17:26:24.978421,-1
17:26:24.978421,-80
17:26:24.978421,-15361
17:26:24.978421,-1
17:26:24.978421,-63
17:26:24.978421,-22529
17:26:24.978421,-1
17:26:24.978421,-80
17:26:24.978421,-10497
17:26:24.978421,-1
17:26:24.978421,-47
17:26:24.978421,-20225
17:26:24.978421,-1
17:26:24.978421,-87
17:26:24.978421,-26369
17:26:24.978421,-1
17:26:24.978421,-125
17:26:24.978421,-25601
17:26:24.978421,-1
17:26:24.978421,-63
17:26:24.978421,-13057
17:26:24.978421,-1
17:26:24.978421,-56
17:26:24.978421,-17921
17:26:24.978421,-1
17:26:24.978421,-73
17:26:24.978421,-15361
17:26:24.978421,-1
17:26:24.978421,-54
17:26:24.978421,-13057
17:26:24.978421,-1
17:26:24.978421,-52
17:26:24.978421,-13569
17:26:24.978421,-1
17:26:24.978421,-85
17:26:24.978421,9471
17:26:24.978421,-1
17:26:24.978421,-345
17:26:24.978421,-22017
17:26:24.978421,-1
17:26:24.978421,693
17:26:24.978421,20736
17:26:24.978421,5
17:26:24.978421,1053
17:26:24.978421,-22528
17:26:24.978421,0
17:26:24.978421,-153
17:26:24.978421,-8193
17:26:24.978421,-1
17:26:24.978421,-101
17:26:24.978421,19967
17:26:24.978421,-1
17:26:24.978421,-123
17:26:24.978421,-30465
17:26:24.978421,-1
17:26:24.978421,-149
17:26:24.978421,-30465
17:26:24.978421,-1
17:26:24.978421,-99
17:26:24.978421,-29441
17:26:24.978421,-1
17:26:24.978421,-106
17:26:24.978421,-19713
17:26:24.978421,-1
17:26:24.978421,-80
17:26:24.978421,-21505
17:26:24.978421,-1
17:26:24.978421,-73
17:26:24.978421,-16641
17:26:24.978421,-1
17:26:24.978421,-61
17:26:24.978421,-11777
17:26:24.978421,-1
17:26:24.978421,-37
17:26:24.978421,-6401
17:26:24.978421,-1
17:26:24.978421,0
17:26:24.978421,5376
17:26:24.978421,0
17:26:24.978421,33
17:26:24.978421,11264
17:26:24.978421,0
17:26:24.978421,54
17:26:24.978421,16128
17:26:24.978421,0
17:26:24.978421,63
17:26:25.511515,59
17:26:25.511515,12544
17:26:25.511515,0
17:26:25.511515,23
17:26:25.511515,-2304
17:26:25.511515,-1
17:26:25.511515,-33
17:26:25.511515,-11777
17:26:25.511515,-1
17:26:25.511515,-56
17:26:25.511515,-15873
17:26:25.511515,-1
17:26:25.511515,-66
17:26:25.511515,-16641
17:26:25.511515,-1
17:26:25.511515,-66
17:26:25.511515,-15873
17:26:25.511515,-1
17:26:25.511515,-52
17:26:25.511515,-8193
17:26:25.511515,-1
17:26:25.511515,-30
17:26:25.511515,-9217
17:26:25.511515,-1
17:26:25.511515,-33
17:26:25.511515,-6401
17:26:25.511515,-1
17:26:25.511515,-26
17:26:25.511515,-6913
17:26:25.511515,-1
17:26:25.511515,-26
17:26:25.511515,-5633
17:26:25.511515,-1
17:26:25.511515,-26
17:26:25.511515,-6401
17:26:25.511515,-1
17:26:25.511515,-23
17:26:25.511515,-5121
17:26:25.511515,-1
17:26:25.511515,-18
17:26:25.511515,-4353
17:26:25.511515,-1
17:26:25.511515,-21
17:26:25.511515,-4353
17:26:25.511515,-1
17:26:25.511515,-16
17:26:25.511515,-3841
17:26:25.511515,-1
17:26:25.511515,-18
17:26:25.511515,-3841
17:26:25.511515,-1
17:26:25.511515,-16
17:26:25.511515,-3841
17:26:25.511515,-1
17:26:25.511515,-16
17:26:25.511515,-3841
17:26:25.511515,-1
17:26:25.511515,-16
17:26:25.511515,-3841
17:26:25.511515,-1
17:26:25.511515,-18
17:26:25.511515,-4353
17:26:25.511515,-1
17:26:25.511515,-18
17:26:25.511515,-5121
17:26:25.511515,-1
17:26:25.511515,-33
17:26:25.511515,-13569
17:26:25.511515,-1
17:26:25.511515,-56
17:26:25.511515,-6913
17:26:25.511515,-1
17:26:25.511515,2
17:26:25.511515,3584
17:26:25.511515,0
17:26:25.511515,9
17:26:25.511515,-1792
17:26:25.511515,-1
17:26:25.511515,-9
17:26:25.511515,767
17:26:25.511515,0
17:26:25.511515,7
17:26:25.511515,1024
17:26:25.511515,0
17:26:25.511515,9
17:26:25.511515,2304
17:26:25.511515,0
17:26:25.511515,-30
17:26:25.511515,19967
17:26:25.511515,-1
17:26:25.511515,-284
17:26:25.511515,9215
17:26:25.511515,0
17:26:25.511515,843
17:26:25.511515,-32512
17:26:25.511515,5
17:26:25.511515,975
17:26:25.511515,-28160
17:26:25.511515,0
17:26:25.511515,-75
17:26:25.511515,7423
17:26:25.511515,0
17:26:25.511515,-54
17:26:25.511515,-28673
17:26:25.511515,-1
17:26:25.511515,-59
17:26:25.511515,-14849
17:26:25.511515,-1
17:26:25.511515,-82
17:26:26.098752,-63
17:26:26.098752,-13057
17:26:26.098752,-1
17:26:26.098752,-59
17:26:26.098752,-13569
17:26:26.098752,-1
17:26:26.098752,-44
17:26:26.098752,-9985
17:26:26.098752,-1
17:26:26.098752,-37
17:26:26.098752,-6913
17:26:26.098752,-1
17:26:26.098752,-21
17:26:26.098752,-2049
17:26:26.098752,-1
17:26:26.098752,14
17:26:26.098752,7168
17:26:26.098752,0
17:26:26.098752,30
17:26:26.098752,10752
17:26:26.098752,0
17:26:26.098752,59
17:26:26.098752,17408
17:26:26.098752,0
17:26:26.098752,80
17:26:26.098752,24832
17:26:26.098752,0
17:26:26.098752,104
17:26:26.098752,24832
17:26:26.098752,0
17:26:26.098752,89
17:26:26.098752,20992
17:26:26.098752,0
17:26:26.098752,54
17:26:26.098752,5888
17:26:26.098752,0
17:26:26.098752,4
17:26:26.098752,-2304
17:26:26.098752,-1
17:26:26.098752,-23
17:26:26.098752,-8705
17:26:26.098752,-1
17:26:26.098752,-37
17:26:26.098752,-9217
17:26:26.098752,-1
17:26:26.098752,-35
17:26:26.098752,-6401
17:26:26.098752,-1
17:26:26.098752,-23
17:26:26.098752,-6401
17:26:26.098752,-1
17:26:26.098752,-21
17:26:26.098752,-4353
17:26:26.098752,-1
17:26:26.098752,-21
17:26:26.098752,-4353
17:26:26.098752,-1
17:26:26.098752,-18
17:26:26.098752,-3329
17:26:26.098752,-1
17:26:26.098752,-14
17:26:26.098752,-3329
17:26:26.098752,-1
17:26:26.098752,-11
17:26:26.098752,-2049
17:26:26.098752,-1
17:26:26.098752,-9
17:26:26.098752,-769
17:26:26.098752,-1
17:26:26.098752,-2
17:26:26.098752,-257
17:26:26.098752,-1
17:26:26.098752,-2
17:26:26.098752,1279
17:26:26.098752,0
17:26:26.098752,7
17:26:26.098752,1024
17:26:26.098752,0
17:26:26.098752,11
17:26:26.098752,4608
17:26:26.098752,0
17:26:26.098752,18
17:26:26.098752,4096
17:26:26.098752,0
17:26:26.098752,16
17:26:26.098752,4608
17:26:26.098752,0
17:26:26.098752,21
17:26:26.098752,4608
17:26:26.098752,0
17:26:26.098752,18
17:26:26.098752,4608
17:26:26.098752,0
17:26:26.098752,18
17:26:26.098752,4096
17:26:26.098752,0
17:26:26.098752,16
17:26:26.098752,4608
17:26:26.098752,0
17:26:26.098752,14
17:26:26.098752,2816
17:26:26.098752,0
17:26:26.098752,14
17:26:26.098752,0
17:26:26.098752,0
17:26:26.098752,-16
17:26:26.098752,-4353
17:26:26.098752,-1
17:26:26.098752,2
17:26:26.638935,28
17:26:26.638935,8960
17:26:26.638935,0
17:26:26.638935,28
17:26:26.638935,5376
17:26:26.638935,0
17:26:26.638935,18
17:26:26.638935,5888
17:26:26.638935,0
17:26:26.638935,30
17:26:26.638935,9472
17:26:26.638935,0
17:26:26.638935,42
17:26:26.638935,10752
17:26:26.638935,0
17:26:26.638935,-7
17:26:26.638935,26623
17:26:26.638935,-1
17:26:26.638935,-236
17:26:26.638935,23039
17:26:26.638935,0
17:26:26.638935,788
17:26:26.638935,-26624
17:26:26.638935,4
17:26:26.638935,790
17:26:26.638935,-13568
17:26:26.638935,0
17:26:26.638935,56
17:26:26.638935,19968
17:26:26.638935,0
17:26:26.638935,-9
17:26:26.638935,-9985
17:26:26.638935,-1
17:26:26.638935,-11
17:26:26.638935,-6401
17:26:26.638935,-1
17:26:26.638935,-30
17:26:26.638935,-3329
17:26:26.638935,-1
17:26:26.638935,-16
17:26:26.638935,-5121
17:26:26.638935,-1
17:26:26.638935,-16
17:26:26.638935,-2561
17:26:26.638935,-1
17:26:26.638935,-9
17:26:26.638935,-257
17:26:26.638935,-1
17:26:26.638935,2
17:26:26.638935,2304
17:26:26.638935,0
17:26:26.638935,21
17:26:26.638935,7680
17:26:26.638935,0
17:26:26.638935,40
17:26:26.638935,12032
17:26:26.638935,0
17:26:26.638935,56
17:26:26.638935,17408
17:26:26.638935,0
17:26:26.638935,82
17:26:26.638935,22784
17:26:26.638935,0
17:26:26.638935,94
17:26:26.638935,24832
17:26:26.638935,0
17:26:26.638935,101
17:26:26.638935,25856
17:26:26.638935,0
17:26:26.638935,85
17:26:26.638935,15616
17:26:26.638935,0
17:26:26.638935,37
17:26:26.638935,2816
17:26:26.638935,0
17:26:26.638935,-9
17:26:26.638935,-5633
17:26:26.638935,-1
17:26:26.638935,-33
17:26:26.638935,-9217
17:26:26.638935,-1
17:26:26.638935,-40
17:26:26.638935,-10497
17:26:26.638935,-1
17:26:26.638935,-47
17:26:26.638935,-10497
17:26:26.638935,-1
17:26:26.638935,-37
17:26:26.638935,-9217
17:26:26.638935,-1
17:26:26.638935,-35
17:26:26.638935,-7425
17:26:26.638935,-1
17:26:26.638935,-28
17:26:26.638935,-6401
17:26:26.638935,-1
17:26:26.638935,-23
17:26:26.638935,-3841
17:26:26.638935,-1
17:26:26.638935,-14
17:26:26.638935,-3329
17:26:26.638935,-1
17:26:26.638935,-16
17:26:26.638935,-3841
17:26:26.638935,-1
17:26:26.638935,-14
17:26:26.638935,-3329
17:26:26.638935,-1
17:26:26.638935,-14
17:26:27.179131,-16
17:26:27.179131,-5633
17:26:27.179131,-1
17:26:27.179131,-28
17:26:27.179131,-6401
17:26:27.179131,-1
17:26:27.179131,-23
17:26:27.179131,-5121
17:26:27.179131,-1
17:26:27.179131,-23
17:26:27.179131,-6401
17:26:27.179131,-1
17:26:27.179131,-23
17:26:27.179131,-3841
17:26:27.179131,-1
17:26:27.179131,-2
17:26:27.179131,2559
17:26:27.179131,0
17:26:27.179131,4
17:26:27.179131,0
17:26:27.179131,0
17:26:27.179131,0
17:26:27.179131,-512
17:26:27.179131,-1
17:26:27.179131,-16
17:26:27.179131,-11009
17:26:27.179131,-1
17:26:27.179131,-66
17:26:27.179131,-15361
17:26:27.179131,-1
17:26:27.179131,-26
17:26:27.179131,3071
17:26:27.179131,0
17:26:27.179131,23
17:26:27.179131,1792
17:26:27.179131,0
17:26:27.179131,-9
17:26:27.179131,-2049
17:26:27.179131,-1
17:26:27.179131,-4
17:26:27.179131,-769
17:26:27.179131,-1
17:26:27.179131,-2
17:26:27.179131,255
17:26:27.179131,0
17:26:27.179131,-7
17:26:27.179131,-14849
17:26:27.179131,-1
17:26:27.179131,-224
17:26:27.179131,-17665
17:26:27.179131,-2
17:26:27.179131,35
17:26:27.179131,22016
17:26:27.179131,3
17:26:27.179131,1316
17:26:27.179131,14336
17:26:27.179131,3
17:26:27.179131,123
17:26:27.179131,-4608
17:26:27.179131,-1
17:26:27.179131,16
17:26:27.179131,-20992
17:26:27.179131,-1
17:26:27.179131,-108
17:26:27.179131,-17921
17:26:27.179131,-1
17:26:27.179131,-87
17:26:27.179131,-25601
17:26:27.179131,-1
17:26:27.179131,-80
17:26:27.179131,-18945
17:26:27.179131,-1
17:26:27.179131,-82
17:26:27.179131,-19713
17:26:27.179131,-1
17:26:27.179131,-71
17:26:27.179131,-17153
17:26:27.179131,-1
17:26:27.179131,-61
17:26:27.179131,-14081
17:26:27.179131,-1
17:26:27.179131,-52
17:26:27.179131,-11009
17:26:27.179131,-1
17:26:27.179131,-40
17:26:27.179131,-8193
17:26:27.179131,-1
17:26:27.179131,-23
17:26:27.179131,-3841
17:26:27.179131,-1
17:26:27.179131,-7
17:26:27.179131,1279
17:26:27.179131,0
17:26:27.179131,14
17:26:27.179131,5888
17:26:27.179131,0
17:26:27.179131,33
17:26:27.179131,9472
17:26:27.179131,0
17:26:27.179131,33
17:26:27.179131,6656
17:26:27.179131,0
17:26:27.179131,14
17:26:27.179131,-1792
17:26:27.179131,-1
17:26:27.179131,-23
17:26:27.179131,-8705
17:26:27.179131,-1
17:26:27.179131,-44
17:26:27.719227,-52
17:26:27.719227,-14081
17:26:27.719227,-1
17:26:27.719227,-56
17:26:27.719227,-13569
17:26:27.719227,-1
17:26:27.719227,-49
17:26:27.719227,-11777
17:26:27.719227,-1
17:26:27.719227,-44
17:26:27.719227,-7425
17:26:27.719227,-1
17:26:27.719227,-11
17:26:27.719227,-2049
17:26:27.719227,-1
17:26:27.719227,-11
17:26:27.719227,-1537
17:26:27.719227,-1
17:26:27.719227,-2
17:26:27.719227,255
17:26:27.719227,0
17:26:27.719227,0
17:26:27.719227,512
17:26:27.719227,0
17:26:27.719227,2
17:26:27.719227,512
17:26:27.719227,0
17:26:27.719227,2
17:26:27.719227,512
17:26:27.719227,0
17:26:27.719227,0
17:26:27.719227,0
17:26:27.719227,0
17:26:27.719227,2
17:26:27.719227,1792
17:26:27.719227,0
17:26:27.719227,7
17:26:27.719227,1024
17:26:27.719227,0
17:26:27.719227,4
17:26:27.719227,1792
17:26:27.719227,0
17:26:27.719227,7
17:26:27.719227,1792
17:26:27.719227,0
17:26:27.719227,11
17:26:27.719227,4096
17:26:27.719227,0
17:26:27.719227,16
17:26:27.719227,4096
17:26:27.719227,0
17:26:27.719227,18
17:26:27.719227,3584
17:26:27.719227,0
17:26:27.719227,-2
17:26:27.719227,-4353
17:26:27.719227,-1
17:26:27.719227,-26
17:26:27.719227,-3329
17:26:27.719227,-1
17:26:27.719227,23
17:26:27.719227,15104
17:26:27.719227,0
17:26:27.719227,56
17:26:27.719227,9472
17:26:27.719227,0
17:26:27.719227,30
17:26:27.719227,7168
17:26:27.719227,0
17:26:27.719227,28
17:26:27.719227,7680
17:26:27.719227,0
17:26:27.719227,33
17:26:27.719227,8448
17:26:27.719227,0
17:26:27.719227,26
17:26:27.719227,-5888
17:26:27.719227,-1
17:26:27.719227,-182
17:26:27.719227,-6145
17:26:27.719227,-2
17:26:27.719227,63
17:26:27.719227,26880
17:26:27.719227,3
17:26:27.719227,1380
17:26:27.719227,-29952
17:26:27.719227,3
17:26:27.719227,127
17:26:27.719227,-12032
17:26:27.719227,-1
17:26:27.719227,37
17:26:27.719227,-13312
17:26:27.719227,-1
17:26:27.719227,-97
17:26:27.719227,-11777
17:26:27.719227,-1
17:26:27.719227,-56
17:26:27.719227,-18945
17:26:27.719227,-1
17:26:27.719227,-56
17:26:27.719227,-11777
17:26:27.719227,-1
17:26:27.719227,-54
17:26:27.719227,-12289
17:26:27.719227,-1
17:26:27.719227,-44
17:26:27.719227,-10497
17:26:27.719227,-1
17:26:27.719227,-37
17:26:28.304449,-33
17:26:28.304449,-6913
17:26:28.304449,-1
17:26:28.304449,-18
17:26:28.304449,-2049
17:26:28.304449,-1
17:26:28.304449,4
17:26:28.304449,7680
17:26:28.304449,0
17:26:28.304449,44
17:26:28.304449,13312
17:26:28.304449,0
17:26:28.304449,63
17:26:28.304449,19968
17:26:28.304449,0
17:26:28.304449,82
17:26:28.304449,22272
17:26:28.304449,0
17:26:28.304449,92
17:26:28.304449,22272
17:26:28.304449,0
17:26:28.304449,80
17:26:28.304449,15616
17:26:28.304449,0
17:26:28.304449,33
17:26:28.304449,2816
17:26:28.304449,0
17:26:28.304449,-4
17:26:28.304449,-3329
17:26:28.304449,-1
17:26:28.304449,-21
17:26:28.304449,-5121
17:26:28.304449,-1
17:26:28.304449,-23
17:26:28.304449,-4353
17:26:28.304449,-1
17:26:28.304449,-14
17:26:28.304449,-3329
17:26:28.304449,-1
17:26:28.304449,-14
17:26:28.304449,-2561
17:26:28.304449,-1
17:26:28.304449,-9
17:26:28.304449,-1537
17:26:28.304449,-1
17:26:28.304449,-7
17:26:28.304449,-769
17:26:28.304449,-1
17:26:28.304449,-4
17:26:28.304449,-257
17:26:28.304449,-1
17:26:28.304449,0
17:26:28.304449,-512
17:26:28.304449,-1
17:26:28.304449,-2
17:26:28.304449,-257
17:26:28.304449,-1
17:26:28.304449,-2
17:26:28.304449,255
17:26:28.304449,0
17:26:28.304449,0
17:26:28.304449,0
17:26:28.304449,0
17:26:28.304449,-7
17:26:28.304449,-2049
17:26:28.304449,-1
17:26:28.304449,-4
17:26:28.304449,255
17:26:28.304449,0
17:26:28.304449,0
17:26:28.304449,0
17:26:28.304449,0
17:26:28.304449,2
17:26:28.304449,1024
17:26:28.304449,0
17:26:28.304449,7
17:26:28.304449,2304
17:26:28.304449,0
17:26:28.304449,9
17:26:28.304449,0
17:26:28.304449,0
17:26:28.304449,-23
17:26:28.304449,-9217
17:26:28.304449,-1
17:26:28.304449,-35
17:26:28.304449,-2049
17:26:28.304449,-1
17:26:28.304449,33
17:26:28.304449,13824
17:26:28.304449,0
17:26:28.304449,37
17:26:28.304449,5376
17:26:28.304449,0
17:26:28.304449,21
17:26:28.304449,5376
17:26:28.304449,0
17:26:28.304449,23
17:26:28.304449,6656
17:26:28.304449,0
17:26:28.304449,23
17:26:28.304449,4608
17:26:28.304449,0
17:26:28.304449,9
17:26:28.304449,-20480
17:26:28.304449,-1
17:26:28.304449,-248
17:26:28.304449,13823
17:26:28.304449,-1
17:26:28.304449,338
17:26:28.886603,1089
17:26:28.886603,-16896
17:26:28.886603,4
17:26:28.886603,520
17:26:28.886603,-8960
17:26:28.886603,-1
17:26:28.886603,-14
17:26:28.886603,3839
17:26:28.886603,0
17:26:28.886603,-92
17:26:28.886603,-20225
17:26:28.886603,-1
17:26:28.886603,-26
17:26:28.886603,-10497
17:26:28.886603,-1
17:26:28.886603,-49
17:26:28.886603,-8193
17:26:28.886603,-1
17:26:28.886603,-30
17:26:28.886603,-6913
17:26:28.886603,-1
17:26:28.886603,-23
17:26:28.886603,-4353
17:26:28.886603,-1
17:26:28.886603,-11
17:26:28.886603,-257
17:26:28.886603,-1
17:26:28.886603,4
17:26:28.886603,1792
17:26:28.886603,0
17:26:28.886603,18
17:26:28.886603,7168
17:26:28.886603,0
17:26:28.886603,30
17:26:28.886603,10240
17:26:28.886603,0
17:26:28.886603,49
17:26:28.886603,15104
17:26:28.886603,0
17:26:28.886603,75
17:26:28.886603,22272
17:26:28.886603,0
17:26:28.886603,87
17:26:28.886603,22784
17:26:28.886603,0
17:26:28.886603,89
17:26:28.886603,22784
17:26:28.886603,0
17:26:28.886603,75
17:26:28.886603,12032
17:26:28.886603,0
17:26:28.886603,18
17:26:28.886603,-1024
17:26:28.886603,-1
17:26:28.886603,-18
17:26:28.886603,-6401
17:26:28.886603,-1
17:26:28.886603,-26
17:26:28.886603,-6401
17:26:28.886603,-1
17:26:28.886603,-26
17:26:28.886603,-5121
17:26:28.886603,-1
17:26:28.886603,-18
17:26:28.886603,-3329
17:26:28.886603,-1
17:26:28.886603,-7
17:26:28.886603,-769
17:26:28.886603,-1
17:26:28.886603,-4
17:26:28.886603,-1537
17:26:28.886603,-1
17:26:28.886603,-7
17:26:28.886603,255
17:26:28.886603,0
17:26:28.886603,2
17:26:28.886603,0
17:26:28.886603,0
17:26:28.886603,4
17:26:28.886603,512
17:26:28.886603,0
17:26:28.886603,0
17:26:28.886603,1792
17:26:28.886603,0
17:26:28.886603,11
17:26:28.886603,2304
17:26:28.886603,0
17:26:28.886603,7
17:26:28.886603,2304
17:26:28.886603,0
17:26:28.886603,9
17:26:28.886603,1792
17:26:28.886603,0
17:26:28.886603,7
17:26:28.886603,2304
17:26:28.886603,0
17:26:28.886603,4
17:26:28.886603,512
17:26:28.886603,0
17:26:28.886603,4
17:26:28.886603,0
17:26:28.886603,0
17:26:28.886603,-18
17:26:28.886603,-8705
17:26:28.886603,-1
17:26:28.886603,-35
17:26:28.886603,-6401
17:26:28.886603,-1
17:26:28.886603,9
17:26:29.429159,49
17:26:29.429159,12032
17:26:29.429159,0
17:26:29.429159,23
17:26:29.429159,4096
17:26:29.429159,0
17:26:29.429159,18
17:26:29.429159,5888
17:26:29.429159,0
17:26:29.429159,30
17:26:29.429159,8960
17:26:29.429159,0
17:26:29.429159,40
17:26:29.429159,8960
17:26:29.429159,0
17:26:29.429159,-16
17:26:29.429159,23551
17:26:29.429159,-1
17:26:29.429159,-232
17:26:29.429159,29183
17:26:29.429159,0
17:26:29.429159,793
17:26:29.429159,23808
17:26:29.429159,4
17:26:29.429159,693
17:26:29.429159,-23808
17:26:29.429159,0
17:26:29.429159,66
17:26:29.429159,17408
17:26:29.429159,0
17:26:29.429159,-23
17:26:29.429159,-8705
17:26:29.429159,-1
17:26:29.429159,-7
17:26:29.429159,-5633
17:26:29.429159,-1
17:26:29.429159,-30
17:26:29.429159,-3329
17:26:29.429159,-1
17:26:29.429159,-16
17:26:29.429159,-6401
17:26:29.429159,-1
17:26:29.429159,-11
17:26:29.429159,-257
17:26:29.429159,-1
17:26:29.429159,-4
17:26:29.429159,1279
17:26:29.429159,0
17:26:29.429159,9
17:26:29.429159,2816
17:26:29.429159,0
17:26:29.429159,23
17:26:29.429159,8448
17:26:29.429159,0
17:26:29.429159,42
17:26:29.429159,13312
17:26:29.429159,0
17:26:29.429159,63
17:26:29.429159,20480
17:26:29.429159,0
17:26:29.429159,85
17:26:29.429159,23552
17:26:29.429159,0
17:26:29.429159,104
17:26:29.429159,27648
17:26:29.429159,0
17:26:29.429159,106
17:26:29.429159,24064
17:26:29.429159,0
17:26:29.429159,71
17:26:29.429159,9472
17:26:29.429159,0
17:26:29.429159,0
17:26:29.429159,-5376
17:26:29.429159,-1
17:26:29.429159,-33
17:26:29.429159,-12289
17:26:29.429159,-1
17:26:29.429159,-54
17:26:29.429159,-14081
17:26:29.429159,-1
17:26:29.429159,-54
17:26:29.429159,-13057
17:26:29.429159,-1
17:26:29.429159,-54
17:26:29.429159,-12289
17:26:29.429159,-1
17:26:29.429159,-47
17:26:29.429159,-11777
17:26:29.429159,-1
17:26:29.429159,-40
17:26:29.429159,-8193
17:26:29.429159,-1
17:26:29.429159,-33
17:26:29.429159,-7425
17:26:29.429159,-1
17:26:29.429159,-30
17:26:29.429159,-6401
17:26:29.429159,-1
17:26:29.429159,-23
17:26:29.429159,-6401
17:26:29.429159,-1
17:26:29.429159,-28
17:26:29.429159,-6401
17:26:29.429159,-1
17:26:29.429159,-23
17:26:29.429159,-6401
17:26:29.429159,-1
17:26:29.429159,-26
17:26:29.969777,-23
17:26:29.969777,-5633
17:26:29.969777,-1
17:26:29.969777,-18
17:26:29.969777,-2561
17:26:29.969777,-1
17:26:29.969777,-16
17:26:29.969777,-7425
17:26:29.969777,-1
17:26:29.969777,-52
17:26:29.969777,-16641
17:26:29.969777,-1
17:26:29.969777,-44
17:26:29.969777,255
17:26:29.969777,0
17:26:29.969777,40
17:26:29.969777,10240
17:26:29.969777,0
17:26:29.969777,16
17:26:29.969777,1792
17:26:29.969777,0
17:26:29.969777,14
17:26:29.969777,4096
17:26:29.969777,0
17:26:29.969777,16
17:26:29.969777,5376
17:26:29.969777,0
17:26:29.969777,23
17:26:29.969777,1792
17:26:29.969777,0
17:26:29.969777,-75
17:26:29.969777,-257
17:26:29.969777,-2
17:26:29.969777,-281
17:26:29.969777,-3585
17:26:29.969777,0
17:26:29.969777,1060
17:26:29.969777,-5888
17:26:29.969777,4
17:26:29.969777,601
17:26:29.969777,13312
17:26:29.969777,0
17:26:29.969777,21
17:26:29.969777,1792
17:26:29.969777,0
17:26:29.969777,-89
17:26:29.969777,-18945
17:26:29.969777,-1
17:26:29.969777,-54
17:26:29.969777,-20225
17:26:29.969777,-1
17:26:29.969777,-80
17:26:29.969777,-16641
17:26:29.969777,-1
17:26:29.969777,-66
17:26:29.969777,-15873
17:26:29.969777,-1
17:26:29.969777,-54
17:26:29.969777,-13057
17:26:29.969777,-1
17:26:29.969777,-52
17:26:29.969777,-11009
17:26:29.969777,-1
17:26:29.969777,-40
17:26:29.969777,-8705
17:26:29.969777,-1
17:26:29.969777,-26
17:26:29.969777,-5121
17:26:29.969777,-1
17:26:29.969777,-14
17:26:29.969777,-257
17:26:29.969777,-1
17:26:29.969777,9
17:26:29.969777,5376
17:26:29.969777,0
17:26:29.969777,35
17:26:29.969777,12032
17:26:29.969777,0
17:26:29.969777,59
17:26:29.969777,16128
17:26:29.969777,0
17:26:29.969777,63
17:26:29.969777,13824
17:26:29.969777,0
17:26:29.969777,33
17:26:29.969777,1792
17:26:29.969777,0
17:26:29.969777,-18
17:26:29.969777,-7425
17:26:29.969777,-1
17:26:29.969777,-35
17:26:29.969777,-9985
17:26:29.969777,-1
17:26:29.969777,-40
17:26:29.969777,-10497
17:26:29.969777,-1
17:26:29.969777,-44
17:26:29.969777,-9985
17:26:29.969777,-1
17:26:29.969777,-35
17:26:29.969777,-7425
17:26:29.969777,-1
17:26:29.969777,-26
17:26:29.969777,-5121
17:26:29.969777,-1
17:26:29.969777,-14
17:26:29.969777,-3841
17:26:29.969777,-1
17:26:29.969777,-18
17:26:30.597970,-14
17:26:30.597970,-2561
17:26:30.597970,-1
17:26:30.597970,-9
17:26:30.597970,-2049
17:26:30.597970,-1
17:26:30.597970,-9
17:26:30.597970,767
17:26:30.597970,0
17:26:30.597970,21
17:26:30.597970,7680
17:26:30.597970,0
17:26:30.597970,18
17:26:30.597970,4096
17:26:30.597970,0
17:26:30.597970,26
17:26:30.597970,5888
17:26:30.597970,0
17:26:30.597970,21
17:26:30.597970,5888
17:26:30.597970,0
17:26:30.597970,21
17:26:30.597970,3584
17:26:30.597970,0
17:26:30.597970,-7
17:26:30.597970,-6913
17:26:30.597970,-1
17:26:30.597970,-33
17:26:30.597970,-3329
17:26:30.597970,-1
17:26:30.597970,21
17:26:30.597970,11264
17:26:30.597970,0
17:26:30.597970,33
17:26:30.597970,5376
17:26:30.597970,0
17:26:30.597970,23
17:26:30.597970,7168
17:26:30.597970,0
17:26:30.597970,28
17:26:30.597970,6656
17:26:30.597970,0
17:26:30.597970,28
17:26:30.597970,6656
17:26:30.597970,0
17:26:30.597970,-30
17:26:30.597970,13055
17:26:30.597970,-1
17:26:30.597970,-326
17:26:30.597970,11519
17:26:30.597970,0
17:26:30.597970,944
17:26:30.597970,-10240
17:26:30.597970,5
17:26:30.597970,963
17:26:30.597970,29696
17:26:30.597970,0
17:26:30.597970,-61
17:26:30.597970,7935
17:26:30.597970,0
17:26:30.597970,-73
17:26:30.597970,-28673
17:26:30.597970,-1
17:26:30.597970,-52
17:26:30.597970,-15361
17:26:30.597970,-1
17:26:30.597970,-80
17:26:30.597970,-14081
17:26:30.597970,-1
17:26:30.597970,-44
17:26:30.597970,-12289
17:26:30.597970,-1
17:26:30.597970,-47
17:26:30.597970,-9217
17:26:30.597970,-1
17:26:30.597970,-33
17:26:30.597970,-7425
17:26:30.597970,-1
17:26:30.597970,-23
17:26:30.597970,-3841
17:26:30.597970,-1
17:26:30.597970,-9
17:26:30.597970,-257
17:26:30.597970,-1
17:26:30.597970,4
17:26:30.597970,4608
17:26:30.597970,0
17:26:30.597970,30
17:26:30.597970,12544
17:26:30.597970,0
17:26:30.597970,68
17:26:30.597970,20992
17:26:30.597970,0
17:26:30.597970,89
17:26:30.597970,24832
17:26:30.597970,0
17:26:30.597970,99
17:26:30.597970,23552
17:26:30.597970,0
17:26:30.597970,68
17:26:30.597970,10240
17:26:30.597970,0
17:26:30.597970,16
17:26:30.597970,-512
17:26:30.597970,-1
17:26:30.597970,-11
17:26:30.597970,-4353
17:26:30.597970,-1
17:26:30.597970,-26
17:26:31.095085,-26
17:26:31.095085,-6401
17:26:31.095085,-1
17:26:31.095085,-18
17:26:31.095085,-3841
17:26:31.095085,-1
17:26:31.095085,-14
17:26:31.095085,-2561
17:26:31.095085,-1
17:26:31.095085,-14
17:26:31.095085,-3329
17:26:31.095085,-1
17:26:31.095085,-9
17:26:31.095085,-257
17:26:31.095085,-1
17:26:31.095085,-2
17:26:31.095085,-2561
17:26:31.095085,-1
17:26:31.095085,-14
17:26:31.095085,-2049
17:26:31.095085,-1
17:26:31.095085,-2
17:26:31.095085,3071
17:26:31.095085,0
17:26:31.095085,18
17:26:31.095085,3584
17:26:31.095085,0
17:26:31.095085,11
17:26:31.095085,2816
17:26:31.095085,0
17:26:31.095085,16
17:26:31.095085,4608
17:26:31.095085,0
17:26:31.095085,16
17:26:31.095085,4608
17:26:31.095085,0
17:26:31.095085,16
17:26:31.095085,4608
17:26:31.095085,0
17:26:31.095085,28
17:26:31.095085,3584
17:26:31.095085,0
17:26:31.095085,-16
17:26:31.095085,-8193
17:26:31.095085,-1
17:26:31.095085,-26
17:26:31.095085,-257
17:26:31.095085,-1
17:26:31.095085,23
17:26:31.095085,12032
17:26:31.095085,0
17:26:31.095085,35
17:26:31.095085,3584
17:26:31.095085,0
17:26:31.095085,18
17:26:31.095085,7680
17:26:31.095085,0
17:26:31.095085,33
17:26:31.095085,8448
17:26:31.095085,0
17:26:31.095085,28
17:26:31.095085,4608
17:26:31.095085,0
17:26:31.095085,-52
17:26:31.095085,7167
17:26:31.095085,-1
17:26:31.095085,-258
17:26:31.095085,-8449
17:26:31.095085,0
17:26:31.095085,1058
17:26:31.095085,25088
17:26:31.095085,5
17:26:31.095085,724
17:26:31.095085,6656
17:26:31.095085,0
17:26:31.095085,-16
17:26:31.095085,11007
17:26:31.095085,0
17:26:31.095085,-71
17:26:31.095085,-18945
17:26:31.095085,-1
17:26:31.095085,-26
17:26:31.095085,-13569
17:26:31.095085,-1
17:26:31.095085,-66
17:26:31.095085,-9217
17:26:31.095085,-1
17:26:31.095085,-37
17:26:31.095085,-11009
17:26:31.095085,-1
17:26:31.095085,-35
17:26:31.095085,-5121
17:26:31.095085,-1
17:26:31.095085,-18
17:26:31.095085,-5121
17:26:31.095085,-1
17:26:31.095085,-7
17:26:31.095085,2559
17:26:31.095085,0
17:26:31.095085,14
17:26:31.095085,6656
17:26:31.095085,0
17:26:31.095085,44
17:26:31.095085,15104
17:26:31.095085,0
17:26:31.095085,68
17:26:31.095085,20480
17:26:31.095085,0
17:26:31.095085,94
17:26:31.676808,106
17:26:31.676808,28416
17:26:31.676808,0
17:26:31.676808,118
17:26:31.676808,28928
17:26:31.676808,0
17:26:31.676808,94
17:26:31.676808,18176
17:26:31.676808,0
17:26:31.676808,54
17:26:31.676808,10240
17:26:31.676808,0
17:26:31.676808,14
17:26:31.676808,0
17:26:31.676808,0
17:26:31.676808,-7
17:26:31.676808,-3841
17:26:31.676808,-1
17:26:31.676808,-18
17:26:31.676808,-3329
17:26:31.676808,-1
17:26:31.676808,-14
17:26:31.676808,-2561
17:26:31.676808,-1
17:26:31.676808,-4
17:26:31.676808,255
17:26:31.676808,0
17:26:31.676808,2
17:26:31.676808,-512
17:26:31.676808,-1
17:26:31.676808,0
17:26:31.676808,2304
17:26:31.676808,0
17:26:31.676808,9
17:26:31.676808,2304
17:26:31.676808,0
17:26:31.676808,11
17:26:31.676808,2816
17:26:31.676808,0
17:26:31.676808,9
17:26:31.676808,3584
17:26:31.676808,0
17:26:31.676808,14
17:26:31.676808,2816
17:26:31.676808,0
17:26:31.676808,14
17:26:31.676808,4096
17:26:31.676808,0
17:26:31.676808,16
17:26:31.676808,4608
17:26:31.676808,0
17:26:31.676808,18
17:26:31.676808,3584
17:26:31.676808,0
17:26:31.676808,16
17:26:31.676808,4096
17:26:31.676808,0
17:26:31.676808,21
17:26:31.676808,4608
17:26:31.676808,0
17:26:31.676808,7
17:26:31.676808,-2304
17:26:31.676808,-1
17:26:31.676808,-26
17:26:31.676808,-7425
17:26:31.676808,-1
17:26:31.676808,-4
17:26:31.676808,6911
17:26:31.676808,0
17:26:31.676808,44
17:26:31.676808,10240
17:26:31.676808,0
17:26:31.676808,26
17:26:31.676808,5376
17:26:31.676808,0
17:26:31.676808,28
17:26:31.676808,8448
17:26:31.676808,0
17:26:31.676808,35
17:26:31.676808,8960
17:26:31.676808,0
17:26:31.676808,30
17:26:31.676808,-4608
17:26:31.676808,-1
17:26:31.676808,-168
17:26:31.676808,-6145
17:26:31.676808,-2
17:26:31.676808,-4
17:26:31.676808,-24321
17:26:31.676808,2
17:26:31.676808,1082
17:26:31.676808,-6912
17:26:31.676808,2
17:26:31.676808,196
17:26:31.676808,13312
17:26:31.676808,0
17:26:31.676808,49
17:26:31.676808,-10240
17:26:31.676808,-1
17:26:31.676808,-61
17:26:31.676808,-7425
17:26:31.676808,-1
17:26:31.676808,-47
17:26:31.676808,-14849
17:26:31.676808,-1
17:26:31.676808,-40
17:26:31.676808,-9985
17:26:31.676808,-1
17:26:31.676808,-44
17:26:32.263852,-37
17:26:32.263852,-8193
17:26:32.263852,-1
17:26:32.263852,-30
17:26:32.263852,-6401
17:26:32.263852,-1
17:26:32.263852,-18
17:26:32.263852,-2561
17:26:32.263852,-1
17:26:32.263852,-7
17:26:32.263852,767
17:26:32.263852,0
17:26:32.263852,16
17:26:32.263852,10240
17:26:32.263852,0
17:26:32.263852,68
17:26:32.263852,20480
17:26:32.263852,0
17:26:32.263852,87
17:26:32.263852,25856
17:26:32.263852,0
17:26:32.263852,113
17:26:32.263852,30720
17:26:32.263852,0
17:26:32.263852,120
17:26:32.263852,27648
17:26:32.263852,0
17:26:32.263852,80
17:26:32.263852,12032
17:26:32.263852,0
17:26:32.263852,14
17:26:32.263852,-2304
17:26:32.263852,-1
17:26:32.263852,-26
17:26:32.263852,-8193
17:26:32.263852,-1
17:26:32.263852,-40
17:26:32.263852,-10497
17:26:32.263852,-1
17:26:32.263852,-40
17:26:32.263852,-9217
17:26:32.263852,-1
17:26:32.263852,-37
17:26:32.263852,-9985
17:26:32.263852,-1
17:26:32.263852,-37
17:26:32.263852,-8193
17:26:32.263852,-1
17:26:32.263852,-30
17:26:32.263852,-6401
17:26:32.263852,-1
17:26:32.263852,-23
17:26:32.263852,-5633
17:26:32.263852,-1
17:26:32.263852,-16
17:26:32.263852,-2561
17:26:32.263852,-1
17:26:32.263852,-4
17:26:32.263852,-257
17:26:32.263852,-1
17:26:32.263852,-7
17:26:32.263852,-1537
17:26:32.263852,-1
17:26:32.263852,-7
17:26:32.263852,-2049
17:26:32.263852,-1
17:26:32.263852,-7
17:26:32.263852,-1537
17:26:32.263852,-1
17:26:32.263852,-7
17:26:32.263852,-1537
17:26:32.263852,-1
17:26:32.263852,-7
17:26:32.263852,-769
17:26:32.263852,-1
17:26:32.263852,-4
17:26:32.263852,-769
17:26:32.263852,-1
17:26:32.263852,-4
17:26:32.263852,-769
17:26:32.263852,-1
17:26:32.263852,-2
17:26:32.263852,-257
17:26:32.263852,-1
17:26:32.263852,-2
17:26:32.263852,-257
17:26:32.263852,-1
17:26:32.263852,-9
17:26:32.263852,-2049
17:26:32.263852,-1
17:26:32.263852,-7
17:26:32.263852,-3329
17:26:32.263852,-1
17:26:32.263852,-30
17:26:32.263852,-13057
17:26:32.263852,-1
17:26:32.263852,-52
17:26:32.263852,-5633
17:26:32.263852,-1
17:26:32.263852,4
17:26:32.263852,3584
17:26:32.263852,0
17:26:32.263852,7
17:26:32.263852,-1024
17:26:32.263852,-1
17:26:32.263852,-2
17:26:32.263852,1279
17:26:32.263852,0
17:26:32.263852,7
17:26:32.801657,4
17:26:32.801657,1024
17:26:32.801657,0
17:26:32.801657,-4
17:26:32.801657,-23297
17:26:32.801657,-1
17:26:32.801657,-279
17:26:32.801657,-6913
17:26:32.801657,-2
17:26:32.801657,260
17:26:32.801657,28160
17:26:32.801657,4
17:26:32.801657,1404
17:26:32.801657,-20224
17:26:32.801657,2
17:26:32.801657,-9
17:26:32.801657,-10497
17:26:32.801657,-1
17:26:32.801657,18
17:26:32.801657,-21760
17:26:32.801657,-1
17:26:32.801657,-92
17:26:32.801657,-13057
17:26:32.801657,-1
17:26:32.801657,-75
17:26:32.801657,-20737
17:26:32.801657,-1
17:26:32.801657,-59
17:26:32.801657,-14849
17:26:32.801657,-1
17:26:32.801657,-61
17:26:32.801657,-14081
17:26:32.801657,-1
17:26:32.801657,-49
17:26:32.801657,-11009
17:26:32.801657,-1
17:26:32.801657,-37
17:26:32.801657,-6401
17:26:32.801657,-1
17:26:32.801657,-23
17:26:32.801657,-4353
17:26:32.801657,-1
17:26:32.801657,-9
17:26:32.801657,1279
17:26:32.801657,0
17:26:32.801657,21
17:26:32.801657,9472
17:26:32.801657,0
17:26:32.801657,49
17:26:32.801657,17408
17:26:32.801657,0
17:26:32.801657,82
17:26:32.801657,24064
17:26:32.801657,0
17:26:32.801657,101
17:26:32.801657,25856
17:26:32.801657,0
17:26:32.801657,97
17:26:32.801657,19968
17:26:32.801657,0
17:26:32.801657,42
17:26:32.801657,4096
17:26:32.801657,0
17:26:32.801657,-2
17:26:32.801657,-3841
17:26:32.801657,-1
17:26:32.801657,-28
17:26:32.801657,-8193
17:26:32.801657,-1
17:26:32.801657,-30
17:26:32.801657,-7425
17:26:32.801657,-1
17:26:32.801657,-26
17:26:32.801657,-5121
17:26:32.801657,-1
17:26:32.801657,-23
17:26:32.801657,-5121
17:26:32.801657,-1
17:26:32.801657,-18
17:26:32.801657,-4353
17:26:32.801657,-1
17:26:32.801657,-16
17:26:32.801657,-3841
17:26:32.801657,-1
17:26:32.801657,-18
17:26:32.801657,-4353
17:26:32.801657,-1
17:26:32.801657,-21
17:26:32.801657,-6401
17:26:32.801657,-1
17:26:32.801657,-33
17:26:32.801657,-7425
17:26:32.801657,-1
17:26:32.801657,-21
17:26:32.801657,-3841
17:26:32.801657,-1
17:26:32.801657,-14
17:26:32.801657,-2561
17:26:32.801657,-1
17:26:32.801657,-7
17:26:32.801657,255
17:26:32.801657,0
17:26:32.801657,-2
17:26:32.801657,-257
17:26:32.801657,-1
17:26:32.801657,2
17:26:32.801657,1024
17:26:32.801657,0
17:26:32.801657,7
17:26:33.345780,7
17:26:33.345780,1792
17:26:33.345780,0
17:26:33.345780,7
17:26:33.345780,1792
17:26:33.345780,0
17:26:33.345780,9
17:26:33.345780,2304
17:26:33.345780,0
17:26:33.345780,7
17:26:33.345780,1792
17:26:33.345780,0
17:26:33.345780,7
17:26:33.345780,4096
17:26:33.345780,0
17:26:33.345780,33
17:26:33.345780,9472
17:26:33.345780,0
17:26:33.345780,33
17:26:33.345780,8448
17:26:33.345780,0
17:26:33.345780,28
17:26:33.345780,3584
17:26:33.345780,0
17:26:33.345780,-4
17:26:33.345780,-3329
17:26:33.345780,-1
17:26:33.345780,2
17:26:33.345780,7680
17:26:33.345780,0
17:26:33.345780,47
17:26:33.345780,11264
17:26:33.345780,0
17:26:33.345780,37
17:26:33.345780,8960
17:26:33.345780,0
17:26:33.345780,40
17:26:33.345780,10752
17:26:33.345780,0
17:26:33.345780,40
17:26:33.345780,9472
17:26:33.345780,0
17:26:33.345780,40
17:26:33.345780,4096
17:26:33.345780,0
17:26:33.345780,-101
17:26:33.345780,-3073
17:26:33.345780,-2
17:26:33.345780,-134
17:26:33.345780,11519
17:26:33.345780,2
17:26:33.345780,1319
17:26:33.345780,-8960
17:26:33.345780,4
17:26:33.345780,426
17:26:33.345780,-9472
17:26:33.345780,-1
17:26:33.345780,33
17:26:33.345780,1792
17:26:33.345780,0
17:26:33.345780,-94
17:26:33.345780,-14849
17:26:33.345780,-1
17:26:33.345780,-37
17:26:33.345780,-17921
17:26:33.345780,-1
17:26:33.345780,-61
17:26:33.345780,-11009
17:26:33.345780,-1
17:26:33.345780,-49
17:26:33.345780,-12289
17:26:33.345780,-1
17:26:33.345780,-42
17:26:33.345780,-9217
17:26:33.345780,-1
17:26:33.345780,-35
17:26:33.345780,-6401
17:26:33.345780,-1
17:26:33.345780,-21
17:26:33.345780,-3841
17:26:33.345780,-1
17:26:33.345780,-4
17:26:33.345780,767
17:26:33.345780,0
17:26:33.345780,16
17:26:33.345780,7680
17:26:33.345780,0
17:26:33.345780,44
17:26:33.345780,16128
17:26:33.345780,0
17:26:33.345780,80
17:26:33.345780,24064
17:26:33.345780,0
17:26:33.345780,108
17:26:33.345780,29696
17:26:33.345780,0
17:26:33.345780,113
17:26:33.345780,25344
17:26:33.345780,0
17:26:33.345780,71
17:26:33.345780,10240
17:26:33.345780,0
17:26:33.345780,7
17:26:33.345780,-4096
17:26:33.345780,-1
17:26:33.345780,-30
17:26:33.345780,-10497
17:26:33.345780,-1
17:26:33.345780,-44
17:26:33.883855,-47
17:26:33.883855,-11009
17:26:33.883855,-1
17:26:33.883855,-42
17:26:33.883855,-10497
17:26:33.883855,-1
17:26:33.883855,-37
17:26:33.883855,-8705
17:26:33.883855,-1
17:26:33.883855,-30
17:26:33.883855,-3841
17:26:33.883855,-1
17:26:33.883855,-7
17:26:33.883855,-2561
17:26:33.883855,-1
17:26:33.883855,-14
17:26:33.883855,-2049
17:26:33.883855,-1
17:26:33.883855,-7
17:26:33.883855,-769
17:26:33.883855,-1
17:26:33.883855,0
17:26:33.883855,1792
17:26:33.883855,0
17:26:33.883855,7
17:26:33.883855,1024
17:26:33.883855,0
17:26:33.883855,4
17:26:33.883855,1792
17:26:33.883855,0
17:26:33.883855,9
17:26:33.883855,2304
17:26:33.883855,0
17:26:33.883855,11
17:26:33.883855,3584
17:26:33.883855,0
17:26:33.883855,14
17:26:33.883855,3584
17:26:33.883855,0
17:26:33.883855,11
17:26:33.883855,2304
17:26:33.883855,0
17:26:33.883855,9
17:26:33.883855,2304
17:26:33.883855,0
17:26:33.883855,11
17:26:33.883855,3584
17:26:33.883855,0
17:26:33.883855,14
17:26:33.883855,4096
17:26:33.883855,0
17:26:33.883855,16
17:26:33.883855,4608
17:26:33.883855,0
17:26:33.883855,21
17:26:33.883855,4608
17:26:33.883855,0
17:26:33.883855,18
17:26:33.883855,4608
17:26:33.883855,0
17:26:33.883855,18
17:26:33.883855,5888
17:26:33.883855,0
17:26:33.883855,26
17:26:33.883855,5888
17:26:33.883855,0
17:26:33.883855,23
17:26:33.883855,7168
17:26:33.883855,0
17:26:33.883855,35
17:26:33.883855,8448
17:26:33.883855,0
17:26:33.883855,30
17:26:33.883855,5376
17:26:33.883855,0
17:26:33.883855,2
17:26:33.883855,-1792
17:26:33.883855,-1
17:26:33.883855,7
17:26:33.883855,10240
17:26:33.883855,0
17:26:33.883855,61
17:26:33.883855,13312
17:26:33.883855,0
17:26:33.883855,35
17:26:33.883855,7680
17:26:33.883855,0
17:26:33.883855,37
17:26:33.883855,12032
17:26:33.883855,0
17:26:33.883855,47
17:26:33.883855,12032
17:26:33.883855,0
17:26:33.883855,47
17:26:33.883855,7680
17:26:33.883855,0
17:26:33.883855,-59
17:26:33.883855,7679
17:26:33.883855,-1
17:26:33.883855,-189
17:26:33.883855,26111
17:26:33.883855,1
17:26:33.883855,1110
17:26:33.883855,-8960
17:26:33.883855,4
17:26:33.883855,575
17:26:33.883855,5888
17:26:33.883855,0
17:26:33.883855,23
17:26:34.465889,33
17:26:34.465889,-17408
17:26:34.465889,-1
17:26:34.465889,-56
17:26:34.465889,-5633
17:26:34.465889,-1
17:26:34.465889,-35
17:26:34.465889,-7425
17:26:34.465889,-1
17:26:34.465889,-14
17:26:34.465889,-3329
17:26:34.465889,-1
17:26:34.465889,-9
17:26:34.465889,255
17:26:34.465889,0
17:26:34.465889,-2
17:26:34.465889,255
17:26:34.465889,0
17:26:34.465889,14
17:26:34.465889,5376
17:26:34.465889,0
17:26:34.465889,26
17:26:34.465889,8960
17:26:34.465889,0
17:26:34.465889,42
17:26:34.465889,13824
17:26:34.465889,0
17:26:34.465889,68
17:26:34.465889,21760
17:26:34.465889,0
17:26:34.465889,97
17:26:34.465889,27648
17:26:34.465889,0
17:26:34.465889,123
17:26:34.465889,-31744
17:26:34.465889,0
17:26:34.465889,137
17:26:34.465889,-29952
17:26:34.465889,0
17:26:34.465889,132
17:26:34.465889,28416
17:26:34.465889,0
17:26:34.465889,78
17:26:34.465889,10752
17:26:34.465889,0
17:26:34.465889,16
17:26:34.465889,-512
17:26:34.465889,-1
17:26:34.465889,-16
17:26:34.465889,-5633
17:26:34.465889,-1
17:26:34.465889,-30
17:26:34.465889,-9217
17:26:34.465889,-1
17:26:34.465889,-42
17:26:34.465889,-9985
17:26:34.465889,-1
17:26:34.465889,-33
17:26:34.465889,-7425
17:26:34.465889,-1
17:26:34.465889,-26
17:26:34.465889,-4353
17:26:34.465889,-1
17:26:34.465889,-16
17:26:34.465889,-2049
17:26:34.465889,-1
17:26:34.465889,-2
17:26:34.465889,767
17:26:34.465889,0
17:26:34.465889,4
17:26:34.465889,512
17:26:34.465889,0
17:26:34.465889,7
17:26:34.465889,2304
17:26:34.465889,0
17:26:34.465889,11
17:26:34.465889,4096
17:26:34.465889,0
17:26:34.465889,18
17:26:34.465889,4096
17:26:34.465889,0
17:26:34.465889,16
17:26:34.465889,5376
17:26:34.465889,0
17:26:34.465889,23
17:26:34.465889,7168
17:26:34.465889,0
17:26:34.465889,28
17:26:34.465889,6656
17:26:34.465889,0
17:26:34.465889,23
17:26:34.465889,6656
17:26:34.465889,0
17:26:34.465889,28
17:26:34.465889,6656
17:26:34.465889,0
17:26:34.465889,28
17:26:34.465889,7168
17:26:34.465889,0
17:26:34.465889,28
17:26:34.465889,6656
17:26:34.465889,0
17:26:34.465889,21
17:26:34.465889,5888
17:26:34.465889,0
17:26:34.465889,26
17:26:34.465889,5376
17:26:34.465889,0
17:26:34.465889,18
17:26:35.053857,23
17:26:35.053857,7680
17:26:35.053857,0
17:26:35.053857,30
17:26:35.053857,7168
17:26:35.053857,0
17:26:35.053857,28
17:26:35.053857,6656
17:26:35.053857,0
17:26:35.053857,28
17:26:35.053857,9472
17:26:35.053857,0
17:26:35.053857,40
17:26:35.053857,7168
17:26:35.053857,0
17:26:35.053857,4
17:26:35.053857,512
17:26:35.053857,0
17:26:35.053857,23
17:26:35.053857,11264
17:26:35.053857,0
17:26:35.053857,44
17:26:35.053857,10240
17:26:35.053857,0
17:26:35.053857,33
17:26:35.053857,6656
17:26:35.053857,0
17:26:35.053857,30
17:26:35.053857,8960
17:26:35.053857,0
17:26:35.053857,37
17:26:35.053857,8960
17:26:35.053857,0
17:26:35.053857,28
17:26:35.053857,-5376
17:26:35.053857,-1
17:26:35.053857,-168
17:26:35.053857,-8705
17:26:35.053857,-2
17:26:35.053857,-40
17:26:35.053857,-24321
17:26:35.053857,2
17:26:35.053857,1191
17:26:35.053857,25856
17:26:35.053857,3
17:26:35.053857,215
17:26:35.053857,3584
17:26:35.053857,0
17:26:35.053857,42
17:26:35.053857,-13312
17:26:35.053857,-1
17:26:35.053857,-94
17:26:35.053857,-13569
17:26:35.053857,-1
17:26:35.053857,-63
17:26:35.053857,-20225
17:26:35.053857,-1
17:26:35.053857,-63
17:26:35.053857,-14081
17:26:35.053857,-1
17:26:35.053857,-63
17:26:35.053857,-14849
17:26:35.053857,-1
17:26:35.053857,-52
17:26:35.053857,-11777
17:26:35.053857,-1
17:26:35.053857,-44
17:26:35.053857,-9217
17:26:35.053857,-1
17:26:35.053857,-28
17:26:35.053857,-6401
17:26:35.053857,-1
17:26:35.053857,-16
17:26:35.053857,-769
17:26:35.053857,-1
17:26:35.053857,2
17:26:35.053857,4096
17:26:35.053857,0
17:26:35.053857,28
17:26:35.053857,10752
17:26:35.053857,0
17:26:35.053857,59
17:26:35.053857,18176
17:26:35.053857,0
17:26:35.053857,85
17:26:35.053857,24064
17:26:35.053857,0
17:26:35.053857,92
17:26:35.053857,20992
17:26:35.053857,0
17:26:35.053857,56
17:26:35.053857,6656
17:26:35.053857,0
17:26:35.053857,-2
17:26:35.053857,-5121
17:26:35.053857,-1
17:26:35.053857,-33
17:26:35.053857,-11009
17:26:35.053857,-1
17:26:35.053857,-47
17:26:35.053857,-9217
17:26:35.053857,-1
17:26:35.053857,-35
17:26:35.053857,-8705
17:26:35.053857,-1
17:26:35.053857,-33
17:26:35.053857,-7425
17:26:35.053857,-1
17:26:35.053857,-28
17:26:35.594954,-26
17:26:35.594954,-5121
17:26:35.594954,-1
17:26:35.594954,-18
17:26:35.594954,-3841
17:26:35.594954,-1
17:26:35.594954,-11
17:26:35.594954,-1537
17:26:35.594954,-1
17:26:35.594954,-4
17:26:35.594954,255
17:26:35.594954,0
17:26:35.594954,2
17:26:35.594954,1024
17:26:35.594954,0
17:26:35.594954,14
17:26:35.594954,7680
17:26:35.594954,0
17:26:35.594954,30
17:26:35.594954,5376
17:26:35.594954,0
17:26:35.594954,23
17:26:35.594954,5888
17:26:35.594954,0
17:26:35.594954,21
17:26:35.594954,5376
17:26:35.594954,0
17:26:35.594954,18
17:26:35.594954,4096
17:26:35.594954,0
17:26:35.594954,18
17:26:35.594954,4608
17:26:35.594954,0
17:26:35.594954,18
17:26:35.594954,4096
17:26:35.594954,0
17:26:35.594954,14
17:26:35.594954,4096
17:26:35.594954,0
17:26:35.594954,16
17:26:35.594954,5376
17:26:35.594954,0
17:26:35.594954,18
17:26:35.594954,4096
17:26:35.594954,0
17:26:35.594954,16
17:26:35.594954,3584
17:26:35.594954,0
17:26:35.594954,16
17:26:35.594954,4096
17:26:35.594954,0
17:26:35.594954,14
17:26:35.594954,3584
17:26:35.594954,0
17:26:35.594954,11
17:26:35.594954,2816
17:26:35.594954,0
17:26:35.594954,14
17:26:35.594954,2816
17:26:35.594954,0
17:26:35.594954,11
17:26:35.594954,2816
17:26:35.594954,0
17:26:35.594954,9
17:26:35.594954,2816
17:26:35.594954,0
17:26:35.594954,11
17:26:35.594954,2816
17:26:35.594954,0
17:26:35.594954,11
17:26:35.594954,2304
17:26:35.594954,0
17:26:35.594954,11
17:26:35.594954,2304
17:26:35.594954,0
17:26:35.594954,0
17:26:35.594954,-4096
17:26:35.594954,-1
17:26:35.594954,-30
17:26:35.594954,-4353
17:26:35.594954,-1
17:26:35.594954,9
17:26:35.594954,7168
17:26:35.594954,0
17:26:35.594954,30
17:26:35.594954,4608
17:26:35.594954,0
17:26:35.594954,11
17:26:35.594954,5376
17:26:35.594954,0
17:26:35.594954,28
17:26:35.594954,6656
17:26:35.594954,0
17:26:35.594954,26
17:26:35.594954,7168
17:26:35.594954,0
17:26:35.594954,2
17:26:35.594954,-32000
17:26:35.594954,-1
17:26:35.594954,-293
17:26:35.594954,28927
17:26:35.594954,-1
17:26:35.594954,568
17:26:35.594954,17152
17:26:35.594954,5
17:26:35.594954,1252
17:26:35.594954,-29440
17:26:35.594954,1
17:26:35.594954,-73
17:26:36.175831,7
17:26:36.175831,-2816
17:26:36.175831,-1
17:26:36.175831,-118
17:26:36.175831,-20737
17:26:36.175831,-1
17:26:36.175831,-56
17:26:36.175831,-22017
17:26:36.175831,-1
17:26:36.175831,-80
17:26:36.175831,-14081
17:26:36.175831,-1
17:26:36.175831,-47
17:26:36.175831,-9217
17:26:36.175831,-1
17:26:36.175831,-37
17:26:36.175831,-9217
17:26:36.175831,-1
17:26:36.175831,-30
17:26:36.175831,-5633
17:26:36.175831,-1
17:26:36.175831,-16
17:26:36.175831,-2561
17:26:36.175831,-1
17:26:36.175831,-4
17:26:36.175831,1279
17:26:36.175831,0
17:26:36.175831,9
17:26:36.175831,4096
17:26:36.175831,0
17:26:36.175831,35
17:26:36.175831,13312
17:26:36.175831,0
17:26:36.175831,68
17:26:36.175831,21760
17:26:36.175831,0
17:26:36.175831,101
17:26:36.175831,28416
17:26:36.175831,0
17:26:36.175831,113
17:26:36.175831,27648
17:26:36.175831,0
17:26:36.175831,92
17:26:36.175831,16896
17:26:36.175831,0
17:26:36.175831,40
17:26:36.175831,4608
17:26:36.175831,0
17:26:36.175831,2
17:26:36.175831,-2304
17:26:36.175831,-1
17:26:36.175831,-18
17:26:36.175831,-5633
17:26:36.175831,-1
17:26:36.175831,-23
17:26:36.175831,-4353
17:26:36.175831,-1
17:26:36.175831,-14
17:26:36.175831,-4353
17:26:36.175831,-1
17:26:36.175831,-16
17:26:36.175831,-3329
17:26:36.175831,-1
17:26:36.175831,-16
17:26:36.175831,-2561
17:26:36.175831,-1
17:26:36.175831,-14
17:26:36.175831,-3329
17:26:36.175831,-1
17:26:36.175831,-11
17:26:36.175831,-2561
17:26:36.175831,-1
17:26:36.175831,-7
17:26:36.175831,-769
17:26:36.175831,-1
17:26:36.175831,0
17:26:36.175831,512
17:26:36.175831,0
17:26:36.175831,7
17:26:36.175831,3584
17:26:36.175831,0
17:26:36.175831,14
17:26:36.175831,2816
17:26:36.175831,0
17:26:36.175831,16
17:26:36.175831,3584
17:26:36.175831,0
17:26:36.175831,14
17:26:36.175831,4096
17:26:36.175831,0
17:26:36.175831,18
17:26:36.175831,4608
17:26:36.175831,0
17:26:36.175831,16
17:26:36.175831,4096
17:26:36.175831,0
17:26:36.175831,16
17:26:36.175831,3584
17:26:36.175831,0
17:26:36.175831,18
17:26:36.175831,4608
17:26:36.175831,0
17:26:36.175831,16
17:26:36.175831,4608
17:26:36.175831,0
17:26:36.175831,16
17:26:36.175831,4096
17:26:36.175831,0
17:26:36.175831,21
17:26:36.715924,21
17:26:36.715924,5376
17:26:36.715924,0
17:26:36.715924,18
17:26:36.715924,4608
17:26:36.715924,0
17:26:36.715924,21
17:26:36.715924,4608
17:26:36.715924,0
17:26:36.715924,21
17:26:36.715924,5376
17:26:36.715924,0
17:26:36.715924,21
17:26:36.715924,6656
17:26:36.715924,0
17:26:36.715924,28
17:26:36.715924,11264
17:26:36.715924,0
17:26:36.715924,56
17:26:36.715924,12032
17:26:36.715924,0
17:26:36.715924,42
17:26:36.715924,11264
17:26:36.715924,0
17:26:36.715924,44
17:26:36.715924,12032
17:26:36.715924,0
17:26:36.715924,49
17:26:36.715924,12032
17:26:36.715924,0
17:26:36.715924,40
17:26:36.715924,8960
17:26:36.715924,0
17:26:36.715924,28
17:26:36.715924,1792
17:26:36.715924,0
17:26:36.715924,-7
17:26:36.715924,3071
17:26:36.715924,0
17:26:36.715924,37
17:26:36.715924,13312
17:26:36.715924,0
17:26:36.715924,49
17:26:36.715924,10240
17:26:36.715924,0
17:26:36.715924,37
17:26:36.715924,10752
17:26:36.715924,0
17:26:36.715924,49
17:26:36.715924,12544
17:26:36.715924,0
17:26:36.715924,47
17:26:36.715924,12032
17:26:36.715924,0
17:26:36.715924,14
17:26:36.715924,-32000
17:26:36.715924,-1
17:26:36.715924,-269
17:26:36.715924,-13569
17:26:36.715924,-1
17:26:36.715924,691
17:26:36.715924,24320
17:26:36.715924,5
17:26:36.715924,1153
17:26:36.715924,16896
17:26:36.715924,1
17:26:36.715924,-37
17:26:36.715924,16383
17:26:36.715924,0
17:26:36.715924,18
17:26:36.715924,-19968
17:26:36.715924,-1
17:26:36.715924,-37
17:26:36.715924,-6401
17:26:36.715924,-1
17:26:36.715924,-54
17:26:36.715924,-9985
17:26:36.715924,-1
17:26:36.715924,-26
17:26:36.715924,-7425
17:26:36.715924,-1
17:26:36.715924,-30
17:26:36.715924,-5121
17:26:36.715924,-1
17:26:36.715924,-16
17:26:36.715924,-3841
17:26:36.715924,-1
17:26:36.715924,-7
17:26:36.715924,255
17:26:36.715924,0
17:26:36.715924,2
17:26:36.715924,3584
17:26:36.715924,0
17:26:36.715924,23
17:26:36.715924,7680
17:26:36.715924,0
17:26:36.715924,44
17:26:36.715924,15104
17:26:36.715924,0
17:26:36.715924,75
17:26:36.715924,22784
17:26:36.715924,0
17:26:36.715924,104
17:26:36.715924,30208
17:26:36.715924,0
17:26:36.715924,120
17:26:36.715924,30208
17:26:36.715924,0
17:26:36.715924,116
17:26:37.258901,104
17:26:37.258901,18688
17:26:37.258901,0
17:26:37.258901,40
17:26:37.258901,4096
17:26:37.258901,0
17:26:37.258901,2
17:26:37.258901,-2304
17:26:37.258901,-1
17:26:37.258901,-14
17:26:37.258901,-5121
17:26:37.258901,-1
17:26:37.258901,-14
17:26:37.258901,255
17:26:37.258901,0
17:26:37.258901,-7
17:26:37.258901,-5121
17:26:37.258901,-1
17:26:37.258901,-21
17:26:37.258901,-2561
17:26:37.258901,-1
17:26:37.258901,-4
17:26:37.258901,-769
17:26:37.258901,-1
17:26:37.258901,0
17:26:37.258901,512
17:26:37.258901,0
17:26:37.258901,0
17:26:37.258901,2304
17:26:37.258901,0
17:26:37.258901,11
17:26:37.258901,2304
17:26:37.258901,0
17:26:37.258901,11
17:26:37.258901,4096
17:26:37.258901,0
17:26:37.258901,16
17:26:37.258901,3584
17:26:37.258901,0
17:26:37.258901,14
17:26:37.258901,4608
17:26:37.258901,0
17:26:37.258901,18
17:26:37.258901,4608
17:26:37.258901,0
17:26:37.258901,18
17:26:37.258901,4608
17:26:37.258901,0
17:26:37.258901,23
17:26:37.258901,6656
17:26:37.258901,0
17:26:37.258901,26
17:26:37.258901,5376
17:26:37.258901,0
17:26:37.258901,18
17:26:37.258901,6656
17:26:37.258901,0
17:26:37.258901,28
17:26:37.258901,6656
17:26:37.258901,0
17:26:37.258901,23
17:26:37.258901,5888
17:26:37.258901,0
17:26:37.258901,26
17:26:37.258901,6656
17:26:37.258901,0
17:26:37.258901,23
17:26:37.258901,6656
17:26:37.258901,0
17:26:37.258901,21
17:26:37.258901,5376
17:26:37.258901,0
17:26:37.258901,23
17:26:37.258901,5888
17:26:37.258901,0
17:26:37.258901,23
17:26:37.258901,5888
17:26:37.258901,0
17:26:37.258901,21
17:26:37.258901,5376
17:26:37.258901,0
17:26:37.258901,21
17:26:37.258901,5888
17:26:37.258901,0
17:26:37.258901,23
17:26:37.258901,4608
17:26:37.258901,0
17:26:37.258901,18
17:26:37.258901,4608
17:26:37.258901,0
17:26:37.258901,21
17:26:37.258901,5376
17:26:37.258901,0
17:26:37.258901,14
17:26:37.258901,1792
17:26:37.258901,0
17:26:37.258901,2
17:26:37.258901,-2304
17:26:37.258901,-1
17:26:37.258901,-11
17:26:37.258901,2559
17:26:37.258901,0
17:26:37.258901,33
17:26:37.258901,8448
17:26:37.258901,0
17:26:37.258901,23
17:26:37.258901,4608
17:26:37.258901,0
17:26:37.258901,16
17:26:37.796404,21
17:26:37.796404,6656
17:26:37.796404,0
17:26:37.796404,23
17:26:37.796404,6656
17:26:37.796404,0
17:26:37.796404,11
17:26:37.796404,-19200
17:26:37.796404,-1
17:26:37.796404,-229
17:26:37.796404,18687
17:26:37.796404,-1
17:26:37.796404,345
17:26:37.796404,7424
17:26:37.796404,4
17:26:37.796404,1134
17:26:37.796404,-256
17:26:37.796404,1
17:26:37.796404,66
17:26:37.796404,15616
17:26:37.796404,0
17:26:37.796404,21
17:26:37.796404,-18688
17:26:37.796404,-1
17:26:37.796404,-52
17:26:37.796404,-8193
17:26:37.796404,-1
17:26:37.796404,-61
17:26:37.796404,-14081
17:26:37.796404,-1
17:26:37.796404,-42
17:26:37.796404,-12289
17:26:37.796404,-1
17:26:37.796404,-47
17:26:37.796404,-9217
17:26:37.796404,-1
17:26:37.796404,-37
17:26:37.796404,-8705
17:26:37.796404,-1
17:26:37.796404,-28
17:26:37.796404,-5633
17:26:37.796404,-1
17:26:37.796404,-18
17:26:37.796404,-2049
17:26:37.796404,-1
17:26:37.796404,2
17:26:37.796404,2304
17:26:37.796404,0
17:26:37.796404,18
17:26:37.796404,6656
17:26:37.796404,0
17:26:37.796404,40
17:26:37.796404,14336
17:26:37.796404,0
17:26:37.796404,66
17:26:37.796404,18688
17:26:37.796404,0
17:26:37.796404,82
17:26:37.796404,22272
17:26:37.796404,0
17:26:37.796404,89
17:26:37.796404,19968
17:26:37.796404,0
17:26:37.796404,54
17:26:37.796404,5888
17:26:37.796404,0
17:26:37.796404,-2
17:26:37.796404,-3841
17:26:37.796404,-1
17:26:37.796404,-28
17:26:37.796404,-9217
17:26:37.796404,-1
17:26:37.796404,-42
17:26:37.796404,-11777
17:26:37.796404,-1
17:26:37.796404,-47
17:26:37.796404,-11009
17:26:37.796404,-1
17:26:37.796404,-42
17:26:37.796404,-9985
17:26:37.796404,-1
17:26:37.796404,-40
17:26:37.796404,-10497
17:26:37.796404,-1
17:26:37.796404,-52
17:26:37.796404,-14081
17:26:37.796404,-1
17:26:37.796404,-40
17:26:37.796404,-8193
17:26:37.796404,-1
17:26:37.796404,-35
17:26:37.796404,-6913
17:26:37.796404,-1
17:26:37.796404,-21
17:26:37.796404,-3841
17:26:37.796404,-1
17:26:37.796404,-11
17:26:37.796404,-2049
17:26:37.796404,-1
17:26:37.796404,-9
17:26:37.796404,-2049
17:26:37.796404,-1
17:26:37.796404,-11
17:26:37.796404,-2049
17:26:37.796404,-1
17:26:37.796404,-7
17:26:37.796404,-1537
17:26:37.796404,-1
17:26:37.796404,-9
17:26:38.426106,-9
17:26:38.426106,-1537
17:26:38.426106,-1
17:26:38.426106,0
17:26:38.426106,4608
17:26:38.426106,0
17:26:38.426106,26
17:26:38.426106,3584
17:26:38.426106,0
17:26:38.426106,14
17:26:38.426106,4096
17:26:38.426106,0
17:26:38.426106,16
17:26:38.426106,4096
17:26:38.426106,0
17:26:38.426106,16
17:26:38.426106,3584
17:26:38.426106,0
17:26:38.426106,14
17:26:38.426106,3584
17:26:38.426106,0
17:26:38.426106,18
17:26:38.426106,5376
17:26:38.426106,0
17:26:38.426106,21
17:26:38.426106,4608
17:26:38.426106,0
17:26:38.426106,16
17:26:38.426106,4608
17:26:38.426106,0
17:26:38.426106,18
17:26:38.426106,4608
17:26:38.426106,0
17:26:38.426106,21
17:26:38.426106,6656
17:26:38.426106,0
17:26:38.426106,30
17:26:38.426106,7680
17:26:38.426106,0
17:26:38.426106,30
17:26:38.426106,8960
17:26:38.426106,0
17:26:38.426106,30
17:26:38.426106,6656
17:26:38.426106,0
17:26:38.426106,26
17:26:38.426106,7168
17:26:38.426106,0
17:26:38.426106,30
17:26:38.426106,7680
17:26:38.426106,0
17:26:38.426106,23
17:26:38.426106,2816
17:26:38.426106,0
17:26:38.426106,-7
17:26:38.426106,-3329
17:26:38.426106,-1
17:26:38.426106,9
17:26:38.426106,10240
17:26:38.426106,0
17:26:38.426106,52
17:26:38.426106,12032
17:26:38.426106,0
17:26:38.426106,33
17:26:38.426106,7168
17:26:38.426106,0
17:26:38.426106,35
17:26:38.426106,11264
17:26:38.426106,0
17:26:38.426106,42
17:26:38.426106,10752
17:26:38.426106,0
17:26:38.426106,33
17:26:38.426106,-12544
17:26:38.426106,-1
17:26:38.426106,-222
17:26:38.426106,5375
17:26:38.426106,-1
17:26:38.426106,265
17:26:38.426106,22016
17:26:38.426106,4
17:26:38.426106,1409
17:26:38.426106,-9984
17:26:38.426106,2
17:26:38.426106,18
17:26:38.426106,-5888
17:26:38.426106,-1
17:26:38.426106,40
17:26:38.426106,-20480
17:26:38.426106,-1
17:26:38.426106,-94
17:26:38.426106,-11009
17:26:38.426106,-1
17:26:38.426106,-68
17:26:38.426106,-19713
17:26:38.426106,-1
17:26:38.426106,-56
17:26:38.426106,-14081
17:26:38.426106,-1
17:26:38.426106,-59
17:26:38.426106,-13057
17:26:38.426106,-1
17:26:38.426106,-49
17:26:38.426106,-13057
17:26:38.426106,-1
17:26:38.426106,-44
17:26:38.426106,-7425
17:26:38.426106,-1
17:26:38.426106,-26
17:26:38.967304,-21
17:26:38.967304,-2049
17:26:38.967304,-1
17:26:38.967304,0
17:26:38.967304,2304
17:26:38.967304,0
17:26:38.967304,23
17:26:38.967304,9472
17:26:38.967304,0
17:26:38.967304,56
17:26:38.967304,17408
17:26:38.967304,0
17:26:38.967304,82
17:26:38.967304,22784
17:26:38.967304,0
17:26:38.967304,94
17:26:38.967304,26624
17:26:38.967304,0
17:26:38.967304,111
17:26:38.967304,25344
17:26:38.967304,0
17:26:38.967304,68
17:26:38.967304,10752
17:26:38.967304,0
17:26:38.967304,30
17:26:38.967304,4096
17:26:38.967304,0
17:26:38.967304,2
17:26:38.967304,-2816
17:26:38.967304,-1
17:26:38.967304,-28
17:26:38.967304,-8705
17:26:38.967304,-1
17:26:38.967304,-37
17:26:38.967304,-8705
17:26:38.967304,-1
17:26:38.967304,-23
17:26:38.967304,-4353
17:26:38.967304,-1
17:26:38.967304,-21
17:26:38.967304,-4353
17:26:38.967304,-1
17:26:38.967304,-11
17:26:38.967304,-257
17:26:38.967304,-1
17:26:38.967304,0
17:26:38.967304,512
17:26:38.967304,0
17:26:38.967304,7
17:26:38.967304,1024
17:26:38.967304,0
17:26:38.967304,7
17:26:38.967304,2816
17:26:38.967304,0
17:26:38.967304,14
17:26:38.967304,4096
17:26:38.967304,0
17:26:38.967304,18
17:26:38.967304,5376
17:26:38.967304,0
17:26:38.967304,26
17:26:38.967304,6656
17:26:38.967304,0
17:26:38.967304,26
17:26:38.967304,8448
17:26:38.967304,0
17:26:38.967304,35
17:26:38.967304,7680
17:26:38.967304,0
17:26:38.967304,23
17:26:38.967304,8448
17:26:38.967304,0
17:26:38.967304,35
17:26:38.967304,7680
17:26:38.967304,0
17:26:38.967304,30
17:26:38.967304,8448
17:26:38.967304,0
17:26:38.967304,35
17:26:38.967304,8960
17:26:38.967304,0
17:26:38.967304,30
17:26:38.967304,9472
17:26:38.967304,0
17:26:38.967304,35
17:26:38.967304,7168
17:26:38.967304,0
17:26:38.967304,33
17:26:38.967304,10240
17:26:38.967304,0
17:26:38.967304,40
17:26:38.967304,9472
17:26:38.967304,0
17:26:38.967304,33
17:26:38.967304,8448
17:26:38.967304,0
17:26:38.967304,37
17:26:38.967304,9472
17:26:38.967304,0
17:26:38.967304,40
17:26:38.967304,10752
17:26:38.967304,0
17:26:38.967304,47
17:26:38.967304,11264
17:26:38.967304,0
17:26:38.967304,42
17:26:38.967304,11264
17:26:38.967304,0
17:26:38.967304,42
17:26:39.509336,44
17:26:39.509336,11264
17:26:39.509336,0
17:26:39.509336,40
17:26:39.509336,8448
17:26:39.509336,0
17:26:39.509336,23
17:26:39.509336,4096
17:26:39.509336,0
17:26:39.509336,16
17:26:39.509336,7680
17:26:39.509336,0
17:26:39.509336,63
17:26:39.509336,25344
17:26:39.509336,0
17:26:39.509336,104
17:26:39.509336,19968
17:26:39.509336,0
17:26:39.509336,56
17:26:39.509336,18176
17:26:39.509336,0
17:26:39.509336,82
17:26:39.509336,19200
17:26:39.509336,0
17:26:39.509336,73
17:26:39.509336,17408
17:26:39.509336,0
17:26:39.509336,40
17:26:39.509336,-18688
17:26:39.509336,-1
17:26:39.509336,-229
17:26:39.509336,-27393
17:26:39.509336,-1
17:26:39.509336,492
17:26:39.509336,26368
17:26:39.509336,4
17:26:39.509336,1058
17:26:39.509336,-31744
17:26:39.509336,1
17:26:39.509336,7
17:26:39.509336,10752
17:26:39.509336,0
17:26:39.509336,4
17:26:39.509336,-18176
17:26:39.509336,-1
17:26:39.509336,-42
17:26:39.509336,-6913
17:26:39.509336,-1
17:26:39.509336,-52
17:26:39.509336,-12289
17:26:39.509336,-1
17:26:39.509336,-30
17:26:39.509336,-7425
17:26:39.509336,-1
17:26:39.509336,-30
17:26:39.509336,-5633
17:26:39.509336,-1
17:26:39.509336,-18
17:26:39.509336,-3841
17:26:39.509336,-1
17:26:39.509336,-9
17:26:39.509336,-769
17:26:39.509336,-1
17:26:39.509336,4
17:26:39.509336,2816
17:26:39.509336,0
17:26:39.509336,18
17:26:39.509336,7680
17:26:39.509336,0
17:26:39.509336,40
17:26:39.509336,13312
17:26:39.509336,0
17:26:39.509336,66
17:26:39.509336,20992
17:26:39.509336,0
17:26:39.509336,97
17:26:39.509336,25856
17:26:39.509336,0
17:26:39.509336,106
17:26:39.509336,27136
17:26:39.509336,0
17:26:39.509336,99
17:26:39.509336,20992
17:26:39.509336,0
17:26:39.509336,54
17:26:39.509336,4608
17:26:39.509336,0
17:26:39.509336,-9
17:26:39.509336,-7425
17:26:39.509336,-1
17:26:39.509336,-37
17:26:39.509336,-10497
17:26:39.509336,-1
17:26:39.509336,-49
17:26:39.509336,-13057
17:26:39.509336,-1
17:26:39.509336,-54
17:26:39.509336,-13569
17:26:39.509336,-1
17:26:39.509336,-52
17:26:39.509336,-12289
17:26:39.509336,-1
17:26:39.509336,-44
17:26:39.509336,-10497
17:26:39.509336,-1
17:26:39.509336,-42
17:26:39.509336,-9985
17:26:39.509336,-1
17:26:39.509336,-40
17:26:40.139334,-30
17:26:40.139334,-5121
17:26:40.139334,-1
17:26:40.139334,-21
17:26:40.139334,-4353
17:26:40.139334,-1
17:26:40.139334,-16
17:26:40.139334,-3329
17:26:40.139334,-1
17:26:40.139334,-2
17:26:40.139334,3071
17:26:40.139334,0
17:26:40.139334,11
17:26:40.139334,1024
17:26:40.139334,0
17:26:40.139334,4
17:26:40.139334,1792
17:26:40.139334,0
17:26:40.139334,4
17:26:40.139334,1024
17:26:40.139334,0
17:26:40.139334,7
17:26:40.139334,1792
17:26:40.139334,0
17:26:40.139334,7
17:26:40.139334,1024
17:26:40.139334,0
17:26:40.139334,9
17:26:40.139334,3584
17:26:40.139334,0
17:26:40.139334,11
17:26:40.139334,2816
17:26:40.139334,0
17:26:40.139334,9
17:26:40.139334,2304
17:26:40.139334,0
17:26:40.139334,11
17:26:40.139334,2304
17:26:40.139334,0
17:26:40.139334,9
17:26:40.139334,2816
17:26:40.139334,0
17:26:40.139334,9
17:26:40.139334,2816
17:26:40.139334,0
17:26:40.139334,14
17:26:40.139334,2816
17:26:40.139334,0
17:26:40.139334,11
17:26:40.139334,2304
17:26:40.139334,0
17:26:40.139334,11
17:26:40.139334,2816
17:26:40.139334,0
17:26:40.139334,11
17:26:40.139334,3584
17:26:40.139334,0
17:26:40.139334,14
17:26:40.139334,2816
17:26:40.139334,0
17:26:40.139334,4
17:26:40.139334,-1792
17:26:40.139334,-1
17:26:40.139334,-18
17:26:40.139334,-5633
17:26:40.139334,-1
17:26:40.139334,-9
17:26:40.139334,5631
17:26:40.139334,0
17:26:40.139334,44
17:26:40.139334,12032
17:26:40.139334,0
17:26:40.139334,33
17:26:40.139334,5888
17:26:40.139334,0
17:26:40.139334,28
17:26:40.139334,8960
17:26:40.139334,0
17:26:40.139334,42
17:26:40.139334,10752
17:26:40.139334,0
17:26:40.139334,42
17:26:40.139334,7680
17:26:40.139334,0
17:26:40.139334,-63
17:26:40.139334,3583
17:26:40.139334,-1
17:26:40.139334,-222
17:26:40.139334,19967
17:26:40.139334,1
17:26:40.139334,1176
17:26:40.139334,30976
17:26:40.139334,5
17:26:40.139334,660
17:26:40.139334,-3584
17:26:40.139334,-1
17:26:40.139334,-14
17:26:40.139334,9215
17:26:40.139334,0
17:26:40.139334,-80
17:26:40.139334,-20225
17:26:40.139334,-1
17:26:40.139334,-37
17:26:40.139334,-16641
17:26:40.139334,-1
17:26:40.139334,-71
17:26:40.139334,-11009
17:26:40.139334,-1
17:26:40.139334,-49
17:26:40.634732,-49
17:26:40.634732,-10497
17:26:40.634732,-1
17:26:40.634732,-40
17:26:40.634732,-9217
17:26:40.634732,-1
17:26:40.634732,-33
17:26:40.634732,-5633
17:26:40.634732,-1
17:26:40.634732,-16
17:26:40.634732,-3329
17:26:40.634732,-1
17:26:40.634732,-7
17:26:40.634732,767
17:26:40.634732,0
17:26:40.634732,16
17:26:40.634732,7680
17:26:40.634732,0
17:26:40.634732,40
17:26:40.634732,12032
17:26:40.634732,0
17:26:40.634732,54
17:26:40.634732,16128
17:26:40.634732,0
17:26:40.634732,87
17:26:40.634732,22784
17:26:40.634732,0
17:26:40.634732,78
17:26:40.634732,17408
17:26:40.634732,0
17:26:40.634732,49
17:26:40.634732,7168
17:26:40.634732,0
17:26:40.634732,9
17:26:40.634732,-1024
17:26:40.634732,-1
17:26:40.634732,-16
17:26:40.634732,-6401
17:26:40.634732,-1
17:26:40.634732,-26
17:26:40.634732,-5633
17:26:40.634732,-1
17:26:40.634732,-23
17:26:40.634732,-4353
17:26:40.634732,-1
17:26:40.634732,-16
17:26:40.634732,-3329
17:26:40.634732,-1
17:26:40.634732,-9
17:26:40.634732,-1537
17:26:40.634732,-1
17:26:40.634732,-2
17:26:40.634732,-257
17:26:40.634732,-1
17:26:40.634732,-2
17:26:40.634732,255
17:26:40.634732,0
17:26:40.634732,0
17:26:40.634732,1024
17:26:40.634732,0
17:26:40.634732,4
17:26:40.634732,1024
17:26:40.634732,0
17:26:40.634732,4
17:26:40.634732,2304
17:26:40.634732,0
17:26:40.634732,14
17:26:40.634732,4096
17:26:40.634732,0
17:26:40.634732,16
17:26:40.634732,4096
17:26:40.634732,0
17:26:40.634732,16
17:26:40.634732,4096
17:26:40.634732,0
17:26:40.634732,18
17:26:40.634732,4608
17:26:40.634732,0
17:26:40.634732,18
17:26:40.634732,4608
17:26:40.634732,0
17:26:40.634732,18
17:26:40.634732,4608
17:26:40.634732,0
17:26:40.634732,18
17:26:40.634732,5376
17:26:40.634732,0
17:26:40.634732,21
17:26:40.634732,5888
17:26:40.634732,0
17:26:40.634732,28
17:26:40.634732,7168
17:26:40.634732,0
17:26:40.634732,26
17:26:40.634732,7680
17:26:40.634732,0
17:26:40.634732,28
17:26:40.634732,7168
17:26:40.634732,0
17:26:40.634732,30
17:26:40.634732,7168
17:26:40.634732,0
17:26:40.634732,28
17:26:40.634732,6656
17:26:40.634732,0
17:26:40.634732,28
17:26:40.634732,7680
17:26:40.634732,0
17:26:40.634732,26
17:26:41.174780,28
17:26:41.174780,7168
17:26:41.174780,0
17:26:41.174780,30
17:26:41.174780,7680
17:26:41.174780,0
17:26:41.174780,30
17:26:41.174780,7680
17:26:41.174780,0
17:26:41.174780,40
17:26:41.174780,13824
17:26:41.174780,0
17:26:41.174780,61
17:26:41.174780,13312
17:26:41.174780,0
17:26:41.174780,44
17:26:41.174780,9472
17:26:41.174780,0
17:26:41.174780,18
17:26:41.174780,2816
17:26:41.174780,0
17:26:41.174780,23
17:26:41.174780,10752
17:26:41.174780,0
17:26:41.174780,68
17:26:41.174780,19968
17:26:41.174780,0
17:26:41.174780,66
17:26:41.174780,12544
17:26:41.174780,0
17:26:41.174780,49
17:26:41.174780,14336
17:26:41.174780,0
17:26:41.174780,56
17:26:41.174780,13824
17:26:41.174780,0
17:26:41.174780,54
17:26:41.174780,11264
17:26:41.174780,0
17:26:41.174780,-26
17:26:41.174780,15615
17:26:41.174780,-1
17:26:41.174780,-229
17:26:41.174780,-7169
17:26:41.174780,0
17:26:41.174780,1032
17:26:41.174780,23296
17:26:41.174780,5
17:26:41.174780,762
17:26:41.174780,13824
17:26:41.174780,0
17:26:41.174780,-11
17:26:41.174780,14079
17:26:41.174780,0
17:26:41.174780,-59
17:26:41.174780,-19713
17:26:41.174780,-1
17:26:41.174780,-33
17:26:41.174780,-13057
17:26:41.174780,-1
17:26:41.174780,-68
17:26:41.174780,-11777
17:26:41.174780,-1
17:26:41.174780,-42
17:26:41.174780,-11777
17:26:41.174780,-1
17:26:41.174780,-40
17:26:41.174780,-8193
17:26:41.174780,-1
17:26:41.174780,-33
17:26:41.174780,-6913
17:26:41.174780,-1
17:26:41.174780,-21
17:26:41.174780,-3841
17:26:41.174780,-1
17:26:41.174780,-11
17:26:41.174780,-257
17:26:41.174780,-1
17:26:41.174780,16
17:26:41.174780,7168
17:26:41.174780,0
17:26:41.174780,35
17:26:41.174780,12032
17:26:41.174780,0
17:26:41.174780,61
17:26:41.174780,19200
17:26:41.174780,0
17:26:41.174780,92
17:26:41.174780,25344
17:26:41.174780,0
17:26:41.174780,104
17:26:41.174780,26624
17:26:41.174780,0
17:26:41.174780,94
17:26:41.174780,19968
17:26:41.174780,0
17:26:41.174780,52
17:26:41.174780,7168
17:26:41.174780,0
17:26:41.174780,7
17:26:41.174780,-2304
17:26:41.174780,-1
17:26:41.174780,-16
17:26:41.174780,-6401
17:26:41.174780,-1
17:26:41.174780,-28
17:26:41.174780,-6913
17:26:41.174780,-1
17:26:41.174780,-26
17:26:41.805864,-23
17:26:41.805864,-6401
17:26:41.805864,-1
17:26:41.805864,-21
17:26:41.805864,-2049
17:26:41.805864,-1
17:26:41.805864,2
17:26:41.805864,3584
17:26:41.805864,0
17:26:41.805864,11
17:26:41.805864,2304
17:26:41.805864,0
17:26:41.805864,16
17:26:41.805864,4096
17:26:41.805864,0
17:26:41.805864,14
17:26:41.805864,4608
17:26:41.805864,0
17:26:41.805864,18
17:26:41.805864,4608
17:26:41.805864,0
17:26:41.805864,16
17:26:41.805864,4096
17:26:41.805864,0
17:26:41.805864,18
17:26:41.805864,4608
17:26:41.805864,0
17:26:41.805864,16
17:26:41.805864,3584
17:26:41.805864,0
17:26:41.805864,18
17:26:41.805864,6656
17:26:41.805864,0
17:26:41.805864,23
17:26:41.805864,5888
17:26:41.805864,0
17:26:41.805864,23
17:26:41.805864,6656
17:26:41.805864,0
17:26:41.805864,28
17:26:41.805864,7168
17:26:41.805864,0
17:26:41.805864,30
17:26:41.805864,7680
17:26:41.805864,0
17:26:41.805864,21
17:26:41.805864,5376
17:26:41.805864,0
17:26:41.805864,28
17:26:41.805864,7168
17:26:41.805864,0
17:26:41.805864,28
17:26:41.805864,7168
17:26:41.805864,0
17:26:41.805864,26
17:26:41.805864,6656
17:26:41.805864,0
17:26:41.805864,23
17:26:41.805864,7168
17:26:41.805864,0
17:26:41.805864,28
17:26:41.805864,6656
17:26:41.805864,0
17:26:41.805864,26
17:26:41.805864,7168
17:26:41.805864,0
17:26:41.805864,35
17:26:41.805864,8960
17:26:41.805864,0
17:26:41.805864,33
17:26:41.805864,8960
17:26:41.805864,0
17:26:41.805864,35
17:26:41.805864,8960
17:26:41.805864,0
17:26:41.805864,33
17:26:41.805864,8960
17:26:41.805864,0
17:26:41.805864,37
17:26:41.805864,7168
17:26:41.805864,0
17:26:41.805864,14
17:26:41.805864,-512
17:26:41.805864,-1
17:26:41.805864,-21
17:26:41.805864,-5633
17:26:41.805864,-1
17:26:41.805864,-7
17:26:41.805864,3839
17:26:41.805864,0
17:26:41.805864,33
17:26:41.805864,8448
17:26:41.805864,0
17:26:41.805864,23
17:26:41.805864,5888
17:26:41.805864,0
17:26:41.805864,33
17:26:41.805864,10240
17:26:41.805864,0
17:26:41.805864,37
17:26:41.805864,9472
17:26:41.805864,0
17:26:41.805864,40
17:26:41.805864,0
17:26:41.805864,0
17:26:41.805864,-142
17:26:41.805864,1023
17:26:41.805864,-1
17:26:41.805864,11
17:26:42.345038,691
17:26:42.345038,-27136
17:26:42.345038,4
17:26:42.345038,871
17:26:42.345038,-7424
17:26:42.345038,0
17:26:42.345038,14
17:26:42.345038,15104
17:26:42.345038,0
17:26:42.345038,-28
17:26:42.345038,-20225
17:26:42.345038,-1
17:26:42.345038,-33
17:26:42.345038,-8705
17:26:42.345038,-1
17:26:42.345038,-59
17:26:42.345038,-10497
17:26:42.345038,-1
17:26:42.345038,-30
17:26:42.345038,-5121
17:26:42.345038,-1
17:26:42.345038,-2
17:26:42.345038,767
17:26:42.345038,0
17:26:42.345038,-2
17:26:42.345038,1279
17:26:42.345038,0
17:26:42.345038,14
17:26:42.345038,5376
17:26:42.345038,0
17:26:42.345038,30
17:26:42.345038,9472
17:26:42.345038,0
17:26:42.345038,44
17:26:42.345038,14336
17:26:42.345038,0
17:26:42.345038,68
17:26:42.345038,20480
17:26:42.345038,0
17:26:42.345038,94
17:26:42.345038,26624
17:26:42.345038,0
17:26:42.345038,111
17:26:42.345038,30720
17:26:42.345038,0
17:26:42.345038,123
17:26:42.345038,31488
17:26:42.345038,0
17:26:42.345038,113
17:26:42.345038,24064
17:26:42.345038,0
17:26:42.345038,66
17:26:42.345038,8960
17:26:42.345038,0
17:26:42.345038,14
17:26:42.345038,-512
17:26:42.345038,-1
17:26:42.345038,-18
17:26:42.345038,-6401
17:26:42.345038,-1
17:26:42.345038,-30
17:26:42.345038,-9217
17:26:42.345038,-1
17:26:42.345038,-37
17:26:42.345038,-8705
17:26:42.345038,-1
17:26:42.345038,-33
17:26:42.345038,-8705
17:26:42.345038,-1
17:26:42.345038,-35
17:26:42.345038,-6913
17:26:42.345038,-1
17:26:42.345038,-26
17:26:42.345038,-5633
17:26:42.345038,-1
17:26:42.345038,-21
17:26:42.345038,-5121
17:26:42.345038,-1
17:26:42.345038,-16
17:26:42.345038,-3329
17:26:42.345038,-1
17:26:42.345038,-11
17:26:42.345038,-2049
17:26:42.345038,-1
17:26:42.345038,-11
17:26:42.345038,-2561
17:26:42.345038,-1
17:26:42.345038,-11
17:26:42.345038,-3329
17:26:42.345038,-1
17:26:42.345038,-11
17:26:42.345038,-2561
17:26:42.345038,-1
17:26:42.345038,-11
17:26:42.345038,-2561
17:26:42.345038,-1
17:26:42.345038,-14
17:26:42.345038,-2561
17:26:42.345038,-1
17:26:42.345038,-11
17:26:42.345038,-3329
17:26:42.345038,-1
17:26:42.345038,-11
17:26:42.345038,-2561
17:26:42.345038,-1
17:26:42.345038,-11
17:26:42.345038,-2561
17:26:42.345038,-1
17:26:42.345038,-11
17:26:42.884693,-9
17:26:42.884693,-2049
17:26:42.884693,-1
17:26:42.884693,-9
17:26:42.884693,-2049
17:26:42.884693,-1
17:26:42.884693,-11
17:26:42.884693,-2049
17:26:42.884693,-1
17:26:42.884693,-9
17:26:42.884693,-769
17:26:42.884693,-1
17:26:42.884693,0
17:26:42.884693,-512
17:26:42.884693,-1
17:26:42.884693,7
17:26:42.884693,5888
17:26:42.884693,0
17:26:42.884693,23
17:26:42.884693,4096
17:26:42.884693,0
17:26:42.884693,16
17:26:42.884693,4608
17:26:42.884693,0
17:26:42.884693,18
17:26:42.884693,4096
17:26:42.884693,0
17:26:42.884693,16
17:26:42.884693,2816
17:26:42.884693,0
17:26:42.884693,0
17:26:42.884693,-3584
17:26:42.884693,-1
17:26:42.884693,-18
17:26:42.884693,-769
17:26:42.884693,-1
17:26:42.884693,16
17:26:42.884693,7680
17:26:42.884693,0
17:26:42.884693,23
17:26:42.884693,-1792
17:26:42.884693,-1
17:26:42.884693,-21
17:26:42.884693,-3329
17:26:42.884693,-1
17:26:42.884693,-7
17:26:42.884693,-1537
17:26:42.884693,-1
17:26:42.884693,-7
17:26:42.884693,-257
17:26:42.884693,-1
17:26:42.884693,-16
17:26:42.884693,-30465
17:26:42.884693,-1
17:26:42.884693,-284
17:26:42.884693,15615
17:26:42.884693,-1
17:26:42.884693,414
17:26:42.884693,-20992
17:26:42.884693,4
17:26:42.884693,1262
17:26:42.884693,-3328
17:26:42.884693,1
17:26:42.884693,-37
17:26:42.884693,2047
17:26:42.884693,0
17:26:42.884693,9
17:26:42.884693,-26624
17:26:42.884693,-1
17:26:42.884693,-80
17:26:42.884693,-12289
17:26:42.884693,-1
17:26:42.884693,-80
17:26:42.884693,-19713
17:26:42.884693,-1
17:26:42.884693,-56
17:26:42.884693,-14849
17:26:42.884693,-1
17:26:42.884693,-56
17:26:42.884693,-12289
17:26:42.884693,-1
17:26:42.884693,-47
17:26:42.884693,-10497
17:26:42.884693,-1
17:26:42.884693,-37
17:26:42.884693,-6913
17:26:42.884693,-1
17:26:42.884693,-23
17:26:42.884693,-4353
17:26:42.884693,-1
17:26:42.884693,-11
17:26:42.884693,-257
17:26:42.884693,-1
17:26:42.884693,9
17:26:42.884693,5376
17:26:42.884693,0
17:26:42.884693,33
17:26:42.884693,12544
17:26:42.884693,0
17:26:42.884693,63
17:26:42.884693,19200
17:26:42.884693,0
17:26:42.884693,82
17:26:42.884693,22272
17:26:42.884693,0
17:26:42.884693,89
17:26:42.884693,19968
17:26:42.884693,0
17:26:42.884693,59
17:26:43.422478,37
17:26:43.422478,2816
17:26:43.422478,0
17:26:43.422478,-2
17:26:43.422478,-3329
17:26:43.422478,-1
17:26:43.422478,-26
17:26:43.422478,-7425
17:26:43.422478,-1
17:26:43.422478,-33
17:26:43.422478,-6913
17:26:43.422478,-1
17:26:43.422478,-11
17:26:43.422478,-769
17:26:43.422478,-1
17:26:43.422478,-7
17:26:43.422478,-1537
17:26:43.422478,-1
17:26:43.422478,-2
17:26:43.422478,767
17:26:43.422478,0
17:26:43.422478,0
17:26:43.422478,512
17:26:43.422478,0
17:26:43.422478,2
17:26:43.422478,512
17:26:43.422478,0
17:26:43.422478,7
17:26:43.422478,2304
17:26:43.422478,0
17:26:43.422478,11
17:26:43.422478,4096
17:26:43.422478,0
17:26:43.422478,18
17:26:43.422478,4608
17:26:43.422478,0
17:26:43.422478,16
17:26:43.422478,4608
17:26:43.422478,0
17:26:43.422478,18
17:26:43.422478,4096
17:26:43.422478,0
17:26:43.422478,16
17:26:43.422478,4096
17:26:43.422478,0
17:26:43.422478,18
17:26:43.422478,5376
17:26:43.422478,0
17:26:43.422478,18
17:26:43.422478,4608
17:26:43.422478,0
17:26:43.422478,18
17:26:43.422478,4608
17:26:43.422478,0
17:26:43.422478,21
17:26:43.422478,5376
17:26:43.422478,0
17:26:43.422478,18
17:26:43.422478,4608
17:26:43.422478,0
17:26:43.422478,16
17:26:43.422478,4096
17:26:43.422478,0
17:26:43.422478,18
17:26:43.422478,4608
17:26:43.422478,0
17:26:43.422478,21
17:26:43.422478,4608
17:26:43.422478,0
17:26:43.422478,18
17:26:43.422478,4608
17:26:43.422478,0
17:26:43.422478,21
17:26:43.422478,5376
17:26:43.422478,0
17:26:43.422478,21
17:26:43.422478,4608
17:26:43.422478,0
17:26:43.422478,18
17:26:43.422478,4608
17:26:43.422478,0
17:26:43.422478,18
17:26:43.422478,5376
17:26:43.422478,0
17:26:43.422478,21
17:26:43.422478,5376
17:26:43.422478,0
17:26:43.422478,21
17:26:43.422478,5376
17:26:43.422478,0
17:26:43.422478,18
17:26:43.422478,1792
17:26:43.422478,0
17:26:43.422478,-4
17:26:43.422478,-5633
17:26:43.422478,-1
17:26:43.422478,-33
17:26:43.422478,-2561
17:26:43.422478,-1
17:26:43.422478,14
17:26:43.422478,5888
17:26:43.422478,0
17:26:43.422478,14
17:26:43.422478,512
17:26:43.422478,0
17:26:43.422478,11
17:26:43.422478,5376
17:26:43.422478,0
17:26:43.422478,23
17:26:44.009480,28
17:26:44.009480,7680
17:26:44.009480,0
17:26:44.009480,21
17:26:44.009480,-17408
17:26:44.009480,-1
17:26:44.009480,-234
17:26:44.009480,20479
17:26:44.009480,-1
17:26:44.009480,383
17:26:44.009480,31232
17:26:44.009480,4
17:26:44.009480,1274
17:26:44.009480,11264
17:26:44.009480,2
17:26:44.009480,-11
17:26:44.009480,6143
17:26:44.009480,0
17:26:44.009480,49
17:26:44.009480,-16128
17:26:44.009480,-1
17:26:44.009480,-49
17:26:44.009480,-2049
17:26:44.009480,-1
17:26:44.009480,-40
17:26:44.009480,-10497
17:26:44.009480,-1
17:26:44.009480,-21
17:26:44.009480,-6913
17:26:44.009480,-1
17:26:44.009480,-33
17:26:44.009480,-5633
17:26:44.009480,-1
17:26:44.009480,-28
17:26:44.009480,-5121
17:26:44.009480,-1
17:26:44.009480,-9
17:26:44.009480,-257
17:26:44.009480,-1
17:26:44.009480,9
17:26:44.009480,5376
17:26:44.009480,0
17:26:44.009480,30
17:26:44.009480,8960
17:26:44.009480,0
17:26:44.009480,37
17:26:44.009480,13312
17:26:44.009480,0
17:26:44.009480,63
17:26:44.009480,19200
17:26:44.009480,0
17:26:44.009480,99
17:26:44.009480,27136
17:26:44.009480,0
17:26:44.009480,108
17:26:44.009480,28416
17:26:44.009480,0
17:26:44.009480,111
17:26:44.009480,28928
17:26:44.009480,0
17:26:44.009480,94
17:26:44.009480,15616
17:26:44.009480,0
17:26:44.009480,35
17:26:44.009480,4096
17:26:44.009480,0
17:26:44.009480,4
17:26:44.009480,-3584
17:26:44.009480,-1
17:26:44.009480,-21
17:26:44.009480,-4353
17:26:44.009480,-1
17:26:44.009480,-28
17:26:44.009480,-6401
17:26:44.009480,-1
17:26:44.009480,-18
17:26:44.009480,-3841
17:26:44.009480,-1
17:26:44.009480,-4
17:26:44.009480,-769
17:26:44.009480,-1
17:26:44.009480,-11
17:26:44.009480,-2049
17:26:44.009480,-1
17:26:44.009480,-7
17:26:44.009480,-2049
17:26:44.009480,-1
17:26:44.009480,-7
17:26:44.009480,767
17:26:44.009480,0
17:26:44.009480,4
17:26:44.009480,-1024
17:26:44.009480,-1
17:26:44.009480,4
17:26:44.009480,2304
17:26:44.009480,0
17:26:44.009480,0
17:26:44.009480,1792
17:26:44.009480,0
17:26:44.009480,2
17:26:44.009480,-1792
17:26:44.009480,-1
17:26:44.009480,0
17:26:44.009480,1792
17:26:44.009480,0
17:26:44.009480,9
17:26:44.009480,512
17:26:44.009480,0
17:26:44.009480,0
17:26:44.550081,4
17:26:44.550081,-512
17:26:44.550081,-1
17:26:44.550081,2
17:26:44.550081,2304
17:26:44.550081,0
17:26:44.550081,11
17:26:44.550081,2304
17:26:44.550081,0
17:26:44.550081,4
17:26:44.550081,3584
17:26:44.550081,0
17:26:44.550081,35
17:26:44.550081,9472
17:26:44.550081,0
17:26:44.550081,40
17:26:44.550081,10240
17:26:44.550081,0
17:26:44.550081,33
17:26:44.550081,11264
17:26:44.550081,0
17:26:44.550081,49
17:26:44.550081,12032
17:26:44.550081,0
17:26:44.550081,44
17:26:44.550081,10240
17:26:44.550081,0
17:26:44.550081,42
17:26:44.550081,10752
17:26:44.550081,0
17:26:44.550081,40
17:26:44.550081,8448
17:26:44.550081,0
17:26:44.550081,18
17:26:44.550081,3584
17:26:44.550081,0
17:26:44.550081,7
17:26:44.550081,1024
17:26:44.550081,0
17:26:44.550081,30
17:26:44.550081,14336
17:26:44.550081,0
17:26:44.550081,68
17:26:44.550081,14336
17:26:44.550081,0
17:26:44.550081,42
17:26:44.550081,12544
17:26:44.550081,0
17:26:44.550081,49
17:26:44.550081,11264
17:26:44.550081,0
17:26:44.550081,44
17:26:44.550081,11264
17:26:44.550081,0
17:26:44.550081,40
17:26:44.550081,-4608
17:26:44.550081,-1
17:26:44.550081,-175
17:26:44.550081,5375
17:26:44.550081,-1
17:26:44.550081,134
17:26:44.550081,30720
17:26:44.550081,3
17:26:44.550081,1283
17:26:44.550081,5120
17:26:44.550081,3
17:26:44.550081,116
17:26:44.550081,1024
17:26:44.550081,0
17:26:44.550081,63
17:26:44.550081,-8960
17:26:44.550081,-1
17:26:44.550081,-66
17:26:44.550081,-4353
17:26:44.550081,-1
17:26:44.550081,-37
17:26:44.550081,-13569
17:26:44.550081,-1
17:26:44.550081,-28
17:26:44.550081,-6913
17:26:44.550081,-1
17:26:44.550081,-28
17:26:44.550081,-3841
17:26:44.550081,-1
17:26:44.550081,-14
17:26:44.550081,-2561
17:26:44.550081,-1
17:26:44.550081,-9
17:26:44.550081,-1537
17:26:44.550081,-1
17:26:44.550081,4
17:26:44.550081,4096
17:26:44.550081,0
17:26:44.550081,26
17:26:44.550081,7680
17:26:44.550081,0
17:26:44.550081,37
17:26:44.550081,14336
17:26:44.550081,0
17:26:44.550081,68
17:26:44.550081,21760
17:26:44.550081,0
17:26:44.550081,104
17:26:44.550081,27136
17:26:44.550081,0
17:26:44.550081,111
17:26:44.550081,31488
17:26:44.550081,0
17:26:44.550081,125
17:26:45.133826,111
17:26:45.133826,21760
17:26:45.133826,0
17:26:45.133826,71
17:26:45.133826,12032
17:26:45.133826,0
17:26:45.133826,16
17:26:45.133826,2816
17:26:45.133826,0
17:26:45.133826,14
17:26:45.133826,3584
17:26:45.133826,0
17:26:45.133826,2
17:26:45.133826,-1024
17:26:45.133826,-1
17:26:45.133826,0
17:26:45.133826,-1792
17:26:45.133826,-1
17:26:45.133826,-21
17:26:45.133826,-6401
17:26:45.133826,-1
17:26:45.133826,-33
17:26:45.133826,-8193
17:26:45.133826,-1
17:26:45.133826,-28
17:26:45.133826,-8705
17:26:45.133826,-1
17:26:45.133826,-37
17:26:45.133826,-6913
17:26:45.133826,-1
17:26:45.133826,-16
17:26:45.133826,-5633
17:26:45.133826,-1
17:26:45.133826,-26
17:26:45.133826,-4353
17:26:45.133826,-1
17:26:45.133826,-26
17:26:45.133826,-6401
17:26:45.133826,-1
17:26:45.133826,-18
17:26:45.133826,-6913
17:26:45.133826,-1
17:26:45.133826,-26
17:26:45.133826,-3329
17:26:45.133826,-1
17:26:45.133826,-14
17:26:45.133826,-2561
17:26:45.133826,-1
17:26:45.133826,-16
17:26:45.133826,-4353
17:26:45.133826,-1
17:26:45.133826,-14
17:26:45.133826,-3841
17:26:45.133826,-1
17:26:45.133826,-16
17:26:45.133826,-4353
17:26:45.133826,-1
17:26:45.133826,-21
17:26:45.133826,-2049
17:26:45.133826,-1
17:26:45.133826,2
17:26:45.133826,1024
17:26:45.133826,0
17:26:45.133826,-7
17:26:45.133826,-1537
17:26:45.133826,-1
17:26:45.133826,2
17:26:45.133826,512
17:26:45.133826,0
17:26:45.133826,4
17:26:45.133826,512
17:26:45.133826,0
17:26:45.133826,-16
17:26:45.133826,-6913
17:26:45.133826,-1
17:26:45.133826,-44
17:26:45.133826,-13569
17:26:45.133826,-1
17:26:45.133826,-42
17:26:45.133826,-6913
17:26:45.133826,-1
17:26:45.133826,11
17:26:45.133826,8960
17:26:45.133826,0
17:26:45.133826,16
17:26:45.133826,2304
17:26:45.133826,0
17:26:45.133826,16
17:26:45.133826,3584
17:26:45.133826,0
17:26:45.133826,9
17:26:45.133826,2816
17:26:45.133826,0
17:26:45.133826,18
17:26:45.133826,4096
17:26:45.133826,0
17:26:45.133826,-4
17:26:45.133826,-25601
17:26:45.133826,-1
17:26:45.133826,-255
17:26:45.133826,24575
17:26:45.133826,-1
17:26:45.133826,371
17:26:45.133826,-17408
17:26:45.133826,3
17:26:45.133826,947
17:26:45.133826,-30464
17:26:45.133826,1
17:26:45.133826,56
17:26:45.718876,54
17:26:45.718876,-1024
17:26:45.718876,-1
17:26:45.718876,-66
17:26:45.718876,-9985
17:26:45.718876,-1
17:26:45.718876,-37
17:26:45.718876,-12289
17:26:45.718876,-1
17:26:45.718876,-44
17:26:45.718876,-8705
17:26:45.718876,-1
17:26:45.718876,-16
17:26:45.718876,2047
17:26:45.718876,0
17:26:45.718876,14
17:26:45.718876,2304
17:26:45.718876,0
17:26:45.718876,14
17:26:45.718876,4096
17:26:45.718876,0
17:26:45.718876,26
17:26:45.718876,10752
17:26:45.718876,0
17:26:45.718876,35
17:26:45.718876,8448
17:26:45.718876,0
17:26:45.718876,49
17:26:45.718876,15104
17:26:45.718876,0
17:26:45.718876,73
17:26:45.718876,25344
17:26:45.718876,0
17:26:45.718876,113
17:26:45.718876,31488
17:26:45.718876,0
17:26:45.718876,120
17:26:45.718876,32000
17:26:45.718876,0
17:26:45.718876,134
17:26:45.718876,-30464
17:26:45.718876,0
17:26:45.718876,127
17:26:45.718876,20480
17:26:45.718876,0
17:26:45.718876,28
17:26:45.718876,1792
17:26:45.718876,0
17:26:45.718876,-11
17:26:45.718876,-6913
17:26:45.718876,-1
17:26:45.718876,-42
17:26:45.718876,-12289
17:26:45.718876,-1
17:26:45.718876,-56
17:26:45.718876,-17153
17:26:45.718876,-1
17:26:45.718876,-61
17:26:45.718876,-10497
17:26:45.718876,-1
17:26:45.718876,-52
17:26:45.718876,-14849
17:26:45.718876,-1
17:26:45.718876,-47
17:26:45.718876,-9985
17:26:45.718876,-1
17:26:45.718876,-47
17:26:45.718876,-11009
17:26:45.718876,-1
17:26:45.718876,-21
17:26:45.718876,-3841
17:26:45.718876,-1
17:26:45.718876,-28
17:26:45.718876,-6913
17:26:45.718876,-1
17:26:45.718876,-28
17:26:45.718876,-6401
17:26:45.718876,-1
17:26:45.718876,-26
17:26:45.718876,-8705
17:26:45.718876,-1
17:26:45.718876,-23
17:26:45.718876,-5121
17:26:45.718876,-1
17:26:45.718876,-28
17:26:45.718876,-5121
17:26:45.718876,-1
17:26:45.718876,-26
17:26:45.718876,-6913
17:26:45.718876,-1
17:26:45.718876,-11
17:26:45.718876,767
17:26:45.718876,0
17:26:45.718876,-2
17:26:45.718876,-2561
17:26:45.718876,-1
17:26:45.718876,0
17:26:45.718876,512
17:26:45.718876,0
17:26:45.718876,-16
17:26:45.718876,-2049
17:26:45.718876,-1
17:26:45.718876,0
17:26:45.718876,-2304
17:26:45.718876,-1
17:26:45.718876,-7
17:26:45.718876,-2561
17:26:45.718876,-1
17:26:45.718876,-16
17:26:46.304683,-28
17:26:46.304683,-12289
17:26:46.304683,-1
17:26:46.304683,-59
17:26:46.304683,-17153
17:26:46.304683,-1
17:26:46.304683,-61
17:26:46.304683,-3841
17:26:46.304683,-1
17:26:46.304683,16
17:26:46.304683,5376
17:26:46.304683,0
17:26:46.304683,2
17:26:46.304683,-3584
17:26:46.304683,-1
17:26:46.304683,-14
17:26:46.304683,255
17:26:46.304683,0
17:26:46.304683,21
17:26:46.304683,4608
17:26:46.304683,0
17:26:46.304683,2
17:26:46.304683,-1792
17:26:46.304683,-1
17:26:46.304683,-99
17:26:46.304683,-5121
17:26:46.304683,-2
17:26:46.304683,-251
17:26:46.304683,3071
17:26:46.304683,1
17:26:46.304683,1041
17:26:46.304683,-7168
17:26:46.304683,4
17:26:46.304683,608
17:26:46.304683,2816
17:26:46.304683,0
17:26:46.304683,-18
17:26:46.304683,2559
17:26:46.304683,0
17:26:46.304683,-87
17:26:46.304683,-23297
17:26:46.304683,-1
17:26:46.304683,-54
17:26:46.304683,-20737
17:26:46.304683,-1
17:26:46.304683,-92
17:26:46.304683,-19713
17:26:46.304683,-1
17:26:46.304683,-89
17:26:46.304683,-22529
17:26:46.304683,-1
17:26:46.304683,-75
17:26:46.304683,-16641
17:26:46.304683,-1
17:26:46.304683,-54
17:26:46.304683,-13057
17:26:46.304683,-1
17:26:46.304683,-42
17:26:46.304683,-6401
17:26:46.304683,-1
17:26:46.304683,-14
17:26:46.304683,-257
17:26:46.304683,-1
17:26:46.304683,-7
17:26:46.304683,-257
17:26:46.304683,-1
17:26:46.304683,26
17:26:46.304683,9472
17:26:46.304683,0
17:26:46.304683,49
17:26:46.304683,16128
17:26:46.304683,0
17:26:46.304683,78
17:26:46.304683,24064
17:26:46.304683,0
17:26:46.304683,85
17:26:46.304683,19968
17:26:46.304683,0
17:26:46.304683,85
17:26:46.304683,16128
17:26:46.304683,0
17:26:46.304683,30
17:26:46.304683,4096
17:26:46.304683,0
17:26:46.304683,0
17:26:46.304683,-4608
17:26:46.304683,-1
17:26:46.304683,-16
17:26:46.304683,-2049
17:26:46.304683,-1
17:26:46.304683,-23
17:26:46.304683,-8193
17:26:46.304683,-1
17:26:46.304683,-18
17:26:46.304683,-769
17:26:46.304683,-1
17:26:46.304683,-7
17:26:46.304683,-3329
17:26:46.304683,-1
17:26:46.304683,-18
17:26:46.304683,-2561
17:26:46.304683,-1
17:26:46.304683,-18
17:26:46.304683,-5121
17:26:46.304683,-1
17:26:46.304683,-14
17:26:46.304683,-4353
17:26:46.304683,-1
17:26:46.304683,-14
17:26:46.797065,0
17:26:46.797065,-512
17:26:46.797065,-1
17:26:46.797065,4
17:26:46.797065,2816
17:26:46.797065,0
17:26:46.797065,7
17:26:46.797065,0
17:26:46.797065,0
17:26:46.797065,11
17:26:46.797065,6656
17:26:46.797065,0
17:26:46.797065,4
17:26:46.797065,0
17:26:46.797065,0
17:26:46.797065,26
17:26:46.797065,5376
17:26:46.797065,0
17:26:46.797065,2
17:26:46.797065,-512
17:26:46.797065,-1
17:26:46.797065,2
17:26:46.797065,4608
17:26:46.797065,0
17:26:46.797065,18
17:26:46.797065,5376
17:26:46.797065,0
17:26:46.797065,35
17:26:46.797065,10240
17:26:46.797065,0
17:26:46.797065,42
17:26:46.797065,10240
17:26:46.797065,0
17:26:46.797065,26
17:26:46.797065,5888
17:26:46.797065,0
17:26:46.797065,16
17:26:46.797065,-1024
17:26:46.797065,-1
17:26:46.797065,-23
17:26:46.797065,-4353
17:26:46.797065,-1
17:26:46.797065,9
17:26:46.797065,9472
17:26:46.797065,0
17:26:46.797065,44
17:26:46.797065,6656
17:26:46.797065,0
17:26:46.797065,0
17:26:46.797065,-512
17:26:46.797065,-1
17:26:46.797065,14
17:26:46.797065,8960
17:26:46.797065,0
17:26:46.797065,35
17:26:46.797065,6656
17:26:46.797065,0
17:26:46.797065,40
17:26:46.797065,512
17:26:46.797065,0
17:26:46.797065,-163
17:26:46.797065,-6145
17:26:46.797065,-2
17:26:46.797065,0
17:26:46.797065,-4608
17:26:46.797065,2
17:26:46.797065,1328
17:26:46.797065,-7168
17:26:46.797065,3
17:26:46.797065,234
17:26:46.797065,-10752
17:26:46.797065,-1
17:26:46.797065,21
17:26:46.797065,-10752
17:26:46.797065,-1
17:26:46.797065,-111
17:26:46.797065,-17921
17:26:46.797065,-1
17:26:46.797065,-66
17:26:46.797065,-22017
17:26:46.797065,-1
17:26:46.797065,-59
17:26:46.797065,-8705
17:26:46.797065,-1
17:26:46.797065,-33
17:26:46.797065,-6913
17:26:46.797065,-1
17:26:46.797065,-40
17:26:46.797065,-9985
17:26:46.797065,-1
17:26:46.797065,-30
17:26:46.797065,-7425
17:26:46.797065,-1
17:26:46.797065,-30
17:26:46.797065,-3841
17:26:46.797065,-1
17:26:46.797065,0
17:26:46.797065,-2304
17:26:46.797065,-1
17:26:46.797065,-16
17:26:46.797065,-257
17:26:46.797065,-1
17:26:46.797065,14
17:26:46.797065,7168
17:26:46.797065,0
17:26:46.797065,47
17:26:46.797065,17408
17:26:46.797065,0
17:26:46.797065,97
17:26:47.384938,113
17:26:47.384938,30208
17:26:47.384938,0
17:26:47.384938,120
17:26:47.384938,23552
17:26:47.384938,0
17:26:47.384938,56
17:26:47.384938,7168
17:26:47.384938,0
17:26:47.384938,9
17:26:47.384938,2304
17:26:47.384938,0
17:26:47.384938,-7
17:26:47.384938,-6913
17:26:47.384938,-1
17:26:47.384938,-23
17:26:47.384938,-3329
17:26:47.384938,-1
17:26:47.384938,-18
17:26:47.384938,-7425
17:26:47.384938,-1
17:26:47.384938,-26
17:26:47.384938,-2561
17:26:47.384938,-1
17:26:47.384938,-11
17:26:47.384938,-769
17:26:47.384938,-1
17:26:47.384938,4
17:26:47.384938,2816
17:26:47.384938,0
17:26:47.384938,18
17:26:47.384938,3584
17:26:47.384938,0
17:26:47.384938,16
17:26:47.384938,4608
17:26:47.384938,0
17:26:47.384938,7
17:26:47.384938,512
17:26:47.384938,0
17:26:47.384938,-4
17:26:47.384938,-769
17:26:47.384938,-1
17:26:47.384938,4
17:26:47.384938,-512
17:26:47.384938,-1
17:26:47.384938,-2
17:26:47.384938,767
17:26:47.384938,0
17:26:47.384938,4
17:26:47.384938,4096
17:26:47.384938,0
17:26:47.384938,14
17:26:47.384938,4608
17:26:47.384938,0
17:26:47.384938,33
17:26:47.384938,7680
17:26:47.384938,0
17:26:47.384938,35
17:26:47.384938,7168
17:26:47.384938,0
17:26:47.384938,21
17:26:47.384938,5888
17:26:47.384938,0
17:26:47.384938,16
17:26:47.384938,5376
17:26:47.384938,0
17:26:47.384938,26
17:26:47.384938,512
17:26:47.384938,0
17:26:47.384938,-16
17:26:47.384938,-6401
17:26:47.384938,-1
17:26:47.384938,-33
17:26:47.384938,-4353
17:26:47.384938,-1
17:26:47.384938,21
17:26:47.384938,13312
17:26:47.384938,0
17:26:47.384938,44
17:26:47.384938,7680
17:26:47.384938,0
17:26:47.384938,26
17:26:47.384938,8448
17:26:47.384938,0
17:26:47.384938,37
17:26:47.384938,6656
17:26:47.384938,0
17:26:47.384938,21
17:26:47.384938,7680
17:26:47.384938,0
17:26:47.384938,4
17:26:47.384938,-22272
17:26:47.384938,-1
17:26:47.384938,-248
17:26:47.384938,9471
17:26:47.384938,-1
17:26:47.384938,298
17:26:47.384938,-2816
17:26:47.384938,3
17:26:47.384938,1155
17:26:47.384938,9472
17:26:47.384938,2
17:26:47.384938,28
17:26:47.384938,2304
17:26:47.384938,0
17:26:47.384938,9
17:26:47.384938,-22784
17:26:47.384938,-1
17:26:47.384938,-71
17:26:47.925014,-37
17:26:47.925014,-14849
17:26:47.925014,-1
17:26:47.925014,-54
17:26:47.925014,-9985
17:26:47.925014,-1
17:26:47.925014,-42
17:26:47.925014,-12289
17:26:47.925014,-1
17:26:47.925014,-44
17:26:47.925014,-11009
17:26:47.925014,-1
17:26:47.925014,-49
17:26:47.925014,-5633
17:26:47.925014,-1
17:26:47.925014,2
17:26:47.925014,1024
17:26:47.925014,0
17:26:47.925014,18
17:26:47.925014,8448
17:26:47.925014,0
17:26:47.925014,42
17:26:47.925014,15104
17:26:47.925014,0
17:26:47.925014,63
17:26:47.925014,19968
17:26:47.925014,0
17:26:47.925014,104
17:26:47.925014,-32256
17:26:47.925014,0
17:26:47.925014,144
17:26:47.925014,-29184
17:26:47.925014,0
17:26:47.925014,149
17:26:47.925014,-29184
17:26:47.925014,0
17:26:47.925014,104
17:26:47.925014,16896
17:26:47.925014,0
17:26:47.925014,37
17:26:47.925014,5376
17:26:47.925014,0
17:26:47.925014,4
17:26:47.925014,-4608
17:26:47.925014,-1
17:26:47.925014,-16
17:26:47.925014,-3329
17:26:47.925014,-1
17:26:47.925014,-23
17:26:47.925014,-2561
17:26:47.925014,-1
17:26:47.925014,-14
17:26:47.925014,-6913
17:26:47.925014,-1
17:26:47.925014,-14
17:26:47.925014,2047
17:26:47.925014,0
17:26:47.925014,11
17:26:47.925014,2304
17:26:47.925014,0
17:26:47.925014,11
17:26:47.925014,2816
17:26:47.925014,0
17:26:47.925014,0
17:26:47.925014,512
17:26:47.925014,0
17:26:47.925014,2
17:26:47.925014,512
17:26:47.925014,0
17:26:47.925014,11
17:26:47.925014,1792
17:26:47.925014,0
17:26:47.925014,9
17:26:47.925014,4096
17:26:47.925014,0
17:26:47.925014,7
17:26:47.925014,1792
17:26:47.925014,0
17:26:47.925014,16
17:26:47.925014,4096
17:26:47.925014,0
17:26:47.925014,11
17:26:47.925014,3584
17:26:47.925014,0
17:26:47.925014,30
17:26:47.925014,9472
17:26:47.925014,0
17:26:47.925014,26
17:26:47.925014,5888
17:26:47.925014,0
17:26:47.925014,14
17:26:47.925014,1792
17:26:47.925014,0
17:26:47.925014,7
17:26:47.925014,1024
17:26:47.925014,0
17:26:47.925014,4
17:26:47.925014,-3584
17:26:47.925014,-1
17:26:47.925014,-33
17:26:47.925014,-8705
17:26:47.925014,-1
17:26:47.925014,-40
17:26:47.925014,-3329
17:26:47.925014,-1
17:26:47.925014,30
17:26:47.925014,10752
17:26:47.925014,0
17:26:47.925014,28
17:26:48.505964,11
17:26:48.505964,4608
17:26:48.505964,0
17:26:48.505964,26
17:26:48.505964,5888
17:26:48.505964,0
17:26:48.505964,30
17:26:48.505964,4608
17:26:48.505964,0
17:26:48.505964,9
17:26:48.505964,512
17:26:48.505964,0
17:26:48.505964,-113
17:26:48.505964,-5121
17:26:48.505964,-2
17:26:48.505964,-144
17:26:48.505964,-12801
17:26:48.505964,1
17:26:48.505964,1072
17:26:48.505964,-15616
17:26:48.505964,3
17:26:48.505964,348
17:26:48.505964,7680
17:26:48.505964,0
17:26:48.505964,37
17:26:48.505964,-2816
17:26:48.505964,-1
17:26:48.505964,-71
17:26:48.505964,-10497
17:26:48.505964,-1
17:26:48.505964,-21
17:26:48.505964,-9217
17:26:48.505964,-1
17:26:48.505964,-30
17:26:48.505964,-4353
17:26:48.505964,-1
17:26:48.505964,-37
17:26:48.505964,-9985
17:26:48.505964,-1
17:26:48.505964,-35
17:26:48.505964,-6913
17:26:48.505964,-1
17:26:48.505964,-33
17:26:48.505964,-9217
17:26:48.505964,-1
17:26:48.505964,-18
17:26:48.505964,-3329
17:26:48.505964,-1
17:26:48.505964,-18
17:26:48.505964,-1537
17:26:48.505964,-1
17:26:48.505964,2
17:26:48.505964,2816
17:26:48.505964,0
17:26:48.505964,26
17:26:48.505964,12032
17:26:48.505964,0
17:26:48.505964,75
17:26:48.505964,23552
17:26:48.505964,0
17:26:48.505964,108
17:26:48.505964,31488
17:26:48.505964,0
17:26:48.505964,111
17:26:48.505964,22784
17:26:48.505964,0
17:26:48.505964,71
17:26:48.505964,12544
17:26:48.505964,0
17:26:48.505964,16
17:26:48.505964,-5888
17:26:48.505964,-1
17:26:48.505964,-33
17:26:48.505964,-9217
17:26:48.505964,-1
17:26:48.505964,-56
17:26:48.505964,-14849
17:26:48.505964,-1
17:26:48.505964,-56
17:26:48.505964,-15361
17:26:48.505964,-1
17:26:48.505964,-61
17:26:48.505964,-13057
17:26:48.505964,-1
17:26:48.505964,-42
17:26:48.505964,-12289
17:26:48.505964,-1
17:26:48.505964,-35
17:26:48.505964,-769
17:26:48.505964,-1
17:26:48.505964,-11
17:26:48.505964,-5121
17:26:48.505964,-1
17:26:48.505964,-9
17:26:48.505964,-1537
17:26:48.505964,-1
17:26:48.505964,-7
17:26:48.505964,-2049
17:26:48.505964,-1
17:26:48.505964,-7
17:26:48.505964,-2561
17:26:48.505964,-1
17:26:48.505964,-30
17:26:48.505964,-5633
17:26:48.505964,-1
17:26:48.505964,-14
17:26:48.505964,-5121
17:26:48.505964,-1
17:26:48.505964,-21
17:26:49.047333,-21
17:26:49.047333,-2561
17:26:49.047333,-1
17:26:49.047333,-4
17:26:49.047333,-769
17:26:49.047333,-1
17:26:49.047333,9
17:26:49.047333,4608
17:26:49.047333,0
17:26:49.047333,21
17:26:49.047333,7168
17:26:49.047333,0
17:26:49.047333,26
17:26:49.047333,7680
17:26:49.047333,0
17:26:49.047333,33
17:26:49.047333,8448
17:26:49.047333,0
17:26:49.047333,37
17:26:49.047333,7680
17:26:49.047333,0
17:26:49.047333,21
17:26:49.047333,1792
17:26:49.047333,0
17:26:49.047333,-18
17:26:49.047333,-7425
17:26:49.047333,-1
17:26:49.047333,-30
17:26:49.047333,1279
17:26:49.047333,0
17:26:49.047333,61
17:26:49.047333,16128
17:26:49.047333,0
17:26:49.047333,47
17:26:49.047333,9472
17:26:49.047333,0
17:26:49.047333,33
17:26:49.047333,10752
17:26:49.047333,0
17:26:49.047333,40
17:26:49.047333,8960
17:26:49.047333,0
17:26:49.047333,35
17:26:49.047333,6656
17:26:49.047333,0
17:26:49.047333,-4
17:26:49.047333,31487
17:26:49.047333,-1
17:26:49.047333,-298
17:26:49.047333,30719
17:26:49.047333,-1
17:26:49.047333,575
17:26:49.047333,9216
17:26:49.047333,5
17:26:49.047333,1176
17:26:49.047333,24064
17:26:49.047333,1
17:26:49.047333,-66
17:26:49.047333,1279
17:26:49.047333,0
17:26:49.047333,-28
17:26:49.047333,-31233
17:26:49.047333,-1
17:26:49.047333,-97
17:26:49.047333,-17921
17:26:49.047333,-1
17:26:49.047333,-97
17:26:49.047333,-24577
17:26:49.047333,-1
17:26:49.047333,-85
17:26:49.047333,-22017
17:26:49.047333,-1
17:26:49.047333,-78
17:26:49.047333,-17921
17:26:49.047333,-1
17:26:49.047333,-68
17:26:49.047333,-13569
17:26:49.047333,-1
17:26:49.047333,-56
17:26:49.047333,-14849
17:26:49.047333,-1
17:26:49.047333,-49
17:26:49.047333,-10497
17:26:49.047333,-1
17:26:49.047333,-30
17:26:49.047333,-5633
17:26:49.047333,-1
17:26:49.047333,-11
17:26:49.047333,3071
17:26:49.047333,0
17:26:49.047333,18
17:26:49.047333,8448
17:26:49.047333,0
17:26:49.047333,56
17:26:49.047333,18176
17:26:49.047333,0
17:26:49.047333,75
17:26:49.047333,18176
17:26:49.047333,0
17:26:49.047333,71
17:26:49.047333,14336
17:26:49.047333,0
17:26:49.047333,26
17:26:49.047333,1792
17:26:49.047333,0
17:26:49.047333,-11
17:26:49.047333,-6913
17:26:49.047333,-1
17:26:49.047333,-35
17:26:49.634726,-49
17:26:49.634726,-13057
17:26:49.634726,-1
17:26:49.634726,-49
17:26:49.634726,-13057
17:26:49.634726,-1
17:26:49.634726,-44
17:26:49.634726,-9217
17:26:49.634726,-1
17:26:49.634726,-23
17:26:49.634726,-257
17:26:49.634726,-1
17:26:49.634726,4
17:26:49.634726,1024
17:26:49.634726,0
17:26:49.634726,-4
17:26:49.634726,255
17:26:49.634726,0
17:26:49.634726,18
17:26:49.634726,4096
17:26:49.634726,0
17:26:49.634726,9
17:26:49.634726,2304
17:26:49.634726,0
17:26:49.634726,11
17:26:49.634726,4096
17:26:49.634726,0
17:26:49.634726,14
17:26:49.634726,4096
17:26:49.634726,0
17:26:49.634726,16
17:26:49.634726,3584
17:26:49.634726,0
17:26:49.634726,28
17:26:49.634726,6656
17:26:49.634726,0
17:26:49.634726,14
17:26:49.634726,6656
17:26:49.634726,0
17:26:49.634726,23
17:26:49.634726,4608
17:26:49.634726,0
17:26:49.634726,21
17:26:49.634726,5888
17:26:49.634726,0
