timestamp,ecg
18:00:42.004947,-85
18:00:42.004947,-20737
18:00:42.004947,-1
18:00:42.004947,-82
18:00:42.004947,-20737
18:00:42.004947,-1
18:00:42.004947,-78
18:00:42.004947,-14849
18:00:42.004947,-1
18:00:42.004947,-44
18:00:42.004947,-11009
18:00:42.004947,-1
18:00:42.004947,-47
18:00:42.004947,-9985
18:00:42.004947,-1
18:00:42.004947,-33
18:00:42.004947,-8193
18:00:42.004947,-1
18:00:42.004947,-26
18:00:42.004947,-4353
18:00:42.004947,-1
18:00:42.004947,-23
18:00:42.004947,-6913
18:00:42.004947,-1
18:00:42.004947,-21
18:00:42.004947,-4353
18:00:42.004947,-1
18:00:42.004947,-23
18:00:42.004947,-5633
18:00:42.004947,-1
18:00:42.004947,-26
18:00:42.004947,-6913
18:00:42.004947,-1
18:00:42.004947,-28
18:00:42.004947,-6401
18:00:42.004947,-1
18:00:42.004947,-23
18:00:42.004947,-5633
18:00:42.004947,-1
18:00:42.004947,-28
18:00:42.004947,-7425
18:00:42.004947,-1
18:00:42.004947,-28
18:00:42.004947,-6401
18:00:42.004947,-1
18:00:42.004947,-26
18:00:42.004947,-6401
18:00:42.004947,-1
18:00:42.004947,-26
18:00:42.004947,-6913
18:00:42.004947,-1
18:00:42.004947,-28
18:00:42.004947,-5121
18:00:42.004947,-1
18:00:42.004947,-23
18:00:42.004947,-6913
18:00:42.004947,-1
18:00:42.004947,-30
18:00:42.004947,-5121
18:00:42.004947,-1
18:00:42.004947,-18
18:00:42.004947,-7425
18:00:42.004947,-1
18:00:42.004947,-47
18:00:42.004947,-15361
18:00:42.004947,-1
18:00:42.004947,-75
18:00:42.004947,-18945
18:00:42.004947,-1
18:00:42.004947,-47
18:00:42.004947,255
18:00:42.004947,0
18:00:42.004947,21
18:00:42.004947,2304
18:00:42.004947,0
18:00:42.004947,-7
18:00:42.004947,-3841
18:00:42.004947,-1
18:00:42.004947,-14
18:00:42.004947,-769
18:00:42.004947,-1
18:00:42.004947,-2
18:00:42.004947,-257
18:00:42.004947,-1
18:00:42.004947,-9
18:00:42.004947,-14081
18:00:42.004947,-1
18:00:42.004947,-96
18:00:42.004947,1279
18:00:42.004947,1
18:00:42.004947,1179
18:00:42.004947,19456
18:00:42.004947,6
18:00:42.004947,550
18:00:42.004947,-9216
18:00:42.004947,-3
18:00:42.004947,-191
18:00:42.004947,-4865
18:00:42.004947,0
18:00:42.004947,-89
18:00:42.004947,17407
18:00:42.004947,-1
18:00:42.004947,-30
18:00:42.004947,-18945
18:00:42.004947,-1
18:00:42.004947,-130
18:00:42.004947,-17665
18:00:42.004947,-1
18:00:42.004947,-63
18:00:42.589265,-89
18:00:42.589265,-18433
18:00:42.589265,-1
18:00:42.589265,-56
18:00:42.589265,-14081
18:00:42.589265,-1
18:00:42.589265,-54
18:00:42.589265,-13057
18:00:42.589265,-1
18:00:42.589265,-49
18:00:42.589265,-11777
18:00:42.589265,-1
18:00:42.589265,-35
18:00:42.589265,-5633
18:00:42.589265,-1
18:00:42.589265,-18
18:00:42.589265,-4353
18:00:42.589265,-1
18:00:42.589265,-14
18:00:42.589265,1279
18:00:42.589265,0
18:00:42.589265,21
18:00:42.589265,9472
18:00:42.589265,0
18:00:42.589265,54
18:00:42.589265,17408
18:00:42.589265,0
18:00:42.589265,80
18:00:42.589265,24064
18:00:42.589265,0
18:00:42.589265,92
18:00:42.589265,15104
18:00:42.589265,0
18:00:42.589265,14
18:00:42.589265,-4096
18:00:42.589265,-1
18:00:42.589265,-33
18:00:42.589265,-12289
18:00:42.589265,-1
18:00:42.589265,-63
18:00:42.589265,-17153
18:00:42.589265,-1
18:00:42.589265,-66
18:00:42.589265,-16641
18:00:42.589265,-1
18:00:42.589265,-68
18:00:42.589265,-17153
18:00:42.589265,-1
18:00:42.589265,-66
18:00:42.589265,-16641
18:00:42.589265,-1
18:00:42.589265,-63
18:00:42.589265,-14081
18:00:42.589265,-1
18:00:42.589265,-49
18:00:42.589265,-11777
18:00:42.589265,-1
18:00:42.589265,-44
18:00:42.589265,-9985
18:00:42.589265,-1
18:00:42.589265,-35
18:00:42.589265,-8705
18:00:42.589265,-1
18:00:42.589265,-35
18:00:42.589265,-5633
18:00:42.589265,-1
18:00:42.589265,-14
18:00:42.589265,-3329
18:00:42.589265,-1
18:00:42.589265,-14
18:00:42.589265,-3329
18:00:42.589265,-1
18:00:42.589265,-11
18:00:42.589265,-2561
18:00:42.589265,-1
18:00:42.589265,-11
18:00:42.589265,-3329
18:00:42.589265,-1
18:00:42.589265,-16
18:00:42.589265,-5121
18:00:42.589265,-1
18:00:42.589265,-23
18:00:42.589265,-4353
18:00:42.589265,-1
18:00:42.589265,-11
18:00:42.589265,-3841
18:00:42.589265,-1
18:00:42.589265,-18
18:00:42.589265,-4353
18:00:42.589265,-1
18:00:42.589265,-18
18:00:42.589265,-3841
18:00:42.589265,-1
18:00:42.589265,-16
18:00:42.589265,-5121
18:00:42.589265,-1
18:00:42.589265,-21
18:00:42.589265,-3841
18:00:42.589265,-1
18:00:42.589265,-14
18:00:42.589265,-3329
18:00:42.589265,-1
18:00:42.589265,-14
18:00:42.589265,-3329
18:00:42.589265,-1
18:00:42.589265,-11
18:00:42.589265,-5633
18:00:42.589265,-1
18:00:42.589265,-44
18:00:43.129211,-61
18:00:43.129211,-16641
18:00:43.129211,-1
18:00:43.129211,-59
18:00:43.129211,-8705
18:00:43.129211,-1
18:00:43.129211,4
18:00:43.129211,7168
18:00:43.129211,0
18:00:43.129211,18
18:00:43.129211,-1024
18:00:43.129211,-1
18:00:43.129211,-4
18:00:43.129211,1279
18:00:43.129211,0
18:00:43.129211,7
18:00:43.129211,4096
18:00:43.129211,0
18:00:43.129211,30
18:00:43.129211,0
18:00:43.129211,0
18:00:43.129211,-80
18:00:43.129211,20735
18:00:43.129211,0
18:00:43.129211,843
18:00:43.129211,-28672
18:00:43.129211,6
18:00:43.129211,1260
18:00:43.129211,-15616
18:00:43.129211,-1
18:00:43.129211,-326
18:00:43.129211,-17665
18:00:43.129211,0
18:00:43.129211,56
18:00:43.129211,9984
18:00:43.129211,-1
18:00:43.129211,-92
18:00:43.129211,-9985
18:00:43.129211,-1
18:00:43.129211,-130
18:00:43.129211,-25601
18:00:43.129211,-1
18:00:43.129211,-59
18:00:43.129211,-20225
18:00:43.129211,-1
18:00:43.129211,-80
18:00:43.129211,-15361
18:00:43.129211,-1
18:00:43.129211,-61
18:00:43.129211,-16641
18:00:43.129211,-1
18:00:43.129211,-56
18:00:43.129211,-13057
18:00:43.129211,-1
18:00:43.129211,-52
18:00:43.129211,-12289
18:00:43.129211,-1
18:00:43.129211,-49
18:00:43.129211,-12289
18:00:43.129211,-1
18:00:43.129211,-47
18:00:43.129211,-11009
18:00:43.129211,-1
18:00:43.129211,-37
18:00:43.129211,-5121
18:00:43.129211,-1
18:00:43.129211,0
18:00:43.129211,4096
18:00:43.129211,0
18:00:43.129211,35
18:00:43.129211,14336
18:00:43.129211,0
18:00:43.129211,75
18:00:43.129211,21760
18:00:43.129211,0
18:00:43.129211,73
18:00:43.129211,9472
18:00:43.129211,0
18:00:43.129211,-2
18:00:43.129211,-6401
18:00:43.129211,-1
18:00:43.129211,-40
18:00:43.129211,-14081
18:00:43.129211,-1
18:00:43.129211,-63
18:00:43.129211,-15361
18:00:43.129211,-1
18:00:43.129211,-61
18:00:43.129211,-15361
18:00:43.129211,-1
18:00:43.129211,-59
18:00:43.129211,-14081
18:00:43.129211,-1
18:00:43.129211,-59
18:00:43.129211,-14081
18:00:43.129211,-1
18:00:43.129211,-54
18:00:43.129211,-13569
18:00:43.129211,-1
18:00:43.129211,-52
18:00:43.129211,-13057
18:00:43.129211,-1
18:00:43.129211,-47
18:00:43.129211,-9985
18:00:43.129211,-1
18:00:43.129211,-37
18:00:43.129211,-9217
18:00:43.129211,-1
18:00:43.129211,-33
18:00:43.669279,-23
18:00:43.669279,-5633
18:00:43.669279,-1
18:00:43.669279,-23
18:00:43.669279,-5121
18:00:43.669279,-1
18:00:43.669279,-21
18:00:43.669279,-4353
18:00:43.669279,-1
18:00:43.669279,-14
18:00:43.669279,-3329
18:00:43.669279,-1
18:00:43.669279,-9
18:00:43.669279,255
18:00:43.669279,0
18:00:43.669279,2
18:00:43.669279,-512
18:00:43.669279,-1
18:00:43.669279,0
18:00:43.669279,0
18:00:43.669279,0
18:00:43.669279,-2
18:00:43.669279,-257
18:00:43.669279,-1
18:00:43.669279,-2
18:00:43.669279,-257
18:00:43.669279,-1
18:00:43.669279,-4
18:00:43.669279,-257
18:00:43.669279,-1
18:00:43.669279,0
18:00:43.669279,512
18:00:43.669279,0
18:00:43.669279,0
18:00:43.669279,-512
18:00:43.669279,-1
18:00:43.669279,-2
18:00:43.669279,255
18:00:43.669279,0
18:00:43.669279,2
18:00:43.669279,512
18:00:43.669279,0
18:00:43.669279,0
18:00:43.669279,0
18:00:43.669279,0
18:00:43.669279,0
18:00:43.669279,0
18:00:43.669279,0
18:00:43.669279,-2
18:00:43.669279,255
18:00:43.669279,0
18:00:43.669279,0
18:00:43.669279,-1792
18:00:43.669279,-1
18:00:43.669279,-23
18:00:43.669279,-10497
18:00:43.669279,-1
18:00:43.669279,-54
18:00:43.669279,-14081
18:00:43.669279,-1
18:00:43.669279,-42
18:00:43.669279,-769
18:00:43.669279,-1
18:00:43.669279,30
18:00:43.669279,7680
18:00:43.669279,0
18:00:43.669279,7
18:00:43.669279,-1792
18:00:43.669279,-1
18:00:43.669279,-4
18:00:43.669279,2047
18:00:43.669279,0
18:00:43.669279,7
18:00:43.669279,1792
18:00:43.669279,0
18:00:43.669279,0
18:00:43.669279,-16128
18:00:43.669279,-1
18:00:43.669279,-70
18:00:43.669279,-29953
18:00:43.669279,1
18:00:43.669279,1345
18:00:43.669279,30976
18:00:43.669279,6
18:00:43.669279,565
18:00:43.669279,28416
18:00:43.669279,-2
18:00:43.669279,-68
18:00:43.669279,-15105
18:00:43.669279,0
18:00:43.669279,-144
18:00:43.669279,17407
18:00:43.669279,-1
18:00:43.669279,-37
18:00:43.669279,-25089
18:00:43.669279,-1
18:00:43.669279,-144
18:00:43.669279,-22529
18:00:43.669279,-1
18:00:43.669279,-87
18:00:43.669279,-26369
18:00:43.669279,-1
18:00:43.669279,-85
18:00:43.669279,-19713
18:00:43.669279,-1
18:00:43.669279,-87
18:00:43.669279,-19713
18:00:43.669279,-1
18:00:43.669279,-68
18:00:44.343562,-70
18:00:44.343562,-19713
18:00:44.343562,-1
18:00:44.343562,-82
18:00:44.343562,-22017
18:00:44.343562,-1
18:00:44.343562,-78
18:00:44.343562,-14849
18:00:44.343562,-1
18:00:44.343562,-49
18:00:44.343562,-9985
18:00:44.343562,-1
18:00:44.343562,-30
18:00:44.343562,-3841
18:00:44.343562,-1
18:00:44.343562,11
18:00:44.343562,10240
18:00:44.343562,0
18:00:44.343562,66
18:00:44.343562,24064
18:00:44.343562,0
18:00:44.343562,101
18:00:44.343562,16128
18:00:44.343562,0
18:00:44.343562,42
18:00:44.343562,8960
18:00:44.343562,0
18:00:44.343562,-11
18:00:44.343562,-13569
18:00:44.343562,-1
18:00:44.343562,-49
18:00:44.343562,-9217
18:00:44.343562,-1
18:00:44.343562,-54
18:00:44.343562,-13569
18:00:44.343562,-1
18:00:44.343562,-9
18:00:44.343562,-2561
18:00:44.343562,-1
18:00:44.343562,-49
18:00:44.343562,-9985
18:00:44.343562,-1
18:00:44.343562,-21
18:00:44.343562,-3841
18:00:44.343562,-1
18:00:44.343562,-2
18:00:44.343562,255
18:00:44.343562,0
18:00:44.343562,-7
18:00:44.343562,-4353
18:00:44.343562,-1
18:00:44.343562,-28
18:00:44.343562,-3841
18:00:44.343562,-1
18:00:44.343562,2
18:00:44.343562,-2304
18:00:44.343562,-1
18:00:44.343562,-14
18:00:44.343562,2559
18:00:44.343562,0
18:00:44.343562,-7
18:00:44.343562,-6401
18:00:44.343562,-1
18:00:44.343562,0
18:00:44.343562,-5376
18:00:44.343562,-1
18:00:44.343562,-52
18:00:44.343562,-3329
18:00:44.343562,-1
18:00:44.343562,2
18:00:44.343562,-5376
18:00:44.343562,-1
18:00:44.343562,-33
18:00:44.343562,-8193
18:00:44.343562,-1
18:00:44.343562,-21
18:00:44.343562,-2049
18:00:44.343562,-1
18:00:44.343562,-7
18:00:44.343562,2047
18:00:44.343562,0
18:00:44.343562,11
18:00:44.343562,-6656
18:00:44.343562,-1
18:00:44.343562,-35
18:00:44.343562,6143
18:00:44.343562,0
18:00:44.343562,42
18:00:44.343562,2816
18:00:44.343562,0
18:00:44.343562,18
18:00:44.343562,15104
18:00:44.343562,0
18:00:44.343562,75
18:00:44.343562,17920
18:00:44.343562,0
18:00:44.343562,89
18:00:44.343562,32512
18:00:44.343562,0
18:00:44.343562,146
18:00:44.343562,-24576
18:00:44.343562,0
18:00:44.343562,177
18:00:44.343562,-18432
18:00:44.343562,0
18:00:44.343562,208
18:00:44.343562,-3328
18:00:44.343562,0
18:00:44.343562,260
18:00:44.794284,290
18:00:44.794284,17152
18:00:44.794284,1
18:00:44.794284,319
18:00:44.794284,18944
18:00:44.794284,1
18:00:44.794284,378
18:00:44.794284,-32000
18:00:44.794284,1
18:00:44.794284,380
18:00:44.794284,-29440
18:00:44.794284,1
18:00:44.794284,408
18:00:44.794284,-21760
18:00:44.794284,1
18:00:44.794284,458
18:00:44.794284,-13312
18:00:44.794284,1
18:00:44.794284,432
18:00:44.794284,-22784
18:00:44.794284,1
18:00:44.794284,427
18:00:44.794284,-25856
18:00:44.794284,1
18:00:44.794284,411
18:00:44.794284,-11264
18:00:44.794284,1
18:00:44.794284,510
18:00:44.794284,-4608
18:00:44.794284,1
18:00:44.794284,472
18:00:44.794284,-16128
18:00:44.794284,1
18:00:44.794284,420
18:00:44.794284,-25856
18:00:44.794284,1
18:00:44.794284,413
18:00:44.794284,-27136
18:00:44.794284,1
18:00:44.794284,392
18:00:44.794284,28672
18:00:44.794284,1
18:00:44.794284,281
18:00:44.794284,-22272
18:00:44.794284,1
18:00:44.794284,1286
18:00:44.794284,9472
18:00:44.794284,8
18:00:44.794284,1293
18:00:44.794284,4608
18:00:44.794284,-1
18:00:44.794284,-283
18:00:44.794284,-22529
18:00:44.794284,1
18:00:44.794284,295
18:00:44.794284,10240
18:00:44.794284,0
18:00:44.794284,189
18:00:44.794284,-7680
18:00:44.794284,0
18:00:44.794284,134
18:00:44.794284,-27648
18:00:44.794284,0
18:00:44.794284,174
18:00:44.794284,-23296
18:00:44.794284,0
18:00:44.794284,179
18:00:44.794284,-25088
18:00:44.794284,0
18:00:44.794284,101
18:00:44.794284,-31232
18:00:44.794284,0
18:00:44.794284,182
18:00:44.794284,-25600
18:00:44.794284,0
18:00:44.794284,137
18:00:44.794284,-28672
18:00:44.794284,0
18:00:44.794284,144
18:00:44.794284,-29440
18:00:44.794284,0
18:00:44.794284,137
18:00:44.794284,-27648
18:00:44.794284,0
18:00:44.794284,167
18:00:44.794284,-20992
18:00:44.794284,0
18:00:44.794284,184
18:00:44.794284,-14336
18:00:44.794284,0
18:00:44.794284,184
18:00:44.794284,-23808
18:00:44.794284,0
18:00:44.794284,186
18:00:44.794284,-17920
18:00:44.794284,0
18:00:44.794284,130
18:00:44.794284,21760
18:00:44.794284,0
18:00:44.794284,56
18:00:44.794284,4096
18:00:44.794284,0
18:00:44.794284,-35
18:00:44.794284,-13569
18:00:44.794284,-1
18:00:44.794284,-37
18:00:44.794284,-9985
18:00:44.794284,-1
18:00:44.794284,-54
18:00:45.379294,-54
18:00:45.379294,-11009
18:00:45.379294,-1
18:00:45.379294,-42
18:00:45.379294,-12289
18:00:45.379294,-1
18:00:45.379294,-49
18:00:45.379294,-9985
18:00:45.379294,-1
18:00:45.379294,-26
18:00:45.379294,-3329
18:00:45.379294,-1
18:00:45.379294,-7
18:00:45.379294,-2049
18:00:45.379294,-1
18:00:45.379294,-4
18:00:45.379294,1279
18:00:45.379294,0
18:00:45.379294,7
18:00:45.379294,1792
18:00:45.379294,0
18:00:45.379294,9
18:00:45.379294,3584
18:00:45.379294,0
18:00:45.379294,14
18:00:45.379294,3584
18:00:45.379294,0
18:00:45.379294,18
18:00:45.379294,4608
18:00:45.379294,0
18:00:45.379294,18
18:00:45.379294,4096
18:00:45.379294,0
18:00:45.379294,21
18:00:45.379294,7680
18:00:45.379294,0
18:00:45.379294,37
18:00:45.379294,10240
18:00:45.379294,0
18:00:45.379294,44
18:00:45.379294,13312
18:00:45.379294,0
18:00:45.379294,56
18:00:45.379294,16128
18:00:45.379294,0
18:00:45.379294,70
18:00:45.379294,19968
18:00:45.379294,0
18:00:45.379294,92
18:00:45.379294,25856
18:00:45.379294,0
18:00:45.379294,104
18:00:45.379294,28416
18:00:45.379294,0
18:00:45.379294,115
18:00:45.379294,28416
18:00:45.379294,0
18:00:45.379294,99
18:00:45.379294,22784
18:00:45.379294,0
18:00:45.379294,87
18:00:45.379294,24576
18:00:45.379294,0
18:00:45.379294,125
18:00:45.379294,-22784
18:00:45.379294,0
18:00:45.379294,198
18:00:45.379294,-16128
18:00:45.379294,0
18:00:45.379294,170
18:00:45.379294,-22784
18:00:45.379294,0
18:00:45.379294,184
18:00:45.379294,-15360
18:00:45.379294,0
18:00:45.379294,196
18:00:45.379294,-14336
18:00:45.379294,0
18:00:45.379294,203
18:00:45.379294,-23808
18:00:45.379294,0
18:00:45.379294,113
18:00:45.379294,-23552
18:00:45.379294,1
18:00:45.379294,1335
18:00:45.379294,16896
18:00:45.379294,7
18:00:45.379294,782
18:00:45.379294,12032
18:00:45.379294,-2
18:00:45.379294,-113
18:00:45.379294,-13569
18:00:45.379294,1
18:00:45.379294,179
18:00:45.379294,13312
18:00:45.379294,0
18:00:45.379294,229
18:00:45.379294,-14848
18:00:45.379294,0
18:00:45.379294,130
18:00:45.379294,-17920
18:00:45.379294,0
18:00:45.379294,203
18:00:45.379294,-20224
18:00:45.379294,0
18:00:45.379294,193
18:00:45.379294,-12288
18:00:45.379294,0
18:00:45.379294,200
18:00:45.919282,200
18:00:45.919282,-11264
18:00:45.919282,0
18:00:45.919282,219
18:00:45.919282,-8192
18:00:45.919282,0
18:00:45.919282,229
18:00:45.919282,-6400
18:00:45.919282,0
18:00:45.919282,234
18:00:45.919282,-3840
18:00:45.919282,0
18:00:45.919282,250
18:00:45.919282,3840
18:00:45.919282,1
18:00:45.919282,295
18:00:45.919282,13056
18:00:45.919282,1
18:00:45.919282,316
18:00:45.919282,19712
18:00:45.919282,1
18:00:45.919282,335
18:00:45.919282,18944
18:00:45.919282,1
18:00:45.919282,312
18:00:45.919282,2048
18:00:45.919282,1
18:00:45.919282,217
18:00:45.919282,-16640
18:00:45.919282,0
18:00:45.919282,167
18:00:45.919282,-28672
18:00:45.919282,0
18:00:45.919282,141
18:00:45.919282,-28672
18:00:45.919282,0
18:00:45.919282,130
18:00:45.919282,32000
18:00:45.919282,0
18:00:45.919282,127
18:00:45.919282,31232
18:00:45.919282,0
18:00:45.919282,115
18:00:45.919282,28416
18:00:45.919282,0
18:00:45.919282,108
18:00:45.919282,28416
18:00:45.919282,0
18:00:45.919282,111
18:00:45.919282,27648
18:00:45.919282,0
18:00:45.919282,111
18:00:45.919282,29440
18:00:45.919282,0
18:00:45.919282,113
18:00:45.919282,29440
18:00:45.919282,0
18:00:45.919282,122
18:00:45.919282,31232
18:00:45.919282,0
18:00:45.919282,125
18:00:45.919282,32000
18:00:45.919282,0
18:00:45.919282,118
18:00:45.919282,28928
18:00:45.919282,0
18:00:45.919282,115
18:00:45.919282,30720
18:00:45.919282,0
18:00:45.919282,118
18:00:45.919282,28416
18:00:45.919282,0
18:00:45.919282,104
18:00:45.919282,26624
18:00:45.919282,0
18:00:45.919282,104
18:00:45.919282,25856
18:00:45.919282,0
18:00:45.919282,96
18:00:45.919282,23552
18:00:45.919282,0
18:00:45.919282,87
18:00:45.919282,21760
18:00:45.919282,0
18:00:45.919282,85
18:00:45.919282,22784
18:00:45.919282,0
18:00:45.919282,82
18:00:45.919282,18688
18:00:45.919282,0
18:00:45.919282,70
18:00:45.919282,17920
18:00:45.919282,0
18:00:45.919282,63
18:00:45.919282,8960
18:00:45.919282,0
18:00:45.919282,7
18:00:45.919282,512
18:00:45.919282,0
18:00:45.919282,0
18:00:45.919282,2304
18:00:45.919282,0
18:00:45.919282,47
18:00:45.919282,19968
18:00:45.919282,0
18:00:45.919282,61
18:00:45.919282,8448
18:00:45.919282,0
18:00:45.919282,28
18:00:46.504979,33
18:00:46.504979,7168
18:00:46.504979,0
18:00:46.504979,16
18:00:46.504979,2816
18:00:46.504979,0
18:00:46.504979,0
18:00:46.504979,-17920
18:00:46.504979,-1
18:00:46.504979,-56
18:00:46.504979,-2049
18:00:46.504979,1
18:00:46.504979,1503
18:00:46.504979,20736
18:00:46.504979,6
18:00:46.504979,323
18:00:46.504979,2816
18:00:46.504979,-2
18:00:46.504979,-16
18:00:46.504979,-22529
18:00:46.504979,0
18:00:46.504979,-203
18:00:46.504979,16383
18:00:46.504979,-1
18:00:46.504979,-59
18:00:46.504979,28927
18:00:46.504979,-1
18:00:46.504979,-172
18:00:46.504979,-29953
18:00:46.504979,-1
18:00:46.504979,-134
18:00:46.504979,26623
18:00:46.504979,-1
18:00:46.504979,-132
18:00:46.504979,32511
18:00:46.504979,-1
18:00:46.504979,-139
18:00:46.504979,32511
18:00:46.504979,-1
18:00:46.504979,-122
18:00:46.504979,32511
18:00:46.504979,-1
18:00:46.504979,-132
18:00:46.504979,32511
18:00:46.504979,-1
18:00:46.504979,-134
18:00:46.504979,31999
18:00:46.504979,-1
18:00:46.504979,-127
18:00:46.504979,-30977
18:00:46.504979,-1
18:00:46.504979,-115
18:00:46.504979,-25601
18:00:46.504979,-1
18:00:46.504979,-82
18:00:46.504979,-15873
18:00:46.504979,-1
18:00:46.504979,-47
18:00:46.504979,-6913
18:00:46.504979,-1
18:00:46.504979,-9
18:00:46.504979,-3841
18:00:46.504979,-1
18:00:46.504979,-40
18:00:46.504979,-17153
18:00:46.504979,-1
18:00:46.504979,-92
18:00:46.504979,-28673
18:00:46.504979,-1
18:00:46.504979,-125
18:00:46.504979,32511
18:00:46.504979,-1
18:00:46.504979,-132
18:00:46.504979,32511
18:00:46.504979,-1
18:00:46.504979,-122
18:00:46.504979,-28673
18:00:46.504979,-1
18:00:46.504979,-113
18:00:46.504979,-28673
18:00:46.504979,-1
18:00:46.504979,-106
18:00:46.504979,-26881
18:00:46.504979,-1
18:00:46.504979,-106
18:00:46.504979,-25601
18:00:46.504979,-1
18:00:46.504979,-96
18:00:46.504979,-24321
18:00:46.504979,-1
18:00:46.504979,-94
18:00:46.504979,-22529
18:00:46.504979,-1
18:00:46.504979,-89
18:00:46.504979,-23297
18:00:46.504979,-1
18:00:46.504979,-89
18:00:46.504979,-20737
18:00:46.504979,-1
18:00:46.504979,-78
18:00:46.504979,-20737
18:00:46.504979,-1
18:00:46.504979,-82
18:00:46.504979,-20225
18:00:46.504979,-1
18:00:46.504979,-78
18:00:46.504979,-19713
18:00:46.504979,-1
18:00:46.504979,-80
18:00:47.090076,-78
18:00:47.090076,-18945
18:00:47.090076,-1
18:00:47.090076,-75
18:00:47.090076,-18945
18:00:47.090076,-1
18:00:47.090076,-78
18:00:47.090076,-18433
18:00:47.090076,-1
18:00:47.090076,-68
18:00:47.090076,-17665
18:00:47.090076,-1
18:00:47.090076,-75
18:00:47.090076,-18433
18:00:47.090076,-1
18:00:47.090076,-63
18:00:47.090076,-14081
18:00:47.090076,-1
18:00:47.090076,-59
18:00:47.090076,-15873
18:00:47.090076,-1
18:00:47.090076,-59
18:00:47.090076,-14081
18:00:47.090076,-1
18:00:47.090076,-78
18:00:47.090076,-26881
18:00:47.090076,-1
18:00:47.090076,-115
18:00:47.090076,-29185
18:00:47.090076,-1
18:00:47.090076,-106
18:00:47.090076,-18945
18:00:47.090076,-1
18:00:47.090076,-35
18:00:47.090076,-6913
18:00:47.090076,-1
18:00:47.090076,-49
18:00:47.090076,-15873
18:00:47.090076,-1
18:00:47.090076,-54
18:00:47.090076,-11009
18:00:47.090076,-1
18:00:47.090076,-52
18:00:47.090076,-12289
18:00:47.090076,-1
18:00:47.090076,-49
18:00:47.090076,-24321
18:00:47.090076,-1
18:00:47.090076,-160
18:00:47.090076,29695
18:00:47.090076,0
18:00:47.090076,1000
18:00:47.090076,-32768
18:00:47.090076,6
18:00:47.090076,877
18:00:47.090076,31232
18:00:47.090076,-2
18:00:47.090076,-312
18:00:47.090076,-20737
18:00:47.090076,0
18:00:47.090076,-89
18:00:47.090076,-3585
18:00:47.090076,-2
18:00:47.090076,-106
18:00:47.090076,-29185
18:00:47.090076,-1
18:00:47.090076,-198
18:00:47.090076,27135
18:00:47.090076,-1
18:00:47.090076,-120
18:00:47.090076,28927
18:00:47.090076,-1
18:00:47.090076,-134
18:00:47.090076,-29953
18:00:47.090076,-1
18:00:47.090076,-122
18:00:47.090076,-30977
18:00:47.090076,-1
18:00:47.090076,-113
18:00:47.090076,-28161
18:00:47.090076,-1
18:00:47.090076,-115
18:00:47.090076,-29185
18:00:47.090076,-1
18:00:47.090076,-108
18:00:47.090076,-26369
18:00:47.090076,-1
18:00:47.090076,-104
18:00:47.090076,-25089
18:00:47.090076,-1
18:00:47.090076,-87
18:00:47.090076,-17665
18:00:47.090076,-1
18:00:47.090076,-56
18:00:47.090076,-10497
18:00:47.090076,-1
18:00:47.090076,-26
18:00:47.090076,-1537
18:00:47.090076,-1
18:00:47.090076,9
18:00:47.090076,3584
18:00:47.090076,0
18:00:47.090076,-2
18:00:47.090076,-9217
18:00:47.090076,-1
18:00:47.090076,-66
18:00:47.090076,-20737
18:00:47.090076,-1
18:00:47.090076,-96
18:00:47.585586,-111
18:00:47.585586,-28161
18:00:47.585586,-1
18:00:47.585586,-111
18:00:47.585586,-28673
18:00:47.585586,-1
18:00:47.585586,-108
18:00:47.585586,-26369
18:00:47.585586,-1
18:00:47.585586,-101
18:00:47.585586,-25089
18:00:47.585586,-1
18:00:47.585586,-94
18:00:47.585586,-23297
18:00:47.585586,-1
18:00:47.585586,-87
18:00:47.585586,-20737
18:00:47.585586,-1
18:00:47.585586,-80
18:00:47.585586,-16641
18:00:47.585586,-1
18:00:47.585586,-54
18:00:47.585586,-13057
18:00:47.585586,-1
18:00:47.585586,-49
18:00:47.585586,-11777
18:00:47.585586,-1
18:00:47.585586,-44
18:00:47.585586,-9985
18:00:47.585586,-1
18:00:47.585586,-37
18:00:47.585586,-10497
18:00:47.585586,-1
18:00:47.585586,-42
18:00:47.585586,-9217
18:00:47.585586,-1
18:00:47.585586,-42
18:00:47.585586,-11009
18:00:47.585586,-1
18:00:47.585586,-42
18:00:47.585586,-10497
18:00:47.585586,-1
18:00:47.585586,-44
18:00:47.585586,-11009
18:00:47.585586,-1
18:00:47.585586,-40
18:00:47.585586,-10497
18:00:47.585586,-1
18:00:47.585586,-44
18:00:47.585586,-9985
18:00:47.585586,-1
18:00:47.585586,-37
18:00:47.585586,-9217
18:00:47.585586,-1
18:00:47.585586,-37
18:00:47.585586,-9217
18:00:47.585586,-1
18:00:47.585586,-40
18:00:47.585586,-10497
18:00:47.585586,-1
18:00:47.585586,-37
18:00:47.585586,-8705
18:00:47.585586,-1
18:00:47.585586,-40
18:00:47.585586,-11009
18:00:47.585586,-1
18:00:47.585586,-44
18:00:47.585586,-10497
18:00:47.585586,-1
18:00:47.585586,-42
18:00:47.585586,-9985
18:00:47.585586,-1
18:00:47.585586,-37
18:00:47.585586,-11009
18:00:47.585586,-1
18:00:47.585586,-66
18:00:47.585586,-21505
18:00:47.585586,-1
18:00:47.585586,-94
18:00:47.585586,-23297
18:00:47.585586,-1
18:00:47.585586,-78
18:00:47.585586,-9217
18:00:47.585586,-1
18:00:47.585586,-2
18:00:47.585586,255
18:00:47.585586,0
18:00:47.585586,-23
18:00:47.585586,-10497
18:00:47.585586,-1
18:00:47.585586,-33
18:00:47.585586,-3841
18:00:47.585586,-1
18:00:47.585586,-18
18:00:47.585586,-5121
18:00:47.585586,-1
18:00:47.585586,-23
18:00:47.585586,-18945
18:00:47.585586,-1
18:00:47.585586,-111
18:00:47.585586,3583
18:00:47.585586,1
18:00:47.585586,1203
18:00:47.585586,30976
18:00:47.585586,6
18:00:47.585586,638
18:00:47.585586,10752
18:00:47.585586,-2
18:00:47.585586,-182
18:00:48.169081,198
18:00:48.169081,30464
18:00:48.169081,-1
18:00:48.169081,-231
18:00:48.169081,-16641
18:00:48.169081,-1
18:00:48.169081,-106
18:00:48.169081,27903
18:00:48.169081,-1
18:00:48.169081,-87
18:00:48.169081,-22017
18:00:48.169081,-1
18:00:48.169081,-113
18:00:48.169081,-23297
18:00:48.169081,-1
18:00:48.169081,-78
18:00:48.169081,-22017
18:00:48.169081,-1
18:00:48.169081,-82
18:00:48.169081,-19713
18:00:48.169081,-1
18:00:48.169081,-80
18:00:48.169081,-18945
18:00:48.169081,-1
18:00:48.169081,-73
18:00:48.169081,-18945
18:00:48.169081,-1
18:00:48.169081,-73
18:00:48.169081,-17153
18:00:48.169081,-1
18:00:48.169081,-66
18:00:48.169081,-13569
18:00:48.169081,-1
18:00:48.169081,-37
18:00:48.169081,-5633
18:00:48.169081,-1
18:00:48.169081,-9
18:00:48.169081,767
18:00:48.169081,0
18:00:48.169081,18
18:00:48.169081,10240
18:00:48.169081,0
18:00:48.169081,47
18:00:48.169081,7168
18:00:48.169081,0
18:00:48.169081,-2
18:00:48.169081,-7425
18:00:48.169081,-1
18:00:48.169081,-52
18:00:48.169081,-16641
18:00:48.169081,-1
18:00:48.169081,-73
18:00:48.169081,-20225
18:00:48.169081,-1
18:00:48.169081,-78
18:00:48.169081,-19713
18:00:48.169081,-1
18:00:48.169081,-80
18:00:48.169081,-19713
18:00:48.169081,-1
18:00:48.169081,-73
18:00:48.169081,-17153
18:00:48.169081,-1
18:00:48.169081,-66
18:00:48.169081,-16641
18:00:48.169081,-1
18:00:48.169081,-59
18:00:48.169081,-13057
18:00:48.169081,-1
18:00:48.169081,-54
18:00:48.169081,-13569
18:00:48.169081,-1
18:00:48.169081,-47
18:00:48.169081,-11009
18:00:48.169081,-1
18:00:48.169081,-44
18:00:48.169081,-10497
18:00:48.169081,-1
18:00:48.169081,-42
18:00:48.169081,-9217
18:00:48.169081,-1
18:00:48.169081,-35
18:00:48.169081,-9217
18:00:48.169081,-1
18:00:48.169081,-35
18:00:48.169081,-6913
18:00:48.169081,-1
18:00:48.169081,-28
18:00:48.169081,-6401
18:00:48.169081,-1
18:00:48.169081,-28
18:00:48.169081,-8705
18:00:48.169081,-1
18:00:48.169081,-33
18:00:48.169081,-6401
18:00:48.169081,-1
18:00:48.169081,-26
18:00:48.169081,-6401
18:00:48.169081,-1
18:00:48.169081,-21
18:00:48.169081,-5121
18:00:48.169081,-1
18:00:48.169081,-23
18:00:48.169081,-5121
18:00:48.169081,-1
18:00:48.169081,-21
18:00:48.169081,-5121
18:00:48.169081,-1
18:00:48.169081,-21
18:00:48.754260,-21
18:00:48.754260,-4353
18:00:48.754260,-1
18:00:48.754260,-16
18:00:48.754260,-3329
18:00:48.754260,-1
18:00:48.754260,-16
18:00:48.754260,-4353
18:00:48.754260,-1
18:00:48.754260,-21
18:00:48.754260,-3841
18:00:48.754260,-1
18:00:48.754260,-4
18:00:48.754260,767
18:00:48.754260,0
18:00:48.754260,-2
18:00:48.754260,-257
18:00:48.754260,-1
18:00:48.754260,2
18:00:48.754260,0
18:00:48.754260,0
18:00:48.754260,0
18:00:48.754260,-512
18:00:48.754260,-1
18:00:48.754260,-9
18:00:48.754260,-5633
18:00:48.754260,-1
18:00:48.754260,-42
18:00:48.754260,-15361
18:00:48.754260,-1
18:00:48.754260,-59
18:00:48.754260,-10497
18:00:48.754260,-1
18:00:48.754260,0
18:00:48.754260,10240
18:00:48.754260,0
18:00:48.754260,37
18:00:48.754260,3584
18:00:48.754260,0
18:00:48.754260,-4
18:00:48.754260,-2049
18:00:48.754260,-1
18:00:48.754260,0
18:00:48.754260,0
18:00:48.754260,0
18:00:48.754260,-7
18:00:48.754260,-769
18:00:48.754260,-1
18:00:48.754260,-33
18:00:48.754260,-26369
18:00:48.754260,-1
18:00:48.754260,56
18:00:48.754260,11520
18:00:48.754260,3
18:00:48.754260,1631
18:00:48.754260,32512
18:00:48.754260,4
18:00:48.754260,-198
18:00:48.754260,28671
18:00:48.754260,-2
18:00:48.754260,156
18:00:48.754260,4608
18:00:48.754260,0
18:00:48.754260,-243
18:00:48.754260,-26369
18:00:48.754260,-1
18:00:48.754260,-66
18:00:48.754260,25855
18:00:48.754260,-1
18:00:48.754260,-125
18:00:48.754260,-22529
18:00:48.754260,-1
18:00:48.754260,-115
18:00:48.754260,-27393
18:00:48.754260,-1
18:00:48.754260,-92
18:00:48.754260,-25089
18:00:48.754260,-1
18:00:48.754260,-96
18:00:48.754260,-22017
18:00:48.754260,-1
18:00:48.754260,-87
18:00:48.754260,-21505
18:00:48.754260,-1
18:00:48.754260,-82
18:00:48.754260,-20225
18:00:48.754260,-1
18:00:48.754260,-80
18:00:48.754260,-20225
18:00:48.754260,-1
18:00:48.754260,-78
18:00:48.754260,-17665
18:00:48.754260,-1
18:00:48.754260,-61
18:00:48.754260,-11777
18:00:48.754260,-1
18:00:48.754260,-35
18:00:48.754260,-6401
18:00:48.754260,-1
18:00:48.754260,-14
18:00:48.754260,767
18:00:48.754260,0
18:00:48.754260,16
18:00:48.754260,2816
18:00:48.754260,0
18:00:48.754260,-14
18:00:48.754260,-12289
18:00:48.754260,-1
18:00:48.754260,-73
18:00:49.294257,-87
18:00:49.294257,-25601
18:00:49.294257,-1
18:00:49.294257,-108
18:00:49.294257,-28161
18:00:49.294257,-1
18:00:49.294257,-111
18:00:49.294257,-27393
18:00:49.294257,-1
18:00:49.294257,-106
18:00:49.294257,-26881
18:00:49.294257,-1
18:00:49.294257,-104
18:00:49.294257,-25089
18:00:49.294257,-1
18:00:49.294257,-92
18:00:49.294257,-19713
18:00:49.294257,-1
18:00:49.294257,-61
18:00:49.294257,-15361
18:00:49.294257,-1
18:00:49.294257,-66
18:00:49.294257,-15873
18:00:49.294257,-1
18:00:49.294257,-59
18:00:49.294257,-14081
18:00:49.294257,-1
18:00:49.294257,-54
18:00:49.294257,-14849
18:00:49.294257,-1
18:00:49.294257,-61
18:00:49.294257,-13569
18:00:49.294257,-1
18:00:49.294257,-54
18:00:49.294257,-14081
18:00:49.294257,-1
18:00:49.294257,-56
18:00:49.294257,-15361
18:00:49.294257,-1
18:00:49.294257,-63
18:00:49.294257,-15361
18:00:49.294257,-1
18:00:49.294257,-56
18:00:49.294257,-15361
18:00:49.294257,-1
18:00:49.294257,-63
18:00:49.294257,-15361
18:00:49.294257,-1
18:00:49.294257,-66
18:00:49.294257,-16641
18:00:49.294257,-1
18:00:49.294257,-63
18:00:49.294257,-14849
18:00:49.294257,-1
18:00:49.294257,-56
18:00:49.294257,-15361
18:00:49.294257,-1
18:00:49.294257,-70
18:00:49.294257,-17153
18:00:49.294257,-1
18:00:49.294257,-61
18:00:49.294257,-14849
18:00:49.294257,-1
18:00:49.294257,-56
18:00:49.294257,-14081
18:00:49.294257,-1
18:00:49.294257,-61
18:00:49.294257,-16641
18:00:49.294257,-1
18:00:49.294257,-68
18:00:49.294257,-15873
18:00:49.294257,-1
18:00:49.294257,-59
18:00:49.294257,-14849
18:00:49.294257,-1
18:00:49.294257,-61
18:00:49.294257,-15873
18:00:49.294257,-1
18:00:49.294257,-59
18:00:49.294257,-13569
18:00:49.294257,-1
18:00:49.294257,-56
18:00:49.294257,-14849
18:00:49.294257,-1
18:00:49.294257,-56
18:00:49.294257,-15873
18:00:49.294257,-1
18:00:49.294257,-85
18:00:49.294257,-25601
18:00:49.294257,-1
18:00:49.294257,-108
18:00:49.294257,-25601
18:00:49.294257,-1
18:00:49.294257,-73
18:00:49.294257,-6913
18:00:49.294257,-1
18:00:49.294257,-7
18:00:49.294257,-4353
18:00:49.294257,-1
18:00:49.294257,-40
18:00:49.294257,-13057
18:00:49.294257,-1
18:00:49.294257,-42
18:00:49.294257,-7425
18:00:49.294257,-1
18:00:49.294257,-37
18:00:49.294257,-9985
18:00:49.294257,-1
18:00:49.294257,-35
18:00:49.879264,-89
18:00:49.879264,-25089
18:00:49.879264,-1
18:00:49.879264,385
18:00:49.879264,14848
18:00:49.879264,5
18:00:49.879264,1475
18:00:49.879264,-32256
18:00:49.879264,0
18:00:49.879264,-782
18:00:49.879264,17407
18:00:49.879264,-1
18:00:49.879264,193
18:00:49.879264,31744
18:00:49.879264,-1
18:00:49.879264,-158
18:00:49.879264,-2049
18:00:49.879264,-1
18:00:49.879264,-75
18:00:49.879264,-27393
18:00:49.879264,-1
18:00:49.879264,-47
18:00:49.879264,-13057
18:00:49.879264,-1
18:00:49.879264,-73
18:00:49.879264,-15361
18:00:49.879264,-1
18:00:49.879264,-49
18:00:49.879264,-12289
18:00:49.879264,-1
18:00:49.879264,-40
18:00:49.879264,-7425
18:00:49.879264,-1
18:00:49.879264,-35
18:00:49.879264,-7425
18:00:49.879264,-1
18:00:49.879264,-16
18:00:49.879264,-769
18:00:49.879264,-1
18:00:49.879264,4
18:00:49.879264,3584
18:00:49.879264,0
18:00:49.879264,21
18:00:49.879264,8448
18:00:49.879264,0
18:00:49.879264,54
18:00:49.879264,17408
18:00:49.879264,0
18:00:49.879264,78
18:00:49.879264,22272
18:00:49.879264,0
18:00:49.879264,92
18:00:49.879264,19200
18:00:49.879264,0
18:00:49.879264,56
18:00:49.879264,7680
18:00:49.879264,0
18:00:49.879264,-11
18:00:49.879264,-13057
18:00:49.879264,-1
18:00:49.879264,-75
18:00:49.879264,-22529
18:00:49.879264,-1
18:00:49.879264,-96
18:00:49.879264,-24321
18:00:49.879264,-1
18:00:49.879264,-101
18:00:49.879264,-26369
18:00:49.879264,-1
18:00:49.879264,-96
18:00:49.879264,-23809
18:00:49.879264,-1
18:00:49.879264,-96
18:00:49.879264,-23297
18:00:49.879264,-1
18:00:49.879264,-85
18:00:49.879264,-20225
18:00:49.879264,-1
18:00:49.879264,-75
18:00:49.879264,-16641
18:00:49.879264,-1
18:00:49.879264,-56
18:00:49.879264,-14081
18:00:49.879264,-1
18:00:49.879264,-66
18:00:49.879264,-15361
18:00:49.879264,-1
18:00:49.879264,-44
18:00:49.879264,-9985
18:00:49.879264,-1
18:00:49.879264,-44
18:00:49.879264,-10497
18:00:49.879264,-1
18:00:49.879264,-40
18:00:49.879264,-10497
18:00:49.879264,-1
18:00:49.879264,-47
18:00:49.879264,-13057
18:00:49.879264,-1
18:00:49.879264,-47
18:00:49.879264,-9985
18:00:49.879264,-1
18:00:49.879264,-47
18:00:49.879264,-13057
18:00:49.879264,-1
18:00:49.879264,-42
18:00:49.879264,-10497
18:00:49.879264,-1
18:00:49.879264,-44
18:00:50.419210,-35
18:00:50.419210,-8193
18:00:50.419210,-1
18:00:50.419210,-42
18:00:50.419210,-11777
18:00:50.419210,-1
18:00:50.419210,-40
18:00:50.419210,-7425
18:00:50.419210,-1
18:00:50.419210,-26
18:00:50.419210,-8193
18:00:50.419210,-1
18:00:50.419210,-54
18:00:50.419210,-20225
18:00:50.419210,-1
18:00:50.419210,-92
18:00:50.419210,-20225
18:00:50.419210,-1
18:00:50.419210,-61
18:00:50.419210,-11009
18:00:50.419210,-1
18:00:50.419210,-11
18:00:50.419210,3071
18:00:50.419210,0
18:00:50.419210,-4
18:00:50.419210,-3841
18:00:50.419210,-1
18:00:50.419210,-9
18:00:50.419210,-3329
18:00:50.419210,-1
18:00:50.419210,-18
18:00:50.419210,-2049
18:00:50.419210,-1
18:00:50.419210,-7
18:00:50.419210,-9217
18:00:50.419210,-1
18:00:50.419210,-106
18:00:50.419210,11519
18:00:50.419210,0
18:00:50.419210,803
18:00:50.419210,12032
18:00:50.419210,6
18:00:50.419210,943
18:00:50.419210,5888
18:00:50.419210,-2
18:00:50.419210,-543
18:00:50.419210,-24833
18:00:50.419210,0
18:00:50.419210,49
18:00:50.419210,13568
18:00:50.419210,-1
18:00:50.419210,-56
18:00:50.419210,-6401
18:00:50.419210,-1
18:00:50.419210,-115
18:00:50.419210,-19713
18:00:50.419210,-1
18:00:50.419210,-42
18:00:50.419210,-18433
18:00:50.419210,-1
18:00:50.419210,-73
18:00:50.419210,-13057
18:00:50.419210,-1
18:00:50.419210,-52
18:00:50.419210,-13569
18:00:50.419210,-1
18:00:50.419210,-54
18:00:50.419210,-13057
18:00:50.419210,-1
18:00:50.419210,-44
18:00:50.419210,-9217
18:00:50.419210,-1
18:00:50.419210,-33
18:00:50.419210,-6913
18:00:50.419210,-1
18:00:50.419210,-23
18:00:50.419210,-3841
18:00:50.419210,-1
18:00:50.419210,0
18:00:50.419210,4608
18:00:50.419210,0
18:00:50.419210,30
18:00:50.419210,10752
18:00:50.419210,0
18:00:50.419210,52
18:00:50.419210,13312
18:00:50.419210,0
18:00:50.419210,54
18:00:50.419210,12032
18:00:50.419210,0
18:00:50.419210,16
18:00:50.419210,-7168
18:00:50.419210,-1
18:00:50.419210,-61
18:00:50.419210,-19713
18:00:50.419210,-1
18:00:50.419210,-87
18:00:50.419210,-25601
18:00:50.419210,-1
18:00:50.419210,-111
18:00:50.419210,-26369
18:00:50.419210,-1
18:00:50.419210,-101
18:00:50.419210,-28161
18:00:50.419210,-1
18:00:50.419210,-106
18:00:50.419210,-23297
18:00:50.419210,-1
18:00:50.419210,-94
18:00:50.959619,-94
18:00:50.959619,-20737
18:00:50.959619,-1
18:00:50.959619,-80
18:00:50.959619,-22529
18:00:50.959619,-1
18:00:50.959619,-85
18:00:50.959619,-17153
18:00:50.959619,-1
18:00:50.959619,-63
18:00:50.959619,-15873
18:00:50.959619,-1
18:00:50.959619,-52
18:00:50.959619,-9217
18:00:50.959619,-1
18:00:50.959619,-35
18:00:50.959619,-9985
18:00:50.959619,-1
18:00:50.959619,-40
18:00:50.959619,-10497
18:00:50.959619,-1
18:00:50.959619,-44
18:00:50.959619,-9985
18:00:50.959619,-1
18:00:50.959619,-40
18:00:50.959619,-11777
18:00:50.959619,-1
18:00:50.959619,-47
18:00:50.959619,-10497
18:00:50.959619,-1
18:00:50.959619,-44
18:00:50.959619,-11777
18:00:50.959619,-1
18:00:50.959619,-47
18:00:50.959619,-12289
18:00:50.959619,-1
18:00:50.959619,-49
18:00:50.959619,-11777
18:00:50.959619,-1
18:00:50.959619,-44
18:00:50.959619,-11009
18:00:50.959619,-1
18:00:50.959619,-49
18:00:50.959619,-14849
18:00:50.959619,-1
18:00:50.959619,-80
18:00:50.959619,-26369
18:00:50.959619,-1
18:00:50.959619,-108
18:00:50.959619,-25089
18:00:50.959619,-1
18:00:50.959619,-87
18:00:50.959619,-14849
18:00:50.959619,-1
18:00:50.959619,-23
18:00:50.959619,-5633
18:00:50.959619,-1
18:00:50.959619,-44
18:00:50.959619,-12289
18:00:50.959619,-1
18:00:50.959619,-35
18:00:50.959619,-7425
18:00:50.959619,-1
18:00:50.959619,-33
18:00:50.959619,-7425
18:00:50.959619,-1
18:00:50.959619,-44
18:00:50.959619,-32257
18:00:50.959619,-1
18:00:50.959619,-78
18:00:50.959619,7679
18:00:50.959619,2
18:00:50.959619,1501
18:00:50.959619,-25344
18:00:50.959619,5
18:00:50.959619,141
18:00:50.959619,15616
18:00:50.959619,-2
18:00:50.959619,54
18:00:50.959619,25856
18:00:50.959619,0
18:00:50.959619,-243
18:00:50.959619,18687
18:00:50.959619,-1
18:00:50.959619,-78
18:00:50.959619,23039
18:00:50.959619,-1
18:00:50.959619,-177
18:00:50.959619,-30465
18:00:50.959619,-1
18:00:50.959619,-130
18:00:50.959619,29695
18:00:50.959619,-1
18:00:50.959619,-120
18:00:50.959619,-29953
18:00:50.959619,-1
18:00:50.959619,-127
18:00:50.959619,-30977
18:00:50.959619,-1
18:00:50.959619,-118
18:00:50.959619,-30977
18:00:50.959619,-1
18:00:50.959619,-125
18:00:50.959619,-31745
18:00:50.959619,-1
18:00:50.959619,-127
18:00:50.959619,31999
18:00:50.959619,-1
18:00:50.959619,-127
18:00:51.499803,-120
18:00:51.499803,-28673
18:00:51.499803,-1
18:00:51.499803,-104
18:00:51.499803,-23297
18:00:51.499803,-1
18:00:51.499803,-82
18:00:51.499803,-15361
18:00:51.499803,-1
18:00:51.499803,-26
18:00:51.499803,767
18:00:51.499803,0
18:00:51.499803,-2
18:00:51.499803,-5633
18:00:51.499803,-1
18:00:51.499803,-49
18:00:51.499803,-17153
18:00:51.499803,-1
18:00:51.499803,-82
18:00:51.499803,-24321
18:00:51.499803,-1
18:00:51.499803,-99
18:00:51.499803,-25089
18:00:51.499803,-1
18:00:51.499803,-104
18:00:51.499803,-26369
18:00:51.499803,-1
18:00:51.499803,-99
18:00:51.499803,-25089
18:00:51.499803,-1
18:00:51.499803,-96
18:00:51.499803,-23297
18:00:51.499803,-1
18:00:51.499803,-92
18:00:51.499803,-22529
18:00:51.499803,-1
18:00:51.499803,-85
18:00:51.499803,-21505
18:00:51.499803,-1
18:00:51.499803,-85
18:00:51.499803,-19713
18:00:51.499803,-1
18:00:51.499803,-73
18:00:51.499803,-17665
18:00:51.499803,-1
18:00:51.499803,-68
18:00:51.499803,-16641
18:00:51.499803,-1
18:00:51.499803,-66
18:00:51.499803,-15873
18:00:51.499803,-1
18:00:51.499803,-59
18:00:51.499803,-14849
18:00:51.499803,-1
18:00:51.499803,-61
18:00:51.499803,-15873
18:00:51.499803,-1
18:00:51.499803,-61
18:00:51.499803,-15873
18:00:51.499803,-1
18:00:51.499803,-66
18:00:51.499803,-17153
18:00:51.499803,-1
18:00:51.499803,-63
18:00:51.499803,-15361
18:00:51.499803,-1
18:00:51.499803,-63
18:00:51.499803,-16641
18:00:51.499803,-1
18:00:51.499803,-63
18:00:51.499803,-15873
18:00:51.499803,-1
18:00:51.499803,-63
18:00:51.499803,-14849
18:00:51.499803,-1
18:00:51.499803,-66
18:00:51.499803,-22017
18:00:51.499803,-1
18:00:51.499803,-106
18:00:51.499803,-28673
18:00:51.499803,-1
18:00:51.499803,-111
18:00:51.499803,-25601
18:00:51.499803,-1
18:00:51.499803,-78
18:00:51.499803,-11777
18:00:51.499803,-1
18:00:51.499803,-37
18:00:51.499803,-13057
18:00:51.499803,-1
18:00:51.499803,-59
18:00:51.499803,-12289
18:00:51.499803,-1
18:00:51.499803,-42
18:00:51.499803,-10497
18:00:51.499803,-1
18:00:51.499803,-40
18:00:51.499803,-12289
18:00:51.499803,-1
18:00:51.499803,-113
18:00:51.499803,30207
18:00:51.499803,-1
18:00:51.499803,288
18:00:51.499803,-11264
18:00:51.499803,4
18:00:51.499803,1600
18:00:51.499803,7936
18:00:51.499803,2
18:00:51.499803,-442
18:00:52.129220,-125
18:00:52.129220,-25345
18:00:52.129220,0
18:00:52.129220,-184
18:00:52.129220,6655
18:00:52.129220,-1
18:00:52.129220,-73
18:00:52.129220,31999
18:00:52.129220,-1
18:00:52.129220,-179
18:00:52.129220,-30465
18:00:52.129220,-1
18:00:52.129220,-113
18:00:52.129220,31487
18:00:52.129220,-1
18:00:52.129220,-122
18:00:52.129220,-28673
18:00:52.129220,-1
18:00:52.129220,-122
18:00:52.129220,-30977
18:00:52.129220,-1
18:00:52.129220,-118
18:00:52.129220,-29185
18:00:52.129220,-1
18:00:52.129220,-115
18:00:52.129220,-29953
18:00:52.129220,-1
18:00:52.129220,-118
18:00:52.129220,-30465
18:00:52.129220,-1
18:00:52.129220,-125
18:00:52.129220,32511
18:00:52.129220,-1
18:00:52.129220,-118
18:00:52.129220,-25601
18:00:52.129220,-1
18:00:52.129220,-94
18:00:52.129220,-20737
18:00:52.129220,-1
18:00:52.129220,-61
18:00:52.129220,-9985
18:00:52.129220,-1
18:00:52.129220,-23
18:00:52.129220,-3841
18:00:52.129220,-1
18:00:52.129220,-33
18:00:52.129220,-15873
18:00:52.129220,-1
18:00:52.129220,-85
18:00:52.129220,-23809
18:00:52.129220,-1
18:00:52.129220,-104
18:00:52.129220,-28161
18:00:52.129220,-1
18:00:52.129220,-118
18:00:52.129220,-29953
18:00:52.129220,-1
18:00:52.129220,-111
18:00:52.129220,-28161
18:00:52.129220,-1
18:00:52.129220,-113
18:00:52.129220,-26369
18:00:52.129220,-1
18:00:52.129220,-96
18:00:52.129220,-24321
18:00:52.129220,-1
18:00:52.129220,-92
18:00:52.129220,-21505
18:00:52.129220,-1
18:00:52.129220,-85
18:00:52.129220,-22017
18:00:52.129220,-1
18:00:52.129220,-85
18:00:52.129220,-20737
18:00:52.129220,-1
18:00:52.129220,-78
18:00:52.129220,-18945
18:00:52.129220,-1
18:00:52.129220,-78
18:00:52.129220,-20225
18:00:52.129220,-1
18:00:52.129220,-73
18:00:52.129220,-17153
18:00:52.129220,-1
18:00:52.129220,-66
18:00:52.129220,-16641
18:00:52.129220,-1
18:00:52.129220,-70
18:00:52.129220,-17665
18:00:52.129220,-1
18:00:52.129220,-70
18:00:52.129220,-17153
18:00:52.129220,-1
18:00:52.129220,-66
18:00:52.129220,-15873
18:00:52.129220,-1
18:00:52.129220,-63
18:00:52.129220,-15361
18:00:52.129220,-1
18:00:52.129220,-63
18:00:52.129220,-16641
18:00:52.129220,-1
18:00:52.129220,-59
18:00:52.129220,-13569
18:00:52.129220,-1
18:00:52.129220,-54
18:00:52.129220,-13569
18:00:52.129220,-1
18:00:52.129220,-54
18:00:52.669262,-52
18:00:52.669262,-12289
18:00:52.669262,-1
18:00:52.669262,-44
18:00:52.669262,-13057
18:00:52.669262,-1
18:00:52.669262,-73
18:00:52.669262,-23809
18:00:52.669262,-1
18:00:52.669262,-101
18:00:52.669262,-25089
18:00:52.669262,-1
18:00:52.669262,-89
18:00:52.669262,-14849
18:00:52.669262,-1
18:00:52.669262,-23
18:00:52.669262,-2561
18:00:52.669262,-1
18:00:52.669262,-21
18:00:52.669262,-5633
18:00:52.669262,-1
18:00:52.669262,-16
18:00:52.669262,-3329
18:00:52.669262,-1
18:00:52.669262,-16
18:00:52.669262,-2561
18:00:52.669262,-1
18:00:52.669262,-14
18:00:52.669262,-15873
18:00:52.669262,-1
18:00:52.669262,-113
18:00:52.669262,-19457
18:00:52.669262,0
18:00:52.669262,1035
18:00:52.669262,26624
18:00:52.669262,6
18:00:52.669262,867
18:00:52.669262,-15360
18:00:52.669262,-2
18:00:52.669262,-229
18:00:52.669262,-16385
18:00:52.669262,0
18:00:52.669262,-87
18:00:52.669262,3071
18:00:52.669262,-1
18:00:52.669262,-87
18:00:52.669262,-26881
18:00:52.669262,-1
18:00:52.669262,-179
18:00:52.669262,-31745
18:00:52.669262,-1
18:00:52.669262,-101
18:00:52.669262,-31745
18:00:52.669262,-1
18:00:52.669262,-113
18:00:52.669262,-25089
18:00:52.669262,-1
18:00:52.669262,-104
18:00:52.669262,-26369
18:00:52.669262,-1
18:00:52.669262,-96
18:00:52.669262,-25089
18:00:52.669262,-1
18:00:52.669262,-101
18:00:52.669262,-25089
18:00:52.669262,-1
18:00:52.669262,-99
18:00:52.669262,-24321
18:00:52.669262,-1
18:00:52.669262,-94
18:00:52.669262,-23809
18:00:52.669262,-1
18:00:52.669262,-92
18:00:52.669262,-20225
18:00:52.669262,-1
18:00:52.669262,-70
18:00:52.669262,-14849
18:00:52.669262,-1
18:00:52.669262,-47
18:00:52.669262,-7425
18:00:52.669262,-1
18:00:52.669262,-9
18:00:52.669262,1279
18:00:52.669262,0
18:00:52.669262,-2
18:00:52.669262,-8193
18:00:52.669262,-1
18:00:52.669262,-56
18:00:52.669262,-17153
18:00:52.669262,-1
18:00:52.669262,-80
18:00:52.669262,-22017
18:00:52.669262,-1
18:00:52.669262,-92
18:00:52.669262,-23297
18:00:52.669262,-1
18:00:52.669262,-89
18:00:52.669262,-22529
18:00:52.669262,-1
18:00:52.669262,-87
18:00:52.669262,-20225
18:00:52.669262,-1
18:00:52.669262,-78
18:00:52.669262,-18945
18:00:52.669262,-1
18:00:52.669262,-75
18:00:52.669262,-17665
18:00:52.669262,-1
18:00:52.669262,-68
18:00:53.209268,-66
18:00:53.209268,-16641
18:00:53.209268,-1
18:00:53.209268,-63
18:00:53.209268,-15361
18:00:53.209268,-1
18:00:53.209268,-59
18:00:53.209268,-14081
18:00:53.209268,-1
18:00:53.209268,-56
18:00:53.209268,-14849
18:00:53.209268,-1
18:00:53.209268,-56
18:00:53.209268,-11009
18:00:53.209268,-1
18:00:53.209268,-37
18:00:53.209268,-9217
18:00:53.209268,-1
18:00:53.209268,-40
18:00:53.209268,-8705
18:00:53.209268,-1
18:00:53.209268,-30
18:00:53.209268,-8193
18:00:53.209268,-1
18:00:53.209268,-35
18:00:53.209268,-9217
18:00:53.209268,-1
18:00:53.209268,-37
18:00:53.209268,-9217
18:00:53.209268,-1
18:00:53.209268,-33
18:00:53.209268,-8193
18:00:53.209268,-1
18:00:53.209268,-30
18:00:53.209268,-6401
18:00:53.209268,-1
18:00:53.209268,-26
18:00:53.209268,-6401
18:00:53.209268,-1
18:00:53.209268,-26
18:00:53.209268,-4353
18:00:53.209268,-1
18:00:53.209268,-14
18:00:53.209268,-3329
18:00:53.209268,-1
18:00:53.209268,-11
18:00:53.209268,-2561
18:00:53.209268,-1
18:00:53.209268,-9
18:00:53.209268,-1537
18:00:53.209268,-1
18:00:53.209268,-4
18:00:53.209268,-257
18:00:53.209268,-1
18:00:53.209268,-4
18:00:53.209268,-3329
18:00:53.209268,-1
18:00:53.209268,-30
18:00:53.209268,-10497
18:00:53.209268,-1
18:00:53.209268,-42
18:00:53.209268,-6913
18:00:53.209268,-1
18:00:53.209268,14
18:00:53.209268,13824
18:00:53.209268,0
18:00:53.209268,59
18:00:53.209268,11264
18:00:53.209268,0
18:00:53.209268,26
18:00:53.209268,5888
18:00:53.209268,0
18:00:53.209268,35
18:00:53.209268,10240
18:00:53.209268,0
18:00:53.209268,44
18:00:53.209268,12544
18:00:53.209268,0
18:00:53.209268,18
18:00:53.209268,-10752
18:00:53.209268,-1
18:00:53.209268,130
18:00:53.209268,25344
18:00:53.209268,3
18:00:53.209268,1645
18:00:53.209268,-30720
18:00:53.209268,4
18:00:53.209268,-144
18:00:53.209268,-16385
18:00:53.209268,-2
18:00:53.209268,234
18:00:53.209268,25856
18:00:53.209268,0
18:00:53.209268,-158
18:00:53.209268,-5121
18:00:53.209268,-1
18:00:53.209268,21
18:00:53.209268,-16896
18:00:53.209268,-1
18:00:53.209268,-35
18:00:53.209268,1279
18:00:53.209268,0
18:00:53.209268,-16
18:00:53.209268,-2561
18:00:53.209268,-1
18:00:53.209268,9
18:00:53.209268,2304
18:00:53.209268,0
18:00:53.209268,9
18:00:53.794269,18
18:00:53.794269,6656
18:00:53.794269,0
18:00:53.794269,26
18:00:53.794269,8448
18:00:53.794269,0
18:00:53.794269,35
18:00:53.794269,8448
18:00:53.794269,0
18:00:53.794269,42
18:00:53.794269,15104
18:00:53.794269,0
18:00:53.794269,73
18:00:53.794269,19968
18:00:53.794269,0
18:00:53.794269,87
18:00:53.794269,25856
18:00:53.794269,0
18:00:53.794269,113
18:00:53.794269,30720
18:00:53.794269,0
18:00:53.794269,132
18:00:53.794269,-28160
18:00:53.794269,0
18:00:53.794269,139
18:00:53.794269,28416
18:00:53.794269,0
18:00:53.794269,87
18:00:53.794269,17408
18:00:53.794269,0
18:00:53.794269,54
18:00:53.794269,12032
18:00:53.794269,0
18:00:53.794269,37
18:00:53.794269,8448
18:00:53.794269,0
18:00:53.794269,40
18:00:53.794269,10752
18:00:53.794269,0
18:00:53.794269,35
18:00:53.794269,9472
18:00:53.794269,0
18:00:53.794269,44
18:00:53.794269,12544
18:00:53.794269,0
18:00:53.794269,59
18:00:53.794269,16128
18:00:53.794269,0
18:00:53.794269,59
18:00:53.794269,15104
18:00:53.794269,0
18:00:53.794269,61
18:00:53.794269,16128
18:00:53.794269,0
18:00:53.794269,68
18:00:53.794269,16896
18:00:53.794269,0
18:00:53.794269,59
18:00:53.794269,15616
18:00:53.794269,0
18:00:53.794269,66
18:00:53.794269,16896
18:00:53.794269,0
18:00:53.794269,63
18:00:53.794269,15616
18:00:53.794269,0
18:00:53.794269,59
18:00:53.794269,15104
18:00:53.794269,0
18:00:53.794269,63
18:00:53.794269,16128
18:00:53.794269,0
18:00:53.794269,61
18:00:53.794269,13312
18:00:53.794269,0
18:00:53.794269,54
18:00:53.794269,14336
18:00:53.794269,0
18:00:53.794269,52
18:00:53.794269,13824
18:00:53.794269,0
18:00:53.794269,61
18:00:53.794269,13824
18:00:53.794269,0
18:00:53.794269,49
18:00:53.794269,15104
18:00:53.794269,0
18:00:53.794269,63
18:00:53.794269,14336
18:00:53.794269,0
18:00:53.794269,54
18:00:53.794269,15616
18:00:53.794269,0
18:00:53.794269,63
18:00:53.794269,15104
18:00:53.794269,0
18:00:53.794269,59
18:00:53.794269,15616
18:00:53.794269,0
18:00:53.794269,56
18:00:53.794269,14336
18:00:53.794269,0
18:00:53.794269,56
18:00:53.794269,13312
18:00:53.794269,0
18:00:53.794269,52
18:00:53.794269,14336
18:00:53.794269,0
18:00:53.794269,52
18:00:54.334272,40
18:00:54.334272,5888
18:00:54.334272,0
18:00:54.334272,-7
18:00:54.334272,-1537
18:00:54.334272,-1
18:00:54.334272,11
18:00:54.334272,5888
18:00:54.334272,0
18:00:54.334272,52
18:00:54.334272,18688
18:00:54.334272,0
18:00:54.334272,54
18:00:54.334272,8960
18:00:54.334272,0
18:00:54.334272,52
18:00:54.334272,17920
18:00:54.334272,0
18:00:54.334272,66
18:00:54.334272,17408
18:00:54.334272,0
18:00:54.334272,70
18:00:54.334272,8448
18:00:54.334272,0
18:00:54.334272,-26
18:00:54.334272,-30209
18:00:54.334272,0
18:00:54.334272,872
18:00:54.334272,26112
18:00:54.334272,6
18:00:54.334272,995
18:00:54.334272,8448
18:00:54.334272,-2
18:00:54.334272,-562
18:00:54.334272,-19457
18:00:54.334272,0
18:00:54.334272,106
18:00:54.334272,28160
18:00:54.334272,-1
18:00:54.334272,-4
18:00:54.334272,6911
18:00:54.334272,0
18:00:54.334272,-59
18:00:54.334272,-6401
18:00:54.334272,-1
18:00:54.334272,0
18:00:54.334272,-7680
18:00:54.334272,-1
18:00:54.334272,-23
18:00:54.334272,-257
18:00:54.334272,-1
18:00:54.334272,-9
18:00:54.334272,-2049
18:00:54.334272,-1
18:00:54.334272,0
18:00:54.334272,512
18:00:54.334272,0
18:00:54.334272,4
18:00:54.334272,3584
18:00:54.334272,0
18:00:54.334272,18
18:00:54.334272,5376
18:00:54.334272,0
18:00:54.334272,30
18:00:54.334272,10752
18:00:54.334272,0
18:00:54.334272,54
18:00:54.334272,17920
18:00:54.334272,0
18:00:54.334272,85
18:00:54.334272,23552
18:00:54.334272,0
18:00:54.334272,94
18:00:54.334272,23552
18:00:54.334272,0
18:00:54.334272,87
18:00:54.334272,17920
18:00:54.334272,0
18:00:54.334272,42
18:00:54.334272,1024
18:00:54.334272,0
18:00:54.334272,-30
18:00:54.334272,-13569
18:00:54.334272,-1
18:00:54.334272,-73
18:00:54.334272,-21505
18:00:54.334272,-1
18:00:54.334272,-89
18:00:54.334272,-23809
18:00:54.334272,-1
18:00:54.334272,-101
18:00:54.334272,-25601
18:00:54.334272,-1
18:00:54.334272,-94
18:00:54.334272,-23297
18:00:54.334272,-1
18:00:54.334272,-92
18:00:54.334272,-21505
18:00:54.334272,-1
18:00:54.334272,-80
18:00:54.334272,-19713
18:00:54.334272,-1
18:00:54.334272,-73
18:00:54.334272,-17153
18:00:54.334272,-1
18:00:54.334272,-68
18:00:54.334272,-15873
18:00:54.334272,-1
18:00:54.334272,-61
18:00:54.919234,-61
18:00:54.919234,-13569
18:00:54.919234,-1
18:00:54.919234,-47
18:00:54.919234,-11777
18:00:54.919234,-1
18:00:54.919234,-44
18:00:54.919234,-10497
18:00:54.919234,-1
18:00:54.919234,-42
18:00:54.919234,-9217
18:00:54.919234,-1
18:00:54.919234,-28
18:00:54.919234,-6913
18:00:54.919234,-1
18:00:54.919234,-30
18:00:54.919234,-7425
18:00:54.919234,-1
18:00:54.919234,-30
18:00:54.919234,-7425
18:00:54.919234,-1
18:00:54.919234,-33
18:00:54.919234,-8705
18:00:54.919234,-1
18:00:54.919234,-35
18:00:54.919234,-9217
18:00:54.919234,-1
18:00:54.919234,-37
18:00:54.919234,-8705
18:00:54.919234,-1
18:00:54.919234,-35
18:00:54.919234,-9985
18:00:54.919234,-1
18:00:54.919234,-40
18:00:54.919234,-9217
18:00:54.919234,-1
18:00:54.919234,-37
18:00:54.919234,-9217
18:00:54.919234,-1
18:00:54.919234,-49
18:00:54.919234,-18945
18:00:54.919234,-1
18:00:54.919234,-94
18:00:54.919234,-24321
18:00:54.919234,-1
18:00:54.919234,-89
18:00:54.919234,-17665
18:00:54.919234,-1
18:00:54.919234,-33
18:00:54.919234,-1537
18:00:54.919234,-1
18:00:54.919234,-16
18:00:54.919234,-9985
18:00:54.919234,-1
18:00:54.919234,-42
18:00:54.919234,-8193
18:00:54.919234,-1
18:00:54.919234,-33
18:00:54.919234,-8193
18:00:54.919234,-1
18:00:54.919234,-28
18:00:54.919234,-11777
18:00:54.919234,-1
18:00:54.919234,-120
18:00:54.919234,-11777
18:00:54.919234,-1
18:00:54.919234,591
18:00:54.919234,-7168
18:00:54.919234,5
18:00:54.919234,1335
18:00:54.919234,2816
18:00:54.919234,0
18:00:54.919234,-472
18:00:54.919234,19455
18:00:54.919234,0
18:00:54.919234,85
18:00:54.919234,2816
18:00:54.919234,-1
18:00:54.919234,-167
18:00:54.919234,-18945
18:00:54.919234,-1
18:00:54.919234,-167
18:00:54.919234,23551
18:00:54.919234,-1
18:00:54.919234,-113
18:00:54.919234,32511
18:00:54.919234,-1
18:00:54.919234,-141
18:00:54.919234,-30977
18:00:54.919234,-1
18:00:54.919234,-115
18:00:54.919234,-29953
18:00:54.919234,-1
18:00:54.919234,-115
18:00:54.919234,-29185
18:00:54.919234,-1
18:00:54.919234,-118
18:00:54.919234,-29185
18:00:54.919234,-1
18:00:54.919234,-113
18:00:54.919234,-29953
18:00:54.919234,-1
18:00:54.919234,-120
18:00:54.919234,-29185
18:00:54.919234,-1
18:00:54.919234,-108
18:00:54.919234,-25089
18:00:54.919234,-1
18:00:54.919234,-80
18:00:55.459033,-66
18:00:55.459033,-14849
18:00:55.459033,-1
18:00:55.459033,-44
18:00:55.459033,-6401
18:00:55.459033,-1
18:00:55.459033,-14
18:00:55.459033,-4353
18:00:55.459033,-1
18:00:55.459033,-47
18:00:55.459033,-18945
18:00:55.459033,-1
18:00:55.459033,-94
18:00:55.459033,-28161
18:00:55.459033,-1
18:00:55.459033,-111
18:00:55.459033,-26369
18:00:55.459033,-1
18:00:55.459033,-106
18:00:55.459033,-28673
18:00:55.459033,-1
18:00:55.459033,-113
18:00:55.459033,-28161
18:00:55.459033,-1
18:00:55.459033,-108
18:00:55.459033,-26881
18:00:55.459033,-1
18:00:55.459033,-104
18:00:55.459033,-26369
18:00:55.459033,-1
18:00:55.459033,-101
18:00:55.459033,-24321
18:00:55.459033,-1
18:00:55.459033,-94
18:00:55.459033,-23809
18:00:55.459033,-1
18:00:55.459033,-89
18:00:55.459033,-22017
18:00:55.459033,-1
18:00:55.459033,-89
18:00:55.459033,-22529
18:00:55.459033,-1
18:00:55.459033,-82
18:00:55.459033,-18945
18:00:55.459033,-1
18:00:55.459033,-75
18:00:55.459033,-18945
18:00:55.459033,-1
18:00:55.459033,-75
18:00:55.459033,-18433
18:00:55.459033,-1
18:00:55.459033,-70
18:00:55.459033,-17665
18:00:55.459033,-1
18:00:55.459033,-73
18:00:55.459033,-18945
18:00:55.459033,-1
18:00:55.459033,-75
18:00:55.459033,-18433
18:00:55.459033,-1
18:00:55.459033,-75
18:00:55.459033,-19713
18:00:55.459033,-1
18:00:55.459033,-75
18:00:55.459033,-18945
18:00:55.459033,-1
18:00:55.459033,-75
18:00:55.459033,-18433
18:00:55.459033,-1
18:00:55.459033,-70
18:00:55.459033,-18433
18:00:55.459033,-1
18:00:55.459033,-75
18:00:55.459033,-19713
18:00:55.459033,-1
18:00:55.459033,-75
18:00:55.459033,-17665
18:00:55.459033,-1
18:00:55.459033,-68
18:00:55.459033,-17153
18:00:55.459033,-1
18:00:55.459033,-68
18:00:55.459033,-19713
18:00:55.459033,-1
18:00:55.459033,-99
18:00:55.459033,-29185
18:00:55.459033,-1
18:00:55.459033,-120
18:00:55.459033,-30465
18:00:55.459033,-1
18:00:55.459033,-108
18:00:55.459033,-17665
18:00:55.459033,-1
18:00:55.459033,-33
18:00:55.459033,-9985
18:00:55.459033,-1
18:00:55.459033,-66
18:00:55.459033,-15873
18:00:55.459033,-1
18:00:55.459033,-47
18:00:55.459033,-11777
18:00:55.459033,-1
18:00:55.459033,-49
18:00:55.459033,-11009
18:00:55.459033,-1
18:00:55.459033,-66
18:00:55.459033,30719
18:00:55.459033,-1
18:00:55.459033,-47
18:00:56.044742,602
18:00:56.044742,-10752
18:00:56.044742,5
18:00:56.044742,1297
18:00:56.044742,-4608
18:00:56.044742,-1
18:00:56.044742,-487
18:00:56.044742,14079
18:00:56.044742,0
18:00:56.044742,59
18:00:56.044742,-256
18:00:56.044742,-2
18:00:56.044742,-163
18:00:56.044742,-17665
18:00:56.044742,-1
18:00:56.044742,-165
18:00:56.044742,24831
18:00:56.044742,-1
18:00:56.044742,-111
18:00:56.044742,-32257
18:00:56.044742,-1
18:00:56.044742,-130
18:00:56.044742,-27393
18:00:56.044742,-1
18:00:56.044742,-113
18:00:56.044742,-28673
18:00:56.044742,-1
18:00:56.044742,-106
18:00:56.044742,-26881
18:00:56.044742,-1
18:00:56.044742,-106
18:00:56.044742,-25601
18:00:56.044742,-1
18:00:56.044742,-104
18:00:56.044742,-26369
18:00:56.044742,-1
18:00:56.044742,-96
18:00:56.044742,-22529
18:00:56.044742,-1
18:00:56.044742,-85
18:00:56.044742,-18945
18:00:56.044742,-1
18:00:56.044742,-66
18:00:56.044742,-13569
18:00:56.044742,-1
18:00:56.044742,-37
18:00:56.044742,-5633
18:00:56.044742,-1
18:00:56.044742,-11
18:00:56.044742,767
18:00:56.044742,0
18:00:56.044742,-4
18:00:56.044742,-8193
18:00:56.044742,-1
18:00:56.044742,-68
18:00:56.044742,-22529
18:00:56.044742,-1
18:00:56.044742,-101
18:00:56.044742,-28161
18:00:56.044742,-1
18:00:56.044742,-113
18:00:56.044742,-29953
18:00:56.044742,-1
18:00:56.044742,-118
18:00:56.044742,-28673
18:00:56.044742,-1
18:00:56.044742,-111
18:00:56.044742,-28161
18:00:56.044742,-1
18:00:56.044742,-104
18:00:56.044742,-25601
18:00:56.044742,-1
18:00:56.044742,-99
18:00:56.044742,-23297
18:00:56.044742,-1
18:00:56.044742,-85
18:00:56.044742,-20737
18:00:56.044742,-1
18:00:56.044742,-82
18:00:56.044742,-18945
18:00:56.044742,-1
18:00:56.044742,-70
18:00:56.044742,-15873
18:00:56.044742,-1
18:00:56.044742,-56
18:00:56.044742,-11009
18:00:56.044742,-1
18:00:56.044742,-37
18:00:56.044742,-9985
18:00:56.044742,-1
18:00:56.044742,-35
18:00:56.044742,-6913
18:00:56.044742,-1
18:00:56.044742,-26
18:00:56.044742,-5633
18:00:56.044742,-1
18:00:56.044742,-21
18:00:56.044742,-3329
18:00:56.044742,-1
18:00:56.044742,-9
18:00:56.044742,-1537
18:00:56.044742,-1
18:00:56.044742,0
18:00:56.044742,1792
18:00:56.044742,0
18:00:56.044742,9
18:00:56.044742,3584
18:00:56.044742,0
18:00:56.044742,21
18:00:56.585273,28
18:00:56.585273,10752
18:00:56.585273,0
18:00:56.585273,49
18:00:56.585273,12544
18:00:56.585273,0
18:00:56.585273,59
18:00:56.585273,17920
18:00:56.585273,0
18:00:56.585273,80
18:00:56.585273,20992
18:00:56.585273,0
18:00:56.585273,92
18:00:56.585273,26624
18:00:56.585273,0
18:00:56.585273,115
18:00:56.585273,-30464
18:00:56.585273,0
18:00:56.585273,153
18:00:56.585273,-26368
18:00:56.585273,0
18:00:56.585273,160
18:00:56.585273,-21504
18:00:56.585273,0
18:00:56.585273,182
18:00:56.585273,-16640
18:00:56.585273,0
18:00:56.585273,196
18:00:56.585273,-17920
18:00:56.585273,0
18:00:56.585273,172
18:00:56.585273,-23808
18:00:56.585273,0
18:00:56.585273,165
18:00:56.585273,-18944
18:00:56.585273,0
18:00:56.585273,219
18:00:56.585273,2048
18:00:56.585273,1
18:00:56.585273,283
18:00:56.585273,2816
18:00:56.585273,1
18:00:56.585273,255
18:00:56.585273,2816
18:00:56.585273,1
18:00:56.585273,276
18:00:56.585273,6400
18:00:56.585273,1
18:00:56.585273,288
18:00:56.585273,8192
18:00:56.585273,1
18:00:56.585273,243
18:00:56.585273,-13568
18:00:56.585273,0
18:00:56.585273,527
18:00:56.585273,32256
18:00:56.585273,5
18:00:56.585273,1936
18:00:56.585273,5120
18:00:56.585273,4
18:00:56.585273,-101
18:00:56.585273,27391
18:00:56.585273,0
18:00:56.585273,534
18:00:56.585273,-6400
18:00:56.585273,0
18:00:56.585273,96
18:00:56.585273,1536
18:00:56.585273,1
18:00:56.585273,231
18:00:56.585273,-22784
18:00:56.585273,0
18:00:56.585273,224
18:00:56.585273,-3840
18:00:56.585273,0
18:00:56.585273,217
18:00:56.585273,-5632
18:00:56.585273,0
18:00:56.585273,243
18:00:56.585273,-5120
18:00:56.585273,0
18:00:56.585273,238
18:00:56.585273,-3840
18:00:56.585273,0
18:00:56.585273,236
18:00:56.585273,-5120
18:00:56.585273,0
18:00:56.585273,238
18:00:56.585273,-4608
18:00:56.585273,0
18:00:56.585273,236
18:00:56.585273,-4608
18:00:56.585273,0
18:00:56.585273,243
18:00:56.585273,-3328
18:00:56.585273,0
18:00:56.585273,245
18:00:56.585273,1024
18:00:56.585273,1
18:00:56.585273,271
18:00:56.585273,5120
18:00:56.585273,1
18:00:56.585273,283
18:00:56.585273,9984
18:00:56.585273,1
18:00:56.585273,300
18:00:56.585273,6400
18:00:56.585273,1
18:00:56.585273,245
18:00:57.124247,212
18:00:57.124247,-16640
18:00:57.124247,0
18:00:57.124247,172
18:00:57.124247,-24576
18:00:57.124247,0
18:00:57.124247,151
18:00:57.124247,-27648
18:00:57.124247,0
18:00:57.124247,148
18:00:57.124247,-27648
18:00:57.124247,0
18:00:57.124247,158
18:00:57.124247,-23296
18:00:57.124247,0
18:00:57.124247,160
18:00:57.124247,-25600
18:00:57.124247,0
18:00:57.124247,158
18:00:57.124247,-25088
18:00:57.124247,0
18:00:57.124247,153
18:00:57.124247,-25600
18:00:57.124247,0
18:00:57.124247,156
18:00:57.124247,-26368
18:00:57.124247,0
18:00:57.124247,153
18:00:57.124247,-26880
18:00:57.124247,0
18:00:57.124247,148
18:00:57.124247,-28160
18:00:57.124247,0
18:00:57.124247,141
18:00:57.124247,-30464
18:00:57.124247,0
18:00:57.124247,134
18:00:57.124247,-31744
18:00:57.124247,0
18:00:57.124247,130
18:00:57.124247,32000
18:00:57.124247,0
18:00:57.124247,118
18:00:57.124247,28416
18:00:57.124247,0
18:00:57.124247,108
18:00:57.124247,27648
18:00:57.124247,0
18:00:57.124247,106
18:00:57.124247,25856
18:00:57.124247,0
18:00:57.124247,96
18:00:57.124247,24064
18:00:57.124247,0
18:00:57.124247,94
18:00:57.124247,23552
18:00:57.124247,0
18:00:57.124247,87
18:00:57.124247,21760
18:00:57.124247,0
18:00:57.124247,82
18:00:57.124247,19200
18:00:57.124247,0
18:00:57.124247,78
18:00:57.124247,20992
18:00:57.124247,0
18:00:57.124247,80
18:00:57.124247,19200
18:00:57.124247,0
18:00:57.124247,70
18:00:57.124247,17408
18:00:57.124247,0
18:00:57.124247,63
18:00:57.124247,15616
18:00:57.124247,0
18:00:57.124247,59
18:00:57.124247,15104
18:00:57.124247,0
18:00:57.124247,54
18:00:57.124247,12544
18:00:57.124247,0
18:00:57.124247,49
18:00:57.124247,12544
18:00:57.124247,0
18:00:57.124247,47
18:00:57.124247,10752
18:00:57.124247,0
18:00:57.124247,40
18:00:57.124247,10240
18:00:57.124247,0
18:00:57.124247,40
18:00:57.124247,5888
18:00:57.124247,0
18:00:57.124247,-2
18:00:57.124247,-5121
18:00:57.124247,-1
18:00:57.124247,-21
18:00:57.124247,-2561
18:00:57.124247,-1
18:00:57.124247,14
18:00:57.124247,12032
18:00:57.124247,0
18:00:57.124247,54
18:00:57.124247,8960
18:00:57.124247,0
18:00:57.124247,18
18:00:57.124247,4608
18:00:57.124247,0
18:00:57.124247,28
18:00:57.710305,30
18:00:57.710305,6656
18:00:57.710305,0
18:00:57.710305,26
18:00:57.710305,-2304
18:00:57.710305,-1
18:00:57.710305,-73
18:00:57.710305,-26625
18:00:57.710305,0
18:00:57.710305,971
18:00:57.710305,-26880
18:00:57.710305,6
18:00:57.710305,981
18:00:57.710305,30720
18:00:57.710305,-2
18:00:57.710305,-401
18:00:57.710305,-9729
18:00:57.710305,0
18:00:57.710305,40
18:00:57.710305,16128
18:00:57.710305,-1
18:00:57.710305,-30
18:00:57.710305,-3329
18:00:57.710305,-1
18:00:57.710305,-113
18:00:57.710305,-18433
18:00:57.710305,-1
18:00:57.710305,-35
18:00:57.710305,-16641
18:00:57.710305,-1
18:00:57.710305,-63
18:00:57.710305,-11009
18:00:57.710305,-1
18:00:57.710305,-49
18:00:57.710305,-12289
18:00:57.710305,-1
18:00:57.710305,-37
18:00:57.710305,-8705
18:00:57.710305,-1
18:00:57.710305,-37
18:00:57.710305,-7425
18:00:57.710305,-1
18:00:57.710305,-23
18:00:57.710305,-3841
18:00:57.710305,-1
18:00:57.710305,-7
18:00:57.710305,255
18:00:57.710305,0
18:00:57.710305,7
18:00:57.710305,4096
18:00:57.710305,0
18:00:57.710305,28
18:00:57.710305,11264
18:00:57.710305,0
18:00:57.710305,54
18:00:57.710305,13312
18:00:57.710305,0
18:00:57.710305,54
18:00:57.710305,14336
18:00:57.710305,0
18:00:57.710305,33
18:00:57.710305,-1024
18:00:57.710305,-1
18:00:57.710305,-35
18:00:57.710305,-17665
18:00:57.710305,-1
18:00:57.710305,-92
18:00:57.710305,-23809
18:00:57.710305,-1
18:00:57.710305,-101
18:00:57.710305,-26881
18:00:57.710305,-1
18:00:57.710305,-108
18:00:57.710305,-28161
18:00:57.710305,-1
18:00:57.710305,-106
18:00:57.710305,-25601
18:00:57.710305,-1
18:00:57.710305,-92
18:00:57.710305,-22017
18:00:57.710305,-1
18:00:57.710305,-87
18:00:57.710305,-21505
18:00:57.710305,-1
18:00:57.710305,-80
18:00:57.710305,-18945
18:00:57.710305,-1
18:00:57.710305,-66
18:00:57.710305,-15873
18:00:57.710305,-1
18:00:57.710305,-63
18:00:57.710305,-15361
18:00:57.710305,-1
18:00:57.710305,-54
18:00:57.710305,-11777
18:00:57.710305,-1
18:00:57.710305,-49
18:00:57.710305,-13569
18:00:57.710305,-1
18:00:57.710305,-54
18:00:57.710305,-14081
18:00:57.710305,-1
18:00:57.710305,-56
18:00:57.710305,-12289
18:00:57.710305,-1
18:00:57.710305,-47
18:00:57.710305,-14081
18:00:57.710305,-1
18:00:57.710305,-61
18:00:58.249833,-59
18:00:58.249833,-14849
18:00:58.249833,-1
18:00:58.249833,-59
18:00:58.249833,-14849
18:00:58.249833,-1
18:00:58.249833,-59
18:00:58.249833,-14081
18:00:58.249833,-1
18:00:58.249833,-59
18:00:58.249833,-15361
18:00:58.249833,-1
18:00:58.249833,-56
18:00:58.249833,-9985
18:00:58.249833,-1
18:00:58.249833,-35
18:00:58.249833,-11009
18:00:58.249833,-1
18:00:58.249833,-49
18:00:58.249833,-9985
18:00:58.249833,-1
18:00:58.249833,-40
18:00:58.249833,-11009
18:00:58.249833,-1
18:00:58.249833,-42
18:00:58.249833,-9985
18:00:58.249833,-1
18:00:58.249833,-47
18:00:58.249833,-14081
18:00:58.249833,-1
18:00:58.249833,-75
18:00:58.249833,-22529
18:00:58.249833,-1
18:00:58.249833,-85
18:00:58.249833,-19713
18:00:58.249833,-1
18:00:58.249833,-70
18:00:58.249833,-11009
18:00:58.249833,-1
18:00:58.249833,-14
18:00:58.249833,-5633
18:00:58.249833,-1
18:00:58.249833,-42
18:00:58.249833,-8705
18:00:58.249833,-1
18:00:58.249833,-26
18:00:58.249833,-6401
18:00:58.249833,-1
18:00:58.249833,-23
18:00:58.249833,-5633
18:00:58.249833,-1
18:00:58.249833,-40
18:00:58.249833,-26881
18:00:58.249833,-1
18:00:58.249833,-35
18:00:58.249833,20991
18:00:58.249833,2
18:00:58.249833,1479
18:00:58.249833,-26368
18:00:58.249833,4
18:00:58.249833,-271
18:00:58.249833,24575
18:00:58.249833,-3
18:00:58.249833,44
18:00:58.249833,29440
18:00:58.249833,0
18:00:58.249833,-208
18:00:58.249833,-29953
18:00:58.249833,-1
18:00:58.249833,-28
18:00:58.249833,-30977
18:00:58.249833,-1
18:00:58.249833,-118
18:00:58.249833,-17153
18:00:58.249833,-1
18:00:58.249833,-89
18:00:58.249833,-24321
18:00:58.249833,-1
18:00:58.249833,-70
18:00:58.249833,-17153
18:00:58.249833,-1
18:00:58.249833,-75
18:00:58.249833,-16641
18:00:58.249833,-1
18:00:58.249833,-59
18:00:58.249833,-14849
18:00:58.249833,-1
18:00:58.249833,-56
18:00:58.249833,-13569
18:00:58.249833,-1
18:00:58.249833,-49
18:00:58.249833,-10497
18:00:58.249833,-1
18:00:58.249833,-35
18:00:58.249833,-5633
18:00:58.249833,-1
18:00:58.249833,-9
18:00:58.249833,1279
18:00:58.249833,0
18:00:58.249833,21
18:00:58.249833,7680
18:00:58.249833,0
18:00:58.249833,33
18:00:58.249833,8960
18:00:58.249833,0
18:00:58.249833,37
18:00:58.249833,4608
18:00:58.249833,0
18:00:58.249833,-23
18:00:58.834249,-63
18:00:58.834249,-22017
18:00:58.834249,-1
18:00:58.834249,-101
18:00:58.834249,-28161
18:00:58.834249,-1
18:00:58.834249,-115
18:00:58.834249,-29185
18:00:58.834249,-1
18:00:58.834249,-106
18:00:58.834249,-24321
18:00:58.834249,-1
18:00:58.834249,-99
18:00:58.834249,-25601
18:00:58.834249,-1
18:00:58.834249,-96
18:00:58.834249,-23809
18:00:58.834249,-1
18:00:58.834249,-89
18:00:58.834249,-21505
18:00:58.834249,-1
18:00:58.834249,-80
18:00:58.834249,-18945
18:00:58.834249,-1
18:00:58.834249,-70
18:00:58.834249,-17153
18:00:58.834249,-1
18:00:58.834249,-68
18:00:58.834249,-15873
18:00:58.834249,-1
18:00:58.834249,-59
18:00:58.834249,-13057
18:00:58.834249,-1
18:00:58.834249,-49
18:00:58.834249,-12289
18:00:58.834249,-1
18:00:58.834249,-49
18:00:58.834249,-12289
18:00:58.834249,-1
18:00:58.834249,-49
18:00:58.834249,-13057
18:00:58.834249,-1
18:00:58.834249,-59
18:00:58.834249,-15361
18:00:58.834249,-1
18:00:58.834249,-59
18:00:58.834249,-14849
18:00:58.834249,-1
18:00:58.834249,-61
18:00:58.834249,-14849
18:00:58.834249,-1
18:00:58.834249,-63
18:00:58.834249,-15361
18:00:58.834249,-1
18:00:58.834249,-59
18:00:58.834249,-14849
18:00:58.834249,-1
18:00:58.834249,-66
18:00:58.834249,-16641
18:00:58.834249,-1
18:00:58.834249,-61
18:00:58.834249,-15361
18:00:58.834249,-1
18:00:58.834249,-61
18:00:58.834249,-14849
18:00:58.834249,-1
18:00:58.834249,-56
18:00:58.834249,-13057
18:00:58.834249,-1
18:00:58.834249,-56
18:00:58.834249,-14849
18:00:58.834249,-1
18:00:58.834249,-54
18:00:58.834249,-13057
18:00:58.834249,-1
18:00:58.834249,-52
18:00:58.834249,-14081
18:00:58.834249,-1
18:00:58.834249,-73
18:00:58.834249,-23297
18:00:58.834249,-1
18:00:58.834249,-106
18:00:58.834249,-26881
18:00:58.834249,-1
18:00:58.834249,-94
18:00:58.834249,-17153
18:00:58.834249,-1
18:00:58.834249,-33
18:00:58.834249,-5633
18:00:58.834249,-1
18:00:58.834249,-47
18:00:58.834249,-15873
18:00:58.834249,-1
18:00:58.834249,-49
18:00:58.834249,-10497
18:00:58.834249,-1
18:00:58.834249,-47
18:00:58.834249,-10497
18:00:58.834249,-1
18:00:58.834249,-44
18:00:58.834249,-25601
18:00:58.834249,-1
18:00:58.834249,-122
18:00:58.834249,7167
18:00:58.834249,1
18:00:58.834249,1222
18:00:58.834249,19968
18:00:58.834249,6
18:00:58.834249,520
18:00:59.419938,-548
18:00:59.419938,17407
18:00:59.419938,-1
18:00:59.419938,179
18:00:59.419938,22016
18:00:59.419938,-1
18:00:59.419938,-245
18:00:59.419938,-20225
18:00:59.419938,-1
18:00:59.419938,-137
18:00:59.419938,16383
18:00:59.419938,-1
18:00:59.419938,-127
18:00:59.419938,-27393
18:00:59.419938,-1
18:00:59.419938,-130
18:00:59.419938,-29953
18:00:59.419938,-1
18:00:59.419938,-106
18:00:59.419938,-28161
18:00:59.419938,-1
18:00:59.419938,-99
18:00:59.419938,-22529
18:00:59.419938,-1
18:00:59.419938,-92
18:00:59.419938,-22529
18:00:59.419938,-1
18:00:59.419938,-87
18:00:59.419938,-22529
18:00:59.419938,-1
18:00:59.419938,-87
18:00:59.419938,-19713
18:00:59.419938,-1
18:00:59.419938,-68
18:00:59.419938,-15361
18:00:59.419938,-1
18:00:59.419938,-44
18:00:59.419938,-7425
18:00:59.419938,-1
18:00:59.419938,-16
18:00:59.419938,-257
18:00:59.419938,-1
18:00:59.419938,11
18:00:59.419938,5376
18:00:59.419938,0
18:00:59.419938,14
18:00:59.419938,-4096
18:00:59.419938,-1
18:00:59.419938,-56
18:00:59.419938,-21505
18:00:59.419938,-1
18:00:59.419938,-96
18:00:59.419938,-28161
18:00:59.419938,-1
18:00:59.419938,-122
18:00:59.419938,-30977
18:00:59.419938,-1
18:00:59.419938,-118
18:00:59.419938,-30465
18:00:59.419938,-1
18:00:59.419938,-125
18:00:59.419938,31999
18:00:59.419938,-1
18:00:59.419938,-125
18:00:59.419938,-28673
18:00:59.419938,-1
18:00:59.419938,-106
18:00:59.419938,-27393
18:00:59.419938,-1
18:00:59.419938,-113
18:00:59.419938,-25601
18:00:59.419938,-1
18:00:59.419938,-92
18:00:59.419938,-24321
18:00:59.419938,-1
18:00:59.419938,-99
18:00:59.419938,-23297
18:00:59.419938,-1
18:00:59.419938,-87
18:00:59.419938,-21505
18:00:59.419938,-1
18:00:59.419938,-92
18:00:59.419938,-22529
18:00:59.419938,-1
18:00:59.419938,-80
18:00:59.419938,-20225
18:00:59.419938,-1
18:00:59.419938,-82
18:00:59.419938,-20737
18:00:59.419938,-1
18:00:59.419938,-89
18:00:59.419938,-22529
18:00:59.419938,-1
18:00:59.419938,-82
18:00:59.419938,-19713
18:00:59.419938,-1
18:00:59.419938,-85
18:00:59.419938,-22529
18:00:59.419938,-1
18:00:59.419938,-85
18:00:59.419938,-22017
18:00:59.419938,-1
18:00:59.419938,-87
18:00:59.419938,-20737
18:00:59.419938,-1
18:00:59.419938,-89
18:00:59.419938,-22529
18:00:59.419938,-1
18:00:59.419938,-87
18:00:59.959247,-87
18:00:59.959247,-22017
18:00:59.959247,-1
18:00:59.959247,-80
18:00:59.959247,-19713
18:00:59.959247,-1
18:00:59.959247,-82
18:00:59.959247,-20225
18:00:59.959247,-1
18:00:59.959247,-78
18:00:59.959247,-18945
18:00:59.959247,-1
18:00:59.959247,-73
18:00:59.959247,-22017
18:00:59.959247,-1
18:00:59.959247,-104
18:00:59.959247,-28673
18:00:59.959247,-1
18:00:59.959247,-108
18:00:59.959247,-25601
18:00:59.959247,-1
18:00:59.959247,-106
18:00:59.959247,-24321
18:00:59.959247,-1
18:00:59.959247,-61
18:00:59.959247,-11777
18:00:59.959247,-1
18:00:59.959247,-63
18:00:59.959247,-17665
18:00:59.959247,-1
18:00:59.959247,-66
18:00:59.959247,-16641
18:00:59.959247,-1
18:00:59.959247,-61
18:00:59.959247,-13569
18:00:59.959247,-1
18:00:59.959247,-61
18:00:59.959247,-30465
18:00:59.959247,-1
18:00:59.959247,-134
18:00:59.959247,10751
18:00:59.959247,1
18:00:59.959247,1238
18:00:59.959247,-12032
18:00:59.959247,5
18:00:59.959247,226
18:00:59.959247,1280
18:00:59.959247,-3
18:00:59.959247,-234
18:00:59.959247,-23553
18:00:59.959247,0
18:00:59.959247,-177
18:00:59.959247,8447
18:00:59.959247,-1
18:00:59.959247,-70
18:00:59.959247,31487
18:00:59.959247,-1
18:00:59.959247,-172
18:00:59.959247,-28161
18:00:59.959247,-1
18:00:59.959247,-115
18:00:59.959247,31487
18:00:59.959247,-1
18:00:59.959247,-111
18:00:59.959247,-26369
18:00:59.959247,-1
18:00:59.959247,-115
18:00:59.959247,-27393
18:00:59.959247,-1
18:00:59.959247,-99
18:00:59.959247,-25089
18:00:59.959247,-1
18:00:59.959247,-94
18:00:59.959247,-23297
18:00:59.959247,-1
18:00:59.959247,-92
18:00:59.959247,-21505
18:00:59.959247,-1
18:00:59.959247,-78
18:00:59.959247,-17153
18:00:59.959247,-1
18:00:59.959247,-59
18:00:59.959247,-9985
18:00:59.959247,-1
18:00:59.959247,-26
18:00:59.959247,-4353
18:00:59.959247,-1
18:00:59.959247,-11
18:00:59.959247,-257
18:00:59.959247,-1
18:00:59.959247,4
18:00:59.959247,-1792
18:00:59.959247,-1
18:00:59.959247,-42
18:00:59.959247,-20225
18:00:59.959247,-1
18:00:59.959247,-106
18:00:59.959247,-30977
18:00:59.959247,-1
18:00:59.959247,-134
18:00:59.959247,30207
18:00:59.959247,-1
18:00:59.959247,-141
18:00:59.959247,28927
18:00:59.959247,-1
18:00:59.959247,-141
18:00:59.959247,30719
18:00:59.959247,-1
18:00:59.959247,-134
18:01:00.499580,-130
18:01:00.499580,-32257
18:01:00.499580,-1
18:01:00.499580,-127
18:01:00.499580,-30465
18:01:00.499580,-1
18:01:00.499580,-113
18:01:00.499580,-27393
18:01:00.499580,-1
18:01:00.499580,-108
18:01:00.499580,-27393
18:01:00.499580,-1
18:01:00.499580,-101
18:01:00.499580,-22529
18:01:00.499580,-1
18:01:00.499580,-73
18:01:00.499580,-16641
18:01:00.499580,-1
18:01:00.499580,-68
18:01:00.499580,-17153
18:01:00.499580,-1
18:01:00.499580,-68
18:01:00.499580,-18945
18:01:00.499580,-1
18:01:00.499580,-75
18:01:00.499580,-18433
18:01:00.499580,-1
18:01:00.499580,-75
18:01:00.499580,-18433
18:01:00.499580,-1
18:01:00.499580,-75
18:01:00.499580,-18945
18:01:00.499580,-1
18:01:00.499580,-75
18:01:00.499580,-19713
18:01:00.499580,-1
18:01:00.499580,-80
18:01:00.499580,-20737
18:01:00.499580,-1
18:01:00.499580,-80
18:01:00.499580,-20737
18:01:00.499580,-1
18:01:00.499580,-82
18:01:00.499580,-20225
18:01:00.499580,-1
18:01:00.499580,-82
18:01:00.499580,-20225
18:01:00.499580,-1
18:01:00.499580,-78
18:01:00.499580,-20225
18:01:00.499580,-1
18:01:00.499580,-82
18:01:00.499580,-20225
18:01:00.499580,-1
18:01:00.499580,-78
18:01:00.499580,-19713
18:01:00.499580,-1
18:01:00.499580,-75
18:01:00.499580,-18433
18:01:00.499580,-1
18:01:00.499580,-87
18:01:00.499580,-28161
18:01:00.499580,-1
18:01:00.499580,-127
18:01:00.499580,-32257
18:01:00.499580,-1
18:01:00.499580,-122
18:01:00.499580,-26369
18:01:00.499580,-1
18:01:00.499580,-66
18:01:00.499580,-9217
18:01:00.499580,-1
18:01:00.499580,-49
18:01:00.499580,-17665
18:01:00.499580,-1
18:01:00.499580,-66
18:01:00.499580,-12289
18:01:00.499580,-1
18:01:00.499580,-52
18:01:00.499580,-13569
18:01:00.499580,-1
18:01:00.499580,-52
18:01:00.499580,-22017
18:01:00.499580,-1
18:01:00.499580,-153
18:01:00.499580,15359
18:01:00.499580,0
18:01:00.499580,884
18:01:00.499580,-28672
18:01:00.499580,6
18:01:00.499580,1106
18:01:00.499580,256
18:01:00.499580,-1
18:01:00.499580,-390
18:01:00.499580,-27393
18:01:00.499580,0
18:01:00.499580,-40
18:01:00.499580,-6657
18:01:00.499580,-2
18:01:00.499580,-127
18:01:00.499580,-25601
18:01:00.499580,-1
18:01:00.499580,-191
18:01:00.499580,25855
18:01:00.499580,-1
18:01:00.499580,-122
18:01:00.499580,28415
18:01:00.499580,-1
18:01:00.499580,-134
18:01:01.039248,-118
18:01:01.039248,-31745
18:01:01.039248,-1
18:01:01.039248,-118
18:01:01.039248,-26881
18:01:01.039248,-1
18:01:01.039248,-108
18:01:01.039248,-28161
18:01:01.039248,-1
18:01:01.039248,-101
18:01:01.039248,-20737
18:01:01.039248,-1
18:01:01.039248,-68
18:01:01.039248,-16641
18:01:01.039248,-1
18:01:01.039248,-66
18:01:01.039248,-13057
18:01:01.039248,-1
18:01:01.039248,-35
18:01:01.039248,-5121
18:01:01.039248,-1
18:01:01.039248,-7
18:01:01.039248,1279
18:01:01.039248,0
18:01:01.039248,18
18:01:01.039248,8448
18:01:01.039248,0
18:01:01.039248,33
18:01:01.039248,3584
18:01:01.039248,0
18:01:01.039248,-26
18:01:01.039248,-15873
18:01:01.039248,-1
18:01:01.039248,-89
18:01:01.039248,-27393
18:01:01.039248,-1
18:01:01.039248,-118
18:01:01.039248,-30465
18:01:01.039248,-1
18:01:01.039248,-125
18:01:01.039248,-32257
18:01:01.039248,-1
18:01:01.039248,-120
18:01:01.039248,-28673
18:01:01.039248,-1
18:01:01.039248,-115
18:01:01.039248,-29185
18:01:01.039248,-1
18:01:01.039248,-111
18:01:01.039248,-28161
18:01:01.039248,-1
18:01:01.039248,-104
18:01:01.039248,-23809
18:01:01.039248,-1
18:01:01.039248,-94
18:01:01.039248,-23809
18:01:01.039248,-1
18:01:01.039248,-87
18:01:01.039248,-21505
18:01:01.039248,-1
18:01:01.039248,-87
18:01:01.039248,-20225
18:01:01.039248,-1
18:01:01.039248,-73
18:01:01.039248,-18433
18:01:01.039248,-1
18:01:01.039248,-73
18:01:01.039248,-17153
18:01:01.039248,-1
18:01:01.039248,-68
18:01:01.039248,-17153
18:01:01.039248,-1
18:01:01.039248,-63
18:01:01.039248,-16641
18:01:01.039248,-1
18:01:01.039248,-78
18:01:01.039248,-18433
18:01:01.039248,-1
18:01:01.039248,-61
18:01:01.039248,-17665
18:01:01.039248,-1
18:01:01.039248,-75
18:01:01.039248,-17665
18:01:01.039248,-1
18:01:01.039248,-70
18:01:01.039248,-17153
18:01:01.039248,-1
18:01:01.039248,-66
18:01:01.039248,-16641
18:01:01.039248,-1
18:01:01.039248,-61
18:01:01.039248,-14849
18:01:01.039248,-1
18:01:01.039248,-63
18:01:01.039248,-17153
18:01:01.039248,-1
18:01:01.039248,-68
18:01:01.039248,-15361
18:01:01.039248,-1
18:01:01.039248,-61
18:01:01.039248,-17153
18:01:01.039248,-1
18:01:01.039248,-68
18:01:01.039248,-15873
18:01:01.039248,-1
18:01:01.039248,-61
18:01:01.039248,-14081
18:01:01.039248,-1
18:01:01.039248,-61
18:01:01.624253,-73
18:01:01.624253,-22529
18:01:01.624253,-1
18:01:01.624253,-111
18:01:01.624253,-28161
18:01:01.624253,-1
18:01:01.624253,-85
18:01:01.624253,-14849
18:01:01.624253,-1
18:01:01.624253,-35
18:01:01.624253,-5121
18:01:01.624253,-1
18:01:01.624253,-33
18:01:01.624253,-13057
18:01:01.624253,-1
18:01:01.624253,-47
18:01:01.624253,-9985
18:01:01.624253,-1
18:01:01.624253,-40
18:01:01.624253,-8193
18:01:01.624253,-1
18:01:01.624253,-37
18:01:01.624253,-19713
18:01:01.624253,-1
18:01:01.624253,-132
18:01:01.624253,27903
18:01:01.624253,0
18:01:01.624253,969
18:01:01.624253,-30464
18:01:01.624253,6
18:01:01.624253,834
18:01:01.624253,-21248
18:01:01.624253,-3
18:01:01.624253,-498
18:01:01.624253,-23041
18:01:01.624253,0
18:01:01.624253,-44
18:01:01.624253,-1281
18:01:01.624253,-2
18:01:01.624253,-89
18:01:01.624253,-20737
18:01:01.624253,-1
18:01:01.624253,-170
18:01:01.624253,-30977
18:01:01.624253,-1
18:01:01.624253,-92
18:01:01.624253,-29953
18:01:01.624253,-1
18:01:01.624253,-111
18:01:01.624253,-22529
18:01:01.624253,-1
18:01:01.624253,-94
18:01:01.624253,-25089
18:01:01.624253,-1
18:01:01.624253,-92
18:01:01.624253,-21505
18:01:01.624253,-1
18:01:01.624253,-75
18:01:01.624253,-16641
18:01:01.624253,-1
18:01:01.624253,-61
18:01:01.624253,-13569
18:01:01.624253,-1
18:01:01.624253,-40
18:01:01.624253,-6913
18:01:01.624253,-1
18:01:01.624253,-16
18:01:01.624253,2047
18:01:01.624253,0
18:01:01.624253,30
18:01:01.624253,8448
18:01:01.624253,0
18:01:01.624253,37
18:01:01.624253,12032
18:01:01.624253,0
18:01:01.624253,47
18:01:01.624253,6656
18:01:01.624253,0
18:01:01.624253,-9
18:01:01.624253,-14081
18:01:01.624253,-1
18:01:01.624253,-94
18:01:01.624253,-29953
18:01:01.624253,-1
18:01:01.624253,-137
18:01:01.624253,27903
18:01:01.624253,-1
18:01:01.624253,-148
18:01:01.624253,27903
18:01:01.624253,-1
18:01:01.624253,-151
18:01:01.624253,26623
18:01:01.624253,-1
18:01:01.624253,-153
18:01:01.624253,28415
18:01:01.624253,-1
18:01:01.624253,-132
18:01:01.624253,-31745
18:01:01.624253,-1
18:01:01.624253,-127
18:01:01.624253,-30977
18:01:01.624253,-1
18:01:01.624253,-113
18:01:01.624253,-27393
18:01:01.624253,-1
18:01:01.624253,-106
18:01:01.624253,-26369
18:01:01.624253,-1
18:01:01.624253,-94
18:01:02.209253,-85
18:01:02.209253,-20737
18:01:02.209253,-1
18:01:02.209253,-78
18:01:02.209253,-18433
18:01:02.209253,-1
18:01:02.209253,-73
18:01:02.209253,-18433
18:01:02.209253,-1
18:01:02.209253,-70
18:01:02.209253,-16641
18:01:02.209253,-1
18:01:02.209253,-56
18:01:02.209253,-13057
18:01:02.209253,-1
18:01:02.209253,-56
18:01:02.209253,-15361
18:01:02.209253,-1
18:01:02.209253,-61
18:01:02.209253,-14849
18:01:02.209253,-1
18:01:02.209253,-59
18:01:02.209253,-14849
18:01:02.209253,-1
18:01:02.209253,-56
18:01:02.209253,-13569
18:01:02.209253,-1
18:01:02.209253,-56
18:01:02.209253,-14849
18:01:02.209253,-1
18:01:02.209253,-59
18:01:02.209253,-13569
18:01:02.209253,-1
18:01:02.209253,-52
18:01:02.209253,-13057
18:01:02.209253,-1
18:01:02.209253,-52
18:01:02.209253,-13057
18:01:02.209253,-1
18:01:02.209253,-44
18:01:02.209253,-11777
18:01:02.209253,-1
18:01:02.209253,-66
18:01:02.209253,-22017
18:01:02.209253,-1
18:01:02.209253,-99
18:01:02.209253,-24321
18:01:02.209253,-1
18:01:02.209253,-89
18:01:02.209253,-18433
18:01:02.209253,-1
18:01:02.209253,-35
18:01:02.209253,-4353
18:01:02.209253,-1
18:01:02.209253,-35
18:01:02.209253,-12289
18:01:02.209253,-1
18:01:02.209253,-42
18:01:02.209253,-8705
18:01:02.209253,-1
18:01:02.209253,-35
18:01:02.209253,-8193
18:01:02.209253,-1
18:01:02.209253,-30
18:01:02.209253,-17153
18:01:02.209253,-1
18:01:02.209253,-137
18:01:02.209253,24831
18:01:02.209253,0
18:01:02.209253,957
18:01:02.209253,-18176
18:01:02.209253,6
18:01:02.209253,1044
18:01:02.209253,-13568
18:01:02.209253,-2
18:01:02.209253,-347
18:01:02.209253,-16385
18:01:02.209253,0
18:01:02.209253,-40
18:01:02.209253,-3585
18:01:02.209253,-2
18:01:02.209253,-108
18:01:02.209253,-23297
18:01:02.209253,-1
18:01:02.209253,-179
18:01:02.209253,30719
18:01:02.209253,-1
18:01:02.209253,-106
18:01:02.209253,31999
18:01:02.209253,-1
18:01:02.209253,-122
18:01:02.209253,-26881
18:01:02.209253,-1
18:01:02.209253,-111
18:01:02.209253,-27393
18:01:02.209253,-1
18:01:02.209253,-101
18:01:02.209253,-25601
18:01:02.209253,-1
18:01:02.209253,-99
18:01:02.209253,-25089
18:01:02.209253,-1
18:01:02.209253,-101
18:01:02.209253,-24321
18:01:02.209253,-1
18:01:02.209253,-94
18:01:02.209253,-23297
18:01:02.209253,-1
18:01:02.209253,-82
18:01:02.749254,-66
18:01:02.749254,-12289
18:01:02.749254,-1
18:01:02.749254,-35
18:01:02.749254,-3841
18:01:02.749254,-1
18:01:02.749254,2
18:01:02.749254,4096
18:01:02.749254,0
18:01:02.749254,18
18:01:02.749254,1024
18:01:02.749254,0
18:01:02.749254,-30
18:01:02.749254,-15873
18:01:02.749254,-1
18:01:02.749254,-80
18:01:02.749254,-19713
18:01:02.749254,-1
18:01:02.749254,-85
18:01:02.749254,-25089
18:01:02.749254,-1
18:01:02.749254,-96
18:01:02.749254,-22529
18:01:02.749254,-1
18:01:02.749254,-87
18:01:02.749254,-22017
18:01:02.749254,-1
18:01:02.749254,-87
18:01:02.749254,-21505
18:01:02.749254,-1
18:01:02.749254,-85
18:01:02.749254,-20737
18:01:02.749254,-1
18:01:02.749254,-75
18:01:02.749254,-18433
18:01:02.749254,-1
18:01:02.749254,-70
18:01:02.749254,-17153
18:01:02.749254,-1
18:01:02.749254,-61
18:01:02.749254,-14849
18:01:02.749254,-1
18:01:02.749254,-59
18:01:02.749254,-13057
18:01:02.749254,-1
18:01:02.749254,-47
18:01:02.749254,-11009
18:01:02.749254,-1
18:01:02.749254,-42
18:01:02.749254,-9217
18:01:02.749254,-1
18:01:02.749254,-35
18:01:02.749254,-8705
18:01:02.749254,-1
18:01:02.749254,-35
18:01:02.749254,-8705
18:01:02.749254,-1
18:01:02.749254,-35
18:01:02.749254,-8705
18:01:02.749254,-1
18:01:02.749254,-33
18:01:02.749254,-7425
18:01:02.749254,-1
18:01:02.749254,-33
18:01:02.749254,-9985
18:01:02.749254,-1
18:01:02.749254,-37
18:01:02.749254,-8193
18:01:02.749254,-1
18:01:02.749254,-35
18:01:02.749254,-8705
18:01:02.749254,-1
18:01:02.749254,-35
18:01:02.749254,-8193
18:01:02.749254,-1
18:01:02.749254,-30
18:01:02.749254,-7425
18:01:02.749254,-1
18:01:02.749254,-33
18:01:02.749254,-8193
18:01:02.749254,-1
18:01:02.749254,-33
18:01:02.749254,-7425
18:01:02.749254,-1
18:01:02.749254,-28
18:01:02.749254,-7425
18:01:02.749254,-1
18:01:02.749254,-30
18:01:02.749254,-7425
18:01:02.749254,-1
18:01:02.749254,-30
18:01:02.749254,-6913
18:01:02.749254,-1
18:01:02.749254,-26
18:01:02.749254,-6913
18:01:02.749254,-1
18:01:02.749254,-40
18:01:02.749254,-15873
18:01:02.749254,-1
18:01:02.749254,-80
18:01:02.749254,-20225
18:01:02.749254,-1
18:01:02.749254,-73
18:01:02.749254,-13569
18:01:02.749254,-1
18:01:02.749254,-14
18:01:02.749254,2559
18:01:02.749254,0
18:01:02.749254,-7
18:01:03.334245,-30
18:01:03.334245,-6401
18:01:03.334245,-1
18:01:03.334245,-11
18:01:03.334245,-2561
18:01:03.334245,-1
18:01:03.334245,-9
18:01:03.334245,-2049
18:01:03.334245,-1
18:01:03.334245,-52
18:01:03.334245,-26369
18:01:03.334245,-1
18:01:03.334245,205
18:01:03.334245,21504
18:01:03.334245,4
18:01:03.334245,1784
18:01:03.334245,-3840
18:01:03.334245,3
18:01:03.334245,-288
18:01:03.334245,2303
18:01:03.334245,-1
18:01:03.334245,222
18:01:03.334245,-13824
18:01:03.334245,-1
18:01:03.334245,-241
18:01:03.334245,-17665
18:01:03.334245,-1
18:01:03.334245,-78
18:01:03.334245,25343
18:01:03.334245,-1
18:01:03.334245,-108
18:01:03.334245,-21505
18:01:03.334245,-1
18:01:03.334245,-111
18:01:03.334245,-24321
18:01:03.334245,-1
18:01:03.334245,-80
18:01:03.334245,-21505
18:01:03.334245,-1
18:01:03.334245,-80
18:01:03.334245,-17665
18:01:03.334245,-1
18:01:03.334245,-68
18:01:03.334245,-16641
18:01:03.334245,-1
18:01:03.334245,-63
18:01:03.334245,-14849
18:01:03.334245,-1
18:01:03.334245,-54
18:01:03.334245,-13057
18:01:03.334245,-1
18:01:03.334245,-44
18:01:03.334245,-6913
18:01:03.334245,-1
18:01:03.334245,-11
18:01:03.334245,255
18:01:03.334245,0
18:01:03.334245,16
18:01:03.334245,8448
18:01:03.334245,0
18:01:03.334245,47
18:01:03.334245,14336
18:01:03.334245,0
18:01:03.334245,59
18:01:03.334245,9472
18:01:03.334245,0
18:01:03.334245,-4
18:01:03.334245,-11009
18:01:03.334245,-1
18:01:03.334245,-70
18:01:03.334245,-22017
18:01:03.334245,-1
18:01:03.334245,-94
18:01:03.334245,-24321
18:01:03.334245,-1
18:01:03.334245,-99
18:01:03.334245,-25601
18:01:03.334245,-1
18:01:03.334245,-99
18:01:03.334245,-23809
18:01:03.334245,-1
18:01:03.334245,-87
18:01:03.334245,-22017
18:01:03.334245,-1
18:01:03.334245,-87
18:01:03.334245,-20737
18:01:03.334245,-1
18:01:03.334245,-78
18:01:03.334245,-18945
18:01:03.334245,-1
18:01:03.334245,-73
18:01:03.334245,-16641
18:01:03.334245,-1
18:01:03.334245,-59
18:01:03.334245,-14849
18:01:03.334245,-1
18:01:03.334245,-59
18:01:03.334245,-13569
18:01:03.334245,-1
18:01:03.334245,-54
18:01:03.334245,-12289
18:01:03.334245,-1
18:01:03.334245,-42
18:01:03.334245,-11009
18:01:03.334245,-1
18:01:03.334245,-44
18:01:03.334245,-10497
18:01:03.334245,-1
18:01:03.334245,-40
18:01:03.874249,-42
18:01:03.874249,-11009
18:01:03.874249,-1
18:01:03.874249,-42
18:01:03.874249,-11009
18:01:03.874249,-1
18:01:03.874249,-52
18:01:03.874249,-11009
18:01:03.874249,-1
18:01:03.874249,-37
18:01:03.874249,-10497
18:01:03.874249,-1
18:01:03.874249,-42
18:01:03.874249,-8705
18:01:03.874249,-1
18:01:03.874249,-35
18:01:03.874249,-7425
18:01:03.874249,-1
18:01:03.874249,-23
18:01:03.874249,-6913
18:01:03.874249,-1
18:01:03.874249,-26
18:01:03.874249,-3841
18:01:03.874249,-1
18:01:03.874249,-23
18:01:03.874249,-9217
18:01:03.874249,-1
18:01:03.874249,-30
18:01:03.874249,-5121
18:01:03.874249,-1
18:01:03.874249,-21
18:01:03.874249,-5121
18:01:03.874249,-1
18:01:03.874249,-16
18:01:03.874249,-4353
18:01:03.874249,-1
18:01:03.874249,-23
18:01:03.874249,-5633
18:01:03.874249,-1
18:01:03.874249,-26
18:01:03.874249,-6913
18:01:03.874249,-1
18:01:03.874249,-23
18:01:03.874249,-3841
18:01:03.874249,-1
18:01:03.874249,-18
18:01:03.874249,-5121
18:01:03.874249,-1
18:01:03.874249,-23
18:01:03.874249,-5121
18:01:03.874249,-1
18:01:03.874249,-21
18:01:03.874249,-5633
18:01:03.874249,-1
18:01:03.874249,-26
18:01:03.874249,-5633
18:01:03.874249,-1
18:01:03.874249,-23
18:01:03.874249,-6401
18:01:03.874249,-1
18:01:03.874249,-33
18:01:03.874249,-9985
18:01:03.874249,-1
18:01:03.874249,-54
18:01:03.874249,-18433
18:01:03.874249,-1
18:01:03.874249,-75
18:01:03.874249,-16641
18:01:03.874249,-1
18:01:03.874249,-42
18:01:03.874249,255
18:01:03.874249,0
18:01:03.874249,7
18:01:03.874249,-7168
18:01:03.874249,-1
18:01:03.874249,-40
18:01:03.874249,-5121
18:01:03.874249,-1
18:01:03.874249,-18
18:01:03.874249,-4353
18:01:03.874249,-1
18:01:03.874249,-9
18:01:03.874249,-4353
18:01:03.874249,-1
18:01:03.874249,-87
18:01:03.874249,-23297
18:01:03.874249,-1
18:01:03.874249,406
18:01:03.874249,32256
18:01:03.874249,5
18:01:03.874249,1572
18:01:03.874249,-17152
18:01:03.874249,0
18:01:03.874249,-742
18:01:03.874249,31487
18:01:03.874249,-1
18:01:03.874249,198
18:01:03.874249,22016
18:01:03.874249,-1
18:01:03.874249,-177
18:01:03.874249,-6913
18:01:03.874249,-1
18:01:03.874249,-111
18:01:03.874249,30207
18:01:03.874249,-1
18:01:03.874249,-73
18:01:03.874249,-22017
18:01:03.874249,-1
18:01:03.874249,-108
18:01:04.459248,-80
18:01:04.459248,-18433
18:01:04.459248,-1
18:01:04.459248,-80
18:01:04.459248,-17665
18:01:04.459248,-1
18:01:04.459248,-59
18:01:04.459248,-16641
18:01:04.459248,-1
18:01:04.459248,-66
18:01:04.459248,-11009
18:01:04.459248,-1
18:01:04.459248,-26
18:01:04.459248,-3841
18:01:04.459248,-1
18:01:04.459248,-9
18:01:04.459248,1279
18:01:04.459248,0
18:01:04.459248,26
18:01:04.459248,12032
18:01:04.459248,0
18:01:04.459248,63
18:01:04.459248,17920
18:01:04.459248,0
18:01:04.459248,63
18:01:04.459248,17920
18:01:04.459248,0
18:01:04.459248,80
18:01:04.459248,16128
18:01:04.459248,0
18:01:04.459248,26
18:01:04.459248,-3584
18:01:04.459248,-1
18:01:04.459248,-49
18:01:04.459248,-17665
18:01:04.459248,-1
18:01:04.459248,-80
18:01:04.459248,-22529
18:01:04.459248,-1
18:01:04.459248,-96
18:01:04.459248,-26369
18:01:04.459248,-1
18:01:04.459248,-99
18:01:04.459248,-23809
18:01:04.459248,-1
18:01:04.459248,-99
18:01:04.459248,-24321
18:01:04.459248,-1
18:01:04.459248,-89
18:01:04.459248,-22017
18:01:04.459248,-1
18:01:04.459248,-85
18:01:04.459248,-20225
18:01:04.459248,-1
18:01:04.459248,-80
18:01:04.459248,-19713
18:01:04.459248,-1
18:01:04.459248,-68
18:01:04.459248,-16641
18:01:04.459248,-1
18:01:04.459248,-68
18:01:04.459248,-15873
18:01:04.459248,-1
18:01:04.459248,-59
18:01:04.459248,-14849
18:01:04.459248,-1
18:01:04.459248,-54
18:01:04.459248,-13057
18:01:04.459248,-1
18:01:04.459248,-56
18:01:04.459248,-14849
18:01:04.459248,-1
18:01:04.459248,-54
18:01:04.459248,-13057
18:01:04.459248,-1
18:01:04.459248,-61
18:01:04.459248,-15361
18:01:04.459248,-1
18:01:04.459248,-52
18:01:04.459248,-12289
18:01:04.459248,-1
18:01:04.459248,-54
18:01:04.459248,-13057
18:01:04.459248,-1
18:01:04.459248,-47
18:01:04.459248,-13057
18:01:04.459248,-1
18:01:04.459248,-52
18:01:04.459248,-11777
18:01:04.459248,-1
18:01:04.459248,-49
18:01:04.459248,-13057
18:01:04.459248,-1
18:01:04.459248,-49
18:01:04.459248,-11009
18:01:04.459248,-1
18:01:04.459248,-42
18:01:04.459248,-9985
18:01:04.459248,-1
18:01:04.459248,-42
18:01:04.459248,-10497
18:01:04.459248,-1
18:01:04.459248,-42
18:01:04.459248,-11009
18:01:04.459248,-1
18:01:04.459248,-42
18:01:04.459248,-9985
18:01:04.459248,-1
18:01:04.459248,-40
18:01:04.954245,-37
18:01:04.954245,-8705
18:01:04.954245,-1
18:01:04.954245,-37
18:01:04.954245,-8193
18:01:04.954245,-1
18:01:04.954245,-33
18:01:04.954245,-13569
18:01:04.954245,-1
18:01:04.954245,-75
18:01:04.954245,-20737
18:01:04.954245,-1
18:01:04.954245,-82
18:01:04.954245,-17153
18:01:04.954245,-1
18:01:04.954245,-28
18:01:04.954245,5631
18:01:04.954245,0
18:01:04.954245,33
18:01:04.954245,1792
18:01:04.954245,0
18:01:04.954245,-9
18:01:04.954245,255
18:01:04.954245,0
18:01:04.954245,11
18:01:04.954245,2304
18:01:04.954245,0
18:01:04.954245,9
18:01:04.954245,1024
18:01:04.954245,0
18:01:04.954245,-49
18:01:04.954245,-25089
18:01:04.954245,-1
18:01:04.954245,260
18:01:04.954245,-19712
18:01:04.954245,4
18:01:04.954245,1687
18:01:04.954245,-30976
18:01:04.954245,2
18:01:04.954245,-508
18:01:04.954245,17407
18:01:04.954245,-1
18:01:04.954245,248
18:01:04.954245,-22272
18:01:04.954245,-1
18:01:04.954245,-203
18:01:04.954245,-8193
18:01:04.954245,-1
18:01:04.954245,-78
18:01:04.954245,30207
18:01:04.954245,-1
18:01:04.954245,-82
18:01:04.954245,-17665
18:01:04.954245,-1
18:01:04.954245,-94
18:01:04.954245,-18945
18:01:04.954245,-1
18:01:04.954245,-68
18:01:04.954245,-20225
18:01:04.954245,-1
18:01:04.954245,-70
18:01:04.954245,-14849
18:01:04.954245,-1
18:01:04.954245,-59
18:01:04.954245,-13569
18:01:04.954245,-1
18:01:04.954245,-47
18:01:04.954245,-11777
18:01:04.954245,-1
18:01:04.954245,-42
18:01:04.954245,-8193
18:01:04.954245,-1
18:01:04.954245,-28
18:01:04.954245,-4353
18:01:04.954245,-1
18:01:04.954245,0
18:01:04.954245,5376
18:01:04.954245,0
18:01:04.954245,37
18:01:04.954245,13312
18:01:04.954245,0
18:01:04.954245,63
18:01:04.954245,18688
18:01:04.954245,0
18:01:04.954245,73
18:01:04.954245,13312
18:01:04.954245,0
18:01:04.954245,14
18:01:04.954245,-5376
18:01:04.954245,-1
18:01:04.954245,-44
18:01:04.954245,-14081
18:01:04.954245,-1
18:01:04.954245,-66
18:01:04.954245,-17665
18:01:04.954245,-1
18:01:04.954245,-68
18:01:04.954245,-16641
18:01:04.954245,-1
18:01:04.954245,-68
18:01:04.954245,-17153
18:01:04.954245,-1
18:01:04.954245,-66
18:01:04.954245,-15873
18:01:04.954245,-1
18:01:04.954245,-61
18:01:04.954245,-13569
18:01:04.954245,-1
18:01:04.954245,-47
18:01:05.584703,-47
18:01:05.584703,-10497
18:01:05.584703,-1
18:01:05.584703,-28
18:01:05.584703,-1537
18:01:05.584703,-1
18:01:05.584703,-2
18:01:05.584703,-1537
18:01:05.584703,-1
18:01:05.584703,-4
18:01:05.584703,-257
18:01:05.584703,-1
18:01:05.584703,0
18:01:05.584703,1024
18:01:05.584703,0
18:01:05.584703,4
18:01:05.584703,0
18:01:05.584703,0
18:01:05.584703,0
18:01:05.584703,512
18:01:05.584703,0
18:01:05.584703,-2
18:01:05.584703,-769
18:01:05.584703,-1
18:01:05.584703,-2
18:01:05.584703,-769
18:01:05.584703,-1
18:01:05.584703,-9
18:01:05.584703,-3329
18:01:05.584703,-1
18:01:05.584703,-7
18:01:05.584703,-257
18:01:05.584703,-1
18:01:05.584703,-7
18:01:05.584703,-2049
18:01:05.584703,-1
18:01:05.584703,-9
18:01:05.584703,-2049
18:01:05.584703,-1
18:01:05.584703,-9
18:01:05.584703,-1537
18:01:05.584703,-1
18:01:05.584703,-7
18:01:05.584703,-2049
18:01:05.584703,-1
18:01:05.584703,-9
18:01:05.584703,-2049
18:01:05.584703,-1
18:01:05.584703,-4
18:01:05.584703,-769
18:01:05.584703,-1
18:01:05.584703,-4
18:01:05.584703,-257
18:01:05.584703,-1
18:01:05.584703,-2
18:01:05.584703,-769
18:01:05.584703,-1
18:01:05.584703,-7
18:01:05.584703,-257
18:01:05.584703,-1
18:01:05.584703,0
18:01:05.584703,-512
18:01:05.584703,-1
18:01:05.584703,-4
18:01:05.584703,-1537
18:01:05.584703,-1
18:01:05.584703,-7
18:01:05.584703,-257
18:01:05.584703,-1
18:01:05.584703,-2
18:01:05.584703,-769
18:01:05.584703,-1
18:01:05.584703,-2
18:01:05.584703,-769
18:01:05.584703,-1
18:01:05.584703,-21
18:01:05.584703,-11009
18:01:05.584703,-1
18:01:05.584703,-59
18:01:05.584703,-15361
18:01:05.584703,-1
18:01:05.584703,-47
18:01:05.584703,-2561
18:01:05.584703,-1
18:01:05.584703,26
18:01:05.584703,8448
18:01:05.584703,0
18:01:05.584703,11
18:01:05.584703,-1024
18:01:05.584703,-1
18:01:05.584703,-4
18:01:05.584703,1279
18:01:05.584703,0
18:01:05.584703,7
18:01:05.584703,2304
18:01:05.584703,0
18:01:05.584703,7
18:01:05.584703,-10752
18:01:05.584703,-1
18:01:05.584703,-89
18:01:05.584703,-769
18:01:05.584703,0
18:01:05.584703,1203
18:01:05.584703,9472
18:01:05.584703,7
18:01:05.584703,940
18:01:05.584703,-23808
18:01:05.584703,-2
18:01:05.584703,-226
18:01:06.125055,234
18:01:06.125055,-17408
18:01:06.125055,-1
18:01:06.125055,-226
18:01:06.125055,-13569
18:01:06.125055,-1
18:01:06.125055,-75
18:01:06.125055,28415
18:01:06.125055,-1
18:01:06.125055,-87
18:01:06.125055,-17153
18:01:06.125055,-1
18:01:06.125055,-94
18:01:06.125055,-20737
18:01:06.125055,-1
18:01:06.125055,-66
18:01:06.125055,-16641
18:01:06.125055,-1
18:01:06.125055,-52
18:01:06.125055,-8705
18:01:06.125055,-1
18:01:06.125055,-40
18:01:06.125055,-9985
18:01:06.125055,-1
18:01:06.125055,-30
18:01:06.125055,-7425
18:01:06.125055,-1
18:01:06.125055,-30
18:01:06.125055,-5633
18:01:06.125055,-1
18:01:06.125055,-16
18:01:06.125055,-1537
18:01:06.125055,-1
18:01:06.125055,4
18:01:06.125055,5376
18:01:06.125055,0
18:01:06.125055,37
18:01:06.125055,15104
18:01:06.125055,0
18:01:06.125055,73
18:01:06.125055,20992
18:01:06.125055,0
18:01:06.125055,85
18:01:06.125055,17920
18:01:06.125055,0
18:01:06.125055,33
18:01:06.125055,-2304
18:01:06.125055,-1
18:01:06.125055,-35
18:01:06.125055,-13057
18:01:06.125055,-1
18:01:06.125055,-66
18:01:06.125055,-18945
18:01:06.125055,-1
18:01:06.125055,-78
18:01:06.125055,-19713
18:01:06.125055,-1
18:01:06.125055,-75
18:01:06.125055,-18945
18:01:06.125055,-1
18:01:06.125055,-73
18:01:06.125055,-17153
18:01:06.125055,-1
18:01:06.125055,-66
18:01:06.125055,-15361
18:01:06.125055,-1
18:01:06.125055,-61
18:01:06.125055,-15361
18:01:06.125055,-1
18:01:06.125055,-56
18:01:06.125055,-13057
18:01:06.125055,-1
18:01:06.125055,-52
18:01:06.125055,-12289
18:01:06.125055,-1
18:01:06.125055,-44
18:01:06.125055,-11009
18:01:06.125055,-1
18:01:06.125055,-47
18:01:06.125055,-9985
18:01:06.125055,-1
18:01:06.125055,-35
18:01:06.125055,-8193
18:01:06.125055,-1
18:01:06.125055,-30
18:01:06.125055,-6401
18:01:06.125055,-1
18:01:06.125055,-23
18:01:06.125055,-6913
18:01:06.125055,-1
18:01:06.125055,-28
18:01:06.125055,-6913
18:01:06.125055,-1
18:01:06.125055,-28
18:01:06.125055,-6913
18:01:06.125055,-1
18:01:06.125055,-28
18:01:06.125055,-6913
18:01:06.125055,-1
18:01:06.125055,-23
18:01:06.125055,-3841
18:01:06.125055,-1
18:01:06.125055,-16
18:01:06.125055,-5121
18:01:06.125055,-1
18:01:06.125055,-16
18:01:06.125055,-1537
18:01:06.125055,-1
18:01:06.125055,-2
18:01:06.709235,-4
18:01:06.709235,-769
18:01:06.709235,-1
18:01:06.709235,-2
18:01:06.709235,2047
18:01:06.709235,0
18:01:06.709235,14
18:01:06.709235,4096
18:01:06.709235,0
18:01:06.709235,21
18:01:06.709235,7680
18:01:06.709235,0
18:01:06.709235,37
18:01:06.709235,15104
18:01:06.709235,0
18:01:06.709235,75
18:01:06.709235,18688
18:01:06.709235,0
18:01:06.709235,75
18:01:06.709235,22272
18:01:06.709235,0
18:01:06.709235,96
18:01:06.709235,26624
18:01:06.709235,0
18:01:06.709235,115
18:01:06.709235,31232
18:01:06.709235,0
18:01:06.709235,132
18:01:06.709235,-28672
18:01:06.709235,0
18:01:06.709235,156
18:01:06.709235,-23296
18:01:06.709235,0
18:01:06.709235,170
18:01:06.709235,-19712
18:01:06.709235,0
18:01:06.709235,196
18:01:06.709235,-13056
18:01:06.709235,0
18:01:06.709235,210
18:01:06.709235,-8192
18:01:06.709235,0
18:01:06.709235,236
18:01:06.709235,-3840
18:01:06.709235,0
18:01:06.709235,241
18:01:06.709235,-5120
18:01:06.709235,0
18:01:06.709235,226
18:01:06.709235,-8192
18:01:06.709235,0
18:01:06.709235,245
18:01:06.709235,9472
18:01:06.709235,1
18:01:06.709235,345
18:01:06.709235,28672
18:01:06.709235,1
18:01:06.709235,359
18:01:06.709235,23296
18:01:06.709235,1
18:01:06.709235,347
18:01:06.709235,26880
18:01:06.709235,1
18:01:06.709235,371
18:01:06.709235,32256
18:01:06.709235,1
18:01:06.709235,392
18:01:06.709235,31232
18:01:06.709235,1
18:01:06.709235,304
18:01:06.709235,-28416
18:01:06.709235,1
18:01:06.709235,1111
18:01:06.709235,14336
18:01:06.709235,8
18:01:06.709235,1914
18:01:06.709235,-13824
18:01:06.709235,1
18:01:06.709235,-92
18:01:06.709235,1023
18:01:06.709235,2
18:01:06.709235,550
18:01:06.709235,-13568
18:01:06.709235,0
18:01:06.709235,297
18:01:06.709235,-30720
18:01:06.709235,1
18:01:06.709235,295
18:01:06.709235,11776
18:01:06.709235,1
18:01:06.709235,359
18:01:06.709235,21504
18:01:06.709235,1
18:01:06.709235,330
18:01:06.709235,22784
18:01:06.709235,1
18:01:06.709235,342
18:01:06.709235,22016
18:01:06.709235,1
18:01:06.709235,352
18:01:06.709235,24576
18:01:06.709235,1
18:01:06.709235,349
18:01:06.709235,24576
18:01:06.709235,1
18:01:06.709235,352
18:01:06.709235,23296
18:01:06.709235,1
18:01:06.709235,349
18:01:07.249259,361
18:01:07.249259,27648
18:01:07.249259,1
18:01:07.249259,364
18:01:07.249259,30464
18:01:07.249259,1
18:01:07.249259,390
18:01:07.249259,-28416
18:01:07.249259,1
18:01:07.249259,411
18:01:07.249259,-25856
18:01:07.249259,1
18:01:07.249259,406
18:01:07.249259,-30208
18:01:07.249259,1
18:01:07.249259,361
18:01:07.249259,17152
18:01:07.249259,1
18:01:07.249259,297
18:01:07.249259,5120
18:01:07.249259,1
18:01:07.249259,255
18:01:07.249259,-6912
18:01:07.249259,0
18:01:07.249259,215
18:01:07.249259,-9472
18:01:07.249259,0
18:01:07.249259,215
18:01:07.249259,-14848
18:01:07.249259,0
18:01:07.249259,193
18:01:07.249259,-14848
18:01:07.249259,0
18:01:07.249259,193
18:01:07.249259,-17920
18:01:07.249259,0
18:01:07.249259,191
18:01:07.249259,-17152
18:01:07.249259,0
18:01:07.249259,179
18:01:07.249259,-19712
18:01:07.249259,0
18:01:07.249259,182
18:01:07.249259,-19712
18:01:07.249259,0
18:01:07.249259,174
18:01:07.249259,-22784
18:01:07.249259,0
18:01:07.249259,165
18:01:07.249259,-23808
18:01:07.249259,0
18:01:07.249259,158
18:01:07.249259,-25600
18:01:07.249259,0
18:01:07.249259,163
18:01:07.249259,-23808
18:01:07.249259,0
18:01:07.249259,141
18:01:07.249259,-30464
18:01:07.249259,0
18:01:07.249259,146
18:01:07.249259,-29952
18:01:07.249259,0
18:01:07.249259,134
18:01:07.249259,-31232
18:01:07.249259,0
18:01:07.249259,127
18:01:07.249259,31232
18:01:07.249259,0
18:01:07.249259,118
18:01:07.249259,28416
18:01:07.249259,0
18:01:07.249259,113
18:01:07.249259,27648
18:01:07.249259,0
18:01:07.249259,106
18:01:07.249259,27648
18:01:07.249259,0
18:01:07.249259,96
18:01:07.249259,23552
18:01:07.249259,0
18:01:07.249259,96
18:01:07.249259,24576
18:01:07.249259,0
18:01:07.249259,94
18:01:07.249259,24064
18:01:07.249259,0
18:01:07.249259,87
18:01:07.249259,20992
18:01:07.249259,0
18:01:07.249259,85
18:01:07.249259,19968
18:01:07.249259,0
18:01:07.249259,68
18:01:07.249259,17920
18:01:07.249259,0
18:01:07.249259,73
18:01:07.249259,17920
18:01:07.249259,0
18:01:07.249259,70
18:01:07.249259,16896
18:01:07.249259,0
18:01:07.249259,61
18:01:07.249259,15104
18:01:07.249259,0
18:01:07.249259,52
18:01:07.249259,7168
18:01:07.249259,0
18:01:07.249259,4
18:01:07.789200,-2
18:01:07.789200,255
18:01:07.789200,0
18:01:07.789200,16
18:01:07.789200,15616
18:01:07.789200,0
18:01:07.789200,92
18:01:07.789200,18688
18:01:07.789200,0
18:01:07.789200,44
18:01:07.789200,10240
18:01:07.789200,0
18:01:07.789200,44
18:01:07.789200,12544
18:01:07.789200,0
18:01:07.789200,63
18:01:07.789200,17408
18:01:07.789200,0
18:01:07.789200,52
18:01:07.789200,-2304
18:01:07.789200,-1
18:01:07.789200,-9
18:01:07.789200,-11777
18:01:07.789200,1
18:01:07.789200,1413
18:01:07.789200,6656
18:01:07.789200,6
18:01:07.789200,238
18:01:07.789200,-32768
18:01:07.789200,-3
18:01:07.789200,-52
18:01:07.789200,3583
18:01:07.789200,1
18:01:07.789200,-87
18:01:07.789200,-26369
18:01:07.789200,-1
18:01:07.789200,40
18:01:07.789200,-8448
18:01:07.789200,-1
18:01:07.789200,-70
18:01:07.789200,-5633
18:01:07.789200,-1
18:01:07.789200,-28
18:01:07.789200,-9217
18:01:07.789200,-1
18:01:07.789200,-18
18:01:07.789200,-3841
18:01:07.789200,-1
18:01:07.789200,-26
18:01:07.789200,-3841
18:01:07.789200,-1
18:01:07.789200,-4
18:01:07.789200,-1537
18:01:07.789200,-1
18:01:07.789200,-9
18:01:07.789200,-2049
18:01:07.789200,-1
18:01:07.789200,-7
18:01:07.789200,-1537
18:01:07.789200,-1
18:01:07.789200,2
18:01:07.789200,3584
18:01:07.789200,0
18:01:07.789200,23
18:01:07.789200,9472
18:01:07.789200,0
18:01:07.789200,52
18:01:07.789200,16128
18:01:07.789200,0
18:01:07.789200,78
18:01:07.789200,21760
18:01:07.789200,0
18:01:07.789200,85
18:01:07.789200,17920
18:01:07.789200,0
18:01:07.789200,37
18:01:07.789200,-1024
18:01:07.789200,-1
18:01:07.789200,-35
18:01:07.789200,-14081
18:01:07.789200,-1
18:01:07.789200,-73
18:01:07.789200,-20737
18:01:07.789200,-1
18:01:07.789200,-87
18:01:07.789200,-22529
18:01:07.789200,-1
18:01:07.789200,-94
18:01:07.789200,-23297
18:01:07.789200,-1
18:01:07.789200,-94
18:01:07.789200,-23809
18:01:07.789200,-1
18:01:07.789200,-87
18:01:07.789200,-20225
18:01:07.789200,-1
18:01:07.789200,-82
18:01:07.789200,-20737
18:01:07.789200,-1
18:01:07.789200,-75
18:01:07.789200,-17665
18:01:07.789200,-1
18:01:07.789200,-68
18:01:07.789200,-15361
18:01:07.789200,-1
18:01:07.789200,-59
18:01:07.789200,-14081
18:01:07.789200,-1
18:01:07.789200,-56
18:01:08.330261,-54
18:01:08.330261,-12289
18:01:08.330261,-1
18:01:08.330261,-47
18:01:08.330261,-12289
18:01:08.330261,-1
18:01:08.330261,-47
18:01:08.330261,-11777
18:01:08.330261,-1
18:01:08.330261,-44
18:01:08.330261,-8705
18:01:08.330261,-1
18:01:08.330261,-28
18:01:08.330261,-9217
18:01:08.330261,-1
18:01:08.330261,-42
18:01:08.330261,-8705
18:01:08.330261,-1
18:01:08.330261,-37
18:01:08.330261,-10497
18:01:08.330261,-1
18:01:08.330261,-42
18:01:08.330261,-9985
18:01:08.330261,-1
18:01:08.330261,-42
18:01:08.330261,-10497
18:01:08.330261,-1
18:01:08.330261,-42
18:01:08.330261,-9985
18:01:08.330261,-1
18:01:08.330261,-40
18:01:08.330261,-10497
18:01:08.330261,-1
18:01:08.330261,-40
18:01:08.330261,-9217
18:01:08.330261,-1
18:01:08.330261,-40
18:01:08.330261,-9217
18:01:08.330261,-1
18:01:08.330261,-35
18:01:08.330261,-8193
18:01:08.330261,-1
18:01:08.330261,-33
18:01:08.330261,-8193
18:01:08.330261,-1
18:01:08.330261,-30
18:01:08.330261,-7425
18:01:08.330261,-1
18:01:08.330261,-42
18:01:08.330261,-16641
18:01:08.330261,-1
18:01:08.330261,-85
18:01:08.330261,-23297
18:01:08.330261,-1
18:01:08.330261,-85
18:01:08.330261,-15873
18:01:08.330261,-1
18:01:08.330261,-26
18:01:08.330261,255
18:01:08.330261,0
18:01:08.330261,-9
18:01:08.330261,-7425
18:01:08.330261,-1
18:01:08.330261,-35
18:01:08.330261,-6401
18:01:08.330261,-1
18:01:08.330261,-23
18:01:08.330261,-5633
18:01:08.330261,-1
18:01:08.330261,-21
18:01:08.330261,-11009
18:01:08.330261,-1
18:01:08.330261,-120
18:01:08.330261,-769
18:01:08.330261,-1
18:01:08.330261,711
18:01:08.330261,23552
18:01:08.330261,6
18:01:08.330261,1345
18:01:08.330261,-8960
18:01:08.330261,-1
18:01:08.330261,-439
18:01:08.330261,32255
18:01:08.330261,0
18:01:08.330261,73
18:01:08.330261,2816
18:01:08.330261,-1
18:01:08.330261,-134
18:01:08.330261,-14849
18:01:08.330261,-1
18:01:08.330261,-153
18:01:08.330261,29695
18:01:08.330261,-1
18:01:08.330261,-96
18:01:08.330261,-29953
18:01:08.330261,-1
18:01:08.330261,-118
18:01:08.330261,-23297
18:01:08.330261,-1
18:01:08.330261,-96
18:01:08.330261,-25601
18:01:08.330261,-1
18:01:08.330261,-89
18:01:08.330261,-22017
18:01:08.330261,-1
18:01:08.330261,-89
18:01:08.330261,-21505
18:01:08.330261,-1
18:01:08.330261,-85
18:01:08.959250,-85
18:01:08.959250,-20225
18:01:08.959250,-1
18:01:08.959250,-75
18:01:08.959250,-16641
18:01:08.959250,-1
18:01:08.959250,-44
18:01:08.959250,-3841
18:01:08.959250,-1
18:01:08.959250,-4
18:01:08.959250,1279
18:01:08.959250,0
18:01:08.959250,23
18:01:08.959250,10752
18:01:08.959250,0
18:01:08.959250,54
18:01:08.959250,12544
18:01:08.959250,0
18:01:08.959250,18
18:01:08.959250,-5376
18:01:08.959250,-1
18:01:08.959250,-54
18:01:08.959250,-18433
18:01:08.959250,-1
18:01:08.959250,-85
18:01:08.959250,-23809
18:01:08.959250,-1
18:01:08.959250,-99
18:01:08.959250,-25089
18:01:08.959250,-1
18:01:08.959250,-92
18:01:08.959250,-22529
18:01:08.959250,-1
18:01:08.959250,-89
18:01:08.959250,-22529
18:01:08.959250,-1
18:01:08.959250,-85
18:01:08.959250,-21505
18:01:08.959250,-1
18:01:08.959250,-87
18:01:08.959250,-20737
18:01:08.959250,-1
18:01:08.959250,-75
18:01:08.959250,-18945
18:01:08.959250,-1
18:01:08.959250,-78
18:01:08.959250,-17665
18:01:08.959250,-1
18:01:08.959250,-66
18:01:08.959250,-15361
18:01:08.959250,-1
18:01:08.959250,-59
18:01:08.959250,-14849
18:01:08.959250,-1
18:01:08.959250,-59
18:01:08.959250,-13569
18:01:08.959250,-1
18:01:08.959250,-54
18:01:08.959250,-13569
18:01:08.959250,-1
18:01:08.959250,-54
18:01:08.959250,-14081
18:01:08.959250,-1
18:01:08.959250,-54
18:01:08.959250,-13057
18:01:08.959250,-1
18:01:08.959250,-52
18:01:08.959250,-13057
18:01:08.959250,-1
18:01:08.959250,-54
18:01:08.959250,-13569
18:01:08.959250,-1
18:01:08.959250,-54
18:01:08.959250,-14081
18:01:08.959250,-1
18:01:08.959250,-54
18:01:08.959250,-12289
18:01:08.959250,-1
18:01:08.959250,-49
18:01:08.959250,-12289
18:01:08.959250,-1
18:01:08.959250,-54
18:01:08.959250,-14081
18:01:08.959250,-1
18:01:08.959250,-52
18:01:08.959250,-11777
18:01:08.959250,-1
18:01:08.959250,-52
18:01:08.959250,-13057
18:01:08.959250,-1
18:01:08.959250,-44
18:01:08.959250,-11777
18:01:08.959250,-1
18:01:08.959250,-49
18:01:08.959250,-11777
18:01:08.959250,-1
18:01:08.959250,-47
18:01:08.959250,-12289
18:01:08.959250,-1
18:01:08.959250,-52
18:01:08.959250,-13057
18:01:08.959250,-1
18:01:08.959250,-47
18:01:08.959250,-11009
18:01:08.959250,-1
18:01:08.959250,-44
18:01:08.959250,-10497
18:01:08.959250,-1
18:01:08.959250,-44
18:01:09.500259,-68
18:01:09.500259,-22529
18:01:09.500259,-1
18:01:09.500259,-96
18:01:09.500259,-23809
18:01:09.500259,-1
18:01:09.500259,-80
18:01:09.500259,-10497
18:01:09.500259,-1
18:01:09.500259,-9
18:01:09.500259,-2049
18:01:09.500259,-1
18:01:09.500259,-28
18:01:09.500259,-11009
18:01:09.500259,-1
18:01:09.500259,-44
18:01:09.500259,-7425
18:01:09.500259,-1
18:01:09.500259,-23
18:01:09.500259,-3841
18:01:09.500259,-1
18:01:09.500259,-11
18:01:09.500259,-17153
18:01:09.500259,-1
18:01:09.500259,-108
18:01:09.500259,8959
18:01:09.500259,1
18:01:09.500259,1262
18:01:09.500259,-10496
18:01:09.500259,6
18:01:09.500259,697
18:01:09.500259,6400
18:01:09.500259,-2
18:01:09.500259,-200
18:01:09.500259,-11521
18:01:09.500259,0
18:01:09.500259,-134
18:01:09.500259,3583
18:01:09.500259,-1
18:01:09.500259,-66
18:01:09.500259,-28161
18:01:09.500259,-1
18:01:09.500259,-174
18:01:09.500259,-26369
18:01:09.500259,-1
18:01:09.500259,-87
18:01:09.500259,-30465
18:01:09.500259,-1
18:01:09.500259,-113
18:01:09.500259,-24321
18:01:09.500259,-1
18:01:09.500259,-96
18:01:09.500259,-23297
18:01:09.500259,-1
18:01:09.500259,-87
18:01:09.500259,-20737
18:01:09.500259,-1
18:01:09.500259,-70
18:01:09.500259,-16641
18:01:09.500259,-1
18:01:09.500259,-75
18:01:09.500259,-18433
18:01:09.500259,-1
18:01:09.500259,-61
18:01:09.500259,-13569
18:01:09.500259,-1
18:01:09.500259,-44
18:01:09.500259,-6913
18:01:09.500259,-1
18:01:09.500259,-16
18:01:09.500259,-257
18:01:09.500259,-1
18:01:09.500259,16
18:01:09.500259,6656
18:01:09.500259,0
18:01:09.500259,33
18:01:09.500259,9472
18:01:09.500259,0
18:01:09.500259,11
18:01:09.500259,-8960
18:01:09.500259,-1
18:01:09.500259,-68
18:01:09.500259,-22017
18:01:09.500259,-1
18:01:09.500259,-111
18:01:09.500259,-32257
18:01:09.500259,-1
18:01:09.500259,-127
18:01:09.500259,31999
18:01:09.500259,-1
18:01:09.500259,-134
18:01:09.500259,32511
18:01:09.500259,-1
18:01:09.500259,-122
18:01:09.500259,-32257
18:01:09.500259,-1
18:01:09.500259,-130
18:01:09.500259,-30977
18:01:09.500259,-1
18:01:09.500259,-118
18:01:09.500259,-29185
18:01:09.500259,-1
18:01:09.500259,-104
18:01:09.500259,-25601
18:01:09.500259,-1
18:01:09.500259,-111
18:01:09.500259,-26881
18:01:09.500259,-1
18:01:09.500259,-101
18:01:10.039235,-101
18:01:10.039235,-25089
18:01:10.039235,-1
18:01:10.039235,-99
18:01:10.039235,-24321
18:01:10.039235,-1
18:01:10.039235,-89
18:01:10.039235,-21505
18:01:10.039235,-1
18:01:10.039235,-89
18:01:10.039235,-22529
18:01:10.039235,-1
18:01:10.039235,-87
18:01:10.039235,-23297
18:01:10.039235,-1
18:01:10.039235,-87
18:01:10.039235,-17665
18:01:10.039235,-1
18:01:10.039235,-70
18:01:10.039235,-20225
18:01:10.039235,-1
18:01:10.039235,-78
18:01:10.039235,-18945
18:01:10.039235,-1
18:01:10.039235,-80
18:01:10.039235,-20225
18:01:10.039235,-1
18:01:10.039235,-75
18:01:10.039235,-18433
18:01:10.039235,-1
18:01:10.039235,-82
18:01:10.039235,-21505
18:01:10.039235,-1
18:01:10.039235,-80
18:01:10.039235,-20225
18:01:10.039235,-1
18:01:10.039235,-80
18:01:10.039235,-18945
18:01:10.039235,-1
18:01:10.039235,-75
18:01:10.039235,-20737
18:01:10.039235,-1
18:01:10.039235,-80
18:01:10.039235,-18433
18:01:10.039235,-1
18:01:10.039235,-78
18:01:10.039235,-20737
18:01:10.039235,-1
18:01:10.039235,-75
18:01:10.039235,-19713
18:01:10.039235,-1
18:01:10.039235,-101
18:01:10.039235,-30977
18:01:10.039235,-1
18:01:10.039235,-130
18:01:10.039235,32511
18:01:10.039235,-1
18:01:10.039235,-118
18:01:10.039235,-21505
18:01:10.039235,-1
18:01:10.039235,-52
18:01:10.039235,-12289
18:01:10.039235,-1
18:01:10.039235,-75
18:01:10.039235,-21505
18:01:10.039235,-1
18:01:10.039235,-73
18:01:10.039235,-16641
18:01:10.039235,-1
18:01:10.039235,-70
18:01:10.039235,-17153
18:01:10.039235,-1
18:01:10.039235,-66
18:01:10.039235,-28673
18:01:10.039235,-1
18:01:10.039235,-153
18:01:10.039235,-14593
18:01:10.039235,0
18:01:10.039235,1118
18:01:10.039235,6144
18:01:10.039235,6
18:01:10.039235,458
18:01:10.039235,9728
18:01:10.039235,-3
18:01:10.039235,-364
18:01:10.039235,-23041
18:01:10.039235,0
18:01:10.039235,-127
18:01:10.039235,1279
18:01:10.039235,-1
18:01:10.039235,-89
18:01:10.039235,-31745
18:01:10.039235,-1
18:01:10.039235,-182
18:01:10.039235,-31745
18:01:10.039235,-1
18:01:10.039235,-118
18:01:10.039235,29695
18:01:10.039235,-1
18:01:10.039235,-127
18:01:10.039235,-29953
18:01:10.039235,-1
18:01:10.039235,-122
18:01:10.039235,-27393
18:01:10.039235,-1
18:01:10.039235,-94
18:01:10.039235,-23809
18:01:10.039235,-1
18:01:10.039235,-96
18:01:10.580062,-87
18:01:10.580062,-18433
18:01:10.580062,-1
18:01:10.580062,-61
18:01:10.580062,-13569
18:01:10.580062,-1
18:01:10.580062,-44
18:01:10.580062,-6401
18:01:10.580062,-1
18:01:10.580062,0
18:01:10.580062,5376
18:01:10.580062,0
18:01:10.580062,40
18:01:10.580062,13824
18:01:10.580062,0
18:01:10.580062,56
18:01:10.580062,13312
18:01:10.580062,0
18:01:10.580062,33
18:01:10.580062,-2304
18:01:10.580062,-1
18:01:10.580062,-61
18:01:10.580062,-25089
18:01:10.580062,-1
18:01:10.580062,-118
18:01:10.580062,31999
18:01:10.580062,-1
18:01:10.580062,-141
18:01:10.580062,28415
18:01:10.580062,-1
18:01:10.580062,-146
18:01:10.580062,27903
18:01:10.580062,-1
18:01:10.580062,-151
18:01:10.580062,28415
18:01:10.580062,-1
18:01:10.580062,-141
18:01:10.580062,29695
18:01:10.580062,-1
18:01:10.580062,-141
18:01:10.580062,30719
18:01:10.580062,-1
18:01:10.580062,-127
18:01:10.580062,-30977
18:01:10.580062,-1
18:01:10.580062,-125
18:01:10.580062,-29953
18:01:10.580062,-1
18:01:10.580062,-108
18:01:10.580062,-27393
18:01:10.580062,-1
18:01:10.580062,-111
18:01:10.580062,-26881
18:01:10.580062,-1
18:01:10.580062,-96
18:01:10.580062,-23809
18:01:10.580062,-1
18:01:10.580062,-96
18:01:10.580062,-25089
18:01:10.580062,-1
18:01:10.580062,-99
18:01:10.580062,-24321
18:01:10.580062,-1
18:01:10.580062,-94
18:01:10.580062,-25089
18:01:10.580062,-1
18:01:10.580062,-101
18:01:10.580062,-24321
18:01:10.580062,-1
18:01:10.580062,-94
18:01:10.580062,-25089
18:01:10.580062,-1
18:01:10.580062,-101
18:01:10.580062,-23809
18:01:10.580062,-1
18:01:10.580062,-89
18:01:10.580062,-23809
18:01:10.580062,-1
18:01:10.580062,-96
18:01:10.580062,-23809
18:01:10.580062,-1
18:01:10.580062,-92
18:01:10.580062,-23297
18:01:10.580062,-1
18:01:10.580062,-89
18:01:10.580062,-22529
18:01:10.580062,-1
18:01:10.580062,-89
18:01:10.580062,-22017
18:01:10.580062,-1
18:01:10.580062,-80
18:01:10.580062,-19713
18:01:10.580062,-1
18:01:10.580062,-85
18:01:10.580062,-25089
18:01:10.580062,-1
18:01:10.580062,-125
18:01:10.580062,31487
18:01:10.580062,-1
18:01:10.580062,-127
18:01:10.580062,-29185
18:01:10.580062,-1
18:01:10.580062,-94
18:01:10.580062,-14849
18:01:10.580062,-1
18:01:10.580062,-44
18:01:10.580062,-15361
18:01:10.580062,-1
18:01:10.580062,-75
18:01:11.164634,-68
18:01:11.164634,-15361
18:01:11.164634,-1
18:01:11.164634,-66
18:01:11.164634,-15873
18:01:11.164634,-1
18:01:11.164634,-61
18:01:11.164634,-25089
18:01:11.164634,-1
18:01:11.164634,-137
18:01:11.164634,-13313
18:01:11.164634,0
18:01:11.164634,1130
18:01:11.164634,-29184
18:01:11.164634,6
18:01:11.164634,723
18:01:11.164634,12032
18:01:11.164634,-2
18:01:11.164634,-231
18:01:11.164634,-14593
18:01:11.164634,0
18:01:11.164634,-130
18:01:11.164634,-1793
18:01:11.164634,-2
18:01:11.164634,-94
18:01:11.164634,-32257
18:01:11.164634,-1
18:01:11.164634,-193
18:01:11.164634,30207
18:01:11.164634,-1
18:01:11.164634,-130
18:01:11.164634,25855
18:01:11.164634,-1
18:01:11.164634,-139
18:01:11.164634,-31745
18:01:11.164634,-1
18:01:11.164634,-130
18:01:11.164634,-32257
18:01:11.164634,-1
18:01:11.164634,-122
18:01:11.164634,-31745
18:01:11.164634,-1
18:01:11.164634,-122
18:01:11.164634,-29953
18:01:11.164634,-1
18:01:11.164634,-118
18:01:11.164634,-30977
18:01:11.164634,-1
18:01:11.164634,-122
18:01:11.164634,-29953
18:01:11.164634,-1
18:01:11.164634,-106
18:01:11.164634,-22529
18:01:11.164634,-1
18:01:11.164634,-73
18:01:11.164634,-15361
18:01:11.164634,-1
18:01:11.164634,-47
18:01:11.164634,-6401
18:01:11.164634,-1
18:01:11.164634,-7
18:01:11.164634,-769
18:01:11.164634,-1
18:01:11.164634,-23
18:01:11.164634,-14081
18:01:11.164634,-1
18:01:11.164634,-87
18:01:11.164634,-26369
18:01:11.164634,-1
18:01:11.164634,-113
18:01:11.164634,-30465
18:01:11.164634,-1
18:01:11.164634,-125
18:01:11.164634,-30977
18:01:11.164634,-1
18:01:11.164634,-122
18:01:11.164634,-30977
18:01:11.164634,-1
18:01:11.164634,-118
18:01:11.164634,-28673
18:01:11.164634,-1
18:01:11.164634,-111
18:01:11.164634,-26369
18:01:11.164634,-1
18:01:11.164634,-99
18:01:11.164634,-24321
18:01:11.164634,-1
18:01:11.164634,-94
18:01:11.164634,-23297
18:01:11.164634,-1
18:01:11.164634,-89
18:01:11.164634,-22017
18:01:11.164634,-1
18:01:11.164634,-85
18:01:11.164634,-20225
18:01:11.164634,-1
18:01:11.164634,-78
18:01:11.164634,-18433
18:01:11.164634,-1
18:01:11.164634,-75
18:01:11.164634,-18945
18:01:11.164634,-1
18:01:11.164634,-68
18:01:11.164634,-16641
18:01:11.164634,-1
18:01:11.164634,-70
18:01:11.164634,-17665
18:01:11.164634,-1
18:01:11.164634,-70
18:01:11.704245,-68
18:01:11.704245,-17153
18:01:11.704245,-1
18:01:11.704245,-68
18:01:11.704245,-17665
18:01:11.704245,-1
18:01:11.704245,-70
18:01:11.704245,-17153
18:01:11.704245,-1
18:01:11.704245,-68
18:01:11.704245,-16641
18:01:11.704245,-1
18:01:11.704245,-61
18:01:11.704245,-12289
18:01:11.704245,-1
18:01:11.704245,-47
18:01:11.704245,-13057
18:01:11.704245,-1
18:01:11.704245,-52
18:01:11.704245,-13057
18:01:11.704245,-1
18:01:11.704245,-52
18:01:11.704245,-13057
18:01:11.704245,-1
18:01:11.704245,-49
18:01:11.704245,-13057
18:01:11.704245,-1
18:01:11.704245,-52
18:01:11.704245,-13057
18:01:11.704245,-1
18:01:11.704245,-49
18:01:11.704245,-11777
18:01:11.704245,-1
18:01:11.704245,-52
18:01:11.704245,-17153
18:01:11.704245,-1
18:01:11.704245,-92
18:01:11.704245,-26881
18:01:11.704245,-1
18:01:11.704245,-106
18:01:11.704245,-24321
18:01:11.704245,-1
18:01:11.704245,-73
18:01:11.704245,-10497
18:01:11.704245,-1
18:01:11.704245,-23
18:01:11.704245,-7425
18:01:11.704245,-1
18:01:11.704245,-47
18:01:11.704245,-11009
18:01:11.704245,-1
18:01:11.704245,-33
18:01:11.704245,-8193
18:01:11.704245,-1
18:01:11.704245,-35
18:01:11.704245,-9985
18:01:11.704245,-1
18:01:11.704245,-85
18:01:11.704245,29695
18:01:11.704245,-1
18:01:11.704245,148
18:01:11.704245,2816
18:01:11.704245,4
18:01:11.704245,1699
18:01:11.704245,-22528
18:01:11.704245,3
18:01:11.704245,-312
18:01:11.704245,-769
18:01:11.704245,-2
18:01:11.704245,182
18:01:11.704245,-24576
18:01:11.704245,-1
18:01:11.704245,-269
18:01:11.704245,-26881
18:01:11.704245,-1
18:01:11.704245,-115
18:01:11.704245,16895
18:01:11.704245,-1
18:01:11.704245,-144
18:01:11.704245,-30465
18:01:11.704245,-1
18:01:11.704245,-146
18:01:11.704245,31487
18:01:11.704245,-1
18:01:11.704245,-118
18:01:11.704245,-31745
18:01:11.704245,-1
18:01:11.704245,-120
18:01:11.704245,-28673
18:01:11.704245,-1
18:01:11.704245,-115
18:01:11.704245,-29953
18:01:11.704245,-1
18:01:11.704245,-115
18:01:11.704245,-28673
18:01:11.704245,-1
18:01:11.704245,-115
18:01:11.704245,-29185
18:01:11.704245,-1
18:01:11.704245,-111
18:01:11.704245,-26369
18:01:11.704245,-1
18:01:11.704245,-92
18:01:11.704245,-19713
18:01:11.704245,-1
18:01:11.704245,-59
18:01:11.704245,-10497
18:01:11.704245,-1
18:01:11.704245,-28
18:01:12.289246,-2
18:01:12.289246,3071
18:01:12.289246,0
18:01:12.289246,0
18:01:12.289246,-7168
