timestamp,ecg
17:02:01.111303,9482
17:02:01.111303,-10752
17:02:01.111303,36
17:02:01.111303,9263
17:02:01.111303,18176
17:02:01.111303,36
17:02:01.111303,9199
17:02:01.111303,-17152
17:02:01.111303,35
17:02:01.111303,9103
17:02:01.111303,1792
17:02:01.111303,35
17:02:01.111303,9003
17:02:01.111303,-1280
17:02:01.111303,34
17:02:01.111303,8944
17:02:01.111303,15360
17:02:01.111303,35
17:02:01.111303,8951
17:02:01.111303,12800
17:02:01.111303,35
17:02:01.111303,8917
17:02:01.111303,1536
17:02:01.111303,34
17:02:01.111303,8779
17:02:01.111303,14848
17:02:01.111303,34
17:02:01.111303,8743
17:02:01.111303,24576
17:02:01.111303,34
17:02:01.111303,8748
17:02:01.111303,11264
17:02:01.111303,34
17:02:01.111303,8688
17:02:01.111303,-12032
17:02:01.111303,33
17:02:01.111303,8662
17:02:01.111303,24320
17:02:01.111303,33
17:02:01.111303,8519
17:02:01.111303,7168
17:02:01.111303,33
17:02:01.111303,8362
17:02:01.111303,27648
17:02:01.111303,32
17:02:01.111303,8171
17:02:01.111303,-23040
17:02:01.111303,31
17:02:01.111303,8026
17:02:01.111303,-9984
17:02:01.111303,30
17:02:01.111303,7875
17:02:01.111303,29952
17:02:01.111303,30
17:02:01.111303,7696
17:02:01.111303,-20224
17:02:01.111303,29
17:02:01.111303,7463
17:02:01.111303,3840
17:02:01.111303,29
17:02:01.111303,7389
17:02:01.111303,-26624
17:02:01.111303,28
17:02:01.111303,7317
17:02:01.111303,18688
17:02:01.111303,28
17:02:01.111303,7196
17:02:01.111303,-3840
17:02:01.111303,27
17:02:01.111303,7072
17:02:01.111303,-30208
17:02:01.111303,27
17:02:01.111303,6998
17:02:01.111303,12288
17:02:01.111303,27
17:02:01.111303,6933
17:02:01.111303,-9216
17:02:01.111303,26
17:02:01.111303,6869
17:02:01.111303,-22528
17:02:01.111303,26
17:02:01.111303,6790
17:02:01.111303,32512
17:02:01.111303,26
17:02:01.111303,6712
17:02:01.111303,11264
17:02:01.111303,26
17:02:01.111303,6688
17:02:01.111303,-7168
17:02:01.111303,25
17:02:01.111303,6612
17:02:01.111303,-21248
17:02:01.111303,25
17:02:01.111303,6564
17:02:01.111303,-23040
17:02:01.111303,25
17:02:01.111303,6516
17:02:01.111303,30464
17:02:01.111303,25
17:02:01.111303,6509
17:02:01.111303,25344
17:02:01.111303,25
17:02:01.111303,6528
17:02:01.111303,13824
17:02:01.111303,25
17:02:01.111303,6373
17:02:01.111303,-20992
17:02:01.111303,24
17:02:01.111303,6254
17:02:01.651468,6237
17:02:01.651468,6144
17:02:01.651468,24
17:02:01.651468,6147
17:02:01.651468,1792
17:02:01.651468,24
17:02:01.651468,6063
17:02:01.651468,-23808
17:02:01.651468,23
17:02:01.651468,6027
17:02:01.651468,27136
17:02:01.651468,23
17:02:01.651468,6032
17:02:01.651468,32000
17:02:01.651468,23
17:02:01.651468,6073
17:02:01.651468,-14592
17:02:01.651468,23
17:02:01.651468,5970
17:02:01.651468,24576
17:02:01.651468,23
17:02:01.651468,5946
17:02:01.651468,-5888
17:02:01.651468,22
17:02:01.651468,5846
17:02:01.651468,-32768
17:02:01.651468,22
17:02:01.651468,5753
17:02:01.651468,18176
17:02:01.651468,22
17:02:01.651468,5622
17:02:01.651468,12032
17:02:01.651468,22
17:02:01.651468,5641
17:02:01.651468,2304
17:02:01.651468,22
17:02:01.651468,5696
17:02:01.651468,13312
17:02:01.651468,22
17:02:01.651468,5772
17:02:01.651468,-19200
17:02:01.651468,22
17:02:01.651468,5870
17:02:01.651468,22272
17:02:01.651468,23
17:02:01.651468,5956
17:02:01.651468,-27904
17:02:01.651468,23
17:02:01.651468,6068
17:02:01.651468,-27904
17:02:01.651468,23
17:02:01.651468,6113
17:02:01.651468,-23040
17:02:01.651468,23
17:02:01.651468,6063
17:02:01.651468,-3072
17:02:01.651468,23
17:02:01.651468,6077
17:02:01.651468,3840
17:02:01.651468,24
17:02:01.651468,6139
17:02:01.651468,-15104
17:02:01.651468,23
17:02:01.651468,6151
17:02:01.651468,-14592
17:02:01.651468,23
17:02:01.651468,6125
17:02:01.651468,-3072
17:02:01.651468,23
17:02:01.651468,6030
17:02:01.651468,-17152
17:02:01.651468,23
17:02:01.651468,6001
17:02:01.651468,24064
17:02:01.651468,23
17:02:01.651468,6044
17:02:01.651468,19200
17:02:01.651468,23
17:02:01.651468,6001
17:02:01.651468,20992
17:02:01.651468,23
17:02:01.651468,5963
17:02:01.651468,-12800
17:02:01.651468,23
17:02:01.651468,6046
17:02:01.651468,-4864
17:02:01.651468,23
17:02:01.651468,6209
17:02:01.651468,2560
17:02:01.651468,24
17:02:01.651468,6252
17:02:01.651468,25088
17:02:01.651468,24
17:02:01.651468,6256
17:02:01.651468,-16640
17:02:01.651468,24
17:02:01.651468,6275
17:02:01.651468,-11264
17:02:01.651468,24
17:02:01.651468,6356
17:02:01.651468,-23296
17:02:01.651468,24
17:02:01.651468,6366
17:02:01.651468,25088
17:02:01.651468,24
17:02:01.651468,6249
17:02:01.651468,-29952
17:02:01.651468,24
17:02:01.651468,6180
17:02:02.190442,6209
17:02:02.190442,-12032
17:02:02.190442,23
17:02:02.190442,6006
17:02:02.190442,28928
17:02:02.190442,23
17:02:02.190442,5863
17:02:02.190442,8704
17:02:02.190442,23
17:02:02.190442,5944
17:02:02.190442,256
17:02:02.190442,23
17:02:02.190442,5889
17:02:02.190442,5888
17:02:02.190442,22
17:02:02.190442,5612
17:02:02.190442,12032
17:02:02.190442,22
17:02:02.190442,5560
17:02:02.190442,-15872
17:02:02.190442,21
17:02:02.190442,5527
17:02:02.190442,31232
17:02:02.190442,21
17:02:02.190442,5529
17:02:02.190442,14848
17:02:02.190442,21
17:02:02.190442,5479
17:02:02.190442,17920
17:02:02.190442,21
17:02:02.190442,5355
17:02:02.190442,4864
17:02:02.190442,21
17:02:02.190442,5276
17:02:02.190442,-28672
17:02:02.190442,20
17:02:02.190442,5312
17:02:02.190442,24832
17:02:02.190442,20
17:02:02.190442,5236
17:02:02.190442,4608
17:02:02.190442,20
17:02:02.190442,5052
17:02:02.190442,-11264
17:02:02.190442,19
17:02:02.190442,5000
17:02:02.190442,-16128
17:02:02.190442,19
17:02:02.190442,5004
17:02:02.190442,7936
17:02:02.190442,19
17:02:02.190442,5007
17:02:02.190442,32256
17:02:02.190442,19
17:02:02.190442,5004
17:02:02.190442,-19712
17:02:02.190442,19
17:02:02.190442,4976
17:02:02.190442,-20480
17:02:02.190442,19
17:02:02.190442,5007
17:02:02.190442,30464
17:02:02.190442,19
17:02:02.190442,5019
17:02:02.190442,11520
17:02:02.190442,19
17:02:02.190442,4947
17:02:02.190442,14080
17:02:02.190442,19
17:02:02.190442,4814
17:02:02.190442,3072
17:02:02.190442,19
17:02:02.190442,4792
17:02:02.190442,24576
17:02:02.190442,18
17:02:02.190442,4628
17:02:02.190442,-32768
17:02:02.190442,17
17:02:02.190442,4504
17:02:02.190442,18176
17:02:02.190442,17
17:02:02.190442,4308
17:02:02.190442,-18432
17:02:02.190442,16
17:02:02.190442,4156
17:02:02.190442,27392
17:02:02.190442,16
17:02:02.190442,4282
17:02:02.190442,-12544
17:02:02.190442,16
17:02:02.190442,4384
17:02:02.190442,-24064
17:02:02.190442,16
17:02:02.190442,4198
17:02:02.190442,-27136
17:02:02.190442,16
17:02:02.190442,4203
17:02:02.190442,-30720
17:02:02.190442,16
17:02:02.190442,4117
17:02:02.190442,-22016
17:02:02.190442,15
17:02:02.190442,4027
17:02:02.190442,22272
17:02:02.190442,15
17:02:02.190442,3924
17:02:02.190442,2048
17:02:02.190442,15
17:02:02.190442,3669
17:02:02.777493,3655
17:02:02.777493,-9984
17:02:02.777493,13
17:02:02.777493,3471
17:02:02.777493,-32000
17:02:02.777493,13
17:02:02.777493,3376
17:02:02.777493,18432
17:02:02.777493,13
17:02:02.777493,3252
17:02:02.777493,7680
17:02:02.777493,12
17:02:02.777493,3130
17:02:02.777493,-21760
17:02:02.777493,11
17:02:02.777493,2911
17:02:02.777493,18688
17:02:02.777493,11
17:02:02.777493,2818
17:02:02.777493,12800
17:02:02.777493,11
17:02:02.777493,2742
17:02:02.777493,6912
17:02:02.777493,10
17:02:02.777493,2517
17:02:02.777493,21760
17:02:02.777493,9
17:02:02.777493,2362
17:02:02.777493,-14336
17:02:02.777493,8
17:02:02.777493,2143
17:02:02.777493,27904
17:02:02.777493,8
17:02:02.777493,2022
17:02:02.777493,-16640
17:02:02.777493,7
17:02:02.777493,1993
17:02:02.777493,-24576
17:02:02.777493,7
17:02:02.777493,2033
17:02:02.777493,-12800
17:02:02.777493,7
17:02:02.777493,2064
17:02:02.777493,-22784
17:02:02.777493,8
17:02:02.777493,2145
17:02:02.777493,24320
17:02:02.777493,8
17:02:02.777493,2053
17:02:02.777493,-26880
17:02:02.777493,7
17:02:02.777493,1940
17:02:02.777493,-20480
17:02:02.777493,6
17:02:02.777493,1664
17:02:02.777493,30208
17:02:02.777493,6
17:02:02.777493,1442
17:02:02.777493,32256
17:02:02.777493,5
17:02:02.777493,1142
17:02:02.777493,-13312
17:02:02.777493,3
17:02:02.777493,1006
17:02:02.777493,-17920
17:02:02.777493,2
17:02:02.777493,712
17:02:02.777493,-26368
17:02:02.777493,2
17:02:02.777493,431
17:02:02.777493,11520
17:02:02.777493,2
17:02:02.777493,338
17:02:02.777493,9984
17:02:02.777493,1
17:02:02.777493,360
17:02:02.777493,7680
17:02:02.777493,0
17:02:02.777493,121
17:02:02.777493,-4096
17:02:02.777493,-1
17:02:02.777493,-271
17:02:02.777493,1279
17:02:02.777493,-1
17:02:02.777493,-648
17:02:02.777493,13311
17:02:02.777493,-3
17:02:02.777493,-803
17:02:02.777493,-11521
17:02:02.777493,-5
17:02:02.777493,-894
17:02:02.777493,-26881
17:02:02.777493,-5
17:02:02.777493,-1154
17:02:02.777493,17663
17:02:02.777493,-4
17:02:02.777493,-1213
17:02:02.777493,-513
17:02:02.777493,-5
17:02:02.777493,-1072
17:02:02.777493,10751
17:02:02.777493,-5
17:02:02.777493,-1051
17:02:02.777493,-6401
17:02:02.777493,-6
17:02:02.777493,-1247
17:02:02.777493,-9473
17:02:02.777493,-6
17:02:02.777493,-1769
17:02:03.316435,-1738
17:02:03.316435,-9473
17:02:03.316435,-9
17:02:03.316435,-2274
17:02:03.316435,12031
17:02:03.316435,-9
17:02:03.316435,-2804
17:02:03.316435,29951
17:02:03.316435,-12
17:02:03.316435,-3280
17:02:03.316435,-22273
17:02:03.316435,-15
17:02:03.316435,-3610
17:02:03.316435,-16385
17:02:03.316435,-16
17:02:03.316435,-3838
17:02:03.316435,4351
17:02:03.316435,-15
17:02:03.316435,-4101
17:02:03.316435,-513
17:02:03.316435,-16
17:02:03.316435,-4075
17:02:03.316435,26623
17:02:03.316435,-17
17:02:03.316435,-4096
17:02:03.316435,-1281
17:02:03.316435,-18
17:02:03.316435,-4148
17:02:03.316435,-10241
17:02:03.316435,-17
17:02:03.316435,-4337
17:02:03.316435,-32001
17:02:03.316435,-17
17:02:03.316435,-4575
17:02:03.316435,23295
17:02:03.316435,-18
17:02:03.316435,-4439
17:02:03.316435,27903
17:02:03.316435,-19
17:02:03.316435,-4570
17:02:03.316435,17407
17:02:03.316435,-19
17:02:03.316435,-4938
17:02:03.316435,14847
17:02:03.316435,-19
17:02:03.316435,-5205
17:02:03.316435,1023
17:02:03.316435,-20
17:02:03.316435,-5176
17:02:03.316435,-13313
17:02:03.316435,-22
17:02:03.316435,-5219
17:02:03.316435,-27393
17:02:03.316435,-22
17:02:03.316435,-5460
17:02:03.316435,5631
17:02:03.316435,-21
17:02:03.316435,-5624
17:02:03.316435,2047
17:02:03.316435,-21
17:02:03.316435,-5510
17:02:03.316435,-4609
17:02:03.316435,-23
17:02:03.316435,-5441
17:02:03.316435,-25857
17:02:03.316435,-23
17:02:03.316435,-5701
17:02:03.316435,-27649
17:02:03.316435,-23
17:02:03.316435,-5977
17:02:03.316435,14079
17:02:03.316435,-23
17:02:03.316435,-6070
17:02:03.316435,8703
17:02:03.316435,-24
17:02:03.316435,-6094
17:02:03.316435,-1281
17:02:03.316435,-26
17:02:03.316435,-6337
17:02:03.316435,19455
17:02:03.316435,-26
17:02:03.316435,-6790
17:02:03.316435,-24321
17:02:03.316435,-27
17:02:03.316435,-7136
17:02:03.316435,10751
17:02:03.316435,-28
17:02:03.316435,-7205
17:02:03.316435,-1793
17:02:03.316435,-30
17:02:03.316435,-7270
17:02:03.316435,-30465
17:02:03.316435,-30
17:02:03.316435,-7532
17:02:03.316435,2047
17:02:03.316435,-29
17:02:03.316435,-7725
17:02:03.316435,-30465
17:02:03.316435,-30
17:02:03.316435,-7644
17:02:03.316435,-20993
17:02:03.316435,-31
17:02:03.316435,-7582
17:02:03.316435,8959
17:02:03.316435,-31
17:02:03.316435,-7849
17:02:03.316435,8959
17:02:03.316435,-31
17:02:03.316435,-8216
17:02:03.901503,-8111
17:02:03.901503,2303
17:02:03.901503,-33
17:02:03.901503,-8533
17:02:03.901503,-9473
17:02:03.901503,-34
17:02:03.901503,-8862
17:02:03.901503,-26881
17:02:03.901503,-35
17:02:03.901503,-9048
17:02:03.901503,7679
17:02:03.901503,-36
17:02:03.901503,-8972
17:02:03.901503,-32001
17:02:03.901503,-37
17:02:03.901503,-9320
17:02:03.901503,31743
17:02:03.901503,-37
17:02:03.901503,-9687
17:02:03.901503,-27393
17:02:03.901503,-38
17:02:03.901503,-9890
17:02:03.901503,-6913
17:02:03.901503,-40
17:02:03.901503,-9969
17:02:03.901503,-31745
17:02:03.901503,-41
17:02:03.901503,-10338
17:02:03.901503,-15617
17:02:03.901503,-42
17:02:03.901503,-10758
17:02:03.901503,-16897
17:02:03.901503,-42
17:02:03.901503,-10882
17:02:03.901503,5119
17:02:03.901503,-43
17:02:03.901503,-11132
17:02:03.901503,-30209
17:02:03.901503,-45
17:02:03.901503,-11197
17:02:03.901503,11007
17:02:03.901503,-45
17:02:03.901503,-11540
17:02:03.901503,17663
17:02:03.901503,-45
17:02:03.901503,-11922
17:02:03.901503,-30977
17:02:03.901503,-47
17:02:03.901503,-11876
17:02:03.901503,-28929
17:02:03.901503,-48
17:02:03.901503,-12167
17:02:03.901503,21503
17:02:03.901503,-48
17:02:03.901503,-12129
17:02:03.901503,-4865
17:02:03.901503,-49
17:02:03.901503,-12387
17:02:03.901503,-769
17:02:03.901503,-48
17:02:03.901503,-12279
17:02:03.901503,1279
17:02:03.901503,-48
17:02:03.901503,-12053
17:02:03.901503,-10241
17:02:03.901503,-49
17:02:03.901503,-12182
17:02:03.901503,15359
17:02:03.901503,-48
17:02:03.901503,-12372
17:02:03.901503,28671
17:02:03.901503,-48
17:02:03.901503,-12439
17:02:03.901503,-22017
17:02:03.901503,-49
17:02:03.901503,-12322
17:02:03.901503,3327
17:02:03.901503,-49
17:02:03.901503,-12306
17:02:03.901503,19199
17:02:03.901503,-49
17:02:03.901503,-12434
17:02:03.901503,17663
17:02:03.901503,-48
17:02:03.901503,-12537
17:02:03.901503,-26113
17:02:03.901503,-49
17:02:03.901503,-12380
17:02:03.901503,11263
17:02:03.901503,-49
17:02:03.901503,-12260
17:02:03.901503,29439
17:02:03.901503,-49
17:02:03.901503,-12308
17:02:03.901503,19455
17:02:03.901503,-48
17:02:03.901503,-12408
17:02:03.901503,-25345
17:02:03.901503,-48
17:02:03.901503,-12229
17:02:03.901503,8447
17:02:03.901503,-48
17:02:03.901503,-12089
17:02:03.901503,-10241
17:02:03.901503,-49
17:02:03.901503,-12093
17:02:03.901503,-257
17:02:03.901503,-48
17:02:03.901503,-12151
17:02:04.487448,-11910
17:02:04.487448,-14337
17:02:04.487448,-48
17:02:04.487448,-12005
17:02:04.487448,-30209
17:02:04.487448,-47
17:02:04.487448,-12065
17:02:04.487448,-5889
17:02:04.487448,-47
17:02:04.487448,-11919
17:02:04.487448,17407
17:02:04.487448,-47
17:02:04.487448,-11833
17:02:04.487448,-22785
17:02:04.487448,-48
17:02:04.487448,-11841
17:02:04.487448,9471
17:02:04.487448,-46
17:02:04.487448,-11929
17:02:04.487448,18431
17:02:04.487448,-46
17:02:04.487448,-11864
17:02:04.487448,767
17:02:04.487448,-46
17:02:04.487448,-11647
17:02:04.487448,-24321
17:02:04.487448,-47
17:02:04.487448,-11657
17:02:04.487448,5119
17:02:04.487448,-46
17:02:04.487448,-11822
17:02:04.487448,-25089
17:02:04.487448,-46
17:02:04.487448,-11836
17:02:04.487448,30207
17:02:04.487448,-46
17:02:04.487448,-11481
17:02:04.487448,-18433
17:02:04.487448,-46
17:02:04.487448,-11500
17:02:04.487448,-24321
17:02:04.487448,-46
17:02:04.487448,-11609
17:02:04.487448,-3073
17:02:04.487448,-46
17:02:04.487448,-11605
17:02:04.487448,4351
17:02:04.487448,-45
17:02:04.487448,-11574
17:02:04.487448,-513
17:02:04.487448,-46
17:02:04.487448,-11392
17:02:04.487448,1791
17:02:04.487448,-45
17:02:04.487448,-11411
17:02:04.487448,26111
17:02:04.487448,-45
17:02:04.487448,-11478
17:02:04.487448,-14849
17:02:04.487448,-45
17:02:04.487448,-11392
17:02:04.487448,-15617
17:02:04.487448,-45
17:02:04.487448,-11252
17:02:04.487448,-13569
17:02:04.487448,-45
17:02:04.487448,-11173
17:02:04.487448,20991
17:02:04.487448,-44
17:02:04.487448,-11137
17:02:04.487448,-3585
17:02:04.487448,-44
17:02:04.487448,-11099
17:02:04.487448,7423
17:02:04.487448,-43
17:02:04.487448,-10980
17:02:04.487448,6911
17:02:04.487448,-43
17:02:04.487448,-10811
17:02:04.487448,29951
17:02:04.487448,-43
17:02:04.487448,-10837
17:02:04.487448,-11777
17:02:04.487448,-43
17:02:04.487448,-10892
17:02:04.487448,-1281
17:02:04.487448,-43
17:02:04.487448,-10811
17:02:04.487448,-15873
17:02:04.487448,-43
17:02:04.487448,-10722
17:02:04.487448,-20225
17:02:04.487448,-43
17:02:04.487448,-10739
17:02:04.487448,7935
17:02:04.487448,-42
17:02:04.487448,-10760
17:02:04.487448,30975
17:02:04.487448,-42
17:02:04.487448,-10698
17:02:04.487448,28671
17:02:04.487448,-42
17:02:04.487448,-10565
17:02:04.487448,-25345
17:02:04.487448,-42
17:02:04.487448,-10448
17:02:04.487448,2815
17:02:04.487448,-41
17:02:04.487448,-10458
17:02:05.026633,-10324
17:02:05.026633,27135
17:02:05.026633,-41
17:02:05.026633,-10265
17:02:05.026633,1279
17:02:05.026633,-40
17:02:05.026633,-10274
17:02:05.026633,26367
17:02:05.026633,-40
17:02:05.026633,-10210
17:02:05.026633,26879
17:02:05.026633,-40
17:02:05.026633,-10055
17:02:05.026633,29439
17:02:05.026633,-40
17:02:05.026633,-9971
17:02:05.026633,-7425
17:02:05.026633,-40
17:02:05.026633,-10074
17:02:05.026633,12799
17:02:05.026633,-39
17:02:05.026633,-9935
17:02:05.026633,-32001
17:02:05.026633,-39
17:02:05.026633,-9864
17:02:05.026633,30463
17:02:05.026633,-39
17:02:05.026633,-9740
17:02:05.026633,-27905
17:02:05.026633,-39
17:02:05.026633,-9773
17:02:05.026633,4607
17:02:05.026633,-38
17:02:05.026633,-9821
17:02:05.026633,2815
17:02:05.026633,-38
17:02:05.026633,-9764
17:02:05.026633,-4609
17:02:05.026633,-39
17:02:05.026633,-9566
17:02:05.026633,-30977
17:02:05.026633,-38
17:02:05.026633,-9547
17:02:05.026633,27135
17:02:05.026633,-38
17:02:05.026633,-9697
17:02:05.026633,-18177
17:02:05.026633,-38
17:02:05.026633,-9614
17:02:05.026633,-25601
17:02:05.026633,-38
17:02:05.026633,-9504
17:02:05.026633,-29185
17:02:05.026633,-38
17:02:05.026633,-9475
17:02:05.026633,-8449
17:02:05.026633,-38
17:02:05.026633,-9506
17:02:05.026633,20223
17:02:05.026633,-37
17:02:05.026633,-9482
17:02:05.026633,21503
17:02:05.026633,-37
17:02:05.026633,-9342
17:02:05.026633,29439
17:02:05.026633,-37
17:02:05.026633,-9218
17:02:05.026633,-13569
17:02:05.026633,-37
17:02:05.026633,-9211
17:02:05.026633,20479
17:02:05.026633,-36
17:02:05.026633,-9218
17:02:05.026633,32767
17:02:05.026633,-36
17:02:05.026633,-9106
17:02:05.026633,26623
17:02:05.026633,-36
17:02:05.026633,-9010
17:02:05.026633,32255
17:02:05.026633,-36
17:02:05.026633,-8991
17:02:05.026633,2047
17:02:05.026633,-35
17:02:05.026633,-8994
17:02:05.026633,27135
17:02:05.026633,-35
17:02:05.026633,-8924
17:02:05.026633,20223
17:02:05.026633,-35
17:02:05.026633,-8796
17:02:05.026633,24063
17:02:05.026633,-35
17:02:05.026633,-8743
17:02:05.026633,-14081
17:02:05.026633,-35
17:02:05.026633,-8777
17:02:05.026633,9215
17:02:05.026633,-34
17:02:05.026633,-8748
17:02:05.026633,12799
17:02:05.026633,-34
17:02:05.026633,-8612
17:02:05.026633,12287
17:02:05.026633,-34
17:02:05.026633,-8529
17:02:05.026633,-32001
17:02:05.026633,-34
17:02:05.026633,-8519
17:02:05.567192,-8440
17:02:05.567192,-13057
17:02:05.567192,-34
17:02:05.567192,-8352
17:02:05.567192,20991
17:02:05.567192,-33
17:02:05.567192,-8371
17:02:05.567192,-10753
17:02:05.567192,-33
17:02:05.567192,-8309
17:02:05.567192,-10241
17:02:05.567192,-33
17:02:05.567192,-8223
17:02:05.567192,-29697
17:02:05.567192,-33
17:02:05.567192,-8157
17:02:05.567192,14847
17:02:05.567192,-32
17:02:05.567192,-8076
17:02:05.567192,-17665
17:02:05.567192,-32
17:02:05.567192,-8076
17:02:05.567192,-4865
17:02:05.567192,-32
17:02:05.567192,-7978
17:02:05.567192,-15873
17:02:05.567192,-32
17:02:05.567192,-7885
17:02:05.567192,-6913
17:02:05.567192,-32
17:02:05.567192,-7892
17:02:05.567192,18175
17:02:05.567192,-31
17:02:05.567192,-7923
17:02:05.567192,-31489
17:02:05.567192,-31
17:02:05.567192,-7861
17:02:05.567192,28671
17:02:05.567192,-31
17:02:05.567192,-7749
17:02:05.567192,24319
17:02:05.567192,-31
17:02:05.567192,-7725
17:02:05.567192,-15617
17:02:05.567192,-31
17:02:05.567192,-7799
17:02:05.567192,-3841
17:02:05.567192,-31
17:02:05.567192,-7713
17:02:05.567192,28927
17:02:05.567192,-30
17:02:05.567192,-7513
17:02:05.567192,13055
17:02:05.567192,-30
17:02:05.567192,-7582
17:02:05.567192,9983
17:02:05.567192,-30
17:02:05.567192,-7601
17:02:05.567192,-26881
17:02:05.567192,-30
17:02:05.567192,-7613
17:02:05.567192,-19457
17:02:05.567192,-30
17:02:05.567192,-7518
17:02:05.567192,30719
17:02:05.567192,-30
17:02:05.567192,-7472
17:02:05.567192,29695
17:02:05.567192,-30
17:02:05.567192,-7501
17:02:05.567192,-12033
17:02:05.567192,-30
17:02:05.567192,-7544
17:02:05.567192,2559
17:02:05.567192,-29
17:02:05.567192,-7479
17:02:05.567192,-11521
17:02:05.567192,-30
17:02:05.567192,-7384
17:02:05.567192,-13313
17:02:05.567192,-30
17:02:05.567192,-7375
17:02:05.567192,12287
17:02:05.567192,-29
17:02:05.567192,-7406
17:02:05.567192,-31233
17:02:05.567192,-29
17:02:05.567192,-7370
17:02:05.567192,29951
17:02:05.567192,-29
17:02:05.567192,-7279
17:02:05.567192,18431
17:02:05.567192,-29
17:02:05.567192,-7227
17:02:05.567192,-32001
17:02:05.567192,-29
17:02:05.567192,-7303
17:02:05.567192,-16641
17:02:05.567192,-29
17:02:05.567192,-7346
17:02:05.567192,-24577
17:02:05.567192,-29
17:02:05.567192,-7282
17:02:05.567192,20223
17:02:05.567192,-29
17:02:05.567192,-7236
17:02:05.567192,29951
17:02:05.567192,-29
17:02:05.567192,-7301
17:02:06.106445,-7241
17:02:06.106445,-29441
17:02:06.106445,-29
17:02:06.106445,-7212
17:02:06.106445,-4353
17:02:06.106445,-29
17:02:06.106445,-7165
17:02:06.106445,11519
17:02:06.106445,-28
17:02:06.106445,-7155
17:02:06.106445,18175
17:02:06.106445,-28
17:02:06.106445,-7088
17:02:06.106445,-21761
17:02:06.106445,-28
17:02:06.106445,-6900
17:02:06.106445,-26113
17:02:06.106445,-28
17:02:06.106445,-6891
17:02:06.106445,26623
17:02:06.106445,-27
17:02:06.106445,-6893
17:02:06.106445,-22017
17:02:06.106445,-27
17:02:06.106445,-6764
17:02:06.106445,-23041
17:02:06.106445,-27
17:02:06.106445,-6609
17:02:06.106445,3071
17:02:06.106445,-26
17:02:06.106445,-6490
17:02:06.106445,-6913
17:02:06.106445,-26
17:02:06.106445,-6454
17:02:06.106445,13823
17:02:06.106445,-25
17:02:06.106445,-6421
17:02:06.106445,15103
17:02:06.106445,-25
17:02:06.106445,-6283
17:02:06.106445,3583
17:02:06.106445,-25
17:02:06.106445,-6278
17:02:06.106445,24831
17:02:06.106445,-25
17:02:06.106445,-6302
17:02:06.106445,-16385
17:02:06.106445,-25
17:02:06.106445,-6302
17:02:06.106445,-17409
17:02:06.106445,-25
17:02:06.106445,-6209
17:02:06.106445,31487
17:02:06.106445,-25
17:02:06.106445,-6190
17:02:06.106445,29695
17:02:06.106445,-25
17:02:06.106445,-6263
17:02:06.106445,-21249
17:02:06.106445,-25
17:02:06.106445,-6328
17:02:06.106445,-27393
17:02:06.106445,-25
17:02:06.106445,-6304
17:02:06.106445,20479
17:02:06.106445,-25
17:02:06.106445,-6249
17:02:06.106445,12543
17:02:06.106445,-25
17:02:06.106445,-6287
17:02:06.106445,28415
17:02:06.106445,-25
17:02:06.106445,-6354
17:02:06.106445,-28417
17:02:06.106445,-25
17:02:06.106445,-6309
17:02:06.106445,-16385
17:02:06.106445,-25
17:02:06.106445,-6092
17:02:06.106445,-15617
17:02:06.106445,-25
17:02:06.106445,-6194
17:02:06.106445,-28417
17:02:06.106445,-25
17:02:06.106445,-6259
17:02:06.106445,-7681
17:02:06.106445,-25
17:02:06.106445,-6273
17:02:06.106445,-15105
17:02:06.106445,-25
17:02:06.106445,-6182
17:02:06.106445,-21249
17:02:06.106445,-25
17:02:06.106445,-6139
17:02:06.106445,-18177
17:02:06.106445,-25
17:02:06.106445,-6182
17:02:06.106445,5119
17:02:06.106445,-24
17:02:06.106445,-6199
17:02:06.106445,15359
17:02:06.106445,-24
17:02:06.106445,-6089
17:02:06.106445,14847
17:02:06.106445,-24
17:02:06.106445,-5989
17:02:06.106445,22783
17:02:06.106445,-24
17:02:06.106445,-5963
17:02:06.692372,-5927
17:02:06.692372,-17665
17:02:06.692372,-24
17:02:06.692372,-5834
17:02:06.692372,-1793
17:02:06.692372,-24
17:02:06.692372,-5875
17:02:06.692372,30463
17:02:06.692372,-23
17:02:06.692372,-5767
17:02:06.692372,255
17:02:06.692372,-22
17:02:06.692372,-5636
17:02:06.692372,7167
17:02:06.692372,-22
17:02:06.692372,-5467
17:02:06.692372,29183
17:02:06.692372,-22
17:02:06.692372,-5424
17:02:06.692372,-3585
17:02:06.692372,-22
17:02:06.692372,-5457
17:02:06.692372,767
17:02:06.692372,-21
17:02:06.692372,-5455
17:02:06.692372,-16897
17:02:06.692372,-22
17:02:06.692372,-5393
17:02:06.692372,-30465
17:02:06.692372,-22
17:02:06.692372,-5407
17:02:06.692372,-12033
17:02:06.692372,-22
17:02:06.692372,-5443
17:02:06.692372,12287
17:02:06.692372,-21
17:02:06.692372,-5391
17:02:06.692372,15359
17:02:06.692372,-21
17:02:06.692372,-5267
17:02:06.692372,20223
17:02:06.692372,-21
17:02:06.692372,-5174
17:02:06.692372,-26369
17:02:06.692372,-21
17:02:06.692372,-5198
17:02:06.692372,511
17:02:06.692372,-20
17:02:06.692372,-5200
17:02:06.692372,3583
17:02:06.692372,-20
17:02:06.692372,-5112
17:02:06.692372,1023
17:02:06.692372,-20
17:02:06.692372,-5009
17:02:06.692372,9727
17:02:06.692372,-20
17:02:06.692372,-5012
17:02:06.692372,-31489
17:02:06.692372,-20
17:02:06.692372,-5066
17:02:06.692372,-21761
17:02:06.692372,-20
17:02:06.692372,-4997
17:02:06.692372,-27137
17:02:06.692372,-20
17:02:06.692372,-4892
17:02:06.692372,-30209
17:02:06.692372,-20
17:02:06.692372,-4871
17:02:06.692372,5887
17:02:06.692372,-19
17:02:06.692372,-4849
17:02:06.692372,-32257
17:02:06.692372,-19
17:02:06.692372,-4804
17:02:06.692372,-26881
17:02:06.692372,-19
17:02:06.692372,-4642
17:02:06.692372,-23041
17:02:06.692372,-19
17:02:06.692372,-4580
17:02:06.692372,-513
17:02:06.692372,-19
17:02:06.692372,-4561
17:02:06.692372,-25857
17:02:06.692372,-18
17:02:06.692372,-4535
17:02:06.692372,-13569
17:02:06.692372,-18
17:02:06.692372,-4356
17:02:06.692372,-769
17:02:06.692372,-18
17:02:06.692372,-4220
17:02:06.692372,23039
17:02:06.692372,-17
17:02:06.692372,-4165
17:02:06.692372,255
17:02:06.692372,-16
17:02:06.692372,-4165
17:02:06.692372,14335
17:02:06.692372,-16
17:02:06.692372,-4082
17:02:06.692372,4607
17:02:06.692372,-16
17:02:06.692372,-3996
17:02:06.692372,3327
17:02:06.692372,-16
17:02:06.692372,-3943
17:02:07.277494,-3865
17:02:07.277494,-7937
17:02:07.277494,-16
17:02:07.277494,-3786
17:02:07.277494,-15873
17:02:07.277494,-16
17:02:07.277494,-3838
17:02:07.277494,22015
17:02:07.277494,-15
17:02:07.277494,-3817
17:02:07.277494,-26369
17:02:07.277494,-15
17:02:07.277494,-3734
17:02:07.277494,-27649
17:02:07.277494,-15
17:02:07.277494,-3559
17:02:07.277494,-23297
17:02:07.277494,-15
17:02:07.277494,-3583
17:02:07.277494,5375
17:02:07.277494,-14
17:02:07.277494,-3619
17:02:07.277494,22527
17:02:07.277494,-14
17:02:07.277494,-3590
17:02:07.277494,8447
17:02:07.277494,-14
17:02:07.277494,-3505
17:02:07.277494,-4353
17:02:07.277494,-15
17:02:07.277494,-3481
17:02:07.277494,8959
17:02:07.277494,-14
17:02:07.277494,-3574
17:02:07.277494,30975
17:02:07.277494,-14
17:02:07.277494,-3586
17:02:07.277494,16895
17:02:07.277494,-14
17:02:07.277494,-3528
17:02:07.277494,-3329
17:02:07.277494,-15
17:02:07.277494,-3462
17:02:07.277494,9471
17:02:07.277494,-14
17:02:07.277494,-3502
17:02:07.277494,-27137
17:02:07.277494,-14
17:02:07.277494,-3548
17:02:07.277494,-29185
17:02:07.277494,-14
17:02:07.277494,-3495
17:02:07.277494,19967
17:02:07.277494,-14
17:02:07.277494,-3397
17:02:07.277494,19967
17:02:07.277494,-14
17:02:07.277494,-3409
17:02:07.277494,-17409
17:02:07.277494,-14
17:02:07.277494,-3466
17:02:07.277494,2047
17:02:07.277494,-13
17:02:07.277494,-3397
17:02:07.277494,-5889
17:02:07.277494,-14
17:02:07.277494,-3278
17:02:07.277494,-11265
17:02:07.277494,-14
17:02:07.277494,-3247
17:02:07.277494,8191
17:02:07.277494,-13
17:02:07.277494,-3311
17:02:07.277494,-28161
17:02:07.277494,-13
17:02:07.277494,-3288
17:02:07.277494,-31233
17:02:07.277494,-13
17:02:07.277494,-3185
17:02:07.277494,16127
17:02:07.277494,-13
17:02:07.277494,-3123
17:02:07.277494,31999
17:02:07.277494,-13
17:02:07.277494,-3168
17:02:07.277494,-11521
17:02:07.277494,-13
17:02:07.277494,-3259
17:02:07.277494,-19457
17:02:07.277494,-13
17:02:07.277494,-3221
17:02:07.277494,14847
17:02:07.277494,-13
17:02:07.277494,-3173
17:02:07.277494,-2305
17:02:07.277494,-14
17:02:07.277494,-3273
17:02:07.277494,17919
17:02:07.277494,-13
17:02:07.277494,-3352
17:02:07.277494,27647
17:02:07.277494,-13
17:02:07.277494,-3340
17:02:07.277494,-513
17:02:07.277494,-14
17:02:07.277494,-3261
17:02:07.277494,-18689
17:02:07.277494,-14
17:02:07.277494,-3271
17:02:07.817769,-3323
17:02:07.817769,-12545
17:02:07.817769,-14
17:02:07.817769,-3240
17:02:07.817769,-10753
17:02:07.817769,-14
17:02:07.817769,-3285
17:02:07.817769,16127
17:02:07.817769,-13
17:02:07.817769,-3385
17:02:07.817769,19711
17:02:07.817769,-13
17:02:07.817769,-3388
17:02:07.817769,-15105
17:02:07.817769,-14
17:02:07.817769,-3319
17:02:07.817769,20479
17:02:07.817769,-14
17:02:07.817769,-3364
17:02:07.817769,-15105
17:02:07.817769,-14
17:02:07.817769,-3464
17:02:07.817769,-1537
17:02:07.817769,-14
17:02:07.817769,-3493
17:02:07.817769,-26625
17:02:07.817769,-14
17:02:07.817769,-3397
17:02:07.817769,15103
17:02:07.817769,-14
17:02:07.817769,-3395
17:02:07.817769,14591
17:02:07.817769,-14
17:02:07.817769,-3557
17:02:07.817769,30463
17:02:07.817769,-14
17:02:07.817769,-3583
17:02:07.817769,-13825
17:02:07.817769,-14
17:02:07.817769,-3421
17:02:07.817769,-4353
17:02:07.817769,-15
17:02:07.817769,-3521
17:02:07.817769,-19713
17:02:07.817769,-15
17:02:07.817769,-3586
17:02:07.817769,10239
17:02:07.817769,-14
17:02:07.817769,-3681
17:02:07.817769,16895
17:02:07.817769,-14
17:02:07.817769,-3614
17:02:07.817769,-10497
17:02:07.817769,-15
17:02:07.817769,-3517
17:02:07.817769,-25089
17:02:07.817769,-15
17:02:07.817769,-3571
17:02:07.817769,-3329
17:02:07.817769,-15
17:02:07.817769,-3683
17:02:07.817769,12031
17:02:07.817769,-14
17:02:07.817769,-3695
17:02:07.817769,-16641
17:02:07.817769,-15
17:02:07.817769,-3614
17:02:07.817769,18943
17:02:07.817769,-15
17:02:07.817769,-3605
17:02:07.817769,-26369
17:02:07.817769,-15
17:02:07.817769,-3722
17:02:07.817769,-8193
17:02:07.817769,-15
17:02:07.817769,-3776
17:02:07.817769,-17921
17:02:07.817769,-15
17:02:07.817769,-3662
17:02:07.817769,24575
17:02:07.817769,-15
17:02:07.817769,-3586
17:02:07.817769,32511
17:02:07.817769,-15
17:02:07.817769,-3662
17:02:07.817769,-3841
17:02:07.817769,-15
17:02:07.817769,-3734
17:02:07.817769,1023
17:02:07.817769,-14
17:02:07.817769,-3667
17:02:07.817769,-29441
17:02:07.817769,-15
17:02:07.817769,-3583
17:02:07.817769,28159
17:02:07.817769,-15
17:02:07.817769,-3619
17:02:07.817769,-9217
17:02:07.817769,-15
17:02:07.817769,-3729
17:02:07.817769,-257
17:02:07.817769,-15
17:02:07.817769,-3691
17:02:07.817769,-26369
17:02:07.817769,-15
17:02:07.817769,-3626
17:02:07.817769,31743
17:02:07.817769,-15
17:02:07.817769,-3617
17:02:08.446280,-3664
17:02:08.446280,-21505
17:02:08.446280,-15
17:02:08.446280,-3579
17:02:08.446280,-20225
17:02:08.446280,-15
17:02:08.446280,-3562
17:02:08.446280,4607
17:02:08.446280,-14
17:02:08.446280,-3610
17:02:08.446280,23551
17:02:08.446280,-14
17:02:08.446280,-3610
17:02:08.446280,3583
17:02:08.446280,-14
17:02:08.446280,-3490
17:02:08.446280,2303
17:02:08.446280,-14
17:02:08.446280,-3476
17:02:08.446280,16383
17:02:08.446280,-14
17:02:08.446280,-3545
17:02:08.446280,28415
17:02:08.446280,-14
17:02:08.446280,-3576
17:02:08.446280,16383
17:02:08.446280,-14
17:02:08.446280,-3555
17:02:08.446280,-9985
17:02:08.446280,-15
17:02:08.446280,-3543
17:02:08.446280,-19201
17:02:08.446280,-15
17:02:08.446280,-3638
17:02:08.446280,-5633
17:02:08.446280,-15
17:02:08.446280,-3717
17:02:08.446280,-13057
17:02:08.446280,-15
17:02:08.446280,-3691
17:02:08.446280,-32001
17:02:08.446280,-15
17:02:08.446280,-3641
17:02:08.446280,29439
17:02:08.446280,-15
17:02:08.446280,-3643
17:02:08.446280,-17921
17:02:08.446280,-15
17:02:08.446280,-3698
17:02:08.446280,511
17:02:08.446280,-14
17:02:08.446280,-3667
17:02:08.446280,-8705
17:02:08.446280,-15
17:02:08.446280,-3567
17:02:08.446280,-19713
17:02:08.446280,-15
17:02:08.446280,-3579
17:02:08.446280,-13057
17:02:08.446280,-15
17:02:08.446280,-3626
17:02:08.446280,28415
17:02:08.446280,-14
17:02:08.446280,-3490
17:02:08.446280,-24833
17:02:08.446280,-14
17:02:08.446280,-3514
17:02:08.446280,-6401
17:02:08.446280,-15
17:02:08.446280,-3505
17:02:08.446280,-1281
17:02:08.446280,-15
17:02:08.446280,-3552
17:02:08.446280,22527
17:02:08.446280,-14
17:02:08.446280,-3574
17:02:08.446280,30463
17:02:08.446280,-14
17:02:08.446280,-3517
17:02:08.446280,13311
17:02:08.446280,-14
17:02:08.446280,-3440
17:02:08.446280,11519
17:02:08.446280,-14
17:02:08.446280,-3459
17:02:08.446280,-29697
17:02:08.446280,-14
17:02:08.446280,-3490
17:02:08.446280,-9473
17:02:08.446280,-14
17:02:08.446280,-3450
17:02:08.446280,-20481
17:02:08.446280,-14
17:02:08.446280,-3347
17:02:08.446280,-29185
17:02:08.446280,-14
17:02:08.446280,-3338
17:02:08.446280,-16385
17:02:08.446280,-14
17:02:08.446280,-3424
17:02:08.446280,-513
17:02:08.446280,-14
17:02:08.446280,-3440
17:02:08.446280,-8961
17:02:08.446280,-14
17:02:08.446280,-3359
17:02:08.446280,-24321
17:02:08.446280,-14
17:02:08.446280,-3295
17:02:08.986178,-3383
17:02:08.986178,-5377
17:02:08.986178,-14
17:02:08.986178,-3280
17:02:08.986178,-15105
17:02:08.986178,-14
17:02:08.986178,-3276
17:02:08.986178,1535
17:02:08.986178,-13
17:02:08.986178,-3357
17:02:08.986178,20991
17:02:08.986178,-13
17:02:08.986178,-3371
17:02:08.986178,8191
17:02:08.986178,-13
17:02:08.986178,-3273
17:02:08.986178,-7169
17:02:08.986178,-14
17:02:08.986178,-3221
17:02:08.986178,8703
17:02:08.986178,-13
17:02:08.986178,-3269
17:02:08.986178,-27393
17:02:08.986178,-13
17:02:08.986178,-3292
17:02:08.986178,29439
17:02:08.986178,-13
17:02:08.986178,-3235
17:02:08.986178,25343
17:02:08.986178,-13
17:02:08.986178,-3126
17:02:08.986178,25343
17:02:08.986178,-13
17:02:08.986178,-3149
17:02:08.986178,-14593
17:02:08.986178,-13
17:02:08.986178,-3202
17:02:08.986178,-513
17:02:08.986178,-13
17:02:08.986178,-3164
17:02:08.986178,-18433
17:02:08.986178,-13
17:02:08.986178,-3073
17:02:08.986178,-30465
17:02:08.986178,-13
17:02:08.986178,-3080
17:02:08.986178,-9217
17:02:08.986178,-13
17:02:08.986178,-3130
17:02:08.986178,18175
17:02:08.986178,-12
17:02:08.986178,-3109
17:02:08.986178,12799
17:02:08.986178,-12
17:02:08.986178,-2987
17:02:08.986178,-513
17:02:08.986178,-13
17:02:08.986178,-2928
17:02:08.986178,20223
17:02:08.986178,-12
17:02:08.986178,-2985
17:02:08.986178,-20481
17:02:08.986178,-12
17:02:08.986178,-2997
17:02:08.986178,-17921
17:02:08.986178,-12
17:02:08.986178,-2913
17:02:08.986178,-31489
17:02:08.986178,-12
17:02:08.986178,-2813
17:02:08.986178,-31489
17:02:08.986178,-12
17:02:08.986178,-2889
17:02:08.986178,-11265
17:02:08.986178,-12
17:02:08.986178,-2956
17:02:08.986178,-6913
17:02:08.986178,-12
17:02:08.986178,-2930
17:02:08.986178,-27649
17:02:08.986178,-12
17:02:08.986178,-2849
17:02:08.986178,25599
17:02:08.986178,-12
17:02:08.986178,-2873
17:02:08.986178,-20481
17:02:08.986178,-12
17:02:08.986178,-2956
17:02:08.986178,-5633
17:02:08.986178,-12
17:02:08.986178,-2932
17:02:08.986178,-14849
17:02:08.986178,-12
17:02:08.986178,-2827
17:02:08.986178,-14337
17:02:08.986178,-12
17:02:08.986178,-2708
17:02:08.986178,2815
17:02:08.986178,-11
17:02:08.986178,-2894
17:02:08.986178,-11265
17:02:08.986178,-12
17:02:08.986178,-2980
17:02:08.986178,-17409
17:02:08.986178,-12
17:02:08.986178,-2906
17:02:08.986178,27391
17:02:08.986178,-12
17:02:08.986178,-2861
17:02:09.481492,-2956
17:02:09.481492,-16641
17:02:09.481492,-12
17:02:09.481492,-2825
17:02:09.481492,-21505
17:02:09.481492,-12
17:02:09.481492,-2773
17:02:09.481492,-11265
17:02:09.481492,-12
17:02:09.481492,-2885
17:02:09.481492,1535
17:02:09.481492,-11
17:02:09.481492,-2942
17:02:09.481492,-6401
17:02:09.481492,-12
17:02:09.481492,-2856
17:02:09.481492,-28929
17:02:09.481492,-12
17:02:09.481492,-2818
17:02:09.481492,-27649
17:02:09.481492,-12
17:02:09.481492,-2909
17:02:09.481492,-16129
17:02:09.481492,-12
17:02:09.481492,-2949
17:02:09.481492,-257
17:02:09.481492,-12
17:02:09.481492,-2904
17:02:09.481492,-27649
17:02:09.481492,-12
17:02:09.481492,-2830
17:02:09.481492,31231
17:02:09.481492,-12
17:02:09.481492,-2873
17:02:09.481492,-20481
17:02:09.481492,-12
17:02:09.481492,-2975
17:02:09.481492,-12545
17:02:09.481492,-12
17:02:09.481492,-2978
17:02:09.481492,32255
17:02:09.481492,-12
17:02:09.481492,-2901
17:02:09.481492,14079
17:02:09.481492,-12
17:02:09.481492,-2916
17:02:09.481492,22527
17:02:09.481492,-12
17:02:09.481492,-3016
17:02:09.481492,-27137
17:02:09.481492,-12
17:02:09.481492,-3033
17:02:09.481492,-32513
17:02:09.481492,-12
17:02:09.481492,-2937
17:02:09.481492,16383
17:02:09.481492,-12
17:02:09.481492,-2916
17:02:09.481492,13311
17:02:09.481492,-12
17:02:09.481492,-2980
17:02:09.481492,-30721
17:02:09.481492,-12
17:02:09.481492,-3054
17:02:09.481492,32255
17:02:09.481492,-12
17:02:09.481492,-3006
17:02:09.481492,9727
17:02:09.481492,-12
17:02:09.481492,-2947
17:02:09.481492,2303
17:02:09.481492,-12
17:02:09.481492,-2980
17:02:09.481492,25599
17:02:09.481492,-12
17:02:09.481492,-3042
17:02:09.481492,-27649
17:02:09.481492,-12
17:02:09.481492,-3028
17:02:09.481492,14079
17:02:09.481492,-12
17:02:09.481492,-2971
17:02:09.481492,-513
17:02:09.481492,-13
17:02:09.481492,-2975
17:02:09.481492,10239
17:02:09.481492,-12
17:02:09.481492,-3075
17:02:09.481492,18175
17:02:09.481492,-12
17:02:09.481492,-3123
17:02:09.481492,6655
17:02:09.481492,-12
17:02:09.481492,-3052
17:02:09.481492,-15361
17:02:09.481492,-13
17:02:09.481492,-3018
17:02:09.481492,-11009
17:02:09.481492,-13
17:02:09.481492,-3099
17:02:09.481492,8447
17:02:09.481492,-12
17:02:09.481492,-3140
17:02:09.481492,9215
17:02:09.481492,-12
17:02:09.481492,-3095
17:02:09.481492,-12289
17:02:09.481492,-13
17:02:09.481492,-3023
17:02:10.111258,-3142
17:02:10.111258,511
17:02:10.111258,-12
17:02:10.111258,-3059
17:02:10.111258,-15361
17:02:10.111258,-13
17:02:10.111258,-3021
17:02:10.111258,-14593
17:02:10.111258,-13
17:02:10.111258,-3130
17:02:10.111258,3583
17:02:10.111258,-12
17:02:10.111258,-3164
17:02:10.111258,-4353
17:02:10.111258,-13
17:02:10.111258,-3130
17:02:10.111258,-6145
17:02:10.111258,-13
17:02:10.111258,-2916
17:02:10.111258,10239
17:02:10.111258,-12
17:02:10.111258,-3049
17:02:10.111258,-2561
17:02:10.111258,-13
17:02:10.111258,-3156
17:02:10.111258,6143
17:02:10.111258,-12
17:02:10.111258,-3137
17:02:10.111258,-10497
17:02:10.111258,-13
17:02:10.111258,-3049
17:02:10.111258,-23297
17:02:10.111258,-13
17:02:10.111258,-3066
17:02:10.111258,-9729
17:02:10.111258,-13
17:02:10.111258,-3159
17:02:10.111258,3583
17:02:10.111258,-12
17:02:10.111258,-3168
17:02:10.111258,-7425
17:02:10.111258,-13
17:02:10.111258,-3075
17:02:10.111258,-20737
17:02:10.111258,-13
17:02:10.111258,-3042
17:02:10.111258,-11009
17:02:10.111258,-13
17:02:10.111258,-3104
17:02:10.111258,8447
17:02:10.111258,-12
17:02:10.111258,-3147
17:02:10.111258,6143
17:02:10.111258,-12
17:02:10.111258,-3080
17:02:10.111258,-11009
17:02:10.111258,-13
17:02:10.111258,-3011
17:02:10.111258,-8449
17:02:10.111258,-13
17:02:10.111258,-3035
17:02:10.111258,15871
17:02:10.111258,-12
17:02:10.111258,-3080
17:02:10.111258,31231
17:02:10.111258,-12
17:02:10.111258,-3028
17:02:10.111258,12799
17:02:10.111258,-12
17:02:10.111258,-2959
17:02:10.111258,1279
17:02:10.111258,-12
17:02:10.111258,-2956
17:02:10.111258,23295
17:02:10.111258,-12
17:02:10.111258,-3023
17:02:10.111258,-24065
17:02:10.111258,-12
17:02:10.111258,-3021
17:02:10.111258,31743
17:02:10.111258,-12
17:02:10.111258,-2899
17:02:10.111258,23295
17:02:10.111258,-12
17:02:10.111258,-2861
17:02:10.111258,-29441
17:02:10.111258,-12
17:02:10.111258,-2928
17:02:10.111258,-5633
17:02:10.111258,-12
17:02:10.111258,-2937
17:02:10.111258,-6401
17:02:10.111258,-12
17:02:10.111258,-2868
17:02:10.111258,-23553
17:02:10.111258,-12
17:02:10.111258,-2792
17:02:10.111258,-20993
17:02:10.111258,-12
17:02:10.111258,-2837
17:02:10.111258,3327
17:02:10.111258,-11
17:02:10.111258,-2899
17:02:10.111258,10239
17:02:10.111258,-11
17:02:10.111258,-2847
17:02:10.111258,-6913
17:02:10.111258,-12
17:02:10.111258,-2756
17:02:10.651434,-2863
17:02:10.651434,11263
17:02:10.651434,-11
17:02:10.651434,-2794
17:02:10.651434,-8193
17:02:10.651434,-12
17:02:10.651434,-2727
17:02:10.651434,-2049
17:02:10.651434,-12
17:02:10.651434,-2775
17:02:10.651434,21247
17:02:10.651434,-11
17:02:10.651434,-2820
17:02:10.651434,27903
17:02:10.651434,-11
17:02:10.651434,-2773
17:02:10.651434,13823
17:02:10.651434,-11
17:02:10.651434,-2665
17:02:10.651434,12543
17:02:10.651434,-11
17:02:10.651434,-2687
17:02:10.651434,26111
17:02:10.651434,-11
17:02:10.651434,-2765
17:02:10.651434,-16385
17:02:10.651434,-11
17:02:10.651434,-2701
17:02:10.651434,-25601
17:02:10.651434,-11
17:02:10.651434,-2610
17:02:10.651434,-31489
17:02:10.651434,-11
17:02:10.651434,-2579
17:02:10.651434,-15617
17:02:10.651434,-11
17:02:10.651434,-2620
17:02:10.651434,8191
17:02:10.651434,-10
17:02:10.651434,-2625
17:02:10.651434,767
17:02:10.651434,-10
17:02:10.651434,-2541
17:02:10.651434,-8961
17:02:10.651434,-11
17:02:10.651434,-2534
17:02:10.651434,2559
17:02:10.651434,-10
17:02:10.651434,-2432
17:02:10.651434,-14593
17:02:10.651434,-10
17:02:10.651434,-2470
17:02:10.651434,22783
17:02:10.651434,-10
17:02:10.651434,-2539
17:02:10.651434,6911
17:02:10.651434,-10
17:02:10.651434,-2484
17:02:10.651434,2559
17:02:10.651434,-10
17:02:10.651434,-2489
17:02:10.651434,15359
17:02:10.651434,-10
17:02:10.651434,-2527
17:02:10.651434,24575
17:02:10.651434,-10
17:02:10.651434,-2539
17:02:10.651434,13567
17:02:10.651434,-10
17:02:10.651434,-2482
17:02:10.651434,9215
17:02:10.651434,-10
17:02:10.651434,-2448
17:02:10.651434,19711
17:02:10.651434,-10
17:02:10.651434,-2472
17:02:10.651434,-26881
17:02:10.651434,-10
17:02:10.651434,-2467
17:02:10.651434,-26369
17:02:10.651434,-10
17:02:10.651434,-2415
17:02:10.651434,31231
17:02:10.651434,-10
17:02:10.651434,-2374
17:02:10.651434,-31745
17:02:10.651434,-10
17:02:10.651434,-2389
17:02:10.651434,-14593
17:02:10.651434,-10
17:02:10.651434,-2410
17:02:10.651434,-7937
17:02:10.651434,-10
17:02:10.651434,-2360
17:02:10.651434,-10497
17:02:10.651434,-10
17:02:10.651434,-2296
17:02:10.651434,-14593
17:02:10.651434,-10
17:02:10.651434,-2300
17:02:10.651434,-769
17:02:10.651434,-10
17:02:10.651434,-2341
17:02:10.651434,7935
17:02:10.651434,-9
17:02:10.651434,-2334
17:02:10.651434,-1281
17:02:10.651434,-10
17:02:10.651434,-2293
17:02:11.191382,-2351
17:02:11.191382,6655
17:02:11.191382,-9
17:02:11.191382,-2317
17:02:11.191382,-4353
17:02:11.191382,-10
17:02:11.191382,-2260
17:02:11.191382,-769
17:02:11.191382,-10
17:02:11.191382,-2258
17:02:11.191382,10239
17:02:11.191382,-9
17:02:11.191382,-2293
17:02:11.191382,21247
17:02:11.191382,-9
17:02:11.191382,-2260
17:02:11.191382,19967
17:02:11.191382,-9
17:02:11.191382,-2224
17:02:11.191382,3583
17:02:11.191382,-9
17:02:11.191382,-2198
17:02:11.191382,21247
17:02:11.191382,-9
17:02:11.191382,-2231
17:02:11.191382,-32001
17:02:11.191382,-9
17:02:11.191382,-2231
17:02:11.191382,30975
17:02:11.191382,-9
17:02:11.191382,-2191
17:02:11.191382,21247
17:02:11.191382,-9
17:02:11.191382,-2162
17:02:11.191382,19967
17:02:11.191382,-9
17:02:11.191382,-2210
17:02:11.191382,31743
17:02:11.191382,-9
17:02:11.191382,-2234
17:02:11.191382,32255
17:02:11.191382,-9
17:02:11.191382,-2210
17:02:11.191382,24319
17:02:11.191382,-9
17:02:11.191382,-2160
17:02:11.191382,19967
17:02:11.191382,-9
17:02:11.191382,-2176
17:02:11.191382,-31489
17:02:11.191382,-9
17:02:11.191382,-2203
17:02:11.191382,-24577
17:02:11.191382,-9
17:02:11.191382,-2198
17:02:11.191382,-29697
17:02:11.191382,-9
17:02:11.191382,-2136
17:02:11.191382,27391
17:02:11.191382,-9
17:02:11.191382,-2136
17:02:11.191382,-30209
17:02:11.191382,-9
17:02:11.191382,-2174
17:02:11.191382,-18689
17:02:11.191382,-9
17:02:11.191382,-2193
17:02:11.191382,-26625
17:02:11.191382,-9
17:02:11.191382,-2150
17:02:11.191382,30463
17:02:11.191382,-9
17:02:11.191382,-2126
17:02:11.191382,32255
17:02:11.191382,-9
17:02:11.191382,-2160
17:02:11.191382,-22785
17:02:11.191382,-9
17:02:11.191382,-2212
17:02:11.191382,-32001
17:02:11.191382,-9
17:02:11.191382,-2196
17:02:11.191382,-24577
17:02:11.191382,-9
17:02:11.191382,-2022
17:02:11.191382,-13057
17:02:11.191382,-9
17:02:11.191382,-2153
17:02:11.191382,27391
17:02:11.191382,-9
17:02:11.191382,-2227
17:02:11.191382,-30209
17:02:11.191382,-9
17:02:11.191382,-2219
17:02:11.191382,26111
17:02:11.191382,-9
17:02:11.191382,-2174
17:02:11.191382,19967
17:02:11.191382,-9
17:02:11.191382,-2176
17:02:11.191382,28671
17:02:11.191382,-9
17:02:11.191382,-2210
17:02:11.191382,32255
17:02:11.191382,-9
17:02:11.191382,-2200
17:02:11.191382,-29697
17:02:11.191382,-9
17:02:11.191382,-2179
17:02:11.731253,-2181
17:02:11.731253,-17921
17:02:11.731253,-9
17:02:11.731253,-2167
17:02:11.731253,-20481
17:02:11.731253,-9
17:02:11.731253,-2100
17:02:11.731253,-25857
17:02:11.731253,-9
17:02:11.731253,-2088
17:02:11.731253,-18689
17:02:11.731253,-9
17:02:11.731253,-2134
17:02:11.731253,-11777
17:02:11.731253,-9
17:02:11.731253,-2193
17:02:11.731253,-24065
17:02:11.731253,-9
17:02:11.731253,-2117
17:02:11.731253,31743
17:02:11.731253,-9
17:02:11.731253,-2134
17:02:11.731253,-30209
17:02:11.731253,-9
17:02:11.731253,-2153
17:02:11.731253,-17409
17:02:11.731253,-9
17:02:11.731253,-2172
17:02:11.731253,-19713
17:02:11.731253,-9
17:02:11.731253,-2153
17:02:11.731253,-32513
17:02:11.731253,-9
17:02:11.731253,-2134
17:02:11.731253,29951
17:02:11.731253,-9
17:02:11.731253,-2155
17:02:11.731253,-26625
17:02:11.731253,-9
17:02:11.731253,-2198
17:02:11.731253,-26625
17:02:11.731253,-9
17:02:11.731253,-2181
17:02:11.731253,-30209
17:02:11.731253,-9
17:02:11.731253,-2145
17:02:11.731253,30975
17:02:11.731253,-9
17:02:11.731253,-2129
17:02:11.731253,-25857
17:02:11.731253,-9
17:02:11.731253,-2153
17:02:11.731253,-11777
17:02:11.731253,-9
17:02:11.731253,-2153
17:02:11.731253,-15617
17:02:11.731253,-9
17:02:11.731253,-2098
17:02:11.731253,-23553
17:02:11.731253,-9
17:02:11.731253,-2079
17:02:11.731253,-19201
17:02:11.731253,-9
17:02:11.731253,-2117
17:02:11.731253,-6913
17:02:11.731253,-9
17:02:11.731253,-2134
17:02:11.731253,-9985
17:02:11.731253,-9
17:02:11.731253,-2112
17:02:11.731253,-22273
17:02:11.731253,-9
17:02:11.731253,-2081
17:02:11.731253,-22273
17:02:11.731253,-9
17:02:11.731253,-2107
17:02:11.731253,-11777
17:02:11.731253,-9
17:02:11.731253,-2141
17:02:11.731253,-6401
17:02:11.731253,-9
17:02:11.731253,-2107
17:02:11.731253,-11777
17:02:11.731253,-9
17:02:11.731253,-2060
17:02:11.731253,-17409
17:02:11.731253,-9
17:02:11.731253,-2060
17:02:11.731253,-4609
17:02:11.731253,-9
17:02:11.731253,-2074
17:02:11.731253,9471
17:02:11.731253,-8
17:02:11.731253,-2069
17:02:11.731253,6911
17:02:11.731253,-8
17:02:11.731253,-1988
17:02:11.731253,5119
17:02:11.731253,-8
17:02:11.731253,-1952
17:02:11.731253,19199
17:02:11.731253,-8
17:02:11.731253,-1962
17:02:11.731253,-28673
17:02:11.731253,-8
17:02:11.731253,-1957
17:02:11.731253,31999
17:02:11.731253,-8
17:02:11.731253,-1943
17:02:12.316255,-1979
17:02:12.316255,-29185
17:02:12.316255,-8
17:02:12.316255,-1871
17:02:12.316255,3071
17:02:12.316255,-7
17:02:12.316255,-1776
17:02:12.316255,-18945
17:02:12.316255,-8
17:02:12.316255,-1886
17:02:12.316255,31487
17:02:12.316255,-8
17:02:12.316255,-1893
17:02:12.316255,-8961
17:02:12.316255,-8
17:02:12.316255,-1814
17:02:12.316255,10495
17:02:12.316255,-7
17:02:12.316255,-1743
17:02:12.316255,22015
17:02:12.316255,-7
17:02:12.316255,-1635
17:02:12.316255,-29441
17:02:12.316255,-7
17:02:12.316255,-1628
17:02:12.316255,-25089
17:02:12.316255,-7
17:02:12.316255,-1659
17:02:12.316255,-21505
17:02:12.316255,-7
17:02:12.316255,-1664
17:02:12.316255,32511
17:02:12.316255,-7
17:02:12.316255,-1657
17:02:12.316255,23807
17:02:12.316255,-7
17:02:12.316255,-1676
17:02:12.316255,26367
17:02:12.316255,-7
17:02:12.316255,-1700
17:02:12.316255,31231
17:02:12.316255,-7
17:02:12.316255,-1692
17:02:12.316255,-30721
17:02:12.316255,-7
17:02:12.316255,-1628
17:02:12.316255,-21505
17:02:12.316255,-7
17:02:12.316255,-1573
17:02:12.316255,-12289
17:02:12.316255,-7
17:02:12.316255,-1564
17:02:12.316255,-3841
17:02:12.316255,-7
17:02:12.316255,-1595
17:02:12.316255,-1281
17:02:12.316255,-7
17:02:12.316255,-1578
17:02:12.316255,-20225
17:02:12.316255,-7
17:02:12.316255,-1566
17:02:12.316255,-26881
17:02:12.316255,-7
17:02:12.316255,-1647
17:02:12.316255,-23809
17:02:12.316255,-7
17:02:12.316255,-1676
17:02:12.316255,-21505
17:02:12.316255,-7
17:02:12.316255,-1652
17:02:12.316255,-29441
17:02:12.316255,-7
17:02:12.316255,-1609
17:02:12.316255,31743
17:02:12.316255,-7
17:02:12.316255,-1611
17:02:12.316255,-18945
17:02:12.316255,-7
17:02:12.316255,-1650
17:02:12.316255,-11777
17:02:12.316255,-7
17:02:12.316255,-1642
17:02:12.316255,-25857
17:02:12.316255,-7
17:02:12.316255,-1602
17:02:12.316255,-31745
17:02:12.316255,-7
17:02:12.316255,-1619
17:02:12.316255,-28161
17:02:12.316255,-7
17:02:12.316255,-1654
17:02:12.316255,-23297
17:02:12.316255,-7
17:02:12.316255,-1702
17:02:12.316255,-29953
17:02:12.316255,-7
17:02:12.316255,-1664
17:02:12.316255,18943
17:02:12.316255,-7
17:02:12.316255,-1659
17:02:12.316255,19711
17:02:12.316255,-7
17:02:12.316255,-1714
17:02:12.316255,24575
17:02:12.316255,-7
17:02:12.316255,-1766
17:02:12.316255,16639
17:02:12.316255,-7
17:02:12.316255,-1771
17:02:12.856263,-1790
17:02:12.856263,12287
17:02:12.856263,-7
17:02:12.856263,-1819
17:02:12.856263,2047
17:02:12.856263,-7
17:02:12.856263,-1788
17:02:12.856263,-10241
17:02:12.856263,-8
17:02:12.856263,-1778
17:02:12.856263,-10241
17:02:12.856263,-8
17:02:12.856263,-1819
17:02:12.856263,-1793
17:02:12.856263,-8
17:02:12.856263,-1890
17:02:12.856263,-11521
17:02:12.856263,-8
17:02:12.856263,-1840
17:02:12.856263,-18177
17:02:12.856263,-8
17:02:12.856263,-1843
17:02:12.856263,-31745
17:02:12.856263,-8
17:02:12.856263,-1883
17:02:12.856263,-11521
17:02:12.856263,-8
17:02:12.856263,-1795
17:02:12.856263,18431
17:02:12.856263,-7
17:02:12.856263,-1852
17:02:12.856263,-26881
17:02:12.856263,-8
17:02:12.856263,-1867
17:02:12.856263,31487
17:02:12.856263,-8
17:02:12.856263,-1883
17:02:12.856263,-27905
17:02:12.856263,-8
17:02:12.856263,-1917
17:02:12.856263,-18177
17:02:12.856263,-8
17:02:12.856263,-1912
17:02:12.856263,-20737
17:02:12.856263,-8
17:02:12.856263,-1876
17:02:12.856263,-30977
17:02:12.856263,-8
17:02:12.856263,-1843
17:02:12.856263,-23809
17:02:12.856263,-8
17:02:12.856263,-1869
17:02:12.856263,-8449
17:02:12.856263,-8
17:02:12.856263,-1886
17:02:12.856263,-11009
17:02:12.856263,-8
17:02:12.856263,-1850
17:02:12.856263,-18945
17:02:12.856263,-8
17:02:12.856263,-1809
17:02:12.856263,-18177
17:02:12.856263,-8
17:02:12.856263,-1833
17:02:12.856263,-8961
17:02:12.856263,-8
17:02:12.856263,-1874
17:02:12.856263,-5889
17:02:12.856263,-8
17:02:12.856263,-1862
17:02:12.856263,-17665
17:02:12.856263,-8
17:02:12.856263,-1826
17:02:12.856263,-21761
17:02:12.856263,-8
17:02:12.856263,-1826
17:02:12.856263,-16897
17:02:12.856263,-8
17:02:12.856263,-1886
17:02:12.856263,-11521
17:02:12.856263,-8
17:02:12.856263,-1907
17:02:12.856263,-8449
17:02:12.856263,-8
17:02:12.856263,-1836
17:02:12.856263,26623
17:02:12.856263,-8
17:02:12.856263,-1816
17:02:12.856263,-24321
17:02:12.856263,-8
17:02:12.856263,-1924
17:02:12.856263,-10241
17:02:12.856263,-8
17:02:12.856263,-1950
17:02:12.856263,-19969
17:02:12.856263,-8
17:02:12.856263,-1878
17:02:12.856263,22783
17:02:12.856263,-8
17:02:12.856263,-1845
17:02:12.856263,25343
17:02:12.856263,-8
17:02:12.856263,-1919
17:02:12.856263,-18177
17:02:12.856263,-8
17:02:12.856263,-1976
17:02:12.856263,-16385
17:02:12.856263,-8
17:02:12.856263,-1914
17:02:13.396813,-1938
17:02:13.396813,-12801
17:02:13.396813,-8
17:02:13.396813,-1981
17:02:13.396813,-21761
17:02:13.396813,-8
17:02:13.396813,-1883
17:02:13.396813,12543
17:02:13.396813,-8
17:02:13.396813,-1850
17:02:13.396813,18687
17:02:13.396813,-8
17:02:13.396813,-1981
17:02:13.396813,-21249
17:02:13.396813,-8
17:02:13.396813,-2010
17:02:13.396813,-27393
17:02:13.396813,-8
17:02:13.396813,-1945
17:02:13.396813,14335
17:02:13.396813,-8
17:02:13.396813,-1862
17:02:13.396813,12031
17:02:13.396813,-8
17:02:13.396813,-1929
17:02:13.396813,-29697
17:02:13.396813,-8
17:02:13.396813,-2029
17:02:13.396813,-23809
17:02:13.396813,-8
17:02:13.396813,-1995
17:02:13.396813,16895
17:02:13.396813,-8
17:02:13.396813,-1888
17:02:13.396813,2047
17:02:13.396813,-8
17:02:13.396813,-1902
17:02:13.396813,26623
17:02:13.396813,-8
17:02:13.396813,-2017
17:02:13.396813,-21761
17:02:13.396813,-8
17:02:13.396813,-2024
17:02:13.396813,-23041
17:02:13.396813,-8
17:02:13.396813,-1764
17:02:13.396813,-24321
17:02:13.396813,-8
17:02:13.396813,-1802
17:02:13.396813,19967
17:02:13.396813,-8
17:02:13.396813,-1948
17:02:13.396813,-12033
17:02:13.396813,-8
17:02:13.396813,-2024
17:02:13.396813,-7937
17:02:13.396813,-8
17:02:13.396813,-1886
17:02:13.396813,13823
17:02:13.396813,-8
17:02:13.396813,-1757
17:02:13.396813,22783
17:02:13.396813,-8
17:02:13.396813,-1867
17:02:13.396813,6911
17:02:13.396813,-7
17:02:13.396813,-1969
17:02:13.396813,18943
17:02:13.396813,-7
17:02:13.396813,-1819
17:02:13.396813,-16385
17:02:13.396813,-8
17:02:13.396813,-1657
17:02:13.396813,-19969
17:02:13.396813,-8
17:02:13.396813,-1702
17:02:13.396813,23295
17:02:13.396813,-7
17:02:13.396813,-1824
17:02:13.396813,-10497
17:02:13.396813,-7
17:02:13.396813,-1788
17:02:13.396813,18943
17:02:13.396813,-7
17:02:13.396813,-1602
17:02:13.396813,-5377
17:02:13.396813,-8
17:02:13.396813,-1571
17:02:13.396813,30719
17:02:13.396813,-7
17:02:13.396813,-1723
17:02:13.396813,8447
17:02:13.396813,-6
17:02:13.396813,-1709
17:02:13.396813,2815
17:02:13.396813,-6
17:02:13.396813,-1502
17:02:13.396813,-23297
17:02:13.396813,-7
17:02:13.396813,-1356
17:02:13.396813,1023
17:02:13.396813,-6
17:02:13.396813,-1456
17:02:13.396813,-8193
17:02:13.396813,-6
17:02:13.396813,-1499
17:02:13.396813,13823
17:02:13.396813,-5
17:02:13.396813,-1304
17:02:14.026878,-1337
17:02:14.026878,-15873
17:02:14.026878,-5
17:02:14.026878,-1266
17:02:14.026878,-6657
17:02:14.026878,-5
17:02:14.026878,-1027
17:02:14.026878,22271
17:02:14.026878,-5
17:02:14.026878,-896
17:02:14.026878,-3585
17:02:14.026878,-5
17:02:14.026878,-963
17:02:14.026878,-8705
17:02:14.026878,-4
17:02:14.026878,-1003
17:02:14.026878,7679
17:02:14.026878,-3
17:02:14.026878,-803
17:02:14.026878,-22785
17:02:14.026878,-4
17:02:14.026878,-646
17:02:14.026878,-28929
17:02:14.026878,-4
17:02:14.026878,-727
17:02:14.026878,12031
17:02:14.026878,-3
17:02:14.026878,-908
17:02:14.026878,27391
17:02:14.026878,-3
17:02:14.026878,-867
17:02:14.026878,-16129
17:02:14.026878,-4
17:02:14.026878,-681
17:02:14.026878,-32513
17:02:14.026878,-4
17:02:14.026878,-641
17:02:14.026878,15615
17:02:14.026878,-3
17:02:14.026878,-760
17:02:14.026878,767
17:02:14.026878,-2
17:02:14.026878,-724
17:02:14.026878,-8961
17:02:14.026878,-3
17:02:14.026878,-481
17:02:14.026878,-27137
17:02:14.026878,-3
17:02:14.026878,-326
17:02:14.026878,2559
17:02:14.026878,-2
17:02:14.026878,-455
17:02:14.026878,-5377
17:02:14.026878,-2
17:02:14.026878,-500
17:02:14.026878,5375
17:02:14.026878,-1
17:02:14.026878,-283
17:02:14.026878,-27393
17:02:14.026878,-2
17:02:14.026878,-85
17:02:14.026878,8447
17:02:14.026878,-1
17:02:14.026878,-30
17:02:14.026878,-14849
17:02:14.026878,-1
17:02:14.026878,-319
17:02:14.026878,-12545
17:02:14.026878,-1
17:02:14.026878,-202
17:02:14.026878,24319
17:02:14.026878,-1
17:02:14.026878,11
17:02:14.026878,2816
17:02:14.026878,-1
17:02:14.026878,-40
17:02:14.026878,-26369
17:02:14.026878,-1
17:02:14.026878,-200
17:02:14.026878,5631
17:02:14.026878,0
17:02:14.026878,-243
17:02:14.026878,-30721
17:02:14.026878,-1
17:02:14.026878,-81
17:02:14.026878,-11521
17:02:14.026878,-2
17:02:14.026878,-47
17:02:14.026878,11007
17:02:14.026878,-1
17:02:14.026878,-216
17:02:14.026878,-14337
17:02:14.026878,-1
17:02:14.026878,-312
17:02:14.026878,-31233
17:02:14.026878,-1
17:02:14.026878,-216
17:02:14.026878,-26369
17:02:14.026878,-2
17:02:14.026878,-157
17:02:14.026878,22783
17:02:14.026878,-2
17:02:14.026878,-331
17:02:14.026878,-11009
17:02:14.026878,-2
17:02:14.026878,-538
17:02:14.026878,-15361
17:02:14.026878,-2
17:02:14.026878,-500
17:02:14.567340,-515
17:02:14.567340,-28161
17:02:14.567340,-2
17:02:14.567340,-646
17:02:14.567340,12543
17:02:14.567340,-2
17:02:14.567340,-536
17:02:14.567340,23039
17:02:14.567340,-3
17:02:14.567340,-462
17:02:14.567340,10239
17:02:14.567340,-3
17:02:14.567340,-658
17:02:14.567340,-23553
17:02:14.567340,-3
17:02:14.567340,-829
17:02:14.567340,-23041
17:02:14.567340,-3
17:02:14.567340,-758
17:02:14.567340,-5121
17:02:14.567340,-4
17:02:14.567340,-667
17:02:14.567340,26367
17:02:14.567340,-4
17:02:14.567340,-720
17:02:14.567340,-10497
17:02:14.567340,-4
17:02:14.567340,-980
17:02:14.567340,4095
17:02:14.567340,-3
17:02:14.567340,-1003
17:02:14.567340,27391
17:02:14.567340,-4
17:02:14.567340,-839
17:02:14.567340,-12033
17:02:14.567340,-5
17:02:14.567340,-836
17:02:14.567340,8703
17:02:14.567340,-4
17:02:14.567340,-1046
17:02:14.567340,-19713
17:02:14.567340,-4
17:02:14.567340,-1065
17:02:14.567340,26367
17:02:14.567340,-4
17:02:14.567340,-937
17:02:14.567340,-10241
17:02:14.567340,-5
17:02:14.567340,-865
17:02:14.567340,-1793
17:02:14.567340,-5
17:02:14.567340,-963
17:02:14.567340,31743
17:02:14.567340,-4
17:02:14.567340,-1070
17:02:14.567340,-27137
17:02:14.567340,-4
17:02:14.567340,-994
17:02:14.567340,2559
17:02:14.567340,-4
17:02:14.567340,-870
17:02:14.567340,-8449
17:02:14.567340,-5
17:02:14.567340,-910
17:02:14.567340,24575
17:02:14.567340,-4
17:02:14.567340,-1018
17:02:14.567340,-19201
17:02:14.567340,-4
17:02:14.567340,-1022
17:02:14.567340,32511
17:02:14.567340,-4
17:02:14.567340,-870
17:02:14.567340,-18177
17:02:14.567340,-5
17:02:14.567340,-846
17:02:14.567340,1279
17:02:14.567340,-4
17:02:14.567340,-1049
17:02:14.567340,-257
17:02:14.567340,-4
17:02:14.567340,-984
17:02:14.567340,-28161
17:02:14.567340,-4
17:02:14.567340,-982
17:02:14.567340,29695
17:02:14.567340,-5
17:02:14.567340,-910
17:02:14.567340,-26881
17:02:14.567340,-5
17:02:14.567340,-1077
17:02:14.567340,14079
17:02:14.567340,-4
17:02:14.567340,-1208
17:02:14.567340,10495
17:02:14.567340,-4
17:02:14.567340,-1111
17:02:14.567340,27135
17:02:14.567340,-5
17:02:14.567340,-982
17:02:14.567340,13823
17:02:14.567340,-5
17:02:14.567340,-1061
17:02:14.567340,-8449
17:02:14.567340,-5
17:02:14.567340,-1220
17:02:14.567340,14079
17:02:14.567340,-4
17:02:14.567340,-1180
17:02:15.107185,-1118
17:02:15.107185,8703
17:02:15.107185,-4
17:02:15.107185,-1227
17:02:15.107185,7423
17:02:15.107185,-4
17:02:15.107185,-1101
17:02:15.107185,28927
17:02:15.107185,-5
17:02:15.107185,-956
17:02:15.107185,19199
17:02:15.107185,-5
17:02:15.107185,-1049
17:02:15.107185,6143
17:02:15.107185,-4
17:02:15.107185,-1165
17:02:15.107185,14079
17:02:15.107185,-4
17:02:15.107185,-1154
17:02:15.107185,-11521
17:02:15.107185,-5
17:02:15.107185,-951
17:02:15.107185,24575
17:02:15.107185,-5
17:02:15.107185,-960
17:02:15.107185,-10241
17:02:15.107185,-5
17:02:15.107185,-1134
17:02:15.107185,26879
17:02:15.107185,-4
17:02:15.107185,-1156
17:02:15.107185,6143
17:02:15.107185,-4
17:02:15.107185,-984
17:02:15.107185,28415
17:02:15.107185,-5
17:02:15.107185,-918
17:02:15.107185,-18177
17:02:15.107185,-5
17:02:15.107185,-1053
17:02:15.107185,30463
17:02:15.107185,-4
17:02:15.107185,-1142
17:02:15.107185,27391
17:02:15.107185,-4
17:02:15.107185,-1001
17:02:15.107185,-14593
17:02:15.107185,-5
17:02:15.107185,-858
17:02:15.107185,-18945
17:02:15.107185,-5
17:02:15.107185,-960
17:02:15.107185,25087
17:02:15.107185,-4
17:02:15.107185,-1103
17:02:15.107185,-19713
17:02:15.107185,-4
17:02:15.107185,-1018
17:02:15.107185,12287
17:02:15.107185,-4
17:02:15.107185,-817
17:02:15.107185,-4865
17:02:15.107185,-5
17:02:15.107185,-808
17:02:15.107185,-24577
17:02:15.107185,-4
17:02:15.107185,-946
17:02:15.107185,13311
17:02:15.107185,-3
17:02:15.107185,-951
17:02:15.107185,-10497
17:02:15.107185,-4
17:02:15.107185,-758
17:02:15.107185,17663
17:02:15.107185,-4
17:02:15.107185,-705
17:02:15.107185,-27137
17:02:15.107185,-4
17:02:15.107185,-867
17:02:15.107185,15615
17:02:15.107185,-3
17:02:15.107185,-934
17:02:15.107185,12543
17:02:15.107185,-3
17:02:15.107185,-779
17:02:15.107185,-29441
17:02:15.107185,-4
17:02:15.107185,-660
17:02:15.107185,-31233
17:02:15.107185,-4
17:02:15.107185,-777
17:02:15.107185,8447
17:02:15.107185,-3
17:02:15.107185,-934
17:02:15.107185,-30209
17:02:15.107185,-3
17:02:15.107185,-712
17:02:15.107185,15103
17:02:15.107185,-3
17:02:15.107185,-622
17:02:15.107185,29951
17:02:15.107185,-4
17:02:15.107185,-708
17:02:15.107185,1023
17:02:15.107185,-3
17:02:15.107185,-884
17:02:15.107185,30463
17:02:15.107185,-3
17:02:15.107185,-882
17:02:15.691430,-777
17:02:15.691430,15103
17:02:15.691430,-3
17:02:15.691430,-925
17:02:15.691430,18687
17:02:15.691430,-3
17:02:15.691430,-848
17:02:15.691430,-21505
17:02:15.691430,-4
17:02:15.691430,-681
17:02:15.691430,29951
17:02:15.691430,-4
17:02:15.691430,-717
17:02:15.691430,-3841
17:02:15.691430,-4
17:02:15.691430,-896
17:02:15.691430,32255
17:02:15.691430,-3
17:02:15.691430,-860
17:02:15.691430,4095
17:02:15.691430,-3
17:02:15.691430,-667
17:02:15.691430,-27137
17:02:15.691430,-4
17:02:15.691430,-636
17:02:15.691430,-4353
17:02:15.691430,-4
17:02:15.691430,-803
17:02:15.691430,-28417
17:02:15.691430,-3
17:02:15.691430,-865
17:02:15.691430,26623
17:02:15.691430,-3
17:02:15.691430,-691
17:02:15.691430,-14337
17:02:15.691430,-4
17:02:15.691430,-591
17:02:15.691430,-10497
17:02:15.691430,-4
17:02:15.691430,-720
17:02:15.691430,-30977
17:02:15.691430,-3
17:02:15.691430,-846
17:02:15.691430,-25345
17:02:15.691430,-3
17:02:15.691430,-753
17:02:15.691430,-2049
17:02:15.691430,-4
17:02:15.691430,-581
17:02:15.691430,-12289
17:02:15.691430,-4
17:02:15.691430,-627
17:02:15.691430,32767
17:02:15.691430,-3
17:02:15.691430,-777
17:02:15.691430,-5889
17:02:15.691430,-3
17:02:15.691430,-741
17:02:15.691430,32767
17:02:15.691430,-3
17:02:15.691430,-541
17:02:15.691430,2815
17:02:15.691430,-3
17:02:15.691430,-517
17:02:15.691430,29695
17:02:15.691430,-3
17:02:15.691430,-686
17:02:15.691430,5119
17:02:15.691430,-2
17:02:15.691430,-748
17:02:15.691430,-13825
17:02:15.691430,-3
17:02:15.691430,-591
17:02:15.691430,4607
17:02:15.691430,-3
17:02:15.691430,-507
17:02:15.691430,10751
17:02:15.691430,-3
17:02:15.691430,-658
17:02:15.691430,-10753
17:02:15.691430,-3
17:02:15.691430,-789
17:02:15.691430,-10753
17:02:15.691430,-3
17:02:15.691430,-679
17:02:15.691430,11519
17:02:15.691430,-3
17:02:15.691430,-522
17:02:15.691430,-769
17:02:15.691430,-4
17:02:15.691430,-598
17:02:15.691430,-23553
17:02:15.691430,-3
17:02:15.691430,-767
17:02:15.691430,-1537
17:02:15.691430,-3
17:02:15.691430,-724
17:02:15.691430,26623
17:02:15.691430,-3
17:02:15.691430,-548
17:02:15.691430,-3329
17:02:15.691430,-4
17:02:15.691430,-562
17:02:15.691430,29183
17:02:15.691430,-3
17:02:15.691430,-715
17:02:15.691430,-3329
17:02:15.691430,-3
17:02:15.691430,-743
17:02:16.231436,-593
17:02:16.231436,-22273
17:02:16.231436,-3
17:02:16.231436,-765
17:02:16.231436,-4609
17:02:16.231436,-3
17:02:16.231436,-665
17:02:16.231436,-2817
17:02:16.231436,-3
17:02:16.231436,-405
17:02:16.231436,15103
17:02:16.231436,-3
17:02:16.231436,-536
17:02:16.231436,31487
17:02:16.231436,-3
17:02:16.231436,-691
17:02:16.231436,3839
17:02:16.231436,-2
17:02:16.231436,-789
17:02:16.231436,-27905
17:02:16.231436,-3
17:02:16.231436,-586
17:02:16.231436,-769
17:02:16.231436,-4
17:02:16.231436,-526
17:02:16.231436,11519
17:02:16.231436,-3
17:02:16.231436,-681
17:02:16.231436,-8449
17:02:16.231436,-3
17:02:16.231436,-789
17:02:16.231436,-13313
17:02:16.231436,-3
17:02:16.231436,-655
17:02:16.231436,9471
17:02:16.231436,-3
17:02:16.231436,-517
17:02:16.231436,1023
17:02:16.231436,-3
17:02:16.231436,-610
17:02:16.231436,-16897
17:02:16.231436,-3
17:02:16.231436,-760
17:02:16.231436,2559
17:02:16.231436,-2
17:02:16.231436,-686
17:02:16.231436,31487
17:02:16.231436,-3
17:02:16.231436,-503
17:02:16.231436,7679
17:02:16.231436,-3
17:02:16.231436,-505
17:02:16.231436,-19969
17:02:16.231436,-3
17:02:16.231436,-674
17:02:16.231436,17919
17:02:16.231436,-2
17:02:16.231436,-684
17:02:16.231436,-4097
17:02:16.231436,-3
17:02:16.231436,-479
17:02:16.231436,23551
17:02:16.231436,-3
17:02:16.231436,-426
17:02:16.231436,-21761
17:02:16.231436,-3
17:02:16.231436,-572
17:02:16.231436,25855
17:02:16.231436,-2
17:02:16.231436,-648
17:02:16.231436,21503
17:02:16.231436,-2
17:02:16.231436,-510
17:02:16.231436,-24321
17:02:16.231436,-3
17:02:16.231436,-381
17:02:16.231436,-26113
17:02:16.231436,-3
17:02:16.231436,-472
17:02:16.231436,22271
17:02:16.231436,-2
17:02:16.231436,-617
17:02:16.231436,-25089
17:02:16.231436,-2
17:02:16.231436,-536
17:02:16.231436,-4097
17:02:16.231436,-3
17:02:16.231436,-371
17:02:16.231436,-28417
17:02:16.231436,-3
17:02:16.231436,-412
17:02:16.231436,8703
17:02:16.231436,-2
17:02:16.231436,-586
17:02:16.231436,-26369
17:02:16.231436,-2
17:02:16.231436,-608
17:02:16.231436,6911
17:02:16.231436,-2
17:02:16.231436,-431
17:02:16.231436,32767
17:02:16.231436,-3
17:02:16.231436,-402
17:02:16.231436,-16385
17:02:16.231436,-3
17:02:16.231436,-569
17:02:16.231436,26367
17:02:16.231436,-2
17:02:16.231436,-662
17:02:16.817155,-445
17:02:16.817155,2047
17:02:16.817155,-2
17:02:16.817155,-624
17:02:16.817155,-32257
17:02:16.817155,-2
17:02:16.817155,-624
17:02:16.817155,-1025
17:02:16.817155,-3
17:02:16.817155,-445
17:02:16.817155,-30977
17:02:16.817155,-3
17:02:16.817155,-383
17:02:16.817155,-20481
17:02:16.817155,-3
17:02:16.817155,-608
17:02:16.817155,27647
17:02:16.817155,-2
17:02:16.817155,-670
17:02:16.817155,9471
17:02:16.817155,-2
17:02:16.817155,-515
17:02:16.817155,32255
17:02:16.817155,-3
17:02:16.817155,-410
17:02:16.817155,-32257
17:02:16.817155,-3
17:02:16.817155,-524
17:02:16.817155,17407
17:02:16.817155,-2
17:02:16.817155,-674
17:02:16.817155,19711
17:02:16.817155,-2
17:02:16.817155,-598
17:02:16.817155,-24833
17:02:16.817155,-3
17:02:16.817155,-355
17:02:16.817155,-4609
17:02:16.817155,-3
17:02:16.817155,-379
17:02:16.817155,5631
17:02:16.817155,-2
17:02:16.817155,-660
17:02:16.817155,20479
17:02:16.817155,-2
17:02:16.817155,-655
17:02:16.817155,-14337
17:02:16.817155,-3
17:02:16.817155,-505
17:02:16.817155,11519
17:02:16.817155,-3
17:02:16.817155,-476
17:02:16.817155,-26625
17:02:16.817155,-3
17:02:16.817155,-643
17:02:16.817155,17407
17:02:16.817155,-2
17:02:16.817155,-686
17:02:16.817155,1535
17:02:16.817155,-2
17:02:16.817155,-538
17:02:16.817155,22527
17:02:16.817155,-3
17:02:16.817155,-433
17:02:16.817155,32255
17:02:16.817155,-3
17:02:16.817155,-553
17:02:16.817155,17407
17:02:16.817155,-2
17:02:16.817155,-655
17:02:16.817155,25343
17:02:16.817155,-2
17:02:16.817155,-550
17:02:16.817155,-17409
17:02:16.817155,-3
17:02:16.817155,-388
17:02:16.817155,-30209
17:02:16.817155,-3
17:02:16.817155,-438
17:02:16.817155,14335
17:02:16.817155,-2
17:02:16.817155,-619
17:02:16.817155,-31233
17:02:16.817155,-2
17:02:16.817155,-593
17:02:16.817155,-1537
17:02:16.817155,-3
17:02:16.817155,-417
17:02:16.817155,32767
17:02:16.817155,-3
17:02:16.817155,-402
17:02:16.817155,-7681
17:02:16.817155,-3
17:02:16.817155,-603
17:02:16.817155,28415
17:02:16.817155,-2
17:02:16.817155,-655
17:02:16.817155,6399
17:02:16.817155,-2
17:02:16.817155,-491
17:02:16.817155,26623
17:02:16.817155,-3
17:02:16.817155,-429
17:02:16.817155,-27905
17:02:16.817155,-3
17:02:16.817155,-562
17:02:16.817155,19711
17:02:16.817155,-2
17:02:16.817155,-650
17:02:17.357230,-438
17:02:17.357230,-6401
17:02:17.357230,-3
17:02:17.357230,-584
17:02:17.357230,28927
17:02:17.357230,-2
17:02:17.357230,-631
17:02:17.357230,13055
17:02:17.357230,-2
17:02:17.357230,-457
17:02:17.357230,-22273
17:02:17.357230,-3
17:02:17.357230,-345
17:02:17.357230,-6401
17:02:17.357230,-3
17:02:17.357230,-469
17:02:17.357230,-23297
17:02:17.357230,-2
17:02:17.357230,-617
17:02:17.357230,28415
17:02:17.357230,-2
17:02:17.357230,-484
17:02:17.357230,-12545
17:02:17.357230,-3
17:02:17.357230,-376
17:02:17.357230,-26113
17:02:17.357230,-3
17:02:17.357230,-464
17:02:17.357230,11263
17:02:17.357230,-2
17:02:17.357230,-650
17:02:17.357230,25855
17:02:17.357230,-2
17:02:17.357230,-622
17:02:17.357230,-24321
17:02:17.357230,-3
17:02:17.357230,-417
17:02:17.357230,-30209
17:02:17.357230,-3
17:02:17.357230,-541
17:02:17.357230,-20481
17:02:17.357230,-3
17:02:17.357230,-615
17:02:17.357230,-513
17:02:17.357230,-3
17:02:17.357230,-717
17:02:17.357230,-8961
17:02:17.357230,-3
17:02:17.357230,-581
17:02:17.357230,7167
17:02:17.357230,-3
17:02:17.357230,-515
17:02:17.357230,16895
17:02:17.357230,-3
17:02:17.357230,-650
17:02:17.357230,-8961
17:02:17.357230,-3
17:02:17.357230,-796
17:02:17.357230,-14337
17:02:17.357230,-3
17:02:17.357230,-677
17:02:17.357230,-2049
17:02:17.357230,-4
17:02:17.357230,-536
17:02:17.357230,17407
17:02:17.357230,-3
17:02:17.357230,-474
17:02:17.357230,17407
17:02:17.357230,-2
17:02:17.357230,-712
17:02:17.357230,3839
17:02:17.357230,-2
17:02:17.357230,-665
17:02:17.357230,-32257
17:02:17.357230,-3
17:02:17.357230,-495
17:02:17.357230,12031
17:02:17.357230,-3
17:02:17.357230,-498
17:02:17.357230,-21249
17:02:17.357230,-3
17:02:17.357230,-684
17:02:17.357230,16127
17:02:17.357230,-2
17:02:17.357230,-708
17:02:17.357230,-16897
17:02:17.357230,-3
17:02:17.357230,-534
17:02:17.357230,9471
17:02:17.357230,-3
17:02:17.357230,-476
17:02:17.357230,31487
17:02:17.357230,-3
17:02:17.357230,-627
17:02:17.357230,12543
17:02:17.357230,-2
17:02:17.357230,-715
17:02:17.357230,3839
17:02:17.357230,-2
17:02:17.357230,-557
17:02:17.357230,27903
17:02:17.357230,-3
17:02:17.357230,-426
17:02:17.357230,26111
17:02:17.357230,-3
17:02:17.357230,-560
17:02:17.357230,3327
17:02:17.357230,-2
17:02:17.357230,-681
17:02:17.941721,-431
17:02:17.941721,-19969
17:02:17.941721,-3
17:02:17.941721,-579
17:02:17.941721,22271
17:02:17.941721,-2
17:02:17.941721,-674
17:02:17.941721,11775
17:02:17.941721,-2
17:02:17.941721,-524
17:02:17.941721,-29697
17:02:17.941721,-3
17:02:17.941721,-391
17:02:17.941721,30975
17:02:17.941721,-3
17:02:17.941721,-543
17:02:17.941721,16639
17:02:17.941721,-2
17:02:17.941721,-646
17:02:17.941721,25855
17:02:17.941721,-2
17:02:17.941721,-572
17:02:17.941721,-14337
17:02:17.941721,-3
17:02:17.941721,-393
17:02:17.941721,-31489
17:02:17.941721,-3
17:02:17.941721,-433
17:02:17.941721,6911
17:02:17.941721,-2
17:02:17.941721,-612
17:02:17.941721,-29953
17:02:17.941721,-2
17:02:17.941721,-603
17:02:17.941721,5631
17:02:17.941721,-2
17:02:17.941721,-412
17:02:17.941721,-27905
17:02:17.941721,-3
17:02:17.941721,-371
17:02:17.941721,-3329
17:02:17.941721,-3
17:02:17.941721,-536
17:02:17.941721,-26369
17:02:17.941721,-2
17:02:17.941721,-619
17:02:17.941721,25343
17:02:17.941721,-2
17:02:17.941721,-453
17:02:17.941721,-20481
17:02:17.941721,-3
17:02:17.941721,-345
17:02:17.941721,-14337
17:02:17.941721,-3
17:02:17.941721,-472
17:02:17.941721,-32257
17:02:17.941721,-2
17:02:17.941721,-610
17:02:17.941721,-28673
17:02:17.941721,-2
17:02:17.941721,-510
17:02:17.941721,-4609
17:02:17.941721,-3
17:02:17.941721,-343
17:02:17.941721,-20481
17:02:17.941721,-3
17:02:17.941721,-400
17:02:17.941721,20479
17:02:17.941721,-2
17:02:17.941721,-581
17:02:17.941721,-17665
17:02:17.941721,-2
17:02:17.941721,-550
17:02:17.941721,11263
17:02:17.941721,-2
17:02:17.941721,-371
17:02:17.941721,-21249
17:02:17.941721,-3
17:02:17.941721,-348
17:02:17.941721,8191
17:02:17.941721,-2
17:02:17.941721,-515
17:02:17.941721,-14081
17:02:17.941721,-2
17:02:17.941721,-572
17:02:17.941721,30207
17:02:17.941721,-2
17:02:17.941721,-405
17:02:17.941721,-12033
17:02:17.941721,-3
17:02:17.941721,-321
17:02:17.941721,-6401
17:02:17.941721,-3
17:02:17.941721,-431
17:02:17.941721,3583
17:02:17.941721,-1
17:02:17.941721,-433
17:02:17.941721,-1793
17:02:17.941721,-2
17:02:17.941721,-457
17:02:17.941721,767
17:02:17.941721,-2
17:02:17.941721,-309
17:02:17.941721,-12545
17:02:17.941721,-3
17:02:17.941721,-379
17:02:17.941721,32511
17:02:17.941721,-2
17:02:17.941721,-557
17:02:18.481783,-305
17:02:18.481783,767
17:02:18.481783,-2
17:02:18.481783,-450
17:02:18.481783,-19457
17:02:18.481783,-2
17:02:18.481783,-560
17:02:18.481783,-16385
17:02:18.481783,-2
17:02:18.481783,-436
17:02:18.481783,4607
17:02:18.481783,-2
17:02:18.481783,-283
17:02:18.481783,-1537
17:02:18.481783,-3
17:02:18.481783,-348
17:02:18.481783,-15361
17:02:18.481783,-2
17:02:18.481783,-505
17:02:18.481783,-13313
17:02:18.481783,-2
17:02:18.481783,-462
17:02:18.481783,32511
17:02:18.481783,-2
17:02:18.481783,-314
17:02:18.481783,-2305
17:02:18.481783,-3
17:02:18.481783,-264
17:02:18.481783,31231
17:02:18.481783,-2
17:02:18.481783,-462
17:02:18.481783,1791
17:02:18.481783,-1
17:02:18.481783,-495
17:02:18.481783,-21249
17:02:18.481783,-2
17:02:18.481783,-331
17:02:18.481783,1535
17:02:18.481783,-2
17:02:18.481783,-267
17:02:18.481783,14335
17:02:18.481783,-2
17:02:18.481783,-417
17:02:18.481783,-10497
17:02:18.481783,-2
17:02:18.481783,-536
17:02:18.481783,-15361
17:02:18.481783,-2
17:02:18.481783,-417
17:02:18.481783,4607
17:02:18.481783,-2
17:02:18.481783,-283
17:02:18.481783,-2817
17:02:18.481783,-3
17:02:18.481783,-383
17:02:18.481783,-26369
17:02:18.481783,-2
17:02:18.481783,-548
17:02:18.481783,-14593
17:02:18.481783,-2
17:02:18.481783,-493
17:02:18.481783,13055
17:02:18.481783,-2
17:02:18.481783,-338
17:02:18.481783,-15617
17:02:18.481783,-3
17:02:18.481783,-360
17:02:18.481783,16639
17:02:18.481783,-2
17:02:18.481783,-536
17:02:18.481783,-17665
17:02:18.481783,-2
17:02:18.481783,-567
17:02:18.481783,19711
17:02:18.481783,-2
17:02:18.481783,-407
17:02:18.481783,-21249
17:02:18.481783,-3
17:02:18.481783,-362
17:02:18.481783,-11265
17:02:18.481783,-3
17:02:18.481783,-541
17:02:18.481783,28927
17:02:18.481783,-2
17:02:18.481783,-650
17:02:18.481783,17407
17:02:18.481783,-2
17:02:18.481783,-524
17:02:18.481783,-30209
17:02:18.481783,-3
17:02:18.481783,-412
17:02:18.481783,30975
17:02:18.481783,-3
17:02:18.481783,-531
17:02:18.481783,6911
17:02:18.481783,-2
17:02:18.481783,-689
17:02:18.481783,11263
17:02:18.481783,-2
17:02:18.481783,-624
17:02:18.481783,-26113
17:02:18.481783,-3
17:02:18.481783,-486
17:02:18.481783,11519
17:02:18.481783,-3
17:02:18.481783,-524
17:02:18.481783,-23041
17:02:18.481783,-3
17:02:18.481783,-712
17:02:19.022454,-486
17:02:19.022454,13823
17:02:19.022454,-3
17:02:19.022454,-598
17:02:19.022454,-7169
17:02:19.022454,-3
17:02:19.022454,-748
17:02:19.022454,-4097
17:02:19.022454,-3
17:02:19.022454,-703
17:02:19.022454,21247
17:02:19.022454,-3
17:02:19.022454,-438
17:02:19.022454,-23553
17:02:19.022454,-3
17:02:19.022454,-469
17:02:19.022454,-23041
17:02:19.022454,-3
17:02:19.022454,-724
17:02:19.022454,5631
17:02:19.022454,-2
17:02:19.022454,-708
17:02:19.022454,-24321
17:02:19.022454,-3
17:02:19.022454,-550
17:02:19.022454,4607
17:02:19.022454,-3
17:02:19.022454,-517
17:02:19.022454,24831
17:02:19.022454,-3
17:02:19.022454,-684
17:02:19.022454,-4097
17:02:19.022454,-3
17:02:19.022454,-772
17:02:19.022454,-16385
17:02:19.022454,-3
17:02:19.022454,-624
17:02:19.022454,5375
17:02:19.022454,-3
17:02:19.022454,-517
17:02:19.022454,8447
17:02:19.022454,-3
17:02:19.022454,-627
17:02:19.022454,-8449
17:02:19.022454,-3
17:02:19.022454,-767
17:02:19.022454,-6401
17:02:19.022454,-3
17:02:19.022454,-677
17:02:19.022454,20479
17:02:19.022454,-3
17:02:19.022454,-515
17:02:19.022454,2815
17:02:19.022454,-3
17:02:19.022454,-569
17:02:19.022454,-23553
17:02:19.022454,-3
17:02:19.022454,-732
17:02:19.022454,5631
17:02:19.022454,-2
17:02:19.022454,-710
17:02:19.022454,-27137
17:02:19.022454,-3
17:02:19.022454,-538
17:02:19.022454,3583
17:02:19.022454,-3
17:02:19.022454,-524
17:02:19.022454,26111
17:02:19.022454,-3
17:02:19.022454,-689
17:02:19.022454,3327
17:02:19.022454,-2
17:02:19.022454,-743
17:02:19.022454,-10753
17:02:19.022454,-3
17:02:19.022454,-579
17:02:19.022454,10751
17:02:19.022454,-3
17:02:19.022454,-479
17:02:19.022454,21759
17:02:19.022454,-3
17:02:19.022454,-605
17:02:19.022454,767
17:02:19.022454,-2
17:02:19.022454,-722
17:02:19.022454,6911
17:02:19.022454,-2
17:02:19.022454,-619
17:02:19.022454,29183
17:02:19.022454,-3
17:02:19.022454,-469
17:02:19.022454,12543
17:02:19.022454,-3
17:02:19.022454,-541
17:02:19.022454,-9473
17:02:19.022454,-3
17:02:19.022454,-701
17:02:19.022454,14335
17:02:19.022454,-2
17:02:19.022454,-660
17:02:19.022454,-18689
17:02:19.022454,-3
17:02:19.022454,-484
17:02:19.022454,16383
17:02:19.022454,-3
17:02:19.022454,-469
17:02:19.022454,-19201
17:02:19.022454,-3
17:02:19.022454,-636
17:02:19.606456,-438
17:02:19.606456,23039
17:02:19.606456,-3
17:02:19.606456,-519
17:02:19.606456,-4097
17:02:19.606456,-3
17:02:19.606456,-684
17:02:19.606456,21503
17:02:19.606456,-2
17:02:19.606456,-629
17:02:19.606456,-21249
17:02:19.606456,-3
17:02:19.606456,-488
17:02:19.606456,18687
17:02:19.606456,-3
17:02:19.606456,-472
17:02:19.606456,-20481
17:02:19.606456,-3
17:02:19.606456,-646
17:02:19.606456,19711
17:02:19.606456,-2
17:02:19.606456,-677
17:02:19.606456,-513
17:02:19.606456,-3
17:02:19.606456,-503
17:02:19.606456,29183
17:02:19.606456,-3
17:02:19.606456,-402
17:02:19.606456,-22273
17:02:19.606456,-3
17:02:19.606456,-555
17:02:19.606456,22271
17:02:19.606456,-2
17:02:19.606456,-622
17:02:19.606456,-17665
17:02:19.606456,-2
17:02:19.606456,-367
17:02:19.606456,14847
17:02:19.606456,-2
17:02:19.606456,-312
17:02:19.606456,-16897
17:02:19.606456,-3
17:02:19.606456,-417
17:02:19.606456,29439
17:02:19.606456,-2
17:02:19.606456,-574
17:02:19.606456,-17153
17:02:19.606456,-2
17:02:19.606456,-505
17:02:19.606456,15359
17:02:19.606456,-2
17:02:19.606456,-302
17:02:19.606456,-6401
17:02:19.606456,-3
17:02:19.606456,-324
17:02:19.606456,28415
17:02:19.606456,-2
17:02:19.606456,-472
17:02:19.606456,-513
17:02:19.606456,-2
17:02:19.606456,-493
17:02:19.606456,-25089
17:02:19.606456,-2
17:02:19.606456,-326
17:02:19.606456,3839
17:02:19.606456,-2
17:02:19.606456,-252
17:02:19.606456,20991
17:02:19.606456,-2
17:02:19.606456,-398
17:02:19.606456,-1281
17:02:19.606456,-2
17:02:19.606456,-505
17:02:19.606456,-6145
17:02:19.606456,-2
17:02:19.606456,-350
17:02:19.606456,16639
17:02:19.606456,-2
17:02:19.606456,-226
17:02:19.606456,16639
17:02:19.606456,-2
17:02:19.606456,-324
17:02:19.606456,-4865
17:02:19.606456,-2
17:02:19.606456,-472
17:02:19.606456,7423
17:02:19.606456,-1
17:02:19.606456,-352
17:02:19.606456,23295
17:02:19.606456,-2
17:02:19.606456,-276
17:02:19.606456,24063
17:02:19.606456,-2
17:02:19.606456,-329
17:02:19.606456,-16385
17:02:19.606456,-2
17:02:19.606456,-369
17:02:19.606456,-10497
17:02:19.606456,-2
17:02:19.606456,-400
17:02:19.606456,-5377
17:02:19.606456,-2
17:02:19.606456,-338
17:02:19.606456,22271
17:02:19.606456,-2
17:02:19.606456,-169
17:02:19.606456,-31745
17:02:19.606456,-2
17:02:19.606456,-350
17:02:20.147159,-181
17:02:20.147159,22783
17:02:20.147159,-2
17:02:20.147159,-231
17:02:20.147159,-6145
17:02:20.147159,-2
17:02:20.147159,-395
17:02:20.147159,20223
17:02:20.147159,-1
17:02:20.147159,-395
17:02:20.147159,-7425
17:02:20.147159,-2
17:02:20.147159,-216
17:02:20.147159,29439
17:02:20.147159,-2
17:02:20.147159,-195
17:02:20.147159,-31745
17:02:20.147159,-2
17:02:20.147159,-360
17:02:20.147159,16383
17:02:20.147159,-1
17:02:20.147159,-448
17:02:20.147159,-1
17:02:20.147159,-2
17:02:20.147159,-321
17:02:20.147159,17919
17:02:20.147159,-2
17:02:20.147159,-207
17:02:20.147159,20991
17:02:20.147159,-2
17:02:20.147159,-321
17:02:20.147159,3071
17:02:20.147159,-1
17:02:20.147159,-453
17:02:20.147159,10495
17:02:20.147159,-1
17:02:20.147159,-352
17:02:20.147159,-26881
17:02:20.147159,-2
17:02:20.147159,-197
17:02:20.147159,18431
17:02:20.147159,-2
17:02:20.147159,-247
17:02:20.147159,-6657
17:02:20.147159,-2
17:02:20.147159,-410
17:02:20.147159,20735
17:02:20.147159,-1
17:02:20.147159,-386
17:02:20.147159,-12289
17:02:20.147159,-2
17:02:20.147159,-212
17:02:20.147159,20991
17:02:20.147159,-2
17:02:20.147159,-231
17:02:20.147159,-14081
17:02:20.147159,-2
17:02:20.147159,-386
17:02:20.147159,12287
17:02:20.147159,-1
17:02:20.147159,-247
17:02:20.147159,-29441
17:02:20.147159,-1
17:02:20.147159,-276
17:02:20.147159,-31233
17:02:20.147159,-2
17:02:20.147159,-178
17:02:20.147159,22783
17:02:20.147159,-2
17:02:20.147159,-329
17:02:20.147159,3071
17:02:20.147159,-1
17:02:20.147159,-464
17:02:20.147159,5375
17:02:20.147159,-1
17:02:20.147159,-367
17:02:20.147159,27135
17:02:20.147159,-2
17:02:20.147159,-233
17:02:20.147159,11263
17:02:20.147159,-2
17:02:20.147159,-295
17:02:20.147159,-15873
17:02:20.147159,-2
17:02:20.147159,-457
17:02:20.147159,10495
17:02:20.147159,-1
17:02:20.147159,-422
17:02:20.147159,-20737
17:02:20.147159,-2
17:02:20.147159,-231
17:02:20.147159,16127
17:02:20.147159,-2
17:02:20.147159,-224
17:02:20.147159,-24321
17:02:20.147159,-2
17:02:20.147159,-402
17:02:20.147159,10495
17:02:20.147159,-1
17:02:20.147159,-462
17:02:20.147159,-7937
17:02:20.147159,-2
17:02:20.147159,-305
17:02:20.147159,13567
17:02:20.147159,-2
17:02:20.147159,-212
17:02:20.147159,24575
17:02:20.147159,-2
17:02:20.147159,-348
17:02:20.732455,-243
17:02:20.732455,11263
17:02:20.732455,-2
17:02:20.732455,-243
17:02:20.732455,-27393
17:02:20.732455,-2
17:02:20.732455,-414
17:02:20.732455,11007
17:02:20.732455,-1
17:02:20.732455,-445
17:02:20.732455,-7425
17:02:20.732455,-2
17:02:20.732455,-324
17:02:20.732455,5119
17:02:20.732455,-2
17:02:20.732455,-238
17:02:20.732455,15359
17:02:20.732455,-2
17:02:20.732455,-398
17:02:20.732455,-6145
17:02:20.732455,-2
17:02:20.732455,-512
17:02:20.732455,-7425
17:02:20.732455,-2
17:02:20.732455,-398
17:02:20.732455,13055
17:02:20.732455,-2
17:02:20.732455,-264
17:02:20.732455,255
17:02:20.732455,-2
17:02:20.732455,-343
17:02:20.732455,-20225
17:02:20.732455,-2
17:02:20.732455,-515
17:02:20.732455,-3073
17:02:20.732455,-2
17:02:20.732455,-467
17:02:20.732455,22783
17:02:20.732455,-2
17:02:20.732455,-305
17:02:20.732455,-8961
17:02:20.732455,-3
17:02:20.732455,-333
17:02:20.732455,17407
17:02:20.732455,-2
17:02:20.732455,-526
17:02:20.732455,-16385
17:02:20.732455,-2
17:02:20.732455,-567
17:02:20.732455,22783
17:02:20.732455,-2
17:02:20.732455,-417
17:02:20.732455,-21249
17:02:20.732455,-3
17:02:20.732455,-352
17:02:20.732455,-10241
17:02:20.732455,-3
17:02:20.732455,-512
17:02:20.732455,-31745
17:02:20.732455,-2
17:02:20.732455,-631
17:02:20.732455,25855
17:02:20.732455,-2
17:02:20.732455,-505
17:02:20.732455,-21761
17:02:20.732455,-3
17:02:20.732455,-376
17:02:20.732455,-25345
17:02:20.732455,-3
17:02:20.732455,-515
17:02:20.732455,11263
17:02:20.732455,-2
17:02:20.732455,-636
17:02:20.732455,16639
17:02:20.732455,-2
17:02:20.732455,-596
17:02:20.732455,-16897
17:02:20.732455,-3
17:02:20.732455,-484
17:02:20.732455,24319
17:02:20.732455,-3
17:02:20.732455,-443
17:02:20.732455,17919
17:02:20.732455,-2
17:02:20.732455,-484
17:02:20.732455,30207
17:02:20.732455,-2
17:02:20.732455,-679
17:02:20.732455,2559
17:02:20.732455,-2
17:02:20.732455,-481
17:02:20.732455,22527
17:02:20.732455,-3
17:02:20.732455,-419
17:02:20.732455,-22273
17:02:20.732455,-3
17:02:20.732455,-588
17:02:20.732455,20991
17:02:20.732455,-2
17:02:20.732455,-677
17:02:20.732455,9471
17:02:20.732455,-2
17:02:20.732455,-546
17:02:20.732455,31487
17:02:20.732455,-3
17:02:20.732455,-429
17:02:20.732455,28415
17:02:20.732455,-3
17:02:20.732455,-534
17:02:21.316149,-481
17:02:21.316149,24319
17:02:21.316149,-3
17:02:21.316149,-436
17:02:21.316149,-21761
17:02:21.316149,-3
17:02:21.316149,-593
17:02:21.316149,15359
17:02:21.316149,-2
17:02:21.316149,-684
17:02:21.316149,13055
17:02:21.316149,-2
17:02:21.316149,-531
17:02:21.316149,-30209
17:02:21.316149,-3
17:02:21.316149,-402
17:02:21.316149,26111
17:02:21.316149,-3
17:02:21.316149,-546
17:02:21.316149,13567
17:02:21.316149,-2
17:02:21.316149,-677
17:02:21.316149,17919
17:02:21.316149,-2
17:02:21.316149,-596
17:02:21.316149,-22273
17:02:21.316149,-3
17:02:21.316149,-443
17:02:21.316149,19967
17:02:21.316149,-3
17:02:21.316149,-495
17:02:21.316149,-10241
17:02:21.316149,-3
17:02:21.316149,-672
17:02:21.316149,18431
17:02:21.316149,-2
17:02:21.316149,-667
17:02:21.316149,-12033
17:02:21.316149,-3
17:02:21.316149,-488
17:02:21.316149,20479
17:02:21.316149,-3
17:02:21.316149,-445
17:02:21.316149,-19201
17:02:21.316149,-3
17:02:21.316149,-588
17:02:21.316149,25343
17:02:21.316149,-2
17:02:21.316149,-653
17:02:21.316149,14335
17:02:21.316149,-2
17:02:21.316149,-493
17:02:21.316149,-24833
17:02:21.316149,-3
17:02:21.316149,-374
17:02:21.316149,-20481
17:02:21.316149,-3
17:02:21.316149,-495
17:02:21.316149,24575
17:02:21.316149,-2
17:02:21.316149,-629
17:02:21.316149,29439
17:02:21.316149,-2
17:02:21.316149,-541
17:02:21.316149,-11265
17:02:21.316149,-3
17:02:21.316149,-386
17:02:21.316149,-32257
17:02:21.316149,-3
17:02:21.316149,-453
17:02:21.316149,6911
17:02:21.316149,-2
17:02:21.316149,-627
17:02:21.316149,31999
17:02:21.316149,-2
17:02:21.316149,-598
17:02:21.316149,255
17:02:21.316149,-2
17:02:21.316149,-431
17:02:21.316149,30975
17:02:21.316149,-3
17:02:21.316149,-412
17:02:21.316149,-8961
17:02:21.316149,-3
17:02:21.316149,-584
17:02:21.316149,27647
17:02:21.316149,-2
17:02:21.316149,-648
17:02:21.316149,11263
17:02:21.316149,-2
17:02:21.316149,-495
17:02:21.316149,-32257
17:02:21.316149,-3
17:02:21.316149,-395
17:02:21.316149,-26625
17:02:21.316149,-3
17:02:21.316149,-560
17:02:21.316149,13567
17:02:21.316149,-2
17:02:21.316149,-643
17:02:21.316149,-22017
17:02:21.316149,-2
17:02:21.316149,-422
17:02:21.316149,-2305
17:02:21.316149,-3
17:02:21.316149,-407
17:02:21.316149,30975
17:02:21.316149,-3
17:02:21.316149,-479
17:02:21.856255,-503
17:02:21.856255,32767
17:02:21.856255,-3
17:02:21.856255,-398
17:02:21.856255,-24321
17:02:21.856255,-3
17:02:21.856255,-543
17:02:21.856255,19199
17:02:21.856255,-2
17:02:21.856255,-660
17:02:21.856255,21503
17:02:21.856255,-2
17:02:21.856255,-550
17:02:21.856255,-21249
17:02:21.856255,-3
17:02:21.856255,-391
17:02:21.856255,-29185
17:02:21.856255,-3
17:02:21.856255,-438
17:02:21.856255,18431
17:02:21.856255,-2
17:02:21.856255,-629
17:02:21.856255,-29185
17:02:21.856255,-2
17:02:21.856255,-541
17:02:21.856255,5631
17:02:21.856255,-2
17:02:21.856255,-376
17:02:21.856255,-21761
17:02:21.856255,-3
17:02:21.856255,-371
17:02:21.856255,9471
17:02:21.856255,-2
17:02:21.856255,-531
17:02:21.856255,-15873
17:02:21.856255,-2
17:02:21.856255,-553
17:02:21.856255,31231
17:02:21.856255,-2
17:02:21.856255,-379
17:02:21.856255,-7681
17:02:21.856255,-3
17:02:21.856255,-295
17:02:21.856255,6911
17:02:21.856255,-2
17:02:21.856255,-426
17:02:21.856255,-11521
17:02:21.856255,-2
17:02:21.856255,-546
17:02:21.856255,-14081
17:02:21.856255,-2
17:02:21.856255,-400
17:02:21.856255,9471
17:02:21.856255,-2
17:02:21.856255,-271
17:02:21.856255,767
17:02:21.856255,-2
17:02:21.856255,-360
17:02:21.856255,-18945
17:02:21.856255,-2
17:02:21.856255,-500
17:02:21.856255,511
17:02:21.856255,-1
17:02:21.856255,-438
17:02:21.856255,27135
17:02:21.856255,-2
17:02:21.856255,-276
17:02:21.856255,2047
17:02:21.856255,-2
17:02:21.856255,-293
17:02:21.856255,-31745
17:02:21.856255,-2
17:02:21.856255,-460
17:02:21.856255,1791
17:02:21.856255,-1
17:02:21.856255,-486
17:02:21.856255,-22017
17:02:21.856255,-2
17:02:21.856255,-317
17:02:21.856255,2559
17:02:21.856255,-2
17:02:21.856255,-262
17:02:21.856255,16639
17:02:21.856255,-2
17:02:21.856255,-426
17:02:21.856255,-6657
17:02:21.856255,-2
17:02:21.856255,-526
17:02:21.856255,-17153
17:02:21.856255,-2
17:02:21.856255,-414
17:02:21.856255,2047
17:02:21.856255,-2
17:02:21.856255,-281
17:02:21.856255,-1537
17:02:21.856255,-3
17:02:21.856255,-386
17:02:21.856255,-23297
17:02:21.856255,-2
17:02:21.856255,-538
17:02:21.856255,-7937
17:02:21.856255,-2
17:02:21.856255,-469
17:02:21.856255,16127
17:02:21.856255,-2
17:02:21.856255,-293
17:02:21.856255,-5889
17:02:21.856255,-3
17:02:21.856255,-329
17:02:22.396762,-407
17:02:22.396762,255
17:02:22.396762,-2
17:02:22.396762,-283
17:02:22.396762,-2817
17:02:22.396762,-3
17:02:22.396762,-410
17:02:22.396762,-29185
17:02:22.396762,-2
17:02:22.396762,-548
17:02:22.396762,9727
17:02:22.396762,-1
17:02:22.396762,-317
17:02:22.396762,-17153
17:02:22.396762,-2
17:02:22.396762,-243
17:02:22.396762,-10753
17:02:22.396762,-3
17:02:22.396762,-352
17:02:22.396762,31999
17:02:22.396762,-2
17:02:22.396762,-498
17:02:22.396762,-3073
17:02:22.396762,-2
17:02:22.396762,-495
17:02:22.396762,-29185
17:02:22.396762,-2
17:02:22.396762,-300
17:02:22.396762,2559
17:02:22.396762,-2
17:02:22.396762,-267
17:02:22.396762,24063
17:02:22.396762,-2
17:02:22.396762,-405
17:02:22.396762,2559
17:02:22.396762,-1
17:02:22.396762,-505
17:02:22.396762,-8449
17:02:22.396762,-2
17:02:22.396762,-331
17:02:22.396762,14847
17:02:22.396762,-2
17:02:22.396762,-221
17:02:22.396762,17919
17:02:22.396762,-2
17:02:22.396762,-331
17:02:22.396762,-513
17:02:22.396762,-2
17:02:22.396762,-467
17:02:22.396762,9727
17:02:22.396762,-1
17:02:22.396762,-374
17:02:22.396762,-32257
17:02:22.396762,-2
17:02:22.396762,-202
17:02:22.396762,15359
17:02:22.396762,-2
17:02:22.396762,-252
17:02:22.396762,-8449
17:02:22.396762,-2
17:02:22.396762,-426
17:02:22.396762,18431
17:02:22.396762,-1
17:02:22.396762,-393
17:02:22.396762,-14081
17:02:22.396762,-2
17:02:22.396762,-228
17:02:22.396762,22271
17:02:22.396762,-2
17:02:22.396762,-214
17:02:22.396762,-22529
17:02:22.396762,-2
17:02:22.396762,-345
17:02:22.396762,20223
17:02:22.396762,-1
17:02:22.396762,-414
17:02:22.396762,6143
17:02:22.396762,-1
17:02:22.396762,-286
17:02:22.396762,28415
17:02:22.396762,-2
17:02:22.396762,-154
17:02:22.396762,31231
17:02:22.396762,-2
17:02:22.396762,-290
17:02:22.396762,17663
17:02:22.396762,-1
17:02:22.396762,-419
17:02:22.396762,18431
17:02:22.396762,-1
17:02:22.396762,-321
17:02:22.396762,-25601
17:02:22.396762,-2
17:02:22.396762,-166
17:02:22.396762,24575
17:02:22.396762,-2
17:02:22.396762,-240
17:02:22.396762,-1793
17:02:22.396762,-2
17:02:22.396762,-414
17:02:22.396762,20223
17:02:22.396762,-1
17:02:22.396762,-393
17:02:22.396762,-14593
17:02:22.396762,-2
17:02:22.396762,-221
17:02:22.396762,14847
17:02:22.396762,-2
17:02:22.396762,-219
17:02:22.982442,-350
17:02:22.982442,28415
17:02:22.982442,-2
17:02:22.982442,-212
17:02:22.982442,14335
17:02:22.982442,-2
17:02:22.982442,-283
17:02:22.982442,-11009
17:02:22.982442,-2
17:02:22.982442,-450
17:02:22.982442,14079
17:02:22.982442,-1
17:02:22.982442,-443
17:02:22.982442,24575
17:02:22.982442,-2
17:02:22.982442,-257
17:02:22.982442,11263
17:02:22.982442,-2
17:02:22.982442,-326
17:02:22.982442,25855
17:02:22.982442,-2
17:02:22.982442,-438
17:02:22.982442,-7425
17:02:22.982442,-2
17:02:22.982442,-495
17:02:22.982442,-25089
17:02:22.982442,-2
17:02:22.982442,-379
17:02:22.982442,-4609
17:02:22.982442,-3
17:02:22.982442,-350
17:02:22.982442,-5889
17:02:22.982442,-3
17:02:22.982442,-441
17:02:22.982442,-4865
17:02:22.982442,-2
17:02:22.982442,-445
17:02:22.982442,-12801
17:02:22.982442,-2
17:02:22.982442,-486
17:02:22.982442,-10753
17:02:22.982442,-3
17:02:22.982442,-369
17:02:22.982442,-21761
17:02:22.982442,-3
17:02:22.982442,-486
17:02:22.982442,7423
17:02:22.982442,-2
17:02:22.982442,-631
17:02:22.982442,20479
17:02:22.982442,-2
17:02:22.982442,-588
17:02:22.982442,-9473
17:02:22.982442,-3
17:02:22.982442,-450
17:02:22.982442,32255
17:02:22.982442,-3
17:02:22.982442,-474
17:02:22.982442,-5377
17:02:22.982442,-3
17:02:22.982442,-577
17:02:22.982442,23295
17:02:22.982442,-2
17:02:22.982442,-586
17:02:22.982442,13567
17:02:22.982442,-2
17:02:22.982442,-486
17:02:22.982442,-21761
17:02:22.982442,-3
17:02:22.982442,-371
17:02:22.982442,-13313
17:02:22.982442,-3
17:02:22.982442,-510
17:02:22.982442,30207
17:02:22.982442,-2
17:02:22.982442,-622
17:02:22.982442,27135
17:02:22.982442,-2
17:02:22.982442,-481
17:02:22.982442,-13825
17:02:22.982442,-3
17:02:22.982442,-376
17:02:22.982442,-18177
17:02:22.982442,-3
17:02:22.982442,-460
17:02:22.982442,17407
17:02:22.982442,-2
17:02:22.982442,-603
17:02:22.982442,30719
17:02:22.982442,-2
17:02:22.982442,-567
17:02:22.982442,-7169
17:02:22.982442,-3
17:02:22.982442,-417
17:02:22.982442,-29697
17:02:22.982442,-3
17:02:22.982442,-438
17:02:22.982442,1535
17:02:22.982442,-2
17:02:22.982442,-591
17:02:22.982442,30719
17:02:22.982442,-2
17:02:22.982442,-579
17:02:22.982442,13567
17:02:22.982442,-2
17:02:22.982442,-431
17:02:22.982442,-17409
17:02:22.982442,-3
17:02:22.982442,-371
17:02:23.521454,-550
17:02:23.521454,1535
17:02:23.521454,-2
17:02:23.521454,-364
17:02:23.521454,-23553
17:02:23.521454,-3
17:02:23.521454,-407
17:02:23.521454,9471
17:02:23.521454,-2
17:02:23.521454,-584
17:02:23.521454,-28673
17:02:23.521454,-2
17:02:23.521454,-579
17:02:23.521454,10495
17:02:23.521454,-2
17:02:23.521454,-424
17:02:23.521454,-26113
17:02:23.521454,-3
17:02:23.521454,-422
17:02:23.521454,-15105
17:02:23.521454,-3
17:02:23.521454,-543
17:02:23.521454,24063
17:02:23.521454,-2
17:02:23.521454,-662
17:02:23.521454,16127
17:02:23.521454,-2
17:02:23.521454,-510
17:02:23.521454,-27905
17:02:23.521454,-3
17:02:23.521454,-407
17:02:23.521454,31487
17:02:23.521454,-3
17:02:23.521454,-541
17:02:23.521454,6399
17:02:23.521454,-2
17:02:23.521454,-691
17:02:23.521454,15359
17:02:23.521454,-2
17:02:23.521454,-610
17:02:23.521454,-24321
17:02:23.521454,-3
17:02:23.521454,-443
17:02:23.521454,19967
17:02:23.521454,-3
17:02:23.521454,-493
17:02:23.521454,-7169
17:02:23.521454,-3
17:02:23.521454,-665
17:02:23.521454,18431
17:02:23.521454,-2
17:02:23.521454,-677
17:02:23.521454,-15105
17:02:23.521454,-3
17:02:23.521454,-467
17:02:23.521454,-20481
17:02:23.521454,-3
17:02:23.521454,-300
17:02:23.521454,1535
17:02:23.521454,-2
17:02:23.521454,-603
17:02:23.521454,17919
17:02:23.521454,-2
17:02:23.521454,-670
17:02:23.521454,9471
17:02:23.521454,-2
17:02:23.521454,-515
17:02:23.521454,-31489
17:02:23.521454,-3
17:02:23.521454,-412
17:02:23.521454,31487
17:02:23.521454,-3
17:02:23.521454,-543
17:02:23.521454,13055
17:02:23.521454,-2
17:02:23.521454,-667
17:02:23.521454,24063
17:02:23.521454,-2
17:02:23.521454,-569
17:02:23.521454,-19201
17:02:23.521454,-3
17:02:23.521454,-386
17:02:23.521454,-29185
17:02:23.521454,-3
17:02:23.521454,-438
17:02:23.521454,13567
17:02:23.521454,-2
17:02:23.521454,-593
17:02:23.521454,-25601
17:02:23.521454,-2
17:02:23.521454,-569
17:02:23.521454,8703
17:02:23.521454,-2
17:02:23.521454,-391
17:02:23.521454,-24833
17:02:23.521454,-3
17:02:23.521454,-374
17:02:23.521454,2047
17:02:23.521454,-2
17:02:23.521454,-526
17:02:23.521454,-18433
17:02:23.521454,-2
17:02:23.521454,-565
17:02:23.521454,-32257
17:02:23.521454,-2
17:02:23.521454,-410
17:02:23.521454,-10241
17:02:23.521454,-3
17:02:23.521454,-305
17:02:24.106546,-517
17:02:24.106546,19711
17:02:24.106546,-2
17:02:24.106546,-326
17:02:24.106546,-10241
17:02:24.106546,-3
17:02:24.106546,-312
17:02:24.106546,21503
17:02:24.106546,-2
17:02:24.106546,-507
17:02:24.106546,1279
17:02:24.106546,-1
17:02:24.106546,-393
17:02:24.106546,-21249
17:02:24.106546,-2
17:02:24.106546,-417
17:02:24.106546,10495
17:02:24.106546,-2
17:02:24.106546,-236
17:02:24.106546,8191
17:02:24.106546,-2
17:02:24.106546,-393
17:02:24.106546,-5377
17:02:24.106546,-2
17:02:24.106546,-522
17:02:24.106546,-6657
17:02:24.106546,-2
17:02:24.106546,-388
17:02:24.106546,17407
17:02:24.106546,-2
17:02:24.106546,-245
17:02:24.106546,7423
17:02:24.106546,-2
17:02:24.106546,-314
17:02:24.106546,-14081
17:02:24.106546,-2
17:02:24.106546,-467
17:02:24.106546,10495
17:02:24.106546,-1
17:02:24.106546,-422
17:02:24.106546,-27393
17:02:24.106546,-2
17:02:24.106546,-243
17:02:24.106546,7423
17:02:24.106546,-2
17:02:24.106546,-252
17:02:24.106546,-23297
17:02:24.106546,-2
17:02:24.106546,-412
17:02:24.106546,14079
17:02:24.106546,-1
17:02:24.106546,-429
17:02:24.106546,-1
17:02:24.106546,-2
17:02:24.106546,-231
17:02:24.106546,31231
17:02:24.106546,-2
17:02:24.106546,-128
17:02:24.106546,-9729
17:02:24.106546,-2
17:02:24.106546,-240
17:02:24.106546,-24577
17:02:24.106546,-1
17:02:24.106546,-307
17:02:24.106546,-17921
17:02:24.106546,-1
17:02:24.106546,-154
17:02:24.106546,6655
17:02:24.106546,-1
17:02:24.106546,-19
17:02:24.106546,1279
17:02:24.106546,-1
17:02:24.106546,-131
17:02:24.106546,-31233
17:02:24.106546,-1
17:02:24.106546,-288
17:02:24.106546,3071
17:02:24.106546,0
17:02:24.106546,-85
17:02:24.106546,-20481
17:02:24.106546,-1
17:02:24.106546,2
17:02:24.106546,-2816
17:02:24.106546,-2
17:02:24.106546,-135
17:02:24.106546,29183
17:02:24.106546,-1
17:02:24.106546,-250
17:02:24.106546,-30209
17:02:24.106546,-1
17:02:24.106546,-233
17:02:24.106546,11007
17:02:24.106546,-1
17:02:24.106546,-178
17:02:24.106546,511
17:02:24.106546,-1
17:02:24.106546,-176
17:02:24.106546,1279
17:02:24.106546,-1
17:02:24.106546,-212
17:02:24.106546,17151
17:02:24.106546,-1
17:02:24.106546,-307
17:02:24.106546,27391
17:02:24.106546,-1
17:02:24.106546,-245
17:02:24.106546,-4353
17:02:24.106546,-2
17:02:24.106546,-126
17:02:24.735943,-338
17:02:24.735943,13311
17:02:24.735943,-1
17:02:24.735943,-190
17:02:24.735943,-26881
17:02:24.735943,-2
17:02:24.735943,-133
17:02:24.735943,-8449
17:02:24.735943,-2
17:02:24.735943,-276
17:02:24.735943,-32001
17:02:24.735943,-1
17:02:24.735943,-340
17:02:24.735943,27391
17:02:24.735943,-1
17:02:24.735943,-185
17:02:24.735943,-3073
17:02:24.735943,-2
17:02:24.735943,-92
17:02:24.735943,-17153
17:02:24.735943,-2
17:02:24.735943,-190
17:02:24.735943,29183
17:02:24.735943,-1
17:02:24.735943,-345
17:02:24.735943,-28417
17:02:24.735943,-1
17:02:24.735943,-269
17:02:24.735943,-5377
17:02:24.735943,-2
17:02:24.735943,-119
17:02:24.735943,-23809
17:02:24.735943,-2
17:02:24.735943,-174
17:02:24.735943,7423
17:02:24.735943,-1
17:02:24.735943,-333
17:02:24.735943,-28929
17:02:24.735943,-1
17:02:24.735943,-329
17:02:24.735943,9727
17:02:24.735943,-1
17:02:24.735943,-154
17:02:24.735943,-23809
17:02:24.735943,-2
17:02:24.735943,-119
17:02:24.735943,-3073
17:02:24.735943,-2
17:02:24.735943,-281
17:02:24.735943,-30209
17:02:24.735943,-1
17:02:24.735943,-352
17:02:24.735943,22015
17:02:24.735943,-1
17:02:24.735943,-221
17:02:24.735943,-21249
17:02:24.735943,-2
17:02:24.735943,-119
17:02:24.735943,-21249
17:02:24.735943,-2
17:02:24.735943,-252
17:02:24.735943,15359
17:02:24.735943,-1
17:02:24.735943,-405
17:02:24.735943,21247
17:02:24.735943,-1
17:02:24.735943,-333
17:02:24.735943,-26369
17:02:24.735943,-2
17:02:24.735943,-195
17:02:24.735943,16639
17:02:24.735943,-2
17:02:24.735943,-271
17:02:24.735943,-12801
17:02:24.735943,-2
17:02:24.735943,-443
17:02:24.735943,9215
17:02:24.735943,-1
17:02:24.735943,-436
17:02:24.735943,-23297
17:02:24.735943,-2
17:02:24.735943,-264
17:02:24.735943,8703
17:02:24.735943,-2
17:02:24.735943,-257
17:02:24.735943,30719
17:02:24.735943,-2
17:02:24.735943,-426
17:02:24.735943,1279
17:02:24.735943,-1
17:02:24.735943,-493
17:02:24.735943,-17153
17:02:24.735943,-2
17:02:24.735943,-355
17:02:24.735943,3839
17:02:24.735943,-2
17:02:24.735943,-276
17:02:24.735943,5119
17:02:24.735943,-2
17:02:24.735943,-433
17:02:24.735943,-26881
17:02:24.735943,-2
17:02:24.735943,-562
17:02:24.735943,-3073
17:02:24.735943,-2
17:02:24.735943,-312
17:02:24.735943,-28161
17:02:24.735943,-2
17:02:24.735943,-281
17:02:25.232720,-569
17:02:25.232720,28415
17:02:25.232720,-2
17:02:25.232720,-429
17:02:25.232720,-19969
17:02:25.232720,-3
17:02:25.232720,-367
17:02:25.232720,-14337
17:02:25.232720,-3
17:02:25.232720,-512
17:02:25.232720,22783
17:02:25.232720,-2
17:02:25.232720,-650
17:02:25.232720,17919
17:02:25.232720,-2
17:02:25.232720,-562
17:02:25.232720,-24833
17:02:25.232720,-3
17:02:25.232720,-419
17:02:25.232720,32255
17:02:25.232720,-3
17:02:25.232720,-491
17:02:25.232720,2559
17:02:25.232720,-2
17:02:25.232720,-639
17:02:25.232720,28927
17:02:25.232720,-2
17:02:25.232720,-586
17:02:25.232720,-1025
17:02:25.232720,-3
17:02:25.232720,-405
17:02:25.232720,31487
17:02:25.232720,-3
17:02:25.232720,-429
17:02:25.232720,2047
17:02:25.232720,-2
17:02:25.232720,-569
17:02:25.232720,31999
17:02:25.232720,-2
17:02:25.232720,-608
17:02:25.232720,13567
17:02:25.232720,-2
17:02:25.232720,-453
17:02:25.232720,-24321
17:02:25.232720,-3
17:02:25.232720,-383
17:02:25.232720,-13825
17:02:25.232720,-3
17:02:25.232720,-517
17:02:25.232720,28927
17:02:25.232720,-2
17:02:25.232720,-615
17:02:25.232720,25855
17:02:25.232720,-2
17:02:25.232720,-507
17:02:25.232720,-13825
17:02:25.232720,-3
17:02:25.232720,-374
17:02:25.232720,-21249
17:02:25.232720,-3
17:02:25.232720,-450
17:02:25.232720,20991
17:02:25.232720,-2
17:02:25.232720,-593
17:02:25.232720,-29953
17:02:25.232720,-2
17:02:25.232720,-550
17:02:25.232720,255
17:02:25.232720,-2
17:02:25.232720,-395
17:02:25.232720,-26113
17:02:25.232720,-3
17:02:25.232720,-412
17:02:25.232720,2559
17:02:25.232720,-2
17:02:25.232720,-581
17:02:25.232720,-31745
17:02:25.232720,-2
17:02:25.232720,-600
17:02:25.232720,9983
17:02:25.232720,-2
17:02:25.232720,-445
17:02:25.232720,-26625
17:02:25.232720,-3
17:02:25.232720,-407
17:02:25.232720,-16385
17:02:25.232720,-3
17:02:25.232720,-550
17:02:25.232720,20991
17:02:25.232720,-2
17:02:25.232720,-653
17:02:25.232720,13567
17:02:25.232720,-2
17:02:25.232720,-543
17:02:25.232720,-28417
17:02:25.232720,-3
17:02:25.232720,-422
17:02:25.232720,31487
17:02:25.232720,-3
17:02:25.232720,-529
17:02:25.232720,3327
17:02:25.232720,-2
17:02:25.232720,-672
17:02:25.232720,17919
17:02:25.232720,-2
17:02:25.232720,-608
17:02:25.232720,-20481
17:02:25.232720,-3
17:02:25.232720,-455
17:02:25.772855,-672
17:02:25.772855,8191
17:02:25.772855,-2
17:02:25.772855,-553
17:02:25.772855,-32257
17:02:25.772855,-3
17:02:25.772855,-429
17:02:25.772855,32255
17:02:25.772855,-3
17:02:25.772855,-522
17:02:25.772855,8191
17:02:25.772855,-2
17:02:25.772855,-667
17:02:25.772855,19199
17:02:25.772855,-2
17:02:25.772855,-591
17:02:25.772855,-15617
17:02:25.772855,-3
17:02:25.772855,-419
17:02:25.772855,-19969
17:02:25.772855,-3
17:02:25.772855,-319
17:02:25.772855,25855
17:02:25.772855,-2
17:02:25.772855,-615
17:02:25.772855,25343
17:02:25.772855,-2
17:02:25.772855,-605
17:02:25.772855,1535
17:02:25.772855,-2
17:02:25.772855,-445
17:02:25.772855,-27137
17:02:25.772855,-3
17:02:25.772855,-398
17:02:25.772855,-10241
17:02:25.772855,-3
17:02:25.772855,-555
17:02:25.772855,27647
17:02:25.772855,-2
17:02:25.772855,-631
17:02:25.772855,18431
17:02:25.772855,-2
17:02:25.772855,-484
17:02:25.772855,-18689
17:02:25.772855,-3
17:02:25.772855,-367
17:02:25.772855,-14337
17:02:25.772855,-3
17:02:25.772855,-455
17:02:25.772855,31999
17:02:25.772855,-2
17:02:25.772855,-579
17:02:25.772855,-22529
17:02:25.772855,-2
17:02:25.772855,-486
17:02:25.772855,3839
17:02:25.772855,-2
17:02:25.772855,-336
17:02:25.772855,-12545
17:02:25.772855,-3
17:02:25.772855,-379
17:02:25.772855,24575
17:02:25.772855,-2
17:02:25.772855,-531
17:02:25.772855,-11521
17:02:25.772855,-2
17:02:25.772855,-503
17:02:25.772855,25855
17:02:25.772855,-2
17:02:25.772855,-338
17:02:25.772855,-3329
17:02:25.772855,-3
17:02:25.772855,-298
17:02:25.772855,19711
17:02:25.772855,-2
17:02:25.772855,-450
17:02:25.772855,-4865
17:02:25.772855,-2
17:02:25.772855,-505
17:02:25.772855,-17665
17:02:25.772855,-2
17:02:25.772855,-350
17:02:25.772855,9983
17:02:25.772855,-2
17:02:25.772855,-255
17:02:25.772855,15359
17:02:25.772855,-2
17:02:25.772855,-360
17:02:25.772855,-4865
17:02:25.772855,-2
17:02:25.772855,-474
17:02:25.772855,5375
17:02:25.772855,-1
17:02:25.772855,-357
17:02:25.772855,-31745
17:02:25.772855,-2
17:02:25.772855,-197
17:02:25.772855,23295
17:02:25.772855,-2
17:02:25.772855,-259
17:02:25.772855,-7425
17:02:25.772855,-2
17:02:25.772855,-414
17:02:25.772855,18943
17:02:25.772855,-1
17:02:25.772855,-388
17:02:25.772855,-13313
17:02:25.772855,-2
17:02:25.772855,-212
17:02:26.311385,-429
17:02:26.311385,11007
17:02:26.311385,-1
17:02:26.311385,-331
17:02:26.311385,-28161
17:02:26.311385,-2
17:02:26.311385,-185
17:02:26.311385,23295
17:02:26.311385,-2
17:02:26.311385,-255
17:02:26.311385,-513
17:02:26.311385,-2
17:02:26.311385,-383
17:02:26.311385,25599
17:02:26.311385,-1
17:02:26.311385,-398
17:02:26.311385,-17665
17:02:26.311385,-2
17:02:26.311385,-195
17:02:26.311385,24063
17:02:26.311385,-2
17:02:26.311385,-205
17:02:26.311385,-15361
17:02:26.311385,-2
17:02:26.311385,-369
17:02:26.311385,20223
17:02:26.311385,-1
17:02:26.311385,-412
17:02:26.311385,-1
17:02:26.311385,-2
17:02:26.311385,-257
17:02:26.311385,26367
17:02:26.311385,-2
17:02:26.311385,-174
17:02:26.311385,-25601
17:02:26.311385,-2
17:02:26.311385,-300
17:02:26.311385,15871
17:02:26.311385,-1
17:02:26.311385,-424
17:02:26.311385,11007
17:02:26.311385,-1
17:02:26.311385,-295
17:02:26.311385,-5377
17:02:26.311385,-2
17:02:26.311385,-11
17:02:26.311385,-3585
17:02:26.311385,-2
17:02:26.311385,-212
17:02:26.311385,3583
17:02:26.311385,-1
17:02:26.311385,-405
17:02:26.311385,20223
17:02:26.311385,-1
17:02:26.311385,-364
17:02:26.311385,-12801
17:02:26.311385,-2
17:02:26.311385,-190
17:02:26.311385,23295
17:02:26.311385,-2
17:02:26.311385,-200
17:02:26.311385,-9217
17:02:26.311385,-2
17:02:26.311385,-367
17:02:26.311385,24319
17:02:26.311385,-1
17:02:26.311385,-388
17:02:26.311385,3071
17:02:26.311385,-1
17:02:26.311385,-212
17:02:26.311385,-28673
17:02:26.311385,-2
17:02:26.311385,-135
17:02:26.311385,-13313
17:02:26.311385,-2
17:02:26.311385,-267
17:02:26.311385,29951
17:02:26.311385,-1
17:02:26.311385,-367
17:02:26.311385,24319
17:02:26.311385,-1
17:02:26.311385,-252
17:02:26.311385,-15873
17:02:26.311385,-2
17:02:26.311385,-112
17:02:26.311385,-25601
17:02:26.311385,-2
17:02:26.311385,-219
17:02:26.311385,20735
17:02:26.311385,-1
17:02:26.311385,-352
17:02:26.311385,-30209
17:02:26.311385,-1
17:02:26.311385,-293
17:02:26.311385,-2561
17:02:26.311385,-2
17:02:26.311385,-123
17:02:26.311385,-22017
17:02:26.311385,-2
17:02:26.311385,-135
17:02:26.311385,9215
17:02:26.311385,-1
17:02:26.311385,-314
17:02:26.311385,-24065
17:02:26.311385,-1
17:02:26.311385,-319
17:02:26.311385,15871
17:02:26.311385,-1
17:02:26.311385,-154
17:02:26.852225,-338
17:02:26.852225,-27649
17:02:26.852225,-1
17:02:26.852225,-271
17:02:26.852225,1791
17:02:26.852225,-1
17:02:26.852225,-104
17:02:26.852225,-16385
17:02:26.852225,-2
17:02:26.852225,-112
17:02:26.852225,11007
17:02:26.852225,-1
17:02:26.852225,-324
17:02:26.852225,-20993
17:02:26.852225,-1
17:02:26.852225,-309
17:02:26.852225,12799
17:02:26.852225,-1
17:02:26.852225,-147
17:02:26.852225,-18945
17:02:26.852225,-2
17:02:26.852225,-100
17:02:26.852225,-1
17:02:26.852225,-2
17:02:26.852225,-259
17:02:26.852225,-27137
17:02:26.852225,-1
17:02:26.852225,-338
17:02:26.852225,25087
17:02:26.852225,-1
17:02:26.852225,-226
17:02:26.852225,-19457
17:02:26.852225,-2
17:02:26.852225,-123
17:02:26.852225,-25089
17:02:26.852225,-2
17:02:26.852225,-259
17:02:26.852225,11519
17:02:26.852225,-1
17:02:26.852225,-405
17:02:26.852225,20735
17:02:26.852225,-1
17:02:26.852225,-333
17:02:26.852225,-21249
17:02:26.852225,-2
17:02:26.852225,-185
17:02:26.852225,22783
17:02:26.852225,-2
17:02:26.852225,-243
17:02:26.852225,-10497
17:02:26.852225,-2
17:02:26.852225,-419
17:02:26.852225,14591
17:02:26.852225,-1
17:02:26.852225,-414
17:02:26.852225,-15361
17:02:26.852225,-2
17:02:26.852225,-250
17:02:26.852225,16639
17:02:26.852225,-2
17:02:26.852225,-226
17:02:26.852225,-32257
17:02:26.852225,-2
17:02:26.852225,-410
17:02:26.852225,-1793
17:02:26.852225,-2
17:02:26.852225,-503
17:02:26.852225,-4865
17:02:26.852225,-2
17:02:26.852225,-226
17:02:26.852225,-17153
17:02:26.852225,-2
17:02:26.852225,-190
17:02:26.852225,10495
17:02:26.852225,-2
17:02:26.852225,-386
17:02:26.852225,-15873
17:02:26.852225,-2
17:02:26.852225,-538
17:02:26.852225,-15873
17:02:26.852225,-2
17:02:26.852225,-469
17:02:26.852225,2559
17:02:26.852225,-2
17:02:26.852225,-333
17:02:26.852225,-15617
17:02:26.852225,-3
17:02:26.852225,-405
17:02:26.852225,16127
17:02:26.852225,-2
17:02:26.852225,-593
17:02:26.852225,-26369
17:02:26.852225,-2
17:02:26.852225,-560
17:02:26.852225,7423
17:02:26.852225,-2
17:02:26.852225,-395
17:02:26.852225,-26113
17:02:26.852225,-3
17:02:26.852225,-393
17:02:26.852225,10495
17:02:26.852225,-2
17:02:26.852225,-553
17:02:26.852225,-30465
17:02:26.852225,-2
17:02:26.852225,-515
17:02:26.852225,15359
17:02:26.852225,-2
17:02:26.852225,-433
17:02:27.481986,-517
17:02:27.481986,19711
17:02:27.481986,-2
17:02:27.481986,-484
17:02:27.481986,-27393
17:02:27.481986,-2
17:02:27.481986,-433
17:02:27.481986,-13825
17:02:27.481986,-3
17:02:27.481986,-307
17:02:27.481986,5631
17:02:27.481986,-2
17:02:27.481986,-510
17:02:27.481986,-14081
17:02:27.481986,-2
17:02:27.481986,-567
17:02:27.481986,27647
17:02:27.481986,-2
17:02:27.481986,-400
17:02:27.481986,-8961
17:02:27.481986,-3
17:02:27.481986,-321
17:02:27.481986,1535
17:02:27.481986,-2
17:02:27.481986,-445
17:02:27.481986,-20737
17:02:27.481986,-2
17:02:27.481986,-534
17:02:27.481986,-13313
17:02:27.481986,-2
17:02:27.481986,-422
17:02:27.481986,13567
17:02:27.481986,-2
17:02:27.481986,-274
17:02:27.481986,2559
17:02:27.481986,-2
17:02:27.481986,-333
17:02:27.481986,-19457
17:02:27.481986,-2
17:02:27.481986,-491
17:02:27.481986,-513
17:02:27.481986,-2
17:02:27.481986,-457
17:02:27.481986,28415
17:02:27.481986,-2
17:02:27.481986,-293
17:02:27.481986,255
17:02:27.481986,-2
17:02:27.481986,-290
17:02:27.481986,29439
17:02:27.481986,-2
17:02:27.481986,-460
17:02:27.481986,-1281
17:02:27.481986,-2
17:02:27.481986,-495
17:02:27.481986,-23297
17:02:27.481986,-2
17:02:27.481986,-338
17:02:27.481986,2047
17:02:27.481986,-2
17:02:27.481986,-274
17:02:27.481986,14335
17:02:27.481986,-2
17:02:27.481986,-412
17:02:27.481986,-11521
17:02:27.481986,-2
17:02:27.481986,-531
17:02:27.481986,-18433
17:02:27.481986,-2
17:02:27.481986,-431
17:02:27.481986,4607
17:02:27.481986,-2
17:02:27.481986,-302
17:02:27.481986,-7681
17:02:27.481986,-3
17:02:27.481986,-395
17:02:27.481986,-31233
17:02:27.481986,-2
17:02:27.481986,-557
17:02:27.481986,-15361
17:02:27.481986,-2
17:02:27.481986,-491
17:02:27.481986,14335
17:02:27.481986,-2
17:02:27.481986,-340
17:02:27.481986,-17409
17:02:27.481986,-3
17:02:27.481986,-362
17:02:27.481986,30719
17:02:27.481986,-2
17:02:27.481986,-381
17:02:27.481986,23807
17:02:27.481986,-1
17:02:27.481986,-488
17:02:27.481986,25343
17:02:27.481986,-2
17:02:27.481986,-376
17:02:27.481986,-7681
17:02:27.481986,-3
17:02:27.481986,-314
17:02:27.481986,6911
17:02:27.481986,-2
17:02:27.481986,-455
17:02:27.481986,-17665
17:02:27.481986,-2
17:02:27.481986,-560
17:02:27.481986,-25601
17:02:27.481986,-2
17:02:27.481986,-448
17:02:28.022439,-534
17:02:28.022439,-15873
17:02:28.022439,-2
17:02:28.022439,-550
17:02:28.022439,25343
17:02:28.022439,-2
17:02:28.022439,-367
17:02:28.022439,-8449
17:02:28.022439,-3
17:02:28.022439,-309
17:02:28.022439,7423
17:02:28.022439,-2
17:02:28.022439,-464
17:02:28.022439,-16385
17:02:28.022439,-2
17:02:28.022439,-557
17:02:28.022439,-22529
17:02:28.022439,-2
17:02:28.022439,-398
17:02:28.022439,255
17:02:28.022439,-2
17:02:28.022439,-314
17:02:28.022439,-1025
17:02:28.022439,-3
17:02:28.022439,-374
17:02:28.022439,-18945
17:02:28.022439,-2
17:02:28.022439,-512
17:02:28.022439,-1281
17:02:28.022439,-2
17:02:28.022439,-429
17:02:28.022439,22271
17:02:28.022439,-2
17:02:28.022439,-276
17:02:28.022439,767
17:02:28.022439,-2
17:02:28.022439,-305
17:02:28.022439,-28161
17:02:28.022439,-2
17:02:28.022439,-464
17:02:28.022439,7935
17:02:28.022439,-1
17:02:28.022439,-443
17:02:28.022439,-18433
17:02:28.022439,-2
17:02:28.022439,-274
17:02:28.022439,12543
17:02:28.022439,-2
17:02:28.022439,-214
17:02:28.022439,-29953
17:02:28.022439,-2
17:02:28.022439,-379
17:02:28.022439,11519
17:02:28.022439,-1
17:02:28.022439,-448
17:02:28.022439,1279
17:02:28.022439,-1
17:02:28.022439,-307
17:02:28.022439,21503
17:02:28.022439,-2
17:02:28.022439,-200
17:02:28.022439,24063
17:02:28.022439,-2
17:02:28.022439,-321
17:02:28.022439,511
17:02:28.022439,-1
17:02:28.022439,-455
17:02:28.022439,7935
17:02:28.022439,-1
17:02:28.022439,-371
17:02:28.022439,-29185
17:02:28.022439,-2
17:02:28.022439,-207
17:02:28.022439,16639
17:02:28.022439,-2
17:02:28.022439,-252
17:02:28.022439,-11521
17:02:28.022439,-2
17:02:28.022439,-426
17:02:28.022439,17151
17:02:28.022439,-1
17:02:28.022439,-412
17:02:28.022439,-14081
17:02:28.022439,-2
17:02:28.022439,-231
17:02:28.022439,18431
17:02:28.022439,-2
17:02:28.022439,-193
17:02:28.022439,-18433
17:02:28.022439,-2
17:02:28.022439,-355
17:02:28.022439,22015
17:02:28.022439,-1
17:02:28.022439,-412
17:02:28.022439,7423
17:02:28.022439,-1
17:02:28.022439,-252
17:02:28.022439,31231
17:02:28.022439,-2
17:02:28.022439,-162
17:02:28.022439,-29953
17:02:28.022439,-2
17:02:28.022439,-295
17:02:28.022439,8447
17:02:28.022439,-1
17:02:28.022439,-431
17:02:28.022439,26367
17:02:28.022439,-1
17:02:28.022439,-205
17:02:28.561721,-188
17:02:28.561721,-17409
17:02:28.561721,-1
17:02:28.561721,-393
17:02:28.561721,6655
17:02:28.561721,-1
17:02:28.561721,-252
17:02:28.561721,28415
17:02:28.561721,-2
17:02:28.561721,-166
17:02:28.561721,-31233
17:02:28.561721,-2
17:02:28.561721,-305
17:02:28.561721,17151
17:02:28.561721,-1
17:02:28.561721,-412
17:02:28.561721,11519
17:02:28.561721,-1
17:02:28.561721,-326
17:02:28.561721,-22529
17:02:28.561721,-2
17:02:28.561721,-162
17:02:28.561721,31231
17:02:28.561721,-2
17:02:28.561721,-200
17:02:28.561721,12799
17:02:28.561721,-1
17:02:28.561721,-350
17:02:28.561721,-27137
17:02:28.561721,-1
17:02:28.561721,-312
17:02:28.561721,3583
17:02:28.561721,-1
17:02:28.561721,-143
17:02:28.561721,-26881
17:02:28.561721,-2
17:02:28.561721,-128
17:02:28.561721,3071
17:02:28.561721,-1
17:02:28.561721,-293
17:02:28.561721,-22273
17:02:28.561721,-1
17:02:28.561721,-326
17:02:28.561721,26367
17:02:28.561721,-1
17:02:28.561721,-147
17:02:28.561721,-11521
17:02:28.561721,-2
17:02:28.561721,-64
17:02:28.561721,511
17:02:28.561721,-1
17:02:28.561721,-197
17:02:28.561721,-20481
17:02:28.561721,-1
17:02:28.561721,-300
17:02:28.561721,-22273
17:02:28.561721,-1
17:02:28.561721,-207
17:02:28.561721,-513
17:02:28.561721,-2
17:02:28.561721,-52
17:02:28.561721,-9217
17:02:28.561721,-2
17:02:28.561721,-138
17:02:28.561721,31231
17:02:28.561721,-1
17:02:28.561721,-300
17:02:28.561721,-13057
17:02:28.561721,-1
17:02:28.561721,-245
17:02:28.561721,15871
17:02:28.561721,-1
17:02:28.561721,-66
17:02:28.561721,-9217
17:02:28.561721,-2
17:02:28.561721,-64
17:02:28.561721,24319
17:02:28.561721,-1
17:02:28.561721,-233
17:02:28.561721,-7425
17:02:28.561721,-1
17:02:28.561721,-269
17:02:28.561721,-28929
17:02:28.561721,-1
17:02:28.561721,-92
17:02:28.561721,-2561
17:02:28.561721,-2
17:02:28.561721,-23
17:02:28.561721,11519
17:02:28.561721,-1
17:02:28.561721,-176
17:02:28.561721,-10497
17:02:28.561721,-1
17:02:28.561721,-276
17:02:28.561721,-17409
17:02:28.561721,-1
17:02:28.561721,-159
17:02:28.561721,5375
17:02:28.561721,-1
17:02:28.561721,-26
17:02:28.561721,-1793
17:02:28.561721,-2
17:02:28.561721,-126
17:02:28.561721,-25345
17:02:28.561721,-1
17:02:28.561721,-281
17:02:28.561721,-10497
17:02:28.561721,-1
17:02:28.561721,-226
17:02:29.147438,-197
17:02:29.147438,-14337
17:02:29.147438,-1
17:02:29.147438,-293
17:02:29.147438,-21505
17:02:29.147438,-1
17:02:29.147438,-171
17:02:29.147438,-1793
17:02:29.147438,-2
17:02:29.147438,-42
17:02:29.147438,-5377
17:02:29.147438,-2
17:02:29.147438,-178
17:02:29.147438,30463
17:02:29.147438,-1
17:02:29.147438,-309
17:02:29.147438,-24577
17:02:29.147438,-1
17:02:29.147438,-290
17:02:29.147438,6655
17:02:29.147438,-1
17:02:29.147438,7
17:02:29.147438,17408
17:02:29.147438,-1
17:02:29.147438,-50
17:02:29.147438,15871
17:02:29.147438,-1
17:02:29.147438,-307
17:02:29.147438,-24577
17:02:29.147438,-1
17:02:29.147438,-343
17:02:29.147438,7423
17:02:29.147438,-1
17:02:29.147438,-188
17:02:29.147438,32511
17:02:29.147438,-2
17:02:29.147438,-152
17:02:29.147438,-15873
17:02:29.147438,-2
17:02:29.147438,-321
17:02:29.147438,21247
17:02:29.147438,-1
17:02:29.147438,-412
17:02:29.147438,7935
17:02:29.147438,-1
17:02:29.147438,-290
17:02:29.147438,30719
17:02:29.147438,-2
17:02:29.147438,-169
17:02:29.147438,31231
17:02:29.147438,-2
17:02:29.147438,-283
17:02:29.147438,7423
17:02:29.147438,-1
17:02:29.147438,-431
17:02:29.147438,12287
17:02:29.147438,-1
17:02:29.147438,-367
17:02:29.147438,-29185
17:02:29.147438,-2
17:02:29.147438,-214
17:02:29.147438,17407
17:02:29.147438,-2
17:02:29.147438,-259
17:02:29.147438,-13313
17:02:29.147438,-2
17:02:29.147438,-417
17:02:29.147438,15359
17:02:29.147438,-1
17:02:29.147438,-412
17:02:29.147438,-13313
17:02:29.147438,-2
17:02:29.147438,-250
17:02:29.147438,14335
17:02:29.147438,-2
17:02:29.147438,-226
17:02:29.147438,-29185
17:02:29.147438,-2
17:02:29.147438,-393
17:02:29.147438,4863
17:02:29.147438,-1
17:02:29.147438,-479
17:02:29.147438,-11521
17:02:29.147438,-2
17:02:29.147438,-340
17:02:29.147438,13055
17:02:29.147438,-2
17:02:29.147438,-250
17:02:29.147438,13055
17:02:29.147438,-2
17:02:29.147438,-376
17:02:29.147438,-14593
17:02:29.147438,-2
17:02:29.147438,-517
17:02:29.147438,-8449
17:02:29.147438,-2
17:02:29.147438,-426
17:02:29.147438,16639
17:02:29.147438,-2
17:02:29.147438,-288
17:02:29.147438,-3329
17:02:29.147438,-3
17:02:29.147438,-345
17:02:29.147438,-31233
17:02:29.147438,-2
17:02:29.147438,-512
17:02:29.147438,-7937
17:02:29.147438,-2
17:02:29.147438,-493
17:02:29.687635,-412
17:02:29.687635,-19457
17:02:29.687635,-2
17:02:29.687635,-541
17:02:29.687635,-15873
17:02:29.687635,-2
17:02:29.687635,-462
17:02:29.687635,5119
17:02:29.687635,-2
17:02:29.687635,-312
17:02:29.687635,-8961
17:02:29.687635,-3
17:02:29.687635,-383
17:02:29.687635,31999
17:02:29.687635,-2
17:02:29.687635,-519
17:02:29.687635,-18945
17:02:29.687635,-2
17:02:29.687635,-538
17:02:29.687635,20991
17:02:29.687635,-2
17:02:29.687635,-336
17:02:29.687635,-8961
17:02:29.687635,-3
17:02:29.687635,-319
17:02:29.687635,17407
17:02:29.687635,-2
17:02:29.687635,-488
17:02:29.687635,-11009
17:02:29.687635,-2
17:02:29.687635,-524
17:02:29.687635,-25601
17:02:29.687635,-2
17:02:29.687635,-376
17:02:29.687635,-2305
17:02:29.687635,-3
17:02:29.687635,-281
17:02:29.687635,11263
17:02:29.687635,-2
17:02:29.687635,-405
17:02:29.687635,-12289
17:02:29.687635,-2
17:02:29.687635,-526
17:02:29.687635,-18433
17:02:29.687635,-2
17:02:29.687635,-438
17:02:29.687635,19199
17:02:29.687635,-2
17:02:29.687635,-162
17:02:29.687635,-29185
17:02:29.687635,-2
17:02:29.687635,-317
17:02:29.687635,31231
17:02:29.687635,-2
17:02:29.687635,-529
17:02:29.687635,-7937
17:02:29.687635,-2
17:02:29.687635,-488
17:02:29.687635,20479
17:02:29.687635,-2
17:02:29.687635,-324
17:02:29.687635,-9473
17:02:29.687635,-3
17:02:29.687635,-343
17:02:29.687635,16127
17:02:29.687635,-2
17:02:29.687635,-515
17:02:29.687635,-18945
17:02:29.687635,-2
17:02:29.687635,-565
17:02:29.687635,25855
17:02:29.687635,-2
17:02:29.687635,-395
17:02:29.687635,-9473
17:02:29.687635,-3
17:02:29.687635,-321
17:02:29.687635,1535
17:02:29.687635,-2
17:02:29.687635,-457
17:02:29.687635,-20737
17:02:29.687635,-2
17:02:29.687635,-562
17:02:29.687635,-25089
17:02:29.687635,-2
17:02:29.687635,-450
17:02:29.687635,-1025
17:02:29.687635,-3
17:02:29.687635,-319
17:02:29.687635,-8449
17:02:29.687635,-3
17:02:29.687635,-395
17:02:29.687635,-28673
17:02:29.687635,-2
17:02:29.687635,-534
17:02:29.687635,-12289
17:02:29.687635,-2
17:02:29.687635,-488
17:02:29.687635,16639
17:02:29.687635,-2
17:02:29.687635,-319
17:02:29.687635,-8449
17:02:29.687635,-3
17:02:29.687635,-333
17:02:29.687635,24575
17:02:29.687635,-2
17:02:29.687635,-488
17:02:29.687635,-4353
17:02:29.687635,-2
17:02:29.687635,-493
17:02:30.226181,-350
17:02:30.226181,-17665
17:02:30.226181,-2
17:02:30.226181,-498
17:02:30.226181,1791
17:02:30.226181,-1
17:02:30.226181,-422
17:02:30.226181,29439
17:02:30.226181,-2
17:02:30.226181,-250
17:02:30.226181,13055
17:02:30.226181,-2
17:02:30.226181,-269
17:02:30.226181,-28161
17:02:30.226181,-2
17:02:30.226181,-429
17:02:30.226181,15359
17:02:30.226181,-1
17:02:30.226181,-438
17:02:30.226181,-11009
17:02:30.226181,-2
17:02:30.226181,-255
17:02:30.226181,16639
17:02:30.226181,-2
17:02:30.226181,-205
17:02:30.226181,-27393
17:02:30.226181,-2
17:02:30.226181,-352
17:02:30.226181,11519
17:02:30.226181,-1
17:02:30.226181,-445
17:02:30.226181,4351
17:02:30.226181,-1
17:02:30.226181,-314
17:02:30.226181,24063
17:02:30.226181,-2
17:02:30.226181,-205
17:02:30.226181,22271
17:02:30.226181,-2
17:02:30.226181,-312
17:02:30.226181,-3585
17:02:30.226181,-2
17:02:30.226181,-464
17:02:30.226181,7423
17:02:30.226181,-1
17:02:30.226181,-388
17:02:30.226181,-31745
17:02:30.226181,-2
17:02:30.226181,-221
17:02:30.226181,15359
17:02:30.226181,-2
17:02:30.226181,-267
17:02:30.226181,-16385
17:02:30.226181,-2
17:02:30.226181,-424
17:02:30.226181,11519
17:02:30.226181,-1
